Data from MonoPyChalIsomerACN10uM410nmA_Absorbance_14-53-26-473.txt Node
Date: Fri Jul 05 14:53:26 BST 2024
User: LASERRRRR
Spectrometer: FLMT03099
Trigger mode: 0
Integration Time (sec): 1.000000E-1
Scans to average: 1
Electric dark correction enabled: true
Nonlinearity correction enabled: false
Boxcar width: 0
XAxis mode: Wavelengths
Number of Pixels in Spectrum: 3648
>>>>>Begin Spectral Data<<<<<
179.3399	0.1296
179.5586	0.1296
179.7771	0.1296
179.9957	0.24
180.2143	-0
180.4329	-0.1021
180.6514	0.6577
180.8699	-0
181.0885	-0.3047
181.307	-0.092
181.5255	-1.0157
181.744	-0.5111
181.9625	-0
182.181	-0.4988
182.3994	-0.026
182.6179	-0
182.8363	-0.2353
183.0547	0.1461
183.2732	0.0571
183.4916	0.0243
183.71	0.4917
183.9284	0.0284
184.1467	-0.2027
184.3651	0.2623
184.5835	0.0015
184.8018	-0.0149
185.0201	0.1061
185.2385	-0.1065
185.4568	-0.0762
185.6751	0.0642
185.8934	0.2247
186.1117	0.0927
186.3299	0.0086
186.5482	0.1077
186.7664	-0.1468
186.9847	-0.1073
187.2029	0.2222
187.4211	0.1045
187.6393	0.0524
187.8575	-0.2106
188.0757	0.0768
188.2939	0.009
188.512	0.7876
188.7302	-0.1745
188.9483	-0.0288
189.1665	0.0742
189.3846	0.1564
189.6027	0.2268
189.8208	0.2156
190.0389	0.1701
190.257	0.0548
190.475	0.1175
190.6931	0.189
190.9111	0.1203
191.1292	0.2086
191.3472	0.2499
191.5652	0.2891
191.7832	0.0254
192.0012	0.4145
192.2192	0.2035
192.4371	0.7858
192.6551	0.437
192.873	0.4215
193.091	0.2782
193.3089	0.4894
193.5268	0.3364
193.7447	0.5981
193.9626	0.4058
194.1805	0.7412
194.3984	0.7301
194.6162	0.4454
194.8341	0.4877
195.0519	0.6097
195.2697	0.6815
195.4875	0.5632
195.7054	0.9424
195.9231	0.4212
196.1409	0.603
196.3587	0.5065
196.5765	0.5146
196.7942	0.6727
197.012	0.613
197.2297	0.6631
197.4474	0.7179
197.6651	0.6972
197.8828	0.4611
198.1005	0.5912
198.3182	0.5165
198.5358	0.8536
198.7535	0.4346
198.9711	0.5698
199.1888	0.5823
199.4064	0.6736
199.624	0.6151
199.8416	0.6774
200.0592	0.689
200.2767	0.6151
200.4943	0.5436
200.7119	0.6117
200.9294	0.6554
201.1469	0.5562
201.3645	0.537
201.582	0.7357
201.7995	0.56
202.017	0.5461
202.2344	0.5758
202.4519	0.6543
202.6694	0.5641
202.8868	0.5456
203.1042	0.6139
203.3217	0.6473
203.5391	0.6455
203.7565	0.5298
203.9739	0.5739
204.1913	0.4995
204.4086	0.6224
204.626	0.6645
204.8433	0.5844
205.0607	0.5736
205.278	0.6025
205.4953	0.5159
205.7126	0.7063
205.9299	0.7549
206.1472	0.6927
206.3644	0.6225
206.5817	0.6364
206.7989	0.6784
207.0162	0.6432
207.2334	0.6656
207.4506	0.5834
207.6678	0.6146
207.885	0.6395
208.1022	0.7351
208.3194	0.6585
208.5365	0.6657
208.7537	0.6688
208.9708	0.6131
209.1879	0.6002
209.405	0.6394
209.6222	0.7426
209.8392	0.6045
210.0563	0.5863
210.2734	0.6269
210.4905	0.5906
210.7075	0.5904
210.9245	0.5469
211.1416	0.6124
211.3586	0.6165
211.5756	0.5688
211.7926	0.6173
212.0096	0.6191
212.2265	0.5724
212.4435	0.5702
212.6604	0.6121
212.8774	0.5722
213.0943	0.5486
213.3112	0.5823
213.5281	0.4748
213.745	0.4714
213.9619	0.5025
214.1788	0.5235
214.3956	0.4465
214.6125	0.4488
214.8293	0.443
215.0461	0.4306
215.2629	0.4797
215.4798	0.4362
215.6965	0.4329
215.9133	0.4382
216.1301	0.4166
216.3469	0.414
216.5636	0.3932
216.7803	0.3725
216.9971	0.3925
217.2138	0.3876
217.4305	0.3714
217.6472	0.3598
217.8639	0.3918
218.0805	0.3499
218.2972	0.3194
218.5138	0.321
218.7305	0.286
218.9471	0.3031
219.1637	0.3029
219.3803	0.2593
219.5969	0.2985
219.8135	0.2547
220.0301	0.2587
220.2466	0.2604
220.4632	0.2459
220.6797	0.23
220.8962	0.2364
221.1127	0.244
221.3292	0.2727
221.5457	0.2429
221.7622	0.2493
221.9787	0.2486
222.1951	0.2399
222.4116	0.2424
222.628	0.2726
222.8444	0.2447
223.0608	0.2319
223.2772	0.2408
223.4936	0.2746
223.71	0.2496
223.9264	0.2667
224.1427	0.2355
224.3591	0.2392
224.5754	0.2734
224.7917	0.2717
225.008	0.2562
225.2243	0.2574
225.4406	0.2682
225.6569	0.2611
225.8732	0.2744
226.0894	0.2609
226.3057	0.2487
226.5219	0.2738
226.7381	0.2804
226.9543	0.2769
227.1705	0.276
227.3867	0.2705
227.6029	0.3011
227.8191	0.2799
228.0352	0.2911
228.2513	0.3148
228.4675	0.3092
228.6836	0.3032
228.8997	0.2991
229.1158	0.3071
229.3319	0.3152
229.548	0.3073
229.764	0.3222
229.9801	0.3223
230.1961	0.3189
230.4121	0.3273
230.6282	0.3255
230.8442	0.2989
231.0602	0.3433
231.2761	0.3535
231.4921	0.333
231.7081	0.3654
231.924	0.3213
232.14	0.3413
232.3559	0.3358
232.5718	0.3592
232.7877	0.3618
233.0036	0.3308
233.2195	0.3476
233.4353	0.3523
233.6512	0.3484
233.867	0.3635
234.0829	0.3522
234.2987	0.3523
234.5145	0.3659
234.7303	0.3812
234.9461	0.3852
235.1619	0.3813
235.3776	0.3751
235.5934	0.3904
235.8091	0.3469
236.0249	0.3621
236.2406	0.3843
236.4563	0.3628
236.672	0.3776
236.8877	0.3812
237.1034	0.3892
237.319	0.3754
237.5347	0.4158
237.7503	0.4128
237.966	0.3952
238.1816	0.3976
238.3972	0.3873
238.6128	0.3858
238.8284	0.3979
239.0439	0.3979
239.2595	0.3938
239.475	0.412
239.6906	0.3997
239.9061	0.4078
240.1216	0.3973
240.3371	0.4
240.5526	0.3946
240.7681	0.4143
240.9836	0.3872
241.199	0.406
241.4145	0.3844
241.6299	0.3632
241.8453	0.3718
242.0607	0.3899
242.2761	0.3656
242.4915	0.3628
242.7069	0.3623
242.9223	0.3663
243.1376	0.344
243.353	0.3522
243.5683	0.3389
243.7836	0.3232
243.9989	0.3439
244.2142	0.3166
244.4295	0.3066
244.6448	0.3114
244.86	0.304
245.0753	0.2946
245.2905	0.2997
245.5057	0.2637
245.721	0.2725
245.9362	0.266
246.1514	0.2728
246.3665	0.2592
246.5817	0.2476
246.7969	0.2461
247.012	0.2482
247.2271	0.2345
247.4423	0.25
247.6574	0.2495
247.8725	0.2379
248.0876	0.2211
248.3026	0.2226
248.5177	0.2337
248.7328	0.2022
248.9478	0.1989
249.1628	0.2092
249.3779	0.2213
249.5929	0.2141
249.8079	0.2196
250.0228	0.2039
250.2378	0.2057
250.4528	0.2023
250.6677	0.1844
250.8827	0.2003
251.0976	0.1961
251.3125	0.193
251.5274	0.1703
251.7423	0.1813
251.9572	0.1836
252.172	0.1792
252.3869	0.1828
252.6017	0.1816
252.8166	0.1724
253.0314	0.1715
253.2462	0.1669
253.461	0.1786
253.6758	0.1715
253.8906	0.1704
254.1053	0.1705
254.3201	0.1721
254.5348	0.1747
254.7496	0.1739
254.9643	0.1644
255.179	0.1684
255.3937	0.1638
255.6083	0.1669
255.823	0.1659
256.0377	0.1677
256.2523	0.1703
256.467	0.1522
256.6816	0.1702
256.8962	0.1746
257.1108	0.1542
257.3254	0.1698
257.54	0.1569
257.7545	0.1598
257.9691	0.1614
258.1836	0.1596
258.3981	0.1736
258.6127	0.1727
258.8272	0.1623
259.0417	0.1536
259.2561	0.1724
259.4706	0.1699
259.6851	0.165
259.8995	0.1699
260.114	0.1591
260.3284	0.1588
260.5428	0.1485
260.7572	0.1621
260.9716	0.182
261.186	0.1516
261.4003	0.1623
261.6147	0.1646
261.829	0.1591
262.0433	0.1669
262.2577	0.1573
262.472	0.1628
262.6863	0.1513
262.9005	0.1681
263.1148	0.1609
263.3291	0.1396
263.5433	0.1615
263.7576	0.1639
263.9718	0.1661
264.186	0.1542
264.4002	0.1528
264.6144	0.1538
264.8286	0.1792
265.0427	0.1646
265.2569	0.167
265.471	0.1543
265.6851	0.1494
265.8993	0.1538
266.1134	0.1487
266.3275	0.1591
266.5415	0.1556
266.7556	0.1649
266.9697	0.1644
267.1837	0.1566
267.3978	0.1608
267.6118	0.1731
267.8258	0.1781
268.0398	0.1463
268.2538	0.1706
268.4677	0.1591
268.6817	0.1552
268.8957	0.1649
269.1096	0.1623
269.3235	0.1546
269.5374	0.1561
269.7514	0.1488
269.9652	0.1432
270.1791	0.1454
270.393	0.1457
270.6068	0.1593
270.8207	0.1443
271.0345	0.1388
271.2483	0.1468
271.4622	0.1414
271.676	0.1404
271.8897	0.1425
272.1035	0.1476
272.3173	0.1353
272.531	0.1462
272.7448	0.1485
272.9585	0.1374
273.1722	0.1451
273.3859	0.1468
273.5996	0.1268
273.8133	0.1471
274.0269	0.1446
274.2406	0.1362
274.4542	0.1445
274.6679	0.1319
274.8815	0.1444
275.0951	0.1521
275.3087	0.1545
275.5223	0.1558
275.7358	0.1499
275.9494	0.1481
276.1629	0.1281
276.3765	0.1379
276.59	0.1482
276.8035	0.1409
277.017	0.145
277.2305	0.1399
277.444	0.1514
277.6574	0.1378
277.8709	0.1489
278.0843	0.1356
278.2978	0.134
278.5112	0.1349
278.7246	0.1493
278.938	0.1537
279.1513	0.1389
279.3647	0.1587
279.5781	0.1406
279.7914	0.154
280.0047	0.1695
280.2181	0.1391
280.4314	0.1625
280.6447	0.1537
280.8579	0.1496
281.0712	0.1545
281.2845	0.1521
281.4977	0.1517
281.711	0.1559
281.9242	0.1428
282.1374	0.1658
282.3506	0.1423
282.5638	0.1508
282.7769	0.1545
282.9901	0.1552
283.2033	0.1675
283.4164	0.1689
283.6295	0.1478
283.8426	0.1536
284.0557	0.148
284.2688	0.1671
284.4819	0.1544
284.695	0.1518
284.908	0.1594
285.1211	0.1565
285.3341	0.1657
285.5471	0.161
285.7601	0.1566
285.9731	0.1489
286.1861	0.1469
286.3991	0.1747
286.612	0.1625
286.825	0.1643
287.0379	0.1555
287.2508	0.1502
287.4637	0.1576
287.6766	0.1472
287.8895	0.1639
288.1024	0.1748
288.3152	0.1615
288.5281	0.161
288.7409	0.162
288.9538	0.1635
289.1666	0.1595
289.3794	0.1458
289.5922	0.1587
289.8049	0.1605
290.0177	0.1617
290.2304	0.1578
290.4432	0.1642
290.6559	0.163
290.8686	0.1654
291.0813	0.1542
291.294	0.1561
291.5067	0.168
291.7194	0.1563
291.932	0.1724
292.1447	0.1663
292.3573	0.1574
292.5699	0.153
292.7825	0.1637
292.9951	0.1584
293.2077	0.1632
293.4203	0.162
293.6328	0.1522
293.8454	0.1646
294.0579	0.1558
294.2704	0.1542
294.4829	0.1537
294.6954	0.1619
294.9079	0.159
295.1204	0.1659
295.3328	0.1563
295.5453	0.159
295.7577	0.1643
295.9701	0.1537
296.1825	0.1583
296.3949	0.156
296.6073	0.1571
296.8197	0.1515
297.0321	0.1626
297.2444	0.1437
297.4567	0.1662
297.6691	0.1658
297.8814	0.1425
298.0937	0.1575
298.306	0.1694
298.5182	0.1616
298.7305	0.1566
298.9428	0.1352
299.155	0.1534
299.3672	0.1631
299.5794	0.1555
299.7916	0.1582
300.0038	0.1548
300.216	0.1539
300.4282	0.1734
300.6403	0.1505
300.8525	0.1633
301.0646	0.1578
301.2767	0.1629
301.4888	0.164
301.7009	0.1584
301.913	0.1504
302.125	0.1627
302.3371	0.1531
302.5491	0.1596
302.7612	0.1689
302.9732	0.1637
303.1852	0.1567
303.3972	0.1487
303.6092	0.1438
303.8211	0.1501
304.0331	0.1511
304.245	0.142
304.457	0.1518
304.6689	0.1442
304.8808	0.1511
305.0927	0.1448
305.3046	0.1486
305.5164	0.1524
305.7283	0.148
305.9401	0.1499
306.152	0.1503
306.3638	0.1523
306.5756	0.1432
306.7874	0.1337
306.9992	0.1504
307.2109	0.1377
307.4227	0.1183
307.6344	0.139
307.8462	0.1321
308.0579	0.1344
308.2696	0.1293
308.4813	0.118
308.693	0.1326
308.9046	0.1343
309.1163	0.1282
309.328	0.129
309.5396	0.128
309.7512	0.1172
309.9628	0.1224
310.1744	0.1232
310.386	0.121
310.5976	0.1148
310.8091	0.116
311.0207	0.1209
311.2322	0.1222
311.4437	0.1016
311.6552	0.1192
311.8667	0.1123
312.0782	0.1002
312.2897	0.1033
312.5012	0.1198
312.7126	0.1011
312.924	0.1018
313.1355	0.1104
313.3469	0.1063
313.5583	0.1185
313.7696	0.1004
313.981	0.1112
314.1924	0.098
314.4037	0.1016
314.6151	0.1117
314.8264	0.0978
315.0377	0.0955
315.249	0.103
315.4603	0.099
315.6716	0.0981
315.8828	0.0946
316.0941	0.0984
316.3053	0.0949
316.5165	0.0972
316.7277	0.0873
316.9389	0.1053
317.1501	0.0916
317.3613	0.0916
317.5724	0.0997
317.7836	0.0994
317.9947	0.0938
318.2058	0.0971
318.417	0.1001
318.6281	0.0865
318.8391	0.0937
319.0502	0.0981
319.2613	0.1022
319.4723	0.1039
319.6834	0.1134
319.8944	0.091
320.1054	0.11
320.3164	0.1096
320.5274	0.0984
320.7383	0.0994
320.9493	0.0939
321.1602	0.1058
321.3712	0.0904
321.5821	0.1054
321.793	0.1055
322.0039	0.0934
322.2148	0.0984
322.4257	0.0971
322.6365	0.108
322.8474	0.0975
323.0582	0.0925
323.269	0.1043
323.4798	0.1118
323.6906	0.1011
323.9014	0.0882
324.1122	0.1084
324.3229	0.0976
324.5337	0.1092
324.7444	0.0872
324.9551	0.1098
325.1658	0.1112
325.3765	0.1054
325.5872	0.1016
325.7979	0.1014
326.0085	0.1078
326.2192	0.104
326.4298	0.1054
326.6404	0.0968
326.851	0.0936
327.0616	0.0888
327.2722	0.1082
327.4828	0.1084
327.6933	0.095
327.9039	0.1027
328.1144	0.1176
328.3249	0.1071
328.5354	0.1068
328.7459	0.1049
328.9564	0.0989
329.1669	0.0929
329.3773	0.1017
329.5878	0.1102
329.7982	0.0991
330.0086	0.1006
330.219	0.1044
330.4294	0.1053
330.6398	0.1092
330.8502	0.0984
331.0605	0.0949
331.2708	0.1008
331.4812	0.1093
331.6915	0.1092
331.9018	0.1109
332.1121	0.095
332.3224	0.1022
332.5326	0.1085
332.7429	0.1062
332.9531	0.1061
333.1633	0.1087
333.3735	0.1091
333.5837	0.1154
333.7939	0.0997
334.0041	0.1133
334.2143	0.1079
334.4244	0.1145
334.6346	0.0861
334.8447	0.1135
335.0548	0.0997
335.2649	0.0978
335.475	0.1155
335.685	0.0923
335.8951	0.1245
336.1051	0.1131
336.3152	0.1109
336.5252	0.117
336.7352	0.1182
336.9452	0.1126
337.1552	0.1196
337.3652	0.1035
337.5751	0.1129
337.7851	0.1122
337.995	0.1038
338.2049	0.1093
338.4148	0.1063
338.6247	0.1134
338.8346	0.1181
339.0445	0.1146
339.2543	0.1061
339.4642	0.1185
339.674	0.1043
339.8838	0.1146
340.0936	0.1087
340.3034	0.1145
340.5132	0.1158
340.7229	0.1288
340.9327	0.1123
341.1424	0.1131
341.3522	0.1184
341.5619	0.1232
341.7716	0.1259
341.9813	0.1182
342.1909	0.111
342.4006	0.1267
342.6102	0.1196
342.8199	0.1086
343.0295	0.1194
343.2391	0.1238
343.4487	0.1269
343.6583	0.1082
343.8679	0.1236
344.0774	0.1301
344.287	0.126
344.4965	0.1313
344.706	0.1333
344.9155	0.129
345.125	0.133
345.3345	0.1217
345.544	0.1123
345.7534	0.1308
345.9629	0.1256
346.1723	0.1269
346.3817	0.1117
346.5911	0.1247
346.8005	0.1319
347.0099	0.1229
347.2193	0.1419
347.4286	0.1264
347.638	0.1435
347.8473	0.1322
348.0566	0.1202
348.2659	0.1454
348.4752	0.1328
348.6845	0.1227
348.8937	0.1357
349.103	0.1429
349.3122	0.1236
349.5214	0.1385
349.7306	0.1459
349.9398	0.1359
350.149	0.1452
350.3582	0.1306
350.5674	0.1467
350.7765	0.139
350.9856	0.1256
351.1948	0.1444
351.4039	0.1278
351.613	0.1392
351.822	0.1404
352.0311	0.1463
352.2402	0.1379
352.4492	0.141
352.6582	0.1479
352.8672	0.139
353.0762	0.1518
353.2852	0.1412
353.4942	0.1427
353.7032	0.1505
353.9121	0.1513
354.1211	0.1591
354.33	0.1527
354.5389	0.1443
354.7478	0.1466
354.9567	0.1434
355.1655	0.1441
355.3744	0.1508
355.5833	0.1583
355.7921	0.1634
356.0009	0.1548
356.2097	0.1725
356.4185	0.1627
356.6273	0.1512
356.8361	0.1576
357.0448	0.1469
357.2536	0.1482
357.4623	0.1554
357.671	0.1671
357.8797	0.1574
358.0884	0.1693
358.2971	0.1503
358.5057	0.1547
358.7144	0.1765
358.923	0.1721
359.1316	0.1668
359.3402	0.1667
359.5488	0.1617
359.7574	0.1571
359.966	0.1727
360.1746	0.1746
360.3831	0.1643
360.5916	0.172
360.8002	0.1605
361.0087	0.1844
361.2172	0.175
361.4256	0.1705
361.6341	0.1877
361.8426	0.1813
362.051	0.1791
362.2594	0.1775
362.4678	0.1668
362.6762	0.1939
362.8846	0.1812
363.093	0.1737
363.3014	0.1814
363.5097	0.1681
363.718	0.1823
363.9264	0.173
364.1347	0.1704
364.343	0.1875
364.5513	0.1919
364.7595	0.1963
364.9678	0.1935
365.176	0.193
365.3842	0.1897
365.5925	0.1807
365.8007	0.1852
366.0089	0.1978
366.217	0.1834
366.4252	0.2097
366.6333	0.2183
366.8415	0.1903
367.0496	0.189
367.2577	0.1941
367.4658	0.2046
367.6739	0.1977
367.882	0.2054
368.09	0.1831
368.2981	0.2062
368.5061	0.1905
368.7141	0.2042
368.9221	0.2155
369.1301	0.207
369.3381	0.2028
369.5461	0.198
369.754	0.2007
369.962	0.2071
370.1699	0.1964
370.3778	0.2162
370.5857	0.1992
370.7936	0.2092
371.0015	0.2107
371.2093	0.2245
371.4172	0.2296
371.625	0.2039
371.8328	0.2008
372.0406	0.205
372.2484	0.2095
372.4562	0.2146
372.664	0.228
372.8717	0.2237
373.0795	0.2002
373.2872	0.2183
373.4949	0.2037
373.7026	0.22
373.9103	0.2236
374.118	0.2176
374.3256	0.2185
374.5333	0.2269
374.7409	0.2082
374.9485	0.2214
375.1561	0.2145
375.3637	0.2259
375.5713	0.2237
375.7789	0.2231
375.9864	0.2344
376.194	0.2229
376.4015	0.2356
376.609	0.2383
376.8165	0.2245
377.024	0.2275
377.2315	0.2251
377.4389	0.2341
377.6464	0.2358
377.8538	0.2289
378.0612	0.2321
378.2686	0.2206
378.476	0.2469
378.6834	0.2443
378.8908	0.2329
379.0981	0.2532
379.3055	0.2532
379.5128	0.2468
379.7201	0.2473
379.9274	0.2344
380.1347	0.2339
380.342	0.2539
380.5492	0.2257
380.7565	0.2303
380.9637	0.238
381.1709	0.2481
381.3781	0.2228
381.5853	0.2493
381.7925	0.2445
381.9997	0.2451
382.2068	0.2538
382.4139	0.2423
382.6211	0.2308
382.8282	0.2356
383.0353	0.2523
383.2424	0.2361
383.4494	0.2616
383.6565	0.2509
383.8635	0.2278
384.0706	0.2332
384.2776	0.2468
384.4846	0.2366
384.6916	0.2424
384.8986	0.2529
385.1055	0.2507
385.3125	0.2488
385.5194	0.2242
385.7263	0.2556
385.9333	0.2437
386.1402	0.2382
386.347	0.2394
386.5539	0.235
386.7608	0.2537
386.9676	0.2395
387.1744	0.2426
387.3813	0.2298
387.5881	0.2319
387.7948	0.243
388.0016	0.2333
388.2084	0.2247
388.4151	0.2316
388.6219	0.2307
388.8286	0.2495
389.0353	0.2661
389.242	0.2389
389.4487	0.2339
389.6553	0.2316
389.862	0.2129
390.0686	0.2192
390.2753	0.2326
390.4819	0.2432
390.6885	0.2278
390.8951	0.2352
391.1016	0.2343
391.3082	0.2225
391.5147	0.2432
391.7213	0.2238
391.9278	0.2141
392.1343	0.2222
392.3408	0.2208
392.5473	0.221
392.7537	0.2273
392.9602	0.2327
393.1666	0.2255
393.373	0.2094
393.5794	0.2254
393.7858	0.2154
393.9922	0.2251
394.1986	0.2198
394.4049	0.2277
394.6113	0.1972
394.8176	0.2184
395.0239	0.2094
395.2302	0.2118
395.4365	0.2051
395.6428	0.2036
395.8491	0.2045
396.0553	0.2022
396.2615	0.214
396.4678	0.2146
396.674	0.1772
396.8802	0.206
397.0863	0.2241
397.2925	0.1993
397.4987	0.1965
397.7048	0.2013
397.9109	0.2181
398.117	0.2097
398.3231	0.2078
398.5292	0.2022
398.7353	0.207
398.9413	0.2084
399.1474	0.1856
399.3534	0.2019
399.5594	0.1815
399.7654	0.2063
399.9714	0.2214
400.1774	0.1889
400.3833	0.188
400.5893	0.2092
400.7952	0.1991
401.0011	0.193
401.207	0.2038
401.4129	0.1986
401.6188	0.2072
401.8247	0.2022
402.0305	0.1925
402.2364	0.1967
402.4422	0.2107
402.648	0.2019
402.8538	0.203
403.0596	0.1904
403.2654	0.2106
403.4711	0.1926
403.6768	0.2148
403.8826	0.1979
404.0883	0.2107
404.294	0.2008
404.4997	0.205
404.7054	0.1979
404.911	0.204
405.1167	0.2137
405.3223	0.2038
405.5279	0.2019
405.7335	0.2107
405.9391	0.2162
406.1447	0.1959
406.3502	0.2439
406.5558	0.1908
406.7613	0.2234
406.9668	0.1911
407.1724	0.1802
407.3778	0.1738
407.5833	0.184
407.7888	0.1826
407.9942	0.2137
408.1997	0.1817
408.4051	0.2198
408.6105	0.1988
408.8159	0.1834
409.0213	0.1714
409.2267	0.2094
409.432	0.186
409.6374	0.2003
409.8427	0.1952
410.048	0.1962
410.2533	0.2051
410.4586	0.2054
410.6639	0.1936
410.8691	0.1777
411.0744	0.2059
411.2796	0.1825
411.4848	0.1965
411.69	0.195
411.8952	0.2243
412.1004	0.1969
412.3056	0.1908
412.5107	0.1831
412.7158	0.2193
412.921	0.1928
413.1261	0.1965
413.3312	0.1907
413.5362	0.192
413.7413	0.1835
413.9464	0.2019
414.1514	0.1951
414.3564	0.2023
414.5614	0.1816
414.7664	0.1935
414.9714	0.1965
415.1764	0.1881
415.3813	0.1908
415.5863	0.1733
415.7912	0.1942
415.9961	0.2095
416.201	0.1852
416.4059	0.19
416.6108	0.1684
416.8156	0.1999
417.0205	0.1905
417.2253	0.1834
417.4301	0.2125
417.6349	0.19
417.8397	0.1732
418.0445	0.2007
418.2492	0.1867
418.454	0.1927
418.6587	0.1715
418.8634	0.1829
419.0681	0.1797
419.2728	0.1918
419.4775	0.1951
419.6822	0.1647
419.8868	0.1577
420.0915	0.1726
420.2961	0.1714
420.5007	0.1829
420.7053	0.1861
420.9099	0.1928
421.1144	0.1754
421.319	0.164
421.5235	0.1899
421.728	0.1732
421.9325	0.1799
422.137	0.1862
422.3415	0.1807
422.546	0.1714
422.7504	0.1669
422.9549	0.1702
423.1593	0.1828
423.3637	0.1917
423.5681	0.1706
423.7725	0.1614
423.9769	0.1675
424.1812	0.1578
424.3856	0.1775
424.5899	0.1717
424.7942	0.1601
424.9985	0.1559
425.2028	0.1608
425.4071	0.177
425.6113	0.1502
425.8156	0.1584
426.0198	0.1653
426.224	0.1382
426.4282	0.1627
426.6324	0.1499
426.8366	0.1739
427.0407	0.1501
427.2449	0.1412
427.449	0.1591
427.6531	0.131
427.8572	0.145
428.0613	0.1569
428.2654	0.1602
428.4694	0.1427
428.6735	0.1418
428.8775	0.1466
429.0815	0.1543
429.2855	0.1285
429.4895	0.1459
429.6935	0.1509
429.8975	0.144
430.1014	0.1118
430.3053	0.1276
430.5093	0.1417
430.7132	0.1267
430.9171	0.1289
431.1209	0.1436
431.3248	0.1209
431.5286	0.1461
431.7325	0.1254
431.9363	0.1213
432.1401	0.1386
432.3439	0.0997
432.5477	0.104
432.7514	0.1096
432.9552	0.1197
433.1589	0.1059
433.3627	0.111
433.5664	0.1151
433.7701	0.1046
433.9737	0.1079
434.1774	0.0943
434.3811	0.1048
434.5847	0.106
434.7883	0.097
434.9919	0.0968
435.1955	0.1176
435.3991	0.0947
435.6027	0.1016
435.8062	0.0967
436.0098	0.0716
436.2133	0.1026
436.4168	0.095
436.6203	0.0904
436.8238	0.0985
437.0272	0.0948
437.2307	0.0881
437.4341	0.0987
437.6375	0.0847
437.841	0.0733
438.0443	0.0857
438.2477	0.0813
438.4511	0.0699
438.6545	0.0903
438.8578	0.093
439.0611	0.0821
439.2644	0.0721
439.4677	0.067
439.671	0.077
439.8743	0.0849
440.0775	0.0813
440.2808	0.0784
440.484	0.0596
440.6872	0.0707
440.8904	0.0673
441.0936	0.081
441.2967	0.0624
441.4999	0.0672
441.703	0.0611
441.9062	0.0588
442.1093	0.0556
442.3124	0.0705
442.5155	0.0489
442.7185	0.0531
442.9216	0.0272
443.1246	0.0592
443.3276	0.0453
443.5307	0.0656
443.7337	0.0449
443.9366	0.0505
444.1396	0.0412
444.3426	0.0491
444.5455	0.044
444.7484	0.0515
444.9513	0.0473
445.1542	0.0473
445.3571	0.0482
445.56	0.0432
445.7628	0.04
445.9657	0.0393
446.1685	0.0461
446.3713	0.0433
446.5741	0.0373
446.7769	0.0249
446.9797	0.0292
447.1824	0.0291
447.3852	0.0366
447.5879	0.05
447.7906	0.035
447.9933	0.0386
448.196	0.0261
448.3986	0.028
448.6013	0.0225
448.8039	0.0141
449.0066	0.0261
449.2092	0.0313
449.4118	0.0318
449.6143	0.0346
449.8169	0.0392
450.0195	0.0217
450.222	0.014
450.4245	0.0214
450.627	0.0425
450.8295	0.0121
451.032	0.0225
451.2345	0.0218
451.4369	0.0241
451.6394	0.0291
451.8418	0.0108
452.0442	0.016
452.2466	0.0203
452.449	0.0116
452.6513	0.0214
452.8537	0.0133
453.056	0.0122
453.2583	0.0108
453.4607	-0.0102
453.663	0.0166
453.8652	0.0084
454.0675	0.006
454.2697	0.021
454.472	0.0049
454.6742	0.0073
454.8764	0.0257
455.0786	0.0186
455.2808	0.0253
455.4829	0.0152
455.6851	0.0102
455.8872	0.01
456.0893	0.018
456.2915	-0.0014
456.4935	0.0242
456.6956	0.0103
456.8977	0.0222
457.0997	0.0092
457.3018	-0.0047
457.5038	0.0222
457.7058	0.02
457.9078	0.0212
458.1098	0.0066
458.3117	0.0125
458.5137	0.0139
458.7156	0.0005
458.9175	-0.009
459.1194	0.002
459.3213	-0.0054
459.5232	0.0043
459.725	-0.0112
459.9269	-0.0065
460.1287	-0.0069
460.3305	0.0005
460.5323	-0.0042
460.7341	-0.0043
460.9359	-0.0006
461.1376	-0.0003
461.3394	-0.0006
461.5411	0.0106
461.7428	-0.0103
461.9445	0.0123
462.1462	0.0293
462.3479	-0.0077
462.5495	-0.0001
462.7512	0.0021
462.9528	0.0008
463.1544	-0.0106
463.356	0.0052
463.5576	0.015
463.7592	-0.0102
463.9607	0.0067
464.1623	0.0063
464.3638	0.0002
464.5653	-0.0072
464.7668	-0.0096
464.9683	-0.0009
465.1697	0.008
465.3712	-0.0091
465.5726	-0.0119
465.7741	0.0042
465.9755	0.0053
466.1769	-0.0185
466.3782	-0.0025
466.5796	-0.0189
466.7809	0.0133
466.9823	-0.013
467.1836	-0.0074
467.3849	-0.0006
467.5862	-0.0012
467.7875	-0.0236
467.9887	0.0136
468.19	-0.0062
468.3912	-0.0019
468.5924	-0.0133
468.7936	-0.014
468.9948	0.0027
469.196	0.0041
469.3972	-0.0045
469.5983	-0.0045
469.7994	-0.016
470.0006	-0.0062
470.2017	-0.0251
470.4027	-0.018
470.6038	0.0026
470.8049	0.0043
471.0059	-0.0014
471.2069	-0.0246
471.408	-0.0078
471.6089	-0.0048
471.8099	-0.0084
472.0109	0.0019
472.2119	-0.019
472.4128	-0.0245
472.6137	-0.0025
472.8146	-0.0193
473.0155	-0.0048
473.2164	-0.0195
473.4173	-0.0024
473.6181	0.0064
473.819	-0.0022
474.0198	-0.0121
474.2206	-0.0173
474.4214	-0.0011
474.6222	-0.0229
474.8229	-0.0041
475.0237	-0.0157
475.2244	-0.0113
475.4251	-0.001
475.6258	-0.009
475.8265	0.0015
476.0272	0.0059
476.2278	-0.0002
476.4285	-0.0126
476.6291	-0.0034
476.8297	-0.0049
477.0303	-0.0099
477.2309	-0.0032
477.4315	-0.0224
477.632	-0.005
477.8326	-0.0102
478.0331	0.0079
478.2336	0.007
478.4341	-0.0113
478.6346	0
478.8351	-0.0025
479.0355	-0.0051
479.236	-0.0028
479.4364	-0.0093
479.6368	-0.0036
479.8372	-0.0118
480.0376	-0.0049
480.2379	-0.0316
480.4383	-0.0242
480.6386	-0.001
480.8389	-0.0109
481.0392	-0.0135
481.2395	-0.0167
481.4398	-0.0011
481.6401	-0.0045
481.8403	-0.0064
482.0405	-0.0095
482.2408	-0.0063
482.441	-0.0065
482.6411	-0.0074
482.8413	-0.0161
483.0415	-0.0096
483.2416	-0.0164
483.4417	-0.0024
483.6419	-0.0086
483.8419	-0.0147
484.042	0.0032
484.2421	-0.0079
484.4422	-0.0138
484.6422	-0.0103
484.8422	-0.0138
485.0422	-0.0184
485.2422	0.0011
485.4422	-0.015
485.6422	-0.0118
485.8421	-0.0095
486.042	-0.0065
486.242	-0.0102
486.4419	-0.0125
486.6417	-0.0157
486.8416	0.0005
487.0415	-0.015
487.2413	-0.0089
487.4411	-0.012
487.641	-0.02
487.8408	-0.01
488.0405	-0.0113
488.2403	-0.019
488.4401	0.0021
488.6398	-0.0031
488.8395	-0.0192
489.0392	-0.0102
489.2389	-0.018
489.4386	-0.0105
489.6383	-0.0042
489.8379	-0.0139
490.0376	-0.0093
490.2372	-0.0067
490.4368	-0.015
490.6364	-0.0106
490.836	-0.0091
491.0355	-0.0122
491.2351	-0.0094
491.4346	-0.0065
491.6341	-0.0237
491.8336	-0.015
492.0331	-0.0124
492.2326	-0.0183
492.432	-0.0134
492.6315	-0.011
492.8309	-0.0166
493.0303	-0.0201
493.2297	-0.0119
493.4291	-0.0051
493.6284	-0.0087
493.8278	-0.0158
494.0271	-0.0092
494.2264	0.0018
494.4257	-0.0177
494.625	-0.0008
494.8243	-0.0214
495.0236	-0.0197
495.2228	-0.0205
495.422	-0.0114
495.6213	-0.0113
495.8205	-0.0157
496.0196	-0.0092
496.2188	-0.0073
496.418	-0.0246
496.6171	-0.01
496.8162	-0.01
497.0153	-0.0004
497.2144	-0.0074
497.4135	-0.0147
497.6126	-0.0234
497.8116	-0.0108
498.0107	-0.0115
498.2097	-0.0079
498.4087	-0.0164
498.6077	-0.0021
498.8067	-0.0109
499.0056	0.0033
499.2046	-0.0132
499.4035	-0.0245
499.6024	-0.011
499.8013	-0.009
500.0002	-0.0166
500.199	-0.0104
500.3979	-0.0076
500.5967	-0.0295
500.7956	-0.0023
500.9944	-0.0129
501.1932	-0.0178
501.3919	-0.013
501.5907	-0.018
501.7895	-0.0081
501.9882	-0.011
502.1869	-0.0116
502.3856	-0.0039
502.5843	-0.0096
502.783	-0.0191
502.9816	-0.0125
503.1803	-0.0172
503.3789	-0.0186
503.5775	-0.0087
503.7761	-0.0123
503.9747	-0.01
504.1732	-0.0203
504.3718	-0.0082
504.5703	-0.0158
504.7689	-0.0145
504.9674	-0.0074
505.1658	-0.0197
505.3643	-0.0118
505.5628	-0.0106
505.7612	-0.004
505.9597	0.0035
506.1581	-0.0133
506.3565	-0.0058
506.5549	-0.0052
506.7532	-0.0249
506.9516	-0.0047
507.1499	-0.0028
507.3482	-0.0167
507.5465	-0.0193
507.7448	-0.0097
507.9431	-0.0165
508.1414	-0.0084
508.3396	-0.0145
508.5379	-0.0067
508.7361	-0.0095
508.9343	-0.0087
509.1325	-0.0081
509.3306	-0.0088
509.5288	-0.0114
509.7269	-0.0178
509.9251	-0.0094
510.1232	-0.0146
510.3213	0.0012
510.5193	-0.0053
510.7174	-0.0172
510.9154	-0.0144
511.1135	-0.0144
511.3115	-0.0119
511.5095	-0.0129
511.7075	-0.0057
511.9055	-0.0141
512.1034	-0.0108
512.3014	-0.0022
512.4993	-0.0146
512.6972	-0.0203
512.8951	-0.0146
513.093	-0.0072
513.2908	-0.011
513.4887	-0.0084
513.6865	-0.0081
513.8844	-0.013
514.0822	-0.0066
514.2799	-0.009
514.4777	-0.0108
514.6755	-0.0147
514.8732	-0.0153
515.0709	-0.0103
515.2687	-0.0189
515.4664	-0.0136
515.664	-0.0124
515.8617	-0.0172
516.0594	-0.032
516.257	-0.0005
516.4546	-0.0161
516.6522	-0.0092
516.8498	-0.0126
517.0474	-0.003
517.2449	0.0003
517.4425	-0.0243
517.64	-0.014
517.8375	-0.017
518.035	-0.0116
518.2325	-0.0198
518.43	-0.0126
518.6274	-0.0118
518.8249	-0.0221
519.0223	-0.0097
519.2197	-0.0188
519.4171	-0.0062
519.6145	-0.0176
519.8118	-0.0098
520.0092	-0.0119
520.2065	-0.0192
520.4038	-0.0139
520.6011	-0.0009
520.7984	-0.017
520.9956	-0.019
521.1929	-0.0146
521.3901	-0.0111
521.5874	-0.0094
521.7846	-0.0076
521.9818	-0.0159
522.1789	-0.0182
522.3761	-0.0151
522.5732	-0.0088
522.7704	-0.0168
522.9675	-0.0076
523.1646	-0.0098
523.3617	-0.0057
523.5587	-0.0135
523.7558	-0.0074
523.9528	-0.0163
524.1498	0.0008
524.3468	-0.0151
524.5438	-0.0204
524.7408	-0.014
524.9378	-0.0027
525.1347	-0.0191
525.3316	-0.0081
525.5285	-0.0163
525.7254	-0.0198
525.9223	-0.0189
526.1192	-0.0132
526.316	-0.0189
526.5129	-0.0117
526.7097	-0.013
526.9065	-0.0214
527.1033	-0.0023
527.3	-0.0098
527.4968	-0.0146
527.6935	-0.0109
527.8903	-0.0318
528.087	-0.0051
528.2837	0.0053
528.4804	-0.0074
528.677	-0.0182
528.8737	-0.0002
529.0703	-0.0091
529.2669	-0.0106
529.4635	-0.0121
529.6601	-0.0078
529.8567	-0.0091
530.0532	-0.0212
530.2498	-0.0024
530.4463	-0.007
530.6428	-0.01
530.8393	-0.0041
531.0358	-0.0134
531.2322	-0.0052
531.4287	-0.0061
531.6251	-0.0269
531.8215	-0.0085
532.0179	-0.0127
532.2143	-0.0068
532.4107	-0.009
532.607	-0.0125
532.8034	-0.0047
532.9997	-0.0001
533.196	-0.0089
533.3923	-0.0187
533.5886	-0.0088
533.7848	-0.0112
533.9811	-0.011
534.1773	-0.0035
534.3735	-0.0002
534.5697	-0.0099
534.7659	-0.0079
534.9621	-0.0054
535.1582	-0.0147
535.3544	-0.0076
535.5505	-0.0132
535.7466	-0.0135
535.9427	-0.0046
536.1387	-0.0161
536.3348	-0.0061
536.5308	-0.0046
536.7269	-0.0228
536.9229	-0.0093
537.1189	-0.0103
537.3148	-0.0118
537.5108	-0.0183
537.7068	-0.0083
537.9027	-0.012
538.0986	-0.0105
538.2945	-0.0138
538.4904	-0.0179
538.6863	-0.0023
538.8821	-0.0045
539.078	-0.0048
539.2738	-0.0017
539.4696	-0.0182
539.6654	0.0038
539.8611	0.0079
540.0569	-0.0032
540.2526	-0.0097
540.4484	0.0012
540.6441	-0.0051
540.8398	-0.0045
541.0355	-0.0105
541.2311	-0.0051
541.4268	-0.0192
541.6224	-0.0047
541.818	-0.0026
542.0136	-0.0028
542.2092	-0.0107
542.4048	-0.0127
542.6003	-0.008
542.7959	-0.0099
542.9914	-0.0092
543.1869	-0.0042
543.3824	-0.003
543.5779	-0.0116
543.7734	-0.0094
543.9688	-0.0088
544.1642	0.0018
544.3596	-0.0087
544.555	-0.0013
544.7504	-0.0108
544.9458	-0.0063
545.1411	-0.0025
545.3365	-0.0046
545.5318	-0.0111
545.7271	-0.0049
545.9224	-0.0007
546.1177	-0.0042
546.3129	0.0085
546.5081	-0.0078
546.7034	-0.0158
546.8986	0.0016
547.0938	-0.0049
547.289	-0.0067
547.4841	-0.0032
547.6793	-0.0029
547.8744	-0.0113
548.0695	-0.0029
548.2646	-0.0101
548.4597	0.0005
548.6548	-0.0073
548.8498	0.0052
549.0448	0.0042
549.2399	-0.0113
549.4349	-0.0061
549.6298	-0.0083
549.8248	-0.0058
550.0198	-0.0078
550.2147	-0.0063
550.4096	-0.0049
550.6045	0.0025
550.7994	0.0037
550.9943	0.0014
551.1892	-0.0019
551.384	0.0001
551.5788	-0.0116
551.7737	-0.0019
551.9685	-0.0087
552.1632	-0.0031
552.358	-0.0077
552.5528	-0.0017
552.7475	-0.0018
552.9422	-0.0053
553.1369	-0.0031
553.3316	0.0095
553.5263	-0.0188
553.7209	0.0083
553.9156	-0.0038
554.1102	-0.0097
554.3048	-0.0136
554.4994	-0.0009
554.694	-0.005
554.8885	0.0066
555.0831	-0.0113
555.2776	-0.0133
555.4721	-0.0104
555.6666	-0.0068
555.8611	-0.0034
556.0555	-0.0067
556.25	-0.0033
556.4444	-0.0103
556.6388	-0.0043
556.8332	0.0016
557.0276	-0.0015
557.222	-0.0056
557.4163	0.0023
557.6107	-0.0037
557.805	0.002
557.9993	-0.0023
558.1936	-0.0018
558.3879	0.0056
558.5821	-0.0038
558.7764	-0.0027
558.9706	-0.008
559.1648	-0.0003
559.359	-0.0105
559.5532	-0.0087
559.7473	-0.0064
559.9415	0.0007
560.1356	-0.0057
560.3297	-0.0145
560.5238	-0.0144
560.7179	-0.0039
560.9119	-0.0148
561.106	-0.012
561.3	-0.012
561.494	-0.009
561.688	-0.0054
561.882	-0.0168
562.076	-0.0096
562.2699	0.0064
562.4639	-0.0039
562.6578	-0.0105
562.8517	-0.0017
563.0456	-0.0026
563.2395	-0.0012
563.4333	-0.0068
563.6272	0.0018
563.821	-0.0061
564.0148	-0.0051
564.2086	-0.0099
564.4024	-0.0066
564.5961	-0.0028
564.7899	0.0049
564.9836	-0.0004
565.1773	-0.0064
565.371	-0.008
565.5647	-0.0009
565.7584	-0.0052
565.952	-0.0024
566.1456	-0
566.3393	-0.0035
566.5329	-0.0058
566.7264	-0.0074
566.92	-0.0125
567.1136	-0.0039
567.3071	-0.0113
567.5006	-0.0115
567.6941	0.0021
567.8876	-0.005
568.0811	-0.0098
568.2745	0.0012
568.468	-0.0013
568.6614	-0.0075
568.8548	-0.0045
569.0482	-0.0045
569.2416	-0.0025
569.4349	-0.0015
569.6283	0.0067
569.8216	-0.0068
570.0149	-0.0053
570.2082	0.0027
570.4015	0.0015
570.5947	0.0017
570.788	0.002
570.9812	0.0035
571.1744	-0.0046
571.3676	-0.0035
571.5608	0.0018
571.754	-0.001
571.9471	-0.0017
572.1402	0.0031
572.3333	-0.0015
572.5264	-0.0017
572.7195	-0.0055
572.9126	-0.0112
573.1057	-0.0055
573.2987	-0.0041
573.4917	0.0039
573.6847	-0.0142
573.8777	0.0018
574.0707	0.004
574.2636	-0.0069
574.4566	-0.0009
574.6495	0.0032
574.8424	-0.0027
575.0353	-0.0033
575.2281	0.0045
575.421	-0.0015
575.6138	0.0023
575.8067	-0.0063
575.9995	-0.0027
576.1923	-0.0003
576.385	-0.0008
576.5778	0.0015
576.7706	-0.0061
576.9633	-0.0053
577.156	-0.0017
577.3487	-0.0067
577.5414	0.004
577.734	-0.0045
577.9267	-0.0004
578.1193	-0.0115
578.3119	-0.0117
578.5045	-0.0034
578.6971	-0.0062
578.8897	0.0027
579.0822	-0.0031
579.2747	-0.0011
579.4673	-0.0067
579.6598	-0.0071
579.8522	-0.0028
580.0447	-0.0092
580.2372	-0.0077
580.4296	-0.0024
580.622	-0.003
580.8144	-0.0018
581.0068	-0.0023
581.1992	-0.0173
581.3915	-0.0137
581.5839	-0.0091
581.7762	-0.0119
581.9685	-0.0039
582.1608	-0.0038
582.353	-0.0018
582.5453	-0.0028
582.7375	0.0007
582.9298	-0.0011
583.122	-0.0004
583.3142	-0.0049
583.5063	-0.0057
583.6985	-0.001
583.8906	-0.0055
584.0827	-0.0109
584.2749	-0.0015
584.4669	-0.0002
584.659	-0.0025
584.8511	-0.0046
585.0431	0.002
585.2352	-0.0017
585.4272	-0.0076
585.6192	0.0024
585.8111	-0.0068
586.0031	-0.0057
586.195	0.0002
586.387	0.0039
586.5789	-0.0075
586.7708	0.0061
586.9627	-0.0051
587.1545	-0.0089
587.3464	0.0083
587.5382	-0.005
587.73	-0.0016
587.9218	0
588.1136	-0.0031
588.3053	0.0032
588.4971	-0.0027
588.6888	-0.0124
588.8805	-0.0064
589.0722	0.0045
589.2639	-0.0042
589.4556	0.0023
589.6472	-0.0028
589.8389	-0.0078
590.0305	-0.008
590.2221	0.0003
590.4137	-0.013
590.6052	0.0042
590.7968	0.0022
590.9883	0.0043
591.1798	-0.0043
591.3713	0.0044
591.5628	0.0133
591.7543	-0.0007
591.9458	-0.0031
592.1372	0.0034
592.3286	0.0003
592.52	0.0038
592.7114	-0.0083
592.9028	-0.0063
593.0941	-0.0012
593.2855	-0.0026
593.4768	-0.011
593.6681	-0.0129
593.8594	-0.0035
594.0506	0.0007
594.2419	0
594.4331	0.0039
594.6244	0.0023
594.8156	-0.0085
595.0067	-0.0041
595.1979	0.0002
595.3891	-0.0016
595.5802	-0.0071
595.7713	-0.0029
595.9624	0.0024
596.1535	0.0016
596.3446	-0.0038
596.5357	-0.0056
596.7267	0.0017
596.9177	-0.0033
597.1087	-0.0079
597.2997	-0.0067
597.4907	-0
597.6817	-0.0019
597.8726	-0
598.0635	-0.004
598.2544	0.0006
598.4453	0.0037
598.6362	-0.005
598.827	-0.0048
599.0179	0.0023
599.2087	0.0033
599.3995	-0.0052
599.5903	0.0037
599.7811	0.0034
599.9718	-0.0031
600.1626	0.0019
600.3533	-0.0059
600.544	0.0019
600.7347	-0.0055
600.9254	-0.0014
601.116	-0.011
601.3067	-0.0033
601.4973	0.0012
601.6879	-0.0038
601.8785	-0.0085
602.0691	0.0016
602.2596	-0.0008
602.4502	0.0053
602.6407	-0.006
602.8312	-0.001
603.0217	-0.0056
603.2122	0.003
603.4027	0.0014
603.5931	-0.0006
603.7835	-0.0082
603.9739	-0.004
604.1643	-0.0022
604.3547	-0.0037
604.5451	0.0028
604.7354	-0.0127
604.9257	-0.008
605.116	-0.0033
605.3063	0.0002
605.4966	-0.0006
605.6869	-0.001
605.8771	0.0077
606.0673	0.0024
606.2575	0.0011
606.4477	0.001
606.6379	-0.0008
606.8281	-0.0064
607.0182	-0.0059
607.2083	0.0085
607.3985	-0.0018
607.5885	-0.0058
607.7786	0.0007
607.9687	-0.0049
608.1587	0.0033
608.3488	-0.007
608.5388	0.0023
608.7288	-0.0042
608.9187	-0.0012
609.1087	-0.0069
609.2986	-0.01
609.4886	0.0029
609.6785	-0.0064
609.8684	-0.0043
610.0582	0.0013
610.2481	-0.0051
610.4379	-0.0025
610.6278	-0.0043
610.8176	0.0025
611.0074	-0.0009
611.1971	0.0016
611.3869	-0.0013
611.5766	-0.0063
611.7664	-0.0012
611.9561	0.0014
612.1458	-0.0017
612.3354	-0.0075
612.5251	-0.0083
612.7147	0.0036
612.9044	-0.0032
613.094	-0.0094
613.2836	-0.0035
613.4731	-0.0074
613.6627	-0.0026
613.8522	0.0107
614.0417	0.0046
614.2313	-0.0044
614.4207	-0.0052
614.6102	-0.0028
614.7997	-0.0046
614.9891	-0.0053
615.1785	0.0001
615.3679	-0.0089
615.5573	0.0054
615.7467	-0.001
615.9361	-0.0024
616.1254	0.0015
616.3147	-0.0013
616.504	0.0021
616.6933	-0.0006
616.8826	-0.0016
617.0718	0.0046
617.2611	-0.004
617.4503	0.0006
617.6395	-0.0045
617.8287	-0.0043
618.0179	-0.0047
618.207	0.0071
618.3961	0.0036
618.5853	-0
618.7744	0.0035
618.9634	0.008
619.1525	0.0033
619.3416	-0.0013
619.5306	0.0002
619.7196	0.0001
619.9086	-0.0037
620.0976	-0.0013
620.2866	-0.0066
620.4755	0.005
620.6645	0.0027
620.8534	0.0022
621.0423	0.0044
621.2312	0.0067
621.42	-0.0012
621.6089	-0.0005
621.7977	0.0025
621.9865	-0.0067
622.1753	0.0013
622.3641	0.0018
622.5529	0.0083
622.7416	0.0043
622.9303	0.0005
623.1191	0.0031
623.3078	-0.0045
623.4964	0.0055
623.6851	0.0008
623.8737	-0.0028
624.0624	0.0018
624.251	-0.0064
624.4396	-0.0021
624.6282	-0.0078
624.8167	-0.0034
625.0053	0.0024
625.1938	0.0053
625.3823	-0.0009
625.5708	-0.0007
625.7593	-0.0081
625.9477	-0.0065
626.1362	-0.0105
626.3246	-0.002
626.513	0.0024
626.7014	0.0027
626.8898	-0.0039
627.0781	0.0016
627.2665	0.0023
627.4548	0.001
627.6431	-0.0005
627.8314	0.0013
628.0197	0.0017
628.2079	-0.0041
628.3962	-0.0015
628.5844	0.0022
628.7726	0.0107
628.9608	0.0028
629.1489	-0.009
629.3371	-0.0002
629.5252	-0.0013
629.7134	0.0083
629.9015	0.0014
630.0895	0.0031
630.2776	0.0077
630.4657	-0.0038
630.6537	0.0029
630.8417	-0.0048
631.0297	-0.0066
631.2177	-0.0021
631.4057	-0.0135
631.5936	0.0019
631.7815	0.0052
631.9695	0.002
632.1574	0.0027
632.3452	0.0099
632.5331	0.0031
632.7209	-0.0004
632.9088	0.0101
633.0966	0.0087
633.2844	-0.0075
633.4722	-0.0016
633.6599	0.0025
633.8477	0.0034
634.0354	0.0012
634.2231	-0.0018
634.4108	-0.0002
634.5985	0.0007
634.7861	-0.0018
634.9738	-0.0033
635.1614	-0.0018
635.349	0.0037
635.5366	-0.0003
635.7242	0.005
635.9117	0.003
636.0993	-0.0033
636.2868	-0.0005
636.4743	-0.0048
636.6618	0.0127
636.8492	0.0008
637.0367	0.0039
637.2241	-0.0006
637.4115	-0.0002
637.5989	-0.0045
637.7863	-0.0018
637.9737	-0.0018
638.161	-0.0072
638.3484	-0.0007
638.5357	0.0007
638.723	-0.0007
638.9103	-0.0007
639.0975	0.0039
639.2848	0.0044
639.472	0.0026
639.6592	0.0043
639.8464	0.0107
640.0336	0.0131
640.2208	-0.0009
640.4079	-0.0014
640.595	0.0022
640.7821	0.0013
640.9692	0.0004
641.1563	-0.0065
641.3434	0.004
641.5304	0.0041
641.7174	-0.0056
641.9044	0.0023
642.0914	0.0071
642.2784	0.0073
642.4653	0.0088
642.6523	0.0096
642.8392	0.0014
643.0261	0.0038
643.213	0.0048
643.3999	0.0043
643.5867	0.0034
643.7735	0.0009
643.9604	-0.0017
644.1472	0.0039
644.3339	0.0039
644.5207	0.0017
644.7075	0.0037
644.8942	0.0082
645.0809	0.0011
645.2676	0.0021
645.4543	0.0069
645.6409	0.005
645.8276	0.0006
646.0142	0.0044
646.2008	-0.0074
646.3874	0.0043
646.574	0.0028
646.7605	-0.0066
646.9471	-0.0093
647.1336	0.0008
647.3201	-0.0028
647.5066	-0.0059
647.6931	0.0009
647.8795	0.0015
648.0659	0.0015
648.2524	0.0049
648.4388	-0.0009
648.6252	0.004
648.8115	0.0026
648.9979	0.0004
649.1842	-0.0037
649.3705	0.0001
649.5568	-0.0016
649.7431	0.0031
649.9294	-0.0038
650.1156	0.0008
650.3018	-0.003
650.488	0.0038
650.6742	0.0005
650.8604	-0.0026
651.0466	-0.0009
651.2327	0.0034
651.4188	-0.0007
651.6049	-0.004
651.791	-0.0035
651.9771	0.0015
652.1632	0.0093
652.3492	0.0052
652.5352	-0.0065
652.7212	-0.0023
652.9072	-0.0013
653.0932	-0.0001
653.2791	-0.0019
653.465	-0.0033
653.651	-0.0064
653.8369	0.0017
654.0227	-0.0001
654.2086	0.0032
654.3944	0.0044
654.5803	0.0002
654.7661	0.0021
654.9519	0.0014
655.1377	-0.009
655.3234	0.0015
655.5092	-0.0075
655.6949	-0.0054
655.8806	-0.0068
656.0663	-0.0011
656.2519	-0
656.4376	-0.0055
656.6232	0.0026
656.8088	-0.0077
656.9945	-0.0037
657.18	-0.0028
657.3656	0.0012
657.5511	-0.0006
657.7367	-0.0014
657.9222	0.008
658.1077	-0.0015
658.2932	0.003
658.4786	-0.0071
658.6641	-0.0023
658.8495	0.0025
659.0349	-0.0008
659.2203	0.0014
659.4057	-0.0006
659.591	0.0016
659.7764	-0.0043
659.9617	0
660.147	0.0046
660.3323	0.0032
660.5176	0.0089
660.7028	0.0047
660.888	0.0079
661.0733	0.0052
661.2585	-0.0158
661.4436	-0.0058
661.6288	0.0002
661.8139	-0.005
661.9991	0.003
662.1842	0.0035
662.3693	-0.0014
662.5544	-0.0045
662.7394	0.0054
662.9245	0.0045
663.1095	-0.0009
663.2945	0.0047
663.4795	-0.0037
663.6644	0.0082
663.8494	0.003
664.0343	0.0032
664.2193	-0.0013
664.4042	-0.0103
664.589	-0.0058
664.7739	-0.0001
664.9587	-0.0077
665.1436	-0.0071
665.3284	-0.0036
665.5132	-0.0006
665.698	-0.0047
665.8827	-0.0034
666.0675	-0.0051
666.2522	-0.0088
666.4369	-0.0027
666.6216	0.0058
666.8063	-0.0006
666.9909	-0.0006
667.1756	-0.0049
667.3602	0.0027
667.5448	-0.0015
667.7294	0.0032
667.9139	0.0037
668.0985	0.0089
668.283	-0.0066
668.4675	-0.0003
668.652	-0.0067
668.8365	-0.0051
669.0209	0.002
669.2054	0.0067
669.3898	0.0005
669.5742	-0.0064
669.7586	0.0028
669.943	0.0059
670.1273	0.0025
670.3117	-0.002
670.496	0.0019
670.6803	0.0052
670.8646	0.0001
671.0488	0.0007
671.2331	0.0023
671.4173	0.0002
671.6015	-0.0055
671.7857	0.0088
671.9699	0.0029
672.1541	0.0012
672.3382	0
672.5223	-0.0012
672.7064	0.0017
672.8905	0.006
673.0746	-0.0046
673.2587	-0.0063
673.4427	0.0012
673.6267	0.0025
673.8107	0.0052
673.9947	0.0077
674.1787	-0.0004
674.3626	-0.0018
674.5465	0.0114
674.7304	0.0076
674.9143	0.0033
675.0982	0.0107
675.2821	-0.0081
675.4659	0.0018
675.6497	0.0049
675.8335	-0.0031
676.0173	-0.0048
676.2011	0.0007
676.3849	-0.0037
676.5686	-0.0044
676.7523	-0.0058
676.936	-0.0007
677.1197	-0.0072
677.3034	-0.0078
677.487	0.0047
677.6706	-0.0024
677.8542	-0.0013
678.0378	0.0051
678.2214	-0.0024
678.405	-0.0017
678.5885	-0.0071
678.772	0.0059
678.9555	-0.0024
679.139	0.0018
679.3225	0.0057
679.5059	-0.0079
679.6894	0.0004
679.8728	-0.0015
680.0562	-0.0068
680.2395	-0.0043
680.4229	-0.007
680.6062	-0.0001
680.7896	-0.0015
680.9729	-0.0057
681.1562	-0.0042
681.3394	0.0004
681.5227	-0.009
681.7059	0.0004
681.8891	0.0032
682.0723	0.004
682.2555	0.0061
682.4387	-0.0044
682.6218	-0.0042
682.805	0.0092
682.9881	0.0019
683.1712	-0.0039
683.3542	0.0002
683.5373	0.0014
683.7203	-0.0031
683.9034	-0.0013
684.0864	-0.011
684.2694	-0.0058
684.4523	-0.0011
684.6353	-0.0051
684.8182	0.0067
685.0011	-0.0004
685.184	0.0001
685.3669	0.0032
685.5498	0.0051
685.7326	-0.0025
685.9154	-0.0073
686.0982	0.0073
686.281	0.0033
686.4638	0.0086
686.6465	-0.0033
686.8293	-0.0081
687.012	-0.0035
687.1947	-0.0056
687.3774	-0.0051
687.56	-0.0057
687.7427	-0.0023
687.9253	-0.0048
688.1079	-0.0021
688.2905	0.0037
688.4731	0.0009
688.6556	-0.0011
688.8382	0.0027
689.0207	-0.0051
689.2032	-0.0115
689.3857	-0.0103
689.5681	-0.0068
689.7506	-0.0059
689.933	-0.0074
690.1154	-0.0069
690.2978	-0.0051
690.4802	-0.0031
690.6626	-0.0183
690.8449	-0.0088
691.0272	0.0038
691.2095	-0.0061
691.3918	-0.0055
691.5741	-0.0019
691.7563	-0.0042
691.9386	0.0036
692.1208	-0.0015
692.303	-0.0008
692.4852	0.002
692.6673	0.0006
692.8495	-0.0079
693.0316	0.0027
693.2137	-0.0016
693.3958	-0.0006
693.5778	0.0028
693.7599	0.0018
693.9419	-0.0011
694.1239	-0.0069
694.3059	-0.0072
694.4879	0.0063
694.6699	0.0044
694.8518	-0.0031
695.0337	0.0003
695.2157	0.0098
695.3975	-0.0014
695.5794	0.001
695.7613	-0.0008
695.9431	-0.0092
696.1249	0.0038
696.3067	0.0061
696.4885	0.0019
696.6703	-0.0011
696.852	-0.0027
697.0337	-0.0043
697.2154	0.0036
697.3971	0.0004
697.5788	0.0005
697.7605	0.0014
697.9421	0.0027
698.1237	0.0056
698.3053	0.0002
698.4869	-0.0085
698.6685	-0.0097
698.85	-0.0054
699.0315	0.0016
699.213	-0.0066
699.3945	-0.0009
699.576	-0.0022
699.7575	-0.0007
699.9389	0.004
700.1203	-0.0023
700.3017	-0.0091
700.4831	-0.012
700.6645	-0.0008
700.8458	0.0012
701.0271	0.0017
701.2084	0.0009
701.3897	0.0006
701.571	0.008
701.7523	-0.0051
701.9335	0.0016
702.1147	-0.006
702.2959	-0.0077
702.4771	0.0063
702.6583	-0.0003
702.8394	-0.0043
703.0205	0.005
703.2016	-0.011
703.3827	0.0014
703.5638	0.0088
703.7449	0.0008
703.9259	0.0123
704.1069	-0.0105
704.2879	0.0045
704.4689	0.0009
704.6499	0.0045
704.8308	0.0024
705.0117	-0.0024
705.1927	0.007
705.3735	-0.0016
705.5544	-0.0022
705.7353	-0.0062
705.9161	-0.0095
706.0969	-0.0037
706.2777	-0.002
706.4585	-0.003
706.6393	0.0014
706.82	0.0018
707.0007	0.0057
707.1815	-0.0006
707.3621	0.0024
707.5428	0.0028
707.7235	0.0016
707.9041	0.0014
708.0847	-0.0128
708.2653	-0.0132
708.4459	-0.0052
708.6265	-0.0012
708.807	-0.006
708.9875	-0.0017
709.168	-0.0089
709.3485	-0.0073
709.529	0.0004
709.7095	-0.0115
709.8899	-0.0007
710.0703	-0.0117
710.2507	-0.0015
710.4311	-0.0003
710.6115	-0.0134
710.7918	-0.0007
710.9721	-0.0007
711.1524	-0.0091
711.3327	0.0044
711.513	0.0057
711.6932	0.0032
711.8735	0.0053
712.0537	0.004
712.2339	-0.0033
712.4141	-0.0073
712.5942	-0.0126
712.7744	-0.0032
712.9545	-0.0046
713.1346	-0.0069
713.3147	-0.0058
713.4947	-0.0084
713.6748	-0.0047
713.8548	-0.0033
714.0348	-0.0018
714.2148	-0.0059
714.3948	0.0061
714.5748	-0.0068
714.7547	-0.0075
714.9346	0.002
715.1145	-0.0116
715.2944	-0.0069
715.4743	-0.0026
715.6541	-0.0097
715.834	-0.0008
716.0138	-0.0064
716.1936	-0.0188
716.3733	-0.0074
716.5531	0.0003
716.7328	-0.0091
716.9126	-0.0096
717.0923	0.0036
717.2719	0.006
717.4516	0.0078
717.6312	0.0014
717.8109	-0
717.9905	0.0006
718.1701	-0.0097
718.3496	-0.0081
718.5292	0.004
718.7087	-0.0041
718.8882	-0.0104
719.0677	0.0014
719.2472	0.001
719.4267	0.0035
719.6061	0.0008
719.7856	0.0065
719.965	0.0048
720.1443	-0.0035
720.3237	0.0152
720.5031	-0.0037
720.6824	0.005
720.8617	-0.0064
721.041	-0.0027
721.2203	0.0027
721.3995	0.0019
721.5788	-0.0116
721.758	0.0035
721.9372	-0.0083
722.1164	-0.0017
722.2956	-0.0037
722.4747	-0.0043
722.6538	-0.0011
722.8329	0.0091
723.012	-0.0016
723.1911	-0.0086
723.3702	-0.0035
723.5492	0.0036
723.7282	-0.0019
723.9072	0.0012
724.0862	-0.0098
724.2652	-0.0104
724.4441	0.002
724.623	0.0023
724.8019	-0.0064
724.9808	-0.0042
725.1597	-0.0206
725.3385	0.0015
725.5174	0.0021
725.6962	-0.007
725.875	-0.0085
726.0538	0.0091
726.2325	-0.0047
726.4112	0.0067
726.59	-0.0062
726.7687	0.0009
726.9474	0.0035
727.126	0.0001
727.3047	-0.0005
727.4833	-0.0031
727.6619	-0.0053
727.8405	-0.007
728.0191	-0.0111
728.1976	0.0034
728.3762	0.0069
728.5547	0
728.7332	-0.0103
728.9116	-0.002
729.0901	0.0025
729.2686	-0.0109
729.447	-0.0079
729.6254	-0.005
729.8038	0.0029
729.9821	-0.0074
730.1605	-0.0016
730.3388	0.0048
730.5171	-0.005
730.6954	-0.0068
730.8737	-0.0013
731.0519	0.008
731.2302	-0.0023
731.4084	0.0077
731.5866	-0.0019
731.7648	-0.0076
731.9429	-0.0064
732.1211	-0.0151
732.2992	-0.0133
732.4773	-0.0155
732.6554	-0.0084
732.8335	0.0038
733.0115	-0.0051
733.1896	0.002
733.3676	-0.0149
733.5456	0.0028
733.7235	0.0069
733.9015	-0.0014
734.0794	-0.002
734.2574	-0.0012
734.4353	-0.0002
734.6131	-0.0052
734.791	-0.0002
734.9689	0.0031
735.1467	0.0036
735.3245	-0.0124
735.5023	-0.002
735.68	-0.0034
735.8578	0.0028
736.0355	-0.0235
736.2132	-0.0063
736.3909	-0.0119
736.5686	-0.0089
736.7463	-0.0057
736.9239	-0.008
737.1015	-0.0099
737.2791	0.0069
737.4567	-0.0052
737.6343	-0.0037
737.8118	0.0032
737.9894	0.0003
738.1669	-0.0095
738.3444	-0.0052
738.5218	0.0023
738.6993	-0.0022
738.8767	0.0063
739.0541	0.0071
739.2315	-0.0142
739.4089	-0.0079
739.5863	0.0045
739.7636	-0.0103
739.9409	0.0029
740.1182	0.0026
740.2955	0.0036
740.4728	-0.0028
740.65	-0.0034
740.8272	-0.0031
741.0044	0.0019
741.1816	-0.0084
741.3588	-0.0021
741.5359	-0.0057
741.7131	-0.0102
741.8902	-0.01
742.0673	-0.0023
742.2444	-0.0055
742.4214	-0.0142
742.5985	-0.0052
742.7755	-0.0133
742.9525	-0.0176
743.1295	-0.0068
743.3064	-0.0069
743.4834	-0.0008
743.6603	-0.0127
743.8372	0.0008
744.0141	-0.0104
744.191	-0.0057
744.3678	0.0012
744.5446	-0.0061
744.7215	0.0028
744.8982	-0.0126
745.075	-0.0092
745.2518	0.0024
745.4285	-0.0066
745.6052	-0.0126
745.7819	-0.008
745.9586	-0.0127
746.1353	0.0014
746.3119	-0.0127
746.4885	-0.0092
746.6651	-0.0098
746.8417	0.0003
747.0183	-0.0069
747.1948	-0.0013
747.3714	-0.0015
747.5479	0.0008
747.7244	-0.0046
747.9008	0.0038
748.0773	-0.0084
748.2537	-0.0016
748.4301	-0.0015
748.6065	0.002
748.7829	0.0016
748.9593	-0.0024
749.1356	0.0034
749.3119	-0.0001
749.4882	-0.0051
749.6645	0.0035
749.8408	-0.006
750.017	-0.0084
750.1933	-0
750.3695	-0.0105
750.5457	0.0029
750.7218	-0.006
750.898	0.0019
751.0741	-0.0064
751.2502	-0.0109
751.4263	0.0014
751.6024	0.0066
751.7784	-0.008
751.9545	-0.0008
752.1305	-0.0079
752.3065	-0.0102
752.4825	0.0027
752.6584	-0.0061
752.8344	-0.0001
753.0103	-0.0055
753.1862	-0.0113
753.3621	-0.0065
753.5379	-0.0105
753.7138	-0.006
753.8896	-0.001
754.0654	0.0014
754.2412	0.0096
754.417	0.0018
754.5927	-0.0075
754.7685	0.0054
754.9442	-0.0013
755.1199	0.0205
755.2956	-0.0084
755.4712	0.0019
755.6469	0.0006
755.8225	0.0009
755.9981	-0.0015
756.1736	-0.0008
756.3492	0.0044
756.5248	-0.0032
756.7003	0.0069
756.8758	0.003
757.0513	-0.0137
757.2267	-0.0091
757.4022	-0.0001
757.5776	-0.0086
757.753	0.0067
757.9284	-0.0029
758.1038	0.0098
758.2791	-0.0056
758.4545	-0.0124
758.6298	-0.0144
758.8051	-0.0077
758.9803	0.0008
759.1556	-0.0036
759.3308	-0.0082
759.506	0.0051
759.6812	0.0021
759.8564	0.0038
760.0316	-0.0025
760.2067	0.0036
760.3819	0.0003
760.557	0.0183
760.732	0.0068
760.9071	-0.0122
761.0821	0.0014
761.2572	0.0061
761.4322	0.0021
761.6072	-0.0004
761.7821	0.0044
761.9571	0.0045
762.132	-0.0047
762.3069	0.0003
762.4818	-0.0022
762.6567	0.0014
762.8316	0.0048
763.0064	0.0012
763.1812	0.0036
763.356	-0.0108
763.5308	0.0012
763.7055	0.001
763.8803	-0.0026
764.055	0.0013
764.2297	-0.0053
764.4044	-0.0044
764.579	-0.009
764.7537	-0.0133
764.9283	-0.0005
765.1029	0.0005
765.2775	-0.0052
765.4521	-0.0117
765.6266	-0.0101
765.8011	-0.0106
765.9756	-0.0039
766.1501	0.0096
766.3246	0.0027
766.4991	-0.0052
766.6735	-0.0015
766.8479	0.0035
767.0223	0.0009
767.1967	-0.0108
767.371	0.0012
767.5454	-0.0034
767.7197	0.0006
767.894	-0.0084
768.0683	-0.0192
768.2425	-0.0035
768.4168	-0.0007
768.591	-0.0109
768.7652	-0.0033
768.9394	-0.0066
769.1135	-0.0028
769.2877	0.0107
769.4618	-0.0024
769.6359	-0.0044
769.81	0.0107
769.984	0.0019
770.1581	-0.0057
770.3321	0.0079
770.5061	-0.007
770.6801	0.0048
770.8541	-0.0041
771.028	0.0063
771.202	-0.0041
771.3759	0.0134
771.5498	-0.0055
771.7236	0.0063
771.8975	-0.0045
772.0713	0.0078
772.2451	0.0045
772.4189	-0.0019
772.5927	0.0037
772.7665	0.0019
772.9402	-0.0038
773.1139	0.0014
773.2876	-0.0026
773.4613	0.0082
773.635	0.0076
773.8086	-0.0048
773.9822	0.0049
774.1558	0.0118
774.3294	-0.0076
774.503	-0.0044
774.6765	0.0029
774.8501	0.0097
775.0236	0.0045
775.1971	-0.0008
775.3705	-0.0134
775.544	0.0074
775.7174	-0.0156
775.8908	-0.0087
776.0642	-0.0027
776.2376	-0.0135
776.4109	-0.0086
776.5843	-0.0077
776.7576	-0.0024
776.9309	0.0005
777.1041	0.0081
777.2774	0.0036
777.4506	-0.0042
777.6238	-0.0057
777.797	-0.0016
777.9702	-0.0005
778.1434	-0.0061
778.3165	-0.0113
778.4896	-0.0045
778.6627	0.0077
778.8358	-0.0109
779.0089	-0.0064
779.1819	-0.0067
779.3549	0.0106
779.5279	0.0054
779.7009	-0.0053
779.8739	0.0083
780.0468	-0.0043
780.2197	0.0085
780.3926	-0.0111
780.5655	-0.0096
780.7384	-0.002
780.9112	0.0037
781.0841	-0.0105
781.2569	-0.008
781.4297	0.0066
781.6024	-0.0001
781.7752	-0.0027
781.9479	0.0006
782.1206	-0.0024
782.2933	-0.0186
782.466	-0.0041
782.6386	0.0108
782.8113	-0.0101
782.9839	0.0013
783.1565	0.0074
783.329	0.0033
783.5016	0.0103
783.6741	0.0042
783.8466	-0.0138
784.0191	0.0123
784.1916	-0.0034
784.3641	0
784.5365	0.0068
784.7089	-0.0049
784.8813	-0.0227
785.0537	-0.0038
785.2261	-0.0021
785.3984	-0.0199
785.5707	-0.0132
785.743	0.0015
785.9153	-0.0184
786.0876	0.0069
786.2598	-0.0081
786.432	-0.0217
786.6042	0.0094
786.7764	-0.0161
786.9486	0.0062
787.1207	-0.0004
787.2928	-0.0126
787.4649	-0.0047
787.637	-0.0036
787.8091	-0.0116
787.9811	-0.0014
788.1532	0.0019
788.3252	0.0135
788.4972	-0.0018
788.6691	-0.0097
788.8411	0.0097
789.013	-0.0045
789.1849	0.0094
789.3568	-0.0035
789.5287	0.0044
789.7005	-0.0026
789.8723	-0.0078
790.0442	0.0103
790.2159	-0.0048
790.3877	-0.0112
790.5595	-0.0143
790.7312	-0.0021
790.9029	-0.0018
791.0746	-0.0135
791.2463	-0.0013
791.4179	-0.0163
791.5896	-0.0077
791.7612	-0.0092
791.9328	-0.0026
792.1044	-0.0049
792.2759	-0.0193
792.4474	0.0031
792.619	0.0087
792.7905	0.0104
792.9619	0.0066
793.1334	-0.0105
793.3048	0.0013
793.4762	0.0008
793.6476	0.0096
793.819	-0.0285
793.9904	0.0028
794.1617	-0.0204
794.333	-0.0034
794.5043	-0.016
794.6756	-0.0129
794.8469	-0.0008
795.0181	-0.0111
795.1893	-0.0161
795.3605	-0.0071
795.5317	-0.0137
795.7029	0.0032
795.874	-0.0074
796.0452	-0.0083
796.2163	-0.0006
796.3873	0.0147
796.5584	0.0055
796.7294	-0.0126
796.9005	0.0087
797.0715	-0.0024
797.2425	-0.0052
797.4134	0.0074
797.5844	0.007
797.7553	-0.002
797.9262	-0.0081
798.0971	-0.0022
798.2679	-0.0037
798.4388	-0.0105
798.6096	-0.0199
798.7804	-0.0042
798.9512	-0.0066
799.122	-0.0097
799.2927	0.0137
799.4635	0.0047
799.6342	-0.013
799.8049	-0.0092
799.9755	-0.012
800.1462	0.0049
800.3168	0.0036
800.4874	0.0047
800.658	0.0051
800.8286	0.0097
800.9991	0.0071
801.1696	0.003
801.3402	0.0133
801.5106	-0.0118
801.6811	-0.0045
801.8516	0.0054
802.022	0.0065
802.1924	-0.0036
802.3628	0.0224
802.5332	0.0106
802.7035	0.0153
802.8739	-0.0089
803.0442	0.0059
803.2145	0.0099
803.3847	-0.0349
803.555	0.0205
803.7252	-0.0084
803.8954	-0.0096
804.0656	-0.0118
804.2358	-0.0115
804.4059	0.0285
804.5761	0.0011
804.7462	0.0116
804.9163	-0.016
805.0864	-0.0143
805.2564	-0.0099
805.4264	-0.0112
805.5965	-0.0153
805.7665	0.0096
805.9364	-0.0001
806.1064	0.0173
806.2763	-0.0142
806.4462	0.0183
806.6161	-0.0076
806.786	0.004
806.9559	-0.0062
807.1257	-0.0141
807.2955	-0.0135
807.4653	-0.0094
807.6351	-0.029
807.8048	-0.0236
807.9746	-0.0177
808.1443	0.01
808.314	-0.0106
808.4837	-0.0233
808.6533	0.0006
808.8229	0.02
808.9926	-0.0186
809.1622	0.0085
809.3317	-0.0147
809.5013	0.0013
809.6708	0.0092
809.8403	-0.0056
810.0098	-0.007
810.1793	0.0098
810.3488	0.011
810.5182	-0.0298
810.6876	0.0054
810.857	-0.0036
811.0264	0.019
811.1958	-0.0065
811.3651	0.0046
811.5344	-0.0152
811.7037	-0.0192
811.873	-0.0079
812.0422	-0.0111
812.2115	-0.0135
812.3807	-0.0357
812.5499	0.0069
812.7191	-0.0007
812.8882	-0.0229
813.0574	-0.004
813.2265	0.0023
813.3956	0.0189
813.5646	0.0018
813.7337	-0.0217
813.9027	-0.0077
814.0718	0.0153
814.2407	-0.0026
814.4097	-0.0187
814.5787	-0.0134
814.7476	-0.0244
814.9165	-0.0166
815.0854	-0.0061
815.2543	-0.0185
815.4232	-0.0226
815.592	0.0068
815.7608	-0.0081
815.9296	-0.0022
816.0984	-0.0072
816.2671	-0.0075
816.4359	-0.0205
816.6046	0.0083
816.7733	-0.0161
816.942	-0.0077
817.1106	0.001
817.2793	-0.0015
817.4479	0.0066
817.6165	-0.0129
817.785	-0.022
817.9536	-0.0384
818.1221	-0.0218
818.2906	-0.0002
818.4591	-0.0086
818.6276	-0.0248
818.7961	-0.011
818.9645	-0.0009
819.1329	-0.0207
819.3013	-0.0079
819.4697	0.0098
819.638	-0.0097
819.8064	-0.0006
819.9747	0.0093
820.143	-0.0063
820.3113	-0.0089
820.4795	0.0086
820.6477	-0.0016
820.816	-0.0044
820.9842	-0.0199
821.1523	-0.0106
821.3205	-0.0083
821.4886	0.0041
821.6567	-0.0242
821.8248	0.0046
821.9929	0.0282
822.1609	-0.0103
822.329	0.0199
822.497	0.0371
822.665	-0.0274
822.833	-0.0091
823.0009	0.0054
823.1688	0.0028
823.3367	0.0217
823.5046	-0.0037
823.6725	0.0259
823.8404	-0.0277
824.0082	0.0173
824.176	0.0187
824.3438	0.0159
824.5116	-0.046
824.6793	0.008
824.847	-0.0027
825.0147	-0.0011
825.1824	0.0177
825.3501	0.0162
825.5177	-0.0125
825.6854	-0.005
825.853	-0.0073
826.0206	-0.0104
826.1881	0.008
826.3557	-0.0184
826.5232	0.0028
826.6907	-0.0622
826.8582	-0.0416
827.0257	-0.0306
827.1931	-0.0088
827.3605	-0.0048
827.528	0.0011
827.6953	-0.035
827.8627	-0.0045
828.03	0.001
828.1974	-0.0059
828.3647	-0.0509
828.532	-0.0248
828.6992	-0.0299
828.8665	0.0093
829.0337	-0.0201
829.2009	-0.0097
829.3681	-0.0304
829.5352	0.0164
829.7024	-0.0572
829.8695	-0.0353
830.0366	0.0245
830.2037	0.0089
830.3707	0.0007
830.5378	0.0171
830.7048	-0.0025
830.8718	-0.0143
831.0388	-0.0178
831.2057	-0.0067
831.3727	-0.0236
831.5396	0.0065
831.7065	-0.02
831.8734	0.0078
832.0402	-0.0508
832.2071	0.0036
832.3739	-0.0421
832.5407	0.0099
832.7075	-0.0211
832.8742	0.0407
833.041	-0.0411
833.2077	-0.0112
833.3744	0.0061
833.541	-0.0022
833.7077	-0.0048
833.8743	-0.0258
834.0409	0.007
834.2075	-0.0104
834.3741	-0.0387
834.5407	-0.0086
834.7072	-0.0092
834.8737	-0.018
835.0402	0.0223
835.2067	-0.0115
835.3731	0.0049
835.5395	0.0086
835.706	0.0147
835.8723	-0.0097
836.0387	0.0057
836.2051	-0.0128
836.3714	-0.0192
836.5377	-0.0386
836.704	-0.0117
836.8703	-0.0252
837.0365	0.0054
837.2027	0.001
837.3689	0.0057
837.5351	-0.0323
837.7013	-0.0253
837.8674	-0.0293
838.0335	0.0011
838.1997	-0.0133
838.3657	-0.0449
838.5318	-0.0127
838.6978	0.0164
838.8639	0.0138
839.0299	-0.0493
839.1958	0.0269
839.3618	-0.0335
839.5277	-0.0382
839.6937	-0.0262
839.8596	-0.0354
840.0254	0.018
840.1913	-0.0354
840.3571	0.0074
840.523	-0.0085
840.6888	-0.0526
840.8545	-0.0673
841.0203	-0.0006
841.186	-0.0214
841.3517	-0.0086
841.5174	0.0091
841.6831	-0.0253
841.8488	0.0359
842.0144	-0.0042
842.18	-0.0145
842.3456	-0.0729
842.5112	-0.0495
842.6767	0.0256
842.8422	0.0014
843.0077	-0.0511
843.1732	-0.0704
843.3387	-0.026
843.5042	-0.029
843.6696	0.0053
843.835	0.0556
844.0004	-0.0102
844.1657	0.0003
844.3311	-0.0744
844.4964	-0.1061
844.6617	-0.077
844.827	-0.0541
844.9923	-0.0452
845.1575	0.0312
845.3227	0.0467
845.4879	-0.0173
845.6531	-0.0722
845.8183	-0.0801
845.9834	-0.0546
846.1485	-0.0157
846.3136	-0.0361
846.4787	-0.128
846.6438	0.0632
846.8088	-0.1205
846.9738	-0.0944
847.1388	-0.0637
847.3038	-0.0144
847.4687	-0.2077
847.6337	0.007
847.7986	-0.0591
847.9635	-0.0535
848.1284	0.0301
848.2932	0.0067
848.458	-0.0815
848.6228	0.0442
848.7876	0.0433
848.9524	-0.0514
849.1172	-0.0364
849.2819	-0.0187
849.4466	-0.083
849.6113	-0.1014
849.7759	-0.0626
849.9406	-0.0011
850.1052	0.0095
850.2698	0.0122
850.4344	-0.0564
850.599	-0.0433
850.7635	-0.0387
850.928	-0.0946
851.0925	-0.0815
851.257	-0.0335
851.4215	0.0097
851.5859	-0.1226
851.7503	-0.0702
851.9147	0.042
852.0791	-0.1337
852.2434	-0.0305
852.4078	0.0405
852.5721	0.0686
852.7364	0.0007
852.9007	-0.2334
853.0649	-0.0013
853.2291	-0.0662
853.3934	0.0294
853.5575	-0.0982
853.7217	-0.1781
853.8859	-0.1722
854.05	-0.1188
854.2141	-0.0145
854.3782	-0.1429
854.5423	-0.0389
854.7063	0.0345
854.8703	-0.1193
855.0343	-0.0766
855.1983	-0.196
855.3623	0.0364
855.5262	-0.0838
855.6901	-0.0932
855.854	-0.0555
856.0179	0.0652
856.1818	0.0158
856.3456	-0.1248
856.5094	-0.1547
856.6732	-0.1474
856.837	-0.0756
857.0008	0.0917
857.1645	-0.099
857.3282	-0.1653
857.4919	0.1348
857.6556	-0.0598
857.8192	0.1306
857.9828	-0.151
858.1465	0.0173
858.31	-0.1764
858.4736	-0.0265
858.6372	-0.1663
858.8007	-0.3384
858.9642	-0.0502
859.1277	-0.1503
859.2911	0.0352
859.4546	-0.0503
859.618	-0.2248
859.7814	-0.0313
859.9448	-0.1258
860.1081	0.0291
860.2715	0.1645
860.4348	-0.1382
860.5981	0.21
860.7614	0.0235
860.9246	-0.2669
861.0879	-0.2213
861.2511	0.2263
861.4143	-0.3089
861.5774	0.0956
861.7406	-0.2659
861.9037	-0.1228
862.0668	0.0444
862.2299	-0.1883
862.393	-0.7649
862.556	0.0548
862.7191	-0.4247
862.8821	-0.198
863.0451	-0.0249
863.208	0.1155
863.371	-0.0982
863.5339	-0.0501
863.6968	-0.0874
863.8597	-0.3669
864.0225	-0.0212
864.1854	0.208
864.3482	-0.2329
864.511	0.1108
864.6737	-0.1424
864.8365	-0.2258
864.9992	-0.2947
865.1619	-0.3868
865.3246	0.5334
865.4873	0.2747
865.65	-0.1718
865.8126	-0.2747
865.9752	0.0989
866.1378	-0.3216
866.3004	-0
866.4629	0.133
866.6254	-0.1036
866.7879	0.4836
866.9504	0.2886
867.1129	-0
867.2753	0.0023
867.4377	0.0974
867.6001	-0.4342
867.7625	-0.1694
867.9249	-0.8426
868.0872	-0.0465
868.2495	-0.0438
868.4118	-0.2478
868.5741	-0.7651
868.7363	-0.2148
868.8986	-0.5657
869.0608	-0.3268
869.223	0.5282
869.3851	-0
869.5473	-0
869.7094	-0.0277
869.8715	-0.5364
870.0336	-0
870.1957	-0.6246
870.3577	-0
870.5197	0.0686
870.6817	-0.2522
870.8437	-0.246
871.0057	-0
871.1676	-0.219
871.3295	-0.5722
871.4914	-0
871.6533	-0.423
871.8151	-0.4526
871.977	-0
872.1388	0.5407
872.3006	-0
872.4623	-0
872.6241	0.0293
872.7858	-0
872.9475	-0.4423
873.1092	-0.3114
873.2709	-0.3972
873.4325	-0.0431
873.5941	-0.2708
873.7557	-0
873.9173	0.1807
874.0789	-0.6911
874.2404	-0.3709
874.4019	0.1646
874.5634	-0.2914
874.7249	-0.1246
874.8863	-0.3038
875.0478	-0.1046
875.2092	-0
875.3706	0.4455
875.5319	-0.876
875.6933	-0
875.8546	0.0313
876.0159	-0
876.1772	0.6046
876.3385	-0
876.4997	-0.0218
876.6609	-0.5394
876.8221	-0
876.9833	0.699
877.1445	-0
877.3056	-0.2106
877.4667	-0.699
877.6278	0.1661
877.7889	-0.7524
877.9499	-0
878.111	-0.887
878.272	-0
878.433	-0
878.5939	-0
878.7549	-0.2186
878.9158	-1.0097
879.0767	0.5125
879.2376	-0
879.3984	0.2525
879.5593	0.1794
879.7201	-0.2039
879.8809	-0.7979
880.0417	-0
880.2024	-0.1929
880.3632	-0.9616
880.5239	0.2856
880.6846	-0.0084
880.8452	-2.2672
881.0059	-0
881.1665	-0
881.3271	0.2927
881.4877	-0.7474
881.6483	-0.6427
881.8088	-0.5184
881.9693	-0
882.1298	-0
882.2903	-0
