Data from MonoPyChalIsomerACN10uM410nmA_Absorbance_14-53-31-773.txt Node
Date: Fri Jul 05 14:53:31 BST 2024
User: LASERRRRR
Spectrometer: FLMT03099
Trigger mode: 0
Integration Time (sec): 1.000000E-1
Scans to average: 1
Electric dark correction enabled: true
Nonlinearity correction enabled: false
Boxcar width: 0
XAxis mode: Wavelengths
Number of Pixels in Spectrum: 3648
>>>>>Begin Spectral Data<<<<<
179.3399	-0.3831
179.5586	-0.3831
179.7771	-0.3831
179.9957	0.0061
180.2143	-0
180.4329	-0
180.6514	-0
180.8699	-0
181.0885	-0.3791
181.307	0.9137
181.5255	-0.6921
181.744	-0.3807
181.9625	-0
182.181	-0.4111
182.3994	-0
182.6179	-0
182.8363	-0
183.0547	0.1514
183.2732	0.0967
183.4916	-0.0398
183.71	0.0702
183.9284	0.4032
184.1467	-0.1196
184.3651	-0.0993
184.5835	0.0609
184.8018	0.2525
185.0201	0.1204
185.2385	-0.1095
185.4568	0.2781
185.6751	-0
185.8934	0.0097
186.1117	0.0757
186.3299	0.0958
186.5482	0.1207
186.7664	0.1775
186.9847	-0.1374
187.2029	0.2075
187.4211	0.0669
187.6393	0.162
187.8575	0.2893
188.0757	0.1329
188.2939	0.2162
188.512	1.0726
188.7302	-0.082
188.9483	-0.0151
189.1665	0.1091
189.3846	0.4338
189.6027	0.2461
189.8208	0.4277
190.0389	0.107
190.257	0.2586
190.475	0.0894
190.6931	0.2492
190.9111	0.4812
191.1292	0.0933
191.3472	0.4879
191.5652	0.2757
191.7832	0.3037
192.0012	0.7307
192.2192	0.4593
192.4371	0.4478
192.6551	0.3703
192.873	0.4548
193.091	0.3169
193.3089	0.5476
193.5268	0.6152
193.7447	0.8047
193.9626	0.5002
194.1805	1.0723
194.3984	0.9024
194.6162	0.6572
194.8341	0.7875
195.0519	0.6796
195.2697	0.659
195.4875	0.9037
195.7054	0.6908
195.9231	0.5998
196.1409	0.613
196.3587	0.6327
196.5765	0.6537
196.7942	0.5765
197.012	0.5745
197.2297	0.4998
197.4474	0.6684
197.6651	0.5974
197.8828	0.7614
198.1005	0.7964
198.3182	0.6307
198.5358	0.6852
198.7535	0.5829
198.9711	0.6448
199.1888	0.6103
199.4064	0.5578
199.624	0.7303
199.8416	0.6121
200.0592	0.7465
200.2767	0.6359
200.4943	0.6747
200.7119	0.7573
200.9294	0.6418
201.1469	0.6268
201.3645	0.5861
201.582	0.5823
201.7995	0.6305
202.017	0.5864
202.2344	0.7125
202.4519	0.7618
202.6694	0.6127
202.8868	0.7235
203.1042	0.6897
203.3217	0.6901
203.5391	0.6177
203.7565	0.656
203.9739	0.7121
204.1913	0.627
204.4086	0.7211
204.626	0.7104
204.8433	0.6475
205.0607	0.6228
205.278	0.763
205.4953	0.6713
205.7126	0.7331
205.9299	0.7108
206.1472	0.7827
206.3644	0.6341
206.5817	0.6936
206.7989	0.7207
207.0162	0.6593
207.2334	0.6604
207.4506	0.6871
207.6678	0.6248
207.885	0.6883
208.1022	0.7833
208.3194	0.7212
208.5365	0.7082
208.7537	0.636
208.9708	0.5996
209.1879	0.732
209.405	0.7292
209.6222	0.6874
209.8392	0.6324
210.0563	0.6469
210.2734	0.665
210.4905	0.7047
210.7075	0.6953
210.9245	0.6149
211.1416	0.6802
211.3586	0.6116
211.5756	0.5657
211.7926	0.5958
212.0096	0.5801
212.2265	0.611
212.4435	0.5953
212.6604	0.582
212.8774	0.5946
213.0943	0.5842
213.3112	0.5867
213.5281	0.5528
213.745	0.4937
213.9619	0.4982
214.1788	0.4608
214.3956	0.4863
214.6125	0.4827
214.8293	0.4199
215.0461	0.4638
215.2629	0.4755
215.4798	0.4631
215.6965	0.426
215.9133	0.4377
216.1301	0.3656
216.3469	0.4075
216.5636	0.4377
216.7803	0.4239
216.9971	0.411
217.2138	0.3918
217.4305	0.3694
217.6472	0.3306
217.8639	0.3789
218.0805	0.3302
218.2972	0.3172
218.5138	0.317
218.7305	0.3295
218.9471	0.3199
219.1637	0.2824
219.3803	0.2683
219.5969	0.2666
219.8135	0.2608
220.0301	0.2689
220.2466	0.2543
220.4632	0.2614
220.6797	0.2446
220.8962	0.2298
221.1127	0.2228
221.3292	0.2462
221.5457	0.2354
221.7622	0.2185
221.9787	0.2465
222.1951	0.2305
222.4116	0.2455
222.628	0.2464
222.8444	0.2326
223.0608	0.2421
223.2772	0.2481
223.4936	0.2596
223.71	0.2401
223.9264	0.2655
224.1427	0.2564
224.3591	0.227
224.5754	0.2628
224.7917	0.2558
225.008	0.2683
225.2243	0.2397
225.4406	0.2668
225.6569	0.255
225.8732	0.2464
226.0894	0.2627
226.3057	0.2595
226.5219	0.2898
226.7381	0.2621
226.9543	0.2722
227.1705	0.2657
227.3867	0.2672
227.6029	0.2656
227.8191	0.2851
228.0352	0.2876
228.2513	0.3086
228.4675	0.3068
228.6836	0.298
228.8997	0.2735
229.1158	0.3063
229.3319	0.2836
229.548	0.3231
229.764	0.3478
229.9801	0.319
230.1961	0.3167
230.4121	0.3284
230.6282	0.3256
230.8442	0.3073
231.0602	0.3545
231.2761	0.3305
231.4921	0.3459
231.7081	0.3291
231.924	0.3434
232.14	0.3456
232.3559	0.3364
232.5718	0.352
232.7877	0.3489
233.0036	0.3402
233.2195	0.356
233.4353	0.3377
233.6512	0.3514
233.867	0.3714
234.0829	0.3544
234.2987	0.3595
234.5145	0.3731
234.7303	0.3444
234.9461	0.3568
235.1619	0.3672
235.3776	0.3607
235.5934	0.3751
235.8091	0.371
236.0249	0.3759
236.2406	0.3628
236.4563	0.369
236.672	0.4121
236.8877	0.3826
237.1034	0.3841
237.319	0.3871
237.5347	0.391
237.7503	0.3714
237.966	0.377
238.1816	0.4008
238.3972	0.396
238.6128	0.4081
238.8284	0.3938
239.0439	0.4133
239.2595	0.4057
239.475	0.4003
239.6906	0.3934
239.9061	0.3953
240.1216	0.3992
240.3371	0.3869
240.5526	0.4157
240.7681	0.4072
240.9836	0.3975
241.199	0.4058
241.4145	0.3843
241.6299	0.394
241.8453	0.3882
242.0607	0.3827
242.2761	0.3551
242.4915	0.3672
242.7069	0.3695
242.9223	0.3618
243.1376	0.3673
243.353	0.3738
243.5683	0.3605
243.7836	0.3475
243.9989	0.3337
244.2142	0.3223
244.4295	0.3226
244.6448	0.3432
244.86	0.3095
245.0753	0.318
245.2905	0.3041
245.5057	0.2897
245.721	0.2939
245.9362	0.2875
246.1514	0.2888
246.3665	0.2674
246.5817	0.281
246.7969	0.266
247.012	0.2619
247.2271	0.2638
247.4423	0.2573
247.6574	0.2506
247.8725	0.2457
248.0876	0.244
248.3026	0.2469
248.5177	0.2358
248.7328	0.2203
248.9478	0.2196
249.1628	0.23
249.3779	0.2213
249.5929	0.2048
249.8079	0.2184
250.0228	0.2096
250.2378	0.2068
250.4528	0.2198
250.6677	0.1907
250.8827	0.2043
251.0976	0.2053
251.3125	0.2009
251.5274	0.1855
251.7423	0.1972
251.9572	0.1869
252.172	0.1917
252.3869	0.1921
252.6017	0.1898
252.8166	0.1883
253.0314	0.1785
253.2462	0.1756
253.461	0.1799
253.6758	0.1793
253.8906	0.1854
254.1053	0.1731
254.3201	0.163
254.5348	0.1921
254.7496	0.1867
254.9643	0.1661
255.179	0.1726
255.3937	0.1606
255.6083	0.1734
255.823	0.1738
256.0377	0.1693
256.2523	0.1659
256.467	0.1416
256.6816	0.165
256.8962	0.1675
257.1108	0.1591
257.3254	0.1765
257.54	0.1615
257.7545	0.1611
257.9691	0.162
258.1836	0.1545
258.3981	0.189
258.6127	0.169
258.8272	0.1579
259.0417	0.1748
259.2561	0.1548
259.4706	0.1703
259.6851	0.1702
259.8995	0.1683
260.114	0.1704
260.3284	0.1693
260.5428	0.1572
260.7572	0.161
260.9716	0.1719
261.186	0.1716
261.4003	0.1571
261.6147	0.1705
261.829	0.163
262.0433	0.1609
262.2577	0.1604
262.472	0.1737
262.6863	0.1618
262.9005	0.1651
263.1148	0.1537
263.3291	0.1514
263.5433	0.166
263.7576	0.1701
263.9718	0.169
264.186	0.1615
264.4002	0.1673
264.6144	0.1721
264.8286	0.1657
265.0427	0.1526
265.2569	0.1649
265.471	0.163
265.6851	0.1617
265.8993	0.1606
266.1134	0.1765
266.3275	0.1605
266.5415	0.1631
266.7556	0.1861
266.9697	0.1625
267.1837	0.1684
267.3978	0.1704
267.6118	0.1726
267.8258	0.1841
268.0398	0.1594
268.2538	0.1766
268.4677	0.1752
268.6817	0.162
268.8957	0.1804
269.1096	0.1795
269.3235	0.1847
269.5374	0.1712
269.7514	0.1586
269.9652	0.1539
270.1791	0.1743
270.393	0.1618
270.6068	0.1645
270.8207	0.1577
271.0345	0.1522
271.2483	0.1839
271.4622	0.1554
271.676	0.1826
271.8897	0.1675
272.1035	0.1577
272.3173	0.1594
272.531	0.1635
272.7448	0.1531
272.9585	0.1549
273.1722	0.1661
273.3859	0.1596
273.5996	0.1578
273.8133	0.1719
274.0269	0.1499
274.2406	0.1656
274.4542	0.1664
274.6679	0.1468
274.8815	0.1589
275.0951	0.167
275.3087	0.1705
275.5223	0.1764
275.7358	0.1742
275.9494	0.1712
276.1629	0.1658
276.3765	0.1645
276.59	0.1727
276.8035	0.1718
277.017	0.1735
277.2305	0.1772
277.444	0.164
277.6574	0.1544
277.8709	0.1724
278.0843	0.1718
278.2978	0.1616
278.5112	0.1689
278.7246	0.1697
278.938	0.1821
279.1513	0.1771
279.3647	0.1577
279.5781	0.1777
279.7914	0.1859
280.0047	0.1774
280.2181	0.1634
280.4314	0.1716
280.6447	0.1749
280.8579	0.1678
281.0712	0.1563
281.2845	0.1897
281.4977	0.1709
281.711	0.1507
281.9242	0.164
282.1374	0.1754
282.3506	0.1692
282.5638	0.1744
282.7769	0.1653
282.9901	0.161
283.2033	0.1721
283.4164	0.1823
283.6295	0.1558
283.8426	0.173
284.0557	0.1634
284.2688	0.1676
284.4819	0.1795
284.695	0.1571
284.908	0.1797
285.1211	0.1571
285.3341	0.1587
285.5471	0.1777
285.7601	0.1644
285.9731	0.1547
286.1861	0.1566
286.3991	0.1604
286.612	0.1651
286.825	0.1605
287.0379	0.1574
287.2508	0.1515
287.4637	0.1628
287.6766	0.1502
287.8895	0.1692
288.1024	0.1746
288.3152	0.1654
288.5281	0.1313
288.7409	0.1494
288.9538	0.1514
289.1666	0.159
289.3794	0.1532
289.5922	0.1424
289.8049	0.1619
290.0177	0.1516
290.2304	0.1506
290.4432	0.1682
290.6559	0.1504
290.8686	0.1512
291.0813	0.1497
291.294	0.1532
291.5067	0.1624
291.7194	0.157
291.932	0.1599
292.1447	0.1462
292.3573	0.1434
292.5699	0.158
292.7825	0.1551
292.9951	0.1563
293.2077	0.1589
293.4203	0.146
293.6328	0.1383
293.8454	0.1557
294.0579	0.143
294.2704	0.149
294.4829	0.1441
294.6954	0.1468
294.9079	0.1497
295.1204	0.1527
295.3328	0.1416
295.5453	0.1511
295.7577	0.1451
295.9701	0.1436
296.1825	0.1531
296.3949	0.1312
296.6073	0.1461
296.8197	0.1399
297.0321	0.1596
297.2444	0.139
297.4567	0.1474
297.6691	0.1465
297.8814	0.1286
298.0937	0.145
298.306	0.1503
298.5182	0.1368
298.7305	0.1513
298.9428	0.1403
299.155	0.1468
299.3672	0.1306
299.5794	0.134
299.7916	0.14
300.0038	0.1434
300.216	0.1437
300.4282	0.1412
300.6403	0.138
300.8525	0.1446
301.0646	0.136
301.2767	0.1555
301.4888	0.1493
301.7009	0.1392
301.913	0.1403
302.125	0.1382
302.3371	0.13
302.5491	0.1306
302.7612	0.1463
302.9732	0.1406
303.1852	0.152
303.3972	0.1423
303.6092	0.1393
303.8211	0.1328
304.0331	0.1402
304.245	0.14
304.457	0.1346
304.6689	0.1399
304.8808	0.1558
305.0927	0.1277
305.3046	0.1354
305.5164	0.1419
305.7283	0.1292
305.9401	0.1449
306.152	0.1353
306.3638	0.1373
306.5756	0.1298
306.7874	0.1352
306.9992	0.1352
307.2109	0.122
307.4227	0.1147
307.6344	0.1368
307.8462	0.1261
308.0579	0.1247
308.2696	0.1196
308.4813	0.1195
308.693	0.1279
308.9046	0.1233
309.1163	0.1152
309.328	0.1279
309.5396	0.1232
309.7512	0.1125
309.9628	0.1136
310.1744	0.1281
310.386	0.1092
310.5976	0.12
310.8091	0.1132
311.0207	0.108
311.2322	0.1209
311.4437	0.1207
311.6552	0.1136
311.8667	0.1156
312.0782	0.1014
312.2897	0.1051
312.5012	0.1128
312.7126	0.111
312.924	0.112
313.1355	0.1221
313.3469	0.1108
313.5583	0.1071
313.7696	0.11
313.981	0.1201
314.1924	0.1121
314.4037	0.1056
314.6151	0.1285
314.8264	0.1079
315.0377	0.1057
315.249	0.1101
315.4603	0.1158
315.6716	0.1157
315.8828	0.0966
316.0941	0.0978
316.3053	0.1158
316.5165	0.0982
316.7277	0.1052
316.9389	0.1192
317.1501	0.1057
317.3613	0.1041
317.5724	0.1006
317.7836	0.1047
317.9947	0.1069
318.2058	0.1101
318.417	0.0987
318.6281	0.0997
318.8391	0.1191
319.0502	0.1087
319.2613	0.1129
319.4723	0.1113
319.6834	0.1045
319.8944	0.1004
320.1054	0.1103
320.3164	0.119
320.5274	0.1075
320.7383	0.1188
320.9493	0.1096
321.1602	0.1172
321.3712	0.0942
321.5821	0.1168
321.793	0.1171
322.0039	0.1127
322.2148	0.1127
322.4257	0.1335
322.6365	0.1118
322.8474	0.1217
323.0582	0.1128
323.269	0.121
323.4798	0.1272
323.6906	0.1221
323.9014	0.1129
324.1122	0.1133
324.3229	0.1304
324.5337	0.117
324.7444	0.1153
324.9551	0.1201
325.1658	0.1199
325.3765	0.1227
325.5872	0.1148
325.7979	0.1244
326.0085	0.1133
326.2192	0.1252
326.4298	0.1136
326.6404	0.1125
326.851	0.1214
327.0616	0.1056
327.2722	0.1186
327.4828	0.1206
327.6933	0.1292
327.9039	0.1225
328.1144	0.1416
328.3249	0.1359
328.5354	0.1082
328.7459	0.1255
328.9564	0.1052
329.1669	0.1186
329.3773	0.1181
329.5878	0.1242
329.7982	0.1216
330.0086	0.1157
330.219	0.1264
330.4294	0.1186
330.6398	0.1111
330.8502	0.1263
331.0605	0.1249
331.2708	0.1196
331.4812	0.1203
331.6915	0.1383
331.9018	0.1172
332.1121	0.1261
332.3224	0.122
332.5326	0.127
332.7429	0.1258
332.9531	0.128
333.1633	0.1284
333.3735	0.1141
333.5837	0.1319
333.7939	0.1153
334.0041	0.1353
334.2143	0.1364
334.4244	0.1262
334.6346	0.1062
334.8447	0.133
335.0548	0.1124
335.2649	0.1192
335.475	0.1347
335.685	0.1177
335.8951	0.1273
336.1051	0.136
336.3152	0.133
336.5252	0.1322
336.7352	0.1307
336.9452	0.1276
337.1552	0.1257
337.3652	0.1253
337.5751	0.1244
337.7851	0.1327
337.995	0.1263
338.2049	0.1477
338.4148	0.1277
338.6247	0.133
338.8346	0.1286
339.0445	0.1327
339.2543	0.1281
339.4642	0.1317
339.674	0.1363
339.8838	0.1316
340.0936	0.1205
340.3034	0.1335
340.5132	0.1342
340.7229	0.1291
340.9327	0.1412
341.1424	0.1324
341.3522	0.1493
341.5619	0.1333
341.7716	0.1365
341.9813	0.1282
342.1909	0.1314
342.4006	0.1542
342.6102	0.1515
342.8199	0.1369
343.0295	0.134
343.2391	0.1376
343.4487	0.1487
343.6583	0.1426
343.8679	0.134
344.0774	0.1399
344.287	0.1563
344.4965	0.135
344.706	0.1263
344.9155	0.1457
345.125	0.1385
345.3345	0.134
345.544	0.145
345.7534	0.1471
345.9629	0.1382
346.1723	0.1455
346.3817	0.1356
346.5911	0.1429
346.8005	0.1414
347.0099	0.1536
347.2193	0.1433
347.4286	0.1415
347.638	0.1554
347.8473	0.1435
348.0566	0.142
348.2659	0.1488
348.4752	0.1511
348.6845	0.1377
348.8937	0.1338
349.103	0.1438
349.3122	0.1314
349.5214	0.1411
349.7306	0.1509
349.9398	0.1311
350.149	0.1413
350.3582	0.1498
350.5674	0.1592
350.7765	0.1461
350.9856	0.1387
351.1948	0.15
351.4039	0.1464
351.613	0.1552
351.822	0.1491
352.0311	0.1529
352.2402	0.1624
352.4492	0.1602
352.6582	0.1558
352.8672	0.1444
353.0762	0.1633
353.2852	0.1622
353.4942	0.1467
353.7032	0.1424
353.9121	0.1552
354.1211	0.1558
354.33	0.1632
354.5389	0.1496
354.7478	0.153
354.9567	0.1466
355.1655	0.1422
355.3744	0.1608
355.5833	0.1564
355.7921	0.1719
356.0009	0.1468
356.2097	0.175
356.4185	0.1725
356.6273	0.1698
356.8361	0.1565
357.0448	0.1566
357.2536	0.1539
357.4623	0.173
357.671	0.1819
357.8797	0.1484
358.0884	0.172
358.2971	0.1691
358.5057	0.1656
358.7144	0.1781
358.923	0.1761
359.1316	0.1685
359.3402	0.1459
359.5488	0.1633
359.7574	0.1483
359.966	0.1705
360.1746	0.1748
360.3831	0.1577
360.5916	0.1629
360.8002	0.1537
361.0087	0.1744
361.2172	0.1722
361.4256	0.1768
361.6341	0.1707
361.8426	0.1845
362.051	0.1729
362.2594	0.1756
362.4678	0.1769
362.6762	0.1785
362.8846	0.1668
363.093	0.1718
363.3014	0.1655
363.5097	0.1535
363.718	0.1851
363.9264	0.1759
364.1347	0.1659
364.343	0.1792
364.5513	0.193
364.7595	0.1961
364.9678	0.1877
365.176	0.1967
365.3842	0.1727
365.5925	0.1833
365.8007	0.1821
366.0089	0.1802
366.217	0.178
366.4252	0.1817
366.6333	0.1822
366.8415	0.1791
367.0496	0.1621
367.2577	0.1884
367.4658	0.2094
367.6739	0.189
367.882	0.1719
368.09	0.1897
368.2981	0.1787
368.5061	0.1831
368.7141	0.1881
368.9221	0.2004
369.1301	0.198
369.3381	0.1724
369.5461	0.1814
369.754	0.1919
369.962	0.1982
370.1699	0.195
370.3778	0.1927
370.5857	0.1788
370.7936	0.1665
371.0015	0.1967
371.2093	0.198
371.4172	0.2007
371.625	0.1746
371.8328	0.1808
372.0406	0.1998
372.2484	0.1923
372.4562	0.1947
372.664	0.1924
372.8717	0.1988
373.0795	0.1846
373.2872	0.1919
373.4949	0.1945
373.7026	0.1873
373.9103	0.1978
374.118	0.1924
374.3256	0.1949
374.5333	0.1941
374.7409	0.1961
374.9485	0.2012
375.1561	0.1915
375.3637	0.1956
375.5713	0.1967
375.7789	0.1888
375.9864	0.2
376.194	0.1964
376.4015	0.2103
376.609	0.1983
376.8165	0.2055
377.024	0.1922
377.2315	0.1795
377.4389	0.1903
377.6464	0.2092
377.8538	0.1982
378.0612	0.2027
378.2686	0.209
378.476	0.2103
378.6834	0.2079
378.8908	0.2039
379.0981	0.1951
379.3055	0.2143
379.5128	0.192
379.7201	0.2008
379.9274	0.181
380.1347	0.2127
380.342	0.2144
380.5492	0.2091
380.7565	0.1925
380.9637	0.196
381.1709	0.2005
381.3781	0.194
381.5853	0.1996
381.7925	0.1964
381.9997	0.2046
382.2068	0.2052
382.4139	0.2017
382.6211	0.1932
382.8282	0.1898
383.0353	0.1996
383.2424	0.1958
383.4494	0.2004
383.6565	0.1933
383.8635	0.2011
384.0706	0.1991
384.2776	0.2058
384.4846	0.1866
384.6916	0.2149
384.8986	0.2117
385.1055	0.2085
385.3125	0.2118
385.5194	0.1845
385.7263	0.2177
385.9333	0.1907
386.1402	0.2052
386.347	0.2105
386.5539	0.1899
386.7608	0.2143
386.9676	0.1791
387.1744	0.1961
387.3813	0.1967
387.5881	0.2055
387.7948	0.2043
388.0016	0.2012
388.2084	0.2078
388.4151	0.1809
388.6219	0.2102
388.8286	0.1943
389.0353	0.1896
389.242	0.1882
389.4487	0.1851
389.6553	0.1814
389.862	0.1751
390.0686	0.1906
390.2753	0.197
390.4819	0.1866
390.6885	0.1853
390.8951	0.1851
391.1016	0.1812
391.3082	0.1842
391.5147	0.1888
391.7213	0.1834
391.9278	0.1641
392.1343	0.1697
392.3408	0.174
392.5473	0.1804
392.7537	0.1771
392.9602	0.1729
393.1666	0.1856
393.373	0.172
393.5794	0.1813
393.7858	0.1796
393.9922	0.171
394.1986	0.1693
394.4049	0.1733
394.6113	0.1568
394.8176	0.1654
395.0239	0.1729
395.2302	0.1775
395.4365	0.182
395.6428	0.1802
395.8491	0.1566
396.0553	0.1704
396.2615	0.1653
396.4678	0.1585
396.674	0.161
396.8802	0.1599
397.0863	0.1859
397.2925	0.1638
397.4987	0.1559
397.7048	0.1601
397.9109	0.1675
398.117	0.1671
398.3231	0.1569
398.5292	0.1784
398.7353	0.1771
398.9413	0.1727
399.1474	0.1537
399.3534	0.1552
399.5594	0.1567
399.7654	0.1687
399.9714	0.1553
400.1774	0.158
400.3833	0.1539
400.5893	0.1645
400.7952	0.1524
401.0011	0.1641
401.207	0.1542
401.4129	0.1574
401.6188	0.1682
401.8247	0.1515
402.0305	0.1617
402.2364	0.1585
402.4422	0.1686
402.648	0.1617
402.8538	0.1803
403.0596	0.1508
403.2654	0.1653
403.4711	0.1586
403.6768	0.1652
403.8826	0.1737
404.0883	0.1626
404.294	0.1735
404.4997	0.1704
404.7054	0.1644
404.911	0.1376
405.1167	0.1559
405.3223	0.162
405.5279	0.1703
405.7335	0.1771
405.9391	0.1593
406.1447	0.1536
406.3502	0.1757
406.5558	0.1617
406.7613	0.1633
406.9668	0.1434
407.1724	0.1598
407.3778	0.1427
407.5833	0.1473
407.7888	0.147
407.9942	0.1604
408.1997	0.1528
408.4051	0.151
408.6105	0.1596
408.8159	0.1459
409.0213	0.1534
409.2267	0.1473
409.432	0.1524
409.6374	0.1638
409.8427	0.1364
410.048	0.1627
410.2533	0.1382
410.4586	0.15
410.6639	0.1482
410.8691	0.1419
411.0744	0.1517
411.2796	0.1478
411.4848	0.1458
411.69	0.1525
411.8952	0.1662
412.1004	0.1271
412.3056	0.1656
412.5107	0.1422
412.7158	0.1593
412.921	0.1535
413.1261	0.1437
413.3312	0.1435
413.5362	0.1558
413.7413	0.1428
413.9464	0.1495
414.1514	0.1339
414.3564	0.1535
414.5614	0.1435
414.7664	0.1457
414.9714	0.1576
415.1764	0.1513
415.3813	0.1451
415.5863	0.1554
415.7912	0.1401
415.9961	0.1525
416.201	0.1398
416.4059	0.1517
416.6108	0.1288
416.8156	0.1592
417.0205	0.1399
417.2253	0.1486
417.4301	0.1484
417.6349	0.1194
417.8397	0.1285
418.0445	0.1384
418.2492	0.141
418.454	0.1198
418.6587	0.1346
418.8634	0.1415
419.0681	0.1476
419.2728	0.1338
419.4775	0.1432
419.6822	0.1271
419.8868	0.1248
420.0915	0.138
420.2961	0.1338
420.5007	0.1508
420.7053	0.1388
420.9099	0.1494
421.1144	0.1442
421.319	0.1299
421.5235	0.1492
421.728	0.1282
421.9325	0.1439
422.137	0.1539
422.3415	0.1216
422.546	0.1459
422.7504	0.1249
422.9549	0.1285
423.1593	0.1416
423.3637	0.1366
423.5681	0.1194
423.7725	0.1142
423.9769	0.1231
424.1812	0.1198
424.3856	0.1284
424.5899	0.1245
424.7942	0.1155
424.9985	0.1174
425.2028	0.1219
425.4071	0.1499
425.6113	0.1087
425.8156	0.1202
426.0198	0.1196
426.224	0.1019
426.4282	0.1297
426.6324	0.1123
426.8366	0.1307
427.0407	0.1015
427.2449	0.116
427.449	0.1151
427.6531	0.0823
427.8572	0.1007
428.0613	0.1149
428.2654	0.1119
428.4694	0.1017
428.6735	0.1027
428.8775	0.1312
429.0815	0.1156
429.2855	0.0966
429.4895	0.1208
429.6935	0.1089
429.8975	0.1094
430.1014	0.0947
430.3053	0.103
430.5093	0.1007
430.7132	0.0837
430.9171	0.1027
431.1209	0.1077
431.3248	0.0999
431.5286	0.107
431.7325	0.0958
431.9363	0.0827
432.1401	0.1048
432.3439	0.077
432.5477	0.0718
432.7514	0.071
432.9552	0.0881
433.1589	0.0708
433.3627	0.0711
433.5664	0.0865
433.7701	0.0904
433.9737	0.0749
434.1774	0.0786
434.3811	0.0868
434.5847	0.0846
434.7883	0.0876
434.9919	0.0811
435.1955	0.0604
435.3991	0.0895
435.6027	0.0722
435.8062	0.0682
436.0098	0.0657
436.2133	0.0724
436.4168	0.0843
436.6203	0.0706
436.8238	0.0732
437.0272	0.0733
437.2307	0.0605
437.4341	0.0744
437.6375	0.0744
437.841	0.0561
438.0443	0.0754
438.2477	0.0717
438.4511	0.0576
438.6545	0.0673
438.8578	0.0715
439.0611	0.0753
439.2644	0.0519
439.4677	0.0504
439.671	0.0553
439.8743	0.0685
440.0775	0.0657
440.2808	0.0537
440.484	0.0465
440.6872	0.0422
440.8904	0.0508
441.0936	0.0708
441.2967	0.0638
441.4999	0.0512
441.703	0.0478
441.9062	0.0349
442.1093	0.0414
442.3124	0.0549
442.5155	0.0339
442.7185	0.0477
442.9216	0.0288
443.1246	0.0549
443.3276	0.042
443.5307	0.0445
443.7337	0.0451
443.9366	0.0365
444.1396	0.029
444.3426	0.0299
444.5455	0.0393
444.7484	0.0254
444.9513	0.039
445.1542	0.056
445.3571	0.0307
445.56	0.0358
445.7628	0.0135
445.9657	0.0427
446.1685	0.0375
446.3713	0.0308
446.5741	0.0453
446.7769	0.0206
446.9797	0.0292
447.1824	0.0252
447.3852	0.0292
447.5879	0.0297
447.7906	0.0292
447.9933	0.0388
448.196	0.0202
448.3986	0.019
448.6013	0.0202
448.8039	0.0115
449.0066	0.0265
449.2092	0.0283
449.4118	0.0197
449.6143	0.0201
449.8169	0.023
450.0195	0.0216
450.222	0.0169
450.4245	0.0058
450.627	0.0166
450.8295	0.0186
451.032	0.0116
451.2345	0.0199
451.4369	0.0155
451.6394	0.0142
451.8418	0.0039
452.0442	0.0147
452.2466	0.0246
452.449	0.0092
452.6513	0.0035
452.8537	0.0177
453.056	0.0169
453.2583	0.0239
453.4607	0.0031
453.663	0.0086
453.8652	0.0131
454.0675	-0.0056
454.2697	0.0205
454.472	-0.0037
454.6742	0.0149
454.8764	0.0079
455.0786	0.018
455.2808	0.0078
455.4829	0.0021
455.6851	0.0196
455.8872	0.0206
456.0893	0.0126
456.2915	-0.0006
456.4935	0.0104
456.6956	-0.0091
456.8977	0.0136
457.0997	0.004
457.3018	-0.0119
457.5038	0.0135
457.7058	-0.0091
457.9078	-0.0022
458.1098	0.0207
458.3117	0.0164
458.5137	0.0137
458.7156	0.0133
458.9175	-0.0052
459.1194	-0.0004
459.3213	0.0073
459.5232	0.0016
459.725	-0.0026
459.9269	0.0099
460.1287	-0.0127
460.3305	0.0015
460.5323	-0.0052
460.7341	-0.0029
460.9359	-0.0079
461.1376	0.0062
461.3394	-0.0064
461.5411	0.0141
461.7428	-0.0151
461.9445	0.0134
462.1462	0.0193
462.3479	-0.0075
462.5495	0.0071
462.7512	0.0129
462.9528	0.0013
463.1544	-0.0268
463.356	0.0039
463.5576	0.0011
463.7592	-0.0234
463.9607	0.0015
464.1623	0.0063
464.3638	0.0141
464.5653	-0.0005
464.7668	0.0148
464.9683	0.0009
465.1697	0.0078
465.3712	0.0098
465.5726	-0.0115
465.7741	-0.0046
465.9755	-0.0145
466.1769	-0.0052
466.3782	-0.0026
466.5796	-0.0103
466.7809	0.0029
466.9823	-0.0061
467.1836	0.02
467.3849	-0.0063
467.5862	-0.0013
467.7875	-0.0174
467.9887	0.0036
468.19	0.0032
468.3912	0.0033
468.5924	-0.0096
468.7936	-0.0028
468.9948	0.0043
469.196	0.0012
469.3972	-0.0157
469.5983	-0.012
469.7994	-0.0073
470.0006	0.0116
470.2017	-0.0162
470.4027	-0.0022
470.6038	-0.0017
470.8049	-0.0142
471.0059	-0.0092
471.2069	-0.0235
471.408	0.0115
471.6089	-0.0035
471.8099	0.0047
472.0109	-0.0017
472.2119	-0.0167
472.4128	-0.0133
472.6137	-0.0013
472.8146	-0.0191
473.0155	-0.0078
473.2164	-0.0135
473.4173	-0.0031
473.6181	-0.0087
473.819	0.0048
474.0198	-0.0112
474.2206	-0.0065
474.4214	0.0005
474.6222	-0.0032
474.8229	-0.0204
475.0237	-0.0193
475.2244	-0.0145
475.4251	-0.0096
475.6258	-0.0143
475.8265	-0.0082
476.0272	0.0016
476.2278	-0.0099
476.4285	-0.0112
476.6291	-0.0117
476.8297	0.0005
477.0303	-0.0136
477.2309	-0.0035
477.4315	-0.0158
477.632	0.0067
477.8326	0.0026
478.0331	-0.0018
478.2336	0.004
478.4341	-0.0159
478.6346	0.0006
478.8351	-0.0074
479.0355	-0.001
479.236	-0.009
479.4364	-0.0121
479.6368	-0.0102
479.8372	-0.0111
480.0376	-0.0018
480.2379	-0.0282
480.4383	-0.009
480.6386	0.002
480.8389	-0.0073
481.0392	-0.0114
481.2395	-0.0161
481.4398	-0.0039
481.6401	-0.009
481.8403	-0.0044
482.0405	-0.0144
482.2408	-0.0012
482.441	-0.0016
482.6411	-0.0056
482.8413	-0.0033
483.0415	-0.0229
483.2416	-0.0121
483.4417	-0.0097
483.6419	-0.0148
483.8419	-0.011
484.042	0.0018
484.2421	0.003
484.4422	-0.0053
484.6422	0.0028
484.8422	-0.0046
485.0422	-0.0153
485.2422	-0.0027
485.4422	-0.0107
485.6422	-0.0096
485.8421	-0.0152
486.042	-0.0055
486.242	-0.0078
486.4419	-0.0109
486.6417	-0.0163
486.8416	-0.0066
487.0415	-0.0153
487.2413	-0.0093
487.4411	-0.0139
487.641	-0.0082
487.8408	-0.009
488.0405	-0.0002
488.2403	-0.0257
488.4401	0.0061
488.6398	-0.0087
488.8395	-0.0197
489.0392	-0.0058
489.2389	-0.0068
489.4386	-0.0077
489.6383	-0.0052
489.8379	-0.001
490.0376	-0.0073
490.2372	-0.0267
490.4368	-0.0155
490.6364	-0.0004
490.836	-0.0218
491.0355	-0.0076
491.2351	-0.0076
491.4346	-0.0065
491.6341	-0.0154
491.8336	-0.0031
492.0331	-0.0134
492.2326	-0.0072
492.432	-0.0078
492.6315	-0.0214
492.8309	-0.0186
493.0303	-0.021
493.2297	-0.0129
493.4291	-0.0108
493.6284	-0.0037
493.8278	0.0012
494.0271	0.0089
494.2264	-0.0114
494.4257	-0.0114
494.625	-0.006
494.8243	-0.0162
495.0236	-0.0104
495.2228	-0.0176
495.422	-0.009
495.6213	-0.0064
495.8205	-0.0038
496.0196	-0.0072
496.2188	-0.0046
496.418	-0.0195
496.6171	-0.0156
496.8162	-0.0055
497.0153	-0.0049
497.2144	-0.0105
497.4135	0.0007
497.6126	-0.0193
497.8116	-0.0148
498.0107	0.0022
498.2097	-0.0134
498.4087	-0.016
498.6077	-0.0103
498.8067	-0.0078
499.0056	-0.0056
499.2046	-0.0138
499.4035	-0.0196
499.6024	-0.003
499.8013	-0.0016
500.0002	-0.0098
500.199	-0.0024
500.3979	-0.0098
500.5967	-0.0192
500.7956	-0.0091
500.9944	-0.0039
501.1932	-0.0069
501.3919	-0.0123
501.5907	-0.0221
501.7895	-0.01
501.9882	-0.0156
502.1869	-0.0114
502.3856	-0.0133
502.5843	-0.0172
502.783	-0.0113
502.9816	-0.0118
503.1803	-0.011
503.3789	-0.0141
503.5775	-0.0021
503.7761	-0.0134
503.9747	-0.0007
504.1732	-0.0131
504.3718	-0.0171
504.5703	-0.0136
504.7689	-0.0146
504.9674	-0.015
505.1658	-0.0215
505.3643	-0.0199
505.5628	-0.0059
505.7612	-0.0081
505.9597	0.0009
506.1581	-0.0139
506.3565	-0.0005
506.5549	-0.0146
506.7532	-0.0165
506.9516	-0.0113
507.1499	-0.0024
507.3482	-0.02
507.5465	-0.0194
507.7448	-0.0063
507.9431	-0.0106
508.1414	-0.0052
508.3396	-0.0027
508.5379	-0.0034
508.7361	-0.0098
508.9343	-0.0081
509.1325	0.0019
509.3306	-0.0068
509.5288	-0.0081
509.7269	-0.0156
509.9251	-0.0109
510.1232	-0.006
510.3213	0.0014
510.5193	-0.0089
510.7174	-0.0217
510.9154	-0.0143
511.1135	-0.0143
511.3115	-0.0097
511.5095	-0.01
511.7075	-0.0051
511.9055	-0.0113
512.1034	-0.0118
512.3014	-0.0059
512.4993	-0.0039
512.6972	-0.0151
512.8951	-0.0224
513.093	-0.0048
513.2908	0.0015
513.4887	-0.0124
513.6865	-0.0078
513.8844	-0.0092
514.0822	-0.018
514.2799	-0.0067
514.4777	-0.0134
514.6755	-0.0211
514.8732	-0.0086
515.0709	-0.0096
515.2687	0.0003
515.4664	-0.0056
515.664	-0.0178
515.8617	-0.0131
516.0594	-0.0184
516.257	-0.0088
516.4546	-0.0183
516.6522	0.0008
516.8498	-0.0096
517.0474	-0.0016
517.2449	0.0022
517.4425	-0.0125
517.64	-0.0079
517.8375	-0.0048
518.035	-0.0044
518.2325	-0.0133
518.43	-0.0089
518.6274	-0.0083
518.8249	-0.0222
519.0223	-0.0077
519.2197	-0.0082
519.4171	-0.0097
519.6145	-0.0129
519.8118	-0.0085
520.0092	-0.0032
520.2065	-0.0136
520.4038	-0.0152
520.6011	-0.0116
520.7984	-0.0181
520.9956	-0.0224
521.1929	-0.0234
521.3901	-0.0105
521.5874	-0.015
521.7846	-0.0106
521.9818	-0.0142
522.1789	-0.0167
522.3761	-0.0098
522.5732	-0.0132
522.7704	-0.0094
522.9675	-0.0106
523.1646	-0.0121
523.3617	-0.0036
523.5587	-0.0034
523.7558	-0.0019
523.9528	-0.0112
524.1498	-0.0032
524.3468	-0.0039
524.5438	-0.0027
524.7408	-0.0185
524.9378	0.0023
525.1347	-0.0049
525.3316	-0.0028
525.5285	-0.011
525.7254	-0.0108
525.9223	-0.0038
526.1192	-0.0064
526.316	-0.0095
526.5129	-0.0065
526.7097	-0.0046
526.9065	-0.0007
527.1033	-0.0051
527.3	-0.004
527.4968	-0.0106
527.6935	-0.0023
527.8903	-0.0186
528.087	-0
528.2837	-0.0033
528.4804	-0.0097
528.677	-0.0125
528.8737	-0.0044
529.0703	-0.0059
529.2669	-0.0129
529.4635	-0.0125
529.6601	-0.0065
529.8567	-0.011
530.0532	-0.0137
530.2498	0.0035
530.4463	0.0039
530.6428	-0.0069
530.8393	-0.0016
531.0358	-0.0111
531.2322	-0.0176
531.4287	-0.0078
531.6251	-0.0088
531.8215	-0.0059
532.0179	0.0005
532.2143	0.002
532.4107	-0.0039
532.607	-0.0096
532.8034	0.0016
532.9997	-0.0052
533.196	-0.0142
533.3923	-0.0097
533.5886	0.0009
533.7848	0.0007
533.9811	-0.006
534.1773	0.003
534.3735	0.0024
534.5697	0
534.7659	-0.009
534.9621	-0.002
535.1582	-0.0173
535.3544	-0.0155
535.5505	-0.0038
535.7466	-0.0056
535.9427	-0.0062
536.1387	-0.0108
536.3348	-0.0077
536.5308	0.0076
536.7269	-0.0124
536.9229	-0.009
537.1189	-0.0012
537.3148	-0.0042
537.5108	-0.0084
537.7068	-0.0019
537.9027	-0.0012
538.0986	-0.0028
538.2945	-0.0133
538.4904	-0.0103
538.6863	-0.0049
538.8821	-0.0017
539.078	-0.004
539.2738	-0.011
539.4696	-0.0095
539.6654	0.0003
539.8611	0.0076
540.0569	0.0056
540.2526	-0.0078
540.4484	-0
540.6441	0.0012
540.8398	-0.0067
541.0355	0.0049
541.2311	-0.0003
541.4268	-0.0105
541.6224	0.0004
541.818	0.0009
542.0136	-0.0154
542.2092	-0.0057
542.4048	-0.0013
542.6003	0.001
542.7959	-0.0024
542.9914	-0.0088
543.1869	0.0027
543.3824	-0.0058
543.5779	-0.0113
543.7734	-0.0047
543.9688	-0.0055
544.1642	-0.0006
544.3596	-0.0032
544.555	-0.0086
544.7504	-0.0017
544.9458	-0.0026
545.1411	-0.0014
545.3365	-0.012
545.5318	-0.0047
545.7271	-0.0019
545.9224	-0.0075
546.1177	0.0005
546.3129	-0.0009
546.5081	-0.0026
546.7034	-0.0108
546.8986	-0.0083
547.0938	-0.0037
547.289	-0.0038
547.4841	-0.0003
547.6793	0.0037
547.8744	-0.0061
548.0695	-0.008
548.2646	-0.0087
548.4597	-0.0032
548.6548	-0.0079
548.8498	-0.0038
549.0448	0.0029
549.2399	-0.0077
549.4349	0.0064
549.6298	-0.0068
549.8248	0.001
550.0198	-0.001
550.2147	-0.0106
550.4096	-0.0186
550.6045	-0.0025
550.7994	0.0024
550.9943	-0.0003
551.1892	0.0013
551.384	0.0101
551.5788	-0.0098
551.7737	0.001
551.9685	0.0003
552.1632	0.0028
552.358	-0.0003
552.5528	-0.0027
552.7475	-0.0076
552.9422	-0.0057
553.1369	0.0011
553.3316	0.0067
553.5263	-0.0126
553.7209	-0.0005
553.9156	-0.0082
554.1102	-0.007
554.3048	-0.0047
554.4994	0.0131
554.694	-0.0115
554.8885	0.0023
555.0831	-0.0129
555.2776	-0.0029
555.4721	-0.0024
555.6666	-0.0041
555.8611	0.0072
556.0555	-0.0012
556.25	-0.0037
556.4444	-0.0118
556.6388	-0.0048
556.8332	-0.0008
557.0276	0.0006
557.222	-0.0014
557.4163	-0.0021
557.6107	-0.0161
557.805	0.0003
557.9993	-0.0114
558.1936	-0.0072
558.3879	0.0012
558.5821	0.0028
558.7764	-0.0033
558.9706	-0.0076
559.1648	-0.006
559.359	-0.0135
559.5532	-0.0101
559.7473	-0.0051
559.9415	-0.0041
560.1356	-0.0017
560.3297	-0.0123
560.5238	-0.0054
560.7179	-0.003
560.9119	-0.0122
561.106	-0.0065
561.3	-0.0068
561.494	-0.0059
561.688	-0.0092
561.882	-0.0137
562.076	-0.0092
562.2699	0.0025
562.4639	-0.0023
562.6578	-0.0067
562.8517	-0.0002
563.0456	0.0034
563.2395	-0.0043
563.4333	0.0004
563.6272	0.002
563.821	0.0036
564.0148	-0.0006
564.2086	-0.003
564.4024	-0.004
564.5961	-0.0038
564.7899	0.0066
564.9836	-0.0017
565.1773	-0.0064
565.371	0.0013
565.5647	-0.0019
565.7584	-0.0068
565.952	-0.0074
566.1456	0.009
566.3393	-0.0059
566.5329	-0.0088
566.7264	-0.0016
566.92	-0.0079
567.1136	0.0019
567.3071	-0.0097
567.5006	-0.006
567.6941	0.0025
567.8876	-0.0036
568.0811	-0.0085
568.2745	-0.0024
568.468	-0.0045
568.6614	-0.0003
568.8548	-0.0019
569.0482	-0.0059
569.2416	-0.0032
569.4349	-0.0067
569.6283	0.0049
569.8216	-0.0128
570.0149	-0.0038
570.2082	0.0022
570.4015	0.0044
570.5947	-0.0024
570.788	0.0064
570.9812	0.0078
571.1744	0.001
571.3676	-0.0126
571.5608	0.0001
571.754	0.0003
571.9471	-0.0008
572.1402	-0.0078
572.3333	-0.006
572.5264	-0.0054
572.7195	-0.0025
572.9126	0.0044
573.1057	-0.0022
573.2987	-0.004
573.4917	-0.0006
573.6847	-0.0042
573.8777	0.0031
574.0707	-0.0005
574.2636	-0.0077
574.4566	-0.0069
574.6495	0.0083
574.8424	-0.0028
575.0353	-0.0002
575.2281	0.0045
575.421	-0.0011
575.6138	0.0019
575.8067	-0.0105
575.9995	-0.0041
576.1923	-0.0036
576.385	-0.0062
576.5778	-0.0055
576.7706	-0.0028
576.9633	-0.0028
577.156	-0.0029
577.3487	-0.0013
577.5414	-0.0017
577.734	-0.0052
577.9267	-0.0011
578.1193	-0.003
578.3119	-0.0087
578.5045	-0.0033
578.6971	0.0047
578.8897	-0.0009
579.0822	-0.0021
579.2747	-0.0009
579.4673	-0.0029
579.6598	-0.0078
579.8522	-0.0031
580.0447	-0.0034
580.2372	-0.0001
580.4296	0.0012
580.622	-0.007
580.8144	0.0001
581.0068	-0.0016
581.1992	-0.01
581.3915	-0.0072
581.5839	-0.0098
581.7762	-0.0091
581.9685	-0.0042
582.1608	0.0034
582.353	-0.001
582.5453	0.0009
582.7375	-0.0009
582.9298	-0.0012
583.122	-0.0015
583.3142	-0.0075
583.5063	-0.0042
583.6985	-0.0042
583.8906	-0.0043
584.0827	-0.0054
584.2749	0.0002
584.4669	-0.0022
584.659	-0.0028
584.8511	-0.0019
585.0431	-0.0067
585.2352	-0.0059
585.4272	-0.0038
585.6192	0.0002
585.8111	-0.0019
586.0031	0.0028
586.195	-0.0027
586.387	-0.0009
586.5789	0.0007
586.7708	0.0069
586.9627	0.0008
587.1545	-0.0028
587.3464	0.0005
587.5382	0.0038
587.73	-0.002
587.9218	0.0048
588.1136	-0.003
588.3053	0.0018
588.4971	-0.0043
588.6888	-0.0058
588.8805	-0.0018
589.0722	-0.0006
589.2639	-0.0015
589.4556	0.0009
589.6472	-0.0056
589.8389	-0.0103
590.0305	-0.0147
590.2221	-0.0052
590.4137	-0.0106
590.6052	0.0044
590.7968	0.0032
590.9883	-0
591.1798	-0.0017
591.3713	0.0075
591.5628	0.0015
591.7543	0.0048
591.9458	-0.0022
592.1372	0.007
592.3286	-0.0008
592.52	-0.0012
592.7114	-0.0062
592.9028	0.0009
593.0941	-0.001
593.2855	-0.004
593.4768	-0.0061
593.6681	-0.0064
593.8594	-0.0048
594.0506	0.006
594.2419	0.0107
594.4331	0.0033
594.6244	0.0024
594.8156	-0.0087
595.0067	-0.0045
595.1979	0.0024
595.3891	0.0029
595.5802	-0.0026
595.7713	-0.007
595.9624	-0.0016
596.1535	0.01
596.3446	-0.0005
596.5357	-0.0006
596.7267	0.0041
596.9177	-0.0011
597.1087	-0.0053
597.2997	-0.0027
597.4907	-0.0033
597.6817	-0.0052
597.8726	-0.0016
598.0635	-0.0063
598.2544	-0.0071
598.4453	-0.0044
598.6362	-0.0004
598.827	-0.0001
599.0179	0.0044
599.2087	0.0041
599.3995	0.0007
599.5903	-0.0021
599.7811	-0.002
599.9718	-0.0025
600.1626	-0.0049
600.3533	-0.0056
600.544	-0.0059
600.7347	-0.0055
600.9254	0.0001
601.116	-0.0079
601.3067	-0.0033
601.4973	-0.0037
601.6879	0.0014
601.8785	-0.0056
602.0691	0.0004
602.2596	0.0035
602.4502	0.0081
602.6407	0.0057
602.8312	0.0022
603.0217	-0.0114
603.2122	-0.0039
603.4027	-0.0018
603.5931	-0.0025
603.7835	0.0005
603.9739	-0.0013
604.1643	-0.0066
604.3547	-0.001
604.5451	0.0046
604.7354	-0.0041
604.9257	0.0008
605.116	-0.0027
605.3063	0.0051
605.4966	-0.0015
605.6869	0.0027
605.8771	0.0067
606.0673	0.0012
606.2575	0.0081
606.4477	0.0041
606.6379	0.0037
606.8281	-0.0001
607.0182	-0.0034
607.2083	0.0094
607.3985	-0.0005
607.5885	-0.0033
607.7786	0.0004
607.9687	-0.0116
608.1587	0.0043
608.3488	-0.0009
608.5388	-0.0032
608.7288	0.0017
608.9187	-0.0036
609.1087	-0.0096
609.2986	-0.0039
609.4886	-0.0022
609.6785	0.0006
609.8684	0.0022
610.0582	-0.0018
610.2481	0.0003
610.4379	0.0037
610.6278	0.0001
610.8176	0.001
611.0074	-0.0037
611.1971	-0.0078
611.3869	-0.0002
611.5766	-0.0094
611.7664	0.0069
611.9561	0.0001
612.1458	-0.0002
612.3354	-0.0123
612.5251	-0.0006
612.7147	0.0057
612.9044	-0.0033
613.094	-0.0092
613.2836	-0.0003
613.4731	-0.0055
613.6627	0.0022
613.8522	0.0071
614.0417	0.0052
614.2313	-0.0006
614.4207	-0.0058
614.6102	0.0007
614.7997	-0.0051
614.9891	-0.0057
615.1785	0.004
615.3679	-0.0045
615.5573	0.0116
615.7467	-0.006
615.9361	-0.0009
616.1254	0.0001
616.3147	-0.0004
616.504	-0.001
616.6933	-0.0035
616.8826	0.0057
617.0718	0.0032
617.2611	0.0008
617.4503	-0.0021
617.6395	-0.0013
617.8287	-0.0038
618.0179	0.0011
618.207	0.0085
618.3961	0.0044
618.5853	0.0003
618.7744	0.0046
618.9634	0.001
619.1525	0.0004
619.3416	-0.0019
619.5306	0.0049
619.7196	-0.0046
619.9086	-0.0053
620.0976	0.0043
620.2866	-0.0009
620.4755	0.0006
620.6645	0.0024
620.8534	0.0138
621.0423	0.0051
621.2312	0.0038
621.42	-0.0001
621.6089	-0.002
621.7977	0.0042
621.9865	-0.0032
622.1753	0.0004
622.3641	-0.0045
622.5529	0.0033
622.7416	0.0065
622.9303	-0.0067
623.1191	-0.0014
623.3078	-0.0005
623.4964	0
623.6851	-0.0087
623.8737	-0.0045
624.0624	0.0048
624.251	-0.0103
624.4396	-0.0008
624.6282	-0.0017
624.8167	-0.0033
625.0053	-0.0026
625.1938	0.013
625.3823	-0.0064
625.5708	0.0003
625.7593	0.0018
625.9477	-0.0065
626.1362	-0.0031
626.3246	0.006
626.513	0.0119
626.7014	0.0092
626.8898	0.0003
627.0781	0.0068
627.2665	-0.0107
627.4548	-0.0059
627.6431	-0.0016
627.8314	-0.0025
628.0197	0.007
628.2079	-0.0108
628.3962	0.0013
628.5844	-0.0029
628.7726	0.0028
628.9608	0.0046
629.1489	0.0035
629.3371	0.0024
629.5252	-0.0004
629.7134	0.0073
629.9015	-0.0047
630.0895	0.0082
630.2776	0.0037
630.4657	-0.0016
630.6537	-0.0006
630.8417	-0.0052
631.0297	-0.0048
631.2177	0.0035
631.4057	-0.0016
631.5936	-0.0003
631.7815	0.0047
631.9695	0.0004
632.1574	0.0036
632.3452	0.0112
632.5331	0
632.7209	0.0022
632.9088	0.0059
633.0966	0.0052
633.2844	-0.0022
633.4722	-0.0016
633.6599	0.0059
633.8477	0.0003
634.0354	-0.0049
634.2231	-0.0089
634.4108	-0.0055
634.5985	0.0066
634.7861	0.0019
634.9738	-0.0054
635.1614	0.0017
635.349	0.0011
635.5366	-0.0023
635.7242	0.0017
635.9117	0.0094
636.0993	-0.0036
636.2868	0.0029
636.4743	-0.005
636.6618	0.0149
636.8492	0.0017
637.0367	0.0042
637.2241	-0.0001
637.4115	-0.001
637.5989	-0.0003
637.7863	-0.0011
637.9737	0.0007
638.161	0.0073
638.3484	-0.0006
638.5357	0.0056
638.723	-0.0002
638.9103	0.0101
639.0975	0.0047
639.2848	0.0057
639.472	0.0001
639.6592	0.0105
639.8464	0.0082
640.0336	0.0075
640.2208	0.0029
640.4079	-0.0004
640.595	0.0044
640.7821	0.0003
640.9692	0.0024
641.1563	0.0047
641.3434	0.0076
641.5304	0.0074
641.7174	-0.0029
641.9044	0.0025
642.0914	0.0152
642.2784	0.0096
642.4653	0.0095
642.6523	0.0071
642.8392	0.0007
643.0261	0.0092
643.213	0.0054
643.3999	-0.006
643.5867	-0.0054
643.7735	0.0007
643.9604	0.0057
644.1472	0.0069
644.3339	0.0037
644.5207	0.0055
644.7075	0.0089
644.8942	0.0066
645.0809	0.0033
645.2676	0.008
645.4543	-0.0015
645.6409	0.0043
645.8276	0.0073
646.0142	0.0076
646.2008	-0.0054
646.3874	-0.0062
646.574	-0.0043
646.7605	-0.0015
646.9471	-0.012
647.1336	0.0026
647.3201	0.0071
647.5066	-0.0063
647.6931	0.0029
647.8795	0.0055
648.0659	0.0042
648.2524	0.0053
648.4388	-0.0024
648.6252	0.0006
648.8115	0.001
648.9979	-0.0067
649.1842	0.0031
649.3705	0.0027
649.5568	0.0023
649.7431	0.0042
649.9294	0.0001
650.1156	0.0011
650.3018	-0.0052
650.488	0.003
650.6742	0.0041
650.8604	0.0024
651.0466	-0.0087
651.2327	-0.002
651.4188	0.0051
651.6049	-0.0027
651.791	-0.0058
651.9771	-0.0004
652.1632	-0.0041
652.3492	0.0012
652.5352	-0.0014
652.7212	-0.0068
652.9072	0.0051
653.0932	-0.0008
653.2791	-0.0096
653.465	0.0037
653.651	0.0002
653.8369	-0.0006
654.0227	-0.0008
654.2086	0.0032
654.3944	0.0033
654.5803	-0.0042
654.7661	-0.0023
654.9519	0.0004
655.1377	-0.0061
655.3234	-0.0029
655.5092	-0.0098
655.6949	-0.0085
655.8806	-0.0101
656.0663	-0.0018
656.2519	-0.0051
656.4376	-0.0003
656.6232	-0.0026
656.8088	-0.0038
656.9945	0.0006
657.18	0.0014
657.3656	-0.0023
657.5511	-0.001
657.7367	-0.0051
657.9222	0.0024
658.1077	-0.004
658.2932	0.0051
658.4786	-0.0068
658.6641	-0.0081
658.8495	-0.0051
659.0349	-0.0031
659.2203	0.003
659.4057	-0.0007
659.591	-0.0013
659.7764	-0.0068
659.9617	0.0012
660.147	-0.0017
660.3323	0.0047
660.5176	0.0107
660.7028	0.0043
660.888	0.0081
661.0733	0.0022
661.2585	-0.0063
661.4436	-0.0039
661.6288	-0.0094
661.8139	-0.0071
661.9991	0.0071
662.1842	-0.0046
662.3693	0.0044
662.5544	-0.0021
662.7394	-0
662.9245	0.0007
663.1095	0.0018
663.2945	-0.0001
663.4795	-0.0013
663.6644	0.0021
663.8494	-0.0002
664.0343	0.0023
664.2193	-0.0032
664.4042	-0.0015
664.589	-0.0041
664.7739	-0.0053
664.9587	-0.0071
665.1436	0.003
665.3284	-0.0047
665.5132	-0.0094
665.698	-0.0107
665.8827	0.0012
666.0675	-0.0006
666.2522	-0.0081
666.4369	0.0067
666.6216	0.0001
666.8063	-0.0019
666.9909	-0.0017
667.1756	-0.002
667.3602	-0.0073
667.5448	-0.0015
667.7294	0.0062
667.9139	0.0068
668.0985	0.0068
668.283	-0.0012
668.4675	-0.0009
668.652	0.008
668.8365	-0.0045
669.0209	0.0089
669.2054	-0.0004
669.3898	0.0014
669.5742	0.002
669.7586	0.0017
669.943	0.0034
670.1273	-0.0001
670.3117	0.0053
670.496	-0.0023
670.6803	0.0124
670.8646	0.0049
671.0488	-0.0027
671.2331	0.0062
671.4173	0.008
671.6015	-0.004
671.7857	-0.0022
671.9699	0.004
672.1541	0.0065
672.3382	0.0031
672.5223	0.0002
672.7064	0.0102
672.8905	0.0007
673.0746	0.0009
673.2587	-0.0001
673.4427	0.0063
673.6267	0.0055
673.8107	0.0048
673.9947	0.0058
674.1787	-0.0006
674.3626	-0.0065
674.5465	0.0113
674.7304	0.0003
674.9143	0.0044
675.0982	0.0078
675.2821	-0.0087
675.4659	0.0067
675.6497	-0.0026
675.8335	-0.0012
676.0173	-0.0047
676.2011	0.0053
676.3849	-0
676.5686	-0.0144
676.7523	-0.002
676.936	-0.0028
677.1197	0.0019
677.3034	-0.0093
677.487	0.0008
677.6706	0.0051
677.8542	-0.0028
678.0378	0.0017
678.2214	-0.0093
678.405	-0.0026
678.5885	-0.0066
678.772	-0.007
678.9555	-0.0035
679.139	0.0008
679.3225	0.0025
679.5059	0.0041
679.6894	-0.0024
679.8728	0.0052
680.0562	-0.0065
680.2395	-0.0062
680.4229	-0.0029
680.6062	0.0033
680.7896	0.0054
680.9729	-0.0063
681.1562	0.0023
681.3394	0.0037
681.5227	-0.006
681.7059	0.0015
681.8891	-0.0013
682.0723	0.0057
682.2555	-0.0012
682.4387	-0
682.6218	0.0014
682.805	0.0072
682.9881	0.0015
683.1712	-0.0005
683.3542	-0.0068
683.5373	0.0076
683.7203	-0.0077
683.9034	-0.0085
684.0864	-0.0053
684.2694	-0.0108
684.4523	0.0065
684.6353	-0.0105
684.8182	0.0032
685.0011	-0.0012
685.184	0.0054
685.3669	-0.001
685.5498	0.0008
685.7326	-0.0016
685.9154	-0.0093
686.0982	0.0138
686.281	0.0027
686.4638	0.0034
686.6465	-0.0053
686.8293	-0.0068
687.012	-0.0002
687.1947	-0.0082
687.3774	0.0002
687.56	-0.0044
687.7427	-0.0009
687.9253	-0.0051
688.1079	-0.0013
688.2905	0.0012
688.4731	0.0032
688.6556	-0.0002
688.8382	-0.0116
689.0207	-0.0023
689.2032	-0.0123
689.3857	-0.0058
689.5681	-0.0065
689.7506	-0.0043
689.933	-0.0101
690.1154	-0.0061
690.2978	-0.005
690.4802	-0.0026
690.6626	-0.0076
690.8449	-0.007
691.0272	0.0012
691.2095	-0.0071
691.3918	-0.0051
691.5741	0.0076
691.7563	-0.0022
691.9386	-0.0085
692.1208	0.0029
692.303	-0.0001
692.4852	-0.0021
692.6673	-0.0032
692.8495	-0.0017
693.0316	0.0047
693.2137	-0.0033
693.3958	-0.0005
693.5778	0.0017
693.7599	0.0011
693.9419	-0.0056
694.1239	0.002
694.3059	0.0021
694.4879	0.0043
694.6699	0.0012
694.8518	0.0039
695.0337	-0.0091
695.2157	0.0026
695.3975	0.0038
695.5794	0.0006
695.7613	0.0012
695.9431	-0.0068
696.1249	-0.0001
696.3067	0.0014
696.4885	0.0068
696.6703	-0.0039
696.852	0.0015
697.0337	0.0069
697.2154	0.0032
697.3971	0.0012
697.5788	0.0046
697.7605	0.002
697.9421	0.0012
698.1237	-0.0013
698.3053	0.0026
698.4869	0.001
698.6685	-0.0121
698.85	-0.006
699.0315	0.0091
699.213	-0.0082
699.3945	0.0039
699.576	0.0076
699.7575	0.0048
699.9389	0.0037
700.1203	-0.0036
700.3017	-0.01
700.4831	-0.0151
700.6645	0.0008
700.8458	-0.0052
701.0271	0.0008
701.2084	0.0038
701.3897	-0.0006
701.571	0.0123
701.7523	-0.0041
701.9335	0.0009
702.1147	-0.0018
702.2959	0.0044
702.4771	-0
702.6583	0.0049
702.8394	-0.003
703.0205	0.0041
703.2016	-0.003
703.3827	-0.0003
703.5638	0.003
703.7449	-0.0053
703.9259	0.0091
704.1069	-0.004
704.2879	-0.0015
704.4689	0.0033
704.6499	0.0013
704.8308	-0.0071
705.0117	-0.0041
705.1927	0.0062
705.3735	-0.0036
705.5544	-0.0014
705.7353	-0.0037
705.9161	-0.0062
706.0969	-0.0024
706.2777	0.0013
706.4585	-0.0033
706.6393	0.0023
706.82	0.0003
707.0007	0.0083
707.1815	0.0001
707.3621	0.0142
707.5428	0.0014
707.7235	0.0033
707.9041	0.001
708.0847	-0.0085
708.2653	-0.0104
708.4459	-0.009
708.6265	-0.006
708.807	0.0013
708.9875	-0.003
709.168	-0.0093
709.3485	-0.0082
709.529	-0.0037
709.7095	-0.0194
709.8899	-0.0058
710.0703	-0.016
710.2507	-0.0022
710.4311	0.0006
710.6115	-0.0121
710.7918	-0.0003
710.9721	-0.0045
711.1524	-0.0048
711.3327	0.0002
711.513	-0.0009
711.6932	0.0006
711.8735	0.014
712.0537	0.0002
712.2339	-0.0039
712.4141	-0.0087
712.5942	-0.0013
712.7744	-0.0013
712.9545	-0.0116
713.1346	-0.0105
713.3147	-0.004
713.4947	-0.007
713.6748	-0.0018
713.8548	-0.0078
714.0348	-0.0066
714.2148	-0.0102
714.3948	-0.0004
714.5748	-0.0072
714.7547	-0.0004
714.9346	0.0016
715.1145	-0.01
715.2944	-0.0128
715.4743	-0.0052
715.6541	-0.0059
715.834	0.0042
716.0138	-0.0118
716.1936	-0.0194
716.3733	-0.0062
716.5531	0.0065
716.7328	-0.0034
716.9126	-0.001
717.0923	0.0031
717.2719	-0.0024
717.4516	0.0013
717.6312	-0.0032
717.8109	-0.0027
717.9905	0.0005
718.1701	-0.0036
718.3496	-0.0036
718.5292	-0.0068
718.7087	-0.0009
718.8882	0.0005
719.0677	0.0113
719.2472	-0.0045
719.4267	-0.0006
719.6061	-0.0041
719.7856	0.0014
719.965	0.0111
720.1443	-0.0032
720.3237	0.0076
720.5031	0.0016
720.6824	0.0068
720.8617	-0.0052
721.041	0.0025
721.2203	0.0054
721.3995	0.0034
721.5788	0.0039
721.758	0.0021
721.9372	0.0008
722.1164	0.006
722.2956	0.0054
722.4747	-0.0009
722.6538	-0.0036
722.8329	0.0031
723.012	0.003
723.1911	-0.0028
723.3702	0.0019
723.5492	0.0085
723.7282	-0.0036
723.9072	0.0012
724.0862	-0.0034
724.2652	-0.0087
724.4441	-0.0032
724.623	-0.0031
724.8019	-0.0023
724.9808	-0.001
725.1597	-0.0098
725.3385	0.0023
725.5174	-0.0044
725.6962	-0.0025
725.875	0.0018
726.0538	0.005
726.2325	-0.0033
726.4112	0.0026
726.59	0.0026
726.7687	-0.0065
726.9474	-0.001
727.126	-0.002
727.3047	0.0038
727.4833	-0.0032
727.6619	0.0038
727.8405	-0.0056
728.0191	-0.0015
728.1976	0.0012
728.3762	-0.0002
728.5547	-0.0018
728.7332	-0.0135
728.9116	-0.0033
729.0901	0.0067
729.2686	-0.0066
729.447	-0.0012
729.6254	0.0017
729.8038	0.0002
729.9821	-0.0092
730.1605	-0.002
730.3388	-0.0003
730.5171	0.0007
730.6954	-0.0066
730.8737	0.0011
731.0519	-0.0023
731.2302	-0.004
731.4084	0.0073
731.5866	-0.001
731.7648	-0.0106
731.9429	-0.0089
732.1211	-0.0166
732.2992	-0.0065
732.4773	-0.0124
732.6554	-0.0089
732.8335	0.0031
733.0115	0.0023
733.1896	0.0033
733.3676	-0.006
733.5456	-0.0047
733.7235	0.0046
733.9015	-0.0073
734.0794	-0.0014
734.2574	-0.0034
734.4353	-0.0035
734.6131	-0.0015
734.791	0.0059
734.9689	0.0012
735.1467	-0.0041
735.3245	-0.0034
735.5023	-0.0064
735.68	-0.0009
735.8578	0.0043
736.0355	-0.0123
736.2132	-0.0005
736.3909	-0.0096
736.5686	-0.0094
736.7463	0.0003
736.9239	-0.0171
737.1015	0.0049
737.2791	0.0058
737.4567	0.004
737.6343	-0.0034
737.8118	0.0003
737.9894	0.0031
738.1669	-0.0028
738.3444	0.0032
738.5218	0.0073
738.6993	0.0045
738.8767	0.001
739.0541	0.0044
739.2315	-0.0043
739.4089	-0.005
739.5863	0.0067
739.7636	-0.0074
739.9409	-0.0018
740.1182	0.0045
740.2955	0.0021
740.4728	0.0051
740.65	-0.0101
740.8272	-0.0051
741.0044	-0.0097
741.1816	0.0025
741.3588	-0.0049
741.5359	0.0027
741.7131	-0.0157
741.8902	-0.0012
742.0673	-0.0068
742.2444	-0.0173
742.4214	-0.0114
742.5985	-0.0008
742.7755	-0.0166
742.9525	-0.03
743.1295	-0.0024
743.3064	-0.0055
743.4834	0.0015
743.6603	-0.005
743.8372	-0.0133
744.0141	0.0045
744.191	-0.0065
744.3678	-0.0037
744.5446	-0.0012
744.7215	-0.0075
744.8982	-0.0041
745.075	-0.0031
745.2518	-0.0004
745.4285	-0.0066
745.6052	-0.0059
745.7819	-0.0031
745.9586	-0.0086
746.1353	-0.0041
746.3119	-0.0086
746.4885	-0.0116
746.6651	-0.0003
746.8417	-0.0017
747.0183	-0.0058
747.1948	0.0006
747.3714	-0.0007
747.5479	0.0001
747.7244	-0.0087
747.9008	0.0036
748.0773	-0.0046
748.2537	0.0011
748.4301	-0.0093
748.6065	0.0038
748.7829	0.005
748.9593	0.0047
749.1356	0.0007
749.3119	0.0036
749.4882	-0.0122
749.6645	0.0119
749.8408	-0.0074
750.017	-0.0092
750.1933	-0.0008
750.3695	-0.0014
750.5457	0.0086
750.7218	-0.0017
750.898	-0.0039
751.0741	-0.0099
751.2502	0.0012
751.4263	-0.0008
751.6024	0.0012
751.7784	-0.0115
751.9545	-0.0074
752.1305	-0.0014
752.3065	-0.0043
752.4825	0.0054
752.6584	-0.0057
752.8344	-0.0102
753.0103	-0.0041
753.1862	-0.0011
753.3621	-0.0047
753.5379	-0.0096
753.7138	-0.0036
753.8896	0.0003
754.0654	0.0075
754.2412	0.006
754.417	-0.0029
754.5927	-0.0045
754.7685	-0.0017
754.9442	0.0002
755.1199	0.0059
755.2956	0.0028
755.4712	0.0125
755.6469	0.0101
755.8225	0.002
755.9981	-0.0013
756.1736	0.0098
756.3492	0.0069
756.5248	0.0044
756.7003	-0.0018
756.8758	0.0096
757.0513	-0.0029
757.2267	-0.0043
757.4022	0.0069
757.5776	-0.0081
757.753	0.0067
757.9284	0.0031
758.1038	0.0001
758.2791	0.0005
758.4545	-0.0105
758.6298	-0.0009
758.8051	0.005
758.9803	-0.0061
759.1556	-0.0014
759.3308	0.0025
759.506	0.0113
759.6812	0.0017
759.8564	0.0157
760.0316	0.0038
760.2067	-0.0013
760.3819	0.0046
760.557	0.0102
760.732	0.0084
760.9071	-0.01
761.0821	0.0088
761.2572	0.0066
761.4322	-0
761.6072	-0.0059
761.7821	-0.0004
761.9571	0.0077
762.132	0.0057
762.3069	0.0039
762.4818	0.0006
762.6567	0.0052
762.8316	-0
763.0064	0.0015
763.1812	-0.0012
763.356	-0.0151
763.5308	-0.0006
763.7055	0.0061
763.8803	-0.002
764.055	-0.0012
764.2297	0.0053
764.4044	-0.001
764.579	-0.006
764.7537	-0.0021
764.9283	0.0047
765.1029	-0.0064
765.2775	0.0046
765.4521	-0.0154
765.6266	-0.0089
765.8011	-0.0149
765.9756	-0.0043
766.1501	0.0012
766.3246	-0.0055
766.4991	-0.01
766.6735	0.0009
766.8479	-0.0099
767.0223	0.0019
767.1967	-0.0013
767.371	-0.002
767.5454	-0.0095
767.7197	-0.0059
767.894	0.0008
768.0683	-0.0027
768.2425	0.0034
768.4168	0.0048
768.591	-0
768.7652	-0.0024
768.9394	0.0021
769.1135	-0.0016
769.2877	0.0098
769.4618	0.0081
769.6359	0.0024
769.81	0.0024
769.984	-0.0012
770.1581	-0.0146
770.3321	0.0119
770.5061	0.002
770.6801	-0.01
770.8541	0.0077
771.028	0.0168
771.202	-0.0084
771.3759	0.0026
771.5498	-0.0158
771.7236	-0
771.8975	0.0003
772.0713	-0.0018
772.2451	0.0031
772.4189	0.0057
772.5927	0.012
772.7665	0.001
772.9402	-0.0047
773.1139	0.0003
773.2876	-0.0034
773.4613	0.0116
773.635	0.0125
773.8086	-0.0166
773.9822	0.0054
774.1558	0.008
774.3294	-0.0148
774.503	0.0026
774.6765	0.0102
774.8501	0.0038
775.0236	0.0023
775.1971	0.0064
775.3705	-0.0044
775.544	0.0129
775.7174	-0.0063
775.8908	-0.0014
776.0642	0.0024
776.2376	-0.0008
776.4109	-0.0096
776.5843	-0.0132
776.7576	0.0189
776.9309	0.0074
777.1041	0.0171
777.2774	0.0142
777.4506	-0.0075
777.6238	-0.0017
777.797	-0.0009
777.9702	-0.0002
778.1434	-0.0031
778.3165	-0.0032
778.4896	-0.0047
778.6627	0.0001
778.8358	0.0065
779.0089	0.0015
779.1819	0.0018
779.3549	0.0095
779.5279	0.0089
779.7009	-0.0042
779.8739	0.0011
780.0468	0.0121
780.2197	0.0023
780.3926	0.0031
780.5655	-0.0004
780.7384	-0.0095
780.9112	-0.0096
781.0841	-0.0085
781.2569	-0.012
781.4297	0.0112
781.6024	0.0031
781.7752	0.0134
781.9479	0.0073
782.1206	-0.0007
782.2933	-0.02
782.466	0.0021
782.6386	0.0107
782.8113	-0.0062
782.9839	0.0187
783.1565	0.014
783.329	-0.0039
783.5016	0.0142
783.6741	0.0048
783.8466	0.0036
784.0191	0.009
784.1916	0.0033
784.3641	-0.0042
784.5365	-0.0023
784.7089	-0.0021
784.8813	0.0016
785.0537	0.0014
785.2261	-0.001
785.3984	-0.0108
785.5707	-0.0103
785.743	-0.0069
785.9153	0.0006
786.0876	0.0025
786.2598	-0.0039
786.432	0.0036
786.6042	0.0122
786.7764	-0.0076
786.9486	0.013
787.1207	-0.0067
787.2928	0.0026
787.4649	0.0022
787.637	0.004
787.8091	-0.0098
787.9811	0.0012
788.1532	0.0016
788.3252	0.0076
788.4972	-0.0048
788.6691	0.0049
788.8411	0.0154
789.013	-0.0051
789.1849	-0.0014
789.3568	0.0103
789.5287	-0.0112
789.7005	-0.006
789.8723	0.0073
790.0442	0.0174
790.2159	-0.0068
790.3877	0.0124
790.5595	-0.0122
790.7312	-0.0041
790.9029	0.0002
791.0746	-0.0034
791.2463	-0.0024
791.4179	-0.0057
791.5896	-0.022
791.7612	-0.0058
791.9328	-0.0002
792.1044	-0.0128
792.2759	-0.0104
792.4474	-0.0094
792.619	0.0105
792.7905	-0.0013
792.9619	-0.0101
793.1334	0.0045
793.3048	0.009
793.4762	-0.0038
793.6476	-0.0081
793.819	-0.0226
793.9904	0.0145
794.1617	-0.0171
794.333	-0.004
794.5043	-0.0029
794.6756	-0.0083
794.8469	-0.0027
795.0181	0.0009
795.1893	-0.0022
795.3605	0.0209
795.5317	-0.0212
795.7029	-0.0166
795.874	0.0015
796.0452	0.008
796.2163	0.0038
796.3873	0.0122
796.5584	0.0151
796.7294	-0.0027
796.9005	-0.0016
797.0715	-0.0054
797.2425	-0.0143
797.4134	0.0104
797.5844	-0.0035
797.7553	-0.0116
797.9262	0.0014
798.0971	0.0005
798.2679	-0.0036
798.4388	-0.0225
798.6096	-0.0067
798.7804	-0.0001
798.9512	-0.0001
799.122	0.0001
799.2927	-0.002
799.4635	0.0101
799.6342	-0.0052
799.8049	-0.0202
799.9755	0.0103
800.1462	-0.0166
800.3168	0.0052
800.4874	0.0044
800.658	0.0332
800.8286	0.0011
800.9991	0.0262
801.1696	0.0122
801.3402	0.0018
801.5106	0.0079
801.6811	0.0122
801.8516	0.0177
802.022	0.0168
802.1924	-0.0007
802.3628	0.0186
802.5332	-0.0116
802.7035	0.0226
802.8739	0.0106
803.0442	0.0216
803.2145	0.0144
803.3847	-0.0157
803.555	0.0059
803.7252	-0.0086
803.8954	-0.0168
804.0656	-0.0091
804.2358	0.0036
804.4059	0.0123
804.5761	0.0023
804.7462	0.0099
804.9163	-0.0085
805.0864	-0.0064
805.2564	-0.0175
805.4264	-0.015
805.5965	-0.0116
805.7665	0.0008
805.9364	0.0076
806.1064	0.0293
806.2763	-0.0031
806.4462	0.0206
806.6161	-0.0027
806.786	0.012
806.9559	0.0068
807.1257	-0.0194
807.2955	0.0031
807.4653	0.0008
807.6351	-0.0086
807.8048	-0.0137
807.9746	-0.0053
808.1443	0.0001
808.314	-0.0049
808.4837	-0.0149
808.6533	-0.006
808.8229	0.0093
808.9926	-0.0021
809.1622	-0.002
809.3317	0.0059
809.5013	-0.0141
809.6708	0.0135
809.8403	-0.0011
810.0098	-0.0096
810.1793	-0.0026
810.3488	0.0121
810.5182	-0.0133
810.6876	0.0117
810.857	-0.0217
811.0264	0.035
811.1958	0.0269
811.3651	-0.0045
811.5344	-0.0035
811.7037	-0.0181
811.873	-0.0271
812.0422	-0.0009
812.2115	-0.006
812.3807	-0.0141
812.5499	-0.0057
812.7191	0.0042
812.8882	-0.011
813.0574	-0.002
813.2265	-0.0153
813.3956	0.0023
813.5646	-0.0056
813.7337	-0.023
813.9027	0.0134
814.0718	0.0535
814.2407	-0.0031
814.4097	-0.0023
814.5787	-0.022
814.7476	-0.0012
814.9165	-0.0165
815.0854	-0.0186
815.2543	-0.0041
815.4232	-0.0179
815.592	0.0092
815.7608	0.004
815.9296	0.013
816.0984	0.0261
816.2671	-0.0186
816.4359	-0.0103
816.6046	-0.0054
816.7733	-0.0133
816.942	-0.0296
817.1106	-0.0073
817.2793	0.0002
817.4479	-0.0092
817.6165	0.0142
817.785	-0.0052
817.9536	-0.0225
818.1221	-0.0242
818.2906	0.0008
818.4591	-0.0024
818.6276	-0.0161
818.7961	0.0015
818.9645	0.0072
819.1329	-0.0001
819.3013	0.0235
819.4697	0.0288
819.638	0.0096
819.8064	0.0126
819.9747	0.0006
820.143	-0.015
820.3113	-0.0207
820.4795	-0.0071
820.6477	-0.0019
820.816	-0.0101
820.9842	0.0171
821.1523	-0.0202
821.3205	-0.0023
821.4886	0.0031
821.6567	-0.0001
821.8248	0.0207
821.9929	0.0192
822.1609	-0.0239
822.329	0.0067
822.497	0.0395
822.665	-0.0145
822.833	-0.0109
823.0009	0.0017
823.1688	0.0128
823.3367	0.0332
823.5046	0.0018
823.6725	0.0217
823.8404	0.0054
824.0082	0.0113
824.176	0.0134
824.3438	-0.0084
824.5116	-0.017
824.6793	0.0247
824.847	0.0015
825.0147	-0.0074
825.1824	0.0305
825.3501	0.0196
825.5177	-0.0281
825.6854	0.0007
825.853	-0.0014
826.0206	-0.0536
826.1881	-0.0133
826.3557	-0.0294
826.5232	-0.0075
826.6907	-0.0434
826.8582	-0.0277
827.0257	-0.0288
827.1931	0.0007
827.3605	0.0071
827.528	0.0102
827.6953	-0.0047
827.8627	0.0017
828.03	0.0438
828.1974	-0.023
828.3647	-0.0228
828.532	-0.0124
828.6992	-0.008
828.8665	-0.0257
829.0337	-0.0077
829.2009	0.013
829.3681	0.0008
829.5352	0.039
829.7024	-0.0278
829.8695	0.0152
830.0366	0.0358
830.2037	0.0054
830.3707	0.0118
830.5378	-0.0018
830.7048	0.0158
830.8718	-0.0094
831.0388	-0.0121
831.2057	0.0008
831.3727	0.0167
831.5396	-0.007
831.7065	-0.0307
831.8734	0.0041
832.0402	-0.0565
832.2071	-0.0254
832.3739	-0.0404
832.5407	0.0106
832.7075	-0.0015
832.8742	-0.0276
833.041	-0.0499
833.2077	0.0053
833.3744	-0.0032
833.541	-0.0288
833.7077	0.0054
833.8743	-0.0157
834.0409	-0.0326
834.2075	-0.0066
834.3741	0.0035
834.5407	-0.0097
834.7072	-0.0003
834.8737	-0.0532
835.0402	-0.0036
835.2067	0.0105
835.3731	0.0291
835.5395	0.0101
835.706	0.0326
835.8723	-0.0151
836.0387	-0.0043
836.2051	0.0088
836.3714	-0.0003
836.5377	0.0137
836.704	-0.0038
836.8703	0.021
837.0365	-0.0154
837.2027	-0.0239
837.3689	0.009
837.5351	-0.007
837.7013	-0.0377
837.8674	-0.0396
838.0335	-0.038
838.1997	0.0029
838.3657	-0.0293
838.5318	-0.0139
838.6978	0.042
838.8639	0.0592
839.0299	-0.0271
839.1958	-0.0119
839.3618	0.0279
839.5277	-0.0038
839.6937	-0.0085
839.8596	-0.0335
840.0254	0.0055
840.1913	0.0322
840.3571	0.0175
840.523	-0.017
840.6888	0.0043
840.8545	0.0243
841.0203	0.0506
841.186	-0.0122
841.3517	0.0312
841.5174	0.0294
841.6831	-0.0251
841.8488	0.047
842.0144	-0.0156
842.18	-0.0186
842.3456	0.0267
842.5112	-0.0419
842.6767	0.0166
842.8422	-0.0537
843.0077	-0.0331
843.1732	-0.0051
843.3387	-0.0527
843.5042	-0.1019
843.6696	-0.0296
843.835	-0.0494
844.0004	0.0381
844.1657	-0.0257
844.3311	-0.012
844.4964	-0.0465
844.6617	-0.0179
844.827	0.0007
844.9923	-0.0345
845.1575	0.0043
845.3227	0.0196
845.4879	-0.0005
845.6531	-0.0032
845.8183	-0.0642
845.9834	-0.0409
846.1485	-0.0379
846.3136	-0.0462
846.4787	-0.0889
846.6438	0.0368
846.8088	-0.0466
846.9738	-0.0473
847.1388	0.0094
847.3038	-0.0478
847.4687	-0.1322
847.6337	-0.0257
847.7986	-0.0123
847.9635	-0.0413
848.1284	0.029
848.2932	0.0995
848.458	0.0061
848.6228	-0.0142
848.7876	0.0861
848.9524	-0.115
849.1172	-0.061
849.2819	0.0022
849.4466	-0.0963
849.6113	-0.0976
849.7759	0.0196
849.9406	0.0027
850.1052	0.0439
850.2698	0.0265
850.4344	-0.0542
850.599	-0.032
850.7635	0.029
850.928	-0.0874
851.0925	0.0372
851.257	-0.0129
851.4215	0.0538
851.5859	-0.0264
851.7503	-0.0201
851.9147	0.0609
852.0791	-0.0691
852.2434	-0.0101
852.4078	0.0302
852.5721	0.0058
852.7364	-0.0525
852.9007	-0.101
853.0649	-0.0679
853.2291	-0.1046
853.3934	-0.001
853.5575	0.0974
853.7217	-0.1102
853.8859	-0.1157
854.05	-0.1678
854.2141	0.0094
854.3782	-0.1084
854.5423	-0.1003
854.7063	0.0661
854.8703	-0.0174
855.0343	-0.0137
855.1983	-0.2044
855.3623	0.1472
855.5262	-0.0552
855.6901	0.0214
855.854	-0.021
856.0179	0.245
856.1818	0.1979
856.3456	-0.1292
856.5094	-0.1073
856.6732	-0.1338
856.837	-0.043
857.0008	0.1685
857.1645	0.0173
857.3282	0.1234
857.4919	0.1146
857.6556	0.1898
857.8192	0.0658
857.9828	-0.081
858.1465	-0.0169
858.31	-0.1504
858.4736	-0.0847
858.6372	-0.0916
858.8007	-0.1636
858.9642	0.0777
859.1277	-0.0622
859.2911	0.1915
859.4546	-0.0341
859.618	-0.353
859.7814	-0.0014
859.9448	-0.1017
860.1081	0.0249
860.2715	0.0534
860.4348	-0.1562
860.5981	0.0692
860.7614	-0.0225
860.9246	-0.1347
861.0879	-0.22
861.2511	0.1604
861.4143	0.0062
861.5774	0.0967
861.7406	-0.1939
861.9037	0.0532
862.0668	0.0389
862.2299	-0.1631
862.393	-0.4175
862.556	0.1041
862.7191	-0.1901
862.8821	-0.3986
863.0451	0.0952
863.208	0.128
863.371	-0.0107
863.5339	-0.2792
863.6968	0.2163
863.8597	-0
864.0225	-0.0141
864.1854	0.7012
864.3482	0.1504
864.511	0.1179
864.6737	0.1524
864.8365	0.1458
864.9992	-0.5024
865.1619	-0.5618
865.3246	-0.2732
865.4873	0.0079
865.65	-0.1896
865.8126	-0.2608
865.9752	0.1362
866.1378	0.0322
866.3004	-0.0696
866.4629	0.1675
866.6254	-0.1879
866.7879	0.1987
866.9504	-0
867.1129	-0
867.2753	-0.0029
867.4377	-0.1008
867.6001	-0.0066
867.7625	0.2806
867.9249	0.7125
868.0872	0.3098
868.2495	0.2833
868.4118	-0.0633
868.5741	-0.441
868.7363	-0.4078
868.8986	-0.4182
869.0608	0.0964
869.223	0.2629
869.3851	-0.3326
869.5473	0.0982
869.7094	0.4792
869.8715	-0
870.0336	-1.0013
870.1957	-0.4489
870.3577	-1.0675
870.5197	-0.1544
870.6817	-0.3784
870.8437	-0.2054
871.0057	-0
871.1676	-0
871.3295	-0
871.4914	-0
871.6533	0.0212
871.8151	-0.6339
871.977	-0
872.1388	-0
872.3006	-0
872.4623	-0
872.6241	0.4639
872.7858	0.1348
872.9475	-0.2083
873.1092	-0.0452
873.2709	0.0374
873.4325	0.1215
873.5941	-0
873.7557	-0
873.9173	-0
874.0789	-0.6203
874.2404	-0.708
874.4019	0.5349
874.5634	-0.0297
874.7249	-0.2326
874.8863	-0.2797
875.0478	-0
875.2092	-0
875.3706	0.0262
875.5319	-0.6594
875.6933	-0.0465
875.8546	0.3489
876.0159	-0
876.1772	-0
876.3385	-0
876.4997	0.0996
876.6609	-0.2466
876.8221	-0.5144
876.9833	0.3954
877.1445	-0
877.3056	0.4917
877.4667	-0.3517
877.6278	0.868
877.7889	-0.1376
877.9499	-0.7357
878.111	-0.7429
878.272	-1.0675
878.433	-0.1183
878.5939	-0
878.7549	0.0322
878.9158	-0.7578
879.0767	-0.1825
879.2376	-0
879.3984	-0
879.5593	-0
879.7201	0.1022
879.8809	-0.7606
880.0417	1.415
880.2024	-0.0514
880.3632	-0
880.5239	0.2006
880.6846	-0
880.8452	-2.5949
881.0059	-1.7818
881.1665	-0
881.3271	-0.0414
881.4877	-0.4489
881.6483	0.3726
881.8088	-0.3952
881.9693	-0
882.1298	-0
882.2903	-0
