Data from MonoPyChalIsomerACN10uM410nmA_Absorbance_14-53-25-373.txt Node
Date: Fri Jul 05 14:53:25 BST 2024
User: LASERRRRR
Spectrometer: FLMT03099
Trigger mode: 0
Integration Time (sec): 1.000000E-1
Scans to average: 1
Electric dark correction enabled: true
Nonlinearity correction enabled: false
Boxcar width: 0
XAxis mode: Wavelengths
Number of Pixels in Spectrum: 3648
>>>>>Begin Spectral Data<<<<<
179.3399	-0.3334
179.5586	-0.3334
179.7771	-0.3334
179.9957	-0
180.2143	-0
180.4329	-0.2155
180.6514	-0
180.8699	-0
181.0885	-0.2937
181.307	0.1669
181.5255	-0.6557
181.744	-0.3317
181.9625	-0
182.181	-0.8498
182.3994	0.2225
182.6179	-0
182.8363	0.1372
183.0547	-0.3228
183.2732	0.0414
183.4916	0.249
183.71	0.0713
183.9284	-0.0459
184.1467	-0.1426
184.3651	-0.0709
184.5835	0.0177
184.8018	-0.0692
185.0201	-0.0598
185.2385	0.2033
185.4568	0.1494
185.6751	0.0955
185.8934	0.2741
186.1117	-0.0117
186.3299	0.0835
186.5482	0.1048
186.7664	-0.0416
186.9847	-0.0186
187.2029	0.044
187.4211	0.0255
187.6393	0.5657
187.8575	-0.0406
188.0757	0.1299
188.2939	0.1518
188.512	0.1174
188.7302	0.0686
188.9483	-0.0604
189.1665	0.2116
189.3846	-0.3767
189.6027	0.207
189.8208	0.1336
190.0389	0.127
190.257	0.0703
190.475	0.274
190.6931	0.3125
190.9111	0.3419
191.1292	-0.0322
191.3472	0.3681
191.5652	0.2113
191.7832	0.227
192.0012	0.3219
192.2192	0.3323
192.4371	0.4542
192.6551	0.2569
192.873	0.4353
193.091	0.3178
193.3089	0.5494
193.5268	0.4926
193.7447	0.5234
193.9626	0.3907
194.1805	0.4702
194.3984	0.662
194.6162	0.5402
194.8341	0.5369
195.0519	0.4762
195.2697	0.7301
195.4875	0.4749
195.7054	0.5473
195.9231	0.4929
196.1409	0.8102
196.3587	0.5571
196.5765	0.4901
196.7942	0.4947
197.012	0.5235
197.2297	0.6432
197.4474	0.5451
197.6651	0.5346
197.8828	0.5753
198.1005	0.5555
198.3182	0.6772
198.5358	1.0158
198.7535	0.7317
198.9711	0.4989
199.1888	0.5406
199.4064	0.8115
199.624	0.5075
199.8416	0.5845
200.0592	0.6533
200.2767	0.7622
200.4943	0.7137
200.7119	0.675
200.9294	0.5943
201.1469	0.5826
201.3645	0.5585
201.582	0.5617
201.7995	0.6633
202.017	0.587
202.2344	0.5557
202.4519	0.666
202.6694	0.783
202.8868	0.5316
203.1042	0.6931
203.3217	0.6718
203.5391	0.522
203.7565	0.5239
203.9739	0.5446
204.1913	0.6097
204.4086	0.656
204.626	0.7086
204.8433	0.6146
205.0607	0.6273
205.278	0.6809
205.4953	0.6926
205.7126	0.647
205.9299	0.8432
206.1472	0.7305
206.3644	0.6252
206.5817	0.7405
206.7989	0.6948
207.0162	0.6174
207.2334	0.68
207.4506	0.6875
207.6678	0.5981
207.885	0.569
208.1022	0.6456
208.3194	0.7034
208.5365	0.6736
208.7537	0.6679
208.9708	0.5632
209.1879	0.5896
209.405	0.6763
209.6222	0.6842
209.8392	0.6108
210.0563	0.6364
210.2734	0.6233
210.4905	0.5849
210.7075	0.6471
210.9245	0.5517
211.1416	0.65
211.3586	0.7091
211.5756	0.5881
211.7926	0.5821
212.0096	0.555
212.2265	0.573
212.4435	0.5039
212.6604	0.575
212.8774	0.596
213.0943	0.6444
213.3112	0.5234
213.5281	0.4895
213.745	0.5253
213.9619	0.5261
214.1788	0.4917
214.3956	0.4545
214.6125	0.4624
214.8293	0.4462
215.0461	0.464
215.2629	0.457
215.4798	0.4813
215.6965	0.428
215.9133	0.4454
216.1301	0.3835
216.3469	0.4645
216.5636	0.3952
216.7803	0.4013
216.9971	0.4235
217.2138	0.3635
217.4305	0.405
217.6472	0.3422
217.8639	0.3994
218.0805	0.3596
218.2972	0.3183
218.5138	0.3176
218.7305	0.3459
218.9471	0.2994
219.1637	0.285
219.3803	0.2796
219.5969	0.2708
219.8135	0.2483
220.0301	0.2867
220.2466	0.3068
220.4632	0.2575
220.6797	0.2528
220.8962	0.2481
221.1127	0.2509
221.3292	0.255
221.5457	0.2575
221.7622	0.2243
221.9787	0.2588
222.1951	0.2432
222.4116	0.2499
222.628	0.242
222.8444	0.277
223.0608	0.2233
223.2772	0.2356
223.4936	0.253
223.71	0.2351
223.9264	0.269
224.1427	0.2454
224.3591	0.2447
224.5754	0.2576
224.7917	0.2371
225.008	0.2517
225.2243	0.2601
225.4406	0.2876
225.6569	0.2641
225.8732	0.2535
226.0894	0.2344
226.3057	0.2436
226.5219	0.2953
226.7381	0.2564
226.9543	0.2756
227.1705	0.2751
227.3867	0.2782
227.6029	0.2918
227.8191	0.2787
228.0352	0.3069
228.2513	0.299
228.4675	0.3044
228.6836	0.2881
228.8997	0.2728
229.1158	0.3011
229.3319	0.3179
229.548	0.3107
229.764	0.3137
229.9801	0.3144
230.1961	0.3391
230.4121	0.3343
230.6282	0.3304
230.8442	0.3119
231.0602	0.3344
231.2761	0.3514
231.4921	0.3384
231.7081	0.345
231.924	0.3399
232.14	0.3553
232.3559	0.3429
232.5718	0.3599
232.7877	0.3495
233.0036	0.3368
233.2195	0.3531
233.4353	0.3394
233.6512	0.3442
233.867	0.3548
234.0829	0.3615
234.2987	0.3601
234.5145	0.3859
234.7303	0.3712
234.9461	0.3656
235.1619	0.3532
235.3776	0.3946
235.5934	0.3902
235.8091	0.371
236.0249	0.3862
236.2406	0.3894
236.4563	0.3737
236.672	0.3862
236.8877	0.3957
237.1034	0.3858
237.319	0.3854
237.5347	0.4212
237.7503	0.4049
237.966	0.4024
238.1816	0.4101
238.3972	0.3987
238.6128	0.3809
238.8284	0.4091
239.0439	0.4047
239.2595	0.3849
239.475	0.4084
239.6906	0.4088
239.9061	0.3919
240.1216	0.3847
240.3371	0.4196
240.5526	0.3947
240.7681	0.417
240.9836	0.3885
241.199	0.4028
241.4145	0.3969
241.6299	0.3657
241.8453	0.3793
242.0607	0.3659
242.2761	0.3558
242.4915	0.3659
242.7069	0.3528
242.9223	0.3342
243.1376	0.3446
243.353	0.337
243.5683	0.3522
243.7836	0.3206
243.9989	0.3256
244.2142	0.2957
244.4295	0.3065
244.6448	0.2995
244.86	0.291
245.0753	0.2938
245.2905	0.2832
245.5057	0.2669
245.721	0.2673
245.9362	0.2579
246.1514	0.2757
246.3665	0.2534
246.5817	0.2583
246.7969	0.261
247.012	0.2519
247.2271	0.2306
247.4423	0.2451
247.6574	0.2338
247.8725	0.2325
248.0876	0.222
248.3026	0.2264
248.5177	0.2257
248.7328	0.2002
248.9478	0.2143
249.1628	0.2142
249.3779	0.2351
249.5929	0.1991
249.8079	0.2163
250.0228	0.1881
250.2378	0.1978
250.4528	0.203
250.6677	0.186
250.8827	0.1918
251.0976	0.1983
251.3125	0.1944
251.5274	0.1886
251.7423	0.1757
251.9572	0.178
252.172	0.175
252.3869	0.1681
252.6017	0.1681
252.8166	0.1691
253.0314	0.1666
253.2462	0.1608
253.461	0.1714
253.6758	0.1559
253.8906	0.1863
254.1053	0.1557
254.3201	0.157
254.5348	0.176
254.7496	0.1842
254.9643	0.1576
255.179	0.17
255.3937	0.162
255.6083	0.1565
255.823	0.1771
256.0377	0.1632
256.2523	0.1653
256.467	0.1528
256.6816	0.1778
256.8962	0.1709
257.1108	0.172
257.3254	0.1776
257.54	0.1541
257.7545	0.1544
257.9691	0.1697
258.1836	0.1682
258.3981	0.1651
258.6127	0.1731
258.8272	0.1575
259.0417	0.1715
259.2561	0.1546
259.4706	0.1563
259.6851	0.1689
259.8995	0.1562
260.114	0.1728
260.3284	0.168
260.5428	0.1527
260.7572	0.1724
260.9716	0.1634
261.186	0.1502
261.4003	0.1613
261.6147	0.1563
261.829	0.1491
262.0433	0.1556
262.2577	0.1594
262.472	0.1667
262.6863	0.1627
262.9005	0.1688
263.1148	0.1677
263.3291	0.1458
263.5433	0.1633
263.7576	0.153
263.9718	0.1565
264.186	0.1667
264.4002	0.1624
264.6144	0.1557
264.8286	0.163
265.0427	0.1593
265.2569	0.1584
265.471	0.1521
265.6851	0.1573
265.8993	0.159
266.1134	0.1653
266.3275	0.1571
266.5415	0.159
266.7556	0.1562
266.9697	0.1586
267.1837	0.1611
267.3978	0.1581
267.6118	0.1741
267.8258	0.1718
268.0398	0.1514
268.2538	0.166
268.4677	0.1554
268.6817	0.1603
268.8957	0.1567
269.1096	0.1596
269.3235	0.163
269.5374	0.1541
269.7514	0.1507
269.9652	0.1459
270.1791	0.1514
270.393	0.1437
270.6068	0.1599
270.8207	0.138
271.0345	0.1486
271.2483	0.1472
271.4622	0.1494
271.676	0.1616
271.8897	0.1366
272.1035	0.1446
272.3173	0.1449
272.531	0.1403
272.7448	0.1414
272.9585	0.1378
273.1722	0.1479
273.3859	0.1503
273.5996	0.1423
273.8133	0.1441
274.0269	0.1314
274.2406	0.1465
274.4542	0.131
274.6679	0.1312
274.8815	0.1423
275.0951	0.1458
275.3087	0.1417
275.5223	0.1508
275.7358	0.141
275.9494	0.1376
276.1629	0.1437
276.3765	0.1307
276.59	0.1537
276.8035	0.1378
277.017	0.143
277.2305	0.1459
277.444	0.1459
277.6574	0.1369
277.8709	0.142
278.0843	0.1388
278.2978	0.1408
278.5112	0.1208
278.7246	0.1406
278.938	0.1465
279.1513	0.1408
279.3647	0.1497
279.5781	0.1329
279.7914	0.1487
280.0047	0.157
280.2181	0.1423
280.4314	0.1538
280.6447	0.1515
280.8579	0.155
281.0712	0.1458
281.2845	0.1484
281.4977	0.1463
281.711	0.1446
281.9242	0.1478
282.1374	0.1543
282.3506	0.1475
282.5638	0.1477
282.7769	0.1553
282.9901	0.1508
283.2033	0.165
283.4164	0.1626
283.6295	0.1333
283.8426	0.1522
284.0557	0.1509
284.2688	0.1682
284.4819	0.1594
284.695	0.1531
284.908	0.1535
285.1211	0.1486
285.3341	0.1498
285.5471	0.1579
285.7601	0.1526
285.9731	0.1426
286.1861	0.1594
286.3991	0.1639
286.612	0.1639
286.825	0.1588
287.0379	0.1605
287.2508	0.1574
287.4637	0.1689
287.6766	0.1596
287.8895	0.1671
288.1024	0.173
288.3152	0.1673
288.5281	0.1559
288.7409	0.157
288.9538	0.1589
289.1666	0.1618
289.3794	0.1621
289.5922	0.1532
289.8049	0.1619
290.0177	0.1649
290.2304	0.162
290.4432	0.1652
290.6559	0.1666
290.8686	0.1731
291.0813	0.1659
291.294	0.1728
291.5067	0.1675
291.7194	0.1607
291.932	0.188
292.1447	0.163
292.3573	0.1633
292.5699	0.1608
292.7825	0.1576
292.9951	0.1618
293.2077	0.1576
293.4203	0.1689
293.6328	0.151
293.8454	0.1721
294.0579	0.1602
294.2704	0.1658
294.4829	0.1624
294.6954	0.1611
294.9079	0.1694
295.1204	0.1629
295.3328	0.1631
295.5453	0.1613
295.7577	0.1802
295.9701	0.1609
296.1825	0.1641
296.3949	0.1602
296.6073	0.1764
296.8197	0.1607
297.0321	0.1784
297.2444	0.1465
297.4567	0.1627
297.6691	0.1639
297.8814	0.1607
298.0937	0.1642
298.306	0.1653
298.5182	0.1683
298.7305	0.1719
298.9428	0.1574
299.155	0.174
299.3672	0.16
299.5794	0.1519
299.7916	0.1584
300.0038	0.1722
300.216	0.1699
300.4282	0.17
300.6403	0.1642
300.8525	0.1773
301.0646	0.1521
301.2767	0.1595
301.4888	0.1642
301.7009	0.1688
301.913	0.1631
302.125	0.1652
302.3371	0.155
302.5491	0.1689
302.7612	0.174
302.9732	0.1619
303.1852	0.1624
303.3972	0.1624
303.6092	0.1579
303.8211	0.1597
304.0331	0.157
304.245	0.162
304.457	0.15
304.6689	0.1589
304.8808	0.1632
305.0927	0.1447
305.3046	0.1472
305.5164	0.1577
305.7283	0.1549
305.9401	0.1559
306.152	0.1488
306.3638	0.1515
306.5756	0.155
306.7874	0.1479
306.9992	0.1541
307.2109	0.1443
307.4227	0.1309
307.6344	0.1361
307.8462	0.1382
308.0579	0.1394
308.2696	0.1268
308.4813	0.1285
308.693	0.1357
308.9046	0.1347
309.1163	0.126
309.328	0.1251
309.5396	0.1172
309.7512	0.1197
309.9628	0.1298
310.1744	0.1214
310.386	0.1219
310.5976	0.1137
310.8091	0.1168
311.0207	0.1135
311.2322	0.1234
311.4437	0.1104
311.6552	0.1102
311.8667	0.1143
312.0782	0.0915
312.2897	0.0948
312.5012	0.1133
312.7126	0.1001
312.924	0.1008
313.1355	0.1085
313.3469	0.1063
313.5583	0.1054
313.7696	0.1136
313.981	0.102
314.1924	0.1063
314.4037	0.1051
314.6151	0.1205
314.8264	0.0981
315.0377	0.0994
315.249	0.0923
315.4603	0.1076
315.6716	0.1017
315.8828	0.0997
316.0941	0.0895
316.3053	0.0945
316.5165	0.0861
316.7277	0.0968
316.9389	0.1006
317.1501	0.0974
317.3613	0.1003
317.5724	0.0859
317.7836	0.0941
317.9947	0.0906
318.2058	0.0972
318.417	0.0838
318.6281	0.0887
318.8391	0.0888
319.0502	0.0863
319.2613	0.0951
319.4723	0.0947
319.6834	0.1043
319.8944	0.0847
320.1054	0.0943
320.3164	0.0987
320.5274	0.0966
320.7383	0.092
320.9493	0.0967
321.1602	0.1013
321.3712	0.0878
321.5821	0.0975
321.793	0.095
322.0039	0.0985
322.2148	0.0992
322.4257	0.091
322.6365	0.0987
322.8474	0.095
323.0582	0.0934
323.269	0.0974
323.4798	0.1089
323.6906	0.096
323.9014	0.104
324.1122	0.0972
324.3229	0.0847
324.5337	0.0964
324.7444	0.0838
324.9551	0.1147
325.1658	0.1021
325.3765	0.1088
325.5872	0.0979
325.7979	0.0937
326.0085	0.1003
326.2192	0.1135
326.4298	0.0997
326.6404	0.0957
326.851	0.0923
327.0616	0.085
327.2722	0.1079
327.4828	0.1087
327.6933	0.096
327.9039	0.1072
328.1144	0.0955
328.3249	0.1005
328.5354	0.0966
328.7459	0.1031
328.9564	0.1013
329.1669	0.0909
329.3773	0.0905
329.5878	0.0961
329.7982	0.0906
330.0086	0.1073
330.219	0.1054
330.4294	0.1089
330.6398	0.1022
330.8502	0.0916
331.0605	0.0955
331.2708	0.104
331.4812	0.1057
331.6915	0.1021
331.9018	0.0954
332.1121	0.0943
332.3224	0.0989
332.5326	0.0979
332.7429	0.1089
332.9531	0.1204
333.1633	0.1139
333.3735	0.106
333.5837	0.1085
333.7939	0.094
334.0041	0.1133
334.2143	0.1077
334.4244	0.1085
334.6346	0.0964
334.8447	0.1118
335.0548	0.0955
335.2649	0.0992
335.475	0.1181
335.685	0.1018
335.8951	0.1122
336.1051	0.1142
336.3152	0.1045
336.5252	0.0987
336.7352	0.1098
336.9452	0.1057
337.1552	0.1028
337.3652	0.105
337.5751	0.1077
337.7851	0.1154
337.995	0.0987
338.2049	0.1118
338.4148	0.104
338.6247	0.1065
338.8346	0.1071
339.0445	0.097
339.2543	0.1053
339.4642	0.1062
339.674	0.1064
339.8838	0.1104
340.0936	0.0988
340.3034	0.1174
340.5132	0.1065
340.7229	0.1066
340.9327	0.1017
341.1424	0.1137
341.3522	0.1132
341.5619	0.1162
341.7716	0.1097
341.9813	0.1194
342.1909	0.1184
342.4006	0.1257
342.6102	0.1273
342.8199	0.1197
343.0295	0.1124
343.2391	0.1249
343.4487	0.1214
343.6583	0.1181
343.8679	0.1233
344.0774	0.1314
344.287	0.1267
344.4965	0.1116
344.706	0.1262
344.9155	0.1193
345.125	0.1199
345.3345	0.1322
345.544	0.1171
345.7534	0.13
345.9629	0.1222
346.1723	0.1235
346.3817	0.1156
346.5911	0.1217
346.8005	0.1258
347.0099	0.1224
347.2193	0.1358
347.4286	0.1275
347.638	0.1334
347.8473	0.1213
348.0566	0.1291
348.2659	0.1421
348.4752	0.1312
348.6845	0.1296
348.8937	0.1229
349.103	0.1357
349.3122	0.1334
349.5214	0.1324
349.7306	0.1478
349.9398	0.1349
350.149	0.1382
350.3582	0.1355
350.5674	0.1499
350.7765	0.131
350.9856	0.1268
351.1948	0.1445
351.4039	0.1242
351.613	0.1233
351.822	0.1362
352.0311	0.1467
352.2402	0.1461
352.4492	0.1524
352.6582	0.1543
352.8672	0.1399
353.0762	0.1449
353.2852	0.1377
353.4942	0.1516
353.7032	0.14
353.9121	0.1356
354.1211	0.1568
354.33	0.1449
354.5389	0.1549
354.7478	0.1516
354.9567	0.1465
355.1655	0.134
355.3744	0.1495
355.5833	0.1503
355.7921	0.1667
356.0009	0.1448
356.2097	0.1572
356.4185	0.1551
356.6273	0.158
356.8361	0.1622
357.0448	0.1607
357.2536	0.1496
357.4623	0.1557
357.671	0.1602
357.8797	0.1723
358.0884	0.1519
358.2971	0.1651
358.5057	0.1675
358.7144	0.1752
358.923	0.1664
359.1316	0.1715
359.3402	0.1611
359.5488	0.1699
359.7574	0.1597
359.966	0.1722
360.1746	0.1819
360.3831	0.1718
360.5916	0.1616
360.8002	0.1507
361.0087	0.1734
361.2172	0.1705
361.4256	0.175
361.6341	0.1807
361.8426	0.1803
362.051	0.1747
362.2594	0.1703
362.4678	0.1818
362.6762	0.1991
362.8846	0.1895
363.093	0.1747
363.3014	0.1904
363.5097	0.1662
363.718	0.1735
363.9264	0.1942
364.1347	0.1788
364.343	0.204
364.5513	0.2025
364.7595	0.1986
364.9678	0.1932
365.176	0.1931
365.3842	0.1899
365.5925	0.187
365.8007	0.1978
366.0089	0.1862
366.217	0.1818
366.4252	0.2031
366.6333	0.1987
366.8415	0.1943
367.0496	0.1988
367.2577	0.201
367.4658	0.2012
367.6739	0.2147
367.882	0.2283
368.09	0.2012
368.2981	0.2137
368.5061	0.2054
368.7141	0.208
368.9221	0.213
369.1301	0.2083
369.3381	0.2003
369.5461	0.2074
369.754	0.2286
369.962	0.2281
370.1699	0.2137
370.3778	0.2171
370.5857	0.1956
370.7936	0.2217
371.0015	0.2106
371.2093	0.2161
371.4172	0.2223
371.625	0.2205
371.8328	0.2037
372.0406	0.2157
372.2484	0.2322
372.4562	0.2246
372.664	0.2134
372.8717	0.2297
373.0795	0.2045
373.2872	0.2219
373.4949	0.2297
373.7026	0.2384
373.9103	0.2363
374.118	0.2377
374.3256	0.2255
374.5333	0.2384
374.7409	0.236
374.9485	0.2447
375.1561	0.2333
375.3637	0.2258
375.5713	0.2451
375.7789	0.2357
375.9864	0.2469
376.194	0.2314
376.4015	0.2601
376.609	0.2509
376.8165	0.2576
377.024	0.24
377.2315	0.2274
377.4389	0.2323
377.6464	0.2411
377.8538	0.2443
378.0612	0.2517
378.2686	0.2559
378.476	0.245
378.6834	0.2549
378.8908	0.2443
379.0981	0.2478
379.3055	0.2608
379.5128	0.2409
379.7201	0.2495
379.9274	0.2413
380.1347	0.2441
380.342	0.2649
380.5492	0.2371
380.7565	0.2729
380.9637	0.2539
381.1709	0.2536
381.3781	0.2453
381.5853	0.261
381.7925	0.2471
381.9997	0.2748
382.2068	0.2523
382.4139	0.2402
382.6211	0.2621
382.8282	0.258
383.0353	0.2595
383.2424	0.2611
383.4494	0.2526
383.6565	0.2582
383.8635	0.2484
384.0706	0.2522
384.2776	0.2618
384.4846	0.2323
384.6916	0.2507
384.8986	0.2379
385.1055	0.2499
385.3125	0.2793
385.5194	0.248
385.7263	0.2682
385.9333	0.2532
386.1402	0.2522
386.347	0.2491
386.5539	0.2298
386.7608	0.2813
386.9676	0.2549
387.1744	0.2529
387.3813	0.2648
387.5881	0.2673
387.7948	0.2494
388.0016	0.2632
388.2084	0.2427
388.4151	0.256
388.6219	0.2452
388.8286	0.2563
389.0353	0.2513
389.242	0.2666
389.4487	0.2426
389.6553	0.2491
389.862	0.2234
390.0686	0.2492
390.2753	0.2539
390.4819	0.2483
390.6885	0.2477
390.8951	0.2423
391.1016	0.2351
391.3082	0.2321
391.5147	0.2431
391.7213	0.239
391.9278	0.2375
392.1343	0.2354
392.3408	0.242
392.5473	0.2374
392.7537	0.2237
392.9602	0.2414
393.1666	0.2275
393.373	0.2381
393.5794	0.2422
393.7858	0.2287
393.9922	0.2268
394.1986	0.2337
394.4049	0.22
394.6113	0.2249
394.8176	0.2132
395.0239	0.2208
395.2302	0.2253
395.4365	0.2207
395.6428	0.2095
395.8491	0.2182
396.0553	0.2194
396.2615	0.218
396.4678	0.2172
396.674	0.2107
396.8802	0.219
397.0863	0.2205
397.2925	0.2031
397.4987	0.2078
397.7048	0.2158
397.9109	0.2196
398.117	0.2054
398.3231	0.2145
398.5292	0.2204
398.7353	0.2234
398.9413	0.2219
399.1474	0.2051
399.3534	0.211
399.5594	0.1959
399.7654	0.2342
399.9714	0.2192
400.1774	0.2249
400.3833	0.2003
400.5893	0.2113
400.7952	0.217
401.0011	0.2109
401.207	0.2296
401.4129	0.2129
401.6188	0.2261
401.8247	0.219
402.0305	0.222
402.2364	0.2043
402.4422	0.2187
402.648	0.2131
402.8538	0.2227
403.0596	0.2102
403.2654	0.2367
403.4711	0.1969
403.6768	0.2197
403.8826	0.2287
404.0883	0.2242
404.294	0.2253
404.4997	0.2159
404.7054	0.221
404.911	0.2012
405.1167	0.2114
405.3223	0.226
405.5279	0.2251
405.7335	0.2263
405.9391	0.225
406.1447	0.2153
406.3502	0.2342
406.5558	0.2142
406.7613	0.2285
406.9668	0.2124
407.1724	0.1982
407.3778	0.2094
407.5833	0.2124
407.7888	0.205
407.9942	0.2457
408.1997	0.2186
408.4051	0.209
408.6105	0.2235
408.8159	0.2008
409.0213	0.2049
409.2267	0.214
409.432	0.2062
409.6374	0.2252
409.8427	0.2073
410.048	0.1958
410.2533	0.2175
410.4586	0.2053
410.6639	0.1824
410.8691	0.2106
411.0744	0.2103
411.2796	0.1938
411.4848	0.1976
411.69	0.21
411.8952	0.2305
412.1004	0.2084
412.3056	0.2283
412.5107	0.2168
412.7158	0.2208
412.921	0.2069
413.1261	0.2011
413.3312	0.1948
413.5362	0.2095
413.7413	0.2103
413.9464	0.2174
414.1514	0.1992
414.3564	0.193
414.5614	0.2039
414.7664	0.2034
414.9714	0.2059
415.1764	0.2175
415.3813	0.2228
415.5863	0.1949
415.7912	0.2122
415.9961	0.2094
416.201	0.2067
416.4059	0.2109
416.6108	0.1904
416.8156	0.204
417.0205	0.2045
417.2253	0.2093
417.4301	0.2255
417.6349	0.1851
417.8397	0.1948
418.0445	0.2232
418.2492	0.223
418.454	0.2063
418.6587	0.1957
418.8634	0.2106
419.0681	0.1928
419.2728	0.1811
419.4775	0.1896
419.6822	0.1833
419.8868	0.1808
420.0915	0.1851
420.2961	0.1772
420.5007	0.1837
420.7053	0.201
420.9099	0.2045
421.1144	0.1934
421.319	0.1894
421.5235	0.1963
421.728	0.1991
421.9325	0.195
422.137	0.2161
422.3415	0.1876
422.546	0.1854
422.7504	0.1884
422.9549	0.1886
423.1593	0.198
423.3637	0.2014
423.5681	0.1862
423.7725	0.1778
423.9769	0.1825
424.1812	0.1608
424.3856	0.1971
424.5899	0.1871
424.7942	0.1883
424.9985	0.1866
425.2028	0.1724
425.4071	0.1845
425.6113	0.1772
425.8156	0.1962
426.0198	0.1799
426.224	0.1647
426.4282	0.1612
426.6324	0.1812
426.8366	0.1743
427.0407	0.1653
427.2449	0.1552
427.449	0.1843
427.6531	0.144
427.8572	0.1687
428.0613	0.1618
428.2654	0.1693
428.4694	0.1644
428.6735	0.1621
428.8775	0.1768
429.0815	0.1681
429.2855	0.1523
429.4895	0.1562
429.6935	0.1626
429.8975	0.1475
430.1014	0.1416
430.3053	0.137
430.5093	0.1474
430.7132	0.1295
430.9171	0.1368
431.1209	0.1403
431.3248	0.1357
431.5286	0.1522
431.7325	0.1405
431.9363	0.1301
432.1401	0.1326
432.3439	0.1189
432.5477	0.1145
432.7514	0.1154
432.9552	0.126
433.1589	0.1232
433.3627	0.122
433.5664	0.1327
433.7701	0.1175
433.9737	0.1271
434.1774	0.1167
434.3811	0.1168
434.5847	0.1375
434.7883	0.1202
434.9919	0.1097
435.1955	0.1222
435.3991	0.1161
435.6027	0.1159
435.8062	0.1046
436.0098	0.0963
436.2133	0.1032
436.4168	0.1082
436.6203	0.114
436.8238	0.1162
437.0272	0.0951
437.2307	0.0998
437.4341	0.0936
437.6375	0.1131
437.841	0.104
438.0443	0.0948
438.2477	0.0997
438.4511	0.0912
438.6545	0.0985
438.8578	0.1099
439.0611	0.0865
439.2644	0.0794
439.4677	0.0755
439.671	0.0743
439.8743	0.0898
440.0775	0.0916
440.2808	0.0816
440.484	0.0719
440.6872	0.0752
440.8904	0.077
441.0936	0.0878
441.2967	0.0795
441.4999	0.0741
441.703	0.0608
441.9062	0.0674
442.1093	0.0712
442.3124	0.0703
442.5155	0.0586
442.7185	0.0611
442.9216	0.0346
443.1246	0.0764
443.3276	0.0501
443.5307	0.056
443.7337	0.0525
443.9366	0.0743
444.1396	0.0481
444.3426	0.0412
444.5455	0.053
444.7484	0.0596
444.9513	0.0423
445.1542	0.0638
445.3571	0.0648
445.56	0.048
445.7628	0.0454
445.9657	0.0448
446.1685	0.0576
446.3713	0.0484
446.5741	0.0608
446.7769	0.0417
446.9797	0.0385
447.1824	0.0311
447.3852	0.0365
447.5879	0.0432
447.7906	0.0479
447.9933	0.0369
448.196	0.0339
448.3986	0.0278
448.6013	0.0312
448.8039	0.0275
449.0066	0.0287
449.2092	0.0423
449.4118	0.0348
449.6143	0.0285
449.8169	0.0329
450.0195	0.0311
450.222	0.0112
450.4245	0.022
450.627	0.0319
450.8295	0.0223
451.032	0.0232
451.2345	0.0303
451.4369	0.0284
451.6394	0.0302
451.8418	0.0108
452.0442	0.0109
452.2466	0.0395
452.449	-0.0076
452.6513	0.021
452.8537	0.0059
453.056	0.0126
453.2583	0.0227
453.4607	0.0109
453.663	0.0165
453.8652	0.0308
454.0675	0.0248
454.2697	0.0182
454.472	-0.0047
454.6742	0.0057
454.8764	0.0223
455.0786	0.021
455.2808	0.009
455.4829	0.0079
455.6851	0.0123
455.8872	0.013
456.0893	0.0324
456.2915	-0.0052
456.4935	0.0184
456.6956	0.0109
456.8977	0.0217
457.0997	0.029
457.3018	-0.001
457.5038	0.0061
457.7058	0.0115
457.9078	0.0097
458.1098	0.0104
458.3117	-0.001
458.5137	0.0131
458.7156	0.0139
458.9175	-0.0013
459.1194	-0.0008
459.3213	0.0128
459.5232	0.0057
459.725	-0.0091
459.9269	-0.0015
460.1287	-0.0002
460.3305	0.002
460.5323	-0.0024
460.7341	0.0026
460.9359	0.0033
461.1376	0.0177
461.3394	0.0116
461.5411	0.009
461.7428	-0
461.9445	0.01
462.1462	0.0251
462.3479	-0.0046
462.5495	0.0015
462.7512	0.0057
462.9528	-0.002
463.1544	-0.0157
463.356	-0
463.5576	0.007
463.7592	-0.0037
463.9607	0.0142
464.1623	0.0128
464.3638	0.0125
464.5653	-0.0116
464.7668	0.0042
464.9683	0.0054
465.1697	0.0223
465.3712	-0.0017
465.5726	-0.0132
465.7741	-0.0016
465.9755	0.0071
466.1769	-0.0036
466.3782	0.0011
466.5796	-0.0111
466.7809	0.0062
466.9823	-0.0045
467.1836	-0.0002
467.3849	-0.0141
467.5862	-0.0085
467.7875	-0.0108
467.9887	0.0189
468.19	-0.005
468.3912	-0.0163
468.5924	-0.0162
468.7936	-0.0067
468.9948	-0.0082
469.196	-0.002
469.3972	-0.0208
469.5983	0.0075
469.7994	-0.0103
470.0006	-0.0055
470.2017	-0.0187
470.4027	-0.0112
470.6038	-0.003
470.8049	-0.0242
471.0059	-0.0088
471.2069	-0.0226
471.408	0.0073
471.6089	-0.0007
471.8099	-0.0022
472.0109	-0.0163
472.2119	-0.0167
472.4128	-0.0131
472.6137	0.0096
472.8146	-0.0136
473.0155	-0.0002
473.2164	-0.0045
473.4173	-0.0049
473.6181	-0.0029
473.819	0.002
474.0198	-0.0097
474.2206	-0.0114
474.4214	-0.0141
474.6222	0.0058
474.8229	-0.0011
475.0237	-0.0149
475.2244	-0.0107
475.4251	0.0068
475.6258	-0.0142
475.8265	-0.0018
476.0272	0.0004
476.2278	-0.0024
476.4285	-0.0042
476.6291	-0.0233
476.8297	-0.0084
477.0303	-0.0119
477.2309	-0.0021
477.4315	-0.0205
477.632	0.0023
477.8326	-0.0134
478.0331	-0.0018
478.2336	-0.0084
478.4341	-0.0102
478.6346	-0.0035
478.8351	-0.0089
479.0355	0.001
479.236	-0.0055
479.4364	-0.0003
479.6368	-0.0174
479.8372	-0.0026
480.0376	-0.0061
480.2379	-0.0269
480.4383	-0.016
480.6386	0.0073
480.8389	-0.0031
481.0392	-0.0132
481.2395	-0.0172
481.4398	0.009
481.6401	-0.0053
481.8403	-0.0115
482.0405	-0.0177
482.2408	-0.0069
482.441	0.006
482.6411	-0.0181
482.8413	-0.0132
483.0415	-0.0135
483.2416	-0.0163
483.4417	-0.0075
483.6419	-0.0126
483.8419	-0.0105
484.042	-0.0031
484.2421	-0.004
484.4422	-0.0108
484.6422	-0.0091
484.8422	-0.0115
485.0422	-0.0239
485.2422	-0.006
485.4422	-0.019
485.6422	-0.0118
485.8421	-0.009
486.042	-0.0087
486.242	-0.0112
486.4419	-0.0252
486.6417	-0.0138
486.8416	-0.0098
487.0415	-0.0087
487.2413	-0.0112
487.4411	-0.0093
487.641	-0.0151
487.8408	-0.0129
488.0405	-0.0125
488.2403	-0.0189
488.4401	0.0015
488.6398	-0.0052
488.8395	-0.012
489.0392	-0.0077
489.2389	-0.0216
489.4386	-0.0098
489.6383	-0.0114
489.8379	-0.0096
490.0376	-0.003
490.2372	-0.0187
490.4368	-0.0166
490.6364	-0.0061
490.836	-0.0148
491.0355	-0.0129
491.2351	-0.0136
491.4346	-0.0019
491.6341	-0.021
491.8336	-0.0036
492.0331	-0.0127
492.2326	-0.0295
492.432	-0.0087
492.6315	-0.0242
492.8309	-0.0151
493.0303	-0.0199
493.2297	-0.0079
493.4291	-0.0034
493.6284	-0.0089
493.8278	-0.0086
494.0271	-0.003
494.2264	-0.0014
494.4257	-0.0252
494.625	-0.0052
494.8243	-0.0273
495.0236	-0.0266
495.2228	-0.0189
495.422	-0.0154
495.6213	-0.0088
495.8205	-0.004
496.0196	-0.014
496.2188	-0.0049
496.418	-0.0191
496.6171	-0.0094
496.8162	-0.0213
497.0153	-0.0081
497.2144	-0.0184
497.4135	-0.0103
497.6126	-0.0183
497.8116	-0.0165
498.0107	-0.0093
498.2097	-0.0178
498.4087	-0.0157
498.6077	-0.0115
498.8067	-0.0101
499.0056	-0.0019
499.2046	-0.0174
499.4035	-0.0205
499.6024	-0.0061
499.8013	0.0048
500.0002	-0.0161
500.199	-0.0088
500.3979	-0.0094
500.5967	-0.0185
500.7956	-0.004
500.9944	-0.0122
501.1932	-0.0195
501.3919	-0.02
501.5907	-0.0213
501.7895	-0.0085
501.9882	-0.0154
502.1869	-0.0181
502.3856	-0.0124
502.5843	-0.0203
502.783	-0.0115
502.9816	-0.0143
503.1803	-0.0234
503.3789	-0.0162
503.5775	-0.0142
503.7761	-0.0215
503.9747	-0.0061
504.1732	-0.0135
504.3718	-0.0075
504.5703	-0.0084
504.7689	-0.0141
504.9674	-0.0126
505.1658	-0.0135
505.3643	-0.0111
505.5628	-0.0138
505.7612	-0.0141
505.9597	-0.0029
506.1581	-0.0176
506.3565	-0.0037
506.5549	-0.0091
506.7532	-0.0228
506.9516	-0.0184
507.1499	-0.01
507.3482	-0.0282
507.5465	-0.0152
507.7448	-0.0055
507.9431	-0.012
508.1414	-0
508.3396	-0.0101
508.5379	-0.0093
508.7361	-0.0133
508.9343	-0.0088
509.1325	0.0027
509.3306	-0.0104
509.5288	-0.0136
509.7269	-0.0172
509.9251	-0.0132
510.1232	-0.0245
510.3213	-0.0099
510.5193	-0.0135
510.7174	-0.0155
510.9154	-0.0175
511.1135	-0.0135
511.3115	-0.0122
511.5095	-0.0098
511.7075	-0.0136
511.9055	-0.0152
512.1034	-0.0081
512.3014	-0.0087
512.4993	-0.013
512.6972	-0.0145
512.8951	-0.0197
513.093	-0.014
513.2908	-0.0027
513.4887	-0.0115
513.6865	-0.0147
513.8844	-0.0084
514.0822	-0.0147
514.2799	-0.0184
514.4777	-0.0145
514.6755	-0.0166
514.8732	-0.0176
515.0709	-0.0098
515.2687	-0.0182
515.4664	-0.0059
515.664	-0.0113
515.8617	-0.0171
516.0594	-0.0269
516.257	-0.0083
516.4546	-0.0229
516.6522	-0.0031
516.8498	-0.0023
517.0474	-0.0091
517.2449	0.005
517.4425	-0.0227
517.64	-0.0166
517.8375	-0.0039
518.035	-0.0112
518.2325	-0.0205
518.43	-0.0082
518.6274	-0.0095
518.8249	-0.0238
519.0223	-0.0095
519.2197	-0.0183
519.4171	-0.0193
519.6145	-0.0125
519.8118	-0.0067
520.0092	-0.0134
520.2065	-0.0161
520.4038	-0.0228
520.6011	-0.0104
520.7984	-0.0143
520.9956	-0.0146
521.1929	-0.0277
521.3901	-0.0089
521.5874	-0.0162
521.7846	-0.0082
521.9818	-0.0182
522.1789	-0.0114
522.3761	-0.0138
522.5732	-0.0113
522.7704	-0.0195
522.9675	-0.01
523.1646	-0.0234
523.3617	-0.0169
523.5587	-0.0091
523.7558	-0.0109
523.9528	-0.0181
524.1498	-0.0235
524.3468	-0.0184
524.5438	-0.0075
524.7408	-0.0184
524.9378	-0.0081
525.1347	-0.0165
525.3316	-0.0107
525.5285	-0.0218
525.7254	-0.0087
525.9223	-0.0027
526.1192	-0.0057
526.316	-0.0117
526.5129	-0.0055
526.7097	-0.0035
526.9065	-0.0125
527.1033	-0.0179
527.3	-0.0082
527.4968	-0.0013
527.6935	-0.0054
527.8903	-0.0194
528.087	-0.0062
528.2837	-0.008
528.4804	-0.0158
528.677	-0
528.8737	-0.0051
529.0703	-0.0091
529.2669	-0.0135
529.4635	-0.0071
529.6601	-0.0178
529.8567	-0.0117
530.0532	-0.0116
530.2498	0.0009
530.4463	-0.0062
530.6428	-0.0065
530.8393	0.0002
531.0358	-0.007
531.2322	-0.0065
531.4287	-0.016
531.6251	-0.0106
531.8215	-0.0077
532.0179	-0.0074
532.2143	-0.0071
532.4107	-0.0109
532.607	-0.0205
532.8034	-0.0106
532.9997	-0.0093
533.196	-0.0025
533.3923	-0.0208
533.5886	-0.0071
533.7848	-0.0057
533.9811	-0.0118
534.1773	-0.0115
534.3735	-0.0018
534.5697	-0.0122
534.7659	-0.0024
534.9621	0.0038
535.1582	-0.0127
535.3544	-0.003
535.5505	-0.0157
535.7466	-0.0181
535.9427	-0.0103
536.1387	-0.0122
536.3348	-0.015
536.5308	0.0025
536.7269	-0.0184
536.9229	-0.0043
537.1189	-0.0003
537.3148	-0.0079
537.5108	-0.0073
537.7068	-0.0044
537.9027	-0.0082
538.0986	-0.0064
538.2945	-0.0104
538.4904	-0.0122
538.6863	-0.0104
538.8821	-0.0121
539.078	-0.0038
539.2738	-0.0026
539.4696	-0.0119
539.6654	-0.0058
539.8611	-0.0013
540.0569	0.0002
540.2526	-0.014
540.4484	0.0024
540.6441	-0.0068
540.8398	-0.0098
541.0355	0.001
541.2311	-0.0067
541.4268	-0.0102
541.6224	0.001
541.818	-0.0047
542.0136	-0.0094
542.2092	-0.011
542.4048	-0.0056
542.6003	-0.001
542.7959	-0.013
542.9914	-0.0095
543.1869	0.0016
543.3824	-0.008
543.5779	-0.0095
543.7734	-0.008
543.9688	-0.0131
544.1642	-0.0033
544.3596	0.0014
544.555	-0.0064
544.7504	-0.003
544.9458	-0.0106
545.1411	-0.0025
545.3365	-0.0098
545.5318	-0.0034
545.7271	-0.0014
545.9224	-0.0074
546.1177	-0.0007
546.3129	0.0014
546.5081	-0.0082
546.7034	-0.0126
546.8986	-0.0123
547.0938	-0.0104
547.289	-0.0026
547.4841	-0.0127
547.6793	-0.0047
547.8744	-0.0127
548.0695	-0.0067
548.2646	-0.0123
548.4597	-0.0048
548.6548	-0.0009
548.8498	-0.0014
549.0448	0.0041
549.2399	-0.0147
549.4349	-0.0011
549.6298	-0.0077
549.8248	-0.0008
550.0198	-0.0043
550.2147	-0.0051
550.4096	-0.0109
550.6045	-0.003
550.7994	0.0037
550.9943	0.0007
551.1892	-0.0078
551.384	0.0086
551.5788	-0.0104
551.7737	0.0045
551.9685	-0.0022
552.1632	-0.0025
552.358	-0.0026
552.5528	-0.0008
552.7475	-0.0041
552.9422	-0.0029
553.1369	0.0083
553.3316	-0.0064
553.5263	-0.0148
553.7209	-0.0013
553.9156	-0.0083
554.1102	-0.0139
554.3048	-0.0098
554.4994	0.0049
554.694	-0.0081
554.8885	0.0019
555.0831	-0.0079
555.2776	-0.0043
555.4721	-0.0078
555.6666	-0.0055
555.8611	0.0005
556.0555	-0.0031
556.25	-0.002
556.4444	-0.0141
556.6388	0.0012
556.8332	-0.0081
557.0276	-0.0058
557.222	-0.0043
557.4163	-0.0013
557.6107	-0.0125
557.805	0.0043
557.9993	-0.0126
558.1936	0.0015
558.3879	-0.0006
558.5821	0.0012
558.7764	-0.0023
558.9706	-0.0011
559.1648	0.0081
559.359	0.0022
559.5532	-0.0068
559.7473	-0.0041
559.9415	-0.0011
560.1356	-0.0101
560.3297	-0.0167
560.5238	-0.014
560.7179	-0.0043
560.9119	-0.0124
561.106	-0.0006
561.3	-0.008
561.494	-0.0026
561.688	-0.0136
561.882	-0.0147
562.076	0.0033
562.2699	-0.0042
562.4639	-0.0029
562.6578	-0.0062
562.8517	-0.0121
563.0456	-0.0011
563.2395	0.0011
563.4333	-0.0005
563.6272	0.0022
563.821	-0.002
564.0148	-0.002
564.2086	-0.0124
564.4024	-0.0027
564.5961	-0.0126
564.7899	-0.0012
564.9836	-0.0057
565.1773	-0.0043
565.371	0.0029
565.5647	-0.007
565.7584	0.0011
565.952	-0.0093
566.1456	0.0015
566.3393	-0.0075
566.5329	-0.0032
566.7264	-0.0065
566.92	-0.0056
567.1136	0.0064
567.3071	-0.008
567.5006	-0.004
567.6941	-0.0008
567.8876	-0.0005
568.0811	-0.0095
568.2745	-0.0087
568.468	0.0037
568.6614	0.0005
568.8548	-0.0012
569.0482	-0.0063
569.2416	-0.0041
569.4349	-0.001
569.6283	0.0073
569.8216	-0.0063
570.0149	-0.0188
570.2082	0.0046
570.4015	-0.0022
570.5947	0.0017
570.788	0.0019
570.9812	0.0061
571.1744	-0.0063
571.3676	-0.0056
571.5608	-0.0006
571.754	-0.0029
571.9471	0.001
572.1402	0.0022
572.3333	-0.0018
572.5264	-0.0003
572.7195	-0.0009
572.9126	-0.0019
573.1057	0.0002
573.2987	-0.0051
573.4917	-0.0013
573.6847	-0.0059
573.8777	0.0074
574.0707	0.006
574.2636	-0.0051
574.4566	0.0006
574.6495	0.0071
574.8424	-0.0025
575.0353	-0.0011
575.2281	0.0037
575.421	0.001
575.6138	-0.0039
575.8067	-0.0013
575.9995	-0.0024
576.1923	-0.0028
576.385	-0.0017
576.5778	0.0004
576.7706	-0.004
576.9633	0.0006
577.156	0.003
577.3487	-0.0027
577.5414	0.0005
577.734	-0.0046
577.9267	0.0006
578.1193	-0.0129
578.3119	-0.005
578.5045	-0.0048
578.6971	-0.0016
578.8897	0.0004
579.0822	-0.0065
579.2747	0.0019
579.4673	-0.0059
579.6598	-0.005
579.8522	-0.0007
580.0447	-0.005
580.2372	-0.0027
580.4296	0.0004
580.622	-0.0014
580.8144	-0.0021
581.0068	-0.0001
581.1992	-0.0071
581.3915	-0.0072
581.5839	-0.0092
581.7762	-0.0072
581.9685	-0.001
582.1608	0.0042
582.353	-0.0003
582.5453	-0.0009
582.7375	0.0015
582.9298	-0.0009
583.122	-0.0019
583.3142	0.0042
583.5063	-0.0041
583.6985	0.0003
583.8906	0.0004
584.0827	-0.0084
584.2749	0.0012
584.4669	-0.0033
584.659	-0.0013
584.8511	-0.002
585.0431	-0.0085
585.2352	0.0046
585.4272	-0.0059
585.6192	0.0044
585.8111	0.0008
586.0031	0.0012
586.195	0.0002
586.387	0.0097
586.5789	-0.0025
586.7708	-0.0013
586.9627	-0.0029
587.1545	-0.004
587.3464	-0.0026
587.5382	-0.0002
587.73	0.0017
587.9218	0.0051
588.1136	-0.0038
588.3053	0.0026
588.4971	-0.0055
588.6888	-0.0073
588.8805	0.0018
589.0722	0.0039
589.2639	0.0019
589.4556	-0.0015
589.6472	-0.0065
589.8389	-0.0071
590.0305	-0.0019
590.2221	0.0052
590.4137	-0.0094
590.6052	0.005
590.7968	0.0032
590.9883	0.0061
591.1798	-0.0025
591.3713	0.0002
591.5628	-0.004
591.7543	0.0027
591.9458	-0.0005
592.1372	0.0025
592.3286	0.0036
592.52	0.0012
592.7114	-0.0022
592.9028	-0.0018
593.0941	0.0028
593.2855	0.0058
593.4768	-0.0078
593.6681	-0.0043
593.8594	-0.0053
594.0506	0.0022
594.2419	0.0077
594.4331	0.0028
594.6244	0.0079
594.8156	-0.016
595.0067	0.0005
595.1979	-0.0011
595.3891	0.0004
595.5802	-0.0069
595.7713	-0.006
595.9624	-0.0037
596.1535	0.0012
596.3446	-0.0013
596.5357	0.0045
596.7267	0.0016
596.9177	0.0013
597.1087	-0.0117
597.2997	-0.0016
597.4907	0.0004
597.6817	-0.0054
597.8726	0.0015
598.0635	-0.0012
598.2544	0.0029
598.4453	-0.0067
598.6362	-0.0045
598.827	-0.0051
599.0179	0.0047
599.2087	0.0052
599.3995	-0.0018
599.5903	-0.0002
599.7811	0.0041
599.9718	0.0008
600.1626	-0.0075
600.3533	-0.0099
600.544	0.0016
600.7347	-0.0031
600.9254	-0.0011
601.116	-0.0089
601.3067	-0.0068
601.4973	-0.0039
601.6879	0.0028
601.8785	-0.0026
602.0691	0.0012
602.2596	-0.0018
602.4502	0.0058
602.6407	0.0042
602.8312	0.0002
603.0217	-0.0072
603.2122	0.0018
603.4027	0.002
603.5931	-0.0029
603.7835	-0.0032
603.9739	0.0014
604.1643	-0.0071
604.3547	-0.0049
604.5451	0.0016
604.7354	-0.0018
604.9257	-0.0016
605.116	-0.0044
605.3063	-0.0033
605.4966	-0.0018
605.6869	-0.0013
605.8771	0.0015
606.0673	-0.0029
606.2575	0.0028
606.4477	0.0063
606.6379	0.0047
606.8281	0.002
607.0182	-0.0111
607.2083	0.0105
607.3985	-0.0036
607.5885	0.0004
607.7786	-0.0029
607.9687	-0.0024
608.1587	0.0026
608.3488	0.0021
608.5388	0.0044
608.7288	-0.0014
608.9187	-0.0052
609.1087	-0.0058
609.2986	-0.0089
609.4886	0.0001
609.6785	-0.006
609.8684	-0.0013
610.0582	-0.0032
610.2481	-0.0043
610.4379	-0.0003
610.6278	-0.0017
610.8176	-0.001
611.0074	-0.0083
611.1971	-0.0023
611.3869	0.0043
611.5766	-0.0036
611.7664	0.0031
611.9561	0.0031
612.1458	-0.0009
612.3354	-0.0085
612.5251	-0.0033
612.7147	0.0077
612.9044	0.0005
613.094	-0.0046
613.2836	0.0022
613.4731	-0.0079
613.6627	-0.0069
613.8522	0.0005
614.0417	-0.0011
614.2313	-0.0046
614.4207	-0.0032
614.6102	-0.0021
614.7997	0.0015
614.9891	-0.0056
615.1785	0.0007
615.3679	-0.0062
615.5573	0.0102
615.7467	-0.0008
615.9361	-0.0002
616.1254	-0.0022
616.3147	0.0058
616.504	-0.0029
616.6933	0.0007
616.8826	0.0057
617.0718	0.0036
617.2611	-0.0054
617.4503	-0.0007
617.6395	-0.0058
617.8287	-0.0052
618.0179	0.003
618.207	0.0047
618.3961	-0.0001
618.5853	-0.0012
618.7744	0.0029
618.9634	0.0069
619.1525	0.0028
619.3416	-0.0031
619.5306	0.0005
619.7196	-0.0012
619.9086	0.0006
620.0976	-0.0019
620.2866	-0.0022
620.4755	0.0016
620.6645	0.0045
620.8534	0.0044
621.0423	0.0116
621.2312	0.0096
621.42	0.0004
621.6089	-0.0021
621.7977	0.0065
621.9865	-0.0013
622.1753	0.0059
622.3641	-0.0023
622.5529	0.0053
622.7416	0.0045
622.9303	-0.0027
623.1191	0.0023
623.3078	-0.0071
623.4964	-0.0005
623.6851	-0.0027
623.8737	-0.0063
624.0624	0.0043
624.251	-0.0066
624.4396	-0.0028
624.6282	-0.0053
624.8167	-0.0003
625.0053	0.0031
625.1938	-0.0024
625.3823	0.0054
625.5708	0.0005
625.7593	-0.0052
625.9477	-0.0049
626.1362	-0.0095
626.3246	0.008
626.513	0.0017
626.7014	0.0095
626.8898	0.0006
627.0781	-0.0013
627.2665	-0.0081
627.4548	0.0063
627.6431	0.0006
627.8314	-0.0052
628.0197	0.0013
628.2079	-0.011
628.3962	-0.0006
628.5844	-0.0018
628.7726	0.002
628.9608	0.007
629.1489	0.0029
629.3371	0.0039
629.5252	0.0037
629.7134	0.0119
629.9015	0.0057
630.0895	0.0071
630.2776	0.004
630.4657	-0.0018
630.6537	-0.0082
630.8417	-0.0031
631.0297	0.0005
631.2177	0.0007
631.4057	-0.0033
631.5936	0.001
631.7815	-0.0047
631.9695	-0.0076
632.1574	0.0057
632.3452	0.0084
632.5331	0.006
632.7209	0.0016
632.9088	0.0123
633.0966	0.0011
633.2844	-0.0041
633.4722	-0.0018
633.6599	0.0009
633.8477	0.0004
634.0354	-0.004
634.2231	0.0067
634.4108	-0.0018
634.5985	0.0091
634.7861	0.0044
634.9738	0.0026
635.1614	-0.0038
635.349	0.0034
635.5366	0.0004
635.7242	0.0021
635.9117	0.0051
636.0993	-0.0033
636.2868	-0.003
636.4743	-0.0022
636.6618	0.0118
636.8492	0.0016
637.0367	0.0003
637.2241	-0.0034
637.4115	0.0017
637.5989	-0.0123
637.7863	0.0025
637.9737	-0.0035
638.161	-0.0013
638.3484	-0.0015
638.5357	0.0084
638.723	0.0034
638.9103	-0.0006
639.0975	0.0099
639.2848	0.0064
639.472	0.0008
639.6592	0.0024
639.8464	0.0061
640.0336	0.008
640.2208	0.0009
640.4079	-0.0016
640.595	0.0084
640.7821	0.0054
640.9692	0.0018
641.1563	0.0065
641.3434	0.0044
641.5304	0.0023
641.7174	0.0048
641.9044	0.0094
642.0914	-0.0001
642.2784	0.0109
642.4653	0.0118
642.6523	0.0076
642.8392	-0.0021
643.0261	0.0087
643.213	0.006
643.3999	-0.006
643.5867	0.0031
643.7735	0.0046
643.9604	-0.0028
644.1472	0.0021
644.3339	0.003
644.5207	0.0032
644.7075	-0.0028
644.8942	0.0049
645.0809	0.0065
645.2676	0.005
645.4543	-0.0048
645.6409	0.0078
645.8276	0.0099
646.0142	0.0014
646.2008	-0.0027
646.3874	-0.0014
646.574	-0.0004
646.7605	0.0011
646.9471	-0.0041
647.1336	0.0003
647.3201	0.0018
647.5066	0.0018
647.6931	0.0025
647.8795	0.0021
648.0659	0.0037
648.2524	0.0004
648.4388	0.0001
648.6252	0.0001
648.8115	0.0033
648.9979	0.0084
649.1842	-0.0003
649.3705	0.0016
649.5568	0.0013
649.7431	0.0056
649.9294	-0.0004
650.1156	0.0026
650.3018	-0.0018
650.488	-0.001
650.6742	0.0078
650.8604	0.0028
651.0466	-0.001
651.2327	-0.0064
651.4188	0.0015
651.6049	-0.0019
651.791	-0.0031
651.9771	0.0116
652.1632	-0.0008
652.3492	0.0005
652.5352	0.0041
652.7212	-0.0064
652.9072	0.0014
653.0932	-0.001
653.2791	-0.0051
653.465	-0.0018
653.651	-0.003
653.8369	-0.0023
654.0227	0.0048
654.2086	0.0084
654.3944	0.0094
654.5803	0.001
654.7661	-0.0043
654.9519	-0.0011
655.1377	-0.0035
655.3234	0.0001
655.5092	-0.0038
655.6949	-0.009
655.8806	-0.0042
656.0663	-0.003
656.2519	0.0003
656.4376	-0.0003
656.6232	0.0022
656.8088	0.0074
656.9945	-0.0025
657.18	0.0051
657.3656	0.001
657.5511	-0.0059
657.7367	0.0025
657.9222	0.0067
658.1077	-0.0026
658.2932	0.003
658.4786	-0.013
658.6641	-0.0028
658.8495	-0.0009
659.0349	0.0019
659.2203	0.0086
659.4057	0.0038
659.591	0
659.7764	-0.0012
659.9617	0.0018
660.147	0.0001
660.3323	0.0063
660.5176	0.0121
660.7028	-0.0015
660.888	0.0025
661.0733	0.0047
661.2585	-0.0052
661.4436	0.0048
661.6288	-0.0031
661.8139	-0.0011
661.9991	0.0065
662.1842	0.0033
662.3693	0.0034
662.5544	-0.0045
662.7394	0.0104
662.9245	-0.0038
663.1095	0.0034
663.2945	0.0034
663.4795	-0.0047
663.6644	0.0101
663.8494	-0.0019
664.0343	0.0077
664.2193	-0.0116
664.4042	0.0015
664.589	-0.0075
664.7739	-0.0002
664.9587	-0.0072
665.1436	-0.0013
665.3284	-0.0008
665.5132	-0.0088
665.698	-0.0022
665.8827	0.0061
666.0675	-0.0062
666.2522	-0.0048
666.4369	0.0027
666.6216	0.0074
666.8063	-0.0026
666.9909	0.0021
667.1756	0.0007
667.3602	0.0062
667.5448	0.0036
667.7294	0.0102
667.9139	-0.0003
668.0985	0.0087
668.283	-0.0027
668.4675	0.0015
668.652	-0.003
668.8365	-0.0013
669.0209	0.0019
669.2054	0.0079
669.3898	-0.0038
669.5742	0.0025
669.7586	0.0032
669.943	0.0055
670.1273	0.002
670.3117	0.001
670.496	0.0068
670.6803	0.0122
670.8646	0.0092
671.0488	-0.0002
671.2331	0.0074
671.4173	-0.0004
671.6015	0.0001
671.7857	0.0021
671.9699	0.0066
672.1541	0.0031
672.3382	0.005
672.5223	0.0039
672.7064	0.0052
672.8905	0.0071
673.0746	-0.0051
673.2587	-0.0031
673.4427	0.0064
673.6267	0.0024
673.8107	0.0006
673.9947	0.0041
674.1787	0.0069
674.3626	-0.0094
674.5465	0.0104
674.7304	0.0043
674.9143	0.0058
675.0982	0.0126
675.2821	-0.007
675.4659	0.0064
675.6497	0.0033
675.8335	0.002
676.0173	-0.0031
676.2011	0.0014
676.3849	-0.0037
676.5686	-0.0036
676.7523	0.0023
676.936	-0.0037
677.1197	-0.0106
677.3034	-0.0032
677.487	0.0021
677.6706	0.0007
677.8542	0.0012
678.0378	-0.0005
678.2214	-0.0043
678.405	0.0054
678.5885	-0.009
678.772	0.0078
678.9555	-0.0068
679.139	0.0018
679.3225	0.0049
679.5059	-0.0023
679.6894	0.007
679.8728	0.0025
680.0562	-0.0043
680.2395	-0.0026
680.4229	-0.0005
680.6062	0.0051
680.7896	0.0075
680.9729	-0.0048
681.1562	0.0021
681.3394	0.0009
681.5227	-0.004
681.7059	-0.0015
681.8891	-0.0039
682.0723	0.0094
682.2555	0.007
682.4387	0.0034
682.6218	0.0023
682.805	0.0043
682.9881	0.0081
683.1712	0.0021
683.3542	-0.0003
683.5373	0.0013
683.7203	-0.0095
683.9034	-0.004
684.0864	-0.0015
684.2694	0.002
684.4523	0.0065
684.6353	-0.0068
684.8182	0.001
685.0011	-0.0051
685.184	0.0076
685.3669	0.0023
685.5498	0.0007
685.7326	0.0061
685.9154	-0.0079
686.0982	0.0036
686.281	0.0023
686.4638	0.0032
686.6465	-0.003
686.8293	-0.0023
687.012	0.0001
687.1947	-0.0056
687.3774	0.0059
687.56	0.0029
687.7427	0.0022
687.9253	-0.0017
688.1079	-0.0054
688.2905	0.0104
688.4731	0.0004
688.6556	-0.0045
688.8382	-0.0041
689.0207	-0.0023
689.2032	-0.0126
689.3857	-0.0071
689.5681	-0.0028
689.7506	-0.013
689.933	-0.0093
690.1154	-0.0055
690.2978	-0.0041
690.4802	-0.0011
690.6626	-0.0117
690.8449	-0.007
691.0272	0.0069
691.2095	-0.0066
691.3918	-0.0071
691.5741	0.0004
691.7563	-0.0061
691.9386	-0.0012
692.1208	-0.0037
692.303	-0.0003
692.4852	-0.0039
692.6673	0.009
692.8495	0.002
693.0316	-0.0005
693.2137	0.0023
693.3958	-0.0073
693.5778	-0.0024
693.7599	0.0034
693.9419	0.001
694.1239	-0.0006
694.3059	-0.0063
694.4879	0.0062
694.6699	0.0071
694.8518	0.0074
695.0337	-0.0013
695.2157	0.0046
695.3975	-0.003
695.5794	0.0037
695.7613	0.003
695.9431	-0.002
696.1249	0.0089
696.3067	0.0022
696.4885	0.0073
696.6703	-0.0082
696.852	-0.0011
697.0337	0.0103
697.2154	-0.0026
697.3971	-0.0028
697.5788	0.0036
697.7605	-0.0008
697.9421	0.0061
698.1237	-0.0025
698.3053	0.0031
698.4869	-0.0015
698.6685	-0.0055
698.85	-0.009
699.0315	0.0056
699.213	0.002
699.3945	0.0011
699.576	0.0064
699.7575	0.0063
699.9389	0.0055
700.1203	-0.0061
700.3017	-0.0079
700.4831	-0.0122
700.6645	0.0011
700.8458	0.0015
701.0271	-0.0048
701.2084	0.0073
701.3897	0.0018
701.571	0.0095
701.7523	-0.0025
701.9335	-0.0028
702.1147	-0.002
702.2959	0.002
702.4771	-0.0036
702.6583	-0.0019
702.8394	-0.0052
703.0205	-0.0033
703.2016	-0.0045
703.3827	0.0022
703.5638	0.0104
703.7449	0.0019
703.9259	0.0077
704.1069	-0.0029
704.2879	-0.0038
704.4689	-0.0003
704.6499	0.0019
704.8308	-0.0056
705.0117	-0.0005
705.1927	-0.0009
705.3735	-0.0032
705.5544	-0.0015
705.7353	0.0022
705.9161	-0.0081
706.0969	-0.0063
706.2777	-0.0069
706.4585	-0.0024
706.6393	0.0026
706.82	-0.0148
707.0007	0.0001
707.1815	0.0059
707.3621	0.0094
707.5428	0.0004
707.7235	-0.0009
707.9041	0.0025
708.0847	-0.0089
708.2653	-0.0041
708.4459	-0.0121
708.6265	-0.0068
708.807	0.0027
708.9875	-0.0026
709.168	-0.0018
709.3485	-0.005
709.529	-0.0055
709.7095	-0.0121
709.8899	-0.0041
710.0703	-0.0134
710.2507	-0.0001
710.4311	0.0008
710.6115	-0.0049
710.7918	0.0001
710.9721	-0.0026
711.1524	-0.0047
711.3327	-0.0007
711.513	-0.0036
711.6932	0.0028
711.8735	0.0025
712.0537	0.0031
712.2339	-0.004
712.4141	-0.0083
712.5942	-0.0048
712.7744	0.0034
712.9545	-0.0038
713.1346	0.0008
713.3147	-0.0024
713.4947	-0.0033
713.6748	-0.003
713.8548	-0.0074
714.0348	-0.0053
714.2148	-0.0066
714.3948	0.0003
714.5748	-0.0019
714.7547	-0.0023
714.9346	0.0046
715.1145	-0.006
715.2944	-0.0065
715.4743	-0.0025
715.6541	-0.0051
715.834	0.0004
716.0138	-0.0073
716.1936	-0.0115
716.3733	-0.01
716.5531	0.0007
716.7328	-0.0038
716.9126	-0.0003
717.0923	0.0071
717.2719	0.0013
717.4516	0.0044
717.6312	0.0026
717.8109	-0.0058
717.9905	-0.0038
718.1701	-0.0079
718.3496	-0.0048
718.5292	-0.0032
718.7087	-0.0035
718.8882	-0.0037
719.0677	0.008
719.2472	-0.0009
719.4267	-0.0018
719.6061	0.0014
719.7856	0.0025
719.965	0.0079
720.1443	0.0003
720.3237	0.0149
720.5031	0.0003
720.6824	0.0055
720.8617	0.002
721.041	0.0001
721.2203	0.0018
721.3995	0.0071
721.5788	-0.0005
721.758	0.0032
721.9372	-0.0023
722.1164	-0.0013
722.2956	0.0045
722.4747	0.0024
722.6538	0.0008
722.8329	0.0062
723.012	-0.0005
723.1911	-0.0035
723.3702	-0.0011
723.5492	0.0044
723.7282	-0.0033
723.9072	0.0039
724.0862	-0.0007
724.2652	0.0001
724.4441	-0.0028
724.623	-0.0005
724.8019	-0.0085
724.9808	0.0019
725.1597	-0.0091
725.3385	0.0016
725.5174	0.0098
725.6962	-0.0041
725.875	0.0003
726.0538	0.0025
726.2325	0.0025
726.4112	-0.0011
726.59	-0.0092
726.7687	-0.0088
726.9474	-0.0042
727.126	0.0024
727.3047	-0.007
727.4833	0.0015
727.6619	-0.0072
727.8405	-0.0053
728.0191	-0.0059
728.1976	-0.0012
728.3762	-0.0085
728.5547	0.0008
728.7332	-0.0039
728.9116	0.0023
729.0901	-0
729.2686	-0.0064
729.447	-0.0096
729.6254	-0.0012
729.8038	0.0033
729.9821	-0.0078
730.1605	-0.0035
730.3388	-0.0012
730.5171	-0.0012
730.6954	-0.0041
730.8737	-0.0038
731.0519	0.0121
731.2302	-0.0012
731.4084	0.0064
731.5866	-0.007
731.7648	-0.0102
731.9429	-0.0017
732.1211	-0.0155
732.2992	-0.0098
732.4773	-0.0115
732.6554	-0.0073
732.8335	-0.011
733.0115	-0.0052
733.1896	0.0033
733.3676	-0.0041
733.5456	0.0021
733.7235	0.0039
733.9015	-0.0053
734.0794	-0.002
734.2574	-0.0049
734.4353	0.0001
734.6131	0.0073
734.791	0.0082
734.9689	-0.0033
735.1467	0.0007
735.3245	-0.0053
735.5023	-0.0065
735.68	0.0021
735.8578	0.0039
736.0355	-0.0165
736.2132	-0.0088
736.3909	-0.007
736.5686	-0.0082
736.7463	0.0015
736.9239	-0.0045
737.1015	-0.0027
737.2791	0.003
737.4567	-0.0061
737.6343	-0.0034
737.8118	0.0006
737.9894	0.0107
738.1669	-0.0102
738.3444	-0.0019
738.5218	0.009
738.6993	0.0053
738.8767	-0.0061
739.0541	0.0129
739.2315	-0.0084
739.4089	-0.0042
739.5863	0.006
739.7636	-0.0015
739.9409	0.0025
740.1182	0.0001
740.2955	0.003
740.4728	-0.0013
740.65	-0.0036
740.8272	-0.001
741.0044	-0.0107
741.1816	0.0036
741.3588	-0.0085
741.5359	0.0023
741.7131	-0.0048
741.8902	-0.0018
742.0673	-0.0017
742.2444	-0.0167
742.4214	-0.0089
742.5985	-0.0132
742.7755	-0.0143
742.9525	-0.0163
743.1295	-0.0035
743.3064	-0.0136
743.4834	0.0039
743.6603	-0.0075
743.8372	-0.0101
744.0141	-0.0012
744.191	-0.0067
744.3678	-0
744.5446	-0.0048
744.7215	0.0062
744.8982	-0.0125
745.075	-0.0122
745.2518	-0.0097
745.4285	-0.0047
745.6052	-0.0091
745.7819	-0.006
745.9586	-0.0126
746.1353	0.0048
746.3119	-0.0131
746.4885	-0.0056
746.6651	-0.0038
746.8417	0.0009
747.0183	0.002
747.1948	0.0005
747.3714	-0.0005
747.5479	0.0042
747.7244	-0.0131
747.9008	0.0013
748.0773	-0.01
748.2537	-0.0021
748.4301	-0.015
748.6065	0.0022
748.7829	-0.0002
748.9593	-0.0041
749.1356	0.0032
749.3119	0.0034
749.4882	-0.0091
749.6645	0.0036
749.8408	-0.0065
750.017	-0.0057
750.1933	0.0021
750.3695	-0.0116
750.5457	0.0035
750.7218	0.006
750.898	0.0033
751.0741	-0.0055
751.2502	-0.0039
751.4263	-0.0032
751.6024	-0.0056
751.7784	0.0028
751.9545	-0.0018
752.1305	-0.0041
752.3065	-0.0119
752.4825	0.0023
752.6584	-0.0088
752.8344	-0.0094
753.0103	-0.0223
753.1862	-0.0146
753.3621	-0.0077
753.5379	0.0007
753.7138	-0.0024
753.8896	0.0044
754.0654	0.0067
754.2412	0.0082
754.417	0.0179
754.5927	0.0018
754.7685	0.0012
754.9442	0.004
755.1199	0.0142
755.2956	0.0025
755.4712	0.0115
755.6469	0.0073
755.8225	-0.0043
755.9981	-0.0007
756.1736	0.0025
756.3492	-0.0029
756.5248	0.0009
756.7003	0.0103
756.8758	-0.0034
757.0513	-0.0101
757.2267	-0.0089
757.4022	0.0083
757.5776	-0.0078
757.753	0.0046
757.9284	-0.0006
758.1038	-0.0011
758.2791	-0.0083
758.4545	-0.0118
758.6298	-0.0112
758.8051	-0.0041
758.9803	-0.0017
759.1556	0.0049
759.3308	-0.0065
759.506	0.0023
759.6812	0.0063
759.8564	0.0094
760.0316	-0.0056
760.2067	0.0079
760.3819	0.0042
760.557	0.0066
760.732	0.0053
760.9071	-0.0053
761.0821	0.0066
761.2572	0.0196
761.4322	-0.0002
761.6072	0.0132
761.7821	-0.005
761.9571	0.0061
762.132	0.0036
762.3069	0.0017
762.4818	-0.0002
762.6567	0.0079
762.8316	-0.0039
763.0064	-0.0045
763.1812	0.007
763.356	-0.0121
763.5308	0.0139
763.7055	0.0037
763.8803	-0.005
764.055	0.0073
764.2297	0.0037
764.4044	-0.0023
764.579	-0.0084
764.7537	-0.0125
764.9283	0.0037
765.1029	-0.0045
765.2775	-0.017
765.4521	-0.0064
765.6266	-0.0038
765.8011	-0.002
765.9756	-0.0015
766.1501	0.0002
766.3246	-0.0062
766.4991	0.0021
766.6735	0.0015
766.8479	-0.0154
767.0223	0.0139
767.1967	0.0074
767.371	-0.003
767.5454	-0.0062
767.7197	-0.0037
767.894	-0.0033
768.0683	-0.0132
768.2425	-0.0001
768.4168	0.0001
768.591	0.0059
768.7652	-0.0064
768.9394	0.0042
769.1135	-0.0052
769.2877	0.0114
769.4618	0.0022
769.6359	0.0011
769.81	0.0058
769.984	0.0029
770.1581	-0.0058
770.3321	0.0043
770.5061	0.0104
770.6801	-0.0013
770.8541	-0.0028
771.028	0.0147
771.202	-0.0085
771.3759	0.0158
771.5498	0.0004
771.7236	0.0019
771.8975	0.0007
772.0713	0.0031
772.2451	0.0072
772.4189	0.0102
772.5927	0.0097
772.7665	0.0076
772.9402	0.0045
773.1139	0.0059
773.2876	0.0046
773.4613	0.0118
773.635	0.0099
773.8086	0.0016
773.9822	0.0106
774.1558	0.0029
774.3294	-0.0139
774.503	-0.0017
774.6765	0.0047
774.8501	0.0073
775.0236	0.0093
775.1971	0.0068
775.3705	-0.0098
775.544	0.0084
775.7174	-0.0059
775.8908	-0.0111
776.0642	-0.0084
776.2376	0.0066
776.4109	-0.0104
776.5843	0.0043
776.7576	0.0035
776.9309	0.006
777.1041	0.0109
777.2774	0.0134
777.4506	-0.0004
777.6238	0.0005
777.797	0.0045
777.9702	-0.0024
778.1434	0.0056
778.3165	-0.0137
778.4896	0.0001
778.6627	0.0181
778.8358	-0.0016
779.0089	0.0018
779.1819	-0.0074
779.3549	0.0147
779.5279	0.003
779.7009	-0.0055
779.8739	-0.0023
780.0468	0.0054
780.2197	0.0047
780.3926	0.0027
780.5655	-0.006
780.7384	0.0061
780.9112	-0.003
781.0841	-0.0117
781.2569	0.0031
781.4297	0.0053
781.6024	0.0068
781.7752	0.0042
781.9479	-0.004
782.1206	0.0037
782.2933	-0.0172
782.466	0.0029
782.6386	0.0054
782.8113	-0.0031
782.9839	0.0015
783.1565	0.0116
783.329	-0
783.5016	0.0053
783.6741	0.0047
783.8466	-0.0126
784.0191	0.0049
784.1916	0.0015
784.3641	0.0174
784.5365	0.0067
784.7089	-0.0073
784.8813	-0.0038
785.0537	0.002
785.2261	0.0001
785.3984	-0.0117
785.5707	-0.0083
785.743	0.0017
785.9153	-0.0034
786.0876	-0.003
786.2598	-0.0131
786.432	0.0007
786.6042	0.0079
786.7764	-0.0073
786.9486	0.0138
787.1207	-0.0151
787.2928	0.0044
787.4649	0.0003
787.637	-0.0007
787.8091	-0.011
787.9811	0.004
788.1532	-0.001
788.3252	0.0087
788.4972	-0.0104
788.6691	0.0106
788.8411	0.0051
789.013	-0.022
789.1849	-0.0012
789.3568	-0.01
789.5287	-0.0066
789.7005	-0.0083
789.8723	0.0083
790.0442	0.0096
790.2159	-0.0029
790.3877	-0.0029
790.5595	-0.0177
790.7312	0.0099
790.9029	0.0051
791.0746	-0.01
791.2463	-0.005
791.4179	-0.005
791.5896	-0.0045
791.7612	0.0075
791.9328	0.0161
792.1044	-0.0164
792.2759	-0.0086
792.4474	-0.0143
792.619	-0.0121
792.7905	0.0018
792.9619	-0.0082
793.1334	0.0169
793.3048	0.0143
793.4762	0.0164
793.6476	-0.0014
793.819	-0.0179
793.9904	0.0041
794.1617	-0.0032
794.333	0.0047
794.5043	-0.0167
794.6756	-0.0023
794.8469	0.0011
795.0181	-0.015
795.1893	0.005
795.3605	-0.0045
795.5317	0.0044
795.7029	-0.01
795.874	-0.0002
796.0452	0.0038
796.2163	0.0061
796.3873	0.0059
796.5584	0.0003
796.7294	-0.003
796.9005	0.0098
797.0715	0.0149
797.2425	-0.0008
797.4134	0.0029
797.5844	0.0016
797.7553	-0.0222
797.9262	-0.002
798.0971	-0.0013
798.2679	-0.0135
798.4388	-0.0227
798.6096	0.0005
798.7804	-0.001
798.9512	-0.0122
799.122	-0.0129
799.2927	-0.0036
799.4635	0.0109
799.6342	-0.0226
799.8049	-0.0187
799.9755	0.0059
800.1462	-0.0029
800.3168	0.0019
800.4874	-0.0016
800.658	0.0164
800.8286	-0.0024
800.9991	0.0095
801.1696	0.0114
801.3402	0.0138
801.5106	0.0076
801.6811	0.0074
801.8516	0.0094
802.022	-0.011
802.1924	0.0006
802.3628	0.0032
802.5332	0.007
802.7035	0.028
802.8739	0.0008
803.0442	-0.0099
803.2145	-0.0023
803.3847	-0.0192
803.555	-0.0112
803.7252	-0.0051
803.8954	-0.0275
804.0656	-0.0084
804.2358	-0.0129
804.4059	0.0195
804.5761	-0.006
804.7462	-0.0024
804.9163	-0.0196
805.0864	-0.0118
805.2564	-0.0094
805.4264	-0.0094
805.5965	-0.0161
805.7665	-0.0024
805.9364	-0.0058
806.1064	0.0311
806.2763	0.0004
806.4462	0.0143
806.6161	0.0065
806.786	0.0013
806.9559	-0.0114
807.1257	-0.0156
807.2955	0.0205
807.4653	0.0032
807.6351	-0.0113
807.8048	-0.0114
807.9746	0.0045
808.1443	0.002
808.314	-0
808.4837	-0.0133
808.6533	-0.0017
808.8229	0.0011
808.9926	0.0022
809.1622	-0.0079
809.3317	-0.036
809.5013	-0.026
809.6708	-0.0099
809.8403	0.0062
810.0098	0.0012
810.1793	-0.0038
810.3488	-0.0168
810.5182	-0.014
810.6876	-0.0105
810.857	-0.0095
811.0264	0.0007
811.1958	-0.0018
811.3651	0.0079
811.5344	0.009
811.7037	0.0071
811.873	-0.0306
812.0422	-0.0102
812.2115	-0.0159
812.3807	-0.0141
812.5499	0.0184
812.7191	0.0097
812.8882	-0.0107
813.0574	-0.0031
813.2265	-0
813.3956	-0.0022
813.5646	-0.016
813.7337	-0.0143
813.9027	0.012
814.0718	0.017
814.2407	0.0117
814.4097	-0.0346
814.5787	-0.0189
814.7476	-0.012
814.9165	-0.0036
815.0854	-0.0071
815.2543	-0.02
815.4232	-0.0078
815.592	0.0002
815.7608	0.0092
815.9296	0.0044
816.0984	0.0091
816.2671	-0.0042
816.4359	-0.009
816.6046	-0.0297
816.7733	-0.015
816.942	-0.0437
817.1106	0.0072
817.2793	-0.0244
817.4479	-0.0285
817.6165	0.0143
817.785	-0.024
817.9536	-0.0356
818.1221	-0.0272
818.2906	-0.0055
818.4591	-0.0267
818.6276	0.0074
818.7961	-0.0232
818.9645	-0.002
819.1329	-0.0141
819.3013	0.0169
819.4697	0.0116
819.638	0.0072
819.8064	-0.0048
819.9747	0.0291
820.143	-0.0068
820.3113	-0.0306
820.4795	-0.0008
820.6477	0.0118
820.816	-0.0097
820.9842	-0.0072
821.1523	-0.0225
821.3205	0.0014
821.4886	-0.0101
821.6567	-0.0103
821.8248	0.0066
821.9929	0.0136
822.1609	-0.013
822.329	0.0163
822.497	0.0003
822.665	-0.0364
822.833	-0.0367
823.0009	0.0041
823.1688	0.0231
823.3367	-0.0031
823.5046	0.0135
823.6725	0.013
823.8404	-0.0024
824.0082	0.0187
824.176	0.0197
824.3438	-0.006
824.5116	0.0054
824.6793	-0.0017
824.847	-0.0163
825.0147	-0.0127
825.1824	0.0091
825.3501	0.0115
825.5177	-0.0058
825.6854	-0.0022
825.853	0.0126
826.0206	-0.035
826.1881	-0.0018
826.3557	-0.0403
826.5232	0.0034
826.6907	-0.0371
826.8582	-0.0306
827.0257	-0.0368
827.1931	-0.0037
827.3605	-0.0085
827.528	0.0018
827.6953	-0.0298
827.8627	-0.0272
828.03	0.026
828.1974	-0.0361
828.3647	-0.0285
828.532	-0.0006
828.6992	-0.0074
828.8665	-0.0095
829.0337	-0.0355
829.2009	0.0198
829.3681	0.0108
829.5352	0.0225
829.7024	-0.0164
829.8695	-0.0257
830.0366	0.0614
830.2037	0.004
830.3707	0.0243
830.5378	-0.0112
830.7048	0.0005
830.8718	-0.0171
831.0388	-0.0241
831.2057	-0.0183
831.3727	0.003
831.5396	-0.0459
831.7065	-0.0284
831.8734	-0.0222
832.0402	-0.0511
832.2071	-0.0178
832.3739	-0.0195
832.5407	0.0041
832.7075	0.0243
832.8742	-0.0297
833.041	-0.0592
833.2077	-0.0025
833.3744	0.0011
833.541	0.0298
833.7077	0.0011
833.8743	-0.0335
834.0409	-0.0092
834.2075	-0.033
834.3741	-0.0293
834.5407	0.0167
834.7072	-0.0236
834.8737	0.0147
835.0402	0.0191
835.2067	0.0336
835.3731	-0.0195
835.5395	-0.0014
835.706	0.0349
835.8723	-0.0205
836.0387	0.0492
836.2051	-0.0097
836.3714	-0.0215
836.5377	0.0117
836.704	-0.033
836.8703	0.0253
837.0365	0.0132
837.2027	-0.0371
837.3689	-0.0032
837.5351	-0.0312
837.7013	-0.0127
837.8674	-0.0354
838.0335	-0.0018
838.1997	-0.0106
838.3657	-0.0258
838.5318	-0.0066
838.6978	0.0266
838.8639	0.0706
839.0299	-0.0412
839.1958	-0.0245
839.3618	0.03
839.5277	-0.001
839.6937	-0.0358
839.8596	-0.0179
840.0254	0.0245
840.1913	0.0432
840.3571	0.0105
840.523	-0.0253
840.6888	-0.0318
840.8545	0.0027
841.0203	0.0232
841.186	0.0254
841.3517	0.0071
841.5174	-0.0206
841.6831	-0.003
841.8488	0.0071
842.0144	-0.0056
842.18	0.017
842.3456	-0.0011
842.5112	-0.0642
842.6767	-0.0203
842.8422	-0.019
843.0077	-0.0858
843.1732	-0.0496
843.3387	-0.0682
843.5042	-0.1144
843.6696	-0.0502
843.835	-0.0182
844.0004	0.0258
844.1657	0.0193
844.3311	-0.075
844.4964	-0.0169
844.6617	-0.0525
844.827	-0.0294
844.9923	-0.0321
845.1575	0.0046
845.3227	-0.0025
845.4879	-0.0368
845.6531	-0.0262
845.8183	-0.0707
845.9834	-0.0233
846.1485	-0.013
846.3136	-0.0935
846.4787	-0.106
846.6438	0.0925
846.8088	-0.0827
846.9738	-0.0611
847.1388	-0.0798
847.3038	-0.0555
847.4687	-0.1235
847.6337	0.0377
847.7986	-0.0042
847.9635	-0.0528
848.1284	0.0265
848.2932	0.0301
848.458	-0.0794
848.6228	0.0025
848.7876	0.073
848.9524	-0.0845
849.1172	-0.0696
849.2819	-0.0299
849.4466	-0.1034
849.6113	-0.0591
849.7759	-0.0837
849.9406	-0.0427
850.1052	0.0262
850.2698	-0.0503
850.4344	0.0451
850.599	-0.017
850.7635	0.074
850.928	-0.0147
851.0925	0.0378
851.257	-0.0408
851.4215	-0.0121
851.5859	-0.0004
851.7503	-0.0197
851.9147	0.0063
852.0791	-0.1185
852.2434	-0.0243
852.4078	-0.0458
852.5721	0.042
852.7364	-0.1251
852.9007	-0.191
853.0649	-0.0555
853.2291	-0.052
853.3934	-0.04
853.5575	0.0364
853.7217	-0.1307
853.8859	-0.1394
854.05	-0.0642
854.2141	-0.0764
854.3782	-0.1828
854.5423	-0.0564
854.7063	0.1169
854.8703	-0.0425
855.0343	0.0026
855.1983	-0.1208
855.3623	0.0998
855.5262	0.052
855.6901	-0.1096
855.854	-0.0473
856.0179	0.0108
856.1818	0.1766
856.3456	-0.0332
856.5094	-0.0324
856.6732	-0.1521
856.837	-0.1066
857.0008	-0.0005
857.1645	0.0056
857.3282	-0.1362
857.4919	-0.0131
857.6556	-0.0957
857.8192	0.0517
857.9828	-0.0685
858.1465	-0.229
858.31	-0.2334
858.4736	-0.1107
858.6372	-0.2816
858.8007	-0.2056
858.9642	-0.2043
859.1277	-0.144
859.2911	-0.0918
859.4546	-0.036
859.618	-0.429
859.7814	-0.0884
859.9448	0.0169
860.1081	0.0801
860.2715	0.3234
860.4348	-0.1735
860.5981	-0.1471
860.7614	0.3218
860.9246	-0.0852
861.0879	-0.1043
861.2511	-0.0415
861.4143	-0.1732
861.5774	0.0598
861.7406	-0.1395
861.9037	-0.06
862.0668	-0.1068
862.2299	-0.1309
862.393	-0.4698
862.556	0.081
862.7191	0.0882
862.8821	-0.4232
863.0451	-0.0715
863.208	-0.0627
863.371	-0.1
863.5339	-0.0747
863.6968	-0.0057
863.8597	0.7801
864.0225	-0.0719
864.1854	-0.1049
864.3482	-0
864.511	-0.1052
864.6737	-0.0563
864.8365	0.1484
864.9992	-0.5935
865.1619	0.2646
865.3246	-0.0434
865.4873	0.0741
865.65	-0.1106
865.8126	-0.1116
865.9752	-0.1426
866.1378	-0.0365
866.3004	-0.0545
866.4629	0.036
866.6254	-0.251
866.7879	0.2343
866.9504	-0.0735
867.1129	-0
867.2753	-0.0347
867.4377	0.1704
867.6001	-0.2028
867.7625	-0.2491
867.9249	-0.6483
868.0872	-0.0184
868.2495	-0.1163
868.4118	-0.2254
868.5741	-0.6881
868.7363	-0.3823
868.8986	-0.0897
869.0608	-0.0173
869.223	-0.0107
869.3851	-0
869.5473	-0
869.7094	0.0145
869.8715	-0.0712
870.0336	-0
870.1957	1.4843
870.3577	-1.301
870.5197	-0.0943
870.6817	-0.4013
870.8437	0.1389
871.0057	-0.6082
871.1676	-0.8211
871.3295	-0.2889
871.4914	-0
871.6533	-0.4104
871.8151	0.2878
871.977	-0
872.1388	-0
872.3006	0.0414
872.4623	-0
872.6241	-0.0418
872.7858	0.1394
872.9475	-0.1812
873.1092	-0.2414
873.2709	-0.301
873.4325	-0.2486
873.5941	-0.4044
873.7557	-0
873.9173	-0.4213
874.0789	-0
874.2404	-0.6929
874.4019	0.3488
874.5634	-0.1683
874.7249	-0.2203
874.8863	0.2847
875.0478	0.2067
875.2092	-0
875.3706	0.5202
875.5319	-0.5731
875.6933	-0
875.8546	0.0695
876.0159	0.5441
876.1772	-0
876.3385	-0
876.4997	0.2802
876.6609	-0.2789
876.8221	-0
876.9833	-0.0859
877.1445	-0
877.3056	0.0361
877.4667	-0.4923
877.6278	-0
877.7889	-0.424
877.9499	-0
878.111	-0.7828
878.272	-1.1627
878.433	-0
878.5939	0.7357
878.7549	-0.2364
878.9158	-0
879.0767	-0
879.2376	-0.086
879.3984	0.0393
879.5593	-0
879.7201	-0.0138
879.8809	-0.686
880.0417	-0.2228
880.2024	0.8191
880.3632	-0
880.5239	1.715
880.6846	0.024
880.8452	-2.1644
881.0059	-1.7482
881.1665	-0.055
881.3271	-0
881.4877	-0.5285
881.6483	-0.2295
881.8088	-0.3495
881.9693	0.0366
882.1298	0.0366
882.2903	0.0366
