Data from MonoPyChalIsomerACN10uM410nmA_Absorbance_14-53-30-173.txt Node
Date: Fri Jul 05 14:53:30 BST 2024
User: LASERRRRR
Spectrometer: FLMT03099
Trigger mode: 0
Integration Time (sec): 1.000000E-1
Scans to average: 1
Electric dark correction enabled: true
Nonlinearity correction enabled: false
Boxcar width: 0
XAxis mode: Wavelengths
Number of Pixels in Spectrum: 3648
>>>>>Begin Spectral Data<<<<<
179.3399	-0.3295
179.5586	-0.3295
179.7771	-0.3295
179.9957	-0.0714
180.2143	-0.1963
180.4329	0.9485
180.6514	-0
180.8699	-0
181.0885	-0.107
181.307	0.096
181.5255	-0.5342
181.744	-0.0207
181.9625	-0
182.181	-1.0592
182.3994	0.6157
182.6179	-0
182.8363	-0.0168
183.0547	0.1258
183.2732	0.0054
183.4916	0.1869
183.71	0.269
183.9284	0.0102
184.1467	-0.0637
184.3651	-0.0171
184.5835	0.4537
184.8018	0.2602
185.0201	0.1806
185.2385	-0.0512
185.4568	0.1664
185.6751	0.137
185.8934	0.2065
186.1117	-0.0805
186.3299	0.1227
186.5482	0.2179
186.7664	-0.0964
186.9847	-0.003
187.2029	0.171
187.4211	0.0479
187.6393	0.3368
187.8575	0.002
188.0757	0.2636
188.2939	0.2239
188.512	0.0726
188.7302	0.1815
188.9483	-0.074
189.1665	0.0852
189.3846	-0.2978
189.6027	0.1332
189.8208	0.1634
190.0389	0.1024
190.257	0.0899
190.475	0.3742
190.6931	0.2309
190.9111	0.1479
191.1292	0.2131
191.3472	0.5377
191.5652	0.2819
191.7832	0.3712
192.0012	0.6947
192.2192	0.4941
192.4371	0.4216
192.6551	0.4485
192.873	0.4579
193.091	0.5359
193.3089	0.848
193.5268	0.7299
193.7447	0.4088
193.9626	0.4857
194.1805	0.63
194.3984	0.6531
194.6162	0.6384
194.8341	0.4287
195.0519	0.6189
195.2697	0.6405
195.4875	0.7783
195.7054	0.5567
195.9231	0.5312
196.1409	0.6693
196.3587	0.6229
196.5765	0.5851
196.7942	0.6587
197.012	0.4983
197.2297	0.6631
197.4474	0.6176
197.6651	0.5331
197.8828	0.5884
198.1005	0.6477
198.3182	0.7683
198.5358	0.7629
198.7535	0.5316
198.9711	0.5358
199.1888	0.6573
199.4064	0.7605
199.624	0.7336
199.8416	0.5196
200.0592	0.6296
200.2767	0.6441
200.4943	0.7359
200.7119	0.9237
200.9294	0.5981
201.1469	0.6731
201.3645	0.5533
201.582	0.6089
201.7995	0.627
202.017	0.6135
202.2344	0.7177
202.4519	0.7235
202.6694	0.6828
202.8868	0.6378
203.1042	0.7833
203.3217	0.6652
203.5391	0.6217
203.7565	0.6142
203.9739	0.6798
204.1913	0.5575
204.4086	0.5882
204.626	0.6821
204.8433	0.6232
205.0607	0.6406
205.278	0.6459
205.4953	0.5893
205.7126	0.7526
205.9299	0.7125
206.1472	0.767
206.3644	0.6981
206.5817	0.6952
206.7989	0.7058
207.0162	0.7492
207.2334	0.6417
207.4506	0.623
207.6678	0.6878
207.885	0.7121
208.1022	0.6687
208.3194	0.6041
208.5365	0.6871
208.7537	0.6163
208.9708	0.6608
209.1879	0.6997
209.405	0.7287
209.6222	0.6869
209.8392	0.5906
210.0563	0.6132
210.2734	0.6269
210.4905	0.5805
210.7075	0.6357
210.9245	0.6576
211.1416	0.732
211.3586	0.671
211.5756	0.5654
211.7926	0.5943
212.0096	0.5449
212.2265	0.5883
212.4435	0.5802
212.6604	0.616
212.8774	0.6069
213.0943	0.6112
213.3112	0.5463
213.5281	0.4691
213.745	0.4927
213.9619	0.5402
214.1788	0.4733
214.3956	0.4706
214.6125	0.4969
214.8293	0.4667
215.0461	0.4729
215.2629	0.4595
215.4798	0.47
215.6965	0.4088
215.9133	0.4176
216.1301	0.3879
216.3469	0.444
216.5636	0.4169
216.7803	0.3913
216.9971	0.4061
217.2138	0.3594
217.4305	0.3835
217.6472	0.3624
217.8639	0.3604
218.0805	0.3432
218.2972	0.337
218.5138	0.3319
218.7305	0.3249
218.9471	0.3057
219.1637	0.2861
219.3803	0.2702
219.5969	0.2717
219.8135	0.2584
220.0301	0.288
220.2466	0.272
220.4632	0.2448
220.6797	0.2427
220.8962	0.2136
221.1127	0.2629
221.3292	0.2407
221.5457	0.2121
221.7622	0.2207
221.9787	0.2423
222.1951	0.2338
222.4116	0.2623
222.628	0.2382
222.8444	0.2481
223.0608	0.2363
223.2772	0.2429
223.4936	0.2724
223.71	0.237
223.9264	0.2603
224.1427	0.2533
224.3591	0.2377
224.5754	0.2539
224.7917	0.2771
225.008	0.2685
225.2243	0.2339
225.4406	0.26
225.6569	0.2689
225.8732	0.2444
226.0894	0.2614
226.3057	0.2535
226.5219	0.2801
226.7381	0.2463
226.9543	0.2694
227.1705	0.2856
227.3867	0.2707
227.6029	0.2783
227.8191	0.2943
228.0352	0.2955
228.2513	0.3132
228.4675	0.3051
228.6836	0.3087
228.8997	0.2698
229.1158	0.2941
229.3319	0.3029
229.548	0.3116
229.764	0.3087
229.9801	0.3129
230.1961	0.3007
230.4121	0.3077
230.6282	0.3303
230.8442	0.3198
231.0602	0.3603
231.2761	0.3618
231.4921	0.3278
231.7081	0.3507
231.924	0.3475
232.14	0.3612
232.3559	0.3277
232.5718	0.3807
232.7877	0.3476
233.0036	0.3564
233.2195	0.3466
233.4353	0.3594
233.6512	0.3605
233.867	0.3549
234.0829	0.3443
234.2987	0.3479
234.5145	0.3622
234.7303	0.3724
234.9461	0.38
235.1619	0.3668
235.3776	0.3928
235.5934	0.3887
235.8091	0.3648
236.0249	0.3731
236.2406	0.3605
236.4563	0.3762
236.672	0.385
236.8877	0.3753
237.1034	0.3859
237.319	0.399
237.5347	0.3993
237.7503	0.3749
237.966	0.4118
238.1816	0.3936
238.3972	0.3949
238.6128	0.4008
238.8284	0.3963
239.0439	0.3969
239.2595	0.3779
239.475	0.395
239.6906	0.4117
239.9061	0.4023
240.1216	0.3926
240.3371	0.3936
240.5526	0.3948
240.7681	0.424
240.9836	0.4028
241.199	0.4037
241.4145	0.3904
241.6299	0.3824
241.8453	0.3891
242.0607	0.388
242.2761	0.3757
242.4915	0.3866
242.7069	0.3806
242.9223	0.3631
243.1376	0.3615
243.353	0.3768
243.5683	0.3686
243.7836	0.354
243.9989	0.3439
244.2142	0.3336
244.4295	0.3346
244.6448	0.3252
244.86	0.3151
245.0753	0.3074
245.2905	0.2875
245.5057	0.2693
245.721	0.2845
245.9362	0.2726
246.1514	0.28
246.3665	0.2716
246.5817	0.2703
246.7969	0.2594
247.012	0.2594
247.2271	0.2496
247.4423	0.2552
247.6574	0.2529
247.8725	0.245
248.0876	0.2451
248.3026	0.2458
248.5177	0.2185
248.7328	0.2253
248.9478	0.2211
249.1628	0.2177
249.3779	0.2304
249.5929	0.2183
249.8079	0.2245
250.0228	0.1995
250.2378	0.2094
250.4528	0.2058
250.6677	0.1959
250.8827	0.2117
251.0976	0.2094
251.3125	0.1979
251.5274	0.1786
251.7423	0.1864
251.9572	0.1876
252.172	0.1828
252.3869	0.1773
252.6017	0.1769
252.8166	0.1799
253.0314	0.1734
253.2462	0.1707
253.461	0.1963
253.6758	0.1671
253.8906	0.1687
254.1053	0.1743
254.3201	0.1789
254.5348	0.1829
254.7496	0.18
254.9643	0.1608
255.179	0.1775
255.3937	0.1614
255.6083	0.1751
255.823	0.1575
256.0377	0.1682
256.2523	0.1795
256.467	0.1492
256.6816	0.1799
256.8962	0.1737
257.1108	0.1573
257.3254	0.1775
257.54	0.1647
257.7545	0.1739
257.9691	0.1832
258.1836	0.1599
258.3981	0.1807
258.6127	0.1602
258.8272	0.1685
259.0417	0.1622
259.2561	0.1645
259.4706	0.1699
259.6851	0.1636
259.8995	0.1702
260.114	0.1611
260.3284	0.1733
260.5428	0.155
260.7572	0.1711
260.9716	0.169
261.186	0.1673
261.4003	0.1605
261.6147	0.1609
261.829	0.1614
262.0433	0.1713
262.2577	0.1565
262.472	0.1585
262.6863	0.1687
262.9005	0.1635
263.1148	0.1621
263.3291	0.1425
263.5433	0.1687
263.7576	0.1648
263.9718	0.168
264.186	0.1633
264.4002	0.1658
264.6144	0.159
264.8286	0.1749
265.0427	0.1571
265.2569	0.1537
265.471	0.1555
265.6851	0.1666
265.8993	0.1597
266.1134	0.1692
266.3275	0.1564
266.5415	0.1686
266.7556	0.177
266.9697	0.1708
267.1837	0.1698
267.3978	0.1694
267.6118	0.1858
267.8258	0.1857
268.0398	0.1597
268.2538	0.1639
268.4677	0.1705
268.6817	0.1561
268.8957	0.1703
269.1096	0.1657
269.3235	0.179
269.5374	0.1616
269.7514	0.1634
269.9652	0.1586
270.1791	0.1607
270.393	0.1585
270.6068	0.1538
270.8207	0.1671
271.0345	0.1649
271.2483	0.1676
271.4622	0.1573
271.676	0.1686
271.8897	0.1532
272.1035	0.1515
272.3173	0.1571
272.531	0.1612
272.7448	0.149
272.9585	0.1504
273.1722	0.1597
273.3859	0.1722
273.5996	0.1592
273.8133	0.162
274.0269	0.15
274.2406	0.1586
274.4542	0.1627
274.6679	0.1436
274.8815	0.1612
275.0951	0.1549
275.3087	0.1776
275.5223	0.1675
275.7358	0.1507
275.9494	0.1673
276.1629	0.1585
276.3765	0.1571
276.59	0.1628
276.8035	0.1697
277.017	0.1566
277.2305	0.1579
277.444	0.1773
277.6574	0.1604
277.8709	0.1632
278.0843	0.1522
278.2978	0.1708
278.5112	0.1672
278.7246	0.1711
278.938	0.1605
279.1513	0.1653
279.3647	0.1674
279.5781	0.1625
279.7914	0.1662
280.0047	0.1717
280.2181	0.1692
280.4314	0.1647
280.6447	0.1655
280.8579	0.1657
281.0712	0.1684
281.2845	0.175
281.4977	0.1684
281.711	0.1604
281.9242	0.154
282.1374	0.1684
282.3506	0.1715
282.5638	0.1599
282.7769	0.1798
282.9901	0.153
283.2033	0.1728
283.4164	0.1772
283.6295	0.1521
283.8426	0.1523
284.0557	0.1635
284.2688	0.172
284.4819	0.1703
284.695	0.1675
284.908	0.1686
285.1211	0.1615
285.3341	0.1654
285.5471	0.1548
285.7601	0.1596
285.9731	0.1552
286.1861	0.1532
286.3991	0.1641
286.612	0.1643
286.825	0.1631
287.0379	0.1662
287.2508	0.1482
287.4637	0.1658
287.6766	0.1525
287.8895	0.165
288.1024	0.1666
288.3152	0.1635
288.5281	0.1495
288.7409	0.168
288.9538	0.1502
289.1666	0.1533
289.3794	0.1646
289.5922	0.1433
289.8049	0.1605
290.0177	0.1531
290.2304	0.155
290.4432	0.1606
290.6559	0.1573
290.8686	0.1534
291.0813	0.1529
291.294	0.1589
291.5067	0.1597
291.7194	0.1501
291.932	0.1719
292.1447	0.1448
292.3573	0.1478
292.5699	0.1498
292.7825	0.1495
292.9951	0.1475
293.2077	0.1535
293.4203	0.143
293.6328	0.1421
293.8454	0.1577
294.0579	0.1418
294.2704	0.1515
294.4829	0.1407
294.6954	0.1666
294.9079	0.1532
295.1204	0.1488
295.3328	0.1558
295.5453	0.1578
295.7577	0.1459
295.9701	0.1399
296.1825	0.1534
296.3949	0.1317
296.6073	0.141
296.8197	0.1384
297.0321	0.1604
297.2444	0.138
297.4567	0.1377
297.6691	0.1468
297.8814	0.1477
298.0937	0.1453
298.306	0.1493
298.5182	0.1507
298.7305	0.1508
298.9428	0.1498
299.155	0.1539
299.3672	0.1411
299.5794	0.1425
299.7916	0.1423
300.0038	0.156
300.216	0.1426
300.4282	0.1536
300.6403	0.1447
300.8525	0.1536
301.0646	0.1461
301.2767	0.1517
301.4888	0.1495
301.7009	0.142
301.913	0.1491
302.125	0.1426
302.3371	0.148
302.5491	0.1415
302.7612	0.1539
302.9732	0.1434
303.1852	0.1445
303.3972	0.1388
303.6092	0.1446
303.8211	0.1392
304.0331	0.1418
304.245	0.1371
304.457	0.1218
304.6689	0.1472
304.8808	0.1508
305.0927	0.1358
305.3046	0.1369
305.5164	0.148
305.7283	0.1351
305.9401	0.1387
306.152	0.1367
306.3638	0.1428
306.5756	0.1265
306.7874	0.1308
306.9992	0.1412
307.2109	0.1254
307.4227	0.1199
307.6344	0.142
307.8462	0.122
308.0579	0.1345
308.2696	0.1345
308.4813	0.1333
308.693	0.1253
308.9046	0.1284
309.1163	0.1258
309.328	0.1288
309.5396	0.1149
309.7512	0.1257
309.9628	0.1125
310.1744	0.1167
310.386	0.1164
310.5976	0.1189
310.8091	0.1264
311.0207	0.1171
311.2322	0.1151
311.4437	0.1076
311.6552	0.1066
311.8667	0.1231
312.0782	0.1062
312.2897	0.104
312.5012	0.1235
312.7126	0.1083
312.924	0.0948
313.1355	0.1102
313.3469	0.1087
313.5583	0.1189
313.7696	0.1147
313.981	0.1152
314.1924	0.1151
314.4037	0.1085
314.6151	0.1139
314.8264	0.0956
315.0377	0.1172
315.249	0.1111
315.4603	0.1218
315.6716	0.1008
315.8828	0.0959
316.0941	0.1085
316.3053	0.0982
316.5165	0.0918
316.7277	0.1006
316.9389	0.1203
317.1501	0.1094
317.3613	0.1031
317.5724	0.0981
317.7836	0.1114
317.9947	0.1102
318.2058	0.107
318.417	0.0927
318.6281	0.0928
318.8391	0.0996
319.0502	0.1048
319.2613	0.1083
319.4723	0.1187
319.6834	0.1137
319.8944	0.098
320.1054	0.1101
320.3164	0.1183
320.5274	0.1233
320.7383	0.1062
320.9493	0.1091
321.1602	0.1169
321.3712	0.0978
321.5821	0.1222
321.793	0.1068
322.0039	0.1064
322.2148	0.1102
322.4257	0.1021
322.6365	0.1245
322.8474	0.1113
323.0582	0.1046
323.269	0.109
323.4798	0.1182
323.6906	0.1109
323.9014	0.1114
324.1122	0.1162
324.3229	0.1092
324.5337	0.1222
324.7444	0.1013
324.9551	0.1177
325.1658	0.1172
325.3765	0.1153
325.5872	0.1108
325.7979	0.108
326.0085	0.1182
326.2192	0.1202
326.4298	0.1246
326.6404	0.1007
326.851	0.1136
327.0616	0.1121
327.2722	0.1174
327.4828	0.1257
327.6933	0.119
327.9039	0.1236
328.1144	0.1259
328.3249	0.1177
328.5354	0.1177
328.7459	0.1203
328.9564	0.1081
329.1669	0.1085
329.3773	0.1125
329.5878	0.1075
329.7982	0.1138
330.0086	0.1198
330.219	0.1196
330.4294	0.1102
330.6398	0.1191
330.8502	0.1296
331.0605	0.1127
331.2708	0.1191
331.4812	0.1225
331.6915	0.1188
331.9018	0.1191
332.1121	0.125
332.3224	0.1188
332.5326	0.1249
332.7429	0.1211
332.9531	0.1346
333.1633	0.1173
333.3735	0.1255
333.5837	0.117
333.7939	0.1211
334.0041	0.1326
334.2143	0.1373
334.4244	0.1223
334.6346	0.107
334.8447	0.1401
335.0548	0.1185
335.2649	0.1113
335.475	0.1258
335.685	0.1046
335.8951	0.1236
336.1051	0.1298
336.3152	0.127
336.5252	0.1139
336.7352	0.1205
336.9452	0.1271
337.1552	0.1313
337.3652	0.116
337.5751	0.1156
337.7851	0.1238
337.995	0.1132
338.2049	0.1392
338.4148	0.1239
338.6247	0.1203
338.8346	0.1209
339.0445	0.1032
339.2543	0.1227
339.4642	0.1358
339.674	0.1131
339.8838	0.1393
340.0936	0.1268
340.3034	0.1261
340.5132	0.1308
340.7229	0.1363
340.9327	0.1343
341.1424	0.1272
341.3522	0.1424
341.5619	0.1328
341.7716	0.1267
341.9813	0.1457
342.1909	0.1235
342.4006	0.1427
342.6102	0.1382
342.8199	0.1355
343.0295	0.1486
343.2391	0.1451
343.4487	0.1385
343.6583	0.1295
343.8679	0.1385
344.0774	0.1441
344.287	0.1404
344.4965	0.1359
344.706	0.151
344.9155	0.1416
345.125	0.1468
345.3345	0.1358
345.544	0.1388
345.7534	0.1429
345.9629	0.1397
346.1723	0.1358
346.3817	0.139
346.5911	0.1399
346.8005	0.1456
347.0099	0.1493
347.2193	0.1438
347.4286	0.1397
347.638	0.1487
347.8473	0.1384
348.0566	0.136
348.2659	0.1529
348.4752	0.1468
348.6845	0.1474
348.8937	0.1333
349.103	0.1496
349.3122	0.1368
349.5214	0.1372
349.7306	0.1481
349.9398	0.1413
350.149	0.1378
350.3582	0.1374
350.5674	0.1644
350.7765	0.143
350.9856	0.1439
351.1948	0.151
351.4039	0.1313
351.613	0.1388
351.822	0.1538
352.0311	0.1563
352.2402	0.1598
352.4492	0.1539
352.6582	0.1438
352.8672	0.1364
353.0762	0.1596
353.2852	0.1484
353.4942	0.1424
353.7032	0.1569
353.9121	0.1519
354.1211	0.1557
354.33	0.1587
354.5389	0.1562
354.7478	0.1656
354.9567	0.1606
355.1655	0.1401
355.3744	0.1617
355.5833	0.1783
355.7921	0.1792
356.0009	0.158
356.2097	0.1641
356.4185	0.1704
356.6273	0.1688
356.8361	0.1681
357.0448	0.1656
357.2536	0.1586
357.4623	0.1493
357.671	0.1694
357.8797	0.171
358.0884	0.1682
358.2971	0.1694
358.5057	0.1758
358.7144	0.174
358.923	0.1744
359.1316	0.1705
359.3402	0.1733
359.5488	0.1733
359.7574	0.1486
359.966	0.1706
360.1746	0.1689
360.3831	0.194
360.5916	0.1757
360.8002	0.1518
361.0087	0.185
361.2172	0.1598
361.4256	0.1632
361.6341	0.1902
361.8426	0.1892
362.051	0.1722
362.2594	0.1713
362.4678	0.1696
362.6762	0.201
362.8846	0.1779
363.093	0.1783
363.3014	0.1681
363.5097	0.1494
363.718	0.1752
363.9264	0.1712
364.1347	0.1661
364.343	0.1854
364.5513	0.199
364.7595	0.181
364.9678	0.179
365.176	0.1886
365.3842	0.1776
365.5925	0.1904
365.8007	0.1801
366.0089	0.1885
366.217	0.1766
366.4252	0.1876
366.6333	0.1971
366.8415	0.1865
367.0496	0.1771
367.2577	0.193
367.4658	0.1974
367.6739	0.1938
367.882	0.1949
368.09	0.179
368.2981	0.1924
368.5061	0.1962
368.7141	0.1908
368.9221	0.1958
369.1301	0.1784
369.3381	0.1873
369.5461	0.1874
369.754	0.1981
369.962	0.192
370.1699	0.1899
370.3778	0.1942
370.5857	0.1735
370.7936	0.1844
371.0015	0.1902
371.2093	0.2111
371.4172	0.1993
371.625	0.1932
371.8328	0.1966
372.0406	0.1889
372.2484	0.1913
372.4562	0.2036
372.664	0.1972
372.8717	0.2029
373.0795	0.1678
373.2872	0.1909
373.4949	0.1964
373.7026	0.2122
373.9103	0.1982
374.118	0.2145
374.3256	0.2062
374.5333	0.1943
374.7409	0.183
374.9485	0.2268
375.1561	0.2008
375.3637	0.2236
375.5713	0.1971
375.7789	0.2067
375.9864	0.2141
376.194	0.2087
376.4015	0.2068
376.609	0.2029
376.8165	0.2201
377.024	0.2082
377.2315	0.2159
377.4389	0.1975
377.6464	0.222
377.8538	0.2074
378.0612	0.1991
378.2686	0.2139
378.476	0.211
378.6834	0.2108
378.8908	0.214
379.0981	0.2027
379.3055	0.2205
379.5128	0.1904
379.7201	0.2032
379.9274	0.2049
380.1347	0.2236
380.342	0.2182
380.5492	0.2146
380.7565	0.2093
380.9637	0.2121
381.1709	0.2082
381.3781	0.2167
381.5853	0.2194
381.7925	0.2181
381.9997	0.2116
382.2068	0.2134
382.4139	0.2163
382.6211	0.1956
382.8282	0.2042
383.0353	0.2203
383.2424	0.2016
383.4494	0.2169
383.6565	0.2142
383.8635	0.2168
384.0706	0.1992
384.2776	0.2264
384.4846	0.2149
384.6916	0.2243
384.8986	0.2044
385.1055	0.2276
385.3125	0.2264
385.5194	0.1978
385.7263	0.2176
385.9333	0.2091
386.1402	0.216
386.347	0.2153
386.5539	0.1947
386.7608	0.2283
386.9676	0.2018
387.1744	0.2172
387.3813	0.2033
387.5881	0.2056
387.7948	0.2119
388.0016	0.2045
388.2084	0.2079
388.4151	0.2098
388.6219	0.1987
388.8286	0.1972
389.0353	0.2153
389.242	0.2102
389.4487	0.1913
389.6553	0.1939
389.862	0.1852
390.0686	0.204
390.2753	0.2182
390.4819	0.2113
390.6885	0.2034
390.8951	0.1972
391.1016	0.1994
391.3082	0.187
391.5147	0.1718
391.7213	0.1882
391.9278	0.1892
392.1343	0.2028
392.3408	0.1955
392.5473	0.191
392.7537	0.1851
392.9602	0.1851
393.1666	0.1801
393.373	0.1913
393.5794	0.204
393.7858	0.1982
393.9922	0.1667
394.1986	0.1872
394.4049	0.1818
394.6113	0.1717
394.8176	0.1767
395.0239	0.1801
395.2302	0.1913
395.4365	0.1853
395.6428	0.1875
395.8491	0.1571
396.0553	0.1803
396.2615	0.1738
396.4678	0.1658
396.674	0.1519
396.8802	0.1761
397.0863	0.1911
397.2925	0.1562
397.4987	0.1756
397.7048	0.1754
397.9109	0.1891
398.117	0.1583
398.3231	0.1735
398.5292	0.1827
398.7353	0.1911
398.9413	0.1877
399.1474	0.1818
399.3534	0.1642
399.5594	0.154
399.7654	0.1817
399.9714	0.1858
400.1774	0.172
400.3833	0.1609
400.5893	0.1715
400.7952	0.1785
401.0011	0.1602
401.207	0.1806
401.4129	0.1796
401.6188	0.1748
401.8247	0.1625
402.0305	0.1637
402.2364	0.1672
402.4422	0.1828
402.648	0.1631
402.8538	0.1781
403.0596	0.1581
403.2654	0.1834
403.4711	0.1594
403.6768	0.1965
403.8826	0.1722
404.0883	0.1701
404.294	0.1692
404.4997	0.1742
404.7054	0.1559
404.911	0.1513
405.1167	0.1776
405.3223	0.1677
405.5279	0.172
405.7335	0.1787
405.9391	0.1809
406.1447	0.1595
406.3502	0.1796
406.5558	0.1676
406.7613	0.1777
406.9668	0.1705
407.1724	0.1541
407.3778	0.1611
407.5833	0.1658
407.7888	0.1616
407.9942	0.1853
408.1997	0.1641
408.4051	0.1554
408.6105	0.1613
408.8159	0.1456
409.0213	0.1571
409.2267	0.1654
409.432	0.1434
409.6374	0.1683
409.8427	0.1627
410.048	0.1548
410.2533	0.1484
410.4586	0.1658
410.6639	0.1289
410.8691	0.1502
411.0744	0.1493
411.2796	0.1642
411.4848	0.171
411.69	0.1638
411.8952	0.1901
412.1004	0.1427
412.3056	0.1818
412.5107	0.1426
412.7158	0.1678
412.921	0.1795
413.1261	0.1507
413.3312	0.1441
413.5362	0.1561
413.7413	0.1522
413.9464	0.1542
414.1514	0.1681
414.3564	0.1621
414.5614	0.1428
414.7664	0.171
414.9714	0.1589
415.1764	0.1752
415.3813	0.1685
415.5863	0.1584
415.7912	0.1693
415.9961	0.1587
416.201	0.164
416.4059	0.1664
416.6108	0.1468
416.8156	0.1699
417.0205	0.1347
417.2253	0.1464
417.4301	0.158
417.6349	0.1571
417.8397	0.1571
418.0445	0.169
418.2492	0.1547
418.454	0.1601
418.6587	0.1536
418.8634	0.1419
419.0681	0.1404
419.2728	0.1519
419.4775	0.1405
419.6822	0.1436
419.8868	0.1319
420.0915	0.1515
420.2961	0.1443
420.5007	0.1452
420.7053	0.1447
420.9099	0.1568
421.1144	0.138
421.319	0.1507
421.5235	0.1468
421.728	0.1287
421.9325	0.144
422.137	0.1423
422.3415	0.1392
422.546	0.1425
422.7504	0.1375
422.9549	0.1518
423.1593	0.1533
423.3637	0.1516
423.5681	0.1366
423.7725	0.1479
423.9769	0.1521
424.1812	0.1422
424.3856	0.1279
424.5899	0.136
424.7942	0.1256
424.9985	0.1366
425.2028	0.1344
425.4071	0.1509
425.6113	0.12
425.8156	0.143
426.0198	0.1356
426.224	0.1217
426.4282	0.1218
426.6324	0.1434
426.8366	0.1285
427.0407	0.1192
427.2449	0.123
427.449	0.1293
427.6531	0.1048
427.8572	0.1172
428.0613	0.1261
428.2654	0.1438
428.4694	0.1239
428.6735	0.1176
428.8775	0.1314
429.0815	0.1329
429.2855	0.104
429.4895	0.1316
429.6935	0.1141
429.8975	0.1268
430.1014	0.1067
430.3053	0.1098
430.5093	0.1098
430.7132	0.1048
430.9171	0.104
431.1209	0.0987
431.3248	0.0968
431.5286	0.11
431.7325	0.1023
431.9363	0.1027
432.1401	0.1149
432.3439	0.0898
432.5477	0.0879
432.7514	0.0798
432.9552	0.0835
433.1589	0.0897
433.3627	0.088
433.5664	0.0901
433.7701	0.0869
433.9737	0.0894
434.1774	0.0875
434.3811	0.0872
434.5847	0.0882
434.7883	0.078
434.9919	0.0942
435.1955	0.0832
435.3991	0.0819
435.6027	0.094
435.8062	0.0676
436.0098	0.0803
436.2133	0.0785
436.4168	0.0805
436.6203	0.0761
436.8238	0.087
437.0272	0.0787
437.2307	0.0751
437.4341	0.0896
437.6375	0.0802
437.841	0.0676
438.0443	0.0798
438.2477	0.0654
438.4511	0.0685
438.6545	0.0665
438.8578	0.0819
439.0611	0.072
439.2644	0.0713
439.4677	0.0661
439.671	0.0456
439.8743	0.0556
440.0775	0.061
440.2808	0.0497
440.484	0.0473
440.6872	0.0407
440.8904	0.0497
441.0936	0.0716
441.2967	0.0619
441.4999	0.0526
441.703	0.0368
441.9062	0.05
442.1093	0.0528
442.3124	0.045
442.5155	0.0391
442.7185	0.0505
442.9216	0.0236
443.1246	0.0535
443.3276	0.0439
443.5307	0.0389
443.7337	0.0473
443.9366	0.0562
444.1396	0.0331
444.3426	0.0407
444.5455	0.0536
444.7484	0.0389
444.9513	0.0469
445.1542	0.0443
445.3571	0.0296
445.56	0.0317
445.7628	0.041
445.9657	0.0241
446.1685	0.0483
446.3713	0.0333
446.5741	0.0528
446.7769	0.0211
446.9797	0.0347
447.1824	0.0332
447.3852	0.0187
447.5879	0.0559
447.7906	0.0406
447.9933	0.0408
448.196	0.0142
448.3986	0.0295
448.6013	0.0241
448.8039	0.0226
449.0066	0.017
449.2092	0.0182
449.4118	0.0347
449.6143	0.0325
449.8169	0.0228
450.0195	0.0187
450.222	-0.0021
450.4245	0.0219
450.627	0.037
450.8295	0.0115
451.032	0.0273
451.2345	0.0284
451.4369	0.0156
451.6394	0.0366
451.8418	0.009
452.0442	0.0106
452.2466	0.0284
452.449	0.0193
452.6513	0.0204
452.8537	0.0126
453.056	0.0091
453.2583	0.0029
453.4607	0.0196
453.663	0.0105
453.8652	0.0169
454.0675	0.0028
454.2697	0.0107
454.472	0.0101
454.6742	0.0073
454.8764	0.014
455.0786	0.021
455.2808	0.0109
455.4829	0.018
455.6851	0.0196
455.8872	0.0138
456.0893	0.0254
456.2915	-0.0006
456.4935	0.0208
456.6956	0.0043
456.8977	0.0215
457.0997	0.0081
457.3018	-0.0075
457.5038	0.0081
457.7058	0.0117
457.9078	0.0107
458.1098	0.0076
458.3117	0.0097
458.5137	0.0147
458.7156	0.0048
458.9175	-0.0085
459.1194	0.0046
459.3213	0.0041
459.5232	0.0096
459.725	-0.0147
459.9269	-0.0016
460.1287	-0.0029
460.3305	0.0011
460.5323	-0.0032
460.7341	0.0035
460.9359	0.0051
461.1376	0.0137
461.3394	-0.0073
461.5411	0.0085
461.7428	-0.0124
461.9445	-0.0038
462.1462	0.0191
462.3479	0.0047
462.5495	0.0106
462.7512	0.0027
462.9528	-0.0076
463.1544	-0.0083
463.356	0.0066
463.5576	0.0083
463.7592	-0.0204
463.9607	0.0024
464.1623	0.0113
464.3638	0.0043
464.5653	-0.0141
464.7668	0.0127
464.9683	0.0059
465.1697	0.005
465.3712	-0.0094
465.5726	-0.011
465.7741	-0.0085
465.9755	-0.0127
466.1769	-0.0061
466.3782	-0.0059
466.5796	-0.0139
466.7809	0.0069
466.9823	-0.0155
467.1836	0.0023
467.3849	-0.0045
467.5862	-0.0101
467.7875	-0.0176
467.9887	0.005
468.19	-0.0019
468.3912	-0.0094
468.5924	-0.0106
468.7936	0.0052
468.9948	-0.0045
469.196	0.0012
469.3972	-0.0096
469.5983	0.0127
469.7994	-0.0235
470.0006	-0.0061
470.2017	-0.0151
470.4027	0.0052
470.6038	0.0048
470.8049	-0.0209
471.0059	-0.0001
471.2069	-0.0334
471.408	0.0038
471.6089	0.0105
471.8099	-0.0009
472.0109	-0.0009
472.2119	0.0059
472.4128	-0.0132
472.6137	0.0017
472.8146	-0.0225
473.0155	-0.0045
473.2164	-0.0084
473.4173	0.0017
473.6181	-0.0002
473.819	0.0023
474.0198	-0.0182
474.2206	-0.0061
474.4214	-0.0034
474.6222	-0.0089
474.8229	-0.0057
475.0237	-0.0069
475.2244	-0.0197
475.4251	-0.0074
475.6258	-0.0052
475.8265	-0.001
476.0272	0.0077
476.2278	0.0035
476.4285	0.0029
476.6291	-0.008
476.8297	-0.0113
477.0303	-0.0073
477.2309	-0.0105
477.4315	-0.03
477.632	0.0033
477.8326	-0.0006
478.0331	-0.0019
478.2336	-0.0028
478.4341	-0.0096
478.6346	-0.0159
478.8351	-0.0062
479.0355	0.0019
479.236	-0.0052
479.4364	-0.0084
479.6368	-0.0115
479.8372	-0.0106
480.0376	-0.0125
480.2379	-0.026
480.4383	-0.0121
480.6386	0.0019
480.8389	-0.0162
481.0392	-0.0109
481.2395	-0.0058
481.4398	0.0014
481.6401	0.0041
481.8403	-0.0048
482.0405	-0.0074
482.2408	-0.0002
482.441	0.0055
482.6411	-0.0133
482.8413	-0.0083
483.0415	-0.0145
483.2416	-0.0099
483.4417	-0.0064
483.6419	-0.0181
483.8419	-0.0113
484.042	-0.0036
484.2421	0.0043
484.4422	-0.0064
484.6422	-0.01
484.8422	-0.0038
485.0422	-0.0214
485.2422	-0.0063
485.4422	-0.0114
485.6422	-0.0194
485.8421	-0.013
486.042	0.001
486.242	-0.0106
486.4419	-0.0141
486.6417	-0.0145
486.8416	-0.0092
487.0415	0.0038
487.2413	-0.0081
487.4411	-0.0176
487.641	-0.0165
487.8408	0.0092
488.0405	-0.0122
488.2403	-0.0123
488.4401	-0.0026
488.6398	0.0015
488.8395	-0.0167
489.0392	0.0026
489.2389	-0.0161
489.4386	-0.0008
489.6383	0.0031
489.8379	0.0123
490.0376	-0.0101
490.2372	-0.0155
490.4368	-0.009
490.6364	-0.0223
490.836	-0.0188
491.0355	-0.007
491.2351	-0.012
491.4346	-0.0184
491.6341	-0.0189
491.8336	-0.0073
492.0331	-0.0147
492.2326	-0.0179
492.432	-0.0029
492.6315	-0.0149
492.8309	-0.0147
493.0303	-0.0152
493.2297	-0.0116
493.4291	-0.0085
493.6284	-0.0079
493.8278	0.0006
494.0271	-0.0085
494.2264	0.0001
494.4257	-0.0209
494.625	-0.0141
494.8243	-0.0236
495.0236	-0.012
495.2228	-0.0188
495.422	-0.0057
495.6213	-0.0179
495.8205	0.0037
496.0196	-0.0048
496.2188	-0.0044
496.418	-0.0218
496.6171	-0.0127
496.8162	-0.0094
497.0153	0.002
497.2144	-0.0187
497.4135	-0.0005
497.6126	-0.0159
497.8116	-0.0107
498.0107	-0.0067
498.2097	-0.0145
498.4087	-0.0186
498.6077	-0.0062
498.8067	-0.0108
499.0056	0.0015
499.2046	-0.0055
499.4035	-0.0148
499.6024	-0.0105
499.8013	-0.0006
500.0002	-0.0263
500.199	-0.0085
500.3979	-0.0087
500.5967	-0.021
500.7956	0.0024
500.9944	-0.0093
501.1932	-0.0096
501.3919	-0.0205
501.5907	-0.0169
501.7895	-0.0068
501.9882	-0.0144
502.1869	-0.0105
502.3856	-0.0103
502.5843	-0.0161
502.783	-0.0105
502.9816	-0.0079
503.1803	-0.0147
503.3789	-0.0169
503.5775	0.0011
503.7761	-0.0125
503.9747	-0.0111
504.1732	-0.0076
504.3718	-0.0102
504.5703	-0.007
504.7689	-0.009
504.9674	-0.0083
505.1658	-0.019
505.3643	-0.0144
505.5628	-0.0031
505.7612	-0.0109
505.9597	-0.0063
506.1581	-0.011
506.3565	0.0003
506.5549	-0.0116
506.7532	-0.0188
506.9516	-0.0018
507.1499	-0.0057
507.3482	-0.0184
507.5465	-0.0094
507.7448	-0.0044
507.9431	-0.0056
508.1414	-0.0098
508.3396	-0.007
508.5379	-0.0108
508.7361	-0.0116
508.9343	-0.0065
509.1325	-0.009
509.3306	-0.0118
509.5288	-0.0151
509.7269	-0.0131
509.9251	-0.0073
510.1232	-0.013
510.3213	0.0024
510.5193	-0.0027
510.7174	-0.0142
510.9154	-0.0136
511.1135	-0.0133
511.3115	-0.0078
511.5095	-0.0057
511.7075	-0.0054
511.9055	-0.0101
512.1034	-0.0179
512.3014	-0.0101
512.4993	-0.0065
512.6972	-0.01
512.8951	-0.0227
513.093	-0.0048
513.2908	-0.0041
513.4887	-0.0051
513.6865	-0.0009
513.8844	-0.0051
514.0822	-0.0111
514.2799	-0.0157
514.4777	-0.0164
514.6755	-0.0173
514.8732	-0.0164
515.0709	-0.0097
515.2687	-0.008
515.4664	-0.0059
515.664	-0.0115
515.8617	-0.0063
516.0594	-0.0216
516.257	-0.0101
516.4546	-0.0225
516.6522	-0.0037
516.8498	-0.0093
517.0474	-0.0081
517.2449	0.0026
517.4425	-0.0192
517.64	-0.0153
517.8375	-0.0108
518.035	-0.0135
518.2325	-0.022
518.43	-0.0135
518.6274	-0.0052
518.8249	-0.0189
519.0223	-0.0057
519.2197	-0.0068
519.4171	-0.0138
519.6145	-0.0036
519.8118	-0.0067
520.0092	-0.0083
520.2065	-0.022
520.4038	-0.015
520.6011	-0.0109
520.7984	-0.0116
520.9956	-0.0122
521.1929	-0.0212
521.3901	-0.0005
521.5874	-0.0055
521.7846	-0.0028
521.9818	-0.0105
522.1789	-0.0089
522.3761	-0.0056
522.5732	-0.0166
522.7704	-0.0244
522.9675	-0.009
523.1646	-0.0147
523.3617	-0.0032
523.5587	-0.008
523.7558	-0.0085
523.9528	-0.019
524.1498	-0.0022
524.3468	-0.0215
524.5438	-0.009
524.7408	-0.0016
524.9378	0.0035
525.1347	-0.0024
525.3316	-0.0126
525.5285	-0.009
525.7254	-0.0167
525.9223	-0.0007
526.1192	-0.0112
526.316	-0.0132
526.5129	0.0037
526.7097	-0.0021
526.9065	-0.0002
527.1033	-0.0169
527.3	-0.0097
527.4968	-0.0088
527.6935	-0.0134
527.8903	-0.0128
528.087	-0.0093
528.2837	-0.0123
528.4804	-0.0089
528.677	-0.0019
528.8737	-0.0002
529.0703	-0.0024
529.2669	-0.0178
529.4635	-0.0172
529.6601	-0.0012
529.8567	-0.0083
530.0532	-0.0138
530.2498	-0.0066
530.4463	0.0019
530.6428	-0.0066
530.8393	0.009
531.0358	0.002
531.2322	-0.0182
531.4287	-0.0108
531.6251	-0.0056
531.8215	-0.0009
532.0179	-0.0056
532.2143	-0.0081
532.4107	-0.013
532.607	-0.0102
532.8034	-0.0071
532.9997	-0.0081
533.196	-0.009
533.3923	-0.0127
533.5886	0.0056
533.7848	-0.0046
533.9811	-0.0055
534.1773	-0.0066
534.3735	0.0033
534.5697	-0.0091
534.7659	-0.0098
534.9621	-0.0037
535.1582	-0.0088
535.3544	-0.0139
535.5505	-0.0163
535.7466	-0.0056
535.9427	0.0005
536.1387	-0.017
536.3348	-0.0062
536.5308	0.0005
536.7269	-0.0198
536.9229	-0.0067
537.1189	-0.0036
537.3148	-0.0076
537.5108	-0.0197
537.7068	-0.0059
537.9027	-0.0034
538.0986	-0.0104
538.2945	-0.0128
538.4904	-0.0092
538.6863	-0.0101
538.8821	-0.0062
539.078	-0.0102
539.2738	-0.0003
539.4696	-0.009
539.6654	0.0009
539.8611	0.0116
540.0569	-0.0065
540.2526	-0.0067
540.4484	-0.0004
540.6441	0.0086
540.8398	-0.0017
541.0355	-0.0033
541.2311	-0.005
541.4268	-0.0129
541.6224	0.0026
541.818	-0.0017
542.0136	-0.0146
542.2092	0.0015
542.4048	-0.0052
542.6003	-0.0004
542.7959	-0.0112
542.9914	-0.0092
543.1869	-0.003
543.3824	-0.0067
543.5779	-0.0038
543.7734	-0.0081
543.9688	-0.007
544.1642	-0.0042
544.3596	-0.0006
544.555	-0.0076
544.7504	-0.0057
544.9458	-0.0057
545.1411	-0.0126
545.3365	-0.0091
545.5318	-0.0019
545.7271	-0.0102
545.9224	-0.0023
546.1177	-0.0031
546.3129	-0.002
546.5081	-0.0074
546.7034	-0.0051
546.8986	-0.0057
547.0938	-0.0069
547.289	-0.0119
547.4841	-0.0058
547.6793	-0.0002
547.8744	-0.0146
548.0695	-0.0038
548.2646	-0.013
548.4597	0.0038
548.6548	-0.0065
548.8498	0.0015
549.0448	-0.0051
549.2399	-0.0049
549.4349	0.0012
549.6298	-0.0048
549.8248	0.0013
550.0198	-0.0076
550.2147	-0.0102
550.4096	-0.0021
550.6045	0.0025
550.7994	-0.0022
550.9943	0.0025
551.1892	-0.0044
551.384	0.0135
551.5788	-0.0128
551.7737	0.0023
551.9685	-0.0055
552.1632	0.0032
552.358	-0.0087
552.5528	-0.0019
552.7475	-0.0086
552.9422	0.0006
553.1369	0.0026
553.3316	-0.0022
553.5263	-0.0154
553.7209	0.0059
553.9156	-0.0074
554.1102	-0.0135
554.3048	-0.0082
554.4994	0.003
554.694	-0.0008
554.8885	0.0044
555.0831	-0.0146
555.2776	-0.0083
555.4721	-0.0107
555.6666	-0.0035
555.8611	0.0026
556.0555	-0.0007
556.25	-0.0043
556.4444	-0.0117
556.6388	-0.0011
556.8332	0.0011
557.0276	-0.0001
557.222	-0.0039
557.4163	-0.0009
557.6107	-0.0178
557.805	0.0044
557.9993	-0.0097
558.1936	-0.003
558.3879	0.0052
558.5821	-0.0097
558.7764	-0.0064
558.9706	-0.0036
559.1648	0.0005
559.359	-0.0135
559.5532	-0.0116
559.7473	-0.0046
559.9415	-0.0021
560.1356	-0.0079
560.3297	-0.0193
560.5238	-0.0115
560.7179	-0.0071
560.9119	-0.006
561.106	-0.0032
561.3	-0.008
561.494	-0.0118
561.688	-0.0057
561.882	-0.0085
562.076	-0.0027
562.2699	0.0047
562.4639	-0.0037
562.6578	-0.0062
562.8517	-0.0035
563.0456	-0.0014
563.2395	0.0037
563.4333	-0.0065
563.6272	0.0051
563.821	-0.0065
564.0148	-0.0031
564.2086	-0.0066
564.4024	-0.0035
564.5961	-0.0064
564.7899	0.0121
564.9836	-0.0052
565.1773	-0.0041
565.371	0.0012
565.5647	0.0028
565.7584	-0.001
565.952	-0.01
566.1456	0.0004
566.3393	-0.0042
566.5329	-0.0059
566.7264	-0.0052
566.92	-0.0099
567.1136	0.0007
567.3071	-0.0042
567.5006	-0.0013
567.6941	-0.0037
567.8876	-0.004
568.0811	-0.0054
568.2745	0.0005
568.468	0.0034
568.6614	-0.0014
568.8548	-0.0078
569.0482	-0.0026
569.2416	0.0009
569.4349	-0.0004
569.6283	0.0011
569.8216	0.0001
570.0149	-0.003
570.2082	0.0012
570.4015	0.0113
570.5947	-0.0003
570.788	-0.0003
570.9812	0.0046
571.1744	-0.0011
571.3676	-0
571.5608	-0.0039
571.754	0.0027
571.9471	-0.0058
572.1402	0.0009
572.3333	-0.0088
572.5264	0.0028
572.7195	0.0094
572.9126	-0.0106
573.1057	-0.0018
573.2987	-0.0061
573.4917	-0.0034
573.6847	-0.0073
573.8777	0.0028
574.0707	0.0086
574.2636	0.0007
574.4566	-0.0026
574.6495	0.0055
574.8424	-0.0026
575.0353	-0.0099
575.2281	0.0049
575.421	0.0011
575.6138	0.0021
575.8067	-0.0047
575.9995	-0.0049
576.1923	0.0034
576.385	0.002
576.5778	-0.0077
576.7706	-0.0005
576.9633	-0.0028
577.156	-0.0019
577.3487	-0.0012
577.5414	0.0033
577.734	-0.0062
577.9267	0.0073
578.1193	-0.0142
578.3119	-0.0046
578.5045	0.0003
578.6971	0.0022
578.8897	0.0029
579.0822	-0.0033
579.2747	0.0018
579.4673	-0.004
579.6598	-0.006
579.8522	-0.0006
580.0447	-0.0034
580.2372	-0.0046
580.4296	0.0032
580.622	-0.0018
580.8144	-0.0001
581.0068	-0.0022
581.1992	-0.0177
581.3915	-0.0108
581.5839	-0.0073
581.7762	-0.0099
581.9685	-0.0057
582.1608	0.003
582.353	-0.0004
582.5453	0.0035
582.7375	-0.0023
582.9298	-0.0043
583.122	0.0007
583.3142	-0.002
583.5063	0.0024
583.6985	-0.0024
583.8906	-0.0012
584.0827	-0.0068
584.2749	-0.0032
584.4669	-0.0061
584.659	0.0026
584.8511	-0.0059
585.0431	-0.0049
585.2352	-0.0038
585.4272	-0.0014
585.6192	0.001
585.8111	0.0045
586.0031	0.0016
586.195	-0.0064
586.387	0.0038
586.5789	-0.0033
586.7708	0.0075
586.9627	0.0011
587.1545	-0.0054
587.3464	0.0009
587.5382	-0.0012
587.73	-0.0014
587.9218	0.0038
588.1136	-0.0098
588.3053	0.0045
588.4971	-0.0068
588.6888	-0.0113
588.8805	-0.0016
589.0722	0.0012
589.2639	0.0002
589.4556	0.0017
589.6472	0.0018
589.8389	-0.0068
590.0305	-0.0114
590.2221	0.0012
590.4137	-0.0112
590.6052	0.0047
590.7968	-0.001
590.9883	-0.0023
591.1798	-0.0039
591.3713	-0.0022
591.5628	0.0016
591.7543	0.0049
591.9458	0.0038
592.1372	0.0061
592.3286	0.0014
592.52	0.0004
592.7114	-0.0014
592.9028	0.0016
593.0941	-0.0053
593.2855	-0.003
593.4768	-0.0025
593.6681	-0.0052
593.8594	-0.0085
594.0506	0.0031
594.2419	0.0046
594.4331	0.0033
594.6244	0.0044
594.8156	-0.0032
595.0067	0.0013
595.1979	0.0042
595.3891	0.0016
595.5802	0.0004
595.7713	-0.0018
595.9624	-0.0005
596.1535	0.0005
596.3446	0.0006
596.5357	-0.0003
596.7267	0.0026
596.9177	-0.0047
597.1087	-0.0075
597.2997	-0.0095
597.4907	0.0063
597.6817	-0.0071
597.8726	-0.0014
598.0635	-0.0016
598.2544	-0.0026
598.4453	-0.0001
598.6362	-0.0007
598.827	-0.0055
599.0179	0.0035
599.2087	-0.0027
599.3995	-0.0036
599.5903	0.0014
599.7811	0.0015
599.9718	0.0004
600.1626	-0.0041
600.3533	-0.0052
600.544	-0.0037
600.7347	0.0014
600.9254	0.0003
601.116	-0.0101
601.3067	-0.0032
601.4973	-0.0102
601.6879	0.0049
601.8785	-0.012
602.0691	-0.0016
602.2596	-0.0013
602.4502	0.0053
602.6407	-0.0001
602.8312	0.0028
603.0217	-0.0131
603.2122	0.0005
603.4027	0.0004
603.5931	0.0046
603.7835	-0.0035
603.9739	0.0027
604.1643	-0.0015
604.3547	-0.0064
604.5451	0.0065
604.7354	-0.0018
604.9257	-0.0001
605.116	-0.0029
605.3063	0.0002
605.4966	0.0036
605.6869	-0.0036
605.8771	-0.0027
606.0673	0.0055
606.2575	0.002
606.4477	0.0017
606.6379	0.0002
606.8281	-0.001
607.0182	0.0001
607.2083	0.0125
607.3985	-0.0036
607.5885	-0.0017
607.7786	0.0028
607.9687	-0.0068
608.1587	0.0054
608.3488	-0.0006
608.5388	-0.0006
608.7288	-0.0021
608.9187	0.0018
609.1087	-0.0062
609.2986	-0.0031
609.4886	-0.0016
609.6785	0.0014
609.8684	-0.0049
610.0582	0.001
610.2481	-0.0012
610.4379	0.0029
610.6278	-0.0007
610.8176	-0.0067
611.0074	-0.0058
611.1971	-0.0001
611.3869	-0.0038
611.5766	-0.0053
611.7664	-0.0028
611.9561	0.0028
612.1458	0.0016
612.3354	-0.0089
612.5251	-0.0046
612.7147	0.0028
612.9044	0.0005
613.094	-0.0072
613.2836	-0.0036
613.4731	-0.0068
613.6627	-0.0054
613.8522	0.0006
614.0417	-0.0016
614.2313	-0.009
614.4207	-0.0063
614.6102	0.0016
614.7997	0.0004
614.9891	-0.0064
615.1785	-0.0028
615.3679	-0.0037
615.5573	0.004
615.7467	-0.0019
615.9361	-0.0019
616.1254	0.0037
616.3147	-0.0063
616.504	0
616.6933	0.0019
616.8826	0.003
617.0718	0.0044
617.2611	-0.0003
617.4503	-0.0062
617.6395	-0.0042
617.8287	-0.0089
618.0179	-0.0011
618.207	0.0009
618.3961	-0.0007
618.5853	0.0015
618.7744	0.0069
618.9634	0.0047
619.1525	-0.0027
619.3416	-0.0052
619.5306	-0.0012
619.7196	-0.0044
619.9086	-0.003
620.0976	-0.0084
620.2866	-0.0021
620.4755	0.0029
620.6645	0.0042
620.8534	0.0037
621.0423	0.0057
621.2312	-0.0007
621.42	-0.002
621.6089	-0.0035
621.7977	0.0123
621.9865	-0.0013
622.1753	-0.0008
622.3641	-0.0044
622.5529	0.0074
622.7416	0.0007
622.9303	-0.0075
623.1191	0.0074
623.3078	0.0016
623.4964	-0.0043
623.6851	-0.0041
623.8737	0.005
624.0624	0.0047
624.251	-0.0046
624.4396	-0.0044
624.6282	-0.0119
624.8167	-0.0029
625.0053	0.0035
625.1938	0.0027
625.3823	-0.0016
625.5708	-0.0031
625.7593	-0.006
625.9477	-0.0009
626.1362	-0.0109
626.3246	0.0031
626.513	0.0069
626.7014	-0.0005
626.8898	-0.0006
627.0781	0.0022
627.2665	-0.0018
627.4548	-0.0012
627.6431	-0.0028
627.8314	0.0017
628.0197	-0.0006
628.2079	-0.0147
628.3962	-0.0018
628.5844	0.0017
628.7726	-0.0041
628.9608	0.0068
629.1489	0.001
629.3371	-0.0008
629.5252	0.0009
629.7134	0.0047
629.9015	-0.0006
630.0895	0.0013
630.2776	0.0059
630.4657	0.0054
630.6537	-0.0071
630.8417	-0.0027
631.0297	-0.0051
631.2177	-0.0048
631.4057	-0.0053
631.5936	-0.0043
631.7815	0.0036
631.9695	0.0017
632.1574	0.0093
632.3452	0.005
632.5331	0.0016
632.7209	0.0041
632.9088	0.0059
633.0966	0.0166
633.2844	-0.0025
633.4722	0.0022
633.6599	-0.0007
633.8477	0.0009
634.0354	0.0021
634.2231	-0.0093
634.4108	0.0082
634.5985	-0.0008
634.7861	-0.0019
634.9738	-0.0014
635.1614	-0.0043
635.349	0.0015
635.5366	0.003
635.7242	0.0012
635.9117	0.0065
636.0993	-0.0023
636.2868	0.0055
636.4743	-0.0073
636.6618	0.008
636.8492	-0.0002
637.0367	-0.0017
637.2241	0.0014
637.4115	-0.0005
637.5989	-0.0019
637.7863	-0.0016
637.9737	-0.0068
638.161	-0.0006
638.3484	0.0016
638.5357	0.0119
638.723	-0.0004
638.9103	0.0046
639.0975	0.0039
639.2848	0.0066
639.472	-0.0014
639.6592	0.005
639.8464	0.0014
640.0336	0.0103
640.2208	-0.001
640.4079	0.0029
640.595	0.0033
640.7821	0.0034
640.9692	0.0022
641.1563	0.0056
641.3434	0.0057
641.5304	0.0004
641.7174	0.0023
641.9044	0.0052
642.0914	0.0036
642.2784	0.0056
642.4653	0.0078
642.6523	0.0058
642.8392	0.0008
643.0261	0.0046
643.213	0.0057
643.3999	-0.0059
643.5867	0.0037
643.7735	0.0069
643.9604	-0.0005
644.1472	0.0013
644.3339	0.0047
644.5207	-0.0025
644.7075	0.0001
644.8942	-0.0002
645.0809	0.0117
645.2676	0.003
645.4543	-0.0015
645.6409	0.0059
645.8276	0.0035
646.0142	0.0072
646.2008	-0.0014
646.3874	-0.0029
646.574	-0.0009
646.7605	-0.0007
646.9471	-0.0098
647.1336	0.0097
647.3201	-0.0043
647.5066	-0.0009
647.6931	-0.0016
647.8795	-0.0004
648.0659	-0.0021
648.2524	0.0098
648.4388	-0.0048
648.6252	0.0003
648.8115	0.0056
648.9979	-0.0007
649.1842	-0.001
649.3705	-0.0021
649.5568	0.0041
649.7431	0.006
649.9294	-0.006
650.1156	0.0007
650.3018	-0.0062
650.488	0.0039
650.6742	0.0033
650.8604	0.0091
651.0466	-0.0104
651.2327	-0.0001
651.4188	-0.0022
651.6049	-0.0086
651.791	-0.0054
651.9771	0.0014
652.1632	0.0037
652.3492	-0.0053
652.5352	0.004
652.7212	-0.0056
652.9072	0.0022
653.0932	-0.0008
653.2791	-0.0076
653.465	-0.0031
653.651	-0.0024
653.8369	0.0041
654.0227	0.0037
654.2086	0.0051
654.3944	0.0117
654.5803	0.0004
654.7661	0.0008
654.9519	-0.0002
655.1377	-0.0019
655.3234	0.0025
655.5092	-0.0051
655.6949	-0.0099
655.8806	-0.0044
656.0663	-0.0032
656.2519	0.0011
656.4376	-0.0063
656.6232	0.0034
656.8088	-0.0032
656.9945	-0.0039
657.18	-0.0025
657.3656	0.0029
657.5511	-0.0048
657.7367	-0.0077
657.9222	0.005
658.1077	0.0006
658.2932	0.0021
658.4786	-0.0039
658.6641	-0.0045
658.8495	-0.0016
659.0349	0.0008
659.2203	0.0044
659.4057	-0.0017
659.591	0.0034
659.7764	-0.0018
659.9617	-0.0011
660.147	-0.0036
660.3323	0.0046
660.5176	0.0066
660.7028	0.0041
660.888	0.0074
661.0733	0.0018
661.2585	-0.0038
661.4436	-0.001
661.6288	-0.0044
661.8139	0.0003
661.9991	0.0035
662.1842	-0.0043
662.3693	-0.0025
662.5544	-0.0051
662.7394	0.0009
662.9245	-0.0014
663.1095	-0.0036
663.2945	0.003
663.4795	-0.0052
663.6644	0.0062
663.8494	0.0008
664.0343	0.0058
664.2193	-0.012
664.4042	-0.0012
664.589	-0.0089
664.7739	0.0014
664.9587	-0.0101
665.1436	-0.0123
665.3284	-0.0012
665.5132	-0.0055
665.698	-0.0066
665.8827	-0.0007
666.0675	0.0012
666.2522	-0.0057
666.4369	-0.0014
666.6216	0.0031
666.8063	0.006
666.9909	0.0008
667.1756	-0.006
667.3602	-0.001
667.5448	-0.0038
667.7294	0.0132
667.9139	-0
668.0985	0.0096
668.283	-0.004
668.4675	-0.0021
668.652	-0.0028
668.8365	-0.0066
669.0209	0.0036
669.2054	0.0033
669.3898	-0.0025
669.5742	-0.0026
669.7586	0.0049
669.943	0.01
670.1273	0.0067
670.3117	0.0036
670.496	0.006
670.6803	0.0117
670.8646	0.0049
671.0488	0.0014
671.2331	0.0116
671.4173	0.0019
671.6015	-0.0012
671.7857	-0.0022
671.9699	-0.0029
672.1541	0.0051
672.3382	0.0047
672.5223	0.0017
672.7064	0.0012
672.8905	0.0046
673.0746	-0.0018
673.2587	-0.0024
673.4427	0.0003
673.6267	0.0124
673.8107	0.0107
673.9947	0.0022
674.1787	0.0031
674.3626	-0.0062
674.5465	0.0025
674.7304	-0.0021
674.9143	0.004
675.0982	0.0143
675.2821	-0.0062
675.4659	0.006
675.6497	-0.0045
675.8335	0.002
676.0173	0.0065
676.2011	0.0003
676.3849	-0.0033
676.5686	-0.0043
676.7523	0
676.936	0.0006
677.1197	0
677.3034	-0.0017
677.487	-0.0025
677.6706	0.0024
677.8542	-0
678.0378	-0.0014
678.2214	-0.0062
678.405	-0.0014
678.5885	-0.0037
678.772	0.0074
678.9555	-0.0008
679.139	-0.0026
679.3225	0.0032
679.5059	-0.0008
679.6894	-0.0032
679.8728	-0.008
680.0562	-0.0114
680.2395	-0.0074
680.4229	-0.0009
680.6062	0.0047
680.7896	0.0057
680.9729	-0.0033
681.1562	-0.0003
681.3394	0.0006
681.5227	-0.0055
681.7059	-0.0058
681.8891	0.0015
682.0723	0.009
682.2555	0.0067
682.4387	0.0019
682.6218	-0.0043
682.805	-0.0012
682.9881	0.0019
683.1712	-0.0064
683.3542	-0.0086
683.5373	0.0068
683.7203	-0.0018
683.9034	-0.0008
684.0864	-0.0098
684.2694	-0.0018
684.4523	-0.0045
684.6353	-0.0074
684.8182	0.0034
685.0011	-0.006
685.184	0.006
685.3669	-0.0051
685.5498	-0.0016
685.7326	-0.0008
685.9154	-0.0036
686.0982	0.006
686.281	0.0049
686.4638	0.0054
686.6465	0.0002
686.8293	0.0033
687.012	0.004
687.1947	-0.0045
687.3774	-0.0027
687.56	-0.0067
687.7427	0.002
687.9253	-0.0103
688.1079	-0.0037
688.2905	0.0019
688.4731	-0.0026
688.6556	-0.0007
688.8382	-0.005
689.0207	-0.0085
689.2032	-0.0091
689.3857	-0.0085
689.5681	-0.0098
689.7506	-0.0128
689.933	-0.0089
690.1154	-0.0081
690.2978	-0.0072
690.4802	0.0022
690.6626	-0.011
690.8449	-0.0108
691.0272	-0.0027
691.2095	-0.0168
691.3918	-0.0084
691.5741	0.0008
691.7563	0.0018
691.9386	0.0049
692.1208	-0.0037
692.303	-0.0043
692.4852	-0.0135
692.6673	-0.005
692.8495	-0.0001
693.0316	-0.003
693.2137	0.0016
693.3958	0.0046
693.5778	-0.0003
693.7599	-0.0032
693.9419	-0.0029
694.1239	0.0022
694.3059	-0.0053
694.4879	0.0009
694.6699	0.0022
694.8518	0.0016
695.0337	-0.0059
695.2157	0.0026
695.3975	-0.0024
695.5794	0.0005
695.7613	0.0006
695.9431	-0.0013
696.1249	0.0054
696.3067	0.0021
696.4885	0.0049
696.6703	-0.007
696.852	0.0038
697.0337	0.005
697.2154	-0.0013
697.3971	-0.0006
697.5788	-0.0017
697.7605	0.0058
697.9421	-0.0007
698.1237	-0.0063
698.3053	0
698.4869	-0.0047
698.6685	-0.0031
698.85	-0.0017
699.0315	0.0044
699.213	-0.0022
699.3945	-0.0048
699.576	0.0053
699.7575	0.0029
699.9389	-0.0034
700.1203	-0.0069
700.3017	-0.0116
700.4831	-0.0155
700.6645	-0.0078
700.8458	0.0006
701.0271	-0.0074
701.2084	0.004
701.3897	-0.0003
701.571	0.0072
701.7523	-0.0028
701.9335	0.0021
702.1147	0.0057
702.2959	-0.0002
702.4771	0.0004
702.6583	-0.002
702.8394	-0.0041
703.0205	-0.0015
703.2016	-0.0022
703.3827	-0.0047
703.5638	0.0021
703.7449	0.0061
703.9259	0.0095
704.1069	-0.0055
704.2879	0.0078
704.4689	0.0043
704.6499	0.0003
704.8308	0.0029
705.0117	0.0017
705.1927	0.0105
705.3735	-0.0055
705.5544	-0.0039
705.7353	-0.001
705.9161	-0.0022
706.0969	-0.0085
706.2777	-0.0013
706.4585	0.0006
706.6393	-0.0002
706.82	-0.0028
707.0007	0.0021
707.1815	0.0021
707.3621	0.013
707.5428	0.0018
707.7235	0.0051
707.9041	0
708.0847	-0.0058
708.2653	-0.0157
708.4459	-0.0171
708.6265	0.0032
708.807	-0
708.9875	-0.007
709.168	-0.0075
709.3485	-0.0107
709.529	-0.0035
709.7095	-0.0107
709.8899	-0.002
710.0703	-0.0069
710.2507	-0.0007
710.4311	0.0016
710.6115	-0.0135
710.7918	-0.0107
710.9721	-0.0041
711.1524	-0.0045
711.3327	-0.0014
711.513	-0.0063
711.6932	0.0009
711.8735	0.0081
712.0537	0.0032
712.2339	-0.0064
712.4141	-0.0046
712.5942	-0.0024
712.7744	0
712.9545	-0.0072
713.1346	-0.0063
713.3147	0.0025
713.4947	-0.0016
713.6748	-0.0002
713.8548	-0.0026
714.0348	-0.01
714.2148	-0.0089
714.3948	0.005
714.5748	-0.016
714.7547	-0.0073
714.9346	0.0058
715.1145	-0.0023
715.2944	0.0003
715.4743	0.0019
715.6541	-0.0109
715.834	0.0108
716.0138	-0.0044
716.1936	-0.0188
716.3733	-0.0041
716.5531	-0.0022
716.7328	-0.0102
716.9126	-0.0069
717.0923	0.0009
717.2719	0.0035
717.4516	0.0035
717.6312	0.0102
717.8109	-0.0036
717.9905	0.0003
718.1701	-0.0056
718.3496	-0.0058
718.5292	-0.0031
718.7087	-0.0056
718.8882	-0.0061
719.0677	0.0002
719.2472	-0.0011
719.4267	-0.0034
719.6061	-0.0011
719.7856	0.0078
719.965	0.0086
720.1443	-0.005
720.3237	0.0073
720.5031	0.0048
720.6824	0.005
720.8617	-0.005
721.041	0.0024
721.2203	0.0067
721.3995	-0.0027
721.5788	0.0033
721.758	0.004
721.9372	-0.0021
722.1164	0.0037
722.2956	0.0024
722.4747	-0.0072
722.6538	0.0011
722.8329	0.0111
723.012	0.0057
723.1911	-0.0059
723.3702	-0.0012
723.5492	-0.0015
723.7282	-0.0014
723.9072	-0.0031
724.0862	-0.0097
724.2652	-0.0052
724.4441	0.002
724.623	0.0049
724.8019	-0.0088
724.9808	-0.006
725.1597	-0.0083
725.3385	0.0024
725.5174	-0.0037
725.6962	0.0073
725.875	-0.0013
726.0538	0.0045
726.2325	0.0016
726.4112	0.0014
726.59	-0.0044
726.7687	0.0006
726.9474	0.0057
727.126	-0.0007
727.3047	-0.0076
727.4833	0.008
727.6619	-0.003
727.8405	-0.0072
728.0191	0.0034
728.1976	0.0065
728.3762	-0.0013
728.5547	0.0036
728.7332	-0.0086
728.9116	-0.0029
729.0901	0.0005
729.2686	-0.0079
729.447	-0.0078
729.6254	0.0043
729.8038	-0.0032
729.9821	-0.011
730.1605	-0.0017
730.3388	-0.0055
730.5171	-0.0005
730.6954	-0.0099
730.8737	0.0017
731.0519	-0.001
731.2302	-0.0018
731.4084	0.0085
731.5866	-0.0054
731.7648	-0.0052
731.9429	-0.0009
732.1211	-0.0104
732.2992	-0.0061
732.4773	-0.0135
732.6554	-0.012
732.8335	0.0035
733.0115	0.0011
733.1896	0.0126
733.3676	-0.0087
733.5456	0.0095
733.7235	0.0058
733.9015	-0.0056
734.0794	-0.0054
734.2574	-0.0079
734.4353	-0.002
734.6131	-0.0045
734.791	-0.0033
734.9689	0.0016
735.1467	0.0044
735.3245	-0.0157
735.5023	-0.0093
735.68	-0.0027
735.8578	0.0063
736.0355	-0.0132
736.2132	-0.0186
736.3909	-0.0028
736.5686	-0.0123
736.7463	-0.0004
736.9239	-0.0008
737.1015	-0.001
737.2791	-0.001
737.4567	-0.0061
737.6343	-0.0032
737.8118	0.0073
737.9894	0.003
738.1669	-0.0085
738.3444	-0.0026
738.5218	0.0089
738.6993	-0.0052
738.8767	-0.0027
739.0541	0.0014
739.2315	-0.0104
739.4089	-0.0024
739.5863	0.0026
739.7636	-0.0125
739.9409	-0.003
740.1182	0.0092
740.2955	-0.0006
740.4728	0.001
740.65	-0.006
740.8272	-0.0019
741.0044	-0.0062
741.1816	0.003
741.3588	-0.0077
741.5359	-0.0072
741.7131	-0.0032
741.8902	-0.0049
742.0673	-0.0055
742.2444	-0.0086
742.4214	-0.0141
742.5985	-0.0066
742.7755	-0.0137
742.9525	-0.0214
743.1295	-0.0052
743.3064	-0.0077
743.4834	-0.0019
743.6603	-0.0201
743.8372	-0.0089
744.0141	-0.0027
744.191	-0.009
744.3678	-0.0047
744.5446	0.0026
744.7215	0.0038
744.8982	-0.001
745.075	-0.0111
745.2518	0.0007
745.4285	-0.0056
745.6052	0.0016
745.7819	0.0062
745.9586	-0.0143
746.1353	-0.0074
746.3119	-0.0099
746.4885	-0.0065
746.6651	-0.007
746.8417	-0.0003
747.0183	0.0015
747.1948	-0.0021
747.3714	-0.0006
747.5479	-0.0038
747.7244	-0.0087
747.9008	0.0007
748.0773	0.0041
748.2537	-0.0073
748.4301	-0.0068
748.6065	0.0018
748.7829	0.0012
748.9593	-0.011
749.1356	-0.0015
749.3119	0.0048
749.4882	-0.0094
749.6645	-0.0025
749.8408	-0.0054
750.017	-0.0116
750.1933	-0.005
750.3695	-0.0038
750.5457	0.0059
750.7218	0.0016
750.898	0.0085
751.0741	-0.0032
751.2502	-0.0014
751.4263	-0.0098
751.6024	0.0027
751.7784	-0.0093
751.9545	-0.0027
752.1305	-0.0079
752.3065	-0.0085
752.4825	0.0016
752.6584	-0.0109
752.8344	-0.0094
753.0103	-0.0114
753.1862	-0.0057
753.3621	-0.0049
753.5379	-0.004
753.7138	-0.0022
753.8896	-0.0027
754.0654	0.0074
754.2412	0.0043
754.417	-0.0009
754.5927	-0.0044
754.7685	-0.0017
754.9442	0.0062
755.1199	0.0105
755.2956	0.0003
755.4712	0.0164
755.6469	0.0105
755.8225	0.0006
755.9981	-0.0087
756.1736	-0.0048
756.3492	0.0034
756.5248	-0.0043
756.7003	0.0064
756.8758	0.0019
757.0513	-0.0009
757.2267	-0.0041
757.4022	0.0046
757.5776	-0.0102
757.753	-0.0065
757.9284	-0.0013
758.1038	0.0059
758.2791	0.0024
758.4545	-0.0124
758.6298	-0.0032
758.8051	-0.0041
758.9803	-0.0043
759.1556	0
759.3308	-0.0095
759.506	0.0067
759.6812	0.009
759.8564	0.0052
760.0316	-0.0016
760.2067	0.0022
760.3819	0.0116
760.557	0.0152
760.732	-0.0052
760.9071	-0.0168
761.0821	0.0024
761.2572	0.0096
761.4322	0.0119
761.6072	0.0019
761.7821	0.0071
761.9571	0.0028
762.132	-0.0023
762.3069	0.0005
762.4818	-0.0072
762.6567	-0.0034
762.8316	0.0066
763.0064	0.0028
763.1812	-0.0027
763.356	-0.0105
763.5308	0.0038
763.7055	-0.0033
763.8803	-0.0057
764.055	-0.0146
764.2297	-0.0036
764.4044	-0.0134
764.579	-0.0082
764.7537	-0.0136
764.9283	0.0011
765.1029	0.0062
765.2775	-0.0101
765.4521	-0.0066
765.6266	-0.0022
765.8011	-0.0075
765.9756	-0.0073
766.1501	0.0015
766.3246	-0.0049
766.4991	-0.0031
766.6735	-0.0022
766.8479	-0.0146
767.0223	0.0044
767.1967	-0.0016
767.371	0.0102
767.5454	-0.0115
767.7197	-0.0042
767.894	0.0026
768.0683	-0.016
768.2425	0.0008
768.4168	0.0039
768.591	-0.0057
768.7652	-0.0106
768.9394	0.0029
769.1135	0.0025
769.2877	-0.0038
769.4618	0.0064
769.6359	0.0006
769.81	0.0012
769.984	0.0015
770.1581	-0.0029
770.3321	-0.0003
770.5061	0.0115
770.6801	0.0045
770.8541	0.0023
771.028	0.0157
771.202	-0.0051
771.3759	-0.0012
771.5498	0.0014
771.7236	0.0017
771.8975	0.0011
772.0713	-0.0048
772.2451	0.0114
772.4189	0.0168
772.5927	0.0022
772.7665	-0.001
772.9402	-0.0013
773.1139	0.0008
773.2876	0.0013
773.4613	0.0018
773.635	-0.0002
773.8086	-0.0124
773.9822	0.0104
774.1558	0.0075
774.3294	-0.0151
774.503	-0.0019
774.6765	0.0046
774.8501	0.0021
775.0236	-0.0082
775.1971	0.0103
775.3705	-0.0091
775.544	-0.0084
775.7174	-0.0068
775.8908	-0.0039
776.0642	-0.0067
776.2376	-0.0118
776.4109	-0.0109
776.5843	-0.0045
776.7576	0.0038
776.9309	0.0076
777.1041	0.0075
777.2774	0.0035
777.4506	-0.0029
777.6238	-0.0115
777.797	-0.0021
777.9702	0.003
778.1434	0.0077
778.3165	-0.0152
778.4896	-0.0033
778.6627	0.0121
778.8358	-0.0048
779.0089	-0.0067
779.1819	-0.0039
779.3549	0.0025
779.5279	0.005
779.7009	-0.0052
779.8739	0.0021
780.0468	0.0004
780.2197	-0.0026
780.3926	0.0054
780.5655	-0.0023
780.7384	-0.0029
780.9112	0.0006
781.0841	-0.0054
781.2569	0.0016
781.4297	0.0069
781.6024	0.0066
781.7752	0.0071
781.9479	-0.0008
782.1206	-0.0011
782.2933	-0.0059
782.466	0.0041
782.6386	0.0043
782.8113	-0.0072
782.9839	-0.0013
783.1565	0.0071
783.329	0.007
783.5016	-0.0018
783.6741	0.0021
783.8466	-0.0057
784.0191	0.0171
784.1916	-0.0004
784.3641	0.003
784.5365	-0.0017
784.7089	-0.0109
784.8813	-0.0009
785.0537	-0.0032
785.2261	-0.001
785.3984	-0.0187
785.5707	-0.0012
785.743	-0.0029
785.9153	-0.0029
786.0876	0.0059
786.2598	-0.009
786.432	-0.0032
786.6042	0.002
786.7764	-0.0075
786.9486	0.0035
787.1207	-0.0119
787.2928	0.0039
787.4649	-0.0058
787.637	0.002
787.8091	-0.0007
787.9811	-0.0122
788.1532	-0.0146
788.3252	-0.0011
788.4972	-0.0073
788.6691	-0.0001
788.8411	0.0145
789.013	-0.0138
789.1849	0.0139
789.3568	-0.0034
789.5287	-0.0018
789.7005	-0.0049
789.8723	0.0085
790.0442	0.0154
790.2159	0.0034
790.3877	-0.0064
790.5595	-0.0199
790.7312	-0.0052
790.9029	-0.0024
791.0746	-0.0191
791.2463	-0.008
791.4179	0.005
791.5896	-0.0147
791.7612	0.0005
791.9328	-0.0013
792.1044	-0.0138
792.2759	-0.0225
792.4474	0.0013
792.619	-0.0014
792.7905	0.0097
792.9619	0.013
793.1334	0.0114
793.3048	-0.0004
793.4762	0.0019
793.6476	-0.001
793.819	-0.0077
793.9904	-0.0016
794.1617	-0.0212
794.333	0.0043
794.5043	0.0051
794.6756	-0.0132
794.8469	-0.0038
795.0181	-0.004
795.1893	-0.0003
795.3605	-0.0057
795.5317	-0.0045
795.7029	0.0002
795.874	0.012
796.0452	-0.0054
796.2163	-0.0077
796.3873	0.0247
796.5584	0.0115
796.7294	-0.0101
796.9005	0.0062
797.0715	0.0032
797.2425	-0.004
797.4134	0.0054
797.5844	-0.006
797.7553	-0.0127
797.9262	0.0026
798.0971	-0.0181
798.2679	-0.0099
798.4388	-0.0244
798.6096	-0.0173
798.7804	-0.0022
798.9512	0.0036
799.122	-0.0115
799.2927	0.0016
799.4635	0.0132
799.6342	-0.0091
799.8049	0.003
799.9755	0.0084
800.1462	-0.0047
800.3168	-0.0011
800.4874	0.0018
800.658	0.0159
800.8286	0.0071
800.9991	0.0083
801.1696	0.0024
801.3402	-0.0003
801.5106	0.0097
801.6811	0.0042
801.8516	0.0158
802.022	0.0161
802.1924	-0.0076
802.3628	0.0114
802.5332	0.0009
802.7035	0.0211
802.8739	-0.0093
803.0442	0.0005
803.2145	0.0118
803.3847	-0.0176
803.555	-0.0014
803.7252	-0.0178
803.8954	-0.0061
804.0656	-0.0163
804.2358	0.0025
804.4059	0.0128
804.5761	-0.0135
804.7462	0.006
804.9163	-0.0071
805.0864	-0.0295
805.2564	-0.0033
805.4264	0.0007
805.5965	-0.0097
805.7665	-0.008
805.9364	0.0048
806.1064	0.0217
806.2763	-0.0103
806.4462	0.0024
806.6161	-0.0102
806.786	0.0151
806.9559	-0.0002
807.1257	0.0015
807.2955	-0.0126
807.4653	-0.0105
807.6351	-0.0196
807.8048	-0.0083
807.9746	0.0053
808.1443	0.0015
808.314	-0.0011
808.4837	0.013
808.6533	0.0003
808.8229	0.0121
808.9926	-0.0009
809.1622	0.002
809.3317	-0.0121
809.5013	-0.0051
809.6708	0.006
809.8403	0.0144
810.0098	0.0075
810.1793	0.0041
810.3488	0.0085
810.5182	-0.0085
810.6876	0.0062
810.857	-0.0218
811.0264	0.0169
811.1958	0.0063
811.3651	0.0099
811.5344	-0.0002
811.7037	-0.0286
811.873	-0.0233
812.0422	-0.0187
812.2115	-0.0194
812.3807	0.0108
812.5499	-0.0002
812.7191	0.0088
812.8882	-0.013
813.0574	-0.007
813.2265	-0.0157
813.3956	0.0116
813.5646	-0.0046
813.7337	-0.0259
813.9027	0.0028
814.0718	0.0027
814.2407	0.0199
814.4097	0.0051
814.5787	-0.037
814.7476	-0.0116
814.9165	-0.0082
815.0854	-0.021
815.2543	-0.0163
815.4232	0.0053
815.592	-0.0062
815.7608	-0.0144
815.9296	-0.0054
816.0984	0.018
816.2671	0.0097
816.4359	-0.0047
816.6046	-0.0036
816.7733	-0.0045
816.942	-0.0187
817.1106	-0.0026
817.2793	-0.0107
817.4479	-0.0123
817.6165	-0.0078
817.785	-0.0102
817.9536	-0.0185
818.1221	0.0125
818.2906	0.0036
818.4591	-0.0203
818.6276	-0.0139
818.7961	-0.0123
818.9645	0.0156
819.1329	0.0106
819.3013	0.0032
819.4697	-0.0094
819.638	-0.012
819.8064	-0.0066
819.9747	0.0029
820.143	-0.0024
820.3113	-0.0355
820.4795	0.0047
820.6477	0.0039
820.816	0.0271
820.9842	-0.0049
821.1523	-0.012
821.3205	-0.0024
821.4886	-0.0148
821.6567	-0.0143
821.8248	0.0106
821.9929	0.0228
822.1609	0.0108
822.329	0.0184
822.497	0.0169
822.665	-0.0123
822.833	-0.0125
823.0009	-0.0285
823.1688	0.0039
823.3367	0.0075
823.5046	0.0098
823.6725	0.0166
823.8404	-0.0042
824.0082	0.0033
824.176	0.0085
824.3438	0.0272
824.5116	-0.0143
824.6793	0.0055
824.847	-0.0165
825.0147	-0.01
825.1824	0.0299
825.3501	0.0258
825.5177	-0.0012
825.6854	-0.0101
825.853	0.0159
826.0206	-0.0208
826.1881	-0.0155
826.3557	-0.0456
826.5232	0.0023
826.6907	-0.0435
826.8582	-0.0396
827.0257	-0.042
827.1931	-0.0123
827.3605	0.0111
827.528	0.0163
827.6953	-0.0433
827.8627	-0.0195
828.03	0.0183
828.1974	-0.0078
828.3647	-0.0259
828.532	-0.0206
828.6992	-0.0177
828.8665	0.0172
829.0337	-0.0196
829.2009	0.0037
829.3681	0.0147
829.5352	0.0058
829.7024	-0.0314
829.8695	-0.0317
830.0366	0.0281
830.2037	-0.0003
830.3707	0.0046
830.5378	0.0088
830.7048	0.0073
830.8718	-0.0333
831.0388	-0.0361
831.2057	0.0176
831.3727	0.021
831.5396	-0.0405
831.7065	-0.0128
831.8734	0.0269
832.0402	-0.0224
832.2071	0.0025
832.3739	-0.0221
832.5407	-0.0168
832.7075	-0.0235
832.8742	-0.0306
833.041	-0.0506
833.2077	-0.001
833.3744	0.0097
833.541	0.0057
833.7077	-0.0223
833.8743	0.0095
834.0409	0.0002
834.2075	0.0311
834.3741	0.0027
834.5407	0.0021
834.7072	0.0184
834.8737	-0.0161
835.0402	-0.0252
835.2067	-0.0103
835.3731	-0.0004
835.5395	0.0205
835.706	0.0366
835.8723	0.0082
836.0387	-0.0078
836.2051	0.0101
836.3714	-0.0005
836.5377	0.003
836.704	-0.0521
836.8703	0.0249
837.0365	-0.0156
837.2027	-0.0388
837.3689	0.0296
837.5351	0.0124
837.7013	-0.0023
837.8674	-0.0252
838.0335	-0.0132
838.1997	0.006
838.3657	-0.0807
838.5318	0.0039
838.6978	0.0347
838.8639	0.0464
839.0299	-0.0281
839.1958	0.005
839.3618	0.0063
839.5277	0.0268
839.6937	0.0061
839.8596	-0.0775
840.0254	0.0329
840.1913	0.0086
840.3571	-0.0015
840.523	-0.0341
840.6888	-0.0526
840.8545	-0.0204
841.0203	-0.0285
841.186	0.0107
841.3517	0.0214
841.5174	0.0082
841.6831	0.0098
841.8488	-0.0376
842.0144	0.0336
842.18	-0.0313
842.3456	0.0166
842.5112	-0.0234
842.6767	-0.0471
842.8422	-0.0306
843.0077	-0.0352
843.1732	0.0738
843.3387	-0.0334
843.5042	-0.0257
843.6696	-0.0388
843.835	-0.0496
844.0004	0.0305
844.1657	0.0167
844.3311	-0.0532
844.4964	-0.0697
844.6617	-0.0085
844.827	-0.0288
844.9923	0.0399
845.1575	-0.0102
845.3227	0.0145
845.4879	-0.0414
845.6531	-0.0549
845.8183	-0.0338
845.9834	-0.0058
846.1485	-0.0007
846.3136	0.0004
846.4787	-0.0828
846.6438	0.043
846.8088	0.0149
846.9738	-0.0528
847.1388	0.0251
847.3038	-0.0085
847.4687	-0.1326
847.6337	0.0286
847.7986	-0.0101
847.9635	-0.0561
848.1284	0.0558
848.2932	0.0227
848.458	0.0074
848.6228	0.0366
848.7876	0.0559
848.9524	-0.0978
849.1172	-0.0522
849.2819	-0.0459
849.4466	-0.083
849.6113	-0.1329
849.7759	0.0027
849.9406	-0.0933
850.1052	0.0492
850.2698	-0.0305
850.4344	-0.0316
850.599	-0.0943
850.7635	0.0542
850.928	-0.1143
851.0925	-0.038
851.257	0.0454
851.4215	0.0655
851.5859	-0.0847
851.7503	-0.0277
851.9147	0.0567
852.0791	-0.1028
852.2434	-0.0677
852.4078	0.0553
852.5721	0.1315
852.7364	0.0281
852.9007	-0.1849
853.0649	0.0187
853.2291	-0.0235
853.3934	0.0549
853.5575	0.0378
853.7217	0.0065
853.8859	-0.279
854.05	-0.1107
854.2141	0.0563
854.3782	-0.0863
854.5423	-0.0483
854.7063	0.1445
854.8703	-0.0285
855.0343	-0.1357
855.1983	-0.1112
855.3623	0.1465
855.5262	0.1828
855.6901	-0.0183
855.854	-0.0235
856.0179	-0.0145
856.1818	-0.0077
856.3456	-0.1471
856.5094	-0.002
856.6732	-0.1505
856.837	-0.0024
857.0008	-0.0047
857.1645	-0.0198
857.3282	-0.122
857.4919	0.1013
857.6556	-0.0598
857.8192	-0.0715
857.9828	-0.0423
858.1465	-0.0065
858.31	-0.0705
858.4736	-0.0896
858.6372	-0.134
858.8007	-0.0852
858.9642	0.0202
859.1277	0.072
859.2911	0.227
859.4546	-0.0186
859.618	-0.4781
859.7814	0.0704
859.9448	0.1823
860.1081	-0.0932
860.2715	0.0615
860.4348	0.0318
860.5981	0.1528
860.7614	0.0472
860.9246	-0.2275
861.0879	-0.1389
861.2511	0.0041
861.4143	-0.2478
861.5774	0.07
861.7406	-0.1812
861.9037	0.0135
862.0668	0.2362
862.2299	-0.1388
862.393	-0.3239
862.556	0.2257
862.7191	-0.2676
862.8821	-0.4457
863.0451	0.1073
863.208	0.0741
863.371	0.0539
863.5339	-0.2806
863.6968	0.1471
863.8597	0.8974
864.0225	-0.207
864.1854	-0.1913
864.3482	-0
864.511	0.3646
864.6737	0.2096
864.8365	-0.132
864.9992	-0.1425
865.1619	-0.2252
865.3246	-0.0095
865.4873	-0.151
865.65	0.0211
865.8126	-0.0898
865.9752	0.0184
866.1378	-0.0632
866.3004	-0
866.4629	0.2548
866.6254	-0.1538
866.7879	0.2962
866.9504	-0
867.1129	-0
867.2753	-0.092
867.4377	0.3345
867.6001	-0.305
867.7625	0.4544
867.9249	-0.63
868.0872	-0.0542
868.2495	0.6071
868.4118	0.3414
868.5741	-0.5258
868.7363	-0.1354
868.8986	0.4934
869.0608	-0.2513
869.223	0.2792
869.3851	0.2141
869.5473	1.0033
869.7094	-0.0132
869.8715	-0.0558
870.0336	-0
870.1957	-0.8243
870.3577	-0.5921
870.5197	0.6657
870.6817	0.0995
870.8437	-0.0174
871.0057	-0
871.1676	-0.37
871.3295	-0.5249
871.4914	0.0645
871.6533	-0.1405
871.8151	-0.1686
871.977	-0
872.1388	-0
872.3006	-0
872.4623	-0
872.6241	-0
872.7858	0.5147
872.9475	-0.2911
873.1092	-0.1769
873.2709	0.1113
873.4325	0.4378
873.5941	-0
873.7557	-0
873.9173	-0.4709
874.0789	-0
874.2404	-0
874.4019	0.1084
874.5634	-0.1725
874.7249	-0.1766
874.8863	0.0509
875.0478	-0.0489
875.2092	-0.467
875.3706	0.8105
875.5319	-0.7314
875.6933	-0
875.8546	-0.1296
876.0159	0.3352
876.1772	0.0102
876.3385	-0.0774
876.4997	0.4077
876.6609	-0.347
876.8221	-0
876.9833	-0
877.1445	-0
877.3056	0.0459
877.4667	0.3407
877.6278	-0
877.7889	-0.1787
877.9499	0.1165
878.111	-0
878.272	-0.8219
878.433	0.1661
878.5939	-0
878.7549	-0.0309
878.9158	-0.664
879.0767	0.025
879.2376	-0
879.3984	-0
879.5593	0.1794
879.7201	0.6644
879.8809	-0.5707
880.0417	-0
880.2024	-0.16
880.3632	-0
880.5239	0.3953
880.6846	0.699
880.8452	-1.4624
881.0059	-0
881.1665	-0.1193
881.3271	0.1075
881.4877	-0
881.6483	-0.712
881.8088	0.0744
881.9693	-0
882.1298	-0
882.2903	-0
