Data from MonoPyChalIsomerACN10uM410nmA_Absorbance_14-53-31-473.txt Node
Date: Fri Jul 05 14:53:31 BST 2024
User: LASERRRRR
Spectrometer: FLMT03099
Trigger mode: 0
Integration Time (sec): 1.000000E-1
Scans to average: 1
Electric dark correction enabled: true
Nonlinearity correction enabled: false
Boxcar width: 0
XAxis mode: Wavelengths
Number of Pixels in Spectrum: 3648
>>>>>Begin Spectral Data<<<<<
179.3399	-0.3094
179.5586	-0.3094
179.7771	-0.3094
179.9957	-0
180.2143	-0.0866
180.4329	0.3097
180.6514	0.2748
180.8699	-0
181.0885	0.5901
181.307	0.3116
181.5255	-0
181.744	-0.3317
181.9625	-0.1589
182.181	-0
182.3994	-0
182.6179	0.315
182.8363	0.0152
183.0547	-0.201
183.2732	-0.064
183.4916	0.643
183.71	0.1048
183.9284	0.4404
184.1467	0.1234
184.3651	0.0828
184.5835	0.1359
184.8018	0.2551
185.0201	0.275
185.2385	0.0363
185.4568	-0.0008
185.6751	0.0883
185.8934	0.5206
186.1117	0.1495
186.3299	0.0879
186.5482	0.2368
186.7664	-0.1096
186.9847	-0.1299
187.2029	0.0093
187.4211	-0.0191
187.6393	0.2779
187.8575	-0.1239
188.0757	0.3548
188.2939	0.1673
188.512	-0.1818
188.7302	0.2866
188.9483	-0.0975
189.1665	0.147
189.3846	-0.0827
189.6027	0.2015
189.8208	0.0899
190.0389	0.062
190.257	0.2237
190.475	0.3195
190.6931	0.0849
190.9111	0.3614
191.1292	0.0874
191.3472	0.46
191.5652	0.2267
191.7832	0.4347
192.0012	0.5627
192.2192	0.4411
192.4371	0.5157
192.6551	0.4514
192.873	0.5441
193.091	0.3251
193.3089	0.7721
193.5268	0.4303
193.7447	0.823
193.9626	0.621
194.1805	0.7615
194.3984	0.9266
194.6162	0.683
194.8341	0.6242
195.0519	0.4663
195.2697	0.7887
195.4875	0.6685
195.7054	0.6337
195.9231	0.4712
196.1409	0.6876
196.3587	0.7216
196.5765	0.5868
196.7942	0.4947
197.012	0.6263
197.2297	0.5826
197.4474	0.7909
197.6651	0.5377
197.8828	0.6112
198.1005	0.7012
198.3182	0.6174
198.5358	0.8895
198.7535	0.7072
198.9711	0.4779
199.1888	0.6139
199.4064	0.594
199.624	0.6003
199.8416	0.6041
200.0592	0.5547
200.2767	0.7865
200.4943	0.6265
200.7119	0.7926
200.9294	0.6569
201.1469	0.5802
201.3645	0.5866
201.582	0.5119
201.7995	0.503
202.017	0.7275
202.2344	0.6818
202.4519	0.6258
202.6694	0.6928
202.8868	0.6229
203.1042	0.7586
203.3217	0.6561
203.5391	0.6617
203.7565	0.6279
203.9739	0.6953
204.1913	0.5925
204.4086	0.7433
204.626	0.7538
204.8433	0.669
205.0607	0.6717
205.278	0.6175
205.4953	0.6856
205.7126	0.6047
205.9299	0.7696
206.1472	0.7305
206.3644	0.6198
206.5817	0.6599
206.7989	0.7088
207.0162	0.6289
207.2334	0.6781
207.4506	0.7263
207.6678	0.6028
207.885	0.6248
208.1022	0.6858
208.3194	0.6419
208.5365	0.6529
208.7537	0.617
208.9708	0.5799
209.1879	0.5938
209.405	0.6178
209.6222	0.7275
209.8392	0.6419
210.0563	0.6333
210.2734	0.6484
210.4905	0.515
210.7075	0.6395
210.9245	0.5875
211.1416	0.6412
211.3586	0.6401
211.5756	0.5493
211.7926	0.6166
212.0096	0.5615
212.2265	0.5797
212.4435	0.5504
212.6604	0.5369
212.8774	0.5717
213.0943	0.6289
213.3112	0.5289
213.5281	0.5026
213.745	0.5016
213.9619	0.5417
214.1788	0.496
214.3956	0.471
214.6125	0.4436
214.8293	0.4506
215.0461	0.4772
215.2629	0.4655
215.4798	0.4918
215.6965	0.4398
215.9133	0.4419
216.1301	0.4039
216.3469	0.4332
216.5636	0.4404
216.7803	0.3791
216.9971	0.4094
217.2138	0.3618
217.4305	0.3562
217.6472	0.3437
217.8639	0.3643
218.0805	0.3491
218.2972	0.3183
218.5138	0.3145
218.7305	0.3305
218.9471	0.3209
219.1637	0.2829
219.3803	0.2622
219.5969	0.273
219.8135	0.2335
220.0301	0.2505
220.2466	0.2621
220.4632	0.2083
220.6797	0.2312
220.8962	0.2403
221.1127	0.2245
221.3292	0.2426
221.5457	0.2364
221.7622	0.2291
221.9787	0.2421
222.1951	0.2444
222.4116	0.259
222.628	0.2496
222.8444	0.224
223.0608	0.2458
223.2772	0.2503
223.4936	0.2697
223.71	0.2393
223.9264	0.2488
224.1427	0.2436
224.3591	0.2352
224.5754	0.2656
224.7917	0.2668
225.008	0.2759
225.2243	0.2544
225.4406	0.2761
225.6569	0.2548
225.8732	0.2467
226.0894	0.2472
226.3057	0.2565
226.5219	0.2767
226.7381	0.2523
226.9543	0.2548
227.1705	0.2731
227.3867	0.2714
227.6029	0.2828
227.8191	0.295
228.0352	0.2695
228.2513	0.2995
228.4675	0.297
228.6836	0.2826
228.8997	0.2783
229.1158	0.303
229.3319	0.2959
229.548	0.3047
229.764	0.319
229.9801	0.3127
230.1961	0.3102
230.4121	0.3282
230.6282	0.3226
230.8442	0.3068
231.0602	0.3488
231.2761	0.3485
231.4921	0.3442
231.7081	0.3472
231.924	0.3454
232.14	0.351
232.3559	0.3292
232.5718	0.3593
232.7877	0.3469
233.0036	0.3397
233.2195	0.3493
233.4353	0.3574
233.6512	0.3709
233.867	0.3571
234.0829	0.3447
234.2987	0.3564
234.5145	0.3658
234.7303	0.3621
234.9461	0.3646
235.1619	0.3829
235.3776	0.3642
235.5934	0.3744
235.8091	0.3586
236.0249	0.3816
236.2406	0.3636
236.4563	0.3511
236.672	0.3865
236.8877	0.3866
237.1034	0.3872
237.319	0.3909
237.5347	0.4018
237.7503	0.3918
237.966	0.4
238.1816	0.3951
238.3972	0.4179
238.6128	0.3968
238.8284	0.4051
239.0439	0.4029
239.2595	0.3753
239.475	0.3931
239.6906	0.3841
239.9061	0.409
240.1216	0.3887
240.3371	0.419
240.5526	0.4041
240.7681	0.3954
240.9836	0.3853
241.199	0.4
241.4145	0.3714
241.6299	0.3974
241.8453	0.3795
242.0607	0.3837
242.2761	0.3639
242.4915	0.3951
242.7069	0.3725
242.9223	0.385
243.1376	0.3608
243.353	0.3488
243.5683	0.3624
243.7836	0.3548
243.9989	0.3579
244.2142	0.3169
244.4295	0.3475
244.6448	0.321
244.86	0.3116
245.0753	0.3103
245.2905	0.3089
245.5057	0.2894
245.721	0.2884
245.9362	0.2898
246.1514	0.2982
246.3665	0.2801
246.5817	0.2672
246.7969	0.2661
247.012	0.2645
247.2271	0.2519
247.4423	0.2553
247.6574	0.246
247.8725	0.2457
248.0876	0.2418
248.3026	0.2424
248.5177	0.2394
248.7328	0.2175
248.9478	0.2163
249.1628	0.2275
249.3779	0.2292
249.5929	0.2142
249.8079	0.2402
250.0228	0.2072
250.2378	0.2068
250.4528	0.2
250.6677	0.1952
250.8827	0.2046
251.0976	0.1993
251.3125	0.2004
251.5274	0.1713
251.7423	0.1853
251.9572	0.1938
252.172	0.1863
252.3869	0.1939
252.6017	0.1691
252.8166	0.1847
253.0314	0.1754
253.2462	0.176
253.461	0.1924
253.6758	0.1571
253.8906	0.1787
254.1053	0.1677
254.3201	0.174
254.5348	0.1753
254.7496	0.1889
254.9643	0.1613
255.179	0.1679
255.3937	0.1681
255.6083	0.1746
255.823	0.1686
256.0377	0.1676
256.2523	0.16
256.467	0.1482
256.6816	0.163
256.8962	0.1547
257.1108	0.1581
257.3254	0.1673
257.54	0.1557
257.7545	0.1703
257.9691	0.171
258.1836	0.1691
258.3981	0.1785
258.6127	0.1694
258.8272	0.1642
259.0417	0.1717
259.2561	0.162
259.4706	0.175
259.6851	0.1748
259.8995	0.1636
260.114	0.1652
260.3284	0.1635
260.5428	0.1592
260.7572	0.168
260.9716	0.1589
261.186	0.1653
261.4003	0.1559
261.6147	0.1751
261.829	0.1578
262.0433	0.1561
262.2577	0.1656
262.472	0.18
262.6863	0.1523
262.9005	0.1567
263.1148	0.1595
263.3291	0.1506
263.5433	0.1735
263.7576	0.1638
263.9718	0.163
264.186	0.1558
264.4002	0.1615
264.6144	0.1641
264.8286	0.1715
265.0427	0.1612
265.2569	0.1642
265.471	0.1621
265.6851	0.1589
265.8993	0.1599
266.1134	0.1606
266.3275	0.1527
266.5415	0.156
266.7556	0.1693
266.9697	0.1614
267.1837	0.1619
267.3978	0.1718
267.6118	0.1676
267.8258	0.1688
268.0398	0.1498
268.2538	0.1882
268.4677	0.1708
268.6817	0.1637
268.8957	0.1808
269.1096	0.1704
269.3235	0.1808
269.5374	0.1632
269.7514	0.156
269.9652	0.1712
270.1791	0.1655
270.393	0.16
270.6068	0.1561
270.8207	0.1591
271.0345	0.1544
271.2483	0.159
271.4622	0.1591
271.676	0.1727
271.8897	0.1467
272.1035	0.1629
272.3173	0.1528
272.531	0.154
272.7448	0.1488
272.9585	0.1477
273.1722	0.1686
273.3859	0.1704
273.5996	0.1521
273.8133	0.1618
274.0269	0.1526
274.2406	0.1532
274.4542	0.1575
274.6679	0.16
274.8815	0.1611
275.0951	0.1622
275.3087	0.1795
275.5223	0.1615
275.7358	0.162
275.9494	0.165
276.1629	0.1593
276.3765	0.16
276.59	0.1665
276.8035	0.1755
277.017	0.1673
277.2305	0.1546
277.444	0.1652
277.6574	0.1699
277.8709	0.1614
278.0843	0.1616
278.2978	0.1604
278.5112	0.1639
278.7246	0.1722
278.938	0.1704
279.1513	0.1658
279.3647	0.1695
279.5781	0.179
279.7914	0.1738
280.0047	0.1831
280.2181	0.157
280.4314	0.1617
280.6447	0.1678
280.8579	0.1626
281.0712	0.1596
281.2845	0.1715
281.4977	0.1621
281.711	0.1678
281.9242	0.157
282.1374	0.1706
282.3506	0.1612
282.5638	0.1688
282.7769	0.1581
282.9901	0.1671
283.2033	0.1763
283.4164	0.1671
283.6295	0.1609
283.8426	0.1621
284.0557	0.1623
284.2688	0.1815
284.4819	0.1661
284.695	0.1597
284.908	0.1688
285.1211	0.1608
285.3341	0.1628
285.5471	0.165
285.7601	0.1701
285.9731	0.162
286.1861	0.1606
286.3991	0.1622
286.612	0.1651
286.825	0.1648
287.0379	0.1668
287.2508	0.1598
287.4637	0.1612
287.6766	0.1523
287.8895	0.1523
288.1024	0.1745
288.3152	0.1586
288.5281	0.1454
288.7409	0.1627
288.9538	0.15
289.1666	0.159
289.3794	0.1505
289.5922	0.1513
289.8049	0.1562
290.0177	0.1421
290.2304	0.1598
290.4432	0.1527
290.6559	0.1501
290.8686	0.1619
291.0813	0.1535
291.294	0.1457
291.5067	0.1593
291.7194	0.1424
291.932	0.1674
292.1447	0.1538
292.3573	0.1405
292.5699	0.157
292.7825	0.1508
292.9951	0.1419
293.2077	0.1561
293.4203	0.1401
293.6328	0.1383
293.8454	0.1558
294.0579	0.155
294.2704	0.1438
294.4829	0.1306
294.6954	0.1454
294.9079	0.1359
295.1204	0.138
295.3328	0.1504
295.5453	0.1416
295.7577	0.1481
295.9701	0.1389
296.1825	0.1499
296.3949	0.1416
296.6073	0.142
296.8197	0.133
297.0321	0.1575
297.2444	0.1331
297.4567	0.1522
297.6691	0.1475
297.8814	0.1353
298.0937	0.1365
298.306	0.1438
298.5182	0.1517
298.7305	0.1473
298.9428	0.1425
299.155	0.1485
299.3672	0.1385
299.5794	0.1379
299.7916	0.1486
300.0038	0.1433
300.216	0.14
300.4282	0.1483
300.6403	0.14
300.8525	0.151
301.0646	0.1381
301.2767	0.1542
301.4888	0.1397
301.7009	0.1408
301.913	0.1345
302.125	0.1333
302.3371	0.1354
302.5491	0.1573
302.7612	0.1475
302.9732	0.1424
303.1852	0.1508
303.3972	0.1451
303.6092	0.1353
303.8211	0.127
304.0331	0.1399
304.245	0.1352
304.457	0.1288
304.6689	0.1352
304.8808	0.1404
305.0927	0.1356
305.3046	0.133
305.5164	0.1428
305.7283	0.1354
305.9401	0.1319
306.152	0.1334
306.3638	0.141
306.5756	0.1256
306.7874	0.1309
306.9992	0.1372
307.2109	0.132
307.4227	0.1149
307.6344	0.137
307.8462	0.1332
308.0579	0.1292
308.2696	0.1253
308.4813	0.1135
308.693	0.1208
308.9046	0.121
309.1163	0.1172
309.328	0.1257
309.5396	0.1156
309.7512	0.1272
309.9628	0.1172
310.1744	0.1135
310.386	0.113
310.5976	0.1238
310.8091	0.1117
311.0207	0.117
311.2322	0.1196
311.4437	0.1182
311.6552	0.1125
311.8667	0.1183
312.0782	0.1001
312.2897	0.0992
312.5012	0.1214
312.7126	0.1079
312.924	0.103
313.1355	0.1183
313.3469	0.1103
313.5583	0.1159
313.7696	0.1046
313.981	0.1137
314.1924	0.1181
314.4037	0.1083
314.6151	0.1213
314.8264	0.1112
315.0377	0.1036
315.249	0.1113
315.4603	0.1182
315.6716	0.1095
315.8828	0.0961
316.0941	0.1115
316.3053	0.1152
316.5165	0.1038
316.7277	0.1041
316.9389	0.1126
317.1501	0.0986
317.3613	0.1046
317.5724	0.0925
317.7836	0.1122
317.9947	0.1058
318.2058	0.1097
318.417	0.0949
318.6281	0.1045
318.8391	0.0941
319.0502	0.115
319.2613	0.1055
319.4723	0.0983
319.6834	0.1196
319.8944	0.0986
320.1054	0.1109
320.3164	0.1129
320.5274	0.1054
320.7383	0.1152
320.9493	0.1161
321.1602	0.1256
321.3712	0.1075
321.5821	0.1116
321.793	0.1165
322.0039	0.1056
322.2148	0.1057
322.4257	0.1109
322.6365	0.1208
322.8474	0.118
323.0582	0.11
323.269	0.1252
323.4798	0.1221
323.6906	0.1235
323.9014	0.1123
324.1122	0.125
324.3229	0.1077
324.5337	0.1096
324.7444	0.1047
324.9551	0.1354
325.1658	0.1114
325.3765	0.1124
325.5872	0.1212
325.7979	0.1243
326.0085	0.1163
326.2192	0.1212
326.4298	0.109
326.6404	0.1081
326.851	0.1091
327.0616	0.1154
327.2722	0.1173
327.4828	0.1215
327.6933	0.1135
327.9039	0.1261
328.1144	0.13
328.3249	0.1395
328.5354	0.1211
328.7459	0.1235
328.9564	0.1161
329.1669	0.1194
329.3773	0.1159
329.5878	0.117
329.7982	0.1121
330.0086	0.1128
330.219	0.1269
330.4294	0.1136
330.6398	0.1243
330.8502	0.1139
331.0605	0.1194
331.2708	0.118
331.4812	0.1249
331.6915	0.1242
331.9018	0.12
332.1121	0.1203
332.3224	0.1271
332.5326	0.1186
332.7429	0.1104
332.9531	0.1311
333.1633	0.1253
333.3735	0.1197
333.5837	0.126
333.7939	0.1149
334.0041	0.1222
334.2143	0.1202
334.4244	0.1132
334.6346	0.1072
334.8447	0.126
335.0548	0.1147
335.2649	0.1152
335.475	0.1295
335.685	0.1075
335.8951	0.12
336.1051	0.1301
336.3152	0.1356
336.5252	0.1336
336.7352	0.1181
336.9452	0.1304
337.1552	0.1357
337.3652	0.1287
337.5751	0.1273
337.7851	0.1263
337.995	0.1139
338.2049	0.1331
338.4148	0.1174
338.6247	0.1334
338.8346	0.1234
339.0445	0.1098
339.2543	0.1288
339.4642	0.1321
339.674	0.1132
339.8838	0.1288
340.0936	0.1196
340.3034	0.138
340.5132	0.131
340.7229	0.1346
340.9327	0.1351
341.1424	0.1292
341.3522	0.1439
341.5619	0.1418
341.7716	0.1419
341.9813	0.1308
342.1909	0.1343
342.4006	0.1334
342.6102	0.1506
342.8199	0.1393
343.0295	0.1498
343.2391	0.1331
343.4487	0.1477
343.6583	0.1284
343.8679	0.1378
344.0774	0.1363
344.287	0.1468
344.4965	0.1309
344.706	0.137
344.9155	0.1318
345.125	0.1416
345.3345	0.1467
345.544	0.1359
345.7534	0.1443
345.9629	0.1262
346.1723	0.1312
346.3817	0.1395
346.5911	0.1381
346.8005	0.1562
347.0099	0.1465
347.2193	0.1513
347.4286	0.143
347.638	0.1486
347.8473	0.1351
348.0566	0.1467
348.2659	0.1566
348.4752	0.1472
348.6845	0.1322
348.8937	0.1375
349.103	0.1479
349.3122	0.1291
349.5214	0.1373
349.7306	0.1444
349.9398	0.1451
350.149	0.1573
350.3582	0.1402
350.5674	0.1588
350.7765	0.1448
350.9856	0.1412
351.1948	0.1466
351.4039	0.1269
351.613	0.1461
351.822	0.1433
352.0311	0.1505
352.2402	0.1537
352.4492	0.1536
352.6582	0.1407
352.8672	0.1449
353.0762	0.1524
353.2852	0.1443
353.4942	0.1441
353.7032	0.1497
353.9121	0.1651
354.1211	0.1481
354.33	0.155
354.5389	0.1588
354.7478	0.1414
354.9567	0.1469
355.1655	0.1324
355.3744	0.1558
355.5833	0.1587
355.7921	0.169
356.0009	0.1573
356.2097	0.1717
356.4185	0.1654
356.6273	0.1656
356.8361	0.1725
357.0448	0.1563
357.2536	0.1402
357.4623	0.1618
357.671	0.1614
357.8797	0.1741
358.0884	0.1552
358.2971	0.1678
358.5057	0.1691
358.7144	0.1729
358.923	0.1624
359.1316	0.1674
359.3402	0.1702
359.5488	0.1653
359.7574	0.1739
359.966	0.1704
360.1746	0.1713
360.3831	0.1718
360.5916	0.1649
360.8002	0.166
361.0087	0.1802
361.2172	0.1772
361.4256	0.1791
361.6341	0.1851
361.8426	0.181
362.051	0.1694
362.2594	0.1719
362.4678	0.1688
362.6762	0.1906
362.8846	0.1864
363.093	0.174
363.3014	0.1714
363.5097	0.1749
363.718	0.1701
363.9264	0.1718
364.1347	0.1656
364.343	0.1764
364.5513	0.1944
364.7595	0.1889
364.9678	0.1791
365.176	0.1815
365.3842	0.1759
365.5925	0.1792
365.8007	0.1878
366.0089	0.1716
366.217	0.1807
366.4252	0.1826
366.6333	0.1914
366.8415	0.182
367.0496	0.1756
367.2577	0.1916
367.4658	0.1955
367.6739	0.1879
367.882	0.1849
368.09	0.1718
368.2981	0.1815
368.5061	0.1904
368.7141	0.187
368.9221	0.1959
369.1301	0.1946
369.3381	0.1841
369.5461	0.1763
369.754	0.179
369.962	0.2015
370.1699	0.1833
370.3778	0.1927
370.5857	0.1856
370.7936	0.2046
371.0015	0.1926
371.2093	0.1919
371.4172	0.2023
371.625	0.1857
371.8328	0.1909
372.0406	0.1994
372.2484	0.1945
372.4562	0.2006
372.664	0.1855
372.8717	0.1865
373.0795	0.1687
373.2872	0.1947
373.4949	0.1927
373.7026	0.2002
373.9103	0.2128
374.118	0.1903
374.3256	0.193
374.5333	0.1926
374.7409	0.1837
374.9485	0.2005
375.1561	0.205
375.3637	0.2042
375.5713	0.1944
375.7789	0.202
375.9864	0.2121
376.194	0.1882
376.4015	0.2011
376.609	0.2083
376.8165	0.195
377.024	0.1863
377.2315	0.1741
377.4389	0.1948
377.6464	0.2046
377.8538	0.1843
378.0612	0.1978
378.2686	0.1907
378.476	0.2186
378.6834	0.207
378.8908	0.2062
379.0981	0.1993
379.3055	0.2101
379.5128	0.2023
379.7201	0.2043
379.9274	0.1806
380.1347	0.2021
380.342	0.2187
380.5492	0.192
380.7565	0.2054
380.9637	0.2087
381.1709	0.1997
381.3781	0.1934
381.5853	0.2029
381.7925	0.2124
381.9997	0.2023
382.2068	0.22
382.4139	0.2091
382.6211	0.1846
382.8282	0.189
383.0353	0.1978
383.2424	0.1977
383.4494	0.2102
383.6565	0.1944
383.8635	0.2075
384.0706	0.2029
384.2776	0.1892
384.4846	0.192
384.6916	0.2018
384.8986	0.201
385.1055	0.2122
385.3125	0.1923
385.5194	0.1939
385.7263	0.228
385.9333	0.2068
386.1402	0.1921
386.347	0.2019
386.5539	0.2011
386.7608	0.2152
386.9676	0.187
387.1744	0.1953
387.3813	0.185
387.5881	0.2044
387.7948	0.1916
388.0016	0.2092
388.2084	0.1987
388.4151	0.208
388.6219	0.2053
388.8286	0.1801
389.0353	0.2074
389.242	0.2037
389.4487	0.1738
389.6553	0.1838
389.862	0.1697
390.0686	0.1819
390.2753	0.2148
390.4819	0.184
390.6885	0.1833
390.8951	0.1861
391.1016	0.1841
391.3082	0.1933
391.5147	0.1997
391.7213	0.1844
391.9278	0.1846
392.1343	0.1747
392.3408	0.1695
392.5473	0.1829
392.7537	0.1715
392.9602	0.1769
393.1666	0.1736
393.373	0.1734
393.5794	0.1946
393.7858	0.1935
393.9922	0.1649
394.1986	0.1791
394.4049	0.1726
394.6113	0.1637
394.8176	0.1566
395.0239	0.1566
395.2302	0.172
395.4365	0.1776
395.6428	0.165
395.8491	0.1637
396.0553	0.1802
396.2615	0.1561
396.4678	0.1776
396.674	0.1716
396.8802	0.1813
397.0863	0.1802
397.2925	0.1686
397.4987	0.1565
397.7048	0.1539
397.9109	0.1748
398.117	0.1634
398.3231	0.1689
398.5292	0.1637
398.7353	0.1644
398.9413	0.1637
399.1474	0.168
399.3534	0.1689
399.5594	0.1424
399.7654	0.1781
399.9714	0.1796
400.1774	0.1498
400.3833	0.1387
400.5893	0.1565
400.7952	0.1587
401.0011	0.1661
401.207	0.162
401.4129	0.1473
401.6188	0.1633
401.8247	0.1602
402.0305	0.1638
402.2364	0.1437
402.4422	0.1594
402.648	0.1695
402.8538	0.1763
403.0596	0.1517
403.2654	0.173
403.4711	0.1591
403.6768	0.1773
403.8826	0.1621
404.0883	0.1624
404.294	0.1717
404.4997	0.1557
404.7054	0.1583
404.911	0.1522
405.1167	0.1649
405.3223	0.1817
405.5279	0.1574
405.7335	0.1745
405.9391	0.1741
406.1447	0.148
406.3502	0.1725
406.5558	0.1521
406.7613	0.1595
406.9668	0.152
407.1724	0.1549
407.3778	0.1516
407.5833	0.1412
407.7888	0.1637
407.9942	0.1621
408.1997	0.1555
408.4051	0.144
408.6105	0.1601
408.8159	0.1574
409.0213	0.1428
409.2267	0.1579
409.432	0.149
409.6374	0.1633
409.8427	0.1504
410.048	0.1338
410.2533	0.143
410.4586	0.1628
410.6639	0.1436
410.8691	0.1537
411.0744	0.1461
411.2796	0.1425
411.4848	0.1439
411.69	0.1404
411.8952	0.1746
412.1004	0.1334
412.3056	0.1418
412.5107	0.1406
412.7158	0.1776
412.921	0.1502
413.1261	0.1485
413.3312	0.1546
413.5362	0.1448
413.7413	0.1532
413.9464	0.1438
414.1514	0.1582
414.3564	0.1376
414.5614	0.1387
414.7664	0.1371
414.9714	0.1489
415.1764	0.1491
415.3813	0.1855
415.5863	0.1664
415.7912	0.162
415.9961	0.1433
416.201	0.1632
416.4059	0.1457
416.6108	0.1664
416.8156	0.145
417.0205	0.1561
417.2253	0.1528
417.4301	0.1483
417.6349	0.1445
417.8397	0.1385
418.0445	0.1553
418.2492	0.155
418.454	0.1402
418.6587	0.1345
418.8634	0.1462
419.0681	0.1416
419.2728	0.1314
419.4775	0.1407
419.6822	0.1387
419.8868	0.123
420.0915	0.1407
420.2961	0.1332
420.5007	0.1202
420.7053	0.143
420.9099	0.138
421.1144	0.1376
421.319	0.1269
421.5235	0.1494
421.728	0.1409
421.9325	0.1426
422.137	0.1408
422.3415	0.1278
422.546	0.141
422.7504	0.1267
422.9549	0.1471
423.1593	0.1398
423.3637	0.1398
423.5681	0.1103
423.7725	0.1279
423.9769	0.1291
424.1812	0.1249
424.3856	0.1159
424.5899	0.1311
424.7942	0.1206
424.9985	0.1345
425.2028	0.1253
425.4071	0.1392
425.6113	0.1119
425.8156	0.1248
426.0198	0.1418
426.224	0.1208
426.4282	0.1061
426.6324	0.128
426.8366	0.1222
427.0407	0.1292
427.2449	0.1185
427.449	0.1258
427.6531	0.1047
427.8572	0.1048
428.0613	0.1048
428.2654	0.102
428.4694	0.1062
428.6735	0.0997
428.8775	0.123
429.0815	0.1061
429.2855	0.0968
429.4895	0.1126
429.6935	0.1154
429.8975	0.1096
430.1014	0.0982
430.3053	0.0974
430.5093	0.1064
430.7132	0.104
430.9171	0.0886
431.1209	0.094
431.3248	0.0885
431.5286	0.1058
431.7325	0.1014
431.9363	0.0727
432.1401	0.1046
432.3439	0.0765
432.5477	0.079
432.7514	0.0794
432.9552	0.0909
433.1589	0.0741
433.3627	0.0792
433.5664	0.0708
433.7701	0.091
433.9737	0.0854
434.1774	0.0782
434.3811	0.0839
434.5847	0.0877
434.7883	0.074
434.9919	0.0721
435.1955	0.0825
435.3991	0.0696
435.6027	0.0746
435.8062	0.0726
436.0098	0.068
436.2133	0.0767
436.4168	0.0672
436.6203	0.0859
436.8238	0.0786
437.0272	0.0795
437.2307	0.0719
437.4341	0.0691
437.6375	0.0748
437.841	0.0723
438.0443	0.0627
438.2477	0.0638
438.4511	0.058
438.6545	0.0742
438.8578	0.0735
439.0611	0.077
439.2644	0.0581
439.4677	0.0571
439.671	0.0584
439.8743	0.0678
440.0775	0.0461
440.2808	0.053
440.484	0.0401
440.6872	0.0254
440.8904	0.0396
441.0936	0.0447
441.2967	0.0461
441.4999	0.053
441.703	0.0508
441.9062	0.0515
442.1093	0.0648
442.3124	0.0475
442.5155	0.0454
442.7185	0.0495
442.9216	0.0198
443.1246	0.0518
443.3276	0.036
443.5307	0.0259
443.7337	0.0333
443.9366	0.0553
444.1396	0.0279
444.3426	0.0373
444.5455	0.0388
444.7484	0.0348
444.9513	0.0328
445.1542	0.0541
445.3571	0.0268
445.56	0.0379
445.7628	0.0264
445.9657	0.0356
446.1685	0.0361
446.3713	0.039
446.5741	0.0319
446.7769	0.0204
446.9797	0.0242
447.1824	0.0277
447.3852	0.009
447.5879	0.0238
447.7906	0.0327
447.9933	0.032
448.196	0.0276
448.3986	0.0299
448.6013	0.0218
448.8039	0.0053
449.0066	0.0154
449.2092	0.02
449.4118	0.0192
449.6143	0.0281
449.8169	0.0292
450.0195	0.0122
450.222	-0.0013
450.4245	0.0128
450.627	0.0268
450.8295	0.0164
451.032	0.0121
451.2345	0.0306
451.4369	0.0206
451.6394	0.0108
451.8418	0.001
452.0442	0.0049
452.2466	0.0245
452.449	-0.0119
452.6513	0.0003
452.8537	-0.0012
453.056	0.0015
453.2583	0.0166
453.4607	0.0126
453.663	0.0074
453.8652	0.011
454.0675	-0.003
454.2697	0.0189
454.472	-0.0018
454.6742	0.0144
454.8764	0.009
455.0786	0.0077
455.2808	-0.0012
455.4829	0.0026
455.6851	0.0073
455.8872	0.0242
456.0893	0.0213
456.2915	-0.0029
456.4935	0.0228
456.6956	0.003
456.8977	0.0008
457.0997	0.0053
457.3018	-0.0027
457.5038	0.0165
457.7058	0.0032
457.9078	-0.0061
458.1098	0.0092
458.3117	0.008
458.5137	0.014
458.7156	0.0159
458.9175	-0.009
459.1194	0.0034
459.3213	-0.003
459.5232	-0.0076
459.725	-0.0179
459.9269	-0.013
460.1287	-0.0102
460.3305	0.0057
460.5323	0.0019
460.7341	0.0095
460.9359	0.0055
461.1376	0.0006
461.3394	-0.0028
461.5411	0.0015
461.7428	0.0005
461.9445	0.0067
462.1462	0.0063
462.3479	-0.0064
462.5495	-0.0019
462.7512	0.0091
462.9528	-0.02
463.1544	-0.0153
463.356	-0.0014
463.5576	0.0021
463.7592	-0.0105
463.9607	0.0012
464.1623	0.0206
464.3638	0.0137
464.5653	-0.0108
464.7668	0.0077
464.9683	0.0132
465.1697	0.0123
465.3712	-0.0041
465.5726	-0.0009
465.7741	-0.0032
465.9755	-0.0069
466.1769	-0.0045
466.3782	-0.0072
466.5796	-0.0042
466.7809	0.0161
466.9823	-0.0129
467.1836	-0.0075
467.3849	-0.0069
467.5862	-0.003
467.7875	-0.0095
467.9887	0.0094
468.19	-0.0088
468.3912	-0.0142
468.5924	-0.0066
468.7936	0.0028
468.9948	-0.0042
469.196	0.0021
469.3972	-0.0083
469.5983	0.0129
469.7994	-0.0097
470.0006	0.0005
470.2017	-0.0095
470.4027	-0.0045
470.6038	0.0038
470.8049	-0.0227
471.0059	-0.0106
471.2069	-0.0262
471.408	-0.0028
471.6089	0.0019
471.8099	-0.0038
472.0109	-0
472.2119	-0.0143
472.4128	-0.0191
472.6137	-0.0071
472.8146	-0.0204
473.0155	-0.0096
473.2164	-0.004
473.4173	0.0141
473.6181	0.0016
473.819	0.0061
474.0198	-0.0158
474.2206	-0.0073
474.4214	-0.0006
474.6222	-0.0084
474.8229	-0.0058
475.0237	-0.0055
475.2244	-0.0177
475.4251	-0.0061
475.6258	-0.0098
475.8265	-0.0034
476.0272	-0.0055
476.2278	-0.0015
476.4285	-0
476.6291	-0.0053
476.8297	-0.0077
477.0303	-0.0091
477.2309	-0.0002
477.4315	-0.0169
477.632	-0.0064
477.8326	-0.0134
478.0331	-0.0066
478.2336	0.0002
478.4341	-0.0127
478.6346	-0.0065
478.8351	-0.0038
479.0355	-0.007
479.236	-0.0102
479.4364	-0.0021
479.6368	0.0025
479.8372	-0.0152
480.0376	-0.0081
480.2379	-0.0244
480.4383	-0.0107
480.6386	-0.0006
480.8389	-0.0081
481.0392	-0.0173
481.2395	-0.0152
481.4398	-0.0056
481.6401	-0.0041
481.8403	-0.0105
482.0405	-0.0189
482.2408	-0.0051
482.441	0.0009
482.6411	-0.0088
482.8413	-0.0114
483.0415	-0.0135
483.2416	-0.0106
483.4417	-0.0073
483.6419	-0.0156
483.8419	-0.0057
484.042	0.0001
484.2421	-0.008
484.4422	-0.0041
484.6422	-0.0191
484.8422	-0.0076
485.0422	-0.0131
485.2422	-0.0062
485.4422	-0.0129
485.6422	-0.0071
485.8421	-0.0044
486.042	-0.009
486.242	-0.0042
486.4419	-0.0133
486.6417	-0.0188
486.8416	-0.0123
487.0415	-0.0061
487.2413	-0.0148
487.4411	-0.0065
487.641	-0.0165
487.8408	-0.0011
488.0405	-0.0179
488.2403	-0.0086
488.4401	0.0019
488.6398	-0.0073
488.8395	-0.0106
489.0392	-0.0035
489.2389	-0.017
489.4386	-0.0037
489.6383	-0.0173
489.8379	0.0001
490.0376	-0.0144
490.2372	-0.0123
490.4368	-0.0107
490.6364	-0.0141
490.836	-0.0159
491.0355	-0.0032
491.2351	-0.008
491.4346	-0
491.6341	-0.0116
491.8336	-0.0077
492.0331	-0.0289
492.2326	-0.0115
492.432	-0.0142
492.6315	-0.0154
492.8309	-0.0257
493.0303	-0.0104
493.2297	-0.0017
493.4291	-0.0087
493.6284	-0.0087
493.8278	-0.004
494.0271	-0.0104
494.2264	0.0018
494.4257	-0.0212
494.625	-0.0051
494.8243	-0.022
495.0236	-0.011
495.2228	-0.0118
495.422	-0.0061
495.6213	-0.0077
495.8205	-0.0078
496.0196	-0.0047
496.2188	-0.0129
496.418	-0.0209
496.6171	-0.0175
496.8162	-0.0116
497.0153	0.0072
497.2144	-0.0098
497.4135	-0.0038
497.6126	-0.008
497.8116	-0.0076
498.0107	-0.0149
498.2097	-0.0085
498.4087	-0.0208
498.6077	-0.0037
498.8067	-0.0166
499.0056	-0.0058
499.2046	-0.0079
499.4035	-0.0172
499.6024	-0.0127
499.8013	0.0056
500.0002	-0.0089
500.199	0.0032
500.3979	-0.0116
500.5967	-0.0326
500.7956	0.0003
500.9944	-0.01
501.1932	-0.0087
501.3919	-0.0111
501.5907	-0.0125
501.7895	0.0004
501.9882	-0.0239
502.1869	-0.0182
502.3856	-0.011
502.5843	-0.0092
502.783	-0.0099
502.9816	-0.0118
503.1803	-0.0231
503.3789	-0.0158
503.5775	0.0049
503.7761	-0.0098
503.9747	-0.0057
504.1732	-0.0122
504.3718	-0.0129
504.5703	-0.016
504.7689	-0.013
504.9674	-0.0141
505.1658	-0.012
505.3643	-0.0046
505.5628	-0.0143
505.7612	-0.0091
505.9597	0.0064
506.1581	-0.0012
506.3565	0.0114
506.5549	0.0009
506.7532	-0.0254
506.9516	-0.0132
507.1499	0.0017
507.3482	-0.0214
507.5465	-0.0173
507.7448	-0.0083
507.9431	-0.008
508.1414	-0.004
508.3396	-0.0064
508.5379	-0.0028
508.7361	-0.0107
508.9343	-0.0066
509.1325	0.002
509.3306	-0.0115
509.5288	-0.0103
509.7269	-0.0183
509.9251	-0.0121
510.1232	-0.0127
510.3213	-0.011
510.5193	-0.0049
510.7174	-0.0214
510.9154	-0.0218
511.1135	-0.0117
511.3115	-0.0149
511.5095	-0.0053
511.7075	-0.0117
511.9055	-0.0083
512.1034	-0.0083
512.3014	-0.0064
512.4993	-0.0067
512.6972	-0.0038
512.8951	-0.0203
513.093	-0.0016
513.2908	-0.01
513.4887	-0.0063
513.6865	-0.0092
513.8844	-0.0054
514.0822	-0.0128
514.2799	-0.0215
514.4777	-0.0082
514.6755	-0.0121
514.8732	-0.0169
515.0709	-0.0124
515.2687	-0.0166
515.4664	-0.0032
515.664	-0.0098
515.8617	-0.0061
516.0594	-0.0172
516.257	-0.0043
516.4546	-0.022
516.6522	-0.0051
516.8498	-0.0141
517.0474	-0.0052
517.2449	0.0008
517.4425	-0.0234
517.64	-0.0014
517.8375	-0.0047
518.035	-0.0084
518.2325	-0.0194
518.43	-0.012
518.6274	-0.0073
518.8249	-0.0192
519.0223	-0.01
519.2197	-0.0047
519.4171	-0.0198
519.6145	-0.0172
519.8118	-0.0117
520.0092	-0.0179
520.2065	-0.0101
520.4038	-0.014
520.6011	-0.0084
520.7984	-0.0198
520.9956	-0.0116
521.1929	-0.0119
521.3901	-0.0014
521.5874	-0.01
521.7846	-0.0099
521.9818	-0.0108
522.1789	-0.0151
522.3761	-0.0173
522.5732	-0.0182
522.7704	-0.0154
522.9675	-0.0159
523.1646	-0.0164
523.3617	-0.001
523.5587	-0.0163
523.7558	-0.0163
523.9528	-0.0131
524.1498	-0.0164
524.3468	-0.0116
524.5438	-0.0125
524.7408	-0.0066
524.9378	0.0028
525.1347	-0.0034
525.3316	-0.0088
525.5285	-0.021
525.7254	-0.0076
525.9223	-0.0062
526.1192	-0.0093
526.316	-0.0203
526.5129	0.0019
526.7097	-0.0085
526.9065	-0.0101
527.1033	-0.0189
527.3	0.0022
527.4968	-0.0094
527.6935	-0.008
527.8903	-0.0024
528.087	-0.0006
528.2837	-0.0074
528.4804	-0.0038
528.677	-0.0218
528.8737	-0.005
529.0703	-0.0122
529.2669	-0.0056
529.4635	-0.0078
529.6601	-0.0084
529.8567	-0.0058
530.0532	-0.0145
530.2498	0.0026
530.4463	0.0047
530.6428	-0.0148
530.8393	-0.0069
531.0358	-0.0085
531.2322	0.0033
531.4287	-0.0056
531.6251	-0.0152
531.8215	0.0005
532.0179	-0.0006
532.2143	-0.0024
532.4107	-0.007
532.607	-0.0169
532.8034	0.0033
532.9997	0.0074
533.196	-0.0081
533.3923	-0.0208
533.5886	0.0019
533.7848	0.0012
533.9811	-0.0146
534.1773	-0.0083
534.3735	-0.0053
534.5697	-0.0048
534.7659	-0.0028
534.9621	0.0003
535.1582	-0.0204
535.3544	-0.0073
535.5505	-0.0111
535.7466	-0.0094
535.9427	-0.004
536.1387	0.001
536.3348	-0.0095
536.5308	-0.0077
536.7269	-0.019
536.9229	0.0021
537.1189	-0.0079
537.3148	-0.0131
537.5108	-0.0072
537.7068	-0.0069
537.9027	-0.0045
538.0986	-0.012
538.2945	-0.0061
538.4904	-0.0006
538.6863	-0.0063
538.8821	-0.005
539.078	-0.0025
539.2738	-0.0054
539.4696	-0.0168
539.6654	-0.0126
539.8611	0.005
540.0569	0.0004
540.2526	-0.0092
540.4484	-0.0049
540.6441	-0.0019
540.8398	0.0011
541.0355	0.0119
541.2311	-0.0063
541.4268	-0.0153
541.6224	0.0008
541.818	-0.0039
542.0136	-0.0102
542.2092	-0.007
542.4048	-0.002
542.6003	-0.0048
542.7959	-0.0072
542.9914	-0.0106
543.1869	-0.0032
543.3824	-0.0075
543.5779	-0.0072
543.7734	0.0051
543.9688	-0.0079
544.1642	0.0033
544.3596	-0.0082
544.555	-0.0139
544.7504	-0.0019
544.9458	-0.0142
545.1411	-0.0089
545.3365	-0.0051
545.5318	-0.0086
545.7271	-0.0079
545.9224	-0.0074
546.1177	-0.0053
546.3129	-0.0012
546.5081	-0.0111
546.7034	-0.0065
546.8986	-0.0097
547.0938	-0.0136
547.289	-0.0036
547.4841	-0.004
547.6793	0.0099
547.8744	-0.0069
548.0695	-0.0006
548.2646	-0.0032
548.4597	0.0029
548.6548	-0.0097
548.8498	-0.0014
549.0448	0.0027
549.2399	-0.0071
549.4349	0.0012
549.6298	-0.0059
549.8248	0.0007
550.0198	0.0004
550.2147	-0.0111
550.4096	-0.0111
550.6045	-0.0067
550.7994	0.0033
550.9943	0.0033
551.1892	-0.0016
551.384	0.0015
551.5788	-0.0125
551.7737	-0.0041
551.9685	-0.0086
552.1632	0.0019
552.358	-0.003
552.5528	-0.0018
552.7475	-0.0028
552.9422	-0.0042
553.1369	0.0005
553.3316	-0.0006
553.5263	-0.0069
553.7209	-0.0058
553.9156	-0.004
554.1102	-0.008
554.3048	-0.0093
554.4994	0.0021
554.694	-0.0105
554.8885	-0.003
555.0831	-0.009
555.2776	-0.0109
555.4721	-0.0038
555.6666	-0.0063
555.8611	0.0066
556.0555	0.0011
556.25	-0.0023
556.4444	-0.0138
556.6388	-0.0098
556.8332	-0.0063
557.0276	-0.0072
557.222	-0.0048
557.4163	-0.0018
557.6107	-0.003
557.805	0.0009
557.9993	-0.0048
558.1936	0.0018
558.3879	-0.0071
558.5821	0.0052
558.7764	-0.0054
558.9706	0.0026
559.1648	-0.0015
559.359	-0.0161
559.5532	-0.0081
559.7473	-0.0133
559.9415	-0
560.1356	-0.0054
560.3297	-0.0109
560.5238	-0.0108
560.7179	-0.001
560.9119	-0.0016
561.106	-0.0049
561.3	-0.0078
561.494	-0.0093
561.688	-0.0138
561.882	-0.0095
562.076	-0.0098
562.2699	-0.0015
562.4639	-0.0131
562.6578	-0.0018
562.8517	0.0009
563.0456	0.0013
563.2395	0.0013
563.4333	-0.0054
563.6272	0.0045
563.821	-0.0026
564.0148	-0.0085
564.2086	-0.008
564.4024	-0.0059
564.5961	-0.0085
564.7899	0.0009
564.9836	-0.009
565.1773	-0.0012
565.371	0.0029
565.5647	-0.0043
565.7584	-0.0055
565.952	-0.0053
566.1456	-0.001
566.3393	-0.0071
566.5329	-0.0095
566.7264	-0.0029
566.92	-0.0051
567.1136	0.0005
567.3071	-0.0088
567.5006	-0.0009
567.6941	-0.0047
567.8876	-0.0066
568.0811	-0.0049
568.2745	-0.0029
568.468	0.0015
568.6614	-0.006
568.8548	0.0018
569.0482	-0.0044
569.2416	-0.0022
569.4349	0.0006
569.6283	0.002
569.8216	-0.0022
570.0149	-0.0062
570.2082	0.0003
570.4015	0.0013
570.5947	0.0038
570.788	-0.0009
570.9812	0.0025
571.1744	-0.0032
571.3676	-0.0077
571.5608	-0.005
571.754	0.0037
571.9471	-0.0055
572.1402	0.0053
572.3333	-0.0055
572.5264	0.0001
572.7195	-0.0024
572.9126	-0.0052
573.1057	-0.0053
573.2987	-0.0011
573.4917	0.0014
573.6847	-0.0086
573.8777	0.0022
574.0707	0.0028
574.2636	-0.01
574.4566	-0.0065
574.6495	-0.0014
574.8424	-0.002
575.0353	-0.0065
575.2281	0.0004
575.421	-0.0036
575.6138	0.0021
575.8067	-0.0043
575.9995	-0.0019
576.1923	-0.0001
576.385	-0.003
576.5778	0.004
576.7706	-0.0029
576.9633	0.0001
577.156	0.0013
577.3487	-0.0007
577.5414	-0.002
577.734	0.0002
577.9267	0.0039
578.1193	-0.0095
578.3119	-0.0064
578.5045	-0.0054
578.6971	-0.0047
578.8897	0.0014
579.0822	-0.0022
579.2747	-0.0032
579.4673	-0.0103
579.6598	-0.0086
579.8522	-0.0052
580.0447	-0.0095
580.2372	-0.0029
580.4296	-0.0027
580.622	-0.007
580.8144	-0.0026
581.0068	-0.0045
581.1992	-0.0091
581.3915	-0.0058
581.5839	-0.0034
581.7762	-0.0112
581.9685	-0.0059
582.1608	0.0016
582.353	-0.0089
582.5453	-0.0041
582.7375	-0.0029
582.9298	-0.0055
583.122	-0.0046
583.3142	-0.0033
583.5063	-0.0026
583.6985	-0.0061
583.8906	-0.0102
584.0827	-0.0064
584.2749	-0.0014
584.4669	-0.0032
584.659	0.001
584.8511	-0.0088
585.0431	-0.0077
585.2352	-0.0016
585.4272	-0.0013
585.6192	0.0028
585.8111	-0.0012
586.0031	-0.0032
586.195	-0.0043
586.387	0.0019
586.5789	-0.0007
586.7708	-0.0018
586.9627	-0.0049
587.1545	-0.0088
587.3464	-0.0008
587.5382	0.0032
587.73	-0.0063
587.9218	0.0075
588.1136	0.0006
588.3053	0.0019
588.4971	-0.0048
588.6888	-0.008
588.8805	0.001
589.0722	0.0109
589.2639	0.0005
589.4556	-0.0035
589.6472	-0.0078
589.8389	-0.0077
590.0305	-0.0052
590.2221	-0.0031
590.4137	-0.0044
590.6052	0.0022
590.7968	-0.0052
590.9883	0.0075
591.1798	0.0048
591.3713	-0.003
591.5628	0.0022
591.7543	-0.0039
591.9458	-0.0052
592.1372	0.0095
592.3286	0.0073
592.52	0.003
592.7114	-0.0112
592.9028	-0.0045
593.0941	-0.0041
593.2855	-0.0016
593.4768	-0.0126
593.6681	-0.006
593.8594	-0.0083
594.0506	-0.0003
594.2419	0.0031
594.4331	0.0001
594.6244	0.0001
594.8156	-0.0069
595.0067	0
595.1979	0.0048
595.3891	-0.0029
595.5802	-0.0107
595.7713	-0.0034
595.9624	-0.0026
596.1535	-0.0026
596.3446	0.0004
596.5357	0.0012
596.7267	0.0074
596.9177	0.0001
597.1087	-0.0127
597.2997	-0.0061
597.4907	-0.0028
597.6817	-0.005
597.8726	-0.0024
598.0635	-0.0057
598.2544	-0.0061
598.4453	0.0006
598.6362	-0.0048
598.827	-0.0062
599.0179	0.0007
599.2087	0.0006
599.3995	-0.0018
599.5903	-0.0019
599.7811	0.004
599.9718	-0.0064
600.1626	-0.0034
600.3533	-0.0105
600.544	0.0011
600.7347	-0.0051
600.9254	0.0011
601.116	-0.0078
601.3067	-0.0038
601.4973	-0.0041
601.6879	0.0017
601.8785	-0.0095
602.0691	-0.0006
602.2596	-0.003
602.4502	0.0004
602.6407	-0.0028
602.8312	0
603.0217	-0.0056
603.2122	-0.0047
603.4027	-0.0024
603.5931	0.0025
603.7835	-0.0077
603.9739	0.0006
604.1643	-0.0022
604.3547	-0.0048
604.5451	0.0018
604.7354	-0.0032
604.9257	0.0006
605.116	-0.0005
605.3063	0.0011
605.4966	-0.0002
605.6869	-0.0037
605.8771	0.0037
606.0673	0.0026
606.2575	0.0015
606.4477	0.0032
606.6379	-0.0007
606.8281	-0.0013
607.0182	-0.0038
607.2083	0.0079
607.3985	-0.0004
607.5885	-0.002
607.7786	0.0021
607.9687	-0.0041
608.1587	0.0009
608.3488	-0.0001
608.5388	-0.0022
608.7288	-0.0089
608.9187	-0.0066
609.1087	-0.0105
609.2986	-0.0078
609.4886	-0.0038
609.6785	-0.0024
609.8684	0
610.0582	0.004
610.2481	0.0028
610.4379	-0.004
610.6278	-0.0101
610.8176	0.0009
611.0074	-0.0066
611.1971	-0.0035
611.3869	-0.0063
611.5766	-0.0081
611.7664	0.0062
611.9561	-0.0016
612.1458	-0.0026
612.3354	-0.0101
612.5251	-0.0034
612.7147	0
612.9044	0.0058
613.094	-0.0061
613.2836	0.0019
613.4731	-0.0049
613.6627	-0.0037
613.8522	0.0016
614.0417	0.0066
614.2313	-0.0015
614.4207	-0.0077
614.6102	0.0013
614.7997	-0.004
614.9891	-0.0042
615.1785	0.0022
615.3679	-0.0075
615.5573	0.0049
615.7467	-0.0034
615.9361	0.0005
616.1254	0.0007
616.3147	0.0006
616.504	0.0025
616.6933	0.0033
616.8826	0.0021
617.0718	0.0027
617.2611	-0.0004
617.4503	-0.0008
617.6395	-0.0023
617.8287	-0.0008
618.0179	-0.0018
618.207	0.0032
618.3961	-0.0025
618.5853	-0.0062
618.7744	-0.002
618.9634	0.009
619.1525	0.0002
619.3416	-0.0035
619.5306	-0.0016
619.7196	0.0006
619.9086	-0.0108
620.0976	-0.0008
620.2866	-0.0023
620.4755	-0.0044
620.6645	0.0023
620.8534	0.0037
621.0423	0.0031
621.2312	0.0042
621.42	0.0018
621.6089	0.0004
621.7977	-0.0014
621.9865	-0.0074
622.1753	0.0019
622.3641	-0.0051
622.5529	0.0045
622.7416	-0.0008
622.9303	-0.0074
623.1191	0.0017
623.3078	-0.0116
623.4964	-0.0035
623.6851	-0.0014
623.8737	-0.0063
624.0624	0.002
624.251	-0
624.4396	-0.0056
624.6282	-0.007
624.8167	-0.0058
625.0053	0.0035
625.1938	0.0051
625.3823	0.0049
625.5708	-0.009
625.7593	-0.008
625.9477	-0.007
626.1362	-0.008
626.3246	0.0023
626.513	-0.0007
626.7014	0.0008
626.8898	-0.0031
627.0781	-0.0036
627.2665	-0.0038
627.4548	0.0073
627.6431	0.0015
627.8314	0.0022
628.0197	0.0001
628.2079	-0.0065
628.3962	-0.0064
628.5844	-0.0073
628.7726	-0.0006
628.9608	0.008
629.1489	-0.0035
629.3371	0.0081
629.5252	-0.0013
629.7134	0.0107
629.9015	0.0023
630.0895	-0.0044
630.2776	0.0082
630.4657	-0.0024
630.6537	0.0019
630.8417	-0.0062
631.0297	-0.0061
631.2177	0.0046
631.4057	-0.0032
631.5936	0.0008
631.7815	0.0026
631.9695	-0.0012
632.1574	0.0061
632.3452	0.0067
632.5331	0.0016
632.7209	-0.0024
632.9088	0.0062
633.0966	0.0108
633.2844	-0.0052
633.4722	0.0022
633.6599	0.003
633.8477	0.0011
634.0354	-0.0064
634.2231	-0.0033
634.4108	-0.0011
634.5985	0.0054
634.7861	-0.0005
634.9738	-0.0018
635.1614	0.0034
635.349	0.0075
635.5366	-0.0015
635.7242	0.0049
635.9117	0.0038
636.0993	-0.0012
636.2868	0.0031
636.4743	-0.0072
636.6618	0.0114
636.8492	-0.0007
637.0367	0.0007
637.2241	-0.0014
637.4115	-0.0037
637.5989	-0.0021
637.7863	-0.0026
637.9737	-0.0027
638.161	-0.0051
638.3484	-0.005
638.5357	0.0009
638.723	-0.0042
638.9103	-0.0043
639.0975	-0.0021
639.2848	0.0041
639.472	0.004
639.6592	0.009
639.8464	0.0092
640.0336	0.0098
640.2208	0.0019
640.4079	-0.0037
640.595	0.0038
640.7821	-0.0015
640.9692	-0.004
641.1563	0.0029
641.3434	0.0088
641.5304	0.0066
641.7174	-0.0012
641.9044	0.004
642.0914	0.0045
642.2784	0.0034
642.4653	0.0069
642.6523	0.0033
642.8392	-0.0029
643.0261	0.004
643.213	0.0085
643.3999	-0.0049
643.5867	0.0022
643.7735	0.0003
643.9604	-0.01
644.1472	0.0052
644.3339	0.0011
644.5207	-0.0004
644.7075	-0.0059
644.8942	0.0067
645.0809	0.0115
645.2676	0.0037
645.4543	-0.0024
645.6409	0.0026
645.8276	0.0021
646.0142	0.0082
646.2008	-0.0047
646.3874	-0.006
646.574	-0.0008
646.7605	-0.0031
646.9471	-0.0129
647.1336	-0.0027
647.3201	0.0022
647.5066	-0.0069
647.6931	0.0057
647.8795	-0.0028
648.0659	0.0038
648.2524	0.0039
648.4388	-0.0007
648.6252	-0.0012
648.8115	-0.0033
648.9979	0.0006
649.1842	0.0031
649.3705	0.0054
649.5568	0.0073
649.7431	0.0057
649.9294	-0.0041
650.1156	0.0024
650.3018	-0.0042
650.488	0.0038
650.6742	0.0023
650.8604	0.0054
651.0466	-0.0075
651.2327	-0.0001
651.4188	0.0011
651.6049	-0.0084
651.791	-0.0013
651.9771	0.0019
652.1632	0.0032
652.3492	0.0027
652.5352	-0.0046
652.7212	-0.008
652.9072	-0.002
653.0932	0.0043
653.2791	-0.0067
653.465	-0.0036
653.651	-0.004
653.8369	-0.0018
654.0227	0.0107
654.2086	0.0044
654.3944	-0.0006
654.5803	0.0011
654.7661	-0.0055
654.9519	-0.0007
655.1377	-0.0083
655.3234	0.0008
655.5092	-0.006
655.6949	-0.0096
655.8806	-0.0028
656.0663	-0.0011
656.2519	-0.0036
656.4376	-0.0055
656.6232	0.0076
656.8088	-0.0009
656.9945	-0.0017
657.18	0.0038
657.3656	-0.0001
657.5511	-0.0023
657.7367	-0.004
657.9222	0.0063
658.1077	-0.0021
658.2932	0.0014
658.4786	-0.0091
658.6641	-0.0072
658.8495	-0.0043
659.0349	-0.001
659.2203	0.0045
659.4057	-0.0018
659.591	0.0008
659.7764	-0.0006
659.9617	0.0007
660.147	-0.0039
660.3323	0.0062
660.5176	0.0088
660.7028	0.0039
660.888	0.0018
661.0733	-0.0049
661.2585	-0.0059
661.4436	-0.0047
661.6288	-0.0042
661.8139	0.004
661.9991	0.0076
662.1842	-0.0015
662.3693	0.0024
662.5544	-0.0028
662.7394	-0.0003
662.9245	-0.0015
663.1095	-0.0017
663.2945	0.0002
663.4795	-0.0016
663.6644	0.005
663.8494	-0.003
664.0343	-0.0087
664.2193	-0.0069
664.4042	-0.0049
664.589	-0.0039
664.7739	-0.0098
664.9587	-0.0108
665.1436	-0.0022
665.3284	-0.0056
665.5132	-0.0122
665.698	0.0009
665.8827	0.001
666.0675	-0.0027
666.2522	-0.0082
666.4369	-0.0011
666.6216	0.0005
666.8063	-0.0018
666.9909	0.0043
667.1756	-0.0032
667.3602	-0.0013
667.5448	0.0031
667.7294	0.0098
667.9139	0.0056
668.0985	0.0121
668.283	-0.0011
668.4675	0.0012
668.652	0.0036
668.8365	-0.0058
669.0209	0.003
669.2054	0.0019
669.3898	-0.0053
669.5742	0.0038
669.7586	0.0066
669.943	0.0072
670.1273	-0.0007
670.3117	-0.0047
670.496	-0.0029
670.6803	0.01
670.8646	0.0073
671.0488	-0.0121
671.2331	0.0066
671.4173	0.0071
671.6015	-0.0046
671.7857	-0.0002
671.9699	0.0062
672.1541	0.0061
672.3382	0.0085
672.5223	0.0089
672.7064	0.0037
672.8905	0.0099
673.0746	-0.0043
673.2587	-0.0024
673.4427	0.003
673.6267	0.0052
673.8107	0.0063
673.9947	0.0026
674.1787	0.0011
674.3626	-0.001
674.5465	0.0072
674.7304	0.005
674.9143	0.0091
675.0982	0.0139
675.2821	-0.0079
675.4659	0.0025
675.6497	0.0039
675.8335	-0.0015
676.0173	-0.0025
676.2011	0.0022
676.3849	-0.004
676.5686	-0.0039
676.7523	-0.0029
676.936	-0.0005
677.1197	-0.0066
677.3034	-0.0035
677.487	0
677.6706	-0.0005
677.8542	-0.0033
678.0378	-0.0016
678.2214	0.0006
678.405	-0.0033
678.5885	-0.0057
678.772	-0.0024
678.9555	-0.0026
679.139	-0.0031
679.3225	-0.0035
679.5059	0.0023
679.6894	0.0004
679.8728	0.0013
680.0562	-0
680.2395	-0.0057
680.4229	-0.0023
680.6062	0.0034
680.7896	-0.0079
680.9729	-0.0096
681.1562	-0.0004
681.3394	0.0014
681.5227	-0.0076
681.7059	0.0002
681.8891	0.0002
682.0723	0.0091
682.2555	0.006
682.4387	-0.0089
682.6218	-0.0095
682.805	-0.0014
682.9881	0.0048
683.1712	-0.0086
683.3542	-0.006
683.5373	0.0064
683.7203	-0.0089
683.9034	0.0006
684.0864	-0.0137
684.2694	-0.0074
684.4523	0.0023
684.6353	-0.0066
684.8182	0.0026
685.0011	-0.004
685.184	0.0006
685.3669	-0.0049
685.5498	0.0039
685.7326	0.0016
685.9154	-0.0113
686.0982	0.0113
686.281	0.0022
686.4638	0.0067
686.6465	0.0003
686.8293	-0.0049
687.012	-0.0023
687.1947	-0.0045
687.3774	0.0038
687.56	-0.0049
687.7427	0.004
687.9253	-0.0017
688.1079	-0.0051
688.2905	-0.0006
688.4731	-0.007
688.6556	-0.0065
688.8382	-0.0016
689.0207	-0.0018
689.2032	-0.0107
689.3857	-0.0103
689.5681	-0.0008
689.7506	-0.0119
689.933	-0.003
690.1154	-0.0018
690.2978	-0.0086
690.4802	-0.0031
690.6626	-0.0145
690.8449	-0.0094
691.0272	0.0075
691.2095	-0.0042
691.3918	-0.0149
691.5741	0.0016
691.7563	-0.0041
691.9386	-0.0031
692.1208	0.0016
692.303	0.0069
692.4852	0.0003
692.6673	0.0003
692.8495	-0.007
693.0316	-0.0019
693.2137	-0.0046
693.3958	0.0073
693.5778	-0.0049
693.7599	-0.0063
693.9419	-0.0035
694.1239	0.0025
694.3059	0.0012
694.4879	0.0028
694.6699	0.0073
694.8518	0.0018
695.0337	-0.008
695.2157	-0.001
695.3975	0.0006
695.5794	0.0012
695.7613	0.0124
695.9431	-0.0011
696.1249	-0.0025
696.3067	-0.0007
696.4885	-0.0005
696.6703	-0.0098
696.852	0.0027
697.0337	0.003
697.2154	-0.0012
697.3971	0.0004
697.5788	0.0044
697.7605	-0.002
697.9421	0.0022
698.1237	0.0014
698.3053	0.0013
698.4869	-0.0006
698.6685	-0.0084
698.85	-0.0037
699.0315	0.0076
699.213	-0.0061
699.3945	0.0024
699.576	0.008
699.7575	0.002
699.9389	0.0068
700.1203	-0.002
700.3017	-0.0085
700.4831	-0.0088
700.6645	-0.0112
700.8458	-0.0087
701.0271	-0.0043
701.2084	0.0048
701.3897	-0.0019
701.571	-0.002
701.7523	-0.0037
701.9335	0.0065
702.1147	-0.0007
702.2959	-0.0002
702.4771	-0.0007
702.6583	-0.002
702.8394	-0.007
703.0205	0.0074
703.2016	-0.0075
703.3827	-0.0031
703.5638	0.007
703.7449	0.0013
703.9259	0.0129
704.1069	-0.0077
704.2879	0.0097
704.4689	0.0017
704.6499	-0.0008
704.8308	-0.0018
705.0117	-0.0027
705.1927	-0.0018
705.3735	-0.0018
705.5544	-0.0028
705.7353	-0.0014
705.9161	-0.0056
706.0969	-0.007
706.2777	0.0008
706.4585	-0.0041
706.6393	0.0071
706.82	-0.0097
707.0007	0.0008
707.1815	0.0011
707.3621	0.004
707.5428	0.0035
707.7235	-0.0056
707.9041	-0.0024
708.0847	-0.0136
708.2653	-0.0081
708.4459	-0.0183
708.6265	-0.0019
708.807	-0.0037
708.9875	-0.0029
709.168	-0.0053
709.3485	-0.0002
709.529	0.0048
709.7095	-0.0127
709.8899	-0.0103
710.0703	-0.0074
710.2507	-0.0021
710.4311	-0.0009
710.6115	-0.0085
710.7918	-0.007
710.9721	-0.0073
711.1524	-0.0052
711.3327	-0.0037
711.513	-0.0025
711.6932	0.0066
711.8735	0.0073
712.0537	0.0047
712.2339	-0.0026
712.4141	-0.0091
712.5942	-0.0018
712.7744	-0.0082
712.9545	-0.0126
713.1346	-0.0092
713.3147	-0.01
713.4947	-0.0082
713.6748	-0.0072
713.8548	0.0022
714.0348	-0.0076
714.2148	-0.0065
714.3948	0
714.5748	-0.0036
714.7547	-0.0025
714.9346	-0.0003
715.1145	-0.004
715.2944	-0.0072
715.4743	-0.0028
715.6541	-0.0044
715.834	-0.0031
716.0138	-0.0093
716.1936	-0.0117
716.3733	-0.0029
716.5531	-0.0026
716.7328	-0.0011
716.9126	-0.009
717.0923	0.0049
717.2719	-0.0033
717.4516	0.0004
717.6312	0.0017
717.8109	-0.0034
717.9905	-0.0004
718.1701	-0.009
718.3496	-0.0088
718.5292	0.0065
718.7087	-0.0012
718.8882	0.0009
719.0677	0.0018
719.2472	-0.0056
719.4267	0.0003
719.6061	0.0037
719.7856	0.0042
719.965	0.0031
720.1443	0.002
720.3237	0.0188
720.5031	0.0035
720.6824	0.0023
720.8617	0.003
721.041	-0.0003
721.2203	0.0067
721.3995	0.0008
721.5788	0.0019
721.758	0.0042
721.9372	-0.003
722.1164	-0.0007
722.2956	-0.0015
722.4747	0.0085
722.6538	-0.0005
722.8329	0.0057
723.012	-0.0074
723.1911	0.0003
723.3702	-0.0042
723.5492	0.001
723.7282	-0.0022
723.9072	-0.0002
724.0862	-0.0065
724.2652	-0.0052
724.4441	-0.0058
724.623	-0.0116
724.8019	-0.0106
724.9808	-0.0046
725.1597	-0.0176
725.3385	-0.0004
725.5174	0.0051
725.6962	-0.0068
725.875	-0.0043
726.0538	-0.0032
726.2325	-0.0022
726.4112	-0.0003
726.59	-0.0053
726.7687	-0.0094
726.9474	0.0118
727.126	0.0003
727.3047	-0.003
727.4833	0.0048
727.6619	-0.0017
727.8405	-0.0089
728.0191	-0.0006
728.1976	0.0017
728.3762	0.0026
728.5547	-0.0068
728.7332	-0.0118
728.9116	-0.0046
729.0901	0.0034
729.2686	-0.0049
729.447	-0.0016
729.6254	-0.0044
729.8038	-0.0021
729.9821	-0.0075
730.1605	-0.0023
730.3388	-0.0015
730.5171	0.0031
730.6954	-0.0034
730.8737	-0.0049
731.0519	0.0017
731.2302	-0.0012
731.4084	0.0059
731.5866	0.0054
731.7648	-0.0082
731.9429	-0.0125
732.1211	-0.0049
732.2992	-0.0118
732.4773	-0.0193
732.6554	-0.0081
732.8335	-0.0029
733.0115	-0.0022
733.1896	-0.0029
733.3676	-0.0074
733.5456	0.0006
733.7235	0.0014
733.9015	0.003
734.0794	-0.0047
734.2574	-0.0043
734.4353	0.0009
734.6131	0.0056
734.791	-0.0042
734.9689	-0.0041
735.1467	0.0013
735.3245	-0.0129
735.5023	-0.0126
735.68	0.0022
735.8578	0.0016
736.0355	-0.0175
736.2132	-0.0027
736.3909	-0.0011
736.5686	-0.0142
736.7463	0.0005
736.9239	-0.0132
737.1015	-0.0033
737.2791	0.0091
737.4567	-0.0098
737.6343	-0.0002
737.8118	-0.0008
737.9894	0.0075
738.1669	-0.0111
738.3444	-0.0087
738.5218	0.0085
738.6993	0.0002
738.8767	0.0085
739.0541	0.0089
739.2315	-0.0136
739.4089	-0.0057
739.5863	0.0008
739.7636	-0.0049
739.9409	-0.0056
740.1182	-0.0018
740.2955	-0.0055
740.4728	0.0031
740.65	0.0007
740.8272	-0.0026
741.0044	-0.0052
741.1816	-0.0035
741.3588	-0.0113
741.5359	-0.0005
741.7131	-0.012
741.8902	-0.0086
742.0673	-0.0038
742.2444	-0.0092
742.4214	-0.0102
742.5985	-0.0065
742.7755	-0.0151
742.9525	-0.0221
743.1295	-0.003
743.3064	-0.0035
743.4834	-0.0113
743.6603	-0.0122
743.8372	-0.003
744.0141	-0.0074
744.191	0.0017
744.3678	-0.0012
744.5446	-0.0024
744.7215	0.0006
744.8982	-0.0035
745.075	-0.0016
745.2518	0.0001
745.4285	-0.0067
745.6052	-0.0063
745.7819	-0.003
745.9586	-0.0029
746.1353	0.0015
746.3119	-0.0059
746.4885	-0.0068
746.6651	-0.007
746.8417	-0.0065
747.0183	-0.0033
747.1948	-0.0076
747.3714	0.0013
747.5479	0.01
747.7244	-0.0105
747.9008	0.0044
748.0773	-0.0054
748.2537	0.0004
748.4301	-0.0011
748.6065	0.0018
748.7829	-0.0085
748.9593	-0.0048
749.1356	-0.0013
749.3119	0.0002
749.4882	-0.0152
749.6645	0.0013
749.8408	-0.0088
750.017	-0.0064
750.1933	-0.0018
750.3695	0.0026
750.5457	0.0083
750.7218	0.0003
750.898	0.0095
751.0741	-0.0103
751.2502	-0.0022
751.4263	-0.0044
751.6024	0.0053
751.7784	-0.0001
751.9545	-0.0105
752.1305	-0.003
752.3065	-0.0123
752.4825	0.0016
752.6584	-0.0069
752.8344	-0.0021
753.0103	-0.0122
753.1862	-0.015
753.3621	-0.0014
753.5379	-0.0078
753.7138	0.001
753.8896	-0
754.0654	0.0108
754.2412	0.0026
754.417	0.0085
754.5927	0.0046
754.7685	-0
754.9442	0.0067
755.1199	0.015
755.2956	-0.0003
755.4712	0.0105
755.6469	-0.007
755.8225	-0.0083
755.9981	-0.004
756.1736	0.0097
756.3492	0.0003
756.5248	-0.0026
756.7003	0.0006
756.8758	0.0082
757.0513	-0.0149
757.2267	-0.0056
757.4022	0.004
757.5776	-0.0086
757.753	-0.0047
757.9284	-0.0021
758.1038	0.0016
758.2791	-0.0039
758.4545	-0.0143
758.6298	-0.0016
758.8051	-0.0109
758.9803	0.0039
759.1556	0.007
759.3308	-0.0116
759.506	0.0043
759.6812	-0.0023
759.8564	0.0068
760.0316	0.0053
760.2067	0.0059
760.3819	0.0062
760.557	0.0139
760.732	-0
760.9071	-0.0105
761.0821	0.0025
761.2572	0.008
761.4322	0.0035
761.6072	0.0046
761.7821	-0.0014
761.9571	0.0103
762.132	0.0099
762.3069	-0.0061
762.4818	-0.0007
762.6567	0.0008
762.8316	0.0027
763.0064	0.0016
763.1812	0.0035
763.356	-0.0081
763.5308	-0.0032
763.7055	0.0013
763.8803	-0.0022
764.055	-0.0018
764.2297	0.0053
764.4044	-0.0022
764.579	-0.011
764.7537	-0.0152
764.9283	-0.0039
765.1029	-0.0058
765.2775	-0.0019
765.4521	-0.0166
765.6266	0.0019
765.8011	-0.005
765.9756	-0.0055
766.1501	0.0054
766.3246	-0.0074
766.4991	-0.0066
766.6735	-0.0103
766.8479	-0.0048
767.0223	0.0075
767.1967	-0.0029
767.371	-0.0036
767.5454	-0.0043
767.7197	-0.0001
767.894	-0.011
768.0683	-0.0093
768.2425	-0.0003
768.4168	0.0046
768.591	-0.0039
768.7652	-0.0067
768.9394	-0.0032
769.1135	-0.0013
769.2877	0.0112
769.4618	-0.0028
769.6359	-0.0036
769.81	0.0077
769.984	0.0037
770.1581	-0.0114
770.3321	-0.0022
770.5061	-0.0032
770.6801	0.0099
770.8541	0.0029
771.028	0.01
771.202	-0.0108
771.3759	0.0125
771.5498	-0.0046
771.7236	0.0117
771.8975	0.0121
772.0713	0.0031
772.2451	0.0045
772.4189	0.0097
772.5927	-0.0028
772.7665	-0.0019
772.9402	-0.0109
773.1139	-0.0004
773.2876	-0.0034
773.4613	0.0212
773.635	0.0016
773.8086	-0.0071
773.9822	0.0033
774.1558	0.0066
774.3294	-0.0138
774.503	-0.0117
774.6765	-0.0042
774.8501	0.002
775.0236	-0.0091
775.1971	0.0034
775.3705	-0.0075
775.544	0.0004
775.7174	-0.0147
775.8908	-0.0008
776.0642	-0.017
776.2376	-0.003
776.4109	-0.008
776.5843	-0.0075
776.7576	0.005
776.9309	0.0143
777.1041	0.0137
777.2774	0.019
777.4506	-0.0059
777.6238	-0.0129
777.797	0.0027
777.9702	-0.0034
778.1434	-0.0058
778.3165	-0.0015
778.4896	-0.0093
778.6627	0.0085
778.8358	-0.0043
779.0089	-0.0048
779.1819	-0.0055
779.3549	0.0056
779.5279	0.0013
779.7009	0.0028
779.8739	-0.0084
780.0468	0.0054
780.2197	0.0057
780.3926	0.0005
780.5655	0.0029
780.7384	-0.0034
780.9112	-0.0016
781.0841	-0.0067
781.2569	0.0003
781.4297	-0.001
781.6024	0.0048
781.7752	0.0083
781.9479	0.0012
782.1206	0.0055
782.2933	-0.0036
782.466	0.0025
782.6386	-0.0051
782.8113	-0.0027
782.9839	-0.0096
783.1565	0.0077
783.329	0.0041
783.5016	0.0072
783.6741	0.0007
783.8466	-0.0122
784.0191	0.0138
784.1916	-0.014
784.3641	0.0074
784.5365	0.0089
784.7089	-0.0027
784.8813	-0.0015
785.0537	-0.003
785.2261	-0.006
785.3984	-0.0187
785.5707	-0.0084
785.743	-0.0086
785.9153	-0.0117
786.0876	0.0045
786.2598	-0.0041
786.432	-0.0129
786.6042	0.0025
786.7764	-0.0009
786.9486	0.005
787.1207	-0.0106
787.2928	0.0054
787.4649	0.0082
787.637	0.004
787.8091	-0.0172
787.9811	-0.0039
788.1532	-0.0023
788.3252	0.0042
788.4972	-0.0127
788.6691	-0.0035
788.8411	0.0042
789.013	-0.0102
789.1849	0.0025
789.3568	-0.0019
789.5287	0.0027
789.7005	0.0046
789.8723	0.0063
790.0442	0.0138
790.2159	0.003
790.3877	-0.0027
790.5595	-0.0075
790.7312	0.0024
790.9029	-0.0051
791.0746	-0.0014
791.2463	-0.0047
791.4179	0.0003
791.5896	-0.0292
791.7612	0.0015
791.9328	0.0068
792.1044	-0.0063
792.2759	-0.0194
792.4474	-0.0129
792.619	-0.0041
792.7905	0.0029
792.9619	-0.004
793.1334	0.0099
793.3048	0.0143
793.4762	0.0134
793.6476	-0.0034
793.819	-0.0029
793.9904	0.0157
794.1617	-0.0107
794.333	-0.0063
794.5043	-0.0156
794.6756	-0.01
794.8469	-0.0052
795.0181	-0.0064
795.1893	-0.0017
795.3605	-0.0012
795.5317	0.0052
795.7029	-0.006
795.874	-0.0036
796.0452	-0.0083
796.2163	0.0068
796.3873	0.007
796.5584	0.0033
796.7294	0.0057
796.9005	0.0073
797.0715	-0
797.2425	-0.0282
797.4134	-0.0062
797.5844	-0.0016
797.7553	-0.0082
797.9262	-0.0048
798.0971	-0.0216
798.2679	-0.0107
798.4388	-0.0193
798.6096	-0.0085
798.7804	-0.0021
798.9512	-0.0039
799.122	-0.0109
799.2927	-0.0175
799.4635	-0.0037
799.6342	-0.0359
799.8049	-0.0047
799.9755	-0.0119
800.1462	0.0007
800.3168	0.0038
800.4874	0.0004
800.658	0.0154
800.8286	0.0086
800.9991	0.007
801.1696	0.0017
801.3402	0.0196
801.5106	-0.0041
801.6811	0.0217
801.8516	0.0129
802.022	0.0105
802.1924	0.0118
802.3628	0.0113
802.5332	0.0024
802.7035	0.015
802.8739	0.0046
803.0442	0.0067
803.2145	-0.0066
803.3847	-0.0205
803.555	0.0073
803.7252	-0.0096
803.8954	-0.0212
804.0656	-0.0266
804.2358	-0.0091
804.4059	0.0123
804.5761	-0.0192
804.7462	-0.0029
804.9163	-0.0046
805.0864	-0.014
805.2564	-0.0131
805.4264	0.0033
805.5965	-0.0154
805.7665	-0.0056
805.9364	-0.0126
806.1064	0.0269
806.2763	0.0004
806.4462	0.0115
806.6161	0.0026
806.786	0.007
806.9559	-0.0206
807.1257	-0.0171
807.2955	0.0013
807.4653	0.0103
807.6351	0.0007
807.8048	0.0042
807.9746	-0.0064
808.1443	0.0057
808.314	-0.0112
808.4837	0.0047
808.6533	0.0076
808.8229	0.004
808.9926	-0.0042
809.1622	0.0079
809.3317	-0.0132
809.5013	-0.0055
809.6708	0.0121
809.8403	0.0084
810.0098	-0.0113
810.1793	-0.0026
810.3488	-0.005
810.5182	-0.0091
810.6876	0.004
810.857	-0.0194
811.0264	0.0153
811.1958	-0.0074
811.3651	0.0135
811.5344	-0.0076
811.7037	-0.0142
811.873	-0.0046
812.0422	-0.0058
812.2115	-0.0038
812.3807	-0.0035
812.5499	-0.0115
812.7191	0.0114
812.8882	0.0017
813.0574	-0.0158
813.2265	-0.0129
813.3956	-0.0147
813.5646	0.0024
813.7337	-0.021
813.9027	0.0093
814.0718	0.0144
814.2407	0.0128
814.4097	-0.0064
814.5787	-0.0225
814.7476	-0.024
814.9165	-0.0116
815.0854	0.0077
815.2543	0.0008
815.4232	-0.0099
815.592	0.0026
815.7608	-0.0134
815.9296	0.0047
816.0984	-0.0053
816.2671	0.0089
816.4359	0.0094
816.6046	-0.0217
816.7733	-0.0209
816.942	-0.0218
817.1106	-0.0024
817.2793	0.0006
817.4479	-0.0082
817.6165	-0.0285
817.785	-0.0128
817.9536	-0.0193
818.1221	0.0038
818.2906	-0.0004
818.4591	0.0049
818.6276	-0.0275
818.7961	-0.0027
818.9645	-0.0004
819.1329	0.0073
819.3013	0.0068
819.4697	0.0142
819.638	0.0153
819.8064	0.0013
819.9747	0.021
820.143	-0.0114
820.3113	-0.0309
820.4795	0.0131
820.6477	0.0122
820.816	-0.0021
820.9842	0.0032
821.1523	-0.0097
821.3205	-0.0212
821.4886	-0.0101
821.6567	-0.0093
821.8248	0.0073
821.9929	0.0044
822.1609	0.0129
822.329	0.0156
822.497	0.0028
822.665	-0.0106
822.833	-0.0096
823.0009	0.0187
823.1688	0.0255
823.3367	0.0065
823.5046	0.0073
823.6725	0.021
823.8404	0.0003
824.0082	-0.0166
824.176	-0.0005
824.3438	0.0088
824.5116	0.0029
824.6793	0.0086
824.847	0.0129
825.0147	0.0059
825.1824	0.0082
825.3501	0.0185
825.5177	-0.023
825.6854	-0.0061
825.853	0.0045
826.0206	-0.0061
826.1881	0.0148
826.3557	-0.0122
826.5232	0.0163
826.6907	-0.0229
826.8582	-0.0406
827.0257	-0.0376
827.1931	-0.0301
827.3605	-0.0085
827.528	-0.007
827.6953	-0.0251
827.8627	-0.0255
828.03	-0.0042
828.1974	-0.0225
828.3647	-0.0456
828.532	-0.0213
828.6992	-0.0137
828.8665	-0.0095
829.0337	-0.0061
829.2009	0.0049
829.3681	-0.0215
829.5352	0.0142
829.7024	-0.0327
829.8695	-0.0214
830.0366	0.0555
830.2037	-0.0026
830.3707	0.0186
830.5378	0.0069
830.7048	-0.0156
830.8718	-0.0023
831.0388	-0.0181
831.2057	0.0395
831.3727	0.0374
831.5396	-0.0297
831.7065	-0.0268
831.8734	0.0026
832.0402	-0.06
832.2071	0.0062
832.3739	-0.0177
832.5407	0.0047
832.7075	0.0056
832.8742	0.0079
833.041	-0.0171
833.2077	-0.0163
833.3744	-0.0174
833.541	0.0029
833.7077	-0.0412
833.8743	-0.0136
834.0409	0.0205
834.2075	-0.0283
834.3741	-0.0304
834.5407	-0.0188
834.7072	-0.0151
834.8737	-0.0202
835.0402	-0.0211
835.2067	0.017
835.3731	-0.0093
835.5395	-0.0096
835.706	-0.0059
835.8723	-0.0293
836.0387	0.0081
836.2051	-0.0091
836.3714	-0.0247
836.5377	-0.0242
836.704	-0.0257
836.8703	-0.0263
837.0365	-0.0145
837.2027	0.006
837.3689	0.0053
837.5351	0.0214
837.7013	0.0007
837.8674	-0.0635
838.0335	-0.0275
838.1997	-0.0098
838.3657	-0.0348
838.5318	-0.0166
838.6978	0.0494
838.8639	0.0044
839.0299	0.0086
839.1958	-0.0259
839.3618	0.0042
839.5277	-0.0448
839.6937	0.0432
839.8596	-0.0135
840.0254	-0.0099
840.1913	0.021
840.3571	0.0007
840.523	-0.0318
840.6888	-0.0011
840.8545	-0.0134
841.0203	0.0168
841.186	-0.0078
841.3517	0.0219
841.5174	-0.0139
841.6831	-0.0095
841.8488	-0.0001
842.0144	0.0072
842.18	0.0133
842.3456	0.0055
842.5112	-0.0238
842.6767	-0.0467
842.8422	-0.0448
843.0077	-0.0632
843.1732	-0.0071
843.3387	-0.0564
843.5042	-0.0262
843.6696	-0.0237
843.835	0.0108
844.0004	0.0373
844.1657	0.0039
844.3311	-0.0167
844.4964	-0.068
844.6617	-0.0375
844.827	-0.0082
844.9923	-0.0059
845.1575	-0.0538
845.3227	0.0409
845.4879	0.0032
845.6531	-0.0683
845.8183	-0.0308
845.9834	0.0486
846.1485	-0.0141
846.3136	-0.0873
846.4787	-0.0731
846.6438	0.049
846.8088	-0.0788
846.9738	-0.0939
847.1388	-0.0631
847.3038	-0.0529
847.4687	-0.171
847.6337	0.0011
847.7986	-0.0272
847.9635	-0.0781
848.1284	-0.0267
848.2932	0.0123
848.458	-0.0409
848.6228	0.0082
848.7876	0.041
848.9524	-0.0302
849.1172	-0.0696
849.2819	-0.0058
849.4466	-0.0868
849.6113	-0.1224
849.7759	-0.033
849.9406	-0.0474
850.1052	0.0616
850.2698	-0.0875
850.4344	-0.0658
850.599	-0.0426
850.7635	0.008
850.928	-0.0988
851.0925	-0.0246
851.257	0.0484
851.4215	0.0261
851.5859	-0.0238
851.7503	0.009
851.9147	-0.0196
852.0791	-0.0325
852.2434	-0.0653
852.4078	0.0658
852.5721	0.0095
852.7364	-0.0681
852.9007	-0.1886
853.0649	-0.0081
853.2291	0.0174
853.3934	-0.0442
853.5575	-0.0593
853.7217	-0.0739
853.8859	0.2244
854.05	-0.031
854.2141	-0.0157
854.3782	-0.0636
854.5423	-0.0808
854.7063	0.086
854.8703	-0.0832
855.0343	-0.1414
855.1983	-0.1366
855.3623	0.167
855.5262	0.1187
855.6901	0.0045
855.854	-0.0085
856.0179	0.1455
856.1818	0.147
856.3456	0.0063
856.5094	-0.2128
856.6732	-0.07
856.837	-0.0921
857.0008	0.1453
857.1645	-0.0519
857.3282	-0.1746
857.4919	0.0326
857.6556	-0.0397
857.8192	-0.0617
857.9828	0.0411
858.1465	-0.0555
858.31	-0.1148
858.4736	-0.1325
858.6372	-0.1637
858.8007	-0.1592
858.9642	-0.0399
859.1277	-0.0347
859.2911	0.1027
859.4546	-0.0227
859.618	-0.2381
859.7814	-0.0329
859.9448	-0.038
860.1081	0.1488
860.2715	0.0126
860.4348	0.0077
860.5981	-0.1158
860.7614	0.0969
860.9246	-0.1867
861.0879	-0.1929
861.2511	0.0551
861.4143	-0.3461
861.5774	0.2821
861.7406	-0.1446
861.9037	-0.0387
862.0668	-0.0206
862.2299	-0.2044
862.393	-0.6322
862.556	0.1387
862.7191	0.0882
862.8821	-0.3664
863.0451	-0.0009
863.208	0.371
863.371	0.0615
863.5339	-0.3443
863.6968	0.0091
863.8597	0.0998
864.0225	-0.1624
864.1854	0.1346
864.3482	-0.0684
864.511	0.3595
864.6737	0.1739
864.8365	0.1811
864.9992	-0.412
865.1619	-0.2176
865.3246	0.3232
865.4873	0.1302
865.65	-0.338
865.8126	-0.1055
865.9752	0.1456
866.1378	-0.2889
866.3004	-0.0545
866.4629	0.3528
866.6254	-0.0155
866.7879	-0.3509
866.9504	0.8667
867.1129	-0
867.2753	0.2454
867.4377	0.2621
867.6001	0.0303
867.7625	0.2333
867.9249	-0
868.0872	-0.2358
868.2495	0.1233
868.4118	-0.2254
868.5741	-0.6954
868.7363	-0.4454
868.8986	0.394
869.0608	-0.0961
869.223	0.2216
869.3851	0.1732
869.5473	-0
869.7094	0.2694
869.8715	-0.0059
870.0336	-0.8188
870.1957	-0.4451
870.3577	-0
870.5197	-0.0504
870.6817	-0.4403
870.8437	-0.1272
871.0057	-0
871.1676	-0
871.3295	-0.2764
871.4914	-0
871.6533	-0.4053
871.8151	-0.4077
871.977	-0
872.1388	-0
872.3006	-0.1388
872.4623	-0.2264
872.6241	-0
872.7858	0.0551
872.9475	-0.3202
873.1092	-0.3147
873.2709	-0.0038
873.4325	-0.1381
873.5941	-0.5242
873.7557	-0.1736
873.9173	-0
874.0789	-0.4878
874.2404	-0.9463
874.4019	0.3675
874.5634	0.0969
874.7249	-0.2366
874.8863	-0
875.0478	0.1724
875.2092	-0
875.3706	-0.0737
875.5319	-0.8589
875.6933	-0.2174
875.8546	-0
876.0159	-0
876.1772	0.0678
876.3385	1.0107
876.4997	0.1959
876.6609	-0.67
876.8221	0.0495
876.9833	0.3593
877.1445	-0
877.3056	0.0627
877.4667	0.2646
877.6278	-0
877.7889	-0.4745
877.9499	-0
878.111	0.3452
878.272	-0.9586
878.433	-0
878.5939	-0
878.7549	0.0909
878.9158	-0.7235
879.0767	-0
879.2376	0.8129
879.3984	0.2713
879.5593	0.3658
879.7201	-0.0684
879.8809	-0.5285
880.0417	-0.1054
880.2024	0.5319
880.3632	-0
880.5239	0.2796
880.6846	0.1656
880.8452	-2.3139
881.0059	-0
881.1665	-0
881.3271	-0
881.4877	-0.379
881.6483	-0.3172
881.8088	-0.1417
881.9693	1.6048
882.1298	1.6048
882.2903	1.6048
