Data from MonoPyChalIsomerACN10uM410nmA_Absorbance_14-53-25-573.txt Node
Date: Fri Jul 05 14:53:25 BST 2024
User: LASERRRRR
Spectrometer: FLMT03099
Trigger mode: 0
Integration Time (sec): 1.000000E-1
Scans to average: 1
Electric dark correction enabled: true
Nonlinearity correction enabled: false
Boxcar width: 0
XAxis mode: Wavelengths
Number of Pixels in Spectrum: 3648
>>>>>Begin Spectral Data<<<<<
179.3399	-0.3328
179.5586	-0.3328
179.7771	-0.3328
179.9957	-0
180.2143	-0
180.4329	-0.2467
180.6514	-0
180.8699	-0.3517
181.0885	0.5948
181.307	0.2205
181.5255	-0.9966
181.744	0.4225
181.9625	-0
182.181	-1.201
182.3994	0.0266
182.6179	0.5384
182.8363	0.1567
183.0547	-0.1523
183.2732	0.2751
183.4916	0.2406
183.71	0.1922
183.9284	0.09
184.1467	-0.2309
184.3651	-0.0505
184.5835	0.0268
184.8018	0.1381
185.0201	0.0449
185.2385	0.0414
185.4568	0.3801
185.6751	0.1403
185.8934	0.18
186.1117	0.1597
186.3299	0.1817
186.5482	0.1652
186.7664	0.094
186.9847	-0.1022
187.2029	0.1878
187.4211	0.1227
187.6393	0.1125
187.8575	-0.1107
188.0757	0.2877
188.2939	0.0241
188.512	0.1607
188.7302	0.0164
188.9483	-0.0771
189.1665	0.151
189.3846	-0.1859
189.6027	0.2533
189.8208	0.1569
190.0389	0.302
190.257	0.3837
190.475	0.1325
190.6931	0.2738
190.9111	0.162
191.1292	0.1368
191.3472	0.6761
191.5652	0.3746
191.7832	0.0966
192.0012	0.5035
192.2192	0.5602
192.4371	0.6725
192.6551	0.4227
192.873	0.6818
193.091	0.5094
193.3089	0.8247
193.5268	0.4482
193.7447	0.5808
193.9626	0.5448
194.1805	0.524
194.3984	0.8938
194.6162	0.5677
194.8341	0.4366
195.0519	0.4793
195.2697	0.6659
195.4875	0.5874
195.7054	0.6379
195.9231	0.6571
196.1409	0.4694
196.3587	0.7212
196.5765	0.5012
196.7942	0.5072
197.012	0.4505
197.2297	0.5786
197.4474	0.6839
197.6651	0.4761
197.8828	0.5838
198.1005	0.6701
198.3182	0.6497
198.5358	0.6823
198.7535	0.5834
198.9711	0.5118
199.1888	0.7088
199.4064	0.6263
199.624	0.6478
199.8416	0.7822
200.0592	0.7679
200.2767	0.6701
200.4943	0.6573
200.7119	0.6075
200.9294	0.5992
201.1469	0.5684
201.3645	0.5625
201.582	0.5221
201.7995	0.5707
202.017	0.7205
202.2344	0.713
202.4519	0.7559
202.6694	0.6699
202.8868	0.6273
203.1042	0.6559
203.3217	0.6637
203.5391	0.6589
203.7565	0.5736
203.9739	0.5656
204.1913	0.7146
204.4086	0.6536
204.626	0.683
204.8433	0.7188
205.0607	0.569
205.278	0.8279
205.4953	0.6924
205.7126	0.629
205.9299	0.6683
206.1472	0.7281
206.3644	0.6536
206.5817	0.654
206.7989	0.7231
207.0162	0.6157
207.2334	0.657
207.4506	0.6728
207.6678	0.5888
207.885	0.6263
208.1022	0.7299
208.3194	0.6927
208.5365	0.6125
208.7537	0.6154
208.9708	0.5904
209.1879	0.643
209.405	0.6908
209.6222	0.6597
209.8392	0.5817
210.0563	0.5641
210.2734	0.6748
210.4905	0.5989
210.7075	0.5964
210.9245	0.65
211.1416	0.6116
211.3586	0.6197
211.5756	0.5976
211.7926	0.6067
212.0096	0.6147
212.2265	0.5945
212.4435	0.6002
212.6604	0.6139
212.8774	0.5858
213.0943	0.5781
213.3112	0.5477
213.5281	0.5753
213.745	0.5024
213.9619	0.5092
214.1788	0.476
214.3956	0.4685
214.6125	0.4512
214.8293	0.4433
215.0461	0.474
215.2629	0.4303
215.4798	0.4618
215.6965	0.4431
215.9133	0.4257
216.1301	0.4044
216.3469	0.4268
216.5636	0.4004
216.7803	0.3915
216.9971	0.4197
217.2138	0.3919
217.4305	0.3711
217.6472	0.3729
217.8639	0.371
218.0805	0.2974
218.2972	0.3115
218.5138	0.3312
218.7305	0.3305
218.9471	0.274
219.1637	0.2846
219.3803	0.3136
219.5969	0.29
219.8135	0.2685
220.0301	0.2718
220.2466	0.2829
220.4632	0.26
220.6797	0.2329
220.8962	0.2198
221.1127	0.2567
221.3292	0.2532
221.5457	0.2344
221.7622	0.2294
221.9787	0.251
222.1951	0.2144
222.4116	0.2774
222.628	0.2594
222.8444	0.2571
223.0608	0.2534
223.2772	0.2533
223.4936	0.2646
223.71	0.2383
223.9264	0.2479
224.1427	0.2657
224.3591	0.2387
224.5754	0.2714
224.7917	0.2559
225.008	0.2577
225.2243	0.246
225.4406	0.2972
225.6569	0.2641
225.8732	0.2769
226.0894	0.2647
226.3057	0.265
226.5219	0.2901
226.7381	0.2736
226.9543	0.2498
227.1705	0.2804
227.3867	0.262
227.6029	0.3041
227.8191	0.2841
228.0352	0.2909
228.2513	0.3275
228.4675	0.3152
228.6836	0.2913
228.8997	0.2844
229.1158	0.3078
229.3319	0.313
229.548	0.3117
229.764	0.3289
229.9801	0.3102
230.1961	0.3458
230.4121	0.3404
230.6282	0.3226
230.8442	0.3232
231.0602	0.3529
231.2761	0.3582
231.4921	0.3395
231.7081	0.3275
231.924	0.3509
232.14	0.366
232.3559	0.3357
232.5718	0.366
232.7877	0.3375
233.0036	0.3311
233.2195	0.3667
233.4353	0.3521
233.6512	0.3617
233.867	0.3595
234.0829	0.3465
234.2987	0.3705
234.5145	0.3734
234.7303	0.3645
234.9461	0.3864
235.1619	0.3691
235.3776	0.3836
235.5934	0.3982
235.8091	0.3759
236.0249	0.3719
236.2406	0.3875
236.4563	0.3776
236.672	0.4096
236.8877	0.4154
237.1034	0.3831
237.319	0.3999
237.5347	0.3926
237.7503	0.3794
237.966	0.4144
238.1816	0.4065
238.3972	0.4087
238.6128	0.4065
238.8284	0.4148
239.0439	0.415
239.2595	0.398
239.475	0.4383
239.6906	0.4093
239.9061	0.3986
240.1216	0.3877
240.3371	0.3998
240.5526	0.3751
240.7681	0.4006
240.9836	0.393
241.199	0.4022
241.4145	0.3875
241.6299	0.3788
241.8453	0.3816
242.0607	0.3666
242.2761	0.3569
242.4915	0.35
242.7069	0.3747
242.9223	0.3572
243.1376	0.3363
243.353	0.3481
243.5683	0.3546
243.7836	0.326
243.9989	0.3332
244.2142	0.3102
244.4295	0.3224
244.6448	0.3117
244.86	0.3039
245.0753	0.293
245.2905	0.2876
245.5057	0.2896
245.721	0.2736
245.9362	0.2663
246.1514	0.2792
246.3665	0.2674
246.5817	0.2533
246.7969	0.2482
247.012	0.2378
247.2271	0.2398
247.4423	0.242
247.6574	0.2412
247.8725	0.2279
248.0876	0.2246
248.3026	0.2158
248.5177	0.2164
248.7328	0.2124
248.9478	0.2091
249.1628	0.2174
249.3779	0.2263
249.5929	0.1883
249.8079	0.2044
250.0228	0.2162
250.2378	0.2037
250.4528	0.2017
250.6677	0.1726
250.8827	0.1826
251.0976	0.2029
251.3125	0.1975
251.5274	0.1762
251.7423	0.1691
251.9572	0.1798
252.172	0.1706
252.3869	0.173
252.6017	0.1845
252.8166	0.1594
253.0314	0.1582
253.2462	0.1555
253.461	0.1841
253.6758	0.1717
253.8906	0.184
254.1053	0.1739
254.3201	0.16
254.5348	0.1814
254.7496	0.1679
254.9643	0.1647
255.179	0.1756
255.3937	0.1622
255.6083	0.1655
255.823	0.1737
256.0377	0.1579
256.2523	0.1649
256.467	0.1518
256.6816	0.1779
256.8962	0.1742
257.1108	0.158
257.3254	0.1648
257.54	0.1645
257.7545	0.1597
257.9691	0.1633
258.1836	0.1644
258.3981	0.1803
258.6127	0.1659
258.8272	0.1566
259.0417	0.1529
259.2561	0.1693
259.4706	0.1684
259.6851	0.1654
259.8995	0.1613
260.114	0.1576
260.3284	0.1657
260.5428	0.1535
260.7572	0.1717
260.9716	0.1664
261.186	0.1545
261.4003	0.1585
261.6147	0.1639
261.829	0.1595
262.0433	0.1546
262.2577	0.162
262.472	0.1662
262.6863	0.1548
262.9005	0.1666
263.1148	0.1702
263.3291	0.1446
263.5433	0.1533
263.7576	0.1637
263.9718	0.1595
264.186	0.1567
264.4002	0.1652
264.6144	0.1675
264.8286	0.1659
265.0427	0.1569
265.2569	0.1646
265.471	0.1599
265.6851	0.1571
265.8993	0.1492
266.1134	0.1591
266.3275	0.1605
266.5415	0.1522
266.7556	0.175
266.9697	0.1556
267.1837	0.1743
267.3978	0.1647
267.6118	0.17
267.8258	0.1715
268.0398	0.147
268.2538	0.1754
268.4677	0.1644
268.6817	0.1538
268.8957	0.164
269.1096	0.1604
269.3235	0.1636
269.5374	0.1549
269.7514	0.1571
269.9652	0.1484
270.1791	0.1529
270.393	0.1413
270.6068	0.1464
270.8207	0.1336
271.0345	0.1525
271.2483	0.1494
271.4622	0.1373
271.676	0.1485
271.8897	0.1373
272.1035	0.1349
272.3173	0.1471
272.531	0.1513
272.7448	0.1448
272.9585	0.142
273.1722	0.1456
273.3859	0.1427
273.5996	0.1396
273.8133	0.1546
274.0269	0.1251
274.2406	0.1275
274.4542	0.1398
274.6679	0.1387
274.8815	0.1417
275.0951	0.1454
275.3087	0.1464
275.5223	0.1407
275.7358	0.1452
275.9494	0.1371
276.1629	0.1284
276.3765	0.1439
276.59	0.1438
276.8035	0.1469
277.017	0.1372
277.2305	0.1341
277.444	0.1411
277.6574	0.137
277.8709	0.1433
278.0843	0.1394
278.2978	0.1436
278.5112	0.1415
278.7246	0.1458
278.938	0.1443
279.1513	0.1465
279.3647	0.151
279.5781	0.1398
279.7914	0.1489
280.0047	0.1599
280.2181	0.1399
280.4314	0.1524
280.6447	0.1476
280.8579	0.1333
281.0712	0.1488
281.2845	0.1662
281.4977	0.148
281.711	0.1528
281.9242	0.1417
282.1374	0.1558
282.3506	0.151
282.5638	0.1532
282.7769	0.1561
282.9901	0.1516
283.2033	0.1545
283.4164	0.1615
283.6295	0.1453
283.8426	0.1504
284.0557	0.1687
284.2688	0.1673
284.4819	0.1618
284.695	0.152
284.908	0.1657
285.1211	0.1491
285.3341	0.1592
285.5471	0.1538
285.7601	0.1566
285.9731	0.1466
286.1861	0.1547
286.3991	0.1641
286.612	0.1726
286.825	0.1607
287.0379	0.1663
287.2508	0.1497
287.4637	0.1675
287.6766	0.158
287.8895	0.1638
288.1024	0.1684
288.3152	0.1654
288.5281	0.1426
288.7409	0.1739
288.9538	0.1612
289.1666	0.1583
289.3794	0.1598
289.5922	0.1538
289.8049	0.1563
290.0177	0.1693
290.2304	0.1653
290.4432	0.1573
290.6559	0.1621
290.8686	0.1722
291.0813	0.1554
291.294	0.159
291.5067	0.1792
291.7194	0.1539
291.932	0.1721
292.1447	0.1675
292.3573	0.1503
292.5699	0.1674
292.7825	0.1699
292.9951	0.1638
293.2077	0.1635
293.4203	0.1657
293.6328	0.154
293.8454	0.1682
294.0579	0.1581
294.2704	0.1534
294.4829	0.1607
294.6954	0.1676
294.9079	0.1655
295.1204	0.1553
295.3328	0.1538
295.5453	0.1741
295.7577	0.1679
295.9701	0.1525
296.1825	0.167
296.3949	0.1661
296.6073	0.1544
296.8197	0.1512
297.0321	0.1744
297.2444	0.143
297.4567	0.1564
297.6691	0.1662
297.8814	0.1588
298.0937	0.1615
298.306	0.1746
298.5182	0.1612
298.7305	0.1655
298.9428	0.1628
299.155	0.1639
299.3672	0.1602
299.5794	0.1577
299.7916	0.1609
300.0038	0.1643
300.216	0.1634
300.4282	0.1663
300.6403	0.1567
300.8525	0.164
301.0646	0.1529
301.2767	0.165
301.4888	0.1649
301.7009	0.1692
301.913	0.157
302.125	0.17
302.3371	0.1569
302.5491	0.1608
302.7612	0.1747
302.9732	0.1636
303.1852	0.1617
303.3972	0.1529
303.6092	0.1508
303.8211	0.1423
304.0331	0.1607
304.245	0.1469
304.457	0.1559
304.6689	0.1533
304.8808	0.164
305.0927	0.1456
305.3046	0.1453
305.5164	0.1612
305.7283	0.153
305.9401	0.1547
306.152	0.1623
306.3638	0.1562
306.5756	0.1537
306.7874	0.1498
306.9992	0.1461
307.2109	0.1391
307.4227	0.1248
307.6344	0.1439
307.8462	0.1444
308.0579	0.1299
308.2696	0.1297
308.4813	0.1361
308.693	0.1318
308.9046	0.1291
309.1163	0.1306
309.328	0.128
309.5396	0.1378
309.7512	0.1226
309.9628	0.126
310.1744	0.125
310.386	0.1184
310.5976	0.1215
310.8091	0.1204
311.0207	0.1104
311.2322	0.1242
311.4437	0.1099
311.6552	0.1073
311.8667	0.1119
312.0782	0.0968
312.2897	0.1069
312.5012	0.1065
312.7126	0.0912
312.924	0.1018
313.1355	0.1064
313.3469	0.1001
313.5583	0.1056
313.7696	0.1164
313.981	0.1055
314.1924	0.0994
314.4037	0.1085
314.6151	0.1165
314.8264	0.0978
315.0377	0.1025
315.249	0.1025
315.4603	0.1081
315.6716	0.0939
315.8828	0.0952
316.0941	0.0941
316.3053	0.0964
316.5165	0.0959
316.7277	0.0913
316.9389	0.0974
317.1501	0.093
317.3613	0.1047
317.5724	0.0903
317.7836	0.1035
317.9947	0.1062
318.2058	0.094
318.417	0.0844
318.6281	0.0733
318.8391	0.0856
319.0502	0.0951
319.2613	0.0973
319.4723	0.0927
319.6834	0.1131
319.8944	0.0858
320.1054	0.0939
320.3164	0.1018
320.5274	0.1026
320.7383	0.0976
320.9493	0.095
321.1602	0.1072
321.3712	0.0881
321.5821	0.0974
321.793	0.0949
322.0039	0.1039
322.2148	0.104
322.4257	0.0899
322.6365	0.1131
322.8474	0.1075
323.0582	0.1001
323.269	0.1003
323.4798	0.1059
323.6906	0.112
323.9014	0.096
324.1122	0.0935
324.3229	0.0823
324.5337	0.0977
324.7444	0.0998
324.9551	0.1127
325.1658	0.0947
325.3765	0.0934
325.5872	0.1051
325.7979	0.0987
326.0085	0.1079
326.2192	0.1072
326.4298	0.1118
326.6404	0.0952
326.851	0.0986
327.0616	0.0859
327.2722	0.098
327.4828	0.1042
327.6933	0.1089
327.9039	0.1115
328.1144	0.1103
328.3249	0.0999
328.5354	0.1028
328.7459	0.1014
328.9564	0.0869
329.1669	0.0979
329.3773	0.1104
329.5878	0.1041
329.7982	0.1004
330.0086	0.0999
330.219	0.1105
330.4294	0.1099
330.6398	0.1022
330.8502	0.0986
331.0605	0.1059
331.2708	0.1017
331.4812	0.1017
331.6915	0.1101
331.9018	0.0968
332.1121	0.0938
332.3224	0.1019
332.5326	0.1035
332.7429	0.1059
332.9531	0.1145
333.1633	0.1133
333.3735	0.1057
333.5837	0.1031
333.7939	0.1064
334.0041	0.1167
334.2143	0.1065
334.4244	0.106
334.6346	0.0873
334.8447	0.12
335.0548	0.0956
335.2649	0.1054
335.475	0.1172
335.685	0.0983
335.8951	0.1125
336.1051	0.1029
336.3152	0.1092
336.5252	0.1057
336.7352	0.1103
336.9452	0.1067
337.1552	0.1162
337.3652	0.1028
337.5751	0.1067
337.7851	0.1103
337.995	0.0964
338.2049	0.1166
338.4148	0.1081
338.6247	0.1237
338.8346	0.1093
339.0445	0.0878
339.2543	0.1044
339.4642	0.1035
339.674	0.1025
339.8838	0.1092
340.0936	0.1068
340.3034	0.1183
340.5132	0.1239
340.7229	0.1178
340.9327	0.1084
341.1424	0.1214
341.3522	0.1231
341.5619	0.1097
341.7716	0.1215
341.9813	0.1159
342.1909	0.1267
342.4006	0.1134
342.6102	0.1223
342.8199	0.1265
343.0295	0.1071
343.2391	0.1421
343.4487	0.1291
343.6583	0.1151
343.8679	0.1199
344.0774	0.1192
344.287	0.1234
344.4965	0.1158
344.706	0.1283
344.9155	0.1229
345.125	0.1254
345.3345	0.1345
345.544	0.1325
345.7534	0.1242
345.9629	0.123
346.1723	0.121
346.3817	0.1287
346.5911	0.124
346.8005	0.1426
347.0099	0.1198
347.2193	0.1403
347.4286	0.1231
347.638	0.1209
347.8473	0.1352
348.0566	0.1247
348.2659	0.1416
348.4752	0.1285
348.6845	0.1346
348.8937	0.1298
349.103	0.1336
349.3122	0.1335
349.5214	0.1348
349.7306	0.1334
349.9398	0.1339
350.149	0.1357
350.3582	0.1348
350.5674	0.1409
350.7765	0.1396
350.9856	0.1317
351.1948	0.1341
351.4039	0.1188
351.613	0.1254
351.822	0.1329
352.0311	0.1378
352.2402	0.1442
352.4492	0.1386
352.6582	0.1489
352.8672	0.1446
353.0762	0.1427
353.2852	0.1432
353.4942	0.1411
353.7032	0.1408
353.9121	0.1474
354.1211	0.1614
354.33	0.1602
354.5389	0.1633
354.7478	0.1457
354.9567	0.1496
355.1655	0.1375
355.3744	0.1503
355.5833	0.1683
355.7921	0.1729
356.0009	0.1558
356.2097	0.1627
356.4185	0.1657
356.6273	0.1576
356.8361	0.1609
357.0448	0.1498
357.2536	0.1589
357.4623	0.1558
357.671	0.1649
357.8797	0.1534
358.0884	0.1608
358.2971	0.1672
358.5057	0.1551
358.7144	0.1656
358.923	0.1629
359.1316	0.1725
359.3402	0.1692
359.5488	0.1704
359.7574	0.167
359.966	0.1852
360.1746	0.1686
360.3831	0.1718
360.5916	0.1612
360.8002	0.175
361.0087	0.1816
361.2172	0.1703
361.4256	0.188
361.6341	0.1858
361.8426	0.1828
362.051	0.1806
362.2594	0.1828
362.4678	0.1871
362.6762	0.2011
362.8846	0.1867
363.093	0.1776
363.3014	0.1837
363.5097	0.1673
363.718	0.1963
363.9264	0.1793
364.1347	0.1767
364.343	0.1821
364.5513	0.1969
364.7595	0.186
364.9678	0.1951
365.176	0.2053
365.3842	0.195
365.5925	0.1956
365.8007	0.1862
366.0089	0.1984
366.217	0.1867
366.4252	0.2073
366.6333	0.2105
366.8415	0.2125
367.0496	0.1843
367.2577	0.2054
367.4658	0.2229
367.6739	0.2057
367.882	0.2061
368.09	0.2068
368.2981	0.1958
368.5061	0.1928
368.7141	0.2133
368.9221	0.2183
369.1301	0.2152
369.3381	0.2144
369.5461	0.2135
369.754	0.2178
369.962	0.2203
370.1699	0.2125
370.3778	0.2281
370.5857	0.1924
370.7936	0.205
371.0015	0.2251
371.2093	0.2246
371.4172	0.2212
371.625	0.2094
371.8328	0.1951
372.0406	0.2215
372.2484	0.2118
372.4562	0.2185
372.664	0.2212
372.8717	0.2256
373.0795	0.2176
373.2872	0.2308
373.4949	0.2321
373.7026	0.2365
373.9103	0.2318
374.118	0.2442
374.3256	0.2234
374.5333	0.2008
374.7409	0.2211
374.9485	0.239
375.1561	0.2279
375.3637	0.2328
375.5713	0.2252
375.7789	0.2492
375.9864	0.2347
376.194	0.2215
376.4015	0.2278
376.609	0.2495
376.8165	0.2316
377.024	0.2251
377.2315	0.2239
377.4389	0.2351
377.6464	0.2385
377.8538	0.2371
378.0612	0.2367
378.2686	0.246
378.476	0.2517
378.6834	0.2438
378.8908	0.2513
379.0981	0.2478
379.3055	0.2501
379.5128	0.2505
379.7201	0.2317
379.9274	0.2291
380.1347	0.2404
380.342	0.2648
380.5492	0.238
380.7565	0.2452
380.9637	0.2385
381.1709	0.252
381.3781	0.245
381.5853	0.2629
381.7925	0.2559
381.9997	0.2602
382.2068	0.2633
382.4139	0.2623
382.6211	0.2571
382.8282	0.2494
383.0353	0.2611
383.2424	0.2432
383.4494	0.269
383.6565	0.254
383.8635	0.2578
384.0706	0.2669
384.2776	0.2658
384.4846	0.2569
384.6916	0.2642
384.8986	0.265
385.1055	0.2615
385.3125	0.2694
385.5194	0.2117
385.7263	0.2538
385.9333	0.2621
386.1402	0.25
386.347	0.2679
386.5539	0.2454
386.7608	0.254
386.9676	0.2633
387.1744	0.2553
387.3813	0.2491
387.5881	0.26
387.7948	0.234
388.0016	0.2361
388.2084	0.259
388.4151	0.2485
388.6219	0.2536
388.8286	0.2538
389.0353	0.2513
389.242	0.2447
389.4487	0.2368
389.6553	0.2424
389.862	0.235
390.0686	0.2263
390.2753	0.2591
390.4819	0.2361
390.6885	0.245
390.8951	0.2483
391.1016	0.2437
391.3082	0.2441
391.5147	0.2329
391.7213	0.2239
391.9278	0.2233
392.1343	0.2454
392.3408	0.2346
392.5473	0.2319
392.7537	0.2339
392.9602	0.2444
393.1666	0.2381
393.373	0.2335
393.5794	0.2478
393.7858	0.2338
393.9922	0.2125
394.1986	0.2441
394.4049	0.2343
394.6113	0.2247
394.8176	0.2094
395.0239	0.2257
395.2302	0.2075
395.4365	0.2232
395.6428	0.2327
395.8491	0.214
396.0553	0.2093
396.2615	0.222
396.4678	0.2127
396.674	0.2126
396.8802	0.2198
397.0863	0.2223
397.2925	0.2121
397.4987	0.2211
397.7048	0.2018
397.9109	0.2295
398.117	0.205
398.3231	0.2075
398.5292	0.2302
398.7353	0.2221
398.9413	0.2168
399.1474	0.2217
399.3534	0.2142
399.5594	0.2069
399.7654	0.242
399.9714	0.227
400.1774	0.2194
400.3833	0.1928
400.5893	0.2106
400.7952	0.2133
401.0011	0.2307
401.207	0.231
401.4129	0.2211
401.6188	0.2249
401.8247	0.2157
402.0305	0.1989
402.2364	0.2063
402.4422	0.2268
402.648	0.2027
402.8538	0.2398
403.0596	0.2102
403.2654	0.212
403.4711	0.2104
403.6768	0.2039
403.8826	0.224
404.0883	0.2092
404.294	0.2167
404.4997	0.2071
404.7054	0.2181
404.911	0.1988
405.1167	0.2198
405.3223	0.2155
405.5279	0.2315
405.7335	0.2235
405.9391	0.2247
406.1447	0.2185
406.3502	0.232
406.5558	0.212
406.7613	0.204
406.9668	0.2084
407.1724	0.2027
407.3778	0.2262
407.5833	0.2149
407.7888	0.1933
407.9942	0.2252
408.1997	0.2134
408.4051	0.1937
408.6105	0.218
408.8159	0.2063
409.0213	0.2273
409.2267	0.2048
409.432	0.2054
409.6374	0.2171
409.8427	0.1985
410.048	0.2047
410.2533	0.2187
410.4586	0.205
410.6639	0.1997
410.8691	0.2076
411.0744	0.1996
411.2796	0.2065
411.4848	0.2227
411.69	0.2042
411.8952	0.2438
412.1004	0.2228
412.3056	0.2218
412.5107	0.1974
412.7158	0.214
412.921	0.1936
413.1261	0.1964
413.3312	0.2036
413.5362	0.2041
413.7413	0.2068
413.9464	0.2005
414.1514	0.2059
414.3564	0.2044
414.5614	0.1954
414.7664	0.2204
414.9714	0.1981
415.1764	0.2144
415.3813	0.2191
415.5863	0.1965
415.7912	0.221
415.9961	0.2086
416.201	0.2079
416.4059	0.2181
416.6108	0.1939
416.8156	0.2089
417.0205	0.1972
417.2253	0.1986
417.4301	0.2058
417.6349	0.2085
417.8397	0.1906
418.0445	0.2206
418.2492	0.1993
418.454	0.2026
418.6587	0.1845
418.8634	0.207
419.0681	0.1964
419.2728	0.2049
419.4775	0.1942
419.6822	0.1659
419.8868	0.1741
420.0915	0.2017
420.2961	0.1724
420.5007	0.1806
420.7053	0.198
420.9099	0.2012
421.1144	0.2087
421.319	0.1877
421.5235	0.1863
421.728	0.1974
421.9325	0.1898
422.137	0.202
422.3415	0.1824
422.546	0.1865
422.7504	0.1927
422.9549	0.198
423.1593	0.1698
423.3637	0.196
423.5681	0.1683
423.7725	0.1875
423.9769	0.1925
424.1812	0.1653
424.3856	0.1808
424.5899	0.2006
424.7942	0.1837
424.9985	0.1927
425.2028	0.1753
425.4071	0.1889
425.6113	0.1531
425.8156	0.1814
426.0198	0.1712
426.224	0.1621
426.4282	0.1697
426.6324	0.1645
426.8366	0.181
427.0407	0.1566
427.2449	0.1669
427.449	0.1712
427.6531	0.1496
427.8572	0.1582
428.0613	0.1673
428.2654	0.1697
428.4694	0.1624
428.6735	0.1656
428.8775	0.1706
429.0815	0.1655
429.2855	0.154
429.4895	0.1687
429.6935	0.1464
429.8975	0.1503
430.1014	0.1395
430.3053	0.1456
430.5093	0.1372
430.7132	0.1374
430.9171	0.1288
431.1209	0.1443
431.3248	0.1345
431.5286	0.1624
431.7325	0.1367
431.9363	0.1282
432.1401	0.1458
432.3439	0.1147
432.5477	0.1142
432.7514	0.1303
432.9552	0.1342
433.1589	0.1222
433.3627	0.1215
433.5664	0.1122
433.7701	0.1118
433.9737	0.1169
434.1774	0.1162
434.3811	0.1297
434.5847	0.1263
434.7883	0.1119
434.9919	0.1028
435.1955	0.1076
435.3991	0.1177
435.6027	0.1215
435.8062	0.1192
436.0098	0.0945
436.2133	0.1076
436.4168	0.1086
436.6203	0.0911
436.8238	0.1148
437.0272	0.0909
437.2307	0.0998
437.4341	0.0967
437.6375	0.1006
437.841	0.1014
438.0443	0.1056
438.2477	0.1006
438.4511	0.0776
438.6545	0.1035
438.8578	0.0912
439.0611	0.084
439.2644	0.0928
439.4677	0.0787
439.671	0.0765
439.8743	0.0853
440.0775	0.0844
440.2808	0.0793
440.484	0.0688
440.6872	0.0777
440.8904	0.0751
441.0936	0.0771
441.2967	0.088
441.4999	0.0716
441.703	0.0778
441.9062	0.0617
442.1093	0.0619
442.3124	0.0604
442.5155	0.0538
442.7185	0.0557
442.9216	0.0338
443.1246	0.0859
443.3276	0.06
443.5307	0.0611
443.7337	0.0627
443.9366	0.0583
444.1396	0.0408
444.3426	0.0542
444.5455	0.053
444.7484	0.0359
444.9513	0.0421
445.1542	0.0545
445.3571	0.0505
445.56	0.0389
445.7628	0.0317
445.9657	0.0461
446.1685	0.0571
446.3713	0.0474
446.5741	0.0617
446.7769	0.0343
446.9797	0.0334
447.1824	0.0458
447.3852	0.0319
447.5879	0.0416
447.7906	0.062
447.9933	0.0345
448.196	0.0271
448.3986	0.0346
448.6013	0.0248
448.8039	0.0267
449.0066	0.0236
449.2092	0.0452
449.4118	0.0424
449.6143	0.0286
449.8169	0.0246
450.0195	0.0194
450.222	0.0142
450.4245	0.0237
450.627	0.032
450.8295	0.0349
451.032	0.0286
451.2345	0.021
451.4369	0.0394
451.6394	0.0245
451.8418	0.0023
452.0442	0.0203
452.2466	0.0175
452.449	0.007
452.6513	0.0071
452.8537	0.0276
453.056	0.0119
453.2583	0.0194
453.4607	0.0097
453.663	0.0277
453.8652	0.0362
454.0675	0.0099
454.2697	0.0149
454.472	0.0001
454.6742	0.016
454.8764	0.0159
455.0786	0.0271
455.2808	0.0046
455.4829	0.0281
455.6851	0.0278
455.8872	0.0217
456.0893	0.0162
456.2915	0.0106
456.4935	0.0229
456.6956	0.0173
456.8977	0.0354
457.0997	0.0103
457.3018	0.0011
457.5038	0.0119
457.7058	0.0012
457.9078	0.0018
458.1098	-0.0012
458.3117	0.002
458.5137	0.0126
458.7156	0.012
458.9175	0.0133
459.1194	0.0055
459.3213	0.0148
459.5232	0.0085
459.725	-0.0083
459.9269	0.0086
460.1287	0.002
460.3305	0.0023
460.5323	0.0106
460.7341	0.0015
460.9359	0.0012
461.1376	0.0076
461.3394	0.0044
461.5411	0.0093
461.7428	0.0008
461.9445	0.0089
462.1462	0.0112
462.3479	-0.0142
462.5495	0.0047
462.7512	0.0112
462.9528	0.001
463.1544	-0.0077
463.356	0.0053
463.5576	0.0001
463.7592	-0.0107
463.9607	0.0131
464.1623	0.0057
464.3638	0.0232
464.5653	0.0022
464.7668	-0.0024
464.9683	-0.0009
465.1697	0.0214
465.3712	-0.006
465.5726	-0.009
465.7741	-0.0067
465.9755	0.0018
466.1769	-0.0009
466.3782	-0.008
466.5796	-0.0079
466.7809	0.0039
466.9823	-0.0211
467.1836	0.0006
467.3849	-0.003
467.5862	-0.0096
467.7875	0.0016
467.9887	0.0148
468.19	-0.002
468.3912	-0.0196
468.5924	-0.0085
468.7936	-0.0053
468.9948	-0.0073
469.196	-0.0033
469.3972	-0.0114
469.5983	0.0019
469.7994	-0.0208
470.0006	-0.011
470.2017	-0.023
470.4027	0.0092
470.6038	0.0008
470.8049	-0.0212
471.0059	-0.0112
471.2069	-0.0216
471.408	0.0083
471.6089	0.0019
471.8099	-0.0232
472.0109	0.0028
472.2119	-0.0191
472.4128	-0.0089
472.6137	0.0064
472.8146	-0.0132
473.0155	-0.0142
473.2164	0.0019
473.4173	0.0031
473.6181	-0.0061
473.819	-0.0056
474.0198	-0.0103
474.2206	0.0031
474.4214	-0.014
474.6222	-0.0089
474.8229	-0.0158
475.0237	-0.008
475.2244	-0.0039
475.4251	-0.0072
475.6258	-0.0181
475.8265	0.0093
476.0272	0.0017
476.2278	-0.0018
476.4285	-0.0105
476.6291	-0.0178
476.8297	-0.0129
477.0303	-0.011
477.2309	-0.0017
477.4315	-0.015
477.632	-0.0106
477.8326	-0.0019
478.0331	0.0036
478.2336	-0.0035
478.4341	-0.0272
478.6346	-0.001
478.8351	-0.0021
479.0355	-0.0035
479.236	-0.0034
479.4364	0.0002
479.6368	-0.0054
479.8372	-0.013
480.0376	-0.0025
480.2379	-0.0182
480.4383	-0.0107
480.6386	0.0129
480.8389	-0.0139
481.0392	-0.0219
481.2395	-0.0132
481.4398	0.0013
481.6401	-0.0012
481.8403	-0.0075
482.0405	-0.0137
482.2408	-0.0016
482.441	0.0004
482.6411	-0.0125
482.8413	-0.002
483.0415	-0.0148
483.2416	-0.0182
483.4417	-0.0094
483.6419	-0.0118
483.8419	-0.0058
484.042	-0.0048
484.2421	-0.0045
484.4422	-0.01
484.6422	-0.0179
484.8422	-0.006
485.0422	-0.0222
485.2422	-0.0023
485.4422	-0.0203
485.6422	-0.004
485.8421	-0.0154
486.042	-0.008
486.242	-0.0115
486.4419	-0.0192
486.6417	-0.018
486.8416	-0.013
487.0415	-0.0069
487.2413	-0.0104
487.4411	-0.0129
487.641	-0.0112
487.8408	-0.0004
488.0405	-0.0243
488.2403	-0.0149
488.4401	0.0052
488.6398	-0.0051
488.8395	-0.0228
489.0392	0.0007
489.2389	-0.0058
489.4386	-0.0128
489.6383	-0.0069
489.8379	0.0009
490.0376	-0.0113
490.2372	-0.0181
490.4368	-0.0206
490.6364	-0.0198
490.836	-0.0179
491.0355	-0.0045
491.2351	-0.0194
491.4346	-0.0155
491.6341	-0.0154
491.8336	-0.0094
492.0331	-0.0209
492.2326	-0.0185
492.432	-0.0112
492.6315	-0.0177
492.8309	-0.0198
493.0303	-0.0146
493.2297	-0.0192
493.4291	0.0023
493.6284	-0.0082
493.8278	-0.0073
494.0271	-0.0007
494.2264	-0.0056
494.4257	-0.0261
494.625	-0.0199
494.8243	-0.0218
495.0236	-0.0163
495.2228	-0.029
495.422	0.0001
495.6213	-0.0078
495.8205	-0.0138
496.0196	-0.0208
496.2188	-0.0032
496.418	-0.0179
496.6171	-0.0158
496.8162	-0.0205
497.0153	-0.0003
497.2144	-0.0066
497.4135	-0.0104
497.6126	-0.028
497.8116	-0.013
498.0107	-0.0072
498.2097	-0.0109
498.4087	-0.0195
498.6077	-0.0135
498.8067	-0.0144
499.0056	-0.0118
499.2046	-0.0164
499.4035	-0.0147
499.6024	-0.0109
499.8013	-0.0097
500.0002	-0.0165
500.199	-0.0059
500.3979	-0.0106
500.5967	-0.0296
500.7956	-0.0094
500.9944	-0.005
501.1932	-0.0244
501.3919	-0.0209
501.5907	-0.0141
501.7895	-0.0165
501.9882	-0.0238
502.1869	-0.0146
502.3856	-0.0151
502.5843	-0.0146
502.783	-0.0088
502.9816	-0.0128
503.1803	-0.0184
503.3789	-0.0144
503.5775	-0.0055
503.7761	-0.0222
503.9747	-0.0063
504.1732	-0.0151
504.3718	-0.0099
504.5703	-0.0106
504.7689	-0.0192
504.9674	-0.0122
505.1658	-0.0203
505.3643	-0.0067
505.5628	-0.0103
505.7612	-0.0094
505.9597	-0.0032
506.1581	-0.0201
506.3565	0.0011
506.5549	-0.0083
506.7532	-0.0239
506.9516	-0.0103
507.1499	-0.0114
507.3482	-0.0228
507.5465	-0.0128
507.7448	-0.0038
507.9431	-0.0126
508.1414	-0.0133
508.3396	-0.014
508.5379	-0.0036
508.7361	-0.0215
508.9343	-0.0119
509.1325	-0.0065
509.3306	-0.0048
509.5288	-0.0113
509.7269	-0.0174
509.9251	-0.011
510.1232	-0.0195
510.3213	-0.0176
510.5193	0.0031
510.7174	-0.0199
510.9154	-0.0167
511.1135	-0.0131
511.3115	-0.0139
511.5095	-0.0068
511.7075	-0.0121
511.9055	-0.0232
512.1034	-0.0136
512.3014	-0.0032
512.4993	-0.0159
512.6972	-0.0231
512.8951	-0.0245
513.093	-0.0097
513.2908	-0.0061
513.4887	-0.0062
513.6865	-0.0073
513.8844	-0.0174
514.0822	-0.0134
514.2799	-0.0234
514.4777	-0.0211
514.6755	-0.0182
514.8732	-0.0118
515.0709	-0.0046
515.2687	-0.0128
515.4664	-0.018
515.664	-0.0163
515.8617	-0.0171
516.0594	-0.0183
516.257	-0.0019
516.4546	-0.0273
516.6522	-0.0035
516.8498	-0.0096
517.0474	-0.0097
517.2449	-0.0083
517.4425	-0.0283
517.64	-0.0065
517.8375	-0.0042
518.035	-0.0132
518.2325	-0.0132
518.43	-0.0121
518.6274	-0.0147
518.8249	-0.0246
519.0223	-0.007
519.2197	-0.015
519.4171	-0.0169
519.6145	-0.0144
519.8118	-0.0078
520.0092	-0.0126
520.2065	-0.0119
520.4038	-0.0171
520.6011	-0.0121
520.7984	-0.0174
520.9956	-0.0221
521.1929	-0.0191
521.3901	-0.006
521.5874	-0.0039
521.7846	-0.0131
521.9818	-0.0177
522.1789	-0.0112
522.3761	-0.0151
522.5732	-0.0127
522.7704	-0.0107
522.9675	-0.0049
523.1646	-0.0114
523.3617	-0.0063
523.5587	-0.0055
523.7558	-0.0133
523.9528	-0.008
524.1498	-0.0128
524.3468	-0.0167
524.5438	-0.0109
524.7408	-0.0048
524.9378	-0.0019
525.1347	-0.0044
525.3316	-0.0026
525.5285	-0.0038
525.7254	-0.019
525.9223	-0.0138
526.1192	-0.0175
526.316	-0.0075
526.5129	-0.0034
526.7097	-0.0027
526.9065	-0.0051
527.1033	-0.012
527.3	-0.0007
527.4968	-0.0105
527.6935	-0.006
527.8903	-0.0071
528.087	-0.0063
528.2837	-0.0137
528.4804	-0.0069
528.677	-0.0138
528.8737	-0.0071
529.0703	-0.0026
529.2669	-0.0053
529.4635	-0.0119
529.6601	-0.0069
529.8567	-0.0194
530.0532	-0.0162
530.2498	0.0002
530.4463	0.0008
530.6428	-0.0016
530.8393	0.0042
531.0358	-0.0141
531.2322	-0.0073
531.4287	-0.0079
531.6251	-0.0191
531.8215	-0.0064
532.0179	-0.0079
532.2143	-0.0028
532.4107	-0.0049
532.607	-0.0023
532.8034	-0.001
532.9997	-0.0056
533.196	-0.0019
533.3923	-0.0138
533.5886	-0.0023
533.7848	-0.0052
533.9811	0.0034
534.1773	-0.0086
534.3735	0.0039
534.5697	-0.0066
534.7659	-0.0086
534.9621	-0.0043
535.1582	-0.0077
535.3544	-0.0064
535.5505	-0.0169
535.7466	0.0014
535.9427	-0.0105
536.1387	-0.0013
536.3348	-0.0086
536.5308	0.0012
536.7269	-0.0115
536.9229	-0.0033
537.1189	-0.0048
537.3148	-0.0142
537.5108	-0.0098
537.7068	-0.007
537.9027	-0.0036
538.0986	-0.0046
538.2945	-0.0061
538.4904	-0.0115
538.6863	-0.0127
538.8821	-0.0045
539.078	-0.0083
539.2738	-0.0009
539.4696	-0.0005
539.6654	-0.0054
539.8611	-0.0021
540.0569	-0.0087
540.2526	-0.001
540.4484	-0
540.6441	0.008
540.8398	-0.0098
541.0355	-0.0019
541.2311	-0.0097
541.4268	-0.0139
541.6224	-0.0108
541.818	-0.0096
542.0136	-0.0131
542.2092	-0.0059
542.4048	0.0046
542.6003	-0.0098
542.7959	-0.0086
542.9914	-0.0057
543.1869	0.0062
543.3824	-0.008
543.5779	-0.0047
543.7734	-0.0049
543.9688	-0.0085
544.1642	0.0011
544.3596	0.0014
544.555	-0.004
544.7504	-0.0039
544.9458	-0.0126
545.1411	-0.0023
545.3365	-0.0048
545.5318	-0.0048
545.7271	-0.0063
545.9224	-0.0076
546.1177	0.003
546.3129	-0.0018
546.5081	-0.0113
546.7034	-0.0044
546.8986	-0.0046
547.0938	-0.0133
547.289	-0.0096
547.4841	-0.0055
547.6793	0.0043
547.8744	-0.0132
548.0695	-0.0107
548.2646	-0.0121
548.4597	-0.0002
548.6548	-0.0101
548.8498	0.0006
549.0448	0.0042
549.2399	-0.0016
549.4349	0.0003
549.6298	-0.0111
549.8248	0.0027
550.0198	-0.0122
550.2147	0.0022
550.4096	-0.0078
550.6045	-0.006
550.7994	0.0052
550.9943	0.0019
551.1892	-0.0068
551.384	-0.0013
551.5788	-0.0053
551.7737	0.0002
551.9685	-0.0088
552.1632	-0.0002
552.358	-0.0081
552.5528	-0.0041
552.7475	-0.0036
552.9422	-0.0013
553.1369	-0.002
553.3316	-0.004
553.5263	-0.0107
553.7209	0.0057
553.9156	-0.0067
554.1102	-0.0045
554.3048	-0.0075
554.4994	0.003
554.694	-0.0044
554.8885	-0.0022
555.0831	-0.0005
555.2776	-0.0078
555.4721	-0.0012
555.6666	-0.0041
555.8611	0.0062
556.0555	-0.0022
556.25	0.0059
556.4444	-0.0095
556.6388	-0.0063
556.8332	-0.0029
557.0276	-0.0057
557.222	0.0001
557.4163	-0.004
557.6107	-0.0105
557.805	-0.0002
557.9993	-0.0015
558.1936	-0.0097
558.3879	0.0033
558.5821	-0.0021
558.7764	-0.0033
558.9706	-0.0013
559.1648	0.0002
559.359	-0.0055
559.5532	-0.004
559.7473	-0.0016
559.9415	-0.0113
560.1356	-0.0013
560.3297	-0.0125
560.5238	-0.01
560.7179	-0.0041
560.9119	-0.0051
561.106	-0.0014
561.3	-0.0032
561.494	-0.0034
561.688	-0.0055
561.882	-0.0169
562.076	-0.0092
562.2699	-0.0003
562.4639	-0.0013
562.6578	-0.0044
562.8517	-0.0018
563.0456	-0.0071
563.2395	0.0016
563.4333	0.0027
563.6272	0.0064
563.821	-0.0074
564.0148	-0.0068
564.2086	-0.0113
564.4024	0.0007
564.5961	-0.008
564.7899	-0.0003
564.9836	-0.006
565.1773	0.0042
565.371	0.0067
565.5647	0.0014
565.7584	0.0076
565.952	-0.0029
566.1456	-0.0049
566.3393	-0.0035
566.5329	-0.0013
566.7264	0.0011
566.92	-0.0065
567.1136	0.0026
567.3071	-0.0022
567.5006	-0.0044
567.6941	-0.0031
567.8876	-0.0051
568.0811	-0.0106
568.2745	0.0002
568.468	-0.0022
568.6614	-0.0001
568.8548	-0.0027
569.0482	-0.0022
569.2416	-0.0044
569.4349	-0.0032
569.6283	0.0076
569.8216	0.0008
570.0149	-0.0035
570.2082	0.0021
570.4015	0.0055
570.5947	0.0089
570.788	-0.0018
570.9812	0.0035
571.1744	0.0047
571.3676	-0.0062
571.5608	0.0002
571.754	0.0098
571.9471	0.0031
572.1402	-0.001
572.3333	-0.0072
572.5264	-0.0026
572.7195	-0.0076
572.9126	0.0036
573.1057	-0.0023
573.2987	-0.009
573.4917	-0.0029
573.6847	-0.0097
573.8777	0.001
574.0707	0.0015
574.2636	-0.0002
574.4566	-0.0087
574.6495	0.0055
574.8424	-0.0013
575.0353	-0.0007
575.2281	0.0084
575.421	0
575.6138	0.0078
575.8067	-0.0055
575.9995	0.0022
576.1923	-0.0028
576.385	0.0024
576.5778	-0.0009
576.7706	-0.0003
576.9633	-0.0034
577.156	0.0001
577.3487	-0.0044
577.5414	0.0008
577.734	-0.0096
577.9267	0.0002
578.1193	-0.0092
578.3119	-0.0013
578.5045	-0.0019
578.6971	0.0014
578.8897	-0.0014
579.0822	-0.0023
579.2747	0.0014
579.4673	-0.0068
579.6598	-0.004
579.8522	-0.0032
580.0447	-0.0051
580.2372	0.0009
580.4296	-0.0004
580.622	0.001
580.8144	-0.0025
581.0068	-0.0048
581.1992	-0.0123
581.3915	-0.0043
581.5839	-0.0063
581.7762	-0.002
581.9685	-0.0117
582.1608	0.0033
582.353	-0.0038
582.5453	0.0035
582.7375	0.0012
582.9298	-0.0012
583.122	-0.0024
583.3142	-0.004
583.5063	-0.0005
583.6985	0.0002
583.8906	-0.0031
584.0827	0.0015
584.2749	-0.0003
584.4669	0.001
584.659	-0.0025
584.8511	-0.0025
585.0431	-0.003
585.2352	0.0044
585.4272	-0.0003
585.6192	0.0024
585.8111	-0.0032
586.0031	-0.0025
586.195	-0.0021
586.387	0.004
586.5789	-0.0002
586.7708	0.0045
586.9627	-0.0059
587.1545	-0.0071
587.3464	0.0026
587.5382	-0.0048
587.73	-0.0004
587.9218	0.0094
588.1136	-0.0013
588.3053	0.005
588.4971	0.0001
588.6888	-0.0052
588.8805	0.0049
589.0722	0.0037
589.2639	-0.0005
589.4556	0.0039
589.6472	-0.0047
589.8389	-0.0079
590.0305	-0.0121
590.2221	0.0028
590.4137	-0.0082
590.6052	0.0074
590.7968	-0.0007
590.9883	0.0061
591.1798	-0.0088
591.3713	0.0002
591.5628	0.0047
591.7543	0.0038
591.9458	0.0009
592.1372	0.0012
592.3286	0.0073
592.52	0.0013
592.7114	-0.0087
592.9028	-0.0019
593.0941	-0.0008
593.2855	0.0044
593.4768	-0.0103
593.6681	-0.0063
593.8594	-0.0046
594.0506	-0.0007
594.2419	0.0061
594.4331	0.0045
594.6244	0.0052
594.8156	-0.0077
595.0067	-0.008
595.1979	-0.0014
595.3891	-0.0036
595.5802	-0.0032
595.7713	0.0017
595.9624	0.0025
596.1535	-0.0027
596.3446	0.0012
596.5357	0.0035
596.7267	-0.0024
596.9177	0.0028
597.1087	-0.0095
597.2997	-0.0061
597.4907	0.0033
597.6817	-0.0018
597.8726	0.0006
598.0635	-0.004
598.2544	-0.0004
598.4453	-0.002
598.6362	-0.0034
598.827	-0.0056
599.0179	0.0011
599.2087	0.0029
599.3995	0.0021
599.5903	0.004
599.7811	-0.0008
599.9718	-0.0028
600.1626	-0.0048
600.3533	-0.0103
600.544	-0.002
600.7347	-0.0078
600.9254	0.0026
601.116	-0.0144
601.3067	-0.0019
601.4973	-0.0009
601.6879	0.0043
601.8785	-0.0063
602.0691	-0.0053
602.2596	0.0014
602.4502	0.0016
602.6407	0.0046
602.8312	-0.0025
603.0217	-0.0104
603.2122	0.0005
603.4027	0.0008
603.5931	-0.0016
603.7835	-0.0088
603.9739	-0.0012
604.1643	-0.0015
604.3547	-0.0052
604.5451	0.0059
604.7354	0.0021
604.9257	0.0018
605.116	-0.0028
605.3063	0.0017
605.4966	0.0001
605.6869	-0.0025
605.8771	0.0019
606.0673	0.0076
606.2575	0.0028
606.4477	0.0049
606.6379	0.0044
606.8281	-0.0052
607.0182	-0.001
607.2083	0.004
607.3985	-0.0011
607.5885	0.0087
607.7786	0.001
607.9687	-0.004
608.1587	0.0055
608.3488	0.0028
608.5388	-0.0061
608.7288	-0.0054
608.9187	-0.0076
609.1087	-0.0002
609.2986	-0.0053
609.4886	-0.003
609.6785	0.0002
609.8684	0.0049
610.0582	0.0015
610.2481	-0.0019
610.4379	0.0033
610.6278	-0.0045
610.8176	0.0018
611.0074	-0.0015
611.1971	-0.0077
611.3869	0.0008
611.5766	-0.0085
611.7664	0.0033
611.9561	0.0009
612.1458	-0.0036
612.3354	-0.0089
612.5251	0.0047
612.7147	0.0034
612.9044	0.0047
613.094	-0.0053
613.2836	0.0023
613.4731	-0.0086
613.6627	-0.0004
613.8522	0.0051
614.0417	0.0011
614.2313	-0.004
614.4207	-0.0065
614.6102	0.0022
614.7997	-0.0029
614.9891	-0.0055
615.1785	0.0016
615.3679	-0.0026
615.5573	0.012
615.7467	-0.0013
615.9361	0.0015
616.1254	-0.0005
616.3147	-0.0016
616.504	0.0081
616.6933	0.0014
616.8826	0.0031
617.0718	0.0047
617.2611	-0.0018
617.4503	-0.0048
617.6395	0.0004
617.8287	-0.0014
618.0179	0.0056
618.207	0.0086
618.3961	0.0015
618.5853	-0.0002
618.7744	0.0036
618.9634	0.0091
619.1525	0.001
619.3416	-0.0003
619.5306	-0.0018
619.7196	-0.0031
619.9086	-0.0095
620.0976	0.0077
620.2866	-0.0043
620.4755	0.0004
620.6645	0.0052
620.8534	0.0136
621.0423	0.0057
621.2312	0.0084
621.42	-0.0013
621.6089	-0.0058
621.7977	0.0117
621.9865	-0.0021
622.1753	0.0058
622.3641	0.0009
622.5529	0.009
622.7416	-0.0033
622.9303	-0.0037
623.1191	-0.0003
623.3078	-0.0043
623.4964	-0.0055
623.6851	0.0006
623.8737	-0.003
624.0624	0.0036
624.251	-0.006
624.4396	-0.0019
624.6282	-0.0093
624.8167	-0.0003
625.0053	0.0041
625.1938	0.0023
625.3823	0.0016
625.5708	-0.0033
625.7593	-0.0101
625.9477	-0.0079
626.1362	-0.0026
626.3246	-0.0004
626.513	0.004
626.7014	0.0048
626.8898	-0.0005
627.0781	-0.0032
627.2665	-0.0101
627.4548	0.0044
627.6431	-0.0041
627.8314	0.0002
628.0197	0.0003
628.2079	-0.0046
628.3962	-0.0035
628.5844	0.0004
628.7726	0.0014
628.9608	0.0119
629.1489	0.0003
629.3371	0.0105
629.5252	-0.0039
629.7134	0.0092
629.9015	0.0011
630.0895	0.0036
630.2776	-0.0054
630.4657	0.0026
630.6537	0.0042
630.8417	-0.0039
631.0297	0.004
631.2177	-0.0041
631.4057	-0.0069
631.5936	0.0009
631.7815	0.004
631.9695	0.0018
632.1574	0.0093
632.3452	0.0078
632.5331	0.0028
632.7209	-0.0016
632.9088	0.0111
633.0966	0.0103
633.2844	-0.0042
633.4722	0.0031
633.6599	0.0004
633.8477	-0.0016
634.0354	-0.0011
634.2231	0.002
634.4108	0.0012
634.5985	0.0095
634.7861	0.0014
634.9738	0.0071
635.1614	-0.0035
635.349	0.0014
635.5366	0.0048
635.7242	-0.0016
635.9117	0.0108
636.0993	-0.0054
636.2868	0.0083
636.4743	-0.0054
636.6618	0.0106
636.8492	0.0038
637.0367	0.0042
637.2241	-0.0005
637.4115	-0.0036
637.5989	-0.0044
637.7863	-0.0011
637.9737	0.0036
638.161	-0.0036
638.3484	-0.0018
638.5357	0.0014
638.723	0.0001
638.9103	0.0097
639.0975	0.0036
639.2848	0.0033
639.472	0.0004
639.6592	0.0028
639.8464	0.0095
640.0336	0.0116
640.2208	-0.0011
640.4079	0.0001
640.595	-0.0006
640.7821	0.0035
640.9692	0.0081
641.1563	0.0033
641.3434	0.0008
641.5304	0.0027
641.7174	0.0012
641.9044	0.0031
642.0914	0.0074
642.2784	0.0064
642.4653	0.0124
642.6523	0.0081
642.8392	0.0019
643.0261	0.0048
643.213	0.0124
643.3999	-0.0047
643.5867	-0.0061
643.7735	0.0026
643.9604	-0.0071
644.1472	0.0018
644.3339	0.0057
644.5207	0.0034
644.7075	0.0054
644.8942	0.0101
645.0809	0.0076
645.2676	0.0056
645.4543	-0.0037
645.6409	0.0009
645.8276	0.0062
646.0142	0.0045
646.2008	0.0002
646.3874	-0.0015
646.574	0.0031
646.7605	-0.0016
646.9471	-0.0096
647.1336	-0
647.3201	-0.0005
647.5066	0.0008
647.6931	0.0081
647.8795	0.004
648.0659	0.0107
648.2524	0.0081
648.4388	-0.0003
648.6252	-0.0005
648.8115	0.0014
648.9979	0.0002
649.1842	-0.0009
649.3705	0.0028
649.5568	0.0016
649.7431	0.0089
649.9294	-0.0025
650.1156	0.0101
650.3018	-0.0035
650.488	0.006
650.6742	0.0075
650.8604	0.0066
651.0466	-0.0029
651.2327	-0.0001
651.4188	-0.0025
651.6049	-0.0007
651.791	-0.0053
651.9771	0.0031
652.1632	-0.0015
652.3492	0.0027
652.5352	-0.0012
652.7212	0.0014
652.9072	0.0015
653.0932	-0.0018
653.2791	-0.0003
653.465	0.0031
653.651	-0.0005
653.8369	-0.0036
654.0227	0.0036
654.2086	0.0051
654.3944	0.0073
654.5803	-0.0027
654.7661	-0.0042
654.9519	-0.0028
655.1377	-0.0094
655.3234	0.0007
655.5092	-0.0033
655.6949	-0.0069
655.8806	-0.002
656.0663	-0.0036
656.2519	-0.0035
656.4376	-0.0033
656.6232	0.0027
656.8088	-0.0005
656.9945	0.0041
657.18	0.0051
657.3656	0.0054
657.5511	-0.0017
657.7367	-0.0022
657.9222	0.009
658.1077	-0.0054
658.2932	0.0013
658.4786	-0.005
658.6641	0.0039
658.8495	0.0055
659.0349	-0.0048
659.2203	0.0072
659.4057	0.0043
659.591	0.0039
659.7764	-0.0022
659.9617	0.0065
660.147	0.0063
660.3323	0.0062
660.5176	0.0099
660.7028	0.0021
660.888	0.0073
661.0733	0.001
661.2585	-0.0068
661.4436	-0.0018
661.6288	-0.0006
661.8139	-0.0033
661.9991	0.0108
662.1842	-0.0021
662.3693	-0.0051
662.5544	0.0022
662.7394	0.006
662.9245	0.0053
663.1095	0.0036
663.2945	-0.0007
663.4795	0.0008
663.6644	0.0123
663.8494	0.0065
664.0343	0.0037
664.2193	-0.0045
664.4042	0.0031
664.589	-0.0049
664.7739	0.0014
664.9587	-0.0118
665.1436	-0.0103
665.3284	0.003
665.5132	-0.0068
665.698	-0.001
665.8827	0.009
666.0675	-0.003
666.2522	-0.0097
666.4369	-0.0032
666.6216	-0.0002
666.8063	0.0045
666.9909	-0.0031
667.1756	-0.0042
667.3602	0.0048
667.5448	0.0011
667.7294	0.0076
667.9139	-0.0036
668.0985	0.0139
668.283	-0.0021
668.4675	0.0036
668.652	-0.0023
668.8365	-0.0002
669.0209	0.0049
669.2054	0.006
669.3898	-0.0083
669.5742	0.0054
669.7586	0.0058
669.943	0.0029
670.1273	0.0103
670.3117	-0.0034
670.496	0.0069
670.6803	0.014
670.8646	0.0044
671.0488	-0.0001
671.2331	0.0063
671.4173	0.0071
671.6015	-0.0028
671.7857	-0.0021
671.9699	0.0098
672.1541	-0.0011
672.3382	0.0083
672.5223	0.0061
672.7064	0.0099
672.8905	0.0068
673.0746	0.001
673.2587	-0.0012
673.4427	0.001
673.6267	0.0022
673.8107	0.0127
673.9947	0.0126
674.1787	0.0078
674.3626	-0.0054
674.5465	0.009
674.7304	0.0054
674.9143	-0.0007
675.0982	0.0038
675.2821	-0.0089
675.4659	0.0059
675.6497	0.0016
675.8335	0.0019
676.0173	0.0022
676.2011	-0.0043
676.3849	0.0038
676.5686	-0.001
676.7523	-0.0007
676.936	0.0018
677.1197	-0.0092
677.3034	-0.006
677.487	0.0004
677.6706	0.004
677.8542	0.0022
678.0378	0.0037
678.2214	-0.0015
678.405	0.0014
678.5885	-0.0066
678.772	0.0033
678.9555	-0.0069
679.139	-0.0002
679.3225	0.0027
679.5059	-0.0092
679.6894	0.0027
679.8728	0.003
680.0562	-0.0058
680.2395	-0.0038
680.4229	-0.0017
680.6062	0.0047
680.7896	0.0058
680.9729	-0.0082
681.1562	0.0089
681.3394	0.0063
681.5227	-0.0094
681.7059	0.0033
681.8891	0.0064
682.0723	0.0105
682.2555	0.0052
682.4387	-0.0029
682.6218	-0.0012
682.805	0.0051
682.9881	0.0021
683.1712	-0.0021
683.3542	-0.0016
683.5373	0.0059
683.7203	-0.014
683.9034	-0.0012
684.0864	-0.0131
684.2694	-0.0004
684.4523	0.0009
684.6353	-0.0065
684.8182	-0.0005
685.0011	-0.0117
685.184	0.0001
685.3669	-0.0033
685.5498	0.0022
685.7326	-0.0028
685.9154	-0.006
686.0982	0.0082
686.281	0.0056
686.4638	0.0025
686.6465	0.0006
686.8293	-0.0035
687.012	0.002
687.1947	-0.0062
687.3774	0.0035
687.56	-0.0013
687.7427	0.005
687.9253	-0.0083
688.1079	-0.0012
688.2905	0.0089
688.4731	0.0045
688.6556	-0.0096
688.8382	-0.0049
689.0207	0.0005
689.2032	-0.0099
689.3857	-0.0098
689.5681	-0.0077
689.7506	-0.0082
689.933	-0.0053
690.1154	-0.0059
690.2978	-0.0057
690.4802	-0.0043
690.6626	-0.0153
690.8449	-0.0074
691.0272	0.0008
691.2095	-0.0109
691.3918	-0.0062
691.5741	0.0001
691.7563	-0.0075
691.9386	0.0028
692.1208	0.0008
692.303	-0.0037
692.4852	-0.0018
692.6673	0.0017
692.8495	-0.0037
693.0316	-0.0011
693.2137	-0.0029
693.3958	0.0013
693.5778	-0.0009
693.7599	-0.0017
693.9419	-0.002
694.1239	0.0021
694.3059	-0.0063
694.4879	0.0028
694.6699	0.0103
694.8518	0.0025
695.0337	-0.0005
695.2157	0.0134
695.3975	-0.0039
695.5794	0.004
695.7613	0.0004
695.9431	-0.0027
696.1249	0.0068
696.3067	0.0017
696.4885	0.0117
696.6703	-0.0034
696.852	-0.0003
697.0337	0.0018
697.2154	0.0039
697.3971	0.0063
697.5788	0.0048
697.7605	-0.0058
697.9421	0.009
698.1237	0.0068
698.3053	-0.0012
698.4869	-0.004
698.6685	-0.0088
698.85	0.0017
699.0315	0.0045
699.213	-0.003
699.3945	0.013
699.576	0.0033
699.7575	0.0084
699.9389	0.0072
700.1203	0.0029
700.3017	-0.006
700.4831	-0.0085
700.6645	-0.0006
700.8458	-0
701.0271	-0.0085
701.2084	0.0083
701.3897	-0.0011
701.571	0.0079
701.7523	-0.0018
701.9335	-0.0052
702.1147	-0.0007
702.2959	-0
702.4771	-0.0001
702.6583	0.0032
702.8394	-0.002
703.0205	0.0043
703.2016	-0.0104
703.3827	-0.0011
703.5638	0.0073
703.7449	-0.0049
703.9259	0.0026
704.1069	-0.0035
704.2879	0.0025
704.4689	0.0003
704.6499	-0.0015
704.8308	-0.0065
705.0117	0.0076
705.1927	-0.0033
705.3735	-0.005
705.5544	-0.0008
705.7353	-0.0009
705.9161	-0.0013
706.0969	-0.0072
706.2777	-0.0052
706.4585	-0.0079
706.6393	0.0012
706.82	-0.0009
707.0007	-0.0038
707.1815	0.001
707.3621	0.0078
707.5428	0.0036
707.7235	0.0046
707.9041	0.0007
708.0847	-0.012
708.2653	-0.0064
708.4459	-0.0153
708.6265	0.0022
708.807	-0.0016
708.9875	-0.0063
709.168	-0.0046
709.3485	-0.0046
709.529	-0.0071
709.7095	-0.0137
709.8899	0.0033
710.0703	-0.0153
710.2507	0.0005
710.4311	0.0022
710.6115	-0.0103
710.7918	-0.0064
710.9721	-0.0017
711.1524	-0.0059
711.3327	0.0011
711.513	0.0001
711.6932	0.0001
711.8735	0.008
712.0537	0.0095
712.2339	-0.0046
712.4141	-0.0109
712.5942	-0.0068
712.7744	-0.0056
712.9545	-0.0083
713.1346	-0.0084
713.3147	-0.0041
713.4947	-0.006
713.6748	-0.0079
713.8548	-0.0056
714.0348	-0.0066
714.2148	-0.006
714.3948	0.0016
714.5748	-0.0115
714.7547	0.0015
714.9346	0
715.1145	0.0026
715.2944	-0.0099
715.4743	-0.0008
715.6541	-0.0019
715.834	-0.0008
716.0138	-0.0102
716.1936	-0.0218
716.3733	-0.002
716.5531	0.0092
716.7328	-0.0018
716.9126	-0.0068
717.0923	0.0072
717.2719	0.0008
717.4516	-0.0007
717.6312	-0.0014
717.8109	0.0015
717.9905	0.0008
718.1701	-0.0027
718.3496	-0.0136
718.5292	-0.0016
718.7087	-0.0031
718.8882	-0.0061
719.0677	-0.0068
719.2472	-0.0028
719.4267	0.0041
719.6061	-0.0017
719.7856	0.007
719.965	0.0113
720.1443	0.0035
720.3237	0.0054
720.5031	0.0029
720.6824	0.0121
720.8617	-0.003
721.041	0.0085
721.2203	0.0056
721.3995	0.001
721.5788	0.0067
721.758	0.0007
721.9372	-0.0113
722.1164	-0.0097
722.2956	0.0019
722.4747	-0.0039
722.6538	0.0007
722.8329	0.0122
723.012	0.0038
723.1911	-0.0061
723.3702	-0.0014
723.5492	0.0025
723.7282	-0.003
723.9072	0.0031
724.0862	0.0008
724.2652	-0.005
724.4441	-0.0054
724.623	0.0035
724.8019	-0.0096
724.9808	0.0009
725.1597	0.0004
725.3385	0.0025
725.5174	-0
725.6962	-0.0034
725.875	0.0001
726.0538	0.001
726.2325	-0.0054
726.4112	0.0009
726.59	-0.0007
726.7687	-0.001
726.9474	0.0026
727.126	0.001
727.3047	0.0034
727.4833	0.0023
727.6619	-0.0033
727.8405	0.0054
728.0191	-0.0046
728.1976	0.0027
728.3762	-0.0006
728.5547	0.0035
728.7332	-0.0117
728.9116	-0.001
729.0901	-0.0014
729.2686	-0.0068
729.447	-0.0065
729.6254	0.002
729.8038	-0.0016
729.9821	-0.0087
730.1605	-0.0007
730.3388	-0.0026
730.5171	-0.002
730.6954	-0.0128
730.8737	-0.0016
731.0519	0.006
731.2302	0.0066
731.4084	0.0086
731.5866	0.0065
731.7648	-0.0085
731.9429	-0.0081
732.1211	-0.014
732.2992	-0.0028
732.4773	-0.0022
732.6554	-0.0042
732.8335	-0.0076
733.0115	-0.0071
733.1896	0.0014
733.3676	-0.0095
733.5456	-0.0027
733.7235	0.0074
733.9015	-0.004
734.0794	-0.0071
734.2574	-0.0067
734.4353	-0.0026
734.6131	-0.0002
734.791	0.0011
734.9689	-0.002
735.1467	0.0035
735.3245	-0.01
735.5023	-0.0015
735.68	0.0014
735.8578	0.0109
736.0355	-0.0089
736.2132	-0.0073
736.3909	-0.0056
736.5686	-0.0081
736.7463	0.0022
736.9239	-0.0063
737.1015	-0.005
737.2791	0.0105
737.4567	0.0055
737.6343	-0.0012
737.8118	0.0013
737.9894	0.0106
738.1669	-0.0098
738.3444	-0.0006
738.5218	0.0086
738.6993	-0.0045
738.8767	-0.0096
739.0541	0.0067
739.2315	-0.0082
739.4089	-0.0004
739.5863	0.0114
739.7636	-0.0054
739.9409	0.0022
740.1182	0.0015
740.2955	0.0067
740.4728	-0.0035
740.65	-0.0025
740.8272	-0.0038
741.0044	-0.0015
741.1816	0.0008
741.3588	-0.0046
741.5359	0.0068
741.7131	-0.0144
741.8902	-0.0161
742.0673	-0.0044
742.2444	-0.0097
742.4214	-0.008
742.5985	-0.0053
742.7755	-0.0068
742.9525	-0.018
743.1295	-0.0052
743.3064	-0.0035
743.4834	-0.0011
743.6603	-0.0107
743.8372	-0.0011
744.0141	0.0036
744.191	-0.0017
744.3678	-0.0019
744.5446	-0.0037
744.7215	-0.0047
744.8982	-0.0097
745.075	-0.015
745.2518	0.0049
745.4285	-0.0075
745.6052	-0.01
745.7819	-0.0041
745.9586	-0.0176
746.1353	-0.0035
746.3119	-0.0054
746.4885	-0.0136
746.6651	-0.0082
746.8417	-0.0005
747.0183	-0.0022
747.1948	-0.0018
747.3714	0.0014
747.5479	0.0014
747.7244	-0.0002
747.9008	0.017
748.0773	0.0002
748.2537	-0
748.4301	-0.002
748.6065	0.005
748.7829	0.0014
748.9593	0.0059
749.1356	-0.0084
749.3119	0.0007
749.4882	-0.0038
749.6645	0.0043
749.8408	-0.0025
750.017	-0.0065
750.1933	-0.0041
750.3695	-0.0022
750.5457	0.0066
750.7218	-0.0061
750.898	0.0001
751.0741	-0.0051
751.2502	-0.0037
751.4263	0.0015
751.6024	-0.0003
751.7784	-0.0076
751.9545	-0.0131
752.1305	-0.0008
752.3065	-0.0067
752.4825	-0.0014
752.6584	-0.0023
752.8344	0.0002
753.0103	-0.0012
753.1862	-0.0036
753.3621	-0.0011
753.5379	-0.0134
753.7138	-0.0004
753.8896	-0.0005
754.0654	-0.0011
754.2412	0.0054
754.417	0.009
754.5927	-0.0042
754.7685	-0.0016
754.9442	0.005
755.1199	0.003
755.2956	-0.0107
755.4712	0.0037
755.6469	0.0074
755.8225	0.0009
755.9981	-0.0037
756.1736	0.0041
756.3492	0.0012
756.5248	0.0037
756.7003	0.0098
756.8758	0.0142
757.0513	-0.0045
757.2267	-0.009
757.4022	-0.0078
757.5776	-0.0123
757.753	-0.0029
757.9284	-0.0053
758.1038	0.0075
758.2791	0.0011
758.4545	-0.019
758.6298	-0.0071
758.8051	0.0021
758.9803	-0.0104
759.1556	-0.0083
759.3308	-0.0031
759.506	0.0101
759.6812	0.006
759.8564	0.0155
760.0316	-0.0081
760.2067	0.0037
760.3819	0.0106
760.557	0.008
760.732	0.0025
760.9071	-0.0072
761.0821	-0
761.2572	0.01
761.4322	0.0061
761.6072	0.0023
761.7821	0.0009
761.9571	0.0169
762.132	-0.0033
762.3069	0.0017
762.4818	0.0042
762.6567	0.0046
762.8316	0.009
763.0064	-0.0063
763.1812	0.0035
763.356	-0.0082
763.5308	-0.0025
763.7055	-0.0035
763.8803	0.0032
764.055	-0.0107
764.2297	-0.0037
764.4044	-0.0034
764.579	-0.0116
764.7537	-0.0213
764.9283	0.003
765.1029	0.0008
765.2775	0.0047
765.4521	-0.0021
765.6266	-0.0156
765.8011	-0.0099
765.9756	-0.0026
766.1501	0.0005
766.3246	0.0032
766.4991	0.0023
766.6735	-0.0079
766.8479	-0.0148
767.0223	0.0083
767.1967	-0.003
767.371	0.0054
767.5454	-0.0078
767.7197	0.0057
767.894	-0.0017
768.0683	-0.0196
768.2425	-0.0036
768.4168	0.0028
768.591	-0.0018
768.7652	-0.0031
768.9394	-0.003
769.1135	0.0047
769.2877	0.0024
769.4618	-0.003
769.6359	-0.0057
769.81	0.0055
769.984	0.0073
770.1581	0.0044
770.3321	0.0055
770.5061	-0.0006
770.6801	0.0004
770.8541	0.006
771.028	0.0212
771.202	-0.0041
771.3759	0.0141
771.5498	0.0009
771.7236	0.005
771.8975	0.0096
772.0713	0.0062
772.2451	0.0098
772.4189	0.0086
772.5927	0.0077
772.7665	0.0119
772.9402	-0.0055
773.1139	0.0026
773.2876	0.0084
773.4613	0.0095
773.635	0.018
773.8086	-0.0132
773.9822	0.0011
774.1558	0.0046
774.3294	-0.0146
774.503	0.0005
774.6765	-0.0058
774.8501	0.005
775.0236	-0.0045
775.1971	0.0079
775.3705	-0.0099
775.544	0.0022
775.7174	-0.0014
775.8908	-0.0157
776.0642	-0.0036
776.2376	-0.0105
776.4109	-0.0072
776.5843	-0.0154
776.7576	0.0097
776.9309	0.0103
777.1041	0.0033
777.2774	0.0109
777.4506	-0.0042
777.6238	0.0025
777.797	-0.0051
777.9702	-0.0005
778.1434	-0.0061
778.3165	-0.0071
778.4896	-0.0038
778.6627	0.0123
778.8358	0.0025
779.0089	0.0014
779.1819	-0.0104
779.3549	-0.0019
779.5279	0.011
779.7009	-0.002
779.8739	0.0024
780.0468	0.0139
780.2197	0.0178
780.3926	-0.0113
780.5655	0.0052
780.7384	-0.0082
780.9112	-0.0003
781.0841	-0.0128
781.2569	0.0006
781.4297	0.0106
781.6024	0.0133
781.7752	0.0094
781.9479	0.0003
782.1206	-0.0047
782.2933	-0.0075
782.466	0.0025
782.6386	0.0196
782.8113	-0.0002
782.9839	0.0105
783.1565	0.0096
783.329	-0.0002
783.5016	0.0001
783.6741	0.0037
783.8466	-0.0097
784.0191	0.013
784.1916	0.0047
784.3641	-0
784.5365	0.0059
784.7089	-0.0107
784.8813	-0.0076
785.0537	0.005
785.2261	-0.0164
785.3984	-0.015
785.5707	-0.0077
785.743	0.0117
785.9153	-0.0105
786.0876	0.0004
786.2598	0.0039
786.432	-0.0136
786.6042	0.0001
786.7764	-0.0029
786.9486	0.0136
787.1207	-0.0054
787.2928	0.0127
787.4649	0.0033
787.637	-0.0002
787.8091	0.0012
787.9811	-0.0101
788.1532	0.0022
788.3252	0.005
788.4972	0.005
788.6691	0.0002
788.8411	-0.005
789.013	-0.0039
789.1849	0.0025
789.3568	0.0055
789.5287	-0.0009
789.7005	-0.0024
789.8723	-0.002
790.0442	0.0112
790.2159	0.011
790.3877	0.0056
790.5595	-0.0162
790.7312	-0.0008
790.9029	-0.003
791.0746	-0.0103
791.2463	0.0129
791.4179	-0.0032
791.5896	-0.0084
791.7612	0.0053
791.9328	-0.0007
792.1044	-0.0078
792.2759	-0.0072
792.4474	-0.014
792.619	0.0027
792.7905	0.0012
792.9619	0.0057
793.1334	0.0028
793.3048	-0.0058
793.4762	-0.0034
793.6476	-0.0128
793.819	-0.0052
793.9904	0.0031
794.1617	-0.0101
794.333	-0.0069
794.5043	0.0022
794.6756	-0.0034
794.8469	-0.0026
795.0181	-0.0033
795.1893	-0.0045
795.3605	0.0111
795.5317	-0.0005
795.7029	-0.0241
795.874	0.002
796.0452	-0.0193
796.2163	0.0003
796.3873	0.0073
796.5584	0.0238
796.7294	-0.0081
796.9005	-0
797.0715	0.0028
797.2425	-0.008
797.4134	0.0029
797.5844	0.0092
797.7553	-0.0071
797.9262	-0.0046
798.0971	-0.0092
798.2679	-0.0086
798.4388	-0.0188
798.6096	-0.0067
798.7804	-0.001
798.9512	-0.0145
799.122	-0.0159
799.2927	-0
799.4635	0.0029
799.6342	-0.0248
799.8049	-0.0164
799.9755	0.0118
800.1462	-0.0006
800.3168	-0.0132
800.4874	0.0009
800.658	0.015
800.8286	0.008
800.9991	0.0157
801.1696	0.0156
801.3402	0.0144
801.5106	0.0024
801.6811	0.0007
801.8516	0.0182
802.022	-0.0043
802.1924	0.0143
802.3628	0.0028
802.5332	0.0149
802.7035	0.0111
802.8739	0.001
803.0442	-0.0073
803.2145	0.0193
803.3847	-0.0089
803.555	-0.0087
803.7252	-0.0126
803.8954	-0.0042
804.0656	-0.0123
804.2358	0.0037
804.4059	-0.0094
804.5761	0.0045
804.7462	-0.0027
804.9163	-0.0042
805.0864	-0.0041
805.2564	-0.0136
805.4264	-0.0122
805.5965	-0.0204
805.7665	0.0025
805.9364	0.0058
806.1064	0.0313
806.2763	0.013
806.4462	0.0226
806.6161	-0.0082
806.786	0.0121
806.9559	-0.0156
807.1257	0.0002
807.2955	-0.001
807.4653	-0.0106
807.6351	-0.0138
807.8048	-0.0233
807.9746	0.0009
808.1443	-0.0007
808.314	-0.0005
808.4837	-0.0043
808.6533	0.0108
808.8229	0.0194
808.9926	-0.006
809.1622	-0.0005
809.3317	-0.0184
809.5013	-0.009
809.6708	0.0201
809.8403	-0.0008
810.0098	-0.0108
810.1793	0.019
810.3488	0.0163
810.5182	-0.0099
810.6876	0.0138
810.857	-0.0255
811.0264	0.0175
811.1958	-0.0052
811.3651	-0.0218
811.5344	-0.0035
811.7037	-0.0058
811.873	-0.0204
812.0422	-0.0112
812.2115	-0.0036
812.3807	-0.0171
812.5499	0.01
812.7191	-0.003
812.8882	-0.0254
813.0574	-0.0245
813.2265	-0.0272
813.3956	-0.0044
813.5646	0.0089
813.7337	-0.007
813.9027	-0.0011
814.0718	0.0365
814.2407	0.0048
814.4097	-0.0108
814.5787	-0.005
814.7476	-0.0256
814.9165	0.003
815.0854	-0.0152
815.2543	-0.0081
815.4232	-0.0087
815.592	0.0149
815.7608	-0.0045
815.9296	0.0046
816.0984	-0.0015
816.2671	-0.0039
816.4359	-0.029
816.6046	-0.0026
816.7733	-0.016
816.942	-0.0188
817.1106	-0.0111
817.2793	0.0024
817.4479	0.0136
817.6165	-0.0142
817.785	-0.0116
817.9536	-0.0277
818.1221	-0.014
818.2906	0.0057
818.4591	-0.0136
818.6276	-0.0104
818.7961	-0.0021
818.9645	-0.008
819.1329	-0.007
819.3013	0.0186
819.4697	-0.0083
819.638	0.002
819.8064	0.0148
819.9747	0.0017
820.143	-0.017
820.3113	0.0087
820.4795	0.0052
820.6477	0.0058
820.816	-0.0152
820.9842	0.0021
821.1523	-0.0191
821.3205	0.006
821.4886	-0.0253
821.6567	-0.0051
821.8248	0.014
821.9929	0.0006
822.1609	-0.0046
822.329	0.0122
822.497	0.0308
822.665	-0.0168
822.833	-0.0074
823.0009	-0.002
823.1688	0.014
823.3367	0.0227
823.5046	0.0187
823.6725	0.0187
823.8404	-0.0028
824.0082	-0.0055
824.176	0.0164
824.3438	0.0169
824.5116	-0.0121
824.6793	0.0124
824.847	-0.0115
825.0147	-0.0001
825.1824	0.0011
825.3501	0.0115
825.5177	-0.0106
825.6854	0.0038
825.853	0.0182
826.0206	-0.0061
826.1881	-0.0244
826.3557	-0.0159
826.5232	0.0051
826.6907	-0.0376
826.8582	-0.0268
827.0257	-0.0423
827.1931	-0.0037
827.3605	-0.009
827.528	-0.0254
827.6953	-0.0302
827.8627	-0.0316
828.03	0.0344
828.1974	-0.0011
828.3647	-0.031
828.532	-0.0006
828.6992	-0.0361
828.8665	-0.0058
829.0337	-0.0351
829.2009	0.0272
829.3681	-0.0037
829.5352	0.0458
829.7024	-0.0201
829.8695	-0.0024
830.0366	0.0134
830.2037	0.005
830.3707	0.019
830.5378	0.0096
830.7048	-0.0156
830.8718	0.0064
831.0388	-0.0203
831.2057	0.0394
831.3727	0.0447
831.5396	-0.0007
831.7065	-0.0007
831.8734	-0.0001
832.0402	-0.0426
832.2071	0.0101
832.3739	-0.0019
832.5407	0.0077
832.7075	-0.0326
832.8742	-0.0332
833.041	-0.0081
833.2077	-0.0273
833.3744	0.0279
833.541	-0.0002
833.7077	-0.0185
833.8743	-0.0335
834.0409	0.0116
834.2075	0.0362
834.3741	-0.0229
834.5407	-0.0442
834.7072	-0.0008
834.8737	-0.0315
835.0402	-0.0331
835.2067	-0.0063
835.3731	0.0236
835.5395	-0.0033
835.706	0.0136
835.8723	0.0311
836.0387	-0.0015
836.2051	-0.0329
836.3714	0.0216
836.5377	-0.015
836.704	-0.0318
836.8703	0.0131
837.0365	-0.0138
837.2027	-0.0259
837.3689	0.0178
837.5351	-0.0221
837.7013	-0.025
837.8674	-0.0466
838.0335	-0.0219
838.1997	-0.0201
838.3657	-0.0316
838.5318	-0.0243
838.6978	0.0461
838.8639	0.0118
839.0299	-0.0212
839.1958	0.0133
839.3618	0.0317
839.5277	-0.0186
839.6937	-0.0068
839.8596	0.008
840.0254	0.0218
840.1913	0.0227
840.3571	0.0363
840.523	-0.0188
840.6888	-0.0498
840.8545	-0.0493
841.0203	0.041
841.186	-0.0235
841.3517	0.0088
841.5174	-0.0338
841.6831	-0.003
841.8488	0.0089
842.0144	0.0261
842.18	0.006
842.3456	-0.0067
842.5112	-0.0464
842.6767	-0.0871
842.8422	-0.0139
843.0077	-0.0348
843.1732	-0.0507
843.3387	-0.0351
843.5042	-0.0446
843.6696	-0.0339
843.835	-0.0046
844.0004	0.0362
844.1657	-0.0218
844.3311	-0.0446
844.4964	-0.0392
844.6617	-0.0188
844.827	0.0032
844.9923	-0.0322
845.1575	-0.0003
845.3227	0.0138
845.4879	-0.0125
845.6531	-0.052
845.8183	-0.0719
845.9834	-0.0174
846.1485	-0.0246
846.3136	-0.0274
846.4787	-0.1037
846.6438	0.0722
846.8088	-0.0143
846.9738	-0.0548
847.1388	-0.0583
847.3038	-0.0489
847.4687	-0.148
847.6337	-0.0339
847.7986	-0.0185
847.9635	0.0011
848.1284	0.0249
848.2932	0.0283
848.458	0.0277
848.6228	0.0418
848.7876	0.1074
848.9524	-0.104
849.1172	-0.0452
849.2819	0.0226
849.4466	-0.0697
849.6113	-0.0686
849.7759	0.0096
849.9406	-0.0106
850.1052	0.0455
850.2698	-0.0226
850.4344	-0.0487
850.599	-0.0924
850.7635	0.0887
850.928	-0.0662
851.0925	0.0073
851.257	-0.0212
851.4215	0.0524
851.5859	-0.0821
851.7503	0.0089
851.9147	-0.0456
852.0791	-0.0788
852.2434	-0.0154
852.4078	0.0431
852.5721	-0.0969
852.7364	-0.0184
852.9007	-0.2123
853.0649	0.1183
853.2291	-0.0342
853.3934	-0.0526
853.5575	-0.0369
853.7217	-0.0833
853.8859	-0.0619
854.05	-0.1566
854.2141	0.0233
854.3782	0.0732
854.5423	-0.172
854.7063	0.1
854.8703	-0.0007
855.0343	-0.1528
855.1983	-0.1342
855.3623	0.0854
855.5262	0.0247
855.6901	-0.1192
855.854	0.0406
856.0179	0.0017
856.1818	0.0894
856.3456	-0.0578
856.5094	-0.0437
856.6732	-0.0391
856.837	-0.0924
857.0008	0.0862
857.1645	-0.11
857.3282	-0.1405
857.4919	0.0221
857.6556	-0.1183
857.8192	-0.0106
857.9828	-0.0201
858.1465	0.3102
858.31	-0.2085
858.4736	-0.0424
858.6372	-0.2039
858.8007	-0.0917
858.9642	0.0271
859.1277	0.0891
859.2911	0.074
859.4546	-0.0092
859.618	-0.3563
859.7814	0.0761
859.9448	-0.0344
860.1081	-0.0999
860.2715	0.13
860.4348	0.1123
860.5981	0.028
860.7614	0.197
860.9246	-0.0662
861.0879	-0.0021
861.2511	0.0213
861.4143	-0.3741
861.5774	0.506
861.7406	-0.1399
861.9037	-0.1031
862.0668	-0.1325
862.2299	-0.231
862.393	-0.5458
862.556	-0.0658
862.7191	-0.2897
862.8821	-0.1579
863.0451	0.1395
863.208	0.1826
863.371	-0.0143
863.5339	-0.0459
863.6968	-0.0433
863.8597	0.1598
864.0225	-0.0569
864.1854	-0.2539
864.3482	0.3994
864.511	0.245
864.6737	-0.2184
864.8365	-0.0375
864.9992	-0.5675
865.1619	-0.581
865.3246	0.3519
865.4873	0.0189
865.65	-0.1233
865.8126	0.1925
865.9752	0.4821
866.1378	0.0752
866.3004	-0.1635
866.4629	0.3434
866.6254	-0.2362
866.7879	-0.1866
866.9504	-0.0063
867.1129	-0
867.2753	2.1738
867.4377	0.0164
867.6001	0.0122
867.7625	0.1269
867.9249	0.3784
868.0872	-0.1347
868.2495	0.1389
868.4118	-0.061
868.5741	-0.5815
868.7363	-0.1308
868.8986	-0.3979
869.0608	-0.1688
869.223	0.1664
869.3851	0.1259
869.5473	0.2393
869.7094	0.2159
869.8715	0.1113
870.0336	-0
870.1957	-0.3805
870.3577	-0
870.5197	0.0154
870.6817	-0.2356
870.8437	0.0329
871.0057	0.1047
871.1676	-0
871.3295	-0.4167
871.4914	-0.3404
871.6533	-0.3208
871.8151	-0.6201
871.977	-0
872.1388	-0
872.3006	0.5541
872.4623	-0
872.6241	0.0331
872.7858	0.2192
872.9475	-0.2229
873.1092	-0.1129
873.2709	-0.324
873.4325	-0.3077
873.5941	-0.193
873.7557	-0
873.9173	-0
874.0789	-0.5134
874.2404	-0.8558
874.4019	-0
874.5634	-0.3717
874.7249	-0.1075
874.8863	0.0084
875.0478	0.0199
875.2092	-0.4155
875.3706	-0.0308
875.5319	-0.6374
875.6933	-0
875.8546	-0.2542
876.0159	-0
876.1772	0.7987
876.3385	-0
876.4997	0.5423
876.6609	-0.4468
876.8221	-0.6427
876.9833	-0
877.1445	-0
877.3056	0.1448
877.4667	-0
877.6278	-0
877.7889	-0.2788
877.9499	-0
878.111	-0.4144
878.272	-0
878.433	-0
878.5939	-0
878.7549	-0.1774
878.9158	-0.6374
879.0767	0.0341
879.2376	-0
879.3984	-0.0249
879.5593	-0
879.7201	1.407
879.8809	-0.6688
880.0417	1.5611
880.2024	-0.0384
880.3632	-0
880.5239	0.9148
880.6846	-0
880.8452	-2.3512
881.0059	-0
881.1665	0.5297
881.3271	0.8579
881.4877	-0.5296
881.6483	-0.2311
881.8088	-0.2356
881.9693	-0
882.1298	-0
882.2903	-0
