Data from MonoPyChalIsomerACN10uM410nmA_Absorbance_14-53-27-373.txt Node
Date: Fri Jul 05 14:53:27 BST 2024
User: LASERRRRR
Spectrometer: FLMT03099
Trigger mode: 0
Integration Time (sec): 1.000000E-1
Scans to average: 1
Electric dark correction enabled: true
Nonlinearity correction enabled: false
Boxcar width: 0
XAxis mode: Wavelengths
Number of Pixels in Spectrum: 3648
>>>>>Begin Spectral Data<<<<<
179.3399	-0.0733
179.5586	-0.0733
179.7771	-0.0733
179.9957	0.4109
180.2143	-0
180.4329	0.0131
180.6514	-0
180.8699	-0
181.0885	-0.1545
181.307	0.2568
181.5255	-0
181.744	-0.3292
181.9625	-0.5983
182.181	-0
182.3994	-0
182.6179	-0
182.8363	0.1567
183.0547	0.0269
183.2732	-0.0206
183.4916	-0.0011
183.71	0.2577
183.9284	0.1593
184.1467	0.145
184.3651	0.0084
184.5835	0.008
184.8018	0.0403
185.0201	0.067
185.2385	-0.0013
185.4568	0.1907
185.6751	0.2485
185.8934	0.3411
186.1117	-0.0536
186.3299	0.0451
186.5482	0.221
186.7664	-0.135
186.9847	0.0369
187.2029	0.0401
187.4211	0.0982
187.6393	0.3302
187.8575	-0.1826
188.0757	0.1335
188.2939	0.1013
188.512	-0.2933
188.7302	0.3594
188.9483	-0.0553
189.1665	0.0943
189.3846	-0.2686
189.6027	-0.0009
189.8208	0.1257
190.0389	0.0684
190.257	0.1461
190.475	0.3697
190.6931	0.0846
190.9111	0.2934
191.1292	0.168
191.3472	0.3913
191.5652	0.2425
191.7832	0.1802
192.0012	0.3742
192.2192	0.3246
192.4371	0.3864
192.6551	0.6031
192.873	0.5285
193.091	0.4718
193.3089	0.9771
193.5268	0.4921
193.7447	0.5714
193.9626	0.4803
194.1805	0.6515
194.3984	0.6325
194.6162	0.7803
194.8341	0.5045
195.0519	0.386
195.2697	0.7727
195.4875	0.4182
195.7054	0.7907
195.9231	0.477
196.1409	0.6275
196.3587	0.5282
196.5765	0.5248
196.7942	0.555
197.012	0.5054
197.2297	0.5899
197.4474	0.6839
197.6651	0.5567
197.8828	0.5314
198.1005	0.5239
198.3182	0.5149
198.5358	0.7355
198.7535	0.6408
198.9711	0.5184
199.1888	0.716
199.4064	0.8254
199.624	0.6098
199.8416	0.5206
200.0592	0.6187
200.2767	0.5321
200.4943	0.6345
200.7119	0.7805
200.9294	0.7851
201.1469	0.6018
201.3645	0.5776
201.582	0.5436
201.7995	0.6171
202.017	0.5893
202.2344	0.6058
202.4519	0.6845
202.6694	0.6563
202.8868	0.588
203.1042	0.7156
203.3217	0.7076
203.5391	0.5368
203.7565	0.5929
203.9739	0.6133
204.1913	0.6154
204.4086	0.6008
204.626	0.6362
204.8433	0.5678
205.0607	0.7309
205.278	0.6556
205.4953	0.6694
205.7126	0.6349
205.9299	0.7831
206.1472	0.6125
206.3644	0.5716
206.5817	0.6676
206.7989	0.7628
207.0162	0.6704
207.2334	0.6164
207.4506	0.6351
207.6678	0.6333
207.885	0.5498
208.1022	0.6421
208.3194	0.6512
208.5365	0.633
208.7537	0.6393
208.9708	0.5877
209.1879	0.6462
209.405	0.6451
209.6222	0.6859
209.8392	0.6022
210.0563	0.6241
210.2734	0.6946
210.4905	0.6136
210.7075	0.6217
210.9245	0.642
211.1416	0.6853
211.3586	0.5805
211.5756	0.558
211.7926	0.5889
212.0096	0.5625
212.2265	0.5641
212.4435	0.5483
212.6604	0.5725
212.8774	0.6169
213.0943	0.6288
213.3112	0.5467
213.5281	0.5307
213.745	0.4758
213.9619	0.5222
214.1788	0.4516
214.3956	0.4669
214.6125	0.4843
214.8293	0.4375
215.0461	0.4647
215.2629	0.4786
215.4798	0.424
215.6965	0.4128
215.9133	0.4218
216.1301	0.402
216.3469	0.4429
216.5636	0.3958
216.7803	0.3721
216.9971	0.4185
217.2138	0.3499
217.4305	0.3504
217.6472	0.356
217.8639	0.3616
218.0805	0.3363
218.2972	0.3155
218.5138	0.297
218.7305	0.3126
218.9471	0.3054
219.1637	0.285
219.3803	0.2894
219.5969	0.2814
219.8135	0.2552
220.0301	0.2539
220.2466	0.2725
220.4632	0.271
220.6797	0.2136
220.8962	0.2339
221.1127	0.2529
221.3292	0.2446
221.5457	0.2201
221.7622	0.2262
221.9787	0.2352
222.1951	0.2357
222.4116	0.258
222.628	0.2351
222.8444	0.2498
223.0608	0.235
223.2772	0.2484
223.4936	0.2542
223.71	0.2488
223.9264	0.2717
224.1427	0.2403
224.3591	0.2519
224.5754	0.2433
224.7917	0.2611
225.008	0.2491
225.2243	0.2362
225.4406	0.2849
225.6569	0.2592
225.8732	0.2654
226.0894	0.2567
226.3057	0.2491
226.5219	0.2947
226.7381	0.2669
226.9543	0.2784
227.1705	0.2823
227.3867	0.2667
227.6029	0.2981
227.8191	0.2994
228.0352	0.2885
228.2513	0.2921
228.4675	0.3022
228.6836	0.2765
228.8997	0.294
229.1158	0.3274
229.3319	0.3127
229.548	0.2991
229.764	0.3218
229.9801	0.3191
230.1961	0.3102
230.4121	0.3168
230.6282	0.3456
230.8442	0.306
231.0602	0.3496
231.2761	0.3454
231.4921	0.3347
231.7081	0.3439
231.924	0.3191
232.14	0.3654
232.3559	0.3639
232.5718	0.3466
232.7877	0.354
233.0036	0.3311
233.2195	0.3419
233.4353	0.3521
233.6512	0.3639
233.867	0.351
234.0829	0.3583
234.2987	0.3659
234.5145	0.3695
234.7303	0.3581
234.9461	0.3908
235.1619	0.3787
235.3776	0.3675
235.5934	0.3732
235.8091	0.3713
236.0249	0.3727
236.2406	0.3542
236.4563	0.3803
236.672	0.3838
236.8877	0.3887
237.1034	0.3923
237.319	0.368
237.5347	0.3968
237.7503	0.3923
237.966	0.4228
238.1816	0.3911
238.3972	0.3932
238.6128	0.3968
238.8284	0.3959
239.0439	0.4024
239.2595	0.3777
239.475	0.3996
239.6906	0.4003
239.9061	0.3964
240.1216	0.3964
240.3371	0.4014
240.5526	0.4083
240.7681	0.417
240.9836	0.3955
241.199	0.3901
241.4145	0.39
241.6299	0.378
241.8453	0.3781
242.0607	0.404
242.2761	0.3589
242.4915	0.3819
242.7069	0.3664
242.9223	0.3648
243.1376	0.3443
243.353	0.3422
243.5683	0.3437
243.7836	0.3482
243.9989	0.3359
244.2142	0.3035
244.4295	0.3392
244.6448	0.3167
244.86	0.2921
245.0753	0.2832
245.2905	0.2935
245.5057	0.2601
245.721	0.2875
245.9362	0.2789
246.1514	0.2748
246.3665	0.2536
246.5817	0.2686
246.7969	0.25
247.012	0.2386
247.2271	0.2442
247.4423	0.2553
247.6574	0.2453
247.8725	0.2378
248.0876	0.2257
248.3026	0.2328
248.5177	0.228
248.7328	0.2225
248.9478	0.2118
249.1628	0.218
249.3779	0.2191
249.5929	0.2013
249.8079	0.2249
250.0228	0.2094
250.2378	0.2037
250.4528	0.1995
250.6677	0.1958
250.8827	0.2002
251.0976	0.1909
251.3125	0.2044
251.5274	0.1855
251.7423	0.1904
251.9572	0.1903
252.172	0.186
252.3869	0.1765
252.6017	0.1756
252.8166	0.1709
253.0314	0.1648
253.2462	0.1724
253.461	0.1777
253.6758	0.1586
253.8906	0.1754
254.1053	0.168
254.3201	0.165
254.5348	0.175
254.7496	0.1671
254.9643	0.1653
255.179	0.17
255.3937	0.1717
255.6083	0.1697
255.823	0.1847
256.0377	0.1604
256.2523	0.1686
256.467	0.153
256.6816	0.166
256.8962	0.1609
257.1108	0.1448
257.3254	0.1749
257.54	0.1652
257.7545	0.165
257.9691	0.1654
258.1836	0.1532
258.3981	0.1785
258.6127	0.1741
258.8272	0.1623
259.0417	0.1719
259.2561	0.1636
259.4706	0.1763
259.6851	0.1515
259.8995	0.1626
260.114	0.1529
260.3284	0.1569
260.5428	0.1538
260.7572	0.1743
260.9716	0.1613
261.186	0.157
261.4003	0.1601
261.6147	0.165
261.829	0.1595
262.0433	0.1629
262.2577	0.1672
262.472	0.1545
262.6863	0.1587
262.9005	0.1634
263.1148	0.1674
263.3291	0.1402
263.5433	0.153
263.7576	0.1579
263.9718	0.1632
264.186	0.1639
264.4002	0.1627
264.6144	0.1654
264.8286	0.178
265.0427	0.1644
265.2569	0.1548
265.471	0.1471
265.6851	0.1529
265.8993	0.1579
266.1134	0.1664
266.3275	0.1589
266.5415	0.155
266.7556	0.1675
266.9697	0.1624
267.1837	0.1522
267.3978	0.1622
267.6118	0.1773
267.8258	0.1755
268.0398	0.1516
268.2538	0.1601
268.4677	0.1589
268.6817	0.1615
268.8957	0.1717
269.1096	0.1652
269.3235	0.1668
269.5374	0.1526
269.7514	0.1605
269.9652	0.1552
270.1791	0.1521
270.393	0.1532
270.6068	0.1574
270.8207	0.1506
271.0345	0.1468
271.2483	0.1543
271.4622	0.1432
271.676	0.1494
271.8897	0.1411
272.1035	0.1487
272.3173	0.1447
272.531	0.151
272.7448	0.1482
272.9585	0.1391
273.1722	0.1584
273.3859	0.1542
273.5996	0.1487
273.8133	0.1556
274.0269	0.1343
274.2406	0.1432
274.4542	0.1486
274.6679	0.1469
274.8815	0.1552
275.0951	0.1577
275.3087	0.1562
275.5223	0.1518
275.7358	0.1473
275.9494	0.1473
276.1629	0.1406
276.3765	0.1554
276.59	0.1553
276.8035	0.1453
277.017	0.1488
277.2305	0.1466
277.444	0.1472
277.6574	0.1368
277.8709	0.152
278.0843	0.1386
278.2978	0.1583
278.5112	0.1402
278.7246	0.1502
278.938	0.154
279.1513	0.1573
279.3647	0.1589
279.5781	0.1469
279.7914	0.151
280.0047	0.1648
280.2181	0.1528
280.4314	0.1671
280.6447	0.1517
280.8579	0.1547
281.0712	0.1574
281.2845	0.1606
281.4977	0.161
281.711	0.1428
281.9242	0.1555
282.1374	0.1589
282.3506	0.1499
282.5638	0.1664
282.7769	0.1449
282.9901	0.1619
283.2033	0.1623
283.4164	0.169
283.6295	0.1475
283.8426	0.1582
284.0557	0.1568
284.2688	0.1697
284.4819	0.1728
284.695	0.1535
284.908	0.1612
285.1211	0.1599
285.3341	0.1727
285.5471	0.1599
285.7601	0.1617
285.9731	0.1527
286.1861	0.1525
286.3991	0.1663
286.612	0.1696
286.825	0.1691
287.0379	0.1653
287.2508	0.1531
287.4637	0.1659
287.6766	0.14
287.8895	0.165
288.1024	0.1742
288.3152	0.1586
288.5281	0.159
288.7409	0.1611
288.9538	0.1565
289.1666	0.1641
289.3794	0.1601
289.5922	0.1563
289.8049	0.155
290.0177	0.1539
290.2304	0.1616
290.4432	0.1624
290.6559	0.1492
290.8686	0.1655
291.0813	0.1614
291.294	0.1629
291.5067	0.1614
291.7194	0.1534
291.932	0.1648
292.1447	0.1759
292.3573	0.1551
292.5699	0.1608
292.7825	0.1717
292.9951	0.1461
293.2077	0.149
293.4203	0.1571
293.6328	0.1493
293.8454	0.1623
294.0579	0.15
294.2704	0.154
294.4829	0.1371
294.6954	0.153
294.9079	0.1566
295.1204	0.1528
295.3328	0.1552
295.5453	0.1679
295.7577	0.1572
295.9701	0.152
296.1825	0.1577
296.3949	0.1422
296.6073	0.1544
296.8197	0.1516
297.0321	0.1637
297.2444	0.1531
297.4567	0.1574
297.6691	0.1661
297.8814	0.144
298.0937	0.1645
298.306	0.1562
298.5182	0.1544
298.7305	0.1581
298.9428	0.1472
299.155	0.1514
299.3672	0.1534
299.5794	0.1434
299.7916	0.1527
300.0038	0.1601
300.216	0.1562
300.4282	0.162
300.6403	0.1529
300.8525	0.1579
301.0646	0.1393
301.2767	0.1548
301.4888	0.1555
301.7009	0.1508
301.913	0.1554
302.125	0.1552
302.3371	0.1449
302.5491	0.1469
302.7612	0.1563
302.9732	0.1484
303.1852	0.1554
303.3972	0.1548
303.6092	0.1471
303.8211	0.1491
304.0331	0.1441
304.245	0.1521
304.457	0.1427
304.6689	0.1474
304.8808	0.1629
305.0927	0.1531
305.3046	0.1433
305.5164	0.1465
305.7283	0.1396
305.9401	0.1461
306.152	0.1531
306.3638	0.1426
306.5756	0.1383
306.7874	0.1484
306.9992	0.1392
307.2109	0.1354
307.4227	0.1366
307.6344	0.1396
307.8462	0.1409
308.0579	0.1347
308.2696	0.1219
308.4813	0.1227
308.693	0.1297
308.9046	0.1381
309.1163	0.1372
309.328	0.1197
309.5396	0.1167
309.7512	0.1172
309.9628	0.1232
310.1744	0.1278
310.386	0.1141
310.5976	0.1168
310.8091	0.121
311.0207	0.1181
311.2322	0.1202
311.4437	0.0997
311.6552	0.1004
311.8667	0.1124
312.0782	0.1047
312.2897	0.1054
312.5012	0.1125
312.7126	0.1053
312.924	0.107
313.1355	0.1211
313.3469	0.1128
313.5583	0.1092
313.7696	0.1097
313.981	0.1056
314.1924	0.106
314.4037	0.1094
314.6151	0.1132
314.8264	0.1015
315.0377	0.0999
315.249	0.1063
315.4603	0.1191
315.6716	0.0907
315.8828	0.099
316.0941	0.1084
316.3053	0.0938
316.5165	0.0947
316.7277	0.0933
316.9389	0.117
317.1501	0.0954
317.3613	0.0919
317.5724	0.0817
317.7836	0.0965
317.9947	0.1021
318.2058	0.1086
318.417	0.087
318.6281	0.0892
318.8391	0.0851
319.0502	0.0911
319.2613	0.0981
319.4723	0.1049
319.6834	0.1165
319.8944	0.0931
320.1054	0.1078
320.3164	0.1017
320.5274	0.1053
320.7383	0.0994
320.9493	0.1018
321.1602	0.1164
321.3712	0.0924
321.5821	0.0988
321.793	0.0989
322.0039	0.1023
322.2148	0.0964
322.4257	0.1082
322.6365	0.1222
322.8474	0.115
323.0582	0.0964
323.269	0.0983
323.4798	0.1145
323.6906	0.1033
323.9014	0.1063
324.1122	0.1142
324.3229	0.0942
324.5337	0.0993
324.7444	0.1037
324.9551	0.1237
325.1658	0.1109
325.3765	0.1058
325.5872	0.1066
325.7979	0.1031
326.0085	0.1097
326.2192	0.1025
326.4298	0.1055
326.6404	0.0994
326.851	0.0869
327.0616	0.1042
327.2722	0.1138
327.4828	0.1094
327.6933	0.0982
327.9039	0.1085
328.1144	0.1173
328.3249	0.1191
328.5354	0.0993
328.7459	0.1124
328.9564	0.106
329.1669	0.1109
329.3773	0.0987
329.5878	0.1137
329.7982	0.1018
330.0086	0.1092
330.219	0.113
330.4294	0.101
330.6398	0.1074
330.8502	0.109
331.0605	0.1127
331.2708	0.1072
331.4812	0.1073
331.6915	0.1093
331.9018	0.1074
332.1121	0.1047
332.3224	0.1134
332.5326	0.124
332.7429	0.1164
332.9531	0.12
333.1633	0.1073
333.3735	0.1156
333.5837	0.1124
333.7939	0.1054
334.0041	0.1277
334.2143	0.108
334.4244	0.1066
334.6346	0.088
334.8447	0.1111
335.0548	0.1073
335.2649	0.0964
335.475	0.12
335.685	0.1047
335.8951	0.1199
336.1051	0.1239
336.3152	0.1184
336.5252	0.1201
336.7352	0.1148
336.9452	0.1205
337.1552	0.1187
337.3652	0.1131
337.5751	0.1129
337.7851	0.117
337.995	0.1085
338.2049	0.1155
338.4148	0.109
338.6247	0.125
338.8346	0.1147
339.0445	0.102
339.2543	0.1157
339.4642	0.1242
339.674	0.1126
339.8838	0.116
340.0936	0.1219
340.3034	0.135
340.5132	0.1251
340.7229	0.1127
340.9327	0.1191
341.1424	0.1245
341.3522	0.129
341.5619	0.1261
341.7716	0.1233
341.9813	0.1315
342.1909	0.1192
342.4006	0.1272
342.6102	0.1381
342.8199	0.1277
343.0295	0.1243
343.2391	0.1296
343.4487	0.1392
343.6583	0.1224
343.8679	0.12
344.0774	0.1207
344.287	0.137
344.4965	0.1135
344.706	0.1375
344.9155	0.1375
345.125	0.1285
345.3345	0.1297
345.544	0.1196
345.7534	0.1177
345.9629	0.1277
346.1723	0.1367
346.3817	0.1275
346.5911	0.1318
346.8005	0.1212
347.0099	0.1232
347.2193	0.1395
347.4286	0.1323
347.638	0.1473
347.8473	0.1349
348.0566	0.1473
348.2659	0.1412
348.4752	0.1278
348.6845	0.1344
348.8937	0.1274
349.103	0.1538
349.3122	0.1273
349.5214	0.1328
349.7306	0.1271
349.9398	0.1371
350.149	0.1377
350.3582	0.1289
350.5674	0.1386
350.7765	0.1401
350.9856	0.1324
351.1948	0.1304
351.4039	0.1242
351.613	0.1428
351.822	0.1568
352.0311	0.1479
352.2402	0.1457
352.4492	0.16
352.6582	0.1442
352.8672	0.1428
353.0762	0.1504
353.2852	0.1524
353.4942	0.1397
353.7032	0.1608
353.9121	0.1485
354.1211	0.151
354.33	0.1554
354.5389	0.1528
354.7478	0.1424
354.9567	0.1468
355.1655	0.1416
355.3744	0.1522
355.5833	0.1561
355.7921	0.1713
356.0009	0.1387
356.2097	0.1667
356.4185	0.1534
356.6273	0.1557
356.8361	0.1578
357.0448	0.1502
357.2536	0.158
357.4623	0.1455
357.671	0.1807
357.8797	0.1691
358.0884	0.1579
358.2971	0.1579
358.5057	0.1592
358.7144	0.1608
358.923	0.1684
359.1316	0.1657
359.3402	0.1599
359.5488	0.1637
359.7574	0.1616
359.966	0.1762
360.1746	0.185
360.3831	0.1657
360.5916	0.1784
360.8002	0.1725
361.0087	0.1769
361.2172	0.1719
361.4256	0.1751
361.6341	0.1778
361.8426	0.1718
362.051	0.1759
362.2594	0.1816
362.4678	0.1852
362.6762	0.1849
362.8846	0.1848
363.093	0.1892
363.3014	0.1846
363.5097	0.1653
363.718	0.1667
363.9264	0.1949
364.1347	0.1686
364.343	0.1815
364.5513	0.1918
364.7595	0.1948
364.9678	0.1863
365.176	0.1872
365.3842	0.1866
365.5925	0.1938
365.8007	0.1915
366.0089	0.1835
366.217	0.176
366.4252	0.2005
366.6333	0.1983
366.8415	0.1902
367.0496	0.1869
367.2577	0.1902
367.4658	0.2111
367.6739	0.1908
367.882	0.1965
368.09	0.2047
368.2981	0.2044
368.5061	0.2019
368.7141	0.2008
368.9221	0.2124
369.1301	0.204
369.3381	0.2095
369.5461	0.1996
369.754	0.21
369.962	0.2079
370.1699	0.202
370.3778	0.2111
370.5857	0.2037
370.7936	0.2137
371.0015	0.1977
371.2093	0.2167
371.4172	0.2223
371.625	0.1952
371.8328	0.2167
372.0406	0.2246
372.2484	0.198
372.4562	0.2098
372.664	0.2122
372.8717	0.2152
373.0795	0.1934
373.2872	0.2155
373.4949	0.2069
373.7026	0.2157
373.9103	0.2264
374.118	0.2252
374.3256	0.2061
374.5333	0.1974
374.7409	0.215
374.9485	0.2362
375.1561	0.2136
375.3637	0.2125
375.5713	0.2313
375.7789	0.2225
375.9864	0.2212
376.194	0.2111
376.4015	0.2346
376.609	0.2171
376.8165	0.2217
377.024	0.2109
377.2315	0.2211
377.4389	0.2184
377.6464	0.2223
377.8538	0.2206
378.0612	0.2219
378.2686	0.2277
378.476	0.2246
378.6834	0.2263
378.8908	0.2358
379.0981	0.2379
379.3055	0.221
379.5128	0.2037
379.7201	0.2373
379.9274	0.2337
380.1347	0.2386
380.342	0.2614
380.5492	0.2247
380.7565	0.2291
380.9637	0.2445
381.1709	0.2238
381.3781	0.2412
381.5853	0.2421
381.7925	0.2226
381.9997	0.2383
382.2068	0.2472
382.4139	0.235
382.6211	0.2365
382.8282	0.2265
383.0353	0.2341
383.2424	0.2369
383.4494	0.2366
383.6565	0.2267
383.8635	0.2288
384.0706	0.2353
384.2776	0.2435
384.4846	0.2216
384.6916	0.2362
384.8986	0.2304
385.1055	0.2415
385.3125	0.2479
385.5194	0.2186
385.7263	0.2522
385.9333	0.2384
386.1402	0.2338
386.347	0.2361
386.5539	0.227
386.7608	0.2443
386.9676	0.2391
387.1744	0.2324
387.3813	0.2345
387.5881	0.2284
387.7948	0.2257
388.0016	0.2372
388.2084	0.226
388.4151	0.2185
388.6219	0.2345
388.8286	0.2347
389.0353	0.2469
389.242	0.2305
389.4487	0.2223
389.6553	0.2017
389.862	0.2137
390.0686	0.2322
390.2753	0.2364
390.4819	0.2363
390.6885	0.229
390.8951	0.2253
391.1016	0.2076
391.3082	0.212
391.5147	0.2166
391.7213	0.2133
391.9278	0.1955
392.1343	0.2019
392.3408	0.2169
392.5473	0.2133
392.7537	0.1924
392.9602	0.2262
393.1666	0.2046
393.373	0.2047
393.5794	0.2101
393.7858	0.2121
393.9922	0.1976
394.1986	0.2231
394.4049	0.2124
394.6113	0.19
394.8176	0.2104
395.0239	0.2028
395.2302	0.1947
395.4365	0.2043
395.6428	0.2037
395.8491	0.1822
396.0553	0.2019
396.2615	0.1861
396.4678	0.1949
396.674	0.1916
396.8802	0.2024
397.0863	0.2066
397.2925	0.1936
397.4987	0.1895
397.7048	0.2005
397.9109	0.1944
398.117	0.1959
398.3231	0.1959
398.5292	0.1897
398.7353	0.2053
398.9413	0.1925
399.1474	0.1884
399.3534	0.2022
399.5594	0.1774
399.7654	0.1939
399.9714	0.2075
400.1774	0.1982
400.3833	0.1876
400.5893	0.1914
400.7952	0.1941
401.0011	0.1972
401.207	0.2001
401.4129	0.1983
401.6188	0.2084
401.8247	0.1969
402.0305	0.1833
402.2364	0.2032
402.4422	0.1952
402.648	0.2129
402.8538	0.2002
403.0596	0.186
403.2654	0.1928
403.4711	0.1842
403.6768	0.2007
403.8826	0.1982
404.0883	0.211
404.294	0.1953
404.4997	0.1944
404.7054	0.2004
404.911	0.1767
405.1167	0.1898
405.3223	0.2007
405.5279	0.1863
405.7335	0.226
405.9391	0.1985
406.1447	0.178
406.3502	0.2189
406.5558	0.1727
406.7613	0.1983
406.9668	0.2084
407.1724	0.1871
407.3778	0.197
407.5833	0.1799
407.7888	0.1801
407.9942	0.2091
408.1997	0.1792
408.4051	0.1918
408.6105	0.1951
408.8159	0.1946
409.0213	0.192
409.2267	0.1939
409.432	0.1891
409.6374	0.1969
409.8427	0.1774
410.048	0.1885
410.2533	0.1875
410.4586	0.1789
410.6639	0.169
410.8691	0.1773
411.0744	0.1816
411.2796	0.1752
411.4848	0.1844
411.69	0.1694
411.8952	0.1967
412.1004	0.1878
412.3056	0.2038
412.5107	0.1887
412.7158	0.2039
412.921	0.1861
413.1261	0.1968
413.3312	0.1573
413.5362	0.1909
413.7413	0.1721
413.9464	0.1909
414.1514	0.1807
414.3564	0.1877
414.5614	0.1718
414.7664	0.1764
414.9714	0.1868
415.1764	0.1925
415.3813	0.1966
415.5863	0.1879
415.7912	0.1759
415.9961	0.1795
416.201	0.1945
416.4059	0.183
416.6108	0.1717
416.8156	0.1875
417.0205	0.1719
417.2253	0.1753
417.4301	0.1785
417.6349	0.1815
417.8397	0.2001
418.0445	0.181
418.2492	0.1756
418.454	0.1877
418.6587	0.1825
418.8634	0.1898
419.0681	0.1481
419.2728	0.1718
419.4775	0.1679
419.6822	0.1561
419.8868	0.1546
420.0915	0.1537
420.2961	0.1681
420.5007	0.1716
420.7053	0.1819
420.9099	0.1836
421.1144	0.1821
421.319	0.1606
421.5235	0.1813
421.728	0.1699
421.9325	0.1731
422.137	0.1802
422.3415	0.1805
422.546	0.1732
422.7504	0.1613
422.9549	0.1801
423.1593	0.1628
423.3637	0.1841
423.5681	0.1634
423.7725	0.149
423.9769	0.17
424.1812	0.1441
424.3856	0.1716
424.5899	0.1709
424.7942	0.155
424.9985	0.1634
425.2028	0.14
425.4071	0.1713
425.6113	0.1408
425.8156	0.1661
426.0198	0.1651
426.224	0.1436
426.4282	0.1343
426.6324	0.1474
426.8366	0.1443
427.0407	0.1369
427.2449	0.1433
427.449	0.1447
427.6531	0.135
427.8572	0.1397
428.0613	0.1503
428.2654	0.1634
428.4694	0.1447
428.6735	0.1306
428.8775	0.1417
429.0815	0.1417
429.2855	0.1263
429.4895	0.1437
429.6935	0.1519
429.8975	0.1327
430.1014	0.1211
430.3053	0.1148
430.5093	0.1241
430.7132	0.1163
430.9171	0.1306
431.1209	0.1267
431.3248	0.1128
431.5286	0.1297
431.7325	0.1296
431.9363	0.1135
432.1401	0.1303
432.3439	0.1245
432.5477	0.0872
432.7514	0.0948
432.9552	0.1259
433.1589	0.1026
433.3627	0.0934
433.5664	0.1084
433.7701	0.1035
433.9737	0.0991
434.1774	0.0902
434.3811	0.0995
434.5847	0.1118
434.7883	0.1095
434.9919	0.0924
435.1955	0.091
435.3991	0.0952
435.6027	0.0898
435.8062	0.0896
436.0098	0.0761
436.2133	0.0898
436.4168	0.0804
436.6203	0.083
436.8238	0.0825
437.0272	0.0809
437.2307	0.0814
437.4341	0.0839
437.6375	0.0991
437.841	0.0668
438.0443	0.0825
438.2477	0.0826
438.4511	0.0684
438.6545	0.0909
438.8578	0.0868
439.0611	0.0765
439.2644	0.076
439.4677	0.0643
439.671	0.0724
439.8743	0.0801
440.0775	0.0725
440.2808	0.06
440.484	0.0659
440.6872	0.0488
440.8904	0.0635
441.0936	0.0703
441.2967	0.0699
441.4999	0.0568
441.703	0.0592
441.9062	0.0524
442.1093	0.0642
442.3124	0.0541
442.5155	0.0607
442.7185	0.0691
442.9216	0.043
443.1246	0.0606
443.3276	0.0459
443.5307	0.0505
443.7337	0.0754
443.9366	0.0594
444.1396	0.0478
444.3426	0.0421
444.5455	0.0402
444.7484	0.0402
444.9513	0.0278
445.1542	0.0447
445.3571	0.0335
445.56	0.0468
445.7628	0.0247
445.9657	0.0368
446.1685	0.0578
446.3713	0.0469
446.5741	0.0377
446.7769	0.0164
446.9797	0.0326
447.1824	0.0411
447.3852	0.0193
447.5879	0.0458
447.7906	0.046
447.9933	0.0245
448.196	0.0307
448.3986	0.0282
448.6013	0.0333
448.8039	0.0159
449.0066	0.0158
449.2092	0.0291
449.4118	0.04
449.6143	0.0262
449.8169	0.0363
450.0195	0.0177
450.222	0.0085
450.4245	0.0125
450.627	0.0195
450.8295	0.0191
451.032	0.0249
451.2345	0.0222
451.4369	0.0194
451.6394	0.0141
451.8418	0.0082
452.0442	0.0176
452.2466	0.0278
452.449	0.0099
452.6513	0.0218
452.8537	0.0089
453.056	-0.0004
453.2583	0.0043
453.4607	0.0041
453.663	0.0028
453.8652	0.0339
454.0675	0.0039
454.2697	0.0239
454.472	-0.0031
454.6742	0.0037
454.8764	0.0088
455.0786	0.0123
455.2808	0.0092
455.4829	0.0067
455.6851	0.0162
455.8872	0.0122
456.0893	0.0107
456.2915	0.0117
456.4935	0.0176
456.6956	0.0081
456.8977	0.0174
457.0997	0.0089
457.3018	-0.0096
457.5038	0.008
457.7058	0.0035
457.9078	0.001
458.1098	0.0211
458.3117	0.0114
458.5137	0.0203
458.7156	0.0021
458.9175	-0.0114
459.1194	0.0096
459.3213	0.0056
459.5232	0.0055
459.725	-0.0137
459.9269	0.0029
460.1287	-0.0222
460.3305	-0.0079
460.5323	0.0049
460.7341	-0.0053
460.9359	-0.0092
461.1376	-0.0044
461.3394	-0.0106
461.5411	-0.0032
461.7428	-0.002
461.9445	0.0184
462.1462	0.0144
462.3479	0.0186
462.5495	0.0024
462.7512	-0.0032
462.9528	0.0038
463.1544	-0.0067
463.356	0.0012
463.5576	-0.0058
463.7592	-0.0042
463.9607	0.003
464.1623	0.0099
464.3638	-0.0067
464.5653	-0.0147
464.7668	0.0033
464.9683	-0.0021
465.1697	0.0199
465.3712	0.0043
465.5726	-0.0119
465.7741	0.0027
465.9755	-0.0025
466.1769	-0.0106
466.3782	0.0065
466.5796	0.005
466.7809	-0.0047
466.9823	-0.0123
467.1836	0.0006
467.3849	-0.0109
467.5862	0.0033
467.7875	-0.0161
467.9887	0.0043
468.19	-0.0032
468.3912	-0.0168
468.5924	-0.0135
468.7936	-0.0077
468.9948	-0.0037
469.196	0.0009
469.3972	-0.0234
469.5983	0.005
469.7994	-0.0182
470.0006	-0.0173
470.2017	-0.0153
470.4027	-0.0115
470.6038	-0.0122
470.8049	-0.0137
471.0059	-0.0068
471.2069	-0.0292
471.408	0.007
471.6089	0.0041
471.8099	-0.0061
472.0109	-0.0094
472.2119	-0.0181
472.4128	-0.0237
472.6137	-0.0008
472.8146	-0.0263
473.0155	0.0052
473.2164	-0.0055
473.4173	-0.0017
473.6181	-0.012
473.819	-0.0108
474.0198	-0.0103
474.2206	0.0031
474.4214	-0.0024
474.6222	-0.0127
474.8229	-0.0051
475.0237	-0.0134
475.2244	-0.0271
475.4251	-0.0023
475.6258	-0.0188
475.8265	-0.0021
476.0272	-0.007
476.2278	-0.0066
476.4285	-0.0101
476.6291	-0.0223
476.8297	-0.0163
477.0303	-0.0094
477.2309	-0.0097
477.4315	-0.0241
477.632	-0.018
477.8326	-0.0129
478.0331	-0.0053
478.2336	0.016
478.4341	-0.0067
478.6346	-0.0108
478.8351	-0.0041
479.0355	-0.0055
479.236	-0.0189
479.4364	-0.0063
479.6368	-0.0071
479.8372	-0.0124
480.0376	-0.0139
480.2379	-0.024
480.4383	-0.0162
480.6386	-0.0001
480.8389	-0.0094
481.0392	-0.0175
481.2395	-0.0137
481.4398	-0.0043
481.6401	-0.0048
481.8403	-0.0061
482.0405	-0.015
482.2408	-0.0173
482.441	0.0059
482.6411	-0.0191
482.8413	-0.0188
483.0415	-0.01
483.2416	-0.0147
483.4417	-0.0041
483.6419	-0.0188
483.8419	-0.016
484.042	0.0054
484.2421	-0.0077
484.4422	-0.006
484.6422	-0
484.8422	-0.0112
485.0422	-0.0157
485.2422	-0.0051
485.4422	-0.0139
485.6422	-0.0173
485.8421	-0.0117
486.042	0.0023
486.242	-0.013
486.4419	-0.0205
486.6417	-0.0084
486.8416	-0.0114
487.0415	-0.0204
487.2413	-0.0116
487.4411	-0.0011
487.641	-0.0151
487.8408	0.002
488.0405	-0.0115
488.2403	-0.0095
488.4401	-0.0012
488.6398	0.0002
488.8395	-0.0157
489.0392	-0.0085
489.2389	-0.0175
489.4386	-0.0097
489.6383	-0.0097
489.8379	0.0042
490.0376	-0.014
490.2372	-0.0096
490.4368	-0.009
490.6364	-0.0079
490.836	-0.0208
491.0355	-0.0087
491.2351	-0.0148
491.4346	-0.01
491.6341	-0.0199
491.8336	-0.0024
492.0331	-0.0188
492.2326	-0.0096
492.432	-0.0046
492.6315	-0.01
492.8309	-0.0216
493.0303	-0.0138
493.2297	-0.0133
493.4291	-0.0037
493.6284	-0.0128
493.8278	-0.0146
494.0271	0.0023
494.2264	-0.0116
494.4257	-0.0243
494.625	-0.0114
494.8243	-0.0223
495.0236	-0.0252
495.2228	-0.0303
495.422	-0.0018
495.6213	-0.0122
495.8205	-0.0053
496.0196	-0.0103
496.2188	-0.0079
496.418	-0.0166
496.6171	-0.017
496.8162	-0.0204
497.0153	-0.0077
497.2144	-0.0085
497.4135	-0.0155
497.6126	-0.018
497.8116	-0.0178
498.0107	-0.0073
498.2097	-0.0138
498.4087	-0.0156
498.6077	-0.0068
498.8067	-0.0138
499.0056	-0.0004
499.2046	-0.0079
499.4035	-0.0153
499.6024	-0.0119
499.8013	-0.0067
500.0002	-0.0245
500.199	-0.0113
500.3979	-0.0172
500.5967	-0.0254
500.7956	-0.0025
500.9944	-0.0194
501.1932	-0.0215
501.3919	-0.0156
501.5907	-0.018
501.7895	-0.0106
501.9882	-0.0106
502.1869	-0.0093
502.3856	-0.0104
502.5843	-0.0177
502.783	-0.0166
502.9816	-0.0148
503.1803	-0.0228
503.3789	-0.0179
503.5775	-0.0055
503.7761	-0.0112
503.9747	-0.0098
504.1732	-0.0069
504.3718	-0.0093
504.5703	-0.0067
504.7689	-0.0175
504.9674	-0.0068
505.1658	-0.0126
505.3643	-0.0155
505.5628	-0.0131
505.7612	-0.0115
505.9597	-0.0038
506.1581	-0.0093
506.3565	-0.0025
506.5549	-0.016
506.7532	-0.026
506.9516	-0.0151
507.1499	-0.016
507.3482	-0.0154
507.5465	-0.009
507.7448	-0.0117
507.9431	-0.0057
508.1414	-0.006
508.3396	-0.0145
508.5379	-0.0139
508.7361	-0.0149
508.9343	-0.0049
509.1325	-0.004
509.3306	-0.0115
509.5288	-0.0141
509.7269	-0.0201
509.9251	-0.0037
510.1232	-0.0161
510.3213	-0.006
510.5193	-0.007
510.7174	-0.0201
510.9154	-0.0201
511.1135	-0.0144
511.3115	-0.0192
511.5095	-0.0209
511.7075	-0.0149
511.9055	-0.0173
512.1034	-0.011
512.3014	-0.0147
512.4993	-0.0083
512.6972	-0.0154
512.8951	-0.0108
513.093	-0.012
513.2908	-0.0101
513.4887	-0.0049
513.6865	-0.0141
513.8844	-0.0129
514.0822	-0.0086
514.2799	-0.0212
514.4777	-0.0153
514.6755	-0.0096
514.8732	-0.0094
515.0709	-0.01
515.2687	-0.0051
515.4664	-0.0046
515.664	-0.0211
515.8617	-0.0136
516.0594	-0.0192
516.257	-0.0087
516.4546	-0.0195
516.6522	-0.0042
516.8498	-0.0104
517.0474	-0.0098
517.2449	0.0015
517.4425	-0.0229
517.64	-0.0154
517.8375	0.0008
518.035	-0.0103
518.2325	-0.0148
518.43	-0.0111
518.6274	-0.0166
518.8249	-0.0176
519.0223	-0.009
519.2197	-0.0037
519.4171	-0.0242
519.6145	-0.0156
519.8118	-0.0036
520.0092	-0.0144
520.2065	-0.0226
520.4038	-0.0126
520.6011	-0.0009
520.7984	-0.0152
520.9956	-0.0186
521.1929	-0.0063
521.3901	-0.003
521.5874	-0.0093
521.7846	-0.0034
521.9818	-0.0168
522.1789	-0.0176
522.3761	-0.0254
522.5732	-0.0168
522.7704	-0.0255
522.9675	-0.002
523.1646	-0.013
523.3617	-0.0075
523.5587	-0.0035
523.7558	-0.0137
523.9528	-0.0154
524.1498	0.0014
524.3468	-0.0153
524.5438	-0.0159
524.7408	-0.0173
524.9378	-0.0096
525.1347	-0.0146
525.3316	-0.0046
525.5285	-0.024
525.7254	-0.0177
525.9223	-0.0145
526.1192	-0.0107
526.316	-0.0165
526.5129	-0.0081
526.7097	-0.0034
526.9065	-0.0119
527.1033	-0.0178
527.3	-0.0023
527.4968	-0.0171
527.6935	-0.0102
527.8903	-0.0157
528.087	-0.0153
528.2837	-0.0098
528.4804	-0.0142
528.677	-0.0137
528.8737	-0.0011
529.0703	0.0018
529.2669	-0.0114
529.4635	-0.0133
529.6601	-0.007
529.8567	-0.0025
530.0532	-0.0148
530.2498	-0.0084
530.4463	-0.0061
530.6428	-0.0098
530.8393	-0.0012
531.0358	-0.0082
531.2322	-0.0082
531.4287	-0.0185
531.6251	-0.0088
531.8215	-0.0054
532.0179	-0.0136
532.2143	-0.0055
532.4107	-0.0207
532.607	-0.0163
532.8034	-0.0112
532.9997	-0.0084
533.196	-0.0076
533.3923	-0.0216
533.5886	-0.0142
533.7848	0.0015
533.9811	-0.0092
534.1773	-0.0087
534.3735	0.006
534.5697	-0.0049
534.7659	-0.0098
534.9621	-0.0076
535.1582	-0.0174
535.3544	-0.0144
535.5505	-0.0122
535.7466	-0.0056
535.9427	-0.0076
536.1387	-0.0116
536.3348	-0.0083
536.5308	-0.0056
536.7269	-0.0224
536.9229	0.0011
537.1189	-0.0086
537.3148	-0.0156
537.5108	-0.0116
537.7068	-0.0115
537.9027	-0.0029
538.0986	-0.0058
538.2945	-0.0243
538.4904	-0.0088
538.6863	-0.0117
538.8821	-0.0096
539.078	-0.0098
539.2738	-0.0053
539.4696	-0.0134
539.6654	-0.0038
539.8611	0.0125
540.0569	-0.0032
540.2526	-0.009
540.4484	-0.0062
540.6441	0.0011
540.8398	-0.0066
541.0355	0.0008
541.2311	-0.0045
541.4268	-0.0036
541.6224	0.0035
541.818	-0.0074
542.0136	-0.004
542.2092	-0.0057
542.4048	0.0038
542.6003	-0.005
542.7959	-0.0083
542.9914	-0.0106
543.1869	0.0039
543.3824	-0.0096
543.5779	-0.018
543.7734	-0.0052
543.9688	-0.0019
544.1642	-0.004
544.3596	-0.0099
544.555	-0.0016
544.7504	-0.0054
544.9458	-0.0097
545.1411	-0.0025
545.3365	-0.0074
545.5318	-0.0049
545.7271	-0.006
545.9224	-0.0042
546.1177	-0.0002
546.3129	-0.0008
546.5081	-0.0101
546.7034	-0.0035
546.8986	-0.01
547.0938	-0.014
547.289	-0.0013
547.4841	-0.0064
547.6793	0.0006
547.8744	-0.009
548.0695	-0.0078
548.2646	-0.0084
548.4597	0.0008
548.6548	-0.0005
548.8498	-0.0101
549.0448	0.0036
549.2399	-0.0077
549.4349	0.0039
549.6298	-0.0026
549.8248	-0.0061
550.0198	-0.0146
550.2147	-0.0121
550.4096	-0.0129
550.6045	-0.0059
550.7994	0.0004
550.9943	-0.0049
551.1892	-0.0041
551.384	0.0028
551.5788	-0.0137
551.7737	-0.0013
551.9685	0.0003
552.1632	-0.0014
552.358	-0.0111
552.5528	-0.0042
552.7475	-0.0063
552.9422	-0.0044
553.1369	-0.0052
553.3316	0.0024
553.5263	-0.0089
553.7209	0.0031
553.9156	-0.0068
554.1102	-0.0169
554.3048	-0.0056
554.4994	-0.0023
554.694	-0.0029
554.8885	-0.001
555.0831	-0.0092
555.2776	-0.007
555.4721	-0.0027
555.6666	-0.0107
555.8611	0.0041
556.0555	-0.0102
556.25	-0.0028
556.4444	-0.0158
556.6388	-0.0077
556.8332	-0.0082
557.0276	0.0009
557.222	-0.0061
557.4163	-0.0023
557.6107	-0.0033
557.805	0.0055
557.9993	-0.014
558.1936	0.0043
558.3879	-0.013
558.5821	0.0017
558.7764	-0.0081
558.9706	-0.0073
559.1648	0.0036
559.359	-0.0024
559.5532	-0.0131
559.7473	-0.0042
559.9415	-0.0056
560.1356	-0.0062
560.3297	-0.009
560.5238	-0.0064
560.7179	-0.0094
560.9119	-0.011
561.106	-0.0048
561.3	-0.0076
561.494	-0.0143
561.688	-0.0127
561.882	-0.0133
562.076	-0.0103
562.2699	0.0056
562.4639	-0.0043
562.6578	-0.0075
562.8517	0.0046
563.0456	-0.0009
563.2395	0.0026
563.4333	-0.0099
563.6272	0.0032
563.821	-0.0064
564.0148	-0.0052
564.2086	-0.0102
564.4024	-0.0047
564.5961	-0.0081
564.7899	0.0017
564.9836	-0.0128
565.1773	-0.0025
565.371	0.0003
565.5647	0.0003
565.7584	-0.0004
565.952	0.0021
566.1456	-0.0044
566.3393	0.001
566.5329	-0.0135
566.7264	-0.0023
566.92	-0.0023
567.1136	-0.0047
567.3071	-0.0049
567.5006	-0.0025
567.6941	0.0004
567.8876	-0.0011
568.0811	-0.01
568.2745	-0.0032
568.468	-0.0002
568.6614	0.0011
568.8548	-0.0059
569.0482	0.0004
569.2416	0.001
569.4349	-0.0059
569.6283	-0.0008
569.8216	-0.0091
570.0149	-0.0118
570.2082	0.0032
570.4015	-0.0005
570.5947	0.0039
570.788	0.0082
570.9812	0.0022
571.1744	-0.0068
571.3676	-0.0069
571.5608	-0.0015
571.754	0.009
571.9471	-0.0029
572.1402	-0.0012
572.3333	0.0008
572.5264	-0.0005
572.7195	-0.0024
572.9126	-0.0057
573.1057	-0.0052
573.2987	-0.0029
573.4917	0.0023
573.6847	-0.0111
573.8777	-0.0009
574.0707	0.0072
574.2636	-0.0046
574.4566	-0.0029
574.6495	0.0008
574.8424	-0.0016
575.0353	-0.0044
575.2281	0.0089
575.421	-0.0005
575.6138	0.0074
575.8067	-0.0005
575.9995	-0.002
576.1923	0.0016
576.385	0.0007
576.5778	-0.0058
576.7706	-0.0043
576.9633	-0.0038
577.156	0.0003
577.3487	0.0012
577.5414	0.0037
577.734	-0.0031
577.9267	0.0025
578.1193	-0.0107
578.3119	-0.0089
578.5045	0.003
578.6971	-0.0029
578.8897	0.0001
579.0822	-0.0005
579.2747	-0.0005
579.4673	-0.0086
579.6598	-0.0066
579.8522	-0.0082
580.0447	-0.0032
580.2372	-0.0039
580.4296	0.0012
580.622	-0.0092
580.8144	-0.0067
581.0068	-0.0059
581.1992	-0.0158
581.3915	-0.0088
581.5839	-0.0102
581.7762	-0.0074
581.9685	-0.0095
582.1608	0
582.353	-0.0051
582.5453	-0.0012
582.7375	-0.0073
582.9298	-0.008
583.122	-0.0005
583.3142	-0.0028
583.5063	-0.0013
583.6985	0.0041
583.8906	0.0009
584.0827	-0.011
584.2749	-0.0019
584.4669	-0.002
584.659	-0.0008
584.8511	-0.0056
585.0431	-0.0018
585.2352	-0.0046
585.4272	-0.0068
585.6192	0.0017
585.8111	0.0019
586.0031	-0.011
586.195	0.002
586.387	0.0049
586.5789	-0.0048
586.7708	0.0044
586.9627	-0
587.1545	-0.0067
587.3464	0.0025
587.5382	0.0022
587.73	0.0008
587.9218	0.0036
588.1136	-0.0036
588.3053	0.0046
588.4971	-0.0052
588.6888	-0.0079
588.8805	-0.001
589.0722	-0.0006
589.2639	-0.0036
589.4556	0.004
589.6472	-0.0097
589.8389	-0.0089
590.0305	-0.0051
590.2221	-0.0008
590.4137	-0.0121
590.6052	-0.0001
590.7968	-0.0054
590.9883	0.0026
591.1798	-0.0087
591.3713	0.006
591.5628	-0.0021
591.7543	-0.0057
591.9458	0.0007
592.1372	0.0017
592.3286	0.003
592.52	0.0021
592.7114	-0.0063
592.9028	-0.0083
593.0941	-0.0034
593.2855	-0.0031
593.4768	-0.0083
593.6681	0.0022
593.8594	-0.0053
594.0506	-0.0004
594.2419	0.0044
594.4331	-0.0013
594.6244	0.0035
594.8156	-0.0033
595.0067	0.0038
595.1979	-0.0039
595.3891	0.0056
595.5802	0.0036
595.7713	-0.0031
595.9624	-0.0064
596.1535	0.0024
596.3446	-0.0059
596.5357	-0.003
596.7267	0.0035
596.9177	-0.0033
597.1087	-0.0083
597.2997	-0.0015
597.4907	-0
597.6817	-0.0046
597.8726	-0.0004
598.0635	-0.0056
598.2544	-0.0017
598.4453	-0.0038
598.6362	-0.0027
598.827	-0.0052
599.0179	0.0021
599.2087	-0.0041
599.3995	-0.0016
599.5903	-0.0007
599.7811	-0.0006
599.9718	-0.0053
600.1626	-0.001
600.3533	-0.0108
600.544	-0.0007
600.7347	-0.0008
600.9254	-0.0013
601.116	-0.0081
601.3067	-0.004
601.4973	-0.0046
601.6879	0.003
601.8785	-0.003
602.0691	-0.0009
602.2596	0.0018
602.4502	0.0006
602.6407	0.0007
602.8312	-0.001
603.0217	-0.0085
603.2122	-0.0015
603.4027	0.0043
603.5931	-0.0039
603.7835	-0.0023
603.9739	0.0054
604.1643	0.0029
604.3547	-0.0095
604.5451	0.0061
604.7354	-0.0035
604.9257	-0.0059
605.116	-0.0039
605.3063	0.0029
605.4966	-0.0047
605.6869	-0.0011
605.8771	0.0109
606.0673	0.0028
606.2575	0.004
606.4477	0.0097
606.6379	0.0016
606.8281	0.002
607.0182	-0.0054
607.2083	0.0032
607.3985	-0.0071
607.5885	0.0025
607.7786	0.0012
607.9687	-0.0096
608.1587	0.0049
608.3488	-0.0004
608.5388	0.0025
608.7288	-0.0018
608.9187	0.0045
609.1087	-0.0029
609.2986	-0.0041
609.4886	-0.0016
609.6785	-0.0009
609.8684	-0.0026
610.0582	-0.0023
610.2481	-0.0016
610.4379	0.0022
610.6278	-0.0044
610.8176	-0.0046
611.0074	-0.007
611.1971	-0.0077
611.3869	-0.0032
611.5766	-0.0073
611.7664	0.0021
611.9561	0.0003
612.1458	0.0036
612.3354	-0.0098
612.5251	0
612.7147	0.0002
612.9044	0.0028
613.094	-0.0115
613.2836	-0.0014
613.4731	0.0009
613.6627	-0.0103
613.8522	-0.0048
614.0417	-0.0013
614.2313	-0.0009
614.4207	-0.0032
614.6102	-0.0007
614.7997	0.0015
614.9891	-0.0026
615.1785	-0.0025
615.3679	-0.0005
615.5573	0.0042
615.7467	0.0008
615.9361	-0.0038
616.1254	0.0007
616.3147	-0.0001
616.504	0.0098
616.6933	-0.0013
616.8826	0.0057
617.0718	0.0044
617.2611	0.0003
617.4503	-0.0052
617.6395	-0.0042
617.8287	-0.0062
618.0179	0.0007
618.207	0.0106
618.3961	-0.0031
618.5853	-0.0021
618.7744	0.0039
618.9634	0.0066
619.1525	-0.0021
619.3416	-0.0011
619.5306	-0.0006
619.7196	-0.0023
619.9086	-0.0091
620.0976	0.0002
620.2866	-0.0073
620.4755	-0.0059
620.6645	0.0016
620.8534	0.0088
621.0423	0.0034
621.2312	0.007
621.42	0.003
621.6089	-0.0061
621.7977	0.0061
621.9865	-0.0039
622.1753	0.0034
622.3641	-0.0062
622.5529	0.0029
622.7416	0.0056
622.9303	-0.0038
623.1191	0.0047
623.3078	-0.0076
623.4964	0.0031
623.6851	-0.0026
623.8737	-0.0111
624.0624	-0.0026
624.251	0.0018
624.4396	-0.0068
624.6282	-0.0074
624.8167	-0.0041
625.0053	0.0028
625.1938	0.0027
625.3823	0.0061
625.5708	0.003
625.7593	-0.0046
625.9477	-0.0021
626.1362	-0.0078
626.3246	-0.0038
626.513	0.0106
626.7014	0.0047
626.8898	-0.0033
627.0781	-0.0079
627.2665	-0.0027
627.4548	-0.0006
627.6431	0.0004
627.8314	0.0015
628.0197	0.0034
628.2079	-0.0113
628.3962	-0.009
628.5844	0.0022
628.7726	0.0065
628.9608	0.0044
629.1489	0.0036
629.3371	0.0054
629.5252	-0.0004
629.7134	0.0072
629.9015	-0.0013
630.0895	0.0022
630.2776	0.0026
630.4657	-0.0047
630.6537	-0.004
630.8417	-0.0057
631.0297	-0.0058
631.2177	0.0046
631.4057	-0.0108
631.5936	-0.0003
631.7815	0.0021
631.9695	-0.0008
632.1574	0.0015
632.3452	0.0074
632.5331	0.0053
632.7209	-0.0017
632.9088	0.0042
633.0966	0.0053
633.2844	-0.0045
633.4722	0.0045
633.6599	0.0027
633.8477	0.0039
634.0354	0.0027
634.2231	-0.0095
634.4108	0.0005
634.5985	0.0019
634.7861	0.0015
634.9738	-0.0021
635.1614	-0.0012
635.349	0.0069
635.5366	-0.0062
635.7242	0.0062
635.9117	0.0079
636.0993	-0.0033
636.2868	-0.0024
636.4743	-0.0039
636.6618	0.0059
636.8492	0.0013
637.0367	-0.0029
637.2241	0.0046
637.4115	-0.007
637.5989	-0.0019
637.7863	-0.004
637.9737	0.0048
638.161	0.002
638.3484	-0.0008
638.5357	0.011
638.723	-0.0091
638.9103	0.005
639.0975	-0.0015
639.2848	0.0051
639.472	-0.0014
639.6592	0.007
639.8464	0.0099
640.0336	0.0041
640.2208	-0.0049
640.4079	0.0015
640.595	0.0035
640.7821	0.0093
640.9692	0.0021
641.1563	0.0054
641.3434	0.008
641.5304	0
641.7174	0.0065
641.9044	0.0046
642.0914	-0.0016
642.2784	0.0085
642.4653	0.0076
642.6523	0.0087
642.8392	0.0052
643.0261	0.0093
643.213	0.0056
643.3999	-0.0011
643.5867	-0.0018
643.7735	0.0015
643.9604	-0.0009
644.1472	0.0002
644.3339	0.0038
644.5207	-0.0056
644.7075	-0.0027
644.8942	0.0082
645.0809	0.0018
645.2676	0.0034
645.4543	-0.0012
645.6409	0.0036
645.8276	-0.0009
646.0142	0.008
646.2008	-0.0053
646.3874	-0.0015
646.574	0.0029
646.7605	-0.0043
646.9471	-0.0091
647.1336	0.0038
647.3201	0.004
647.5066	-0.0072
647.6931	0.0021
647.8795	0.0014
648.0659	0.007
648.2524	0.004
648.4388	-0.0032
648.6252	-0.0011
648.8115	0.0006
648.9979	-0.0027
649.1842	0.0037
649.3705	-0.0041
649.5568	-0.0004
649.7431	0.0007
649.9294	0.0025
650.1156	0.0086
650.3018	-0.0064
650.488	0.0044
650.6742	0.0059
650.8604	-0.0034
651.0466	-0.0051
651.2327	-0.0039
651.4188	-0.0009
651.6049	-0.0047
651.791	-0.0081
651.9771	0.0046
652.1632	0.0064
652.3492	-0.0027
652.5352	-0.0086
652.7212	-0.0037
652.9072	0.0028
653.0932	-0.0017
653.2791	-0.0009
653.465	-0.0073
653.651	-0.002
653.8369	-0.0005
654.0227	0.0038
654.2086	0.0075
654.3944	0.0012
654.5803	0.0001
654.7661	-0.0017
654.9519	-0.0051
655.1377	-0.0049
655.3234	-0.0058
655.5092	-0.0051
655.6949	-0.0089
655.8806	-0.0084
656.0663	-0.0008
656.2519	-0
656.4376	-0.0017
656.6232	0.0034
656.8088	-0.0004
656.9945	-0.0009
657.18	-0.0003
657.3656	0.0042
657.5511	-0.0051
657.7367	-0.0117
657.9222	0.0049
658.1077	-0.0016
658.2932	0.0009
658.4786	-0.006
658.6641	-0.0099
658.8495	0.0001
659.0349	0.0012
659.2203	-0.0013
659.4057	0.0006
659.591	-0.0012
659.7764	-0.001
659.9617	-0.0015
660.147	-0.0008
660.3323	0.0049
660.5176	0.0091
660.7028	0.0059
660.888	0.0007
661.0733	-0.0056
661.2585	-0.0058
661.4436	-0.0057
661.6288	-0.0041
661.8139	-0.0009
661.9991	0.0015
662.1842	-0.0033
662.3693	-0.0002
662.5544	0.0036
662.7394	0.0019
662.9245	0.002
663.1095	0.0029
663.2945	-0.0008
663.4795	-0.0006
663.6644	0.0048
663.8494	-0.0009
664.0343	0.0006
664.2193	-0.0034
664.4042	-0.0033
664.589	-0.0044
664.7739	-0.0078
664.9587	-0.0087
665.1436	-0.003
665.3284	-0.0015
665.5132	-0.0108
665.698	-0.0019
665.8827	0.0016
666.0675	-0.0006
666.2522	-0.0047
666.4369	-0.0054
666.6216	0.0022
666.8063	-0.0036
666.9909	-0.005
667.1756	-0.0053
667.3602	0.0033
667.5448	-0.0026
667.7294	0.0104
667.9139	-0.0001
668.0985	0.0114
668.283	-0.0012
668.4675	-0.0011
668.652	-0.0023
668.8365	-0.001
669.0209	0.0068
669.2054	0.0065
669.3898	-0.0012
669.5742	0.0028
669.7586	0.0011
669.943	0.0066
670.1273	0.0022
670.3117	0.0057
670.496	0.0001
670.6803	0.0091
670.8646	0.0013
671.0488	-0.0052
671.2331	0.0049
671.4173	0.0064
671.6015	0.0005
671.7857	0.0014
671.9699	0.0018
672.1541	0.0048
672.3382	0.0038
672.5223	0.004
672.7064	0.0031
672.8905	0.0069
673.0746	-0.0006
673.2587	-0.0065
673.4427	0.0038
673.6267	0.006
673.8107	0.0136
673.9947	0.0014
674.1787	0.0016
674.3626	-0.009
674.5465	0.0031
674.7304	0.0044
674.9143	0.0079
675.0982	0.0118
675.2821	-0.0033
675.4659	0.0073
675.6497	0.0001
675.8335	-0.0004
676.0173	0.0014
676.2011	-0.0052
676.3849	0.0002
676.5686	-0.0092
676.7523	0.0008
676.936	-0.0079
677.1197	-0.004
677.3034	-0
677.487	0.0009
677.6706	-0.0029
677.8542	-0.0022
678.0378	-0.0018
678.2214	-0.0015
678.405	-0.0016
678.5885	-0.0019
678.772	0.0012
678.9555	-0.002
679.139	0.0003
679.3225	0.0045
679.5059	-0.0008
679.6894	-0.0046
679.8728	-0.0021
680.0562	-0.0055
680.2395	-0.0021
680.4229	-0.0058
680.6062	0.0033
680.7896	0.0032
680.9729	-0.0028
681.1562	0.0002
681.3394	0.0038
681.5227	-0.0132
681.7059	0.001
681.8891	0.0043
682.0723	0.0085
682.2555	0.0042
682.4387	-0.006
682.6218	-0.0056
682.805	0.0059
682.9881	-0.0031
683.1712	-0.0029
683.3542	-0.0079
683.5373	0.0009
683.7203	-0.0109
683.9034	0.0001
684.0864	-0.0069
684.2694	-0.0019
684.4523	0.0017
684.6353	-0.0025
684.8182	0.0022
685.0011	-0.0059
685.184	0.006
685.3669	-0.0045
685.5498	0.0005
685.7326	0.0016
685.9154	-0.01
686.0982	0.0087
686.281	0.0076
686.4638	0.0035
686.6465	-0.0024
686.8293	-0.004
687.012	0.0044
687.1947	-0.0106
687.3774	-0.0006
687.56	-0.0053
687.7427	0.0003
687.9253	0.0004
688.1079	-0.0043
688.2905	0.0013
688.4731	0.0006
688.6556	-0.006
688.8382	-0.0012
689.0207	-0.0011
689.2032	-0.0088
689.3857	-0.0091
689.5681	-0.0082
689.7506	-0.0097
689.933	-0.0063
690.1154	-0.002
690.2978	-0.0062
690.4802	0.0012
690.6626	-0.0145
690.8449	-0.0113
691.0272	0.0025
691.2095	-0.0051
691.3918	-0.0103
691.5741	-0
691.7563	-0.0029
691.9386	-0.0021
692.1208	-0.0081
692.303	0.0044
692.4852	-0.0045
692.6673	0.0012
692.8495	-0.0031
693.0316	-0.0078
693.2137	-0.0005
693.3958	-0.0033
693.5778	-0.0067
693.7599	0.002
693.9419	0.002
694.1239	-0.0087
694.3059	-0.0075
694.4879	0.0029
694.6699	0.0053
694.8518	0.0072
695.0337	0.0002
695.2157	0.0044
695.3975	-0.0027
695.5794	-0.0001
695.7613	-0.0042
695.9431	-0.0054
696.1249	-0.0004
696.3067	-0.001
696.4885	0.0074
696.6703	-0.0145
696.852	-0.0033
697.0337	-0.0027
697.2154	0.0027
697.3971	0.0038
697.5788	0.0057
697.7605	-0.007
697.9421	-0.0014
698.1237	-0.0044
698.3053	0.0012
698.4869	-0.0032
698.6685	-0.0085
698.85	0.002
699.0315	0.0037
699.213	-0.0029
699.3945	0.0011
699.576	0.0041
699.7575	0.0055
699.9389	0.0054
700.1203	-0.0065
700.3017	-0.0108
700.4831	-0.0112
700.6645	-0.0052
700.8458	0.009
701.0271	-0.0029
701.2084	-0.0009
701.3897	0.002
701.571	0.0072
701.7523	-0.0017
701.9335	0.0068
702.1147	-0.0082
702.2959	0.0018
702.4771	-0.0009
702.6583	0.0049
702.8394	-0.0112
703.0205	-0.0066
703.2016	-0.0131
703.3827	0.0011
703.5638	0.0074
703.7449	0.0054
703.9259	0.0134
704.1069	-0.0024
704.2879	-0.0008
704.4689	0.0033
704.6499	-0.0029
704.8308	0.0007
705.0117	0.0006
705.1927	-0.0009
705.3735	-0.0008
705.5544	0.011
705.7353	0.001
705.9161	-0.0065
706.0969	-0.0082
706.2777	-0.0008
706.4585	-0.0011
706.6393	-0.0027
706.82	0.0034
707.0007	-0.0013
707.1815	-0.0019
707.3621	0.0066
707.5428	0.0019
707.7235	-0.001
707.9041	0.0021
708.0847	-0.0096
708.2653	-0.0083
708.4459	-0.0065
708.6265	0.0019
708.807	-0.0031
708.9875	-0.0047
709.168	-0.0041
709.3485	-0.0082
709.529	0.0003
709.7095	-0.0106
709.8899	0.0024
710.0703	-0.0133
710.2507	-0
710.4311	-0.0016
710.6115	-0.01
710.7918	-0.0082
710.9721	-0.004
711.1524	-0.0045
711.3327	-0.0033
711.513	0.0011
711.6932	0.0007
711.8735	0.0149
712.0537	0.0099
712.2339	0.0024
712.4141	-0.0105
712.5942	-0.0044
712.7744	-0.0015
712.9545	-0.0097
713.1346	-0.0098
713.3147	-0.0042
713.4947	-0.0116
713.6748	-0.0099
713.8548	-0.009
714.0348	-0.0044
714.2148	0.0016
714.3948	-0.0018
714.5748	-0.009
714.7547	-0.0049
714.9346	-0.0016
715.1145	-0.0065
715.2944	0.0004
715.4743	-0.0014
715.6541	-0.0041
715.834	0.0038
716.0138	-0.003
716.1936	-0.0191
716.3733	-0.0086
716.5531	0.0031
716.7328	-0.0017
716.9126	-0.0017
717.0923	0.0071
717.2719	-0.0007
717.4516	0.0087
717.6312	0.0019
717.8109	0.002
717.9905	-0.0054
718.1701	-0.0058
718.3496	-0.0124
718.5292	0.0011
718.7087	-0.0046
718.8882	0.0034
719.0677	0.0059
719.2472	-0.0003
719.4267	-0.0026
719.6061	-0.0017
719.7856	0.0081
719.965	0.0077
720.1443	-0.007
720.3237	0.0096
720.5031	0.0042
720.6824	0.0039
720.8617	0.0006
721.041	0.0011
721.2203	0.0132
721.3995	-0.0005
721.5788	-0.0066
721.758	0.0007
721.9372	0.0001
722.1164	-0.0046
722.2956	-0.0019
722.4747	0.0024
722.6538	0.0047
722.8329	0.0018
723.012	-0.001
723.1911	0.0004
723.3702	-0.0011
723.5492	0.0017
723.7282	-0.0056
723.9072	-0.0078
724.0862	-0.0043
724.2652	-0.0033
724.4441	-0.0026
724.623	-0.004
724.8019	-0.0048
724.9808	0.0006
725.1597	-0.0116
725.3385	0.0001
725.5174	-0.0069
725.6962	0.0059
725.875	-0.0045
726.0538	0.0042
726.2325	-0.0054
726.4112	0.0027
726.59	-0.002
726.7687	-0.0043
726.9474	0.0109
727.126	0.0041
727.3047	-0.0005
727.4833	0.0021
727.6619	-0.0021
727.8405	-0.0026
728.0191	-0.0041
728.1976	-0.0049
728.3762	0.0034
728.5547	-0.0004
728.7332	-0.0191
728.9116	-0.0009
729.0901	0.0023
729.2686	-0.0079
729.447	-0.0022
729.6254	-0.0004
729.8038	0.0003
729.9821	-0.0131
730.1605	-0.0051
730.3388	-0.0017
730.5171	-0.0009
730.6954	-0.0031
730.8737	0.004
731.0519	0.0067
731.2302	-0.0025
731.4084	0.0026
731.5866	0.0054
731.7648	-0.0024
731.9429	-0.0015
732.1211	-0.0071
732.2992	-0.0067
732.4773	-0.0157
732.6554	-0.0059
732.8335	0.0021
733.0115	-0.0085
733.1896	0.0113
733.3676	-0.0178
733.5456	-0.0068
733.7235	0.0055
733.9015	-0.0056
734.0794	-0.0079
734.2574	0.0023
734.4353	-0.0004
734.6131	0.001
734.791	-0.0057
734.9689	-0.0072
735.1467	-0.0065
735.3245	-0.0098
735.5023	-0.0041
735.68	-0.0106
735.8578	0.0064
736.0355	-0.014
736.2132	-0.0016
736.3909	-0.0064
736.5686	-0.0079
736.7463	-0
736.9239	-0.005
737.1015	-0.0061
737.2791	0.0127
737.4567	-0.0054
737.6343	0.0027
737.8118	-0.0007
737.9894	0.0057
738.1669	-0.02
738.3444	-0.0035
738.5218	0.0085
738.6993	-0.0034
738.8767	-0.0035
739.0541	0.0033
739.2315	-0.0105
739.4089	-0.0084
739.5863	0.0073
739.7636	-0.0061
739.9409	0.0006
740.1182	0.0077
740.2955	0.0003
740.4728	-0.0034
740.65	0.0008
740.8272	-0.0019
741.0044	-0.0149
741.1816	-0.0007
741.3588	-0.0035
741.5359	-0.0046
741.7131	-0.0106
741.8902	-0.0087
742.0673	-0.0131
742.2444	-0.0105
742.4214	-0.01
742.5985	-0.0123
742.7755	-0.0078
742.9525	-0.021
743.1295	-0.003
743.3064	-0.0041
743.4834	-0.0049
743.6603	-0.0065
743.8372	-0.0141
744.0141	-0.0055
744.191	-0.003
744.3678	-0.0054
744.5446	-0.0037
744.7215	0.0074
744.8982	-0.0095
745.075	-0.0247
745.2518	-0.0028
745.4285	-0.0041
745.6052	-0.0075
745.7819	-0.0067
745.9586	-0.007
746.1353	-0.0039
746.3119	-0.0041
746.4885	-0.0122
746.6651	-0.0089
746.8417	-0.0012
747.0183	-0.0065
747.1948	-0.0101
747.3714	0.0067
747.5479	-0.0036
747.7244	-0.0064
747.9008	0.0063
748.0773	0.0012
748.2537	0.0032
748.4301	-0.0091
748.6065	0.0044
748.7829	0.0038
748.9593	-0.0068
749.1356	-0
749.3119	-0.0013
749.4882	-0.0098
749.6645	0.0021
749.8408	-0.0075
750.017	-0.011
750.1933	-0.0026
750.3695	-0.0062
750.5457	0.0012
750.7218	-0.0012
750.898	0.0033
751.0741	-0.0119
751.2502	-0.0012
751.4263	-0.0118
751.6024	-0.0066
751.7784	0.0013
751.9545	-0.0124
752.1305	-0.0049
752.3065	0.0034
752.4825	-0.001
752.6584	-0.0092
752.8344	0.0022
753.0103	-0.0136
753.1862	-0.0132
753.3621	-0.0046
753.5379	-0.0056
753.7138	0.0048
753.8896	0.0045
754.0654	-0.0031
754.2412	0.008
754.417	0.0082
754.5927	-0.0071
754.7685	-0.0014
754.9442	0.0046
755.1199	0.0114
755.2956	-0.0015
755.4712	0.0109
755.6469	0.0053
755.8225	-0.0038
755.9981	-0.0009
756.1736	0.0064
756.3492	0.002
756.5248	-0.0049
756.7003	-0.0022
756.8758	0.0055
757.0513	-0.0101
757.2267	-0.0012
757.4022	0.0078
757.5776	-0.0106
757.753	-0.0055
757.9284	0.003
758.1038	0.0013
758.2791	-0.0001
758.4545	-0.0134
758.6298	0.01
758.8051	-0.0048
758.9803	-0.0085
759.1556	-0.0026
759.3308	-0.0136
759.506	0.0087
759.6812	-0.0013
759.8564	0.004
760.0316	0.0081
760.2067	0.0057
760.3819	-0.0009
760.557	0.0146
760.732	0.0096
760.9071	-0.0084
761.0821	0.0049
761.2572	0.0142
761.4322	0.0025
761.6072	0.0115
761.7821	0.0022
761.9571	0.0048
762.132	0.005
762.3069	-0.0182
762.4818	-0.0095
762.6567	0.0011
762.8316	0.0064
763.0064	-0.0021
763.1812	0.0032
763.356	-0.0148
763.5308	0.0041
763.7055	-0.006
763.8803	-0.0037
764.055	-0.0057
764.2297	-0.0044
764.4044	-0.0095
764.579	-0.0016
764.7537	-0.0104
764.9283	0.0055
765.1029	-0.0101
765.2775	-0.0006
765.4521	-0.0039
765.6266	-0.0095
765.8011	-0.0077
765.9756	-0.0005
766.1501	0.0083
766.3246	-0.0016
766.4991	-0.0075
766.6735	0.0015
766.8479	0.0001
767.0223	0.0095
767.1967	-0.005
767.371	0.0037
767.5454	-0.0148
767.7197	0.0061
767.894	-0.0027
768.0683	-0.011
768.2425	-0.008
768.4168	-0.0036
768.591	0.004
768.7652	0.0002
768.9394	-0.0066
769.1135	0.0052
769.2877	0.0008
769.4618	0.0061
769.6359	0.003
769.81	0.0099
769.984	0.0126
770.1581	-0.0031
770.3321	0.0125
770.5061	-0.0005
770.6801	-0.0062
770.8541	-0.0078
771.028	0.0066
771.202	-0.0073
771.3759	0.0142
771.5498	-0.0051
771.7236	-0.0062
771.8975	-0.0033
772.0713	0.0016
772.2451	-0.0027
772.4189	0.0108
772.5927	0.0109
772.7665	0.0047
772.9402	-0.0026
773.1139	0.0067
773.2876	-0.0092
773.4613	0.0031
773.635	0.0024
773.8086	-0.0059
773.9822	0.0017
774.1558	-0.0027
774.3294	-0.0033
774.503	0.0056
774.6765	-0.0015
774.8501	0.0044
775.0236	-0.0032
775.1971	0.0164
775.3705	-0.0161
775.544	-0
775.7174	-0.0068
775.8908	-0.008
776.0642	-0.014
776.2376	0.0021
776.4109	-0.021
776.5843	-0.0047
776.7576	0.0088
776.9309	0.0067
777.1041	0.0087
777.2774	0.0169
777.4506	-0.0086
777.6238	-0.0025
777.797	0.0021
777.9702	-0
778.1434	0.0039
778.3165	-0.0143
778.4896	-0.0027
778.6627	-0.0011
778.8358	-0.0017
779.0089	-0.0098
779.1819	-0.005
779.3549	0.0043
779.5279	0.0098
779.7009	-0.0067
779.8739	0.0073
780.0468	0.004
780.2197	0.0111
780.3926	-0.0062
780.5655	0.0014
780.7384	-0.0009
780.9112	0.0047
781.0841	-0.0099
781.2569	0.0047
781.4297	0.0014
781.6024	0.0097
781.7752	0.0041
781.9479	0.0105
782.1206	0.0036
782.2933	-0.0079
782.466	-0.0023
782.6386	-0.0004
782.8113	-0.0045
782.9839	-0.0052
783.1565	0.0051
783.329	0.0032
783.5016	0.0032
783.6741	0.001
783.8466	-0.0183
784.0191	0.0123
784.1916	0.0005
784.3641	-0.0047
784.5365	0.0029
784.7089	-0.0098
784.8813	0.0004
785.0537	-0.0072
785.2261	-0.0104
785.3984	-0.0247
785.5707	-0.0023
785.743	-0.015
785.9153	-0.006
786.0876	-0.0011
786.2598	-0.0167
786.432	0.0045
786.6042	0.0012
786.7764	-0.0022
786.9486	0.0025
787.1207	-0.0131
787.2928	-0.0062
787.4649	-0.0013
787.637	0.0011
787.8091	-0.0113
787.9811	-0.0074
788.1532	-0.0153
788.3252	0.0005
788.4972	-0.0098
788.6691	-0.0043
788.8411	0.0047
789.013	-0.0139
789.1849	-0.0041
789.3568	0.0001
789.5287	-0.0005
789.7005	-0.0063
789.8723	-0.0026
790.0442	0.005
790.2159	-0.0011
790.3877	-0.0011
790.5595	-0.0024
790.7312	0.0033
790.9029	-0.0085
791.0746	-0.0117
791.2463	-0.0002
791.4179	-0.0073
791.5896	-0.0125
791.7612	-0.0051
791.9328	0.0015
792.1044	-0.0136
792.2759	-0.0319
792.4474	-0.0126
792.619	0.0135
792.7905	0.0064
792.9619	-0.0054
793.1334	-0.0017
793.3048	0.0134
793.4762	0.0009
793.6476	0.0072
793.819	-0.0108
793.9904	0.0077
794.1617	-0.0118
794.333	-0.012
794.5043	-0.0062
794.6756	0.0058
794.8469	-0.0091
795.0181	-0.0054
795.1893	-0.0091
795.3605	0.0111
795.5317	-0.0117
795.7029	-0.0139
795.874	0.0054
796.0452	-0.0159
796.2163	-0.0114
796.3873	-0.0009
796.5584	0.0022
796.7294	-0.0081
796.9005	0.005
797.0715	-0.004
797.2425	-0.0133
797.4134	-0.0082
797.5844	-0.0088
797.7553	-0.0081
797.9262	-0.0123
798.0971	-0.0171
798.2679	-0.0023
798.4388	-0.0289
798.6096	-0.0163
798.7804	-0.0023
798.9512	-0.0188
799.122	-0.009
799.2927	-0.0033
799.4635	0.0112
799.6342	-0.0328
799.8049	0.0013
799.9755	0.0023
800.1462	-0.0075
800.3168	0.0165
800.4874	0.0054
800.658	0.0081
800.8286	0.0178
800.9991	-0.002
801.1696	0.0074
801.3402	0.0085
801.5106	0.0134
801.6811	0.0021
801.8516	0.0231
802.022	0.0014
802.1924	0.0045
802.3628	0.001
802.5332	0.0124
802.7035	0.0227
802.8739	0.007
803.0442	-0.0041
803.2145	-0.0013
803.3847	-0.0205
803.555	-0.003
803.7252	-0.015
803.8954	-0.0223
804.0656	-0.0164
804.2358	-0.0061
804.4059	-0.0003
804.5761	-0.0157
804.7462	-0.0109
804.9163	-0.0104
805.0864	-0.0292
805.2564	-0.0131
805.4264	0.0019
805.5965	-0.0284
805.7665	0.0095
805.9364	0.0011
806.1064	0.0131
806.2763	0.004
806.4462	0.0104
806.6161	0.0004
806.786	-0.0007
806.9559	-0.0189
807.1257	0.0086
807.2955	-0.0149
807.4653	-0.0084
807.6351	-0.0111
807.8048	-0.01
807.9746	-0.0031
808.1443	0.0022
808.314	0.0007
808.4837	-0.0117
808.6533	-0.0134
808.8229	0.0018
808.9926	-0.011
809.1622	0.0069
809.3317	-0.0158
809.5013	-0.0072
809.6708	0.0029
809.8403	-0.0091
810.0098	-0.0028
810.1793	-0.0101
810.3488	-0.0011
810.5182	-0.0255
810.6876	0.002
810.857	-0.0237
811.0264	0.0054
811.1958	0.0093
811.3651	0.0122
811.5344	0.0036
811.7037	-0.0058
811.873	-0.0306
812.0422	-0.0042
812.2115	-0.003
812.3807	-0.0242
812.5499	-0.0014
812.7191	0.0034
812.8882	-0.02
813.0574	-0.0271
813.2265	-0.0218
813.3956	0.0024
813.5646	-0.0077
813.7337	-0.0076
813.9027	0.0021
814.0718	0.0268
814.2407	-0.0088
814.4097	-0.0133
814.5787	-0.0175
814.7476	-0.0074
814.9165	-0.01
815.0854	-0.0126
815.2543	-0.0035
815.4232	-0.0043
815.592	0.0101
815.7608	-0.018
815.9296	0.0231
816.0984	0.0029
816.2671	0.0014
816.4359	-0.0114
816.6046	-0.009
816.7733	-0.0232
816.942	-0.0348
817.1106	-0.0134
817.2793	-0.0078
817.4479	-0.0001
817.6165	-0.0046
817.785	-0.0122
817.9536	-0.0202
818.1221	-0.0189
818.2906	-0.0039
818.4591	-0.0114
818.6276	-0.0238
818.7961	0.0006
818.9645	0.0032
819.1329	-0.0021
819.3013	0.02
819.4697	-0.0182
819.638	-0.0198
819.8064	-0.0011
819.9747	-0.0101
820.143	-0.0222
820.3113	-0.0069
820.4795	0.0087
820.6477	-0.0066
820.816	0.0295
820.9842	0.0068
821.1523	-0.0283
821.3205	-0.0316
821.4886	-0.0212
821.6567	0.0053
821.8248	0.0237
821.9929	0.0037
822.1609	-0.0061
822.329	0.0071
822.497	0.0063
822.665	0.0043
822.833	-0.007
823.0009	-0.0061
823.1688	0.006
823.3367	-0.0035
823.5046	-0.0096
823.6725	-0.0085
823.8404	-0.0064
824.0082	0.0094
824.176	0.0292
824.3438	0.0153
824.5116	-0.0129
824.6793	0.009
824.847	-0.025
825.0147	-0.0242
825.1824	0.0036
825.3501	0.0168
825.5177	-0.0171
825.6854	-0.0215
825.853	0.0011
826.0206	-0.0423
826.1881	0.0117
826.3557	-0.0209
826.5232	0.0203
826.6907	-0.0169
826.8582	-0.0042
827.0257	-0.0368
827.1931	-0.0059
827.3605	-0.0376
827.528	-0.0116
827.6953	-0.0435
827.8627	-0.0061
828.03	0.0041
828.1974	-0.0543
828.3647	-0.066
828.532	0.0058
828.6992	0.0033
828.8665	-0.0082
829.0337	0.0101
829.2009	-0.0105
829.3681	-0.0287
829.5352	0.0032
829.7024	-0.0107
829.8695	-0.0418
830.0366	0.0469
830.2037	-0.0077
830.3707	0.0033
830.5378	-0.0065
830.7048	0.0274
830.8718	0.0037
831.0388	-0.0375
831.2057	-0.0012
831.3727	0.019
831.5396	-0.0308
831.7065	0.0086
831.8734	0.0175
832.0402	-0.0148
832.2071	-0.0057
832.3739	-0.0292
832.5407	-0.024
832.7075	-0.0338
832.8742	-0.0111
833.041	0.0018
833.2077	0.0179
833.3744	0.0161
833.541	0.0047
833.7077	0.0017
833.8743	-0.0047
834.0409	-0.014
834.2075	-0.0064
834.3741	0.0023
834.5407	0.0037
834.7072	-0.0343
834.8737	-0.046
835.0402	-0.0062
835.2067	0.0023
835.3731	0.0139
835.5395	0.0181
835.706	-0.0021
835.8723	-0.0246
836.0387	0.0094
836.2051	0.0012
836.3714	-0.0043
836.5377	-0.019
836.704	-0.0197
836.8703	-0.0235
837.0365	-0.0096
837.2027	-0.0315
837.3689	-0.0108
837.5351	-0.0002
837.7013	-0.0242
837.8674	-0.0282
838.0335	-0.0062
838.1997	-0.0185
838.3657	-0.0259
838.5318	-0.0038
838.6978	0.0445
838.8639	-0.0031
839.0299	-0.0154
839.1958	0.0006
839.3618	0.0041
839.5277	0.0137
839.6937	0.0323
839.8596	-0.0308
840.0254	0.0297
840.1913	-0.018
840.3571	0.0051
840.523	0.0027
840.6888	-0.0589
840.8545	-0.0398
841.0203	0.0095
841.186	0.0006
841.3517	-0.0073
841.5174	0.0007
841.6831	-0.0086
841.8488	0.0392
842.0144	-0.0137
842.18	0.0234
842.3456	-0.0113
842.5112	-0.0554
842.6767	-0.0441
842.8422	-0.0729
843.0077	-0.0624
843.1732	-0.0072
843.3387	-0.0148
843.5042	-0.0672
843.6696	-0.0157
843.835	-0.0453
844.0004	0.0166
844.1657	0.014
844.3311	-0.0595
844.4964	-0.0439
844.6617	-0.0134
844.827	-0.0568
844.9923	-0.006
845.1575	0.0142
845.3227	0.002
845.4879	-0.0025
845.6531	-0.0212
845.8183	-0.0489
845.9834	-0.0174
846.1485	-0.0078
846.3136	-0.0842
846.4787	-0.1024
846.6438	0.0821
846.8088	-0.0763
846.9738	-0.1457
847.1388	-0.0445
847.3038	-0.1011
847.4687	-0.1185
847.6337	-0.0243
847.7986	0.0037
847.9635	-0.1102
848.1284	0.0457
848.2932	0.035
848.458	-0.0088
848.6228	0.0253
848.7876	-0.0059
848.9524	-0.0106
849.1172	-0.0786
849.2819	-0.0059
849.4466	-0.1021
849.6113	-0.1143
849.7759	-0.0295
849.9406	0.0065
850.1052	-0.0104
850.2698	-0.0767
850.4344	-0.0726
850.599	-0.0682
850.7635	0.0837
850.928	-0.0871
851.0925	-0.0612
851.257	-0.0212
851.4215	0.0244
851.5859	0.0173
851.7503	0.0675
851.9147	0.032
852.0791	-0.0944
852.2434	0.011
852.4078	0.0096
852.5721	0.0563
852.7364	-0.0375
852.9007	0.03
853.0649	-0.029
853.2291	-0.1003
853.3934	-0.0936
853.5575	-0.0638
853.7217	-0.0526
853.8859	-0.0654
854.05	-0.0952
854.2141	-0.0184
854.3782	-0.0228
854.5423	-0.0809
854.7063	0.1083
854.8703	-0.0718
855.0343	-0.0311
855.1983	-0.2062
855.3623	0.1293
855.5262	0.0132
855.6901	-0.1682
855.854	0.0498
856.0179	0.0017
856.1818	0.093
856.3456	-0.1509
856.5094	-0.1387
856.6732	-0.1616
856.837	-0.0491
857.0008	0.0563
857.1645	-0.0521
857.3282	-0.2845
857.4919	-0.0255
857.6556	-0.0927
857.8192	-0.0704
857.9828	-0.0412
858.1465	0.1144
858.31	-0.1347
858.4736	-0.02
858.6372	-0.1087
858.8007	-0.1193
858.9642	-0.1871
859.1277	-0.1002
859.2911	0.2544
859.4546	0.1089
859.618	-0.4051
859.7814	-0.0941
859.9448	-0.0501
860.1081	-0.0066
860.2715	0.2265
860.4348	-0.0289
860.5981	-0.0329
860.7614	-0.0191
860.9246	-0.128
861.0879	-0.0416
861.2511	0.0085
861.4143	-0.4401
861.5774	0.3879
861.7406	-0.2565
861.9037	-0.0204
862.0668	-0.2211
862.2299	-0.1367
862.393	-0.2417
862.556	0.0243
862.7191	-0.4402
862.8821	-0.4673
863.0451	0.4767
863.208	0.2155
863.371	-0.1537
863.5339	-0.3015
863.6968	0.1038
863.8597	-0.1849
864.0225	0.0045
864.1854	0.146
864.3482	-0.1528
864.511	-0.0506
864.6737	0.1012
864.8365	0.3951
864.9992	-0.432
865.1619	-0.2893
865.3246	0.0576
865.4873	0.0678
865.65	-0.4335
865.8126	0.0059
865.9752	0.1845
866.1378	-0.3681
866.3004	-0.0431
866.4629	0.0485
866.6254	-0.0771
866.7879	-0.2451
866.9504	-0.403
867.1129	-0
867.2753	0.0422
867.4377	-0.1234
867.6001	-0.2326
867.7625	-0.0722
867.9249	-0.6372
868.0872	-0.1654
868.2495	0.0493
868.4118	-0.3017
868.5741	-0.4388
868.7363	-0
868.8986	-0.0289
869.0608	-0.2059
869.223	-0.0207
869.3851	-0.3003
869.5473	-0
869.7094	0.5848
869.8715	0.2779
870.0336	-0
870.1957	-0.4464
870.3577	-0.6704
870.5197	-0.2461
870.6817	-0.062
870.8437	-0.2557
871.0057	-0
871.1676	-0.3028
871.3295	-0.3784
871.4914	0.9183
871.6533	-0.4768
871.8151	-0.3406
871.977	-0
872.1388	-0
872.3006	-0
872.4623	-0
872.6241	0.0815
872.7858	-0
872.9475	-0.0524
873.1092	-0.1129
873.2709	-0
873.4325	-0.2204
873.5941	-0.2173
873.7557	0.1128
873.9173	-0
874.0789	0.3142
874.2404	-0
874.4019	0.431
874.5634	0.1641
874.7249	-0.198
874.8863	-0.1266
875.0478	1.2097
875.2092	-0
875.3706	-0.0216
875.5319	-0.8481
875.6933	1.5927
875.8546	-0.2006
876.0159	-0
876.1772	0.9056
876.3385	0.4225
876.4997	0.1328
876.6609	-0.2061
876.8221	-0.2788
876.9833	-0
877.1445	-0
877.3056	0.0621
877.4667	0.2608
877.6278	-0
877.7889	-0.5486
877.9499	-0
878.111	-0
878.272	0.0637
878.433	-0
878.5939	-0
878.7549	-0.0374
878.9158	-0.9718
879.0767	-0
879.2376	0.2909
879.3984	0.0604
879.5593	-0
879.7201	0.3703
879.8809	-0.8466
880.0417	-0.4036
880.2024	-0.0384
880.3632	-1.0519
880.5239	0.2907
880.6846	-0
880.8452	-2.3847
881.0059	-0
881.1665	0.5297
881.3271	-0
881.4877	-0.0868
881.6483	0.2493
881.8088	-0.3593
881.9693	-0
882.1298	-0
882.2903	-0
