Data from MonoPyChalIsomerACN10uM410nmA_Absorbance_14-53-24-073.txt Node
Date: Fri Jul 05 14:53:24 BST 2024
User: LASERRRRR
Spectrometer: FLMT03099
Trigger mode: 0
Integration Time (sec): 1.000000E-1
Scans to average: 1
Electric dark correction enabled: true
Nonlinearity correction enabled: false
Boxcar width: 0
XAxis mode: Wavelengths
Number of Pixels in Spectrum: 3648
>>>>>Begin Spectral Data<<<<<
179.3399	-0.2162
179.5586	-0.2162
179.7771	-0.2162
179.9957	1.2986
180.2143	-0
180.4329	0.2105
180.6514	0.2147
180.8699	-0
181.0885	-0.0993
181.307	0.2685
181.5255	-0.3123
181.744	-0
181.9625	-0
182.181	-0.8256
182.3994	0.2068
182.6179	-0.2987
182.8363	0.4686
183.0547	-0.1317
183.2732	0.1392
183.4916	0.15
183.71	0.1348
183.9284	0.0299
184.1467	0.0036
184.3651	-0.099
184.5835	-0.0524
184.8018	0.0655
185.0201	-0.0343
185.2385	-0.1853
185.4568	0.2125
185.6751	0.351
185.8934	0.0539
186.1117	-0.0669
186.3299	0.1292
186.5482	-0.0825
186.7664	-0.1065
186.9847	-0.015
187.2029	-0.0673
187.4211	0.1664
187.6393	0.1051
187.8575	-0.025
188.0757	0.1411
188.2939	0.2581
188.512	-0.1145
188.7302	-0.0077
188.9483	0.2481
189.1665	0.1214
189.3846	-0.161
189.6027	0.0988
189.8208	0.2218
190.0389	0.2075
190.257	0.1254
190.475	0.1062
190.6931	0.2614
190.9111	0.3738
191.1292	0.1677
191.3472	0.332
191.5652	0.3283
191.7832	0.3316
192.0012	0.47
192.2192	0.2571
192.4371	0.4281
192.6551	0.3756
192.873	0.3714
193.091	0.3918
193.3089	0.7576
193.5268	0.2997
193.7447	0.7673
193.9626	0.5111
194.1805	0.5534
194.3984	0.7118
194.6162	0.4466
194.8341	0.4107
195.0519	0.5934
195.2697	0.7572
195.4875	0.6205
195.7054	0.5392
195.9231	0.4617
196.1409	0.5062
196.3587	0.4051
196.5765	0.5759
196.7942	0.6165
197.012	0.4936
197.2297	0.5565
197.4474	0.5518
197.6651	0.4786
197.8828	0.4822
198.1005	0.5682
198.3182	0.6238
198.5358	0.7474
198.7535	0.5405
198.9711	0.6077
199.1888	0.5832
199.4064	0.8299
199.624	0.6162
199.8416	0.5397
200.0592	0.7509
200.2767	0.6827
200.4943	0.6905
200.7119	0.8513
200.9294	0.6015
201.1469	0.6141
201.3645	0.5581
201.582	0.6362
201.7995	0.6598
202.017	0.6497
202.2344	0.6221
202.4519	0.5489
202.6694	0.6378
202.8868	0.6203
203.1042	0.7361
203.3217	0.6557
203.5391	0.6319
203.7565	0.5568
203.9739	0.6423
204.1913	0.5885
204.4086	0.6127
204.626	0.6717
204.8433	0.6396
205.0607	0.625
205.278	0.6712
205.4953	0.5646
205.7126	0.5609
205.9299	0.7254
206.1472	0.7347
206.3644	0.6573
206.5817	0.6674
206.7989	0.7401
207.0162	0.5952
207.2334	0.6569
207.4506	0.6551
207.6678	0.6041
207.885	0.6508
208.1022	0.5663
208.3194	0.6873
208.5365	0.6426
208.7537	0.6438
208.9708	0.5655
209.1879	0.6476
209.405	0.65
209.6222	0.7022
209.8392	0.6834
210.0563	0.5759
210.2734	0.6202
210.4905	0.6028
210.7075	0.6348
210.9245	0.5979
211.1416	0.7603
211.3586	0.5829
211.5756	0.6
211.7926	0.5564
212.0096	0.5768
212.2265	0.5795
212.4435	0.5772
212.6604	0.6099
212.8774	0.5824
213.0943	0.576
213.3112	0.5593
213.5281	0.5186
213.745	0.5136
213.9619	0.5175
214.1788	0.4984
214.3956	0.4348
214.6125	0.4768
214.8293	0.4105
215.0461	0.4654
215.2629	0.4748
215.4798	0.4418
215.6965	0.4234
215.9133	0.3847
216.1301	0.3651
216.3469	0.4293
216.5636	0.4423
216.7803	0.375
216.9971	0.384
217.2138	0.382
217.4305	0.3635
217.6472	0.354
217.8639	0.3833
218.0805	0.3616
218.2972	0.3017
218.5138	0.3193
218.7305	0.3117
218.9471	0.3318
219.1637	0.3106
219.3803	0.304
219.5969	0.2911
219.8135	0.2715
220.0301	0.2766
220.2466	0.2887
220.4632	0.2449
220.6797	0.2288
220.8962	0.2405
221.1127	0.2584
221.3292	0.2574
221.5457	0.2498
221.7622	0.2349
221.9787	0.2761
222.1951	0.22
222.4116	0.2573
222.628	0.2425
222.8444	0.2651
223.0608	0.2485
223.2772	0.2633
223.4936	0.2418
223.71	0.2549
223.9264	0.2613
224.1427	0.2394
224.3591	0.2405
224.5754	0.2479
224.7917	0.2706
225.008	0.2639
225.2243	0.2468
225.4406	0.2781
225.6569	0.2748
225.8732	0.2654
226.0894	0.2644
226.3057	0.2691
226.5219	0.2904
226.7381	0.2716
226.9543	0.3041
227.1705	0.2981
227.3867	0.277
227.6029	0.318
227.8191	0.2875
228.0352	0.3015
228.2513	0.3255
228.4675	0.3174
228.6836	0.3005
228.8997	0.3012
229.1158	0.3175
229.3319	0.3099
229.548	0.3036
229.764	0.3346
229.9801	0.3045
230.1961	0.3226
230.4121	0.3475
230.6282	0.3378
230.8442	0.322
231.0602	0.3754
231.2761	0.3418
231.4921	0.3436
231.7081	0.3352
231.924	0.3269
232.14	0.3502
232.3559	0.3484
232.5718	0.3559
232.7877	0.3524
233.0036	0.3319
233.2195	0.3552
233.4353	0.3492
233.6512	0.3664
233.867	0.3571
234.0829	0.3539
234.2987	0.3519
234.5145	0.3665
234.7303	0.3749
234.9461	0.3864
235.1619	0.3712
235.3776	0.3825
235.5934	0.3919
235.8091	0.3683
236.0249	0.3716
236.2406	0.3802
236.4563	0.3677
236.672	0.3894
236.8877	0.394
237.1034	0.3852
237.319	0.3916
237.5347	0.4015
237.7503	0.3964
237.966	0.4151
238.1816	0.4199
238.3972	0.3907
238.6128	0.3908
238.8284	0.3813
239.0439	0.4219
239.2595	0.4097
239.475	0.4236
239.6906	0.3991
239.9061	0.4011
240.1216	0.4121
240.3371	0.4021
240.5526	0.3996
240.7681	0.3956
240.9836	0.3843
241.199	0.3954
241.4145	0.3999
241.6299	0.3809
241.8453	0.3842
242.0607	0.3739
242.2761	0.363
242.4915	0.3569
242.7069	0.3566
242.9223	0.3424
243.1376	0.3419
243.353	0.3468
243.5683	0.3356
243.7836	0.3301
243.9989	0.315
244.2142	0.301
244.4295	0.3076
244.6448	0.2926
244.86	0.2789
245.0753	0.2935
245.2905	0.2961
245.5057	0.268
245.721	0.2731
245.9362	0.2614
246.1514	0.267
246.3665	0.249
246.5817	0.2343
246.7969	0.25
247.012	0.2317
247.2271	0.2366
247.4423	0.2382
247.6574	0.2428
247.8725	0.2295
248.0876	0.2202
248.3026	0.2142
248.5177	0.2226
248.7328	0.2006
248.9478	0.1893
249.1628	0.2067
249.3779	0.2129
249.5929	0.1971
249.8079	0.2196
250.0228	0.1945
250.2378	0.189
250.4528	0.2015
250.6677	0.1795
250.8827	0.1897
251.0976	0.186
251.3125	0.1885
251.5274	0.1653
251.7423	0.1823
251.9572	0.178
252.172	0.1778
252.3869	0.1641
252.6017	0.1649
252.8166	0.1588
253.0314	0.1675
253.2462	0.1703
253.461	0.1787
253.6758	0.1649
253.8906	0.1767
254.1053	0.166
254.3201	0.1663
254.5348	0.177
254.7496	0.1712
254.9643	0.1734
255.179	0.1653
255.3937	0.1644
255.6083	0.1604
255.823	0.1764
256.0377	0.1624
256.2523	0.1674
256.467	0.149
256.6816	0.1736
256.8962	0.1625
257.1108	0.1519
257.3254	0.172
257.54	0.1532
257.7545	0.1611
257.9691	0.1673
258.1836	0.1541
258.3981	0.1661
258.6127	0.1641
258.8272	0.1627
259.0417	0.1592
259.2561	0.1674
259.4706	0.1677
259.6851	0.1643
259.8995	0.1659
260.114	0.1589
260.3284	0.1643
260.5428	0.1498
260.7572	0.1743
260.9716	0.1602
261.186	0.1579
261.4003	0.1739
261.6147	0.1646
261.829	0.1722
262.0433	0.1711
262.2577	0.1641
262.472	0.1675
262.6863	0.161
262.9005	0.154
263.1148	0.1536
263.3291	0.1422
263.5433	0.1649
263.7576	0.1529
263.9718	0.1742
264.186	0.1588
264.4002	0.1578
264.6144	0.1612
264.8286	0.1745
265.0427	0.1535
265.2569	0.1614
265.471	0.1515
265.6851	0.1545
265.8993	0.1625
266.1134	0.1612
266.3275	0.1483
266.5415	0.1493
266.7556	0.171
266.9697	0.1593
267.1837	0.1587
267.3978	0.153
267.6118	0.16
267.8258	0.1666
268.0398	0.1495
268.2538	0.1665
268.4677	0.1543
268.6817	0.1481
268.8957	0.1556
269.1096	0.1644
269.3235	0.1607
269.5374	0.1424
269.7514	0.1534
269.9652	0.146
270.1791	0.1443
270.393	0.1321
270.6068	0.1392
270.8207	0.136
271.0345	0.15
271.2483	0.1415
271.4622	0.1393
271.676	0.1495
271.8897	0.1357
272.1035	0.1398
272.3173	0.1281
272.531	0.1405
272.7448	0.1386
272.9585	0.1332
273.1722	0.1402
273.3859	0.1539
273.5996	0.1239
273.8133	0.1468
274.0269	0.1358
274.2406	0.1365
274.4542	0.1286
274.6679	0.1209
274.8815	0.1326
275.0951	0.1393
275.3087	0.1458
275.5223	0.1372
275.7358	0.1391
275.9494	0.133
276.1629	0.1299
276.3765	0.1302
276.59	0.1448
276.8035	0.1259
277.017	0.1308
277.2305	0.132
277.444	0.1383
277.6574	0.124
277.8709	0.1391
278.0843	0.1329
278.2978	0.1382
278.5112	0.1352
278.7246	0.1283
278.938	0.1323
279.1513	0.1409
279.3647	0.1389
279.5781	0.1327
279.7914	0.1333
280.0047	0.1589
280.2181	0.136
280.4314	0.1374
280.6447	0.1351
280.8579	0.1342
281.0712	0.1514
281.2845	0.1538
281.4977	0.1382
281.711	0.1303
281.9242	0.1476
282.1374	0.1524
282.3506	0.1423
282.5638	0.1454
282.7769	0.1429
282.9901	0.1478
283.2033	0.1522
283.4164	0.1518
283.6295	0.1326
283.8426	0.1362
284.0557	0.1536
284.2688	0.1617
284.4819	0.156
284.695	0.1488
284.908	0.1616
285.1211	0.1481
285.3341	0.1575
285.5471	0.1542
285.7601	0.1462
285.9731	0.1517
286.1861	0.1498
286.3991	0.1615
286.612	0.1603
286.825	0.1683
287.0379	0.1611
287.2508	0.1454
287.4637	0.1565
287.6766	0.1447
287.8895	0.1732
288.1024	0.1714
288.3152	0.1777
288.5281	0.1534
288.7409	0.1677
288.9538	0.157
289.1666	0.1595
289.3794	0.165
289.5922	0.1692
289.8049	0.1564
290.0177	0.17
290.2304	0.17
290.4432	0.1597
290.6559	0.1629
290.8686	0.1707
291.0813	0.1697
291.294	0.1649
291.5067	0.172
291.7194	0.1755
291.932	0.179
292.1447	0.164
292.3573	0.1655
292.5699	0.1692
292.7825	0.1685
292.9951	0.1624
293.2077	0.1743
293.4203	0.1685
293.6328	0.1561
293.8454	0.1759
294.0579	0.1735
294.2704	0.1676
294.4829	0.1683
294.6954	0.1769
294.9079	0.1697
295.1204	0.1607
295.3328	0.1654
295.5453	0.1801
295.7577	0.1668
295.9701	0.1681
296.1825	0.1715
296.3949	0.164
296.6073	0.1683
296.8197	0.1635
297.0321	0.1867
297.2444	0.1553
297.4567	0.183
297.6691	0.1705
297.8814	0.1729
298.0937	0.1748
298.306	0.1812
298.5182	0.1684
298.7305	0.1826
298.9428	0.16
299.155	0.1664
299.3672	0.1757
299.5794	0.1622
299.7916	0.1661
300.0038	0.1725
300.216	0.1775
300.4282	0.1635
300.6403	0.1548
300.8525	0.1791
301.0646	0.161
301.2767	0.1705
301.4888	0.1705
301.7009	0.173
301.913	0.1706
302.125	0.175
302.3371	0.1647
302.5491	0.1639
302.7612	0.1771
302.9732	0.1798
303.1852	0.1784
303.3972	0.1658
303.6092	0.1554
303.8211	0.155
304.0331	0.156
304.245	0.1552
304.457	0.1597
304.6689	0.1639
304.8808	0.1758
305.0927	0.1539
305.3046	0.1598
305.5164	0.165
305.7283	0.1562
305.9401	0.165
306.152	0.1483
306.3638	0.1622
306.5756	0.147
306.7874	0.1549
306.9992	0.1628
307.2109	0.1417
307.4227	0.1327
307.6344	0.1459
307.8462	0.1472
308.0579	0.1384
308.2696	0.1408
308.4813	0.1401
308.693	0.131
308.9046	0.1401
309.1163	0.1251
309.328	0.1222
309.5396	0.1244
309.7512	0.1254
309.9628	0.122
310.1744	0.1116
310.386	0.121
310.5976	0.1073
310.8091	0.115
311.0207	0.1166
311.2322	0.1151
311.4437	0.1049
311.6552	0.1131
311.8667	0.1061
312.0782	0.0997
312.2897	0.0919
312.5012	0.1052
312.7126	0.0923
312.924	0.0979
313.1355	0.1154
313.3469	0.1074
313.5583	0.108
313.7696	0.1091
313.981	0.104
314.1924	0.1044
314.4037	0.0985
314.6151	0.1018
314.8264	0.0937
315.0377	0.0933
315.249	0.0915
315.4603	0.099
315.6716	0.0909
315.8828	0.0778
316.0941	0.1007
316.3053	0.0853
316.5165	0.0936
316.7277	0.086
316.9389	0.0934
317.1501	0.0921
317.3613	0.0935
317.5724	0.0726
317.7836	0.0962
317.9947	0.0976
318.2058	0.0967
318.417	0.0839
318.6281	0.075
318.8391	0.0914
319.0502	0.0838
319.2613	0.0953
319.4723	0.0938
319.6834	0.093
319.8944	0.0836
320.1054	0.0974
320.3164	0.0901
320.5274	0.0846
320.7383	0.0874
320.9493	0.0856
321.1602	0.0935
321.3712	0.0743
321.5821	0.0849
321.793	0.0959
322.0039	0.0868
322.2148	0.0862
322.4257	0.0934
322.6365	0.0998
322.8474	0.0957
323.0582	0.0868
323.269	0.0922
323.4798	0.1025
323.6906	0.0897
323.9014	0.0885
324.1122	0.1059
324.3229	0.0836
324.5337	0.0905
324.7444	0.0754
324.9551	0.0908
325.1658	0.0976
325.3765	0.1083
325.5872	0.0878
325.7979	0.0901
326.0085	0.0992
326.2192	0.1025
326.4298	0.1007
326.6404	0.087
326.851	0.0956
327.0616	0.0842
327.2722	0.0964
327.4828	0.1047
327.6933	0.0894
327.9039	0.094
328.1144	0.1076
328.3249	0.0993
328.5354	0.0849
328.7459	0.0952
328.9564	0.0939
329.1669	0.0932
329.3773	0.0934
329.5878	0.096
329.7982	0.0882
330.0086	0.0949
330.219	0.0996
330.4294	0.0973
330.6398	0.0916
330.8502	0.0917
331.0605	0.0898
331.2708	0.0989
331.4812	0.0933
331.6915	0.1068
331.9018	0.0924
332.1121	0.097
332.3224	0.0921
332.5326	0.1006
332.7429	0.0984
332.9531	0.1135
333.1633	0.0987
333.3735	0.092
333.5837	0.096
333.7939	0.1001
334.0041	0.1041
334.2143	0.1068
334.4244	0.1033
334.6346	0.078
334.8447	0.1052
335.0548	0.1059
335.2649	0.1039
335.475	0.1114
335.685	0.0943
335.8951	0.1165
336.1051	0.1036
336.3152	0.1117
336.5252	0.0987
336.7352	0.1078
336.9452	0.1028
337.1552	0.1019
337.3652	0.1012
337.5751	0.097
337.7851	0.1115
337.995	0.0987
338.2049	0.0995
338.4148	0.1063
338.6247	0.1133
338.8346	0.0951
339.0445	0.0926
339.2543	0.0911
339.4642	0.1052
339.674	0.0906
339.8838	0.1056
340.0936	0.1036
340.3034	0.1064
340.5132	0.105
340.7229	0.1121
340.9327	0.1097
341.1424	0.1029
341.3522	0.1148
341.5619	0.1031
341.7716	0.111
341.9813	0.1124
342.1909	0.1083
342.4006	0.1253
342.6102	0.1229
342.8199	0.1158
343.0295	0.1139
343.2391	0.1188
343.4487	0.1159
343.6583	0.1136
343.8679	0.1258
344.0774	0.1141
344.287	0.1051
344.4965	0.1155
344.706	0.1127
344.9155	0.1174
345.125	0.1232
345.3345	0.1373
345.544	0.1079
345.7534	0.1148
345.9629	0.1233
346.1723	0.117
346.3817	0.1204
346.5911	0.1223
346.8005	0.1284
347.0099	0.1198
347.2193	0.1256
347.4286	0.1132
347.638	0.1333
347.8473	0.1236
348.0566	0.1197
348.2659	0.1366
348.4752	0.1259
348.6845	0.1271
348.8937	0.1329
349.103	0.1352
349.3122	0.1121
349.5214	0.1281
349.7306	0.121
349.9398	0.1439
350.149	0.1371
350.3582	0.1335
350.5674	0.1472
350.7765	0.1298
350.9856	0.1316
351.1948	0.1286
351.4039	0.123
351.613	0.1251
351.822	0.1474
352.0311	0.1502
352.2402	0.1389
352.4492	0.1468
352.6582	0.1619
352.8672	0.139
353.0762	0.148
353.2852	0.1389
353.4942	0.1426
353.7032	0.1465
353.9121	0.144
354.1211	0.1379
354.33	0.1347
354.5389	0.1542
354.7478	0.1419
354.9567	0.1412
355.1655	0.1439
355.3744	0.1621
355.5833	0.1461
355.7921	0.1804
356.0009	0.1445
356.2097	0.1655
356.4185	0.1625
356.6273	0.1542
356.8361	0.1553
357.0448	0.1581
357.2536	0.1567
357.4623	0.1571
357.671	0.1653
357.8797	0.1761
358.0884	0.1598
358.2971	0.1689
358.5057	0.1644
358.7144	0.1716
358.923	0.1592
359.1316	0.1704
359.3402	0.1753
359.5488	0.1671
359.7574	0.1575
359.966	0.1722
360.1746	0.173
360.3831	0.1783
360.5916	0.1661
360.8002	0.1743
361.0087	0.1876
361.2172	0.1631
361.4256	0.1791
361.6341	0.1838
361.8426	0.1837
362.051	0.1705
362.2594	0.176
362.4678	0.1898
362.6762	0.2016
362.8846	0.1897
363.093	0.1829
363.3014	0.188
363.5097	0.176
363.718	0.1818
363.9264	0.1853
364.1347	0.1833
364.343	0.1758
364.5513	0.2025
364.7595	0.1997
364.9678	0.1911
365.176	0.2047
365.3842	0.188
365.5925	0.1879
365.8007	0.2159
366.0089	0.1962
366.217	0.1837
366.4252	0.2069
366.6333	0.2155
366.8415	0.2031
367.0496	0.2047
367.2577	0.2151
367.4658	0.2278
367.6739	0.2123
367.882	0.2264
368.09	0.1983
368.2981	0.2185
368.5061	0.2044
368.7141	0.2298
368.9221	0.214
369.1301	0.2287
369.3381	0.2105
369.5461	0.214
369.754	0.2224
369.962	0.2318
370.1699	0.2285
370.3778	0.2264
370.5857	0.2162
370.7936	0.2229
371.0015	0.2303
371.2093	0.2231
371.4172	0.2292
371.625	0.2354
371.8328	0.2167
372.0406	0.2192
372.2484	0.2185
372.4562	0.2361
372.664	0.227
372.8717	0.2376
373.0795	0.2226
373.2872	0.2378
373.4949	0.2323
373.7026	0.2369
373.9103	0.2384
374.118	0.2487
374.3256	0.239
374.5333	0.2395
374.7409	0.2297
374.9485	0.2598
375.1561	0.2433
375.3637	0.2698
375.5713	0.2453
375.7789	0.2572
375.9864	0.2358
376.194	0.2348
376.4015	0.2628
376.609	0.2741
376.8165	0.2553
377.024	0.2308
377.2315	0.2211
377.4389	0.2612
377.6464	0.2631
377.8538	0.2581
378.0612	0.2466
378.2686	0.2517
378.476	0.2647
378.6834	0.2628
378.8908	0.2614
379.0981	0.2796
379.3055	0.276
379.5128	0.256
379.7201	0.2593
379.9274	0.2537
380.1347	0.2567
380.342	0.2727
380.5492	0.2578
380.7565	0.2579
380.9637	0.265
381.1709	0.2721
381.3781	0.2562
381.5853	0.2594
381.7925	0.2775
381.9997	0.2722
382.2068	0.2829
382.4139	0.2802
382.6211	0.2527
382.8282	0.2705
383.0353	0.2708
383.2424	0.2567
383.4494	0.2688
383.6565	0.2565
383.8635	0.2655
384.0706	0.2735
384.2776	0.2717
384.4846	0.2639
384.6916	0.2806
384.8986	0.2726
385.1055	0.2847
385.3125	0.2839
385.5194	0.2499
385.7263	0.286
385.9333	0.2719
386.1402	0.273
386.347	0.2647
386.5539	0.2494
386.7608	0.2862
386.9676	0.2578
387.1744	0.2815
387.3813	0.2515
387.5881	0.271
387.7948	0.2776
388.0016	0.2634
388.2084	0.2776
388.4151	0.2645
388.6219	0.2861
388.8286	0.2727
389.0353	0.2729
389.242	0.2643
389.4487	0.2519
389.6553	0.2715
389.862	0.2533
390.0686	0.2519
390.2753	0.2756
390.4819	0.2664
390.6885	0.2341
390.8951	0.2619
391.1016	0.2567
391.3082	0.2719
391.5147	0.2583
391.7213	0.2525
391.9278	0.2581
392.1343	0.249
392.3408	0.2464
392.5473	0.2631
392.7537	0.2457
392.9602	0.2504
393.1666	0.2589
393.373	0.247
393.5794	0.2565
393.7858	0.2405
393.9922	0.2411
394.1986	0.2461
394.4049	0.243
394.6113	0.2311
394.8176	0.2372
395.0239	0.2427
395.2302	0.2414
395.4365	0.2335
395.6428	0.2421
395.8491	0.2273
396.0553	0.2318
396.2615	0.2467
396.4678	0.227
396.674	0.22
396.8802	0.2347
397.0863	0.252
397.2925	0.2248
397.4987	0.2237
397.7048	0.2153
397.9109	0.2397
398.117	0.2244
398.3231	0.2101
398.5292	0.2281
398.7353	0.2502
398.9413	0.2353
399.1474	0.2267
399.3534	0.2204
399.5594	0.2191
399.7654	0.2458
399.9714	0.2362
400.1774	0.2285
400.3833	0.2293
400.5893	0.2322
400.7952	0.2441
401.0011	0.2286
401.207	0.2293
401.4129	0.2238
401.6188	0.2428
401.8247	0.2223
402.0305	0.2262
402.2364	0.2292
402.4422	0.2467
402.648	0.2323
402.8538	0.2462
403.0596	0.2222
403.2654	0.2517
403.4711	0.2228
403.6768	0.2459
403.8826	0.2391
404.0883	0.2483
404.294	0.2364
404.4997	0.2291
404.7054	0.2362
404.911	0.2226
405.1167	0.2369
405.3223	0.2382
405.5279	0.2359
405.7335	0.2366
405.9391	0.2334
406.1447	0.2314
406.3502	0.2516
406.5558	0.2355
406.7613	0.2348
406.9668	0.2397
407.1724	0.2373
407.3778	0.2164
407.5833	0.2227
407.7888	0.2117
407.9942	0.2381
408.1997	0.2287
408.4051	0.2277
408.6105	0.2235
408.8159	0.2147
409.0213	0.2265
409.2267	0.2446
409.432	0.2133
409.6374	0.2186
409.8427	0.2385
410.048	0.2366
410.2533	0.225
410.4586	0.2281
410.6639	0.2231
410.8691	0.2039
411.0744	0.2375
411.2796	0.2265
411.4848	0.2369
411.69	0.2147
411.8952	0.2317
412.1004	0.2204
412.3056	0.232
412.5107	0.2128
412.7158	0.2287
412.921	0.2383
413.1261	0.2153
413.3312	0.219
413.5362	0.2215
413.7413	0.2107
413.9464	0.2196
414.1514	0.2172
414.3564	0.2189
414.5614	0.212
414.7664	0.2212
414.9714	0.2254
415.1764	0.2059
415.3813	0.2292
415.5863	0.2295
415.7912	0.2305
415.9961	0.2278
416.201	0.2297
416.4059	0.2163
416.6108	0.216
416.8156	0.2346
417.0205	0.2377
417.2253	0.2155
417.4301	0.2406
417.6349	0.2195
417.8397	0.2093
418.0445	0.2361
418.2492	0.2251
418.454	0.2327
418.6587	0.2322
418.8634	0.2212
419.0681	0.1953
419.2728	0.2086
419.4775	0.217
419.6822	0.2128
419.8868	0.2139
420.0915	0.2164
420.2961	0.2131
420.5007	0.2049
420.7053	0.2205
420.9099	0.206
421.1144	0.2051
421.319	0.2085
421.5235	0.2193
421.728	0.207
421.9325	0.2041
422.137	0.2154
422.3415	0.21
422.546	0.2068
422.7504	0.2019
422.9549	0.2036
423.1593	0.2126
423.3637	0.2025
423.5681	0.2024
423.7725	0.1922
423.9769	0.1797
424.1812	0.1813
424.3856	0.2037
424.5899	0.1992
424.7942	0.2001
424.9985	0.1995
425.2028	0.1958
425.4071	0.2057
425.6113	0.1896
425.8156	0.1962
426.0198	0.181
426.224	0.1694
426.4282	0.1759
426.6324	0.158
426.8366	0.19
427.0407	0.1722
427.2449	0.1743
427.449	0.1703
427.6531	0.1679
427.8572	0.197
428.0613	0.1846
428.2654	0.1679
428.4694	0.1576
428.6735	0.1714
428.8775	0.1911
429.0815	0.173
429.2855	0.1626
429.4895	0.1734
429.6935	0.1697
429.8975	0.1717
430.1014	0.1628
430.3053	0.1467
430.5093	0.1508
430.7132	0.1478
430.9171	0.1651
431.1209	0.1674
431.3248	0.1634
431.5286	0.1539
431.7325	0.1552
431.9363	0.1346
432.1401	0.1661
432.3439	0.1387
432.5477	0.1164
432.7514	0.1275
432.9552	0.1351
433.1589	0.114
433.3627	0.1241
433.5664	0.1327
433.7701	0.1208
433.9737	0.1204
434.1774	0.1291
434.3811	0.1228
434.5847	0.1252
434.7883	0.1364
434.9919	0.1311
435.1955	0.1241
435.3991	0.1318
435.6027	0.1275
435.8062	0.1194
436.0098	0.1029
436.2133	0.1084
436.4168	0.1101
436.6203	0.1011
436.8238	0.1211
437.0272	0.1187
437.2307	0.1067
437.4341	0.1198
437.6375	0.1239
437.841	0.0935
438.0443	0.1211
438.2477	0.1059
438.4511	0.0993
438.6545	0.1062
438.8578	0.0977
439.0611	0.0893
439.2644	0.1005
439.4677	0.0928
439.671	0.0739
439.8743	0.0851
440.0775	0.0962
440.2808	0.0812
440.484	0.082
440.6872	0.0705
440.8904	0.0793
441.0936	0.0898
441.2967	0.0791
441.4999	0.0774
441.703	0.0778
441.9062	0.0697
442.1093	0.0693
442.3124	0.0758
442.5155	0.0672
442.7185	0.0705
442.9216	0.0448
443.1246	0.0669
443.3276	0.07
443.5307	0.0605
443.7337	0.0657
443.9366	0.0684
444.1396	0.0522
444.3426	0.0559
444.5455	0.0491
444.7484	0.0557
444.9513	0.0535
445.1542	0.0558
445.3571	0.0536
445.56	0.0484
445.7628	0.0402
445.9657	0.0456
446.1685	0.0485
446.3713	0.0464
446.5741	0.0605
446.7769	0.0338
446.9797	0.0434
447.1824	0.0503
447.3852	0.0264
447.5879	0.072
447.7906	0.0416
447.9933	0.0462
448.196	0.039
448.3986	0.0479
448.6013	0.0328
448.8039	0.0217
449.0066	0.0319
449.2092	0.0528
449.4118	0.0448
449.6143	0.0252
449.8169	0.0428
450.0195	0.0299
450.222	0.0163
450.4245	0.0274
450.627	0.0397
450.8295	0.0239
451.032	0.0275
451.2345	0.0355
451.4369	0.035
451.6394	0.0281
451.8418	0.0128
452.0442	0.0093
452.2466	0.0248
452.449	0.0179
452.6513	0.0307
452.8537	0.0188
453.056	0.0116
453.2583	0.0187
453.4607	0.0107
453.663	0.0138
453.8652	0.0275
454.0675	-0.0079
454.2697	0.0115
454.472	0.0105
454.6742	0.023
454.8764	0.0236
455.0786	0.0143
455.2808	0.0062
455.4829	0.0326
455.6851	0.0229
455.8872	0.0256
456.0893	0.0203
456.2915	-0.0119
456.4935	0.026
456.6956	0.0037
456.8977	0.012
457.0997	0.0096
457.3018	0.0061
457.5038	0.0132
457.7058	0.0095
457.9078	0.005
458.1098	-0.001
458.3117	0.0098
458.5137	0.0167
458.7156	0.0154
458.9175	-0.0022
459.1194	0.0133
459.3213	0.0031
459.5232	0.0011
459.725	-0.0195
459.9269	0.0021
460.1287	-0.0062
460.3305	-0.0008
460.5323	0.0076
460.7341	0.0031
460.9359	-0.0008
461.1376	0.0034
461.3394	-0.0033
461.5411	-0.0011
461.7428	0.0031
461.9445	0.0197
462.1462	0.0207
462.3479	-0.0025
462.5495	-0.0054
462.7512	0.0182
462.9528	0.0084
463.1544	-0.0167
463.356	0.0018
463.5576	0.0089
463.7592	-0.0047
463.9607	-0.0082
464.1623	0.0077
464.3638	-0.0013
464.5653	-0.0122
464.7668	-0.0007
464.9683	0.0097
465.1697	0.0212
465.3712	0.0089
465.5726	0.0024
465.7741	-0.0012
465.9755	-0.0048
466.1769	0.0036
466.3782	0.008
466.5796	-0.0076
466.7809	0.0222
466.9823	-0.0061
467.1836	-0.0061
467.3849	-0.0004
467.5862	0.0086
467.7875	-0.016
467.9887	-0.0005
468.19	-0.0085
468.3912	-0.0123
468.5924	0.0027
468.7936	-0.0014
468.9948	0.0048
469.196	0.0121
469.3972	-0.0215
469.5983	0.0095
469.7994	-0.0158
470.0006	-0.0088
470.2017	-0.0143
470.4027	-0.0072
470.6038	0.0062
470.8049	-0.0186
471.0059	-0.0093
471.2069	-0.027
471.408	0.0008
471.6089	0.0067
471.8099	0.0003
472.0109	0.0026
472.2119	-0.0017
472.4128	-0.0248
472.6137	0.0028
472.8146	-0.0222
473.0155	-0.0124
473.2164	-0.0137
473.4173	0.0032
473.6181	0.0027
473.819	0.0113
474.0198	-0.0038
474.2206	-0.017
474.4214	-0.0002
474.6222	-0.0082
474.8229	-0.0098
475.0237	-0.0187
475.2244	-0.0061
475.4251	-0.0099
475.6258	-0.0058
475.8265	-0.0089
476.0272	0.0072
476.2278	-0.002
476.4285	-0.0123
476.6291	-0.0114
476.8297	-0.0147
477.0303	-0.0074
477.2309	-0.0002
477.4315	-0.0063
477.632	-0.0074
477.8326	-0.0024
478.0331	-0.0018
478.2336	0.0093
478.4341	-0.0067
478.6346	-0.0092
478.8351	-0.0065
479.0355	-0.0053
479.236	-0.0146
479.4364	-0.0101
479.6368	-0.0081
479.8372	-0.0149
480.0376	0.0018
480.2379	-0.026
480.4383	-0.0158
480.6386	-0.0011
480.8389	-0.0124
481.0392	-0.0201
481.2395	-0.0112
481.4398	0.0087
481.6401	-0.0112
481.8403	-0.0065
482.0405	-0.0112
482.2408	-0.0064
482.441	-0.0035
482.6411	-0.002
482.8413	-0.0104
483.0415	-0.0138
483.2416	-0.0129
483.4417	0.0005
483.6419	-0.0041
483.8419	-0.0135
484.042	-0.0006
484.2421	-0.0036
484.4422	-0.0054
484.6422	0.0008
484.8422	-0.0089
485.0422	-0.0172
485.2422	-0.0032
485.4422	-0.0166
485.6422	-0.0102
485.8421	-0.006
486.042	0.0014
486.242	-0.0118
486.4419	-0.014
486.6417	-0.0062
486.8416	-0.0031
487.0415	-0.0095
487.2413	-0.0018
487.4411	-0.0106
487.641	-0.0173
487.8408	-0.0117
488.0405	-0.0223
488.2403	-0.0135
488.4401	0.0012
488.6398	-0.0116
488.8395	-0.0167
489.0392	0.0007
489.2389	-0.0039
489.4386	-0.0123
489.6383	-0.0132
489.8379	-0.0106
490.0376	-0.0102
490.2372	-0.0102
490.4368	-0.0183
490.6364	0.0001
490.836	-0.0081
491.0355	-0.011
491.2351	-0.0149
491.4346	-0.0083
491.6341	-0.0236
491.8336	0.006
492.0331	-0.021
492.2326	-0.0146
492.432	-0.0048
492.6315	-0.0102
492.8309	-0.0296
493.0303	-0.018
493.2297	-0.0095
493.4291	-0.0119
493.6284	-0.0118
493.8278	-0.0181
494.0271	-0.0026
494.2264	-0.0035
494.4257	-0.02
494.625	-0.0035
494.8243	-0.0233
495.0236	-0.0198
495.2228	-0.0207
495.422	-0.0058
495.6213	-0.0162
495.8205	-0.018
496.0196	-0.0095
496.2188	-0.0113
496.418	-0.0204
496.6171	-0.0065
496.8162	-0.0192
497.0153	-0.0052
497.2144	-0.0097
497.4135	-0.0053
497.6126	-0.0111
497.8116	-0.0186
498.0107	-0.0101
498.2097	-0.0216
498.4087	-0.0221
498.6077	-0.0047
498.8067	-0.0138
499.0056	-0.0052
499.2046	-0.0126
499.4035	-0.0187
499.6024	-0.0093
499.8013	-0.0098
500.0002	-0.0145
500.199	-0.0033
500.3979	-0.0131
500.5967	-0.0222
500.7956	-0.0101
500.9944	-0.0168
501.1932	-0.009
501.3919	-0.0208
501.5907	-0.0242
501.7895	-0.0105
501.9882	-0.0159
502.1869	-0.0146
502.3856	-0.0144
502.5843	-0.0129
502.783	-0.0101
502.9816	-0.0114
503.1803	-0.0199
503.3789	-0.0146
503.5775	-0.0063
503.7761	-0.012
503.9747	-0.0029
504.1732	-0.018
504.3718	-0.0051
504.5703	-0.0054
504.7689	-0.017
504.9674	-0.0065
505.1658	-0.0058
505.3643	-0.0029
505.5628	-0.0125
505.7612	-0.0209
505.9597	-0.0004
506.1581	-0.017
506.3565	-0.0012
506.5549	-0.0124
506.7532	-0.0214
506.9516	-0.0079
507.1499	-0.0069
507.3482	-0.0228
507.5465	-0.013
507.7448	0.0002
507.9431	-0.0078
508.1414	-0.0041
508.3396	-0.0097
508.5379	-0.0094
508.7361	-0.01
508.9343	-0.007
509.1325	-0.004
509.3306	-0.0139
509.5288	-0.0102
509.7269	-0.0237
509.9251	-0.0099
510.1232	-0.0228
510.3213	-0.01
510.5193	-0.0058
510.7174	-0.0254
510.9154	-0.0149
511.1135	-0.0119
511.3115	-0.0089
511.5095	-0.0099
511.7075	-0.0042
511.9055	-0.0123
512.1034	-0.0107
512.3014	-0.0094
512.4993	-0.0075
512.6972	-0.0097
512.8951	-0.0196
513.093	0.0009
513.2908	-0.0099
513.4887	-0.0099
513.6865	-0.0045
513.8844	-0.0053
514.0822	-0.0069
514.2799	-0.02
514.4777	-0.013
514.6755	-0.0108
514.8732	-0.0093
515.0709	-0.0128
515.2687	-0.0092
515.4664	-0.0018
515.664	-0.0181
515.8617	-0.0123
516.0594	-0.0163
516.257	-0.0095
516.4546	-0.018
516.6522	0.0059
516.8498	-0.0042
517.0474	-0.0109
517.2449	-0.0115
517.4425	-0.0184
517.64	-0.0082
517.8375	-0.0012
518.035	-0.0104
518.2325	-0.0126
518.43	-0.0067
518.6274	-0.0086
518.8249	-0.0195
519.0223	-0.0122
519.2197	-0.0154
519.4171	-0.0095
519.6145	-0.0132
519.8118	-0.0106
520.0092	-0.0062
520.2065	-0.0172
520.4038	-0.026
520.6011	-0.0097
520.7984	-0.0132
520.9956	-0.0121
521.1929	-0.0206
521.3901	-0.0025
521.5874	-0.0104
521.7846	-0.013
521.9818	-0.0081
522.1789	-0.0103
522.3761	-0.0046
522.5732	-0.0155
522.7704	-0.0121
522.9675	-0.0132
523.1646	-0.0107
523.3617	-0.0085
523.5587	-0.0114
523.7558	-0.0132
523.9528	-0.0137
524.1498	-0.0062
524.3468	-0.0115
524.5438	-0.0127
524.7408	-0.0112
524.9378	0.0099
525.1347	-0.0131
525.3316	-0.0104
525.5285	-0.0162
525.7254	-0.0185
525.9223	0.0025
526.1192	-0.0095
526.316	-0.0112
526.5129	0.0088
526.7097	-0.0045
526.9065	-0.0141
527.1033	-0.01
527.3	-0.0074
527.4968	-0.0095
527.6935	-0.0038
527.8903	-0.0148
528.087	-0.0088
528.2837	-0.0098
528.4804	-0.0107
528.677	-0.0111
528.8737	0.0013
529.0703	-0.0026
529.2669	-0.0112
529.4635	-0.0083
529.6601	-0.0025
529.8567	-0.0137
530.0532	-0.0082
530.2498	-0.0057
530.4463	-0.0018
530.6428	-0.0133
530.8393	-0.0066
531.0358	-0.0066
531.2322	-0.0036
531.4287	-0.0064
531.6251	-0.0224
531.8215	-0.002
532.0179	-0.005
532.2143	0.0012
532.4107	-0.0141
532.607	-0.0128
532.8034	-0.0017
532.9997	-0.0033
533.196	-0.0048
533.3923	-0.0093
533.5886	-0.0065
533.7848	-0.0025
533.9811	-0.0008
534.1773	-0.001
534.3735	-0.0077
534.5697	0.006
534.7659	-0.0077
534.9621	-0.0057
535.1582	-0.0135
535.3544	-0.0108
535.5505	-0.0075
535.7466	-0.0077
535.9427	-0.0114
536.1387	-0.0097
536.3348	-0.0035
536.5308	0.0009
536.7269	-0.0113
536.9229	-0.0002
537.1189	-0.0049
537.3148	-0.0097
537.5108	-0.011
537.7068	0.0001
537.9027	-0.0029
538.0986	-0.0171
538.2945	-0.0034
538.4904	-0.0047
538.6863	-0.005
538.8821	-0.0079
539.078	-0.0079
539.2738	-0.0037
539.4696	-0.0029
539.6654	-0.0033
539.8611	0.0098
540.0569	-0.0044
540.2526	-0.0072
540.4484	-0.0075
540.6441	-0.0017
540.8398	-0.0019
541.0355	-0.0042
541.2311	-0.0055
541.4268	-0.0174
541.6224	0.0001
541.818	-0.0108
542.0136	-0.0105
542.2092	-0.0011
542.4048	-0.0042
542.6003	-0.0047
542.7959	-0.0039
542.9914	-0.0016
543.1869	-0.0079
543.3824	0.0018
543.5779	-0.0047
543.7734	0.001
543.9688	-0.0046
544.1642	0.0013
544.3596	-0.0065
544.555	-0.0046
544.7504	-0.0053
544.9458	-0.0103
545.1411	-0.0121
545.3365	-0.0053
545.5318	0.0049
545.7271	-0.003
545.9224	-0.0101
546.1177	-0.0107
546.3129	-0.0031
546.5081	-0.0148
546.7034	-0.004
546.8986	-0.007
547.0938	-0.0092
547.289	-0.0017
547.4841	-0.0014
547.6793	-0.0007
547.8744	-0.0153
548.0695	0.0004
548.2646	-0.0074
548.4597	0
548.6548	-0.0096
548.8498	-0.0035
549.0448	-0.0037
549.2399	-0.0093
549.4349	0.006
549.6298	-0.0084
549.8248	-0.0057
550.0198	-0.0018
550.2147	-0.0216
550.4096	-0.0072
550.6045	-0.0009
550.7994	-0
550.9943	-0.0017
551.1892	-0.0035
551.384	-0.0019
551.5788	-0.0076
551.7737	-0.0063
551.9685	-0.0047
552.1632	0.0019
552.358	-0.003
552.5528	-0.004
552.7475	-0.0076
552.9422	0
553.1369	-0.0027
553.3316	-0.0006
553.5263	-0.0057
553.7209	0.0064
553.9156	-0.0126
554.1102	-0.0154
554.3048	-0.0125
554.4994	0.0098
554.694	-0.0102
554.8885	0.0059
555.0831	-0.005
555.2776	-0.0121
555.4721	-0.003
555.6666	-0.0061
555.8611	0.0069
556.0555	-0.0066
556.25	-0.002
556.4444	-0.007
556.6388	0.0018
556.8332	-0.0086
557.0276	-0.0084
557.222	-0.0063
557.4163	-0.0018
557.6107	-0.0069
557.805	-0.0005
557.9993	-0.0105
558.1936	-0.0007
558.3879	-0.0057
558.5821	-0.0063
558.7764	-0.0073
558.9706	-0.0019
559.1648	0.0031
559.359	-0.0039
559.5532	-0.0172
559.7473	-0.0092
559.9415	-0.0019
560.1356	-0.0092
560.3297	-0.0082
560.5238	-0.0083
560.7179	-0.0097
560.9119	-0.0047
561.106	-0.0137
561.3	-0.0114
561.494	0.0002
561.688	-0.021
561.882	-0.0117
562.076	-0.0053
562.2699	-0.0067
562.4639	-0.0034
562.6578	-0.006
562.8517	0.0003
563.0456	0.005
563.2395	0.0036
563.4333	-0.0061
563.6272	-0.0027
563.821	-0.0048
564.0148	-0.0065
564.2086	-0.0107
564.4024	-0.0049
564.5961	0.0025
564.7899	-0.0038
564.9836	0.0001
565.1773	-0.0044
565.371	-0
565.5647	0.0044
565.7584	-0.0029
565.952	-0.0009
566.1456	0.0009
566.3393	-0.0024
566.5329	-0.0064
566.7264	-0.0036
566.92	-0.0126
567.1136	0.0003
567.3071	-0.0045
567.5006	-0.0015
567.6941	-0.0004
567.8876	-0.0024
568.0811	-0.0044
568.2745	-0.0008
568.468	0.0079
568.6614	-0.0009
568.8548	0.0032
569.0482	-0.0123
569.2416	-0.002
569.4349	-0.0046
569.6283	0.0029
569.8216	-0.0008
570.0149	-0.009
570.2082	0.0091
570.4015	-0.001
570.5947	-0.0007
570.788	0.0004
570.9812	-0.0028
571.1744	0.001
571.3676	-0.006
571.5608	0.0004
571.754	-0.001
571.9471	-0.0046
572.1402	0.0007
572.3333	-0.0078
572.5264	-0.0063
572.7195	-0.0024
572.9126	0.0011
573.1057	-0.0034
573.2987	-0.0018
573.4917	-0.0024
573.6847	-0.0131
573.8777	0.0009
574.0707	0.0047
574.2636	-0.0005
574.4566	-0.0036
574.6495	0.002
574.8424	-0.0033
575.0353	-0.0034
575.2281	0.0097
575.421	0.0043
575.6138	0.0024
575.8067	-0.0089
575.9995	-0.0013
576.1923	0.0057
576.385	0.0059
576.5778	0.0021
576.7706	-0.0062
576.9633	-0.002
577.156	0.0028
577.3487	0.0013
577.5414	-0.0033
577.734	-0.0032
577.9267	0.0083
578.1193	-0.0076
578.3119	-0.0012
578.5045	-0.0036
578.6971	-0.0028
578.8897	0.0058
579.0822	-0.0044
579.2747	-0.0049
579.4673	-0.0056
579.6598	-0.0046
579.8522	-0.0012
580.0447	-0.0088
580.2372	-0.0059
580.4296	0.0032
580.622	-0.0003
580.8144	0.0036
581.0068	-0.0013
581.1992	-0.0067
581.3915	-0.0086
581.5839	-0.0079
581.7762	-0.0098
581.9685	-0.0027
582.1608	0.0014
582.353	0.0019
582.5453	-0.0022
582.7375	0.0002
582.9298	-0.0012
583.122	-0.0002
583.3142	-0.0034
583.5063	-0.0033
583.6985	0.0007
583.8906	-0.0005
584.0827	-0.0058
584.2749	0.0001
584.4669	-0.0025
584.659	-0.0062
584.8511	-0.0015
585.0431	0.0023
585.2352	-0.0006
585.4272	-0.003
585.6192	0.0022
585.8111	-0.0064
586.0031	-0.0027
586.195	-0.0043
586.387	0.0044
586.5789	0.0025
586.7708	-0.0017
586.9627	-0.0062
587.1545	-0.0022
587.3464	0.0007
587.5382	0.0019
587.73	0.001
587.9218	0.0087
588.1136	-0.0016
588.3053	0.0042
588.4971	-0.0024
588.6888	-0.0109
588.8805	0.0046
589.0722	0.006
589.2639	-0.0029
589.4556	-0.002
589.6472	0.0002
589.8389	-0.0082
590.0305	-0.007
590.2221	0.0063
590.4137	-0.0076
590.6052	0.0079
590.7968	-0.0026
590.9883	0.0016
591.1798	-0.0001
591.3713	0.0015
591.5628	0.004
591.7543	-0.0027
591.9458	-0.0042
592.1372	0.0041
592.3286	0.0133
592.52	-0.0013
592.7114	0.001
592.9028	-0.0053
593.0941	-0.0045
593.2855	-0.0008
593.4768	-0.0065
593.6681	-0.0095
593.8594	-0.0064
594.0506	-0
594.2419	0.0041
594.4331	0.0022
594.6244	0.0025
594.8156	-0.0066
595.0067	0.0051
595.1979	0.0018
595.3891	0.0002
595.5802	-0.0005
595.7713	-0.0045
595.9624	-0.0037
596.1535	0.0052
596.3446	-0.0078
596.5357	-0.0063
596.7267	0.0038
596.9177	0.0008
597.1087	-0.0038
597.2997	-0.0052
597.4907	0.0022
597.6817	-0.006
597.8726	-0.0099
598.0635	0.0012
598.2544	-0.0008
598.4453	-0.0026
598.6362	-0.0025
598.827	0.0033
599.0179	0.0041
599.2087	0.0063
599.3995	0.0009
599.5903	0.0013
599.7811	0.0055
599.9718	-0.0001
600.1626	-0.0048
600.3533	-0.0035
600.544	0.0018
600.7347	0.0006
600.9254	0.0012
601.116	-0.008
601.3067	-0.0028
601.4973	0.0037
601.6879	0.0058
601.8785	-0.0062
602.0691	0.0035
602.2596	0.0033
602.4502	0.0011
602.6407	0.0046
602.8312	0.001
603.0217	-0.0053
603.2122	0.0031
603.4027	0.0001
603.5931	-0.0068
603.7835	-0.001
603.9739	0.0039
604.1643	-0.0047
604.3547	0.0001
604.5451	0.0084
604.7354	-0.0012
604.9257	0.0046
605.116	-0
605.3063	0.0008
605.4966	0.0015
605.6869	-0.0038
605.8771	0.0054
606.0673	0.004
606.2575	0.0056
606.4477	0.0045
606.6379	0.006
606.8281	0.0064
607.0182	-0.0032
607.2083	0.0085
607.3985	-0.0005
607.5885	0.0034
607.7786	0.0048
607.9687	-0.0045
608.1587	0.004
608.3488	0.0035
608.5388	0.0062
608.7288	-0.0029
608.9187	-0.0086
609.1087	-0.0031
609.2986	-0.0083
609.4886	-0.0028
609.6785	-0.0008
609.8684	-0.0021
610.0582	0.0051
610.2481	0.0059
610.4379	0.0008
610.6278	-0.0026
610.8176	0.0021
611.0074	-0.0049
611.1971	-0.0021
611.3869	0.0029
611.5766	-0.0104
611.7664	0.0053
611.9561	0.0008
612.1458	0.0022
612.3354	0.0002
612.5251	-0.0044
612.7147	0.001
612.9044	0.0039
613.094	0.0009
613.2836	0.0059
613.4731	0.0004
613.6627	-0.0031
613.8522	0.0085
614.0417	0.0076
614.2313	0.0009
614.4207	0.0018
614.6102	0.0055
614.7997	-0.0123
614.9891	-0.0038
615.1785	0.0042
615.3679	0.0002
615.5573	0.0038
615.7467	-0.0004
615.9361	-0.0057
616.1254	-0.0024
616.3147	-0.0005
616.504	0.0033
616.6933	0.0024
616.8826	0.0034
617.0718	0.0059
617.2611	-0.0032
617.4503	-0.0053
617.6395	-0.0084
617.8287	-0.0011
618.0179	0.0014
618.207	0.0072
618.3961	0.0042
618.5853	0.0027
618.7744	0.0016
618.9634	0.0042
619.1525	0.0018
619.3416	0.0004
619.5306	0.0051
619.7196	0.0044
619.9086	-0.004
620.0976	0.0038
620.2866	-0.0033
620.4755	0.0081
620.6645	0.0084
620.8534	0.0062
621.0423	0.0042
621.2312	0.0056
621.42	0.0029
621.6089	0.0053
621.7977	0.0077
621.9865	-0.0045
622.1753	0.0037
622.3641	-0.0023
622.5529	0.0067
622.7416	0.0075
622.9303	-0.0034
623.1191	0.0056
623.3078	0.0044
623.4964	0.0101
623.6851	0.0067
623.8737	0.0028
624.0624	-0.0004
624.251	-0.0013
624.4396	-0.0023
624.6282	-0.0052
624.8167	-0.0003
625.0053	0.0068
625.1938	0.0094
625.3823	-0.0014
625.5708	-0.0039
625.7593	-0.0056
625.9477	-0.0074
626.1362	-0.0113
626.3246	-0.0019
626.513	-0.0017
626.7014	0.0008
626.8898	-0.0034
627.0781	-0.0007
627.2665	-0.0062
627.4548	-0.0011
627.6431	0.0024
627.8314	0.0031
628.0197	0.0054
628.2079	-0.0074
628.3962	-0.0008
628.5844	0.0049
628.7726	0.0048
628.9608	0.0093
629.1489	0.0069
629.3371	0.001
629.5252	-0.0026
629.7134	0.01
629.9015	0.0045
630.0895	-0.0016
630.2776	0.0054
630.4657	0.0013
630.6537	0.0018
630.8417	-0.0044
631.0297	-0.0036
631.2177	0.0034
631.4057	-0.0027
631.5936	0.0084
631.7815	-0.004
631.9695	0.0095
632.1574	0.0133
632.3452	0.0134
632.5331	0.0012
632.7209	0.0012
632.9088	0.0109
633.0966	0.0073
633.2844	0.0025
633.4722	0.0077
633.6599	0.0058
633.8477	0.0043
634.0354	-0.0061
634.2231	-0.0046
634.4108	0.0038
634.5985	0.0064
634.7861	-0.0054
634.9738	0.001
635.1614	-0.0011
635.349	-0.0031
635.5366	-0.0123
635.7242	-0.0025
635.9117	0.0073
636.0993	-0.0015
636.2868	0.0036
636.4743	0.0035
636.6618	0.012
636.8492	-0.0027
637.0367	0.0046
637.2241	0.0031
637.4115	0.0008
637.5989	0.0029
637.7863	-0.0078
637.9737	0.0001
638.161	-0.0025
638.3484	-0.0001
638.5357	0.0064
638.723	-0.0001
638.9103	0.0034
639.0975	0.0068
639.2848	0.0046
639.472	0.001
639.6592	0.009
639.8464	0.005
640.0336	0.0073
640.2208	0.0009
640.4079	0.0025
640.595	-0.0023
640.7821	0.0037
640.9692	0.0028
641.1563	0.0054
641.3434	0.0042
641.5304	0.0083
641.7174	0.0079
641.9044	0.0113
642.0914	0.0166
642.2784	0.009
642.4653	0.0142
642.6523	0.0042
642.8392	-0.0026
643.0261	0.0038
643.213	0.0076
643.3999	-0.004
643.5867	-0.0032
643.7735	0.0005
643.9604	-0.0055
644.1472	0.0016
644.3339	0.0051
644.5207	0.0074
644.7075	-0.0024
644.8942	0.0053
645.0809	0.0075
645.2676	0.0031
645.4543	-0.0034
645.6409	0.0014
645.8276	0.0021
646.0142	0.0057
646.2008	0.0026
646.3874	-0.0026
646.574	-0.002
646.7605	-0.0099
646.9471	-0.0097
647.1336	0.0001
647.3201	-0.0038
647.5066	-0.002
647.6931	0.0063
647.8795	0.0016
648.0659	0.0062
648.2524	0.0096
648.4388	-0.005
648.6252	0.002
648.8115	-0.0024
648.9979	0.0005
649.1842	-0.0032
649.3705	0.0106
649.5568	0.0023
649.7431	0.0047
649.9294	-0.0025
650.1156	0.0001
650.3018	-0.0038
650.488	0.0009
650.6742	-0.0013
650.8604	0.0008
651.0466	-0.0096
651.2327	-0.0027
651.4188	-0.0016
651.6049	0.0001
651.791	-0.0034
651.9771	0.0052
652.1632	0.0065
652.3492	0.0074
652.5352	0.0002
652.7212	-0.0033
652.9072	0.0025
653.0932	0.0054
653.2791	-0.0046
653.465	0.0018
653.651	-0.0037
653.8369	0.0024
654.0227	-0.0007
654.2086	0.0041
654.3944	0.0074
654.5803	0.0036
654.7661	-0.0002
654.9519	0.0047
655.1377	-0.0061
655.3234	-0.0008
655.5092	-0.0011
655.6949	-0.0069
655.8806	-0.0056
656.0663	-0.0032
656.2519	0.0016
656.4376	0.0015
656.6232	0.0044
656.8088	-0.0007
656.9945	0.0004
657.18	0.0049
657.3656	0.0065
657.5511	-0.0033
657.7367	-0.0011
657.9222	0.0091
658.1077	0.0038
658.2932	0.0022
658.4786	-0.0081
658.6641	0.0027
658.8495	-0.0027
659.0349	-0.0009
659.2203	0.0145
659.4057	0.0012
659.591	0.0009
659.7764	-0.0008
659.9617	0.0013
660.147	-0.0054
660.3323	-0.0006
660.5176	0.0115
660.7028	0.0017
660.888	0.0011
661.0733	0.0015
661.2585	-0.0066
661.4436	0.0028
661.6288	-0.0013
661.8139	-0.0068
661.9991	0.0018
662.1842	-0.0001
662.3693	-0.0014
662.5544	0
662.7394	0.0053
662.9245	-0.0005
663.1095	0.0044
663.2945	0.0086
663.4795	0.0019
663.6644	0.0031
663.8494	0.0027
664.0343	0.0049
664.2193	-0.0041
664.4042	-0.0054
664.589	-0.0082
664.7739	-0.003
664.9587	-0.0053
665.1436	-0.0095
665.3284	0.0029
665.5132	-0.01
665.698	-0.0046
665.8827	-0.0016
666.0675	-0.0046
666.2522	-0.0091
666.4369	0.0034
666.6216	0.004
666.8063	-0.0046
666.9909	-0.0034
667.1756	-0.0017
667.3602	-0.0009
667.5448	-0.0033
667.7294	0.0052
667.9139	0.0104
668.0985	0.0143
668.283	-0.0031
668.4675	-0.0044
668.652	-0.0008
668.8365	0.0009
669.0209	0.0042
669.2054	0.0061
669.3898	0.0022
669.5742	-0.0027
669.7586	0.0091
669.943	0.0137
670.1273	-0.0025
670.3117	0.0007
670.496	0.0019
670.6803	-0.0007
670.8646	0.0039
671.0488	-0.0007
671.2331	0.0042
671.4173	0.0032
671.6015	-0.0056
671.7857	0.003
671.9699	-0.0022
672.1541	0.0091
672.3382	0.0064
672.5223	0.0085
672.7064	0.0059
672.8905	0.009
673.0746	0.0012
673.2587	-0.0023
673.4427	0.0049
673.6267	0.0096
673.8107	0.0053
673.9947	0.0004
674.1787	0.0049
674.3626	-0.0015
674.5465	0.0055
674.7304	0.0016
674.9143	0.0035
675.0982	0.0045
675.2821	-0.0058
675.4659	0.0072
675.6497	0.0015
675.8335	-0.004
676.0173	-0
676.2011	-0.0004
676.3849	0.0004
676.5686	-0.0065
676.7523	0.0031
676.936	0.0043
677.1197	-0.0002
677.3034	-0.0097
677.487	0.0045
677.6706	0.0027
677.8542	0.0014
678.0378	-0
678.2214	0.0004
678.405	-0.0066
678.5885	-0.0024
678.772	0.0074
678.9555	-0.0045
679.139	0.0024
679.3225	-0.0011
679.5059	0.0017
679.6894	0.0014
679.8728	0.007
680.0562	-0.0088
680.2395	-0.0028
680.4229	0.0006
680.6062	0.001
680.7896	0.002
680.9729	-0.0025
681.1562	0.0037
681.3394	0.0054
681.5227	-0.0092
681.7059	0.0032
681.8891	0.0029
682.0723	0.0059
682.2555	0.0042
682.4387	-0.0011
682.6218	-0.0068
682.805	0.0053
682.9881	0.0007
683.1712	-0.0043
683.3542	-0.0007
683.5373	0.0032
683.7203	-0.0055
683.9034	-0.0049
684.0864	-0.005
684.2694	-0.0041
684.4523	0.0039
684.6353	-0.0109
684.8182	0.0037
685.0011	0.0013
685.184	0.0022
685.3669	0.0001
685.5498	0.0029
685.7326	0.0058
685.9154	-0.0032
686.0982	0.0115
686.281	0.0081
686.4638	0.0099
686.6465	-0.0094
686.8293	-0.0024
687.012	0.005
687.1947	-0.0104
687.3774	0.0047
687.56	-0.0087
687.7427	0.0058
687.9253	-0.0061
688.1079	0.0001
688.2905	0.006
688.4731	-0
688.6556	-0.0073
688.8382	0.0019
689.0207	-0.0044
689.2032	-0.0147
689.3857	-0.0098
689.5681	0.0017
689.7506	-0.0103
689.933	-0.0038
690.1154	-0.0072
690.2978	-0.0056
690.4802	0.0002
690.6626	-0.0103
690.8449	-0.0046
691.0272	-0.005
691.2095	-0.0063
691.3918	-0.0065
691.5741	-0.0013
691.7563	-0.0018
691.9386	0.0055
692.1208	-0.0055
692.303	-0.0011
692.4852	-0.0029
692.6673	0.0006
692.8495	-0.0023
693.0316	0.0028
693.2137	-0.0037
693.3958	0.0053
693.5778	0.0033
693.7599	-0.0053
693.9419	0.0016
694.1239	-0.0003
694.3059	-0.0053
694.4879	0.0037
694.6699	0.0108
694.8518	0.0102
695.0337	0.004
695.2157	0.006
695.3975	-0.0019
695.5794	0.0098
695.7613	0.0042
695.9431	0.0011
696.1249	0.001
696.3067	-0.0015
696.4885	0.0011
696.6703	-0.0063
696.852	0.0056
697.0337	0.002
697.2154	0.0011
697.3971	0.0037
697.5788	0.0062
697.7605	0.0062
697.9421	-0.0009
698.1237	0.0063
698.3053	-0.0017
698.4869	-0
698.6685	-0.0085
698.85	-0.0033
699.0315	0.0125
699.213	-0.0072
699.3945	0.0013
699.576	0.0035
699.7575	-0.0039
699.9389	0.0068
700.1203	-0.0039
700.3017	-0.0057
700.4831	-0.0065
700.6645	-0.0061
700.8458	0.0043
701.0271	-0.0057
701.2084	0.0065
701.3897	-0.0016
701.571	0.0046
701.7523	-0.0075
701.9335	0.0011
702.1147	0.0049
702.2959	0.0072
702.4771	0.0006
702.6583	0.002
702.8394	-0.0038
703.0205	0.0053
703.2016	-0.0102
703.3827	-0.0081
703.5638	0.0106
703.7449	0.005
703.9259	0.0063
704.1069	-0.0022
704.2879	-0.0014
704.4689	0.0044
704.6499	-0.0009
704.8308	0.004
705.0117	-0.0028
705.1927	0.005
705.3735	-0.0056
705.5544	-0.0018
705.7353	-0.0008
705.9161	-0.0086
706.0969	-0.0119
706.2777	0.0004
706.4585	-0.0041
706.6393	-0.0037
706.82	-0.0061
707.0007	0.0021
707.1815	0.0054
707.3621	0.0096
707.5428	0.0041
707.7235	0.0014
707.9041	-0.0065
708.0847	-0.0177
708.2653	-0.004
708.4459	-0.0088
708.6265	-0.0039
708.807	0.0026
708.9875	-0.0061
709.168	-0.0078
709.3485	-0.0088
709.529	-0.0025
709.7095	-0.014
709.8899	-0.0039
710.0703	-0.0047
710.2507	0.0046
710.4311	-0.0022
710.6115	-0.0105
710.7918	-0.0094
710.9721	0.004
711.1524	-0.0046
711.3327	0.0018
711.513	-0.0007
711.6932	0.0048
711.8735	0.0104
712.0537	0.0019
712.2339	0.0027
712.4141	-0.0062
712.5942	0.0014
712.7744	0.0003
712.9545	-0.0085
713.1346	-0.009
713.3147	-0.0021
713.4947	-0.0001
713.6748	-0.0026
713.8548	-0.0053
714.0348	-0.011
714.2148	-0.0131
714.3948	0.0058
714.5748	-0.0029
714.7547	-0.007
714.9346	0.0006
715.1145	-0.0006
715.2944	-0.0079
715.4743	-0.0033
715.6541	-0.0145
715.834	0.0018
716.0138	-0.0006
716.1936	-0.0122
716.3733	-0.012
716.5531	0.0012
716.7328	-0.0042
716.9126	-0.0063
717.0923	0.0028
717.2719	-0.0022
717.4516	0.0035
717.6312	0.0095
717.8109	-0.0075
717.9905	-0.0008
718.1701	-0.0108
718.3496	-0.0112
718.5292	0.0005
718.7087	-0.0102
718.8882	0.0024
719.0677	-0.0063
719.2472	-0.0038
719.4267	0.0071
719.6061	-0.0015
719.7856	0.0063
719.965	0.0089
720.1443	-0.001
720.3237	0.0138
720.5031	-0.0023
720.6824	0.0121
720.8617	0.0045
721.041	0.0009
721.2203	0.0133
721.3995	0.0022
721.5788	0.0039
721.758	-0.0042
721.9372	-0.0042
722.1164	-0.0055
722.2956	0.0002
722.4747	-0.0035
722.6538	-0.004
722.8329	0.0154
723.012	0.0069
723.1911	0.0012
723.3702	-0.0044
723.5492	0.0066
723.7282	0.0075
723.9072	-0.0014
724.0862	-0.0034
724.2652	0.0035
724.4441	0.0118
724.623	-0.003
724.8019	-0.0002
724.9808	-0.0033
725.1597	-0.0082
725.3385	0.0048
725.5174	0.0057
725.6962	-0.007
725.875	-0.0069
726.0538	-0.0004
726.2325	-0.0004
726.4112	-0.0041
726.59	-0.0014
726.7687	-0.0083
726.9474	0.0063
727.126	0.0002
727.3047	-0.0035
727.4833	-0.0045
727.6619	-0.0018
727.8405	-0.0027
728.0191	-0.0018
728.1976	0.0027
728.3762	0.0025
728.5547	0.0048
728.7332	-0.0095
728.9116	0.0018
729.0901	0.0036
729.2686	-0.0068
729.447	0.0052
729.6254	-0.0058
729.8038	-0.0087
729.9821	-0.0075
730.1605	-0.0004
730.3388	-0.0056
730.5171	-0.0031
730.6954	-0.0031
730.8737	0.0081
731.0519	0.0026
731.2302	-0.0025
731.4084	0.0049
731.5866	-0.0042
731.7648	-0.0058
731.9429	-0.0071
732.1211	-0.0099
732.2992	-0.0015
732.4773	-0.0083
732.6554	-0.0072
732.8335	-0.0049
733.0115	-0.0041
733.1896	0.0035
733.3676	-0.0151
733.5456	0.0061
733.7235	0.0031
733.9015	-0.0023
734.0794	0.0025
734.2574	-0.0077
734.4353	0.0057
734.6131	0.006
734.791	0.0021
734.9689	0.0012
735.1467	0.0013
735.3245	-0.0104
735.5023	-0.0008
735.68	-0.0056
735.8578	-0.0026
736.0355	-0.0157
736.2132	-0.0079
736.3909	-0.0054
736.5686	-0.009
736.7463	0
736.9239	-0.002
737.1015	-0.004
737.2791	-0.004
737.4567	-0.0007
737.6343	-0.0019
737.8118	-0.0014
737.9894	0.0053
738.1669	-0.0085
738.3444	-0.0121
738.5218	0.0087
738.6993	0.0054
738.8767	-0.003
739.0541	0.0093
739.2315	-0.0096
739.4089	-0.0021
739.5863	0.0053
739.7636	-0.0005
739.9409	-0.003
740.1182	0.0104
740.2955	-0.0005
740.4728	-0.0049
740.65	-0.0108
740.8272	-0.0107
741.0044	-0.0034
741.1816	0.0008
741.3588	0.0001
741.5359	0.0014
741.7131	-0.014
741.8902	-0.0019
742.0673	-0.001
742.2444	-0.0114
742.4214	-0.0076
742.5985	-0.006
742.7755	-0.0066
742.9525	-0.0165
743.1295	-0.0046
743.3064	-0.0128
743.4834	-0.0064
743.6603	-0.0056
743.8372	-0.0104
744.0141	-0.0056
744.191	-0.001
744.3678	-0.0099
744.5446	0.0006
744.7215	-0.0069
744.8982	-0.0134
745.075	-0.0113
745.2518	0.0028
745.4285	-0.0001
745.6052	-0.0079
745.7819	-0.0078
745.9586	-0.0057
746.1353	0.0028
746.3119	-0.0111
746.4885	-0.0016
746.6651	-0.007
746.8417	0.0019
747.0183	0.0012
747.1948	-0.0068
747.3714	0.0039
747.5479	0.0031
747.7244	-0.0025
747.9008	0.0047
748.0773	-0.0016
748.2537	-0.002
748.4301	-0.0042
748.6065	0.0099
748.7829	0.0055
748.9593	-0.0039
749.1356	-0.0008
749.3119	0.0139
749.4882	-0.0125
749.6645	0.0023
749.8408	-0.005
750.017	-0.0079
750.1933	-0.0046
750.3695	-0.0068
750.5457	0.001
750.7218	-0.0057
750.898	0.006
751.0741	-0.0067
751.2502	-0.01
751.4263	-0.0067
751.6024	0.0014
751.7784	-0.0044
751.9545	-0.0069
752.1305	-0.0011
752.3065	-0.0078
752.4825	-0.0036
752.6584	-0.0026
752.8344	-0.0041
753.0103	-0.01
753.1862	-0.0066
753.3621	-0.0003
753.5379	-0.006
753.7138	-0.0043
753.8896	-0.001
754.0654	0.0149
754.2412	0.0057
754.417	0.0051
754.5927	0.0007
754.7685	0.0031
754.9442	0.0027
755.1199	0.0177
755.2956	-0.0088
755.4712	0.0075
755.6469	0.0055
755.8225	-0.0032
755.9981	-0.0008
756.1736	0.0096
756.3492	-0.0043
756.5248	-0.0039
756.7003	0.0048
756.8758	0.0027
757.0513	-0.0026
757.2267	0.0005
757.4022	-0
757.5776	-0.0034
757.753	0.0073
757.9284	-0.0042
758.1038	0.0136
758.2791	0.0059
758.4545	-0.0172
758.6298	-0.0046
758.8051	-0.0035
758.9803	0.0027
759.1556	0.0008
759.3308	-0.0111
759.506	0.0062
759.6812	0.0079
759.8564	0.0113
760.0316	0.0019
760.2067	0.0068
760.3819	-0.0034
760.557	0.0129
760.732	-0.0032
760.9071	-0.0073
761.0821	0.0032
761.2572	0.0085
761.4322	0.0003
761.6072	-0.005
761.7821	-0.0006
761.9571	0.012
762.132	0.0062
762.3069	-0.0178
762.4818	0.004
762.6567	0.0019
762.8316	0.0022
763.0064	0.0137
763.1812	0.0029
763.356	-0.0022
763.5308	-0.0085
763.7055	0.0001
763.8803	-0.0016
764.055	-0.0021
764.2297	-0.0102
764.4044	-0.0128
764.579	0.0003
764.7537	-0.0155
764.9283	0.0024
765.1029	-0.0048
765.2775	-0.0006
765.4521	-0.0018
765.6266	0.001
765.8011	0.0029
765.9756	-0.0064
766.1501	0.0085
766.3246	0.0047
766.4991	0.0045
766.6735	0.0005
766.8479	-0.0046
767.0223	0.0111
767.1967	-0.0011
767.371	0.0083
767.5454	-0.003
767.7197	-0.0081
767.894	-0.0062
768.0683	-0.0007
768.2425	0.003
768.4168	-0.0093
768.591	-0.0047
768.7652	0.0023
768.9394	-0.0055
769.1135	0.0011
769.2877	0.016
769.4618	-0.0068
769.6359	-0.0006
769.81	0.0044
769.984	-0.0002
770.1581	-0.009
770.3321	0.0001
770.5061	-0.0005
770.6801	-0.0009
770.8541	0.0066
771.028	0.0114
771.202	0.0005
771.3759	0.0018
771.5498	-0.0026
771.7236	-0.0059
771.8975	-0.0002
772.0713	0.0211
772.2451	-0.003
772.4189	0.0029
772.5927	0.0068
772.7665	-0.0014
772.9402	0.004
773.1139	0.0033
773.2876	-0.0107
773.4613	0.0061
773.635	0.0101
773.8086	-0.0073
773.9822	0.0136
774.1558	0.0074
774.3294	-0.0165
774.503	0.0003
774.6765	0.0046
774.8501	0.0075
775.0236	0.0033
775.1971	0.0079
775.3705	-0.0039
775.544	0.0114
775.7174	-0.0193
775.8908	-0.0129
776.0642	0.0026
776.2376	-0.0045
776.4109	-0.0011
776.5843	-0.0093
776.7576	0.0033
776.9309	-0.0019
777.1041	0.0044
777.2774	0.0138
777.4506	0.0021
777.6238	-0.0085
777.797	0.0059
777.9702	-0.0006
778.1434	-0.0017
778.3165	-0.0143
778.4896	-0.0098
778.6627	0.0029
778.8358	-0.0028
779.0089	-0.0105
779.1819	0.0016
779.3549	0.0083
779.5279	0.0072
779.7009	-0.0024
779.8739	-0.0013
780.0468	0.0077
780.2197	0.0051
780.3926	-0.0098
780.5655	0.0014
780.7384	0.0068
780.9112	-0.0042
781.0841	-0.0109
781.2569	0.0129
781.4297	0.0041
781.6024	0.0168
781.7752	0.0008
781.9479	0.014
782.1206	0.0071
782.2933	-0.0027
782.466	0.0143
782.6386	0.0108
782.8113	0.0055
782.9839	0.0031
783.1565	0.0058
783.329	-0.0003
783.5016	-0.0004
783.6741	0.0042
783.8466	-0.0104
784.0191	0.0114
784.1916	-0.01
784.3641	-0.0071
784.5365	0.0041
784.7089	-0.0113
784.8813	-0.0034
785.0537	-0.0055
785.2261	-0.0033
785.3984	-0.0075
785.5707	-0.0037
785.743	-0.008
785.9153	-0.0046
786.0876	0.0005
786.2598	-0.0069
786.432	-0.0039
786.6042	-0.0058
786.7764	-0.0063
786.9486	0.0079
787.1207	0.0036
787.2928	0.0002
787.4649	0.0015
787.637	-0.0023
787.8091	-0.015
787.9811	-0.0119
788.1532	-0.0027
788.3252	0.0011
788.4972	-0.0073
788.6691	-0.0045
788.8411	-0.0024
789.013	-0.0081
789.1849	-0.0009
789.3568	-0.01
789.5287	-0.0007
789.7005	-0.0133
789.8723	-0.0094
790.0442	0.0141
790.2159	-0.0013
790.3877	-0.0016
790.5595	-0.0352
790.7312	0.0004
790.9029	-0.0005
791.0746	-0.0076
791.2463	0.0038
791.4179	-0.0017
791.5896	-0.0245
791.7612	0.0017
791.9328	0.0038
792.1044	-0.0128
792.2759	-0.0202
792.4474	-0.0024
792.619	0.0031
792.7905	0.0169
792.9619	0.0003
793.1334	-0.0074
793.3048	0.0061
793.4762	0.0079
793.6476	0.0004
793.819	-0.0074
793.9904	0.0094
794.1617	-0.0088
794.333	-0.0057
794.5043	-0.0107
794.6756	0.0034
794.8469	-0.0099
795.0181	-0.0078
795.1893	-0.0044
795.3605	0.0184
795.5317	0.002
795.7029	-0.0099
795.874	-0.0085
796.0452	-0.0033
796.2163	0.0035
796.3873	0.0076
796.5584	0.0094
796.7294	0.0113
796.9005	0.0013
797.0715	-0.0021
797.2425	0.0003
797.4134	-0.0042
797.5844	0.0036
797.7553	-0.0019
797.9262	0.0003
798.0971	0.0106
798.2679	-0.008
798.4388	-0.0175
798.6096	-0.013
798.7804	-0.0055
798.9512	-0.0102
799.122	-0.0051
799.2927	0.0076
799.4635	0.0051
799.6342	-0.0235
799.8049	-0.011
799.9755	-0.0106
800.1462	0.0019
800.3168	0.0121
800.4874	0.0036
800.658	0.01
800.8286	0.0088
800.9991	0.0231
801.1696	0.006
801.3402	0.0038
801.5106	0.0148
801.6811	0.02
801.8516	0.0014
802.022	-0.0023
802.1924	0.0036
802.3628	0.0077
802.5332	0.0162
802.7035	0.0273
802.8739	0.0025
803.0442	0.0093
803.2145	0.006
803.3847	-0.0224
803.555	-0.0079
803.7252	0.0004
803.8954	-0.0132
804.0656	-0.0108
804.2358	-0.0029
804.4059	0.0114
804.5761	0.0001
804.7462	-0.016
804.9163	-0.0106
805.0864	-0.0057
805.2564	-0.0083
805.4264	0.0012
805.5965	0.001
805.7665	0.0075
805.9364	0.0119
806.1064	0.0251
806.2763	0.0171
806.4462	0.0195
806.6161	0.0038
806.786	0.0081
806.9559	-0.0143
807.1257	-0.0063
807.2955	-0.001
807.4653	-0.0177
807.6351	-0.0088
807.8048	0.0061
807.9746	0.0112
808.1443	-0.0069
808.314	-0.0128
808.4837	-0.0138
808.6533	-0.0046
808.8229	0.0475
808.9926	0.0012
809.1622	0.0103
809.3317	-0.005
809.5013	-0.0006
809.6708	0.0041
809.8403	0.0104
810.0098	-0.0185
810.1793	0.0065
810.3488	-0.0068
810.5182	0.001
810.6876	0.0017
810.857	-0.0041
811.0264	0.0204
811.1958	0.0255
811.3651	-0.0094
811.5344	-0.0048
811.7037	-0.0022
811.873	-0.0168
812.0422	-0.0022
812.2115	-0.0076
812.3807	-0.0149
812.5499	-0.0033
812.7191	-0.018
812.8882	-0.0179
813.0574	-0.0104
813.2265	-0.0052
813.3956	-0.0044
813.5646	-0.0017
813.7337	-0.0238
813.9027	0.0095
814.0718	0.0138
814.2407	-0.0017
814.4097	-0.0043
814.5787	-0.0007
814.7476	-0.0299
814.9165	-0.0133
815.0854	-0.0189
815.2543	0.0002
815.4232	-0.0004
815.592	0.0031
815.7608	0.0005
815.9296	0.0094
816.0984	0.0052
816.2671	-0.006
816.4359	0.0159
816.6046	0.0052
816.7733	-0.0115
816.942	-0.0195
817.1106	-0.0201
817.2793	-0.0014
817.4479	-0.0095
817.6165	0.0051
817.785	-0.0029
817.9536	-0.0124
818.1221	-0.0027
818.2906	0.0041
818.4591	-0.0088
818.6276	-0.0254
818.7961	-0.0004
818.9645	0.0006
819.1329	-0.0011
819.3013	0.0221
819.4697	0.0313
819.638	-0.0032
819.8064	0.0085
819.9747	0.002
820.143	0.0235
820.3113	-0.0367
820.4795	0.0062
820.6477	0.0051
820.816	0.0044
820.9842	-0.0037
821.1523	-0.0198
821.3205	-0.0068
821.4886	-0.0083
821.6567	-0.0104
821.8248	0.0164
821.9929	0.0254
822.1609	0.0148
822.329	0.0133
822.497	0.0171
822.665	-0.0083
822.833	-0.007
823.0009	0.0117
823.1688	0.0078
823.3367	0.0092
823.5046	0.0018
823.6725	0.0315
823.8404	0.0034
824.0082	-0.0177
824.176	0.0225
824.3438	-0.0076
824.5116	-0.0394
824.6793	0.0081
824.847	-0.0339
825.0147	-0.0103
825.1824	0.0094
825.3501	-0.0037
825.5177	-0.0089
825.6854	-0.0023
825.853	0.0057
826.0206	-0.022
826.1881	0.0156
826.3557	-0.0467
826.5232	0.0262
826.6907	-0.0343
826.8582	-0.0029
827.0257	-0.033
827.1931	-0.0381
827.3605	-0.0002
827.528	-0.0043
827.6953	-0.0042
827.8627	-0.0016
828.03	0.0176
828.1974	0.0017
828.3647	-0.0507
828.532	-0.0176
828.6992	-0.0051
828.8665	-0.0082
829.0337	-0.0228
829.2009	0.0224
829.3681	0.0029
829.5352	0.0284
829.7024	-0.0431
829.8695	0.006
830.0366	0.0385
830.2037	-0.0137
830.3707	0.0123
830.5378	0.0319
830.7048	0.0285
830.8718	-0.0281
831.0388	-0.0081
831.2057	0.0167
831.3727	0.0088
831.5396	-0.0142
831.7065	0.0109
831.8734	-0.0007
832.0402	-0.0328
832.2071	-0.0168
832.3739	-0.0178
832.5407	-0.0296
832.7075	-0.0113
832.8742	0.0212
833.041	-0.014
833.2077	0.0041
833.3744	0.0266
833.541	-0.015
833.7077	-0.039
833.8743	-0.0275
834.0409	-0.0075
834.2075	0.01
834.3741	0.0238
834.5407	0.0101
834.7072	-0.0201
834.8737	-0.0055
835.0402	0.0038
835.2067	0.0042
835.3731	-0.0234
835.5395	0.0101
835.706	-0.0054
835.8723	-0.0328
836.0387	0.0401
836.2051	0.0082
836.3714	-0.0163
836.5377	0.0371
836.704	-0.0397
836.8703	-0.0087
837.0365	-0.0216
837.2027	0.0295
837.3689	-0.0093
837.5351	-0.0157
837.7013	-0.0416
837.8674	-0.0644
838.0335	-0.0045
838.1997	-0.0003
838.3657	-0.0438
838.5318	-0.0075
838.6978	0.0342
838.8639	0.0313
839.0299	-0.0105
839.1958	0.0108
839.3618	0.0163
839.5277	-0.0324
839.6937	-0.0011
839.8596	-0.0317
840.0254	-0.0252
840.1913	0.0367
840.3571	0.0497
840.523	-0.0226
840.6888	-0.024
840.8545	-0.0477
841.0203	0.0077
841.186	-0.0541
841.3517	0.058
841.5174	0.0258
841.6831	-0.0551
841.8488	-0.0136
842.0144	0.0389
842.18	0.0006
842.3456	0.0016
842.5112	0.0389
842.6767	-0.0607
842.8422	-0.0171
843.0077	-0.0434
843.1732	-0.035
843.3387	-0.0362
843.5042	-0.0264
843.6696	0.0561
843.835	-0.0296
844.0004	0.0736
844.1657	-0.018
844.3311	-0.073
844.4964	-0.1403
844.6617	0.0086
844.827	-0.0174
844.9923	-0.0365
845.1575	0.0117
845.3227	-0.0474
845.4879	-0.0071
845.6531	-0.0557
845.8183	-0.0583
845.9834	-0.0282
846.1485	-0.0111
846.3136	-0.0495
846.4787	-0.0276
846.6438	0.0651
846.8088	-0.0437
846.9738	-0.0562
847.1388	-0.0741
847.3038	-0.0714
847.4687	-0.1575
847.6337	0.0194
847.7986	0.0076
847.9635	-0.0569
848.1284	-0.0005
848.2932	0.0348
848.458	-0.1084
848.6228	-0.0046
848.7876	0.0694
848.9524	-0.0337
849.1172	-0.0959
849.2819	0.056
849.4466	-0.0793
849.6113	-0.1324
849.7759	-0.0278
849.9406	-0.0873
850.1052	0.0673
850.2698	-0.0655
850.4344	-0.0593
850.599	-0.0939
850.7635	0.0641
850.928	-0.094
851.0925	-0.058
851.257	0.0325
851.4215	0.0455
851.5859	-0.1154
851.7503	0.0231
851.9147	-0.0198
852.0791	-0.0262
852.2434	-0.0063
852.4078	0.0268
852.5721	0.1088
852.7364	-0.0321
852.9007	-0.1066
853.0649	0.0113
853.2291	-0.048
853.3934	-0.0689
853.5575	-0.0157
853.7217	0.0103
853.8859	0.011
854.05	-0.0868
854.2141	0.0044
854.3782	-0.0947
854.5423	0.015
854.7063	0.1615
854.8703	-0.0479
855.0343	0.0487
855.1983	-0.1743
855.3623	0.2882
855.5262	-0.0876
855.6901	-0.0447
855.854	-0.0476
856.0179	0.0558
856.1818	-0.0372
856.3456	-0.0669
856.5094	-0.1256
856.6732	-0.0744
856.837	0.0447
857.0008	0.0105
857.1645	-0.0246
857.3282	-0.1931
857.4919	-0.0167
857.6556	0.1202
857.8192	0.0474
857.9828	-0.0689
858.1465	-0.009
858.31	-0.0555
858.4736	-0.0599
858.6372	-0.209
858.8007	-0.2215
858.9642	0.0315
859.1277	0.0606
859.2911	0.2455
859.4546	-0.062
859.618	-0.3322
859.7814	-0.0861
859.9448	-0.0909
860.1081	-0.1127
860.2715	0.1331
860.4348	0.1618
860.5981	-0.1706
860.7614	-0.0072
860.9246	-0.1563
861.0879	-0.0988
861.2511	-0.0638
861.4143	-0.2398
861.5774	0.0714
861.7406	-0.2529
861.9037	-0.1394
862.0668	-0.0088
862.2299	0.1027
862.393	-0.5244
862.556	-0.0661
862.7191	-0.0582
862.8821	-0.0877
863.0451	-0.2137
863.208	-0.0217
863.371	0.0711
863.5339	0.0698
863.6968	-0.0861
863.8597	-0.2476
864.0225	0.0754
864.1854	-0.099
864.3482	0.1872
864.511	0.368
864.6737	0.3813
864.8365	0.1363
864.9992	0.174
865.1619	-0.5681
865.3246	-0.1688
865.4873	-0.0255
865.65	-0.332
865.8126	0.0384
865.9752	0.0497
866.1378	0.428
866.3004	0.0544
866.4629	0.2167
866.6254	-0.3984
866.7879	0.3224
866.9504	1.5357
867.1129	-0
867.2753	-0.016
867.4377	0.063
867.6001	-0.2943
867.7625	1.6175
867.9249	-0.4401
868.0872	-0.2
868.2495	-0.008
868.4118	-0.2786
868.5741	-0.3214
868.7363	-0.3023
868.8986	0.0418
869.0608	-0.1802
869.223	0.4705
869.3851	-0
869.5473	-0
869.7094	0.1326
869.8715	0.1074
870.0336	-0
870.1957	0.0295
870.3577	-0
870.5197	-0.0885
870.6817	-0.2484
870.8437	-0.0863
871.0057	-0
871.1676	-0
871.3295	-0.6411
871.4914	-0
871.6533	-0.363
871.8151	-0.6972
871.977	-0
872.1388	0.5252
872.3006	-0.053
872.4623	-0
872.6241	-0
872.7858	-0.3088
872.9475	-0.2465
873.1092	0.0388
873.2709	0.0651
873.4325	0.0763
873.5941	-0
873.7557	-0
873.9173	-0.4178
874.0789	0.8718
874.2404	-0.9406
874.4019	-0.073
874.5634	0.2218
874.7249	0.0556
874.8863	0.0075
875.0478	-0.0145
875.2092	-0
875.3706	-0.0316
875.5319	-0.9542
875.6933	-0
875.8546	0.1522
876.0159	-0
876.1772	0.4387
876.3385	-0
876.4997	0.1577
876.6609	-0.3339
876.8221	-0.5727
876.9833	0.5331
877.1445	-0
877.3056	0.302
877.4667	0.3053
877.6278	0.0337
877.7889	-0.7411
877.9499	-0
878.111	-0
878.272	-0
878.433	-0
878.5939	-0
878.7549	0.4976
878.9158	-0
879.0767	0.2844
879.2376	1.7508
879.3984	-0.0265
879.5593	-0
879.7201	0.0333
879.8809	-0.8821
880.0417	-0.3931
880.2024	-0.0162
880.3632	-0.7249
880.5239	-0.0323
880.6846	0.0086
880.8452	-1.8388
881.0059	-0
881.1665	-0
881.3271	-0
881.4877	-0.5783
881.6483	-0.7527
881.8088	-0.1727
881.9693	0.1169
882.1298	0.1169
882.2903	0.1169
