Data from MonoPyChalIsomerACN10uM410nmA_Absorbance_14-53-28-273.txt Node
Date: Fri Jul 05 14:53:28 BST 2024
User: LASERRRRR
Spectrometer: FLMT03099
Trigger mode: 0
Integration Time (sec): 1.000000E-1
Scans to average: 1
Electric dark correction enabled: true
Nonlinearity correction enabled: false
Boxcar width: 0
XAxis mode: Wavelengths
Number of Pixels in Spectrum: 3648
>>>>>Begin Spectral Data<<<<<
179.3399	-0.0178
179.5586	-0.0178
179.7771	-0.0178
179.9957	0.2728
180.2143	-0
180.4329	0.3972
180.6514	-0
180.8699	-0
181.0885	-0.2805
181.307	0.1906
181.5255	-0
181.744	-0
181.9625	-0
182.181	-0
182.3994	-0
182.6179	-0
182.8363	-0.2259
183.0547	-0.3989
183.2732	0.1252
183.4916	-0.1189
183.71	0.0865
183.9284	0.0918
184.1467	0.0584
184.3651	-0.2165
184.5835	-0.0259
184.8018	0.0179
185.0201	-0.1573
185.2385	-0.0871
185.4568	0.0949
185.6751	0.112
185.8934	0.1545
186.1117	-0.0216
186.3299	0.2123
186.5482	0.1419
186.7664	0.01
186.9847	0.0143
187.2029	0.0787
187.4211	-0.0391
187.6393	0.2418
187.8575	0.0856
188.0757	0.3128
188.2939	0.1128
188.512	-0.0797
188.7302	-0.2056
188.9483	0.0847
189.1665	0.1701
189.3846	-0
189.6027	0.1274
189.8208	0.0978
190.0389	0.2239
190.257	0.0123
190.475	0.2817
190.6931	0.123
190.9111	0.2676
191.1292	0.3661
191.3472	0.3212
191.5652	0.1856
191.7832	0.0879
192.0012	0.3141
192.2192	0.3679
192.4371	0.5294
192.6551	0.1888
192.873	0.2823
193.091	0.2488
193.3089	0.8594
193.5268	0.397
193.7447	0.508
193.9626	0.4619
194.1805	0.4713
194.3984	0.7499
194.6162	0.6314
194.8341	0.5136
195.0519	0.5154
195.2697	0.6923
195.4875	0.6031
195.7054	0.604
195.9231	0.5269
196.1409	0.522
196.3587	0.6261
196.5765	0.4798
196.7942	0.6267
197.012	0.4142
197.2297	0.5615
197.4474	1.5088
197.6651	0.4256
197.8828	0.4902
198.1005	0.6271
198.3182	0.4864
198.5358	0.7093
198.7535	0.6558
198.9711	0.5495
199.1888	0.6089
199.4064	0.6796
199.624	0.5436
199.8416	0.5716
200.0592	0.6019
200.2767	0.6776
200.4943	0.6299
200.7119	0.7591
200.9294	0.6975
201.1469	0.5092
201.3645	0.5247
201.582	0.5835
201.7995	0.5546
202.017	0.6988
202.2344	0.5688
202.4519	0.6719
202.6694	0.6626
202.8868	0.5825
203.1042	0.6696
203.3217	0.7115
203.5391	0.6098
203.7565	0.6594
203.9739	0.6887
204.1913	0.5288
204.4086	0.6566
204.626	0.7238
204.8433	0.6916
205.0607	0.5575
205.278	0.663
205.4953	0.6378
205.7126	0.6375
205.9299	0.7812
206.1472	0.7112
206.3644	0.6077
206.5817	0.7053
206.7989	0.6914
207.0162	0.6377
207.2334	0.5766
207.4506	0.6955
207.6678	0.6032
207.885	0.5724
208.1022	0.6427
208.3194	0.5776
208.5365	0.5664
208.7537	0.5563
208.9708	0.6315
209.1879	0.6467
209.405	0.7104
209.6222	0.6919
209.8392	0.6126
210.0563	0.6605
210.2734	0.6518
210.4905	0.6195
210.7075	0.6207
210.9245	0.5573
211.1416	0.6301
211.3586	0.6633
211.5756	0.5388
211.7926	0.6169
212.0096	0.5853
212.2265	0.5339
212.4435	0.5689
212.6604	0.5575
212.8774	0.6281
213.0943	0.5631
213.3112	0.5617
213.5281	0.5396
213.745	0.4833
213.9619	0.5004
214.1788	0.5013
214.3956	0.4242
214.6125	0.4982
214.8293	0.4321
215.0461	0.4448
215.2629	0.4299
215.4798	0.4613
215.6965	0.4354
215.9133	0.4532
216.1301	0.4071
216.3469	0.4633
216.5636	0.4071
216.7803	0.3787
216.9971	0.3865
217.2138	0.3692
217.4305	0.3394
217.6472	0.3313
217.8639	0.3696
218.0805	0.3482
218.2972	0.2941
218.5138	0.315
218.7305	0.318
218.9471	0.275
219.1637	0.2657
219.3803	0.2588
219.5969	0.2709
219.8135	0.2411
220.0301	0.2804
220.2466	0.2734
220.4632	0.27
220.6797	0.216
220.8962	0.2294
221.1127	0.249
221.3292	0.2495
221.5457	0.2392
221.7622	0.2409
221.9787	0.2387
222.1951	0.2166
222.4116	0.2632
222.628	0.2421
222.8444	0.2449
223.0608	0.2686
223.2772	0.2309
223.4936	0.2381
223.71	0.2548
223.9264	0.251
224.1427	0.2554
224.3591	0.2484
224.5754	0.2523
224.7917	0.258
225.008	0.2658
225.2243	0.2627
225.4406	0.269
225.6569	0.2596
225.8732	0.2741
226.0894	0.2451
226.3057	0.2637
226.5219	0.2925
226.7381	0.2795
226.9543	0.286
227.1705	0.2724
227.3867	0.2709
227.6029	0.2956
227.8191	0.2725
228.0352	0.2932
228.2513	0.2982
228.4675	0.3047
228.6836	0.2906
228.8997	0.2786
229.1158	0.3062
229.3319	0.2993
229.548	0.311
229.764	0.2973
229.9801	0.3145
230.1961	0.3068
230.4121	0.3308
230.6282	0.3131
230.8442	0.3173
231.0602	0.3489
231.2761	0.3464
231.4921	0.3302
231.7081	0.3459
231.924	0.3273
232.14	0.334
232.3559	0.3377
232.5718	0.3421
232.7877	0.362
233.0036	0.3341
233.2195	0.3597
233.4353	0.3719
233.6512	0.3401
233.867	0.3575
234.0829	0.3575
234.2987	0.3523
234.5145	0.3688
234.7303	0.3455
234.9461	0.3848
235.1619	0.3555
235.3776	0.3875
235.5934	0.381
235.8091	0.3548
236.0249	0.3639
236.2406	0.3742
236.4563	0.3764
236.672	0.39
236.8877	0.3773
237.1034	0.3782
237.319	0.3841
237.5347	0.3885
237.7503	0.3858
237.966	0.3854
238.1816	0.3946
238.3972	0.3859
238.6128	0.3664
238.8284	0.388
239.0439	0.403
239.2595	0.3877
239.475	0.4204
239.6906	0.3962
239.9061	0.3905
240.1216	0.385
240.3371	0.4111
240.5526	0.3781
240.7681	0.42
240.9836	0.3984
241.199	0.4156
241.4145	0.3734
241.6299	0.3658
241.8453	0.3766
242.0607	0.3889
242.2761	0.3812
242.4915	0.3694
242.7069	0.3723
242.9223	0.3566
243.1376	0.3494
243.353	0.3475
243.5683	0.354
243.7836	0.3315
243.9989	0.328
244.2142	0.3216
244.4295	0.3207
244.6448	0.3023
244.86	0.294
245.0753	0.2958
245.2905	0.2987
245.5057	0.2826
245.721	0.2769
245.9362	0.2691
246.1514	0.2812
246.3665	0.2663
246.5817	0.2597
246.7969	0.2498
247.012	0.2567
247.2271	0.252
247.4423	0.2594
247.6574	0.2421
247.8725	0.2402
248.0876	0.2294
248.3026	0.2357
248.5177	0.2327
248.7328	0.2227
248.9478	0.2008
249.1628	0.2082
249.3779	0.2244
249.5929	0.2044
249.8079	0.2166
250.0228	0.2009
250.2378	0.193
250.4528	0.2239
250.6677	0.1839
250.8827	0.1948
251.0976	0.1798
251.3125	0.182
251.5274	0.1757
251.7423	0.1781
251.9572	0.196
252.172	0.1765
252.3869	0.1698
252.6017	0.1775
252.8166	0.1624
253.0314	0.1711
253.2462	0.1688
253.461	0.1745
253.6758	0.168
253.8906	0.191
254.1053	0.1713
254.3201	0.1661
254.5348	0.187
254.7496	0.18
254.9643	0.1742
255.179	0.1736
255.3937	0.1546
255.6083	0.1666
255.823	0.1739
256.0377	0.1654
256.2523	0.1653
256.467	0.1521
256.6816	0.1719
256.8962	0.1686
257.1108	0.1603
257.3254	0.1702
257.54	0.1544
257.7545	0.169
257.9691	0.1616
258.1836	0.1631
258.3981	0.1737
258.6127	0.1633
258.8272	0.1549
259.0417	0.1762
259.2561	0.161
259.4706	0.1639
259.6851	0.1679
259.8995	0.151
260.114	0.1628
260.3284	0.1562
260.5428	0.1578
260.7572	0.1645
260.9716	0.1604
261.186	0.155
261.4003	0.1536
261.6147	0.1547
261.829	0.1593
262.0433	0.1627
262.2577	0.164
262.472	0.1638
262.6863	0.1693
262.9005	0.166
263.1148	0.158
263.3291	0.1459
263.5433	0.1613
263.7576	0.162
263.9718	0.156
264.186	0.1624
264.4002	0.1629
264.6144	0.1629
264.8286	0.1689
265.0427	0.1508
265.2569	0.1637
265.471	0.1467
265.6851	0.1487
265.8993	0.1558
266.1134	0.1606
266.3275	0.1534
266.5415	0.1587
266.7556	0.1637
266.9697	0.1673
267.1837	0.1749
267.3978	0.1695
267.6118	0.1664
267.8258	0.1713
268.0398	0.1647
268.2538	0.161
268.4677	0.1687
268.6817	0.1574
268.8957	0.1623
269.1096	0.1604
269.3235	0.1748
269.5374	0.1626
269.7514	0.1659
269.9652	0.1541
270.1791	0.1582
270.393	0.1541
270.6068	0.1591
270.8207	0.1402
271.0345	0.1471
271.2483	0.1599
271.4622	0.1519
271.676	0.1472
271.8897	0.1505
272.1035	0.1457
272.3173	0.1517
272.531	0.146
272.7448	0.1596
272.9585	0.1491
273.1722	0.1491
273.3859	0.1566
273.5996	0.149
273.8133	0.1458
274.0269	0.1526
274.2406	0.1413
274.4542	0.1496
274.6679	0.1335
274.8815	0.1496
275.0951	0.1469
275.3087	0.1625
275.5223	0.1618
275.7358	0.1606
275.9494	0.153
276.1629	0.1434
276.3765	0.1548
276.59	0.1565
276.8035	0.1522
277.017	0.1444
277.2305	0.1466
277.444	0.1593
277.6574	0.1418
277.8709	0.1439
278.0843	0.1442
278.2978	0.1366
278.5112	0.1538
278.7246	0.1464
278.938	0.1543
279.1513	0.1502
279.3647	0.1653
279.5781	0.1491
279.7914	0.1552
280.0047	0.1606
280.2181	0.1507
280.4314	0.1587
280.6447	0.1552
280.8579	0.1545
281.0712	0.1527
281.2845	0.1556
281.4977	0.1533
281.711	0.1569
281.9242	0.1629
282.1374	0.1532
282.3506	0.155
282.5638	0.1635
282.7769	0.1633
282.9901	0.1575
283.2033	0.1648
283.4164	0.1637
283.6295	0.1557
283.8426	0.15
284.0557	0.1507
284.2688	0.162
284.4819	0.1682
284.695	0.1688
284.908	0.1628
285.1211	0.1634
285.3341	0.1528
285.5471	0.1578
285.7601	0.1615
285.9731	0.1432
286.1861	0.1529
286.3991	0.1674
286.612	0.1604
286.825	0.1506
287.0379	0.1607
287.2508	0.1617
287.4637	0.1679
287.6766	0.1414
287.8895	0.1625
288.1024	0.1745
288.3152	0.1485
288.5281	0.1522
288.7409	0.1559
288.9538	0.1586
289.1666	0.1573
289.3794	0.1605
289.5922	0.1551
289.8049	0.1502
290.0177	0.1551
290.2304	0.1559
290.4432	0.1537
290.6559	0.1571
290.8686	0.1588
291.0813	0.1427
291.294	0.1578
291.5067	0.1598
291.7194	0.1613
291.932	0.1745
292.1447	0.1502
292.3573	0.1462
292.5699	0.1505
292.7825	0.1623
292.9951	0.1468
293.2077	0.1558
293.4203	0.1617
293.6328	0.1517
293.8454	0.1477
294.0579	0.1573
294.2704	0.1525
294.4829	0.1439
294.6954	0.1566
294.9079	0.1489
295.1204	0.1454
295.3328	0.1513
295.5453	0.1564
295.7577	0.162
295.9701	0.1466
296.1825	0.1574
296.3949	0.1432
296.6073	0.15
296.8197	0.1426
297.0321	0.1552
297.2444	0.1472
297.4567	0.1544
297.6691	0.1559
297.8814	0.1484
298.0937	0.1555
298.306	0.1699
298.5182	0.1432
298.7305	0.1571
298.9428	0.1476
299.155	0.166
299.3672	0.1438
299.5794	0.1445
299.7916	0.1501
300.0038	0.1543
300.216	0.1537
300.4282	0.1616
300.6403	0.1476
300.8525	0.1523
301.0646	0.1454
301.2767	0.157
301.4888	0.1534
301.7009	0.1524
301.913	0.1575
302.125	0.1487
302.3371	0.1427
302.5491	0.1455
302.7612	0.1572
302.9732	0.1479
303.1852	0.1537
303.3972	0.153
303.6092	0.1404
303.8211	0.1425
304.0331	0.1413
304.245	0.1379
304.457	0.146
304.6689	0.1384
304.8808	0.1582
305.0927	0.1444
305.3046	0.1378
305.5164	0.1505
305.7283	0.1354
305.9401	0.1398
306.152	0.1312
306.3638	0.1495
306.5756	0.1375
306.7874	0.1444
306.9992	0.1481
307.2109	0.1352
307.4227	0.1168
307.6344	0.1321
307.8462	0.1246
308.0579	0.125
308.2696	0.1316
308.4813	0.1212
308.693	0.1201
308.9046	0.1285
309.1163	0.1228
309.328	0.1231
309.5396	0.1149
309.7512	0.113
309.9628	0.1174
310.1744	0.113
310.386	0.1164
310.5976	0.1164
310.8091	0.113
311.0207	0.1112
311.2322	0.1204
311.4437	0.1126
311.6552	0.1161
311.8667	0.1191
312.0782	0.0942
312.2897	0.1062
312.5012	0.1238
312.7126	0.0953
312.924	0.0994
313.1355	0.1083
313.3469	0.1026
313.5583	0.1126
313.7696	0.1024
313.981	0.1072
314.1924	0.0939
314.4037	0.1058
314.6151	0.1114
314.8264	0.0986
315.0377	0.0959
315.249	0.1085
315.4603	0.1084
315.6716	0.0998
315.8828	0.1002
316.0941	0.1001
316.3053	0.088
316.5165	0.0931
316.7277	0.0963
316.9389	0.1065
317.1501	0.0913
317.3613	0.1078
317.5724	0.0804
317.7836	0.1076
317.9947	0.1026
318.2058	0.0986
318.417	0.0951
318.6281	0.0922
318.8391	0.0943
319.0502	0.1022
319.2613	0.0996
319.4723	0.1024
319.6834	0.0963
319.8944	0.0929
320.1054	0.1027
320.3164	0.1077
320.5274	0.0999
320.7383	0.0985
320.9493	0.0944
321.1602	0.1144
321.3712	0.0958
321.5821	0.1033
321.793	0.1094
322.0039	0.0943
322.2148	0.0945
322.4257	0.1033
322.6365	0.1088
322.8474	0.103
323.0582	0.107
323.269	0.1004
323.4798	0.1225
323.6906	0.1044
323.9014	0.1146
324.1122	0.1094
324.3229	0.0977
324.5337	0.1009
324.7444	0.0934
324.9551	0.1138
325.1658	0.1203
325.3765	0.1054
325.5872	0.1031
325.7979	0.1022
326.0085	0.1036
326.2192	0.1085
326.4298	0.1091
326.6404	0.1032
326.851	0.1052
327.0616	0.1162
327.2722	0.1221
327.4828	0.1052
327.6933	0.1076
327.9039	0.1113
328.1144	0.1148
328.3249	0.1159
328.5354	0.0958
328.7459	0.116
328.9564	0.1132
329.1669	0.1087
329.3773	0.1126
329.5878	0.1101
329.7982	0.1142
330.0086	0.1042
330.219	0.122
330.4294	0.1098
330.6398	0.1142
330.8502	0.1067
331.0605	0.1102
331.2708	0.1084
331.4812	0.106
331.6915	0.1097
331.9018	0.1161
332.1121	0.1025
332.3224	0.1123
332.5326	0.1192
332.7429	0.1066
332.9531	0.1217
333.1633	0.1104
333.3735	0.1069
333.5837	0.115
333.7939	0.1131
334.0041	0.1214
334.2143	0.1149
334.4244	0.1133
334.6346	0.1029
334.8447	0.1236
335.0548	0.1
335.2649	0.1112
335.475	0.1156
335.685	0.1104
335.8951	0.1181
336.1051	0.1268
336.3152	0.1241
336.5252	0.105
336.7352	0.1125
336.9452	0.1128
337.1552	0.1139
337.3652	0.1174
337.5751	0.1219
337.7851	0.1191
337.995	0.11
338.2049	0.1177
338.4148	0.1114
338.6247	0.1053
338.8346	0.1131
339.0445	0.109
339.2543	0.1154
339.4642	0.121
339.674	0.1005
339.8838	0.1191
340.0936	0.1291
340.3034	0.1301
340.5132	0.1351
340.7229	0.126
340.9327	0.1166
341.1424	0.119
341.3522	0.1308
341.5619	0.1337
341.7716	0.1281
341.9813	0.136
342.1909	0.1204
342.4006	0.1358
342.6102	0.1329
342.8199	0.1267
343.0295	0.1357
343.2391	0.1281
343.4487	0.1381
343.6583	0.121
343.8679	0.1281
344.0774	0.1341
344.287	0.1342
344.4965	0.1278
344.706	0.1329
344.9155	0.1185
345.125	0.1319
345.3345	0.1279
345.544	0.1285
345.7534	0.1322
345.9629	0.1247
346.1723	0.1265
346.3817	0.1207
346.5911	0.1296
346.8005	0.1384
347.0099	0.1144
347.2193	0.1405
347.4286	0.1259
347.638	0.143
347.8473	0.1446
348.0566	0.1353
348.2659	0.1315
348.4752	0.1313
348.6845	0.1244
348.8937	0.1354
349.103	0.1413
349.3122	0.1385
349.5214	0.1351
349.7306	0.135
349.9398	0.1434
350.149	0.1265
350.3582	0.1332
350.5674	0.1497
350.7765	0.1468
350.9856	0.1308
351.1948	0.141
351.4039	0.1264
351.613	0.1318
351.822	0.1584
352.0311	0.1419
352.2402	0.1549
352.4492	0.1517
352.6582	0.1572
352.8672	0.128
353.0762	0.1454
353.2852	0.1378
353.4942	0.145
353.7032	0.1389
353.9121	0.1556
354.1211	0.1525
354.33	0.1486
354.5389	0.146
354.7478	0.1597
354.9567	0.1555
355.1655	0.1509
355.3744	0.1565
355.5833	0.1494
355.7921	0.1609
356.0009	0.1461
356.2097	0.1676
356.4185	0.1675
356.6273	0.1549
356.8361	0.1627
357.0448	0.1546
357.2536	0.1529
357.4623	0.1572
357.671	0.1605
357.8797	0.1616
358.0884	0.1523
358.2971	0.1561
358.5057	0.165
358.7144	0.166
358.923	0.1576
359.1316	0.1534
359.3402	0.1661
359.5488	0.1653
359.7574	0.1638
359.966	0.1759
360.1746	0.1783
360.3831	0.1619
360.5916	0.1699
360.8002	0.1694
361.0087	0.1895
361.2172	0.1654
361.4256	0.1752
361.6341	0.1898
361.8426	0.1674
362.051	0.1643
362.2594	0.1833
362.4678	0.1699
362.6762	0.1985
362.8846	0.1735
363.093	0.1759
363.3014	0.1791
363.5097	0.1623
363.718	0.1789
363.9264	0.1918
364.1347	0.1671
364.343	0.1812
364.5513	0.1878
364.7595	0.1888
364.9678	0.1929
365.176	0.1962
365.3842	0.1734
365.5925	0.1778
365.8007	0.1914
366.0089	0.1848
366.217	0.1837
366.4252	0.2071
366.6333	0.2015
366.8415	0.1911
367.0496	0.1926
367.2577	0.1903
367.4658	0.2011
367.6739	0.1934
367.882	0.2027
368.09	0.1855
368.2981	0.1944
368.5061	0.1949
368.7141	0.2014
368.9221	0.1915
369.1301	0.1996
369.3381	0.1888
369.5461	0.194
369.754	0.206
369.962	0.2136
370.1699	0.193
370.3778	0.2026
370.5857	0.1822
370.7936	0.2024
371.0015	0.2015
371.2093	0.2024
371.4172	0.2199
371.625	0.1912
371.8328	0.2168
372.0406	0.2015
372.2484	0.1965
372.4562	0.2069
372.664	0.1866
372.8717	0.2226
373.0795	0.1719
373.2872	0.2057
373.4949	0.2011
373.7026	0.2194
373.9103	0.2188
374.118	0.2227
374.3256	0.2162
374.5333	0.21
374.7409	0.2113
374.9485	0.2272
375.1561	0.206
375.3637	0.2167
375.5713	0.2126
375.7789	0.2168
375.9864	0.2128
376.194	0.2193
376.4015	0.2166
376.609	0.2282
376.8165	0.2164
377.024	0.2317
377.2315	0.1989
377.4389	0.216
377.6464	0.2197
377.8538	0.2234
378.0612	0.213
378.2686	0.243
378.476	0.233
378.6834	0.2322
378.8908	0.2256
379.0981	0.215
379.3055	0.2144
379.5128	0.2202
379.7201	0.2287
379.9274	0.2129
380.1347	0.2234
380.342	0.2372
380.5492	0.222
380.7565	0.219
380.9637	0.2131
381.1709	0.2353
381.3781	0.223
381.5853	0.2306
381.7925	0.2503
381.9997	0.2272
382.2068	0.2451
382.4139	0.2418
382.6211	0.2158
382.8282	0.2194
383.0353	0.2344
383.2424	0.2172
383.4494	0.233
383.6565	0.2156
383.8635	0.2075
384.0706	0.2203
384.2776	0.2416
384.4846	0.2385
384.6916	0.2221
384.8986	0.2264
385.1055	0.2476
385.3125	0.2108
385.5194	0.216
385.7263	0.2395
385.9333	0.2142
386.1402	0.2253
386.347	0.2268
386.5539	0.2148
386.7608	0.2278
386.9676	0.2
387.1744	0.2201
387.3813	0.2233
387.5881	0.2269
387.7948	0.2164
388.0016	0.2167
388.2084	0.206
388.4151	0.1964
388.6219	0.2426
388.8286	0.2319
389.0353	0.2224
389.242	0.2237
389.4487	0.2119
389.6553	0.2149
389.862	0.2007
390.0686	0.2191
390.2753	0.2261
390.4819	0.2143
390.6885	0.2066
390.8951	0.2206
391.1016	0.2122
391.3082	0.2158
391.5147	0.2168
391.7213	0.2065
391.9278	0.2021
392.1343	0.2057
392.3408	0.2127
392.5473	0.2058
392.7537	0.194
392.9602	0.1897
393.1666	0.1967
393.373	0.1977
393.5794	0.2036
393.7858	0.2086
393.9922	0.189
394.1986	0.2144
394.4049	0.1976
394.6113	0.1926
394.8176	0.1807
395.0239	0.2082
395.2302	0.1923
395.4365	0.1877
395.6428	0.1868
395.8491	0.1872
396.0553	0.1887
396.2615	0.1932
396.4678	0.182
396.674	0.184
396.8802	0.195
397.0863	0.1916
397.2925	0.2056
397.4987	0.1874
397.7048	0.1835
397.9109	0.1921
398.117	0.1706
398.3231	0.177
398.5292	0.1831
398.7353	0.1924
398.9413	0.1812
399.1474	0.1945
399.3534	0.1987
399.5594	0.1511
399.7654	0.1884
399.9714	0.1926
400.1774	0.1794
400.3833	0.187
400.5893	0.1902
400.7952	0.1816
401.0011	0.1826
401.207	0.1977
401.4129	0.1933
401.6188	0.1844
401.8247	0.1899
402.0305	0.1918
402.2364	0.1744
402.4422	0.188
402.648	0.1944
402.8538	0.2065
403.0596	0.1818
403.2654	0.2049
403.4711	0.1698
403.6768	0.1881
403.8826	0.2045
404.0883	0.1954
404.294	0.198
404.4997	0.1846
404.7054	0.1787
404.911	0.1768
405.1167	0.1804
405.3223	0.1858
405.5279	0.1933
405.7335	0.1918
405.9391	0.1899
406.1447	0.1742
406.3502	0.193
406.5558	0.1824
406.7613	0.1757
406.9668	0.1973
407.1724	0.1801
407.3778	0.1603
407.5833	0.1695
407.7888	0.1915
407.9942	0.1993
408.1997	0.1828
408.4051	0.1759
408.6105	0.1945
408.8159	0.1673
409.0213	0.1681
409.2267	0.2014
409.432	0.1674
409.6374	0.1947
409.8427	0.1642
410.048	0.1942
410.2533	0.1643
410.4586	0.1734
410.6639	0.1759
410.8691	0.1668
411.0744	0.1625
411.2796	0.1674
411.4848	0.1737
411.69	0.1551
411.8952	0.1889
412.1004	0.1811
412.3056	0.191
412.5107	0.1602
412.7158	0.2024
412.921	0.1822
413.1261	0.1785
413.3312	0.1618
413.5362	0.1679
413.7413	0.1667
413.9464	0.1488
414.1514	0.166
414.3564	0.1661
414.5614	0.1737
414.7664	0.177
414.9714	0.1666
415.1764	0.1706
415.3813	0.1944
415.5863	0.173
415.7912	0.176
415.9961	0.1833
416.201	0.1697
416.4059	0.1771
416.6108	0.1488
416.8156	0.172
417.0205	0.1596
417.2253	0.1703
417.4301	0.1626
417.6349	0.177
417.8397	0.1518
418.0445	0.1756
418.2492	0.1762
418.454	0.1868
418.6587	0.1554
418.8634	0.1748
419.0681	0.1428
419.2728	0.1491
419.4775	0.1645
419.6822	0.1669
419.8868	0.1519
420.0915	0.1635
420.2961	0.149
420.5007	0.1501
420.7053	0.1535
420.9099	0.1778
421.1144	0.1483
421.319	0.1552
421.5235	0.1641
421.728	0.1513
421.9325	0.1738
422.137	0.1729
422.3415	0.1513
422.546	0.1597
422.7504	0.1556
422.9549	0.1653
423.1593	0.1595
423.3637	0.1647
423.5681	0.1303
423.7725	0.1588
423.9769	0.1527
424.1812	0.1446
424.3856	0.1539
424.5899	0.147
424.7942	0.1536
424.9985	0.1582
425.2028	0.1525
425.4071	0.157
425.6113	0.139
425.8156	0.1456
426.0198	0.1553
426.224	0.1225
426.4282	0.1399
426.6324	0.1347
426.8366	0.1313
427.0407	0.1271
427.2449	0.128
427.449	0.1458
427.6531	0.1176
427.8572	0.1302
428.0613	0.1387
428.2654	0.1291
428.4694	0.1319
428.6735	0.1342
428.8775	0.1499
429.0815	0.1204
429.2855	0.1161
429.4895	0.1289
429.6935	0.1244
429.8975	0.1235
430.1014	0.1147
430.3053	0.111
430.5093	0.1213
430.7132	0.1176
430.9171	0.1178
431.1209	0.1189
431.3248	0.1124
431.5286	0.1206
431.7325	0.1303
431.9363	0.0986
432.1401	0.1084
432.3439	0.1107
432.5477	0.0939
432.7514	0.1033
432.9552	0.1129
433.1589	0.0908
433.3627	0.0805
433.5664	0.0956
433.7701	0.0998
433.9737	0.0776
434.1774	0.0803
434.3811	0.0908
434.5847	0.1023
434.7883	0.098
434.9919	0.0959
435.1955	0.0799
435.3991	0.0806
435.6027	0.0906
435.8062	0.0889
436.0098	0.0906
436.2133	0.0795
436.4168	0.0731
436.6203	0.0694
436.8238	0.0798
437.0272	0.0653
437.2307	0.0718
437.4341	0.102
437.6375	0.0908
437.841	0.0599
438.0443	0.0867
438.2477	0.0827
438.4511	0.0732
438.6545	0.0708
438.8578	0.0958
439.0611	0.0651
439.2644	0.0839
439.4677	0.0606
439.671	0.0674
439.8743	0.0796
440.0775	0.0826
440.2808	0.0681
440.484	0.056
440.6872	0.0463
440.8904	0.056
441.0936	0.0808
441.2967	0.0578
441.4999	0.067
441.703	0.0671
441.9062	0.0425
442.1093	0.0645
442.3124	0.0707
442.5155	0.0456
442.7185	0.0345
442.9216	0.0231
443.1246	0.0564
443.3276	0.0427
443.5307	0.0467
443.7337	0.0545
443.9366	0.0513
444.1396	0.0445
444.3426	0.0455
444.5455	0.055
444.7484	0.0275
444.9513	0.0385
445.1542	0.0354
445.3571	0.0356
445.56	0.0535
445.7628	0.0202
445.9657	0.0293
446.1685	0.0551
446.3713	0.0239
446.5741	0.0364
446.7769	0.0376
446.9797	0.0368
447.1824	0.0275
447.3852	0.0266
447.5879	0.0394
447.7906	0.0307
447.9933	0.0215
448.196	0.0252
448.3986	0.026
448.6013	0.0209
448.8039	0.0248
449.0066	0.0259
449.2092	0.0276
449.4118	0.0204
449.6143	0.0322
449.8169	0.0283
450.0195	0.034
450.222	0.0038
450.4245	0.0209
450.627	0.03
450.8295	0.0174
451.032	0.0202
451.2345	0.0278
451.4369	0.0159
451.6394	0.0138
451.8418	0.0063
452.0442	0.0098
452.2466	0.0288
452.449	0.0083
452.6513	0.0141
452.8537	0.0027
453.056	0.0097
453.2583	0.0138
453.4607	0.0198
453.663	-0.0036
453.8652	0.0163
454.0675	0.0011
454.2697	0.0114
454.472	0.0029
454.6742	0.0127
454.8764	-0.0032
455.0786	0.0212
455.2808	-0.0019
455.4829	0.01
455.6851	0.01
455.8872	0.0319
456.0893	0.0255
456.2915	-0.0043
456.4935	0.0156
456.6956	0.0139
456.8977	0.0207
457.0997	-0.0094
457.3018	-0.0122
457.5038	0.0118
457.7058	0.0087
457.9078	-0.0018
458.1098	0.0035
458.3117	0.0201
458.5137	0.0105
458.7156	0.0036
458.9175	0.0033
459.1194	0.0216
459.3213	0.0017
459.5232	-0.006
459.725	-0.0101
459.9269	-0.0115
460.1287	0.0005
460.3305	0.0075
460.5323	0.0061
460.7341	-0.0051
460.9359	-0.0028
461.1376	0.0069
461.3394	-0.0129
461.5411	-0.001
461.7428	-0.0026
461.9445	0.0092
462.1462	0.0177
462.3479	0.0066
462.5495	-0.0021
462.7512	-0.0072
462.9528	-0.0012
463.1544	-0.0184
463.356	0.0097
463.5576	0.0013
463.7592	-0.0032
463.9607	-0.0106
464.1623	0.0128
464.3638	0.0083
464.5653	0.0018
464.7668	-0.0125
464.9683	-0.0018
465.1697	0.0207
465.3712	-0.0191
465.5726	-0.0016
465.7741	-0.002
465.9755	-0.0183
466.1769	-0.0117
466.3782	-0.0101
466.5796	-0.0166
466.7809	0.0182
466.9823	-0.0118
467.1836	-0.0032
467.3849	-0.0073
467.5862	0.0011
467.7875	-0.0126
467.9887	0.0029
468.19	-0.0117
468.3912	-0.0144
468.5924	-0.0103
468.7936	-0.0094
468.9948	-0.0032
469.196	0.0021
469.3972	-0.0148
469.5983	-0.0051
469.7994	-0.0109
470.0006	-0.0136
470.2017	-0.0131
470.4027	-0.0002
470.6038	0.0114
470.8049	-0.0153
471.0059	-0.0105
471.2069	-0.0419
471.408	-0.0031
471.6089	-0.0018
471.8099	-0.0028
472.0109	-0.0031
472.2119	-0.0115
472.4128	-0.0193
472.6137	-0.003
472.8146	-0.0245
473.0155	-0.0162
473.2164	-0.0099
473.4173	0.0075
473.6181	-0.0004
473.819	0.002
474.0198	-0.0092
474.2206	-0.0169
474.4214	-0.0172
474.6222	-0.012
474.8229	-0.0085
475.0237	-0.0116
475.2244	-0.0137
475.4251	-0.0092
475.6258	-0.0085
475.8265	-0.007
476.0272	0.0006
476.2278	-0.0124
476.4285	0.0026
476.6291	-0.0096
476.8297	-0.015
477.0303	-0.0064
477.2309	-0.0016
477.4315	-0.0199
477.632	-0.007
477.8326	-0.0107
478.0331	-0.0054
478.2336	-0.0006
478.4341	-0.0094
478.6346	-0.0184
478.8351	-0.0122
479.0355	-0.0017
479.236	-0.0112
479.4364	0.0016
479.6368	-0.0237
479.8372	-0.0207
480.0376	-0.0075
480.2379	-0.0232
480.4383	-0.0113
480.6386	-0.0155
480.8389	-0.009
481.0392	-0.0139
481.2395	-0.0179
481.4398	0.0028
481.6401	-0.0067
481.8403	-0.0078
482.0405	-0.0086
482.2408	-0.0203
482.441	-0.0002
482.6411	-0.0079
482.8413	-0.0041
483.0415	-0.0139
483.2416	-0.0229
483.4417	-0.0106
483.6419	-0.0167
483.8419	-0.0216
484.042	0.0011
484.2421	-0.0087
484.4422	-0.001
484.6422	-0.0174
484.8422	-0.0072
485.0422	-0.0183
485.2422	-0.0059
485.4422	-0.01
485.6422	-0.0139
485.8421	-0.0038
486.042	-0.0024
486.242	-0.0114
486.4419	-0.012
486.6417	-0.0117
486.8416	-0.0134
487.0415	-0.0116
487.2413	-0.017
487.4411	-0.0111
487.641	-0.0123
487.8408	-0.0014
488.0405	-0.011
488.2403	-0.0169
488.4401	-0.0048
488.6398	-0.0111
488.8395	-0.0167
489.0392	-0.0073
489.2389	-0.0105
489.4386	-0.0169
489.6383	-0.0081
489.8379	-0.0125
490.0376	-0.0154
490.2372	-0.0206
490.4368	-0.0226
490.6364	-0.0145
490.836	-0.0151
491.0355	-0.0102
491.2351	-0.0145
491.4346	-0.0072
491.6341	-0.0288
491.8336	-0.0054
492.0331	-0.0184
492.2326	-0.0263
492.432	-0.0067
492.6315	-0.0108
492.8309	-0.0201
493.0303	-0.0204
493.2297	-0.0082
493.4291	-0.0097
493.6284	-0.017
493.8278	-0.0147
494.0271	-0.003
494.2264	-0.0077
494.4257	-0.0238
494.625	-0.0071
494.8243	-0.0225
495.0236	-0.0123
495.2228	-0.0181
495.422	-0.0104
495.6213	-0.0137
495.8205	-0.0133
496.0196	-0.0095
496.2188	-0.0041
496.418	-0.0186
496.6171	-0.0138
496.8162	-0.01
497.0153	-0.0093
497.2144	-0.0157
497.4135	-0.0098
497.6126	-0.0181
497.8116	-0.0224
498.0107	-0.0083
498.2097	-0.0257
498.4087	-0.016
498.6077	-0.0033
498.8067	-0.0186
499.0056	-0.0134
499.2046	-0.0161
499.4035	-0.0196
499.6024	-0.0202
499.8013	-0.0067
500.0002	-0.0253
500.199	-0.0052
500.3979	-0.0174
500.5967	-0.0268
500.7956	-0.0066
500.9944	-0.0139
501.1932	-0.0118
501.3919	-0.0195
501.5907	-0.0149
501.7895	-0.0069
501.9882	-0.0131
502.1869	-0.0219
502.3856	-0.0167
502.5843	-0.0185
502.783	-0.0111
502.9816	-0.01
503.1803	-0.0213
503.3789	-0.0214
503.5775	-0.0087
503.7761	-0.0135
503.9747	-0.0119
504.1732	-0.0111
504.3718	-0.0098
504.5703	-0.0153
504.7689	-0.0153
504.9674	-0.0183
505.1658	-0.0181
505.3643	-0.0173
505.5628	-0.0206
505.7612	-0.0161
505.9597	0.0033
506.1581	-0.0175
506.3565	-0.0038
506.5549	-0.0158
506.7532	-0.0272
506.9516	-0.0158
507.1499	-0.0154
507.3482	-0.0237
507.5465	-0.0092
507.7448	-0.0096
507.9431	-0.0146
508.1414	-0.0054
508.3396	-0.0097
508.5379	-0.0077
508.7361	-0.0063
508.9343	-0.0092
509.1325	-0.003
509.3306	-0.0109
509.5288	-0.012
509.7269	-0.0153
509.9251	-0.0088
510.1232	-0.0169
510.3213	-0.0069
510.5193	-0.0029
510.7174	-0.0162
510.9154	-0.0167
511.1135	-0.0164
511.3115	-0.0128
511.5095	-0.0163
511.7075	-0.0156
511.9055	-0.0214
512.1034	-0.0146
512.3014	-0.0139
512.4993	-0.0038
512.6972	-0.0122
512.8951	-0.02
513.093	-0.0137
513.2908	-0.0048
513.4887	-0.01
513.6865	-0.0167
513.8844	-0.0042
514.0822	-0.0217
514.2799	-0.0199
514.4777	-0.015
514.6755	-0.0114
514.8732	-0.0132
515.0709	-0.0043
515.2687	-0.0189
515.4664	-0.0012
515.664	-0.0096
515.8617	-0.0191
516.0594	-0.0216
516.257	-0.0123
516.4546	-0.0183
516.6522	-0.0125
516.8498	-0.0056
517.0474	-0.0074
517.2449	-0.0081
517.4425	-0.0253
517.64	-0.0113
517.8375	-0.0042
518.035	-0.0098
518.2325	-0.0096
518.43	-0.0115
518.6274	-0.0132
518.8249	-0.0283
519.0223	-0.0166
519.2197	-0.0178
519.4171	-0.0204
519.6145	-0.0138
519.8118	-0.0031
520.0092	-0.0049
520.2065	-0.0188
520.4038	-0.0262
520.6011	-0.0156
520.7984	-0.0207
520.9956	-0.0176
521.1929	-0.0194
521.3901	-0.0031
521.5874	-0.0019
521.7846	-0.0088
521.9818	-0.0156
522.1789	-0.0151
522.3761	-0.0087
522.5732	-0.017
522.7704	-0.0072
522.9675	-0.0084
523.1646	-0.0115
523.3617	-0.0043
523.5587	-0.0011
523.7558	-0.0186
523.9528	-0.013
524.1498	-0.007
524.3468	-0.0154
524.5438	-0.0157
524.7408	-0.014
524.9378	-0.0027
525.1347	-0.0014
525.3316	-0.0116
525.5285	-0.0164
525.7254	-0.0117
525.9223	-0.0138
526.1192	-0.0136
526.316	-0.0183
526.5129	-0.0058
526.7097	-0.0074
526.9065	-0.004
527.1033	-0.0112
527.3	-0.0064
527.4968	0.001
527.6935	-0.0165
527.8903	-0.0138
528.087	-0.0079
528.2837	-0.014
528.4804	-0.0167
528.677	-0.0145
528.8737	0.0004
529.0703	-0.007
529.2669	-0.0184
529.4635	-0.0132
529.6601	-0.0113
529.8567	-0.0115
530.0532	-0.0127
530.2498	-0.0051
530.4463	-0.0004
530.6428	-0.0053
530.8393	-0.0045
531.0358	-0.0153
531.2322	-0.0162
531.4287	-0.0084
531.6251	-0.0217
531.8215	-0.0073
532.0179	-0.0095
532.2143	-0.0074
532.4107	-0.019
532.607	-0.0098
532.8034	-0.0049
532.9997	-0.0041
533.196	-0.0104
533.3923	-0.0192
533.5886	-0.001
533.7848	-0.0134
533.9811	-0.0129
534.1773	-0.0136
534.3735	0.0051
534.5697	-0.0068
534.7659	-0.0088
534.9621	-0.0009
535.1582	-0.011
535.3544	-0.0091
535.5505	-0.0125
535.7466	-0.0049
535.9427	-0.0105
536.1387	-0.0086
536.3348	-0.0118
536.5308	-0.0062
536.7269	-0.0183
536.9229	-0.0032
537.1189	-0.0078
537.3148	-0.0144
537.5108	-0.0144
537.7068	-0.005
537.9027	-0.0015
538.0986	-0.0098
538.2945	-0.0075
538.4904	-0.0102
538.6863	-0.0103
538.8821	-0.0088
539.078	-0.0075
539.2738	-0.0115
539.4696	-0.0229
539.6654	0.0002
539.8611	0.0076
540.0569	0.0032
540.2526	-0.011
540.4484	0.0003
540.6441	-0.0006
540.8398	-0.0061
541.0355	-0.0028
541.2311	-0.0055
541.4268	-0.0202
541.6224	-0.0002
541.818	-0.0085
542.0136	-0.008
542.2092	0.0059
542.4048	0.0046
542.6003	-0.0115
542.7959	-0.0142
542.9914	-0.006
543.1869	0.0057
543.3824	-0.0151
543.5779	-0.0178
543.7734	-0.001
543.9688	-0.0091
544.1642	-0.0046
544.3596	-0.006
544.555	-0.0102
544.7504	0.0001
544.9458	-0.0076
545.1411	-0.0084
545.3365	-0.0111
545.5318	-0.0067
545.7271	-0.0073
545.9224	-0.0023
546.1177	-0.01
546.3129	-0.0021
546.5081	-0.0122
546.7034	-0.0039
546.8986	-0.0145
547.0938	-0.0143
547.289	-0.0073
547.4841	0.0047
547.6793	0.0046
547.8744	-0.0165
548.0695	-0.0125
548.2646	-0.0121
548.4597	-0.0044
548.6548	-0.0058
548.8498	-0.0038
549.0448	-0.0047
549.2399	-0.0054
549.4349	0.0057
549.6298	-0.005
549.8248	-0.0001
550.0198	-0.0086
550.2147	-0.0023
550.4096	-0.0136
550.6045	-0.0083
550.7994	0.0022
550.9943	-0.0066
551.1892	-0.0013
551.384	0.006
551.5788	-0.0183
551.7737	-0.0001
551.9685	-0.0038
552.1632	-0.0035
552.358	-0.0087
552.5528	-0.0055
552.7475	-0.0033
552.9422	-0.0001
553.1369	0.0011
553.3316	-0.0013
553.5263	-0.0138
553.7209	-0.0082
553.9156	-0.0099
554.1102	-0.0147
554.3048	-0.0067
554.4994	-0.001
554.694	-0.0065
554.8885	0.0039
555.0831	-0.0041
555.2776	-0.0022
555.4721	-0.0052
555.6666	-0.0061
555.8611	0.0083
556.0555	-0.0133
556.25	-0.007
556.4444	-0.0095
556.6388	-0.0038
556.8332	0.0008
557.0276	-0.0068
557.222	-0.0051
557.4163	-0.0039
557.6107	-0.0119
557.805	0.0051
557.9993	-0.0056
558.1936	-0.0003
558.3879	-0.0091
558.5821	-0.0065
558.7764	-0.0077
558.9706	-0.0069
559.1648	-0.0049
559.359	-0.0128
559.5532	-0.0086
559.7473	-0.0048
559.9415	-0.0044
560.1356	-0.0138
560.3297	-0.0152
560.5238	-0.0112
560.7179	-0.003
560.9119	-0.001
561.106	-0.0071
561.3	-0.0086
561.494	-0.008
561.688	-0.0042
561.882	-0.0172
562.076	-0.0091
562.2699	-0.0067
562.4639	-0.007
562.6578	0.001
562.8517	-0.0051
563.0456	-0.0014
563.2395	0.001
563.4333	-0.0022
563.6272	0.0086
563.821	-0.0077
564.0148	0.0012
564.2086	-0.0084
564.4024	-0.0059
564.5961	-0.001
564.7899	-0.0021
564.9836	-0.0083
565.1773	-0.0046
565.371	0.0062
565.5647	0.0041
565.7584	-0.0048
565.952	-0.0122
566.1456	-0.0048
566.3393	-0.0071
566.5329	-0.0056
566.7264	-0.0025
566.92	-0.0094
567.1136	-0.0032
567.3071	-0.0042
567.5006	0.0025
567.6941	-0.0006
567.8876	0.0099
568.0811	-0.006
568.2745	-0.0052
568.468	-0.0035
568.6614	0.0019
568.8548	-0.0109
569.0482	-0.0036
569.2416	0.0032
569.4349	-0.0035
569.6283	0.0009
569.8216	-0.0049
570.0149	0.0012
570.2082	0.0006
570.4015	0.0001
570.5947	0.0047
570.788	0.0018
570.9812	0.0023
571.1744	0.0013
571.3676	-0.0099
571.5608	0.0007
571.754	0.0035
571.9471	-0.0034
572.1402	0
572.3333	-0.0063
572.5264	-0.009
572.7195	-0.0049
572.9126	-0.0025
573.1057	-0.0082
573.2987	-0.0091
573.4917	-0.0003
573.6847	-0.0101
573.8777	0.0013
574.0707	-0.0014
574.2636	-0.0121
574.4566	-0.0017
574.6495	0.0066
574.8424	0.0028
575.0353	-0.0037
575.2281	0.0046
575.421	-0.0002
575.6138	-0.0038
575.8067	-0.0073
575.9995	0.0008
576.1923	-0.0017
576.385	0.0025
576.5778	-0.004
576.7706	-0.0014
576.9633	-0.0054
577.156	0.0013
577.3487	-0.0012
577.5414	-0.0034
577.734	-0.0057
577.9267	0.0035
578.1193	-0.0074
578.3119	-0.0044
578.5045	-0.003
578.6971	0.0008
578.8897	0.0004
579.0822	-0.004
579.2747	-0.0004
579.4673	-0.0079
579.6598	-0.0079
579.8522	0.0008
580.0447	-0.0104
580.2372	-0.0027
580.4296	-0.0015
580.622	-0.0073
580.8144	0.0007
581.0068	-0.0058
581.1992	-0.0128
581.3915	-0.0065
581.5839	-0.0108
581.7762	-0.0072
581.9685	-0.0071
582.1608	-0.0031
582.353	-0.0073
582.5453	-0.0025
582.7375	-0.0008
582.9298	0.0006
583.122	0.002
583.3142	-0.0044
583.5063	-0.0019
583.6985	-0.0058
583.8906	-0.0029
584.0827	-0.0072
584.2749	-0.0032
584.4669	0.0016
584.659	-0.0041
584.8511	-0.0054
585.0431	-0.0093
585.2352	0.0037
585.4272	-0.006
585.6192	0.003
585.8111	-0.0006
586.0031	-0.0042
586.195	-0.0032
586.387	0.001
586.5789	-0.0017
586.7708	0.0004
586.9627	-0.0037
587.1545	-0.0024
587.3464	-0.0018
587.5382	-0.0009
587.73	-0.002
587.9218	0.0059
588.1136	-0.0004
588.3053	0.0033
588.4971	-0.0077
588.6888	-0.0092
588.8805	0.0027
589.0722	0.0039
589.2639	0.0019
589.4556	0
589.6472	-0.0013
589.8389	-0.0115
590.0305	-0.0043
590.2221	-0.0053
590.4137	-0.0051
590.6052	0.0107
590.7968	-0.0029
590.9883	-0.0005
591.1798	-0.004
591.3713	-0.0026
591.5628	0.0013
591.7543	0.0043
591.9458	-0.0021
592.1372	0.0047
592.3286	0.0003
592.52	0.0021
592.7114	-0.0114
592.9028	-0.0062
593.0941	-0.0072
593.2855	-0.006
593.4768	-0.0121
593.6681	-0.0042
593.8594	-0.0099
594.0506	-0.0014
594.2419	0.0064
594.4331	-0.0015
594.6244	-0.0028
594.8156	-0.0039
595.0067	0.0064
595.1979	0.0027
595.3891	-0.0006
595.5802	-0.0023
595.7713	-0.008
595.9624	-0.0021
596.1535	0.0014
596.3446	0.0033
596.5357	-0.0008
596.7267	0.0026
596.9177	-0.0041
597.1087	-0.0004
597.2997	-0.0044
597.4907	-0.0016
597.6817	-0.0071
597.8726	0.0047
598.0635	-0.0081
598.2544	-0.0016
598.4453	-0.0078
598.6362	-0.0055
598.827	-0.0064
599.0179	-0.0009
599.2087	0.0029
599.3995	-0.0007
599.5903	-0.0048
599.7811	0.002
599.9718	-0.0053
600.1626	0.0004
600.3533	-0.006
600.544	-0.0022
600.7347	-0.0074
600.9254	-0.0014
601.116	-0.0079
601.3067	0.003
601.4973	-0.003
601.6879	0.003
601.8785	-0.0056
602.0691	0.0088
602.2596	0.0048
602.4502	0.0001
602.6407	-0.0014
602.8312	-0.004
603.0217	-0.0127
603.2122	-0.0049
603.4027	0.0006
603.5931	0.0038
603.7835	-0.0036
603.9739	-0.0036
604.1643	-0.002
604.3547	-0.0081
604.5451	0.0019
604.7354	-0.0002
604.9257	0.0026
605.116	-0.0043
605.3063	0.0044
605.4966	-0.0059
605.6869	0.003
605.8771	0.007
606.0673	0.0045
606.2575	0.0046
606.4477	0.0051
606.6379	-0.0023
606.8281	0
607.0182	-0.0059
607.2083	0.0125
607.3985	-0.0115
607.5885	-0.0042
607.7786	0.0074
607.9687	0.0023
608.1587	0.0066
608.3488	-0.0044
608.5388	0.0013
608.7288	-0.0051
608.9187	-0.0035
609.1087	0.0053
609.2986	-0.007
609.4886	-0.0006
609.6785	0.0038
609.8684	0.0005
610.0582	0.0022
610.2481	-0.0031
610.4379	-0.0088
610.6278	-0.0016
610.8176	-0.0055
611.0074	-0.0047
611.1971	-0.0053
611.3869	-0.0034
611.5766	-0.006
611.7664	0.0056
611.9561	0.0031
612.1458	0.0043
612.3354	-0.0064
612.5251	-0.005
612.7147	0.0038
612.9044	0.0071
613.094	-0.0039
613.2836	0.0024
613.4731	-0.007
613.6627	-0.0082
613.8522	0
614.0417	0.0056
614.2313	-0.0019
614.4207	-0.0045
614.6102	-0.0007
614.7997	-0.0005
614.9891	-0.0061
615.1785	-0.0027
615.3679	-0.0069
615.5573	0.0011
615.7467	0.0012
615.9361	0.0003
616.1254	-0.0047
616.3147	0.0037
616.504	0.0052
616.6933	-0.003
616.8826	0.0086
617.0718	0.0026
617.2611	-0.0024
617.4503	-0.0031
617.6395	-0.0028
617.8287	0.0009
618.0179	-0.0045
618.207	0.0066
618.3961	-0.0007
618.5853	-0.0054
618.7744	-0.0002
618.9634	0.0034
619.1525	0.0003
619.3416	0.002
619.5306	-0.0073
619.7196	0.0002
619.9086	-0.0114
620.0976	0.002
620.2866	-0.004
620.4755	0.0011
620.6645	-0.0015
620.8534	0.0074
621.0423	0.0001
621.2312	0.0075
621.42	0.0022
621.6089	0.0053
621.7977	-0.0015
621.9865	-0.0084
622.1753	0.0054
622.3641	-0.003
622.5529	0.002
622.7416	0.005
622.9303	0.0033
623.1191	-0.0008
623.3078	-0.0045
623.4964	0.0022
623.6851	-0.0069
623.8737	-0.0043
624.0624	-0.0026
624.251	-0.004
624.4396	-0.0021
624.6282	-0.0118
624.8167	0.0024
625.0053	0.0012
625.1938	0.0044
625.3823	-0.0017
625.5708	-0.0072
625.7593	-0.0063
625.9477	-0.0078
626.1362	-0.0086
626.3246	0.0029
626.513	0.0007
626.7014	0.0029
626.8898	-0.0051
627.0781	-0.0011
627.2665	-0.007
627.4548	-0.0018
627.6431	-0.0052
627.8314	-0.0024
628.0197	0.0028
628.2079	-0.0091
628.3962	-0.0035
628.5844	0.0042
628.7726	0.0014
628.9608	0.0022
629.1489	-0.001
629.3371	0.0067
629.5252	0.0002
629.7134	0.0011
629.9015	-0.0016
630.0895	-0.0024
630.2776	-0.0004
630.4657	0.0003
630.6537	0.0028
630.8417	0.0018
631.0297	-0.0012
631.2177	-0.0046
631.4057	-0.0089
631.5936	-0.0089
631.7815	-0.0003
631.9695	-0.0017
632.1574	0.0076
632.3452	0.0131
632.5331	-0.0001
632.7209	-0.0048
632.9088	0.002
633.0966	0.0019
633.2844	-0.0009
633.4722	-0.0068
633.6599	0.0104
633.8477	-0.0062
634.0354	-0.0046
634.2231	0.0005
634.4108	0.002
634.5985	0.0034
634.7861	0.005
634.9738	-0.0039
635.1614	0.0011
635.349	-0.0012
635.5366	-0.0056
635.7242	-0.0043
635.9117	0.0023
636.0993	-0.0021
636.2868	-0.0016
636.4743	-0.0037
636.6618	0.0134
636.8492	-0.001
637.0367	0.0004
637.2241	-0.0048
637.4115	-0.0054
637.5989	-0.0012
637.7863	-0.0042
637.9737	-0.0049
638.161	-0.0023
638.3484	0.0004
638.5357	0.0051
638.723	-0.0032
638.9103	0.0026
639.0975	0.0053
639.2848	0.0038
639.472	0.0045
639.6592	0.0084
639.8464	0.005
640.0336	0.0037
640.2208	-0.0006
640.4079	0.0027
640.595	-0.0011
640.7821	-0.0025
640.9692	0.004
641.1563	0.0075
641.3434	0.0048
641.5304	0
641.7174	-0.0003
641.9044	0.0057
642.0914	0.0085
642.2784	0.0122
642.4653	0.0171
642.6523	0.0103
642.8392	-0.0005
643.0261	0.0081
643.213	0.0057
643.3999	-0.0001
643.5867	-0.0085
643.7735	-0.0017
643.9604	-0.0061
644.1472	0.0058
644.3339	0.0095
644.5207	0.003
644.7075	0.0001
644.8942	0.0035
645.0809	0.006
645.2676	0.0081
645.4543	-0.0041
645.6409	-0.0036
645.8276	0.0042
646.0142	0.0087
646.2008	-0.0027
646.3874	-0.005
646.574	-0.0019
646.7605	-0.0035
646.9471	-0.009
647.1336	-0.0004
647.3201	0.0064
647.5066	-0.0073
647.6931	0.0028
647.8795	-0.0011
648.0659	0.0061
648.2524	0.0051
648.4388	-0.0067
648.6252	-0.0016
648.8115	0.0001
648.9979	-0.0049
649.1842	0.0029
649.3705	0.0006
649.5568	-0.0032
649.7431	-0.0011
649.9294	-0.0082
650.1156	0
650.3018	-0.0067
650.488	0.0042
650.6742	-0.0006
650.8604	0.0004
651.0466	-0.0001
651.2327	-0.0026
651.4188	0.0009
651.6049	-0.0062
651.791	-0.0015
651.9771	0.0029
652.1632	-0.0021
652.3492	-0.0003
652.5352	-0.005
652.7212	-0.0051
652.9072	0.0064
653.0932	-0.0018
653.2791	-0.0066
653.465	0.0051
653.651	-0.0103
653.8369	-0.0042
654.0227	-0.0041
654.2086	0.0031
654.3944	0.009
654.5803	-0.0015
654.7661	-0.0128
654.9519	-0.0034
655.1377	-0.0059
655.3234	-0.0024
655.5092	-0.0063
655.6949	-0.0057
655.8806	-0.0059
656.0663	0.0007
656.2519	0.0008
656.4376	-0.0022
656.6232	0.0024
656.8088	-0.004
656.9945	-0.0004
657.18	0
657.3656	-0.0008
657.5511	0.0018
657.7367	-0.0045
657.9222	0.0051
658.1077	-0.0004
658.2932	0.003
658.4786	-0.0086
658.6641	-0.0036
658.8495	0.0003
659.0349	-0.0064
659.2203	0.0017
659.4057	0.0014
659.591	0.0028
659.7764	-0.0015
659.9617	0.0013
660.147	0.0016
660.3323	0.0014
660.5176	0.014
660.7028	0.0048
660.888	0.0054
661.0733	0.0017
661.2585	-0.0044
661.4436	-0.0061
661.6288	0.002
661.8139	0.0011
661.9991	0.0035
662.1842	0.0019
662.3693	-0.0002
662.5544	-0.0055
662.7394	0.0014
662.9245	0.0058
663.1095	0.0007
663.2945	-0.0017
663.4795	-0.0049
663.6644	0.0022
663.8494	-0.0027
664.0343	0.0084
664.2193	-0.0081
664.4042	-0.0011
664.589	-0.013
664.7739	-0.0028
664.9587	-0.0097
665.1436	-0.0005
665.3284	-0.008
665.5132	-0.0062
665.698	-0.0016
665.8827	0.0029
666.0675	-0.0101
666.2522	-0.0074
666.4369	0.0042
666.6216	-0.0021
666.8063	0.0006
666.9909	-0.0005
667.1756	-0.0009
667.3602	0.0047
667.5448	-0.0065
667.7294	0.006
667.9139	0.0034
668.0985	0.0085
668.283	-0.0028
668.4675	-0.0023
668.652	0.0024
668.8365	-0.0024
669.0209	0.0048
669.2054	-0.0001
669.3898	-0.0041
669.5742	0.0037
669.7586	-0.0009
669.943	0.0048
670.1273	0.0095
670.3117	0.001
670.496	-0.0006
670.6803	0.0098
670.8646	-0.0016
671.0488	-0.0024
671.2331	0.0053
671.4173	0.0053
671.6015	-0.0041
671.7857	-0.0023
671.9699	0.0043
672.1541	0.004
672.3382	0.008
672.5223	0.0027
672.7064	0.0017
672.8905	0.0099
673.0746	0.0006
673.2587	-0.0096
673.4427	0.0026
673.6267	0.0065
673.8107	0.0055
673.9947	0.0009
674.1787	0.0037
674.3626	-0.0051
674.5465	-0.0005
674.7304	0.0062
674.9143	0.003
675.0982	0.0094
675.2821	-0.0016
675.4659	0.008
675.6497	0.001
675.8335	-0.0013
676.0173	-0.0018
676.2011	-0.0054
676.3849	-0.0048
676.5686	-0.0104
676.7523	0.0036
676.936	-0.0007
677.1197	-0.0019
677.3034	-0.0074
677.487	-0.0008
677.6706	-0.0016
677.8542	0.0015
678.0378	-0.0062
678.2214	-0.0028
678.405	-0.0017
678.5885	-0.0108
678.772	0.0006
678.9555	-0.0057
679.139	-0.0019
679.3225	-0.0021
679.5059	-0.0064
679.6894	0.0006
679.8728	0.0023
680.0562	-0.0034
680.2395	-0.0099
680.4229	-0.0049
680.6062	0.0051
680.7896	0.0011
680.9729	-0.0077
681.1562	0.0054
681.3394	-0.0013
681.5227	-0.0098
681.7059	-0.0048
681.8891	0.0051
682.0723	0.0087
682.2555	0.0055
682.4387	-0.0088
682.6218	-0.0097
682.805	0.0042
682.9881	-0.0008
683.1712	-0.0099
683.3542	-0.0017
683.5373	0.0009
683.7203	-0.0029
683.9034	-0.0008
684.0864	-0.0043
684.2694	-0.0003
684.4523	0.0028
684.6353	-0.0037
684.8182	-0.0016
685.0011	-0.0114
685.184	0.0026
685.3669	-0.0011
685.5498	0.0032
685.7326	0.001
685.9154	-0.0017
686.0982	0.0076
686.281	0.0057
686.4638	0.0051
686.6465	-0.0038
686.8293	-0.0052
687.012	0.0013
687.1947	-0.0112
687.3774	0.0001
687.56	-0.0076
687.7427	0.0017
687.9253	-0.0191
688.1079	-0.0061
688.2905	0.0081
688.4731	-0.0022
688.6556	-0.0053
688.8382	-0.0043
689.0207	0.0023
689.2032	-0.0114
689.3857	-0.0129
689.5681	-0.0057
689.7506	-0.0138
689.933	-0.0042
690.1154	-0.0089
690.2978	-0.0118
690.4802	-0.0034
690.6626	-0.0104
690.8449	-0.0098
691.0272	0.0007
691.2095	-0.0123
691.3918	-0.0108
691.5741	0.0019
691.7563	0.0017
691.9386	0.0032
692.1208	-0.0047
692.303	0.0013
692.4852	-0.005
692.6673	0.0014
692.8495	-0.0099
693.0316	0.0033
693.2137	-0.0038
693.3958	0.0073
693.5778	-0.005
693.7599	0.0007
693.9419	-0.0044
694.1239	-0.0017
694.3059	-0.0023
694.4879	0.0007
694.6699	-0.0029
694.8518	0.0011
695.0337	-0.0078
695.2157	0.0041
695.3975	0.0043
695.5794	-0.0072
695.7613	-0.0013
695.9431	-0.0043
696.1249	0.0053
696.3067	0.0041
696.4885	0.003
696.6703	-0.0096
696.852	-0.0023
697.0337	0.0043
697.2154	0.0067
697.3971	-0.0033
697.5788	0.0022
697.7605	0.0014
697.9421	0.0079
698.1237	0.0023
698.3053	-0.0014
698.4869	0.0009
698.6685	-0.0145
698.85	-0.0094
699.0315	0.0073
699.213	-0.006
699.3945	-0.0048
699.576	0.0018
699.7575	0.0044
699.9389	0.004
700.1203	-0.0095
700.3017	-0.0084
700.4831	-0.0098
700.6645	-0.0017
700.8458	0.0035
701.0271	-0.0076
701.2084	0.0064
701.3897	0.0042
701.571	0.0051
701.7523	-0.0061
701.9335	0.004
702.1147	0.0053
702.2959	-0.0016
702.4771	0.0109
702.6583	-0.0057
702.8394	-0.0076
703.0205	0.0017
703.2016	-0.0045
703.3827	-0.005
703.5638	0.0073
703.7449	0.005
703.9259	0.0018
704.1069	-0.0035
704.2879	0.0082
704.4689	-0.0007
704.6499	-0.0066
704.8308	0.0027
705.0117	0.0033
705.1927	0.0065
705.3735	-0.0011
705.5544	-0.0035
705.7353	0.002
705.9161	-0.0059
706.0969	-0.0079
706.2777	0.0017
706.4585	-0.004
706.6393	0.0001
706.82	-0.009
707.0007	0.0042
707.1815	-0.0022
707.3621	0.0063
707.5428	0.008
707.7235	-0.0026
707.9041	0.0003
708.0847	-0.0197
708.2653	-0.009
708.4459	-0.0117
708.6265	0.0054
708.807	-0.001
708.9875	-0.0049
709.168	-0.008
709.3485	-0.0039
709.529	-0.0064
709.7095	-0.0081
709.8899	0
710.0703	-0.0123
710.2507	-0.0056
710.4311	-0.0049
710.6115	-0.0139
710.7918	-0.0151
710.9721	0.0001
711.1524	-0.0105
711.3327	-0.0039
711.513	0.011
711.6932	0.0057
711.8735	0.0056
712.0537	0.0034
712.2339	-0.0037
712.4141	-0.0064
712.5942	-0.0073
712.7744	-0.0058
712.9545	-0.0112
713.1346	-0.0022
713.3147	-0.0032
713.4947	0.0017
713.6748	-0.0076
713.8548	-0.0094
714.0348	-0.0058
714.2148	-0.0126
714.3948	0.0014
714.5748	-0.0093
714.7547	-0.0067
714.9346	-0.0025
715.1145	-0.015
715.2944	-0.0057
715.4743	0.0029
715.6541	-0.0102
715.834	0.0003
716.0138	-0.0074
716.1936	-0.0187
716.3733	-0.0051
716.5531	-0.0039
716.7328	-0.0053
716.9126	0.0003
717.0923	0.0028
717.2719	-0.0042
717.4516	0.0058
717.6312	0.0063
717.8109	-0.0142
717.9905	0.0092
718.1701	-0.0028
718.3496	-0.0118
718.5292	-0.0008
718.7087	-0.0009
718.8882	0.002
719.0677	0.0101
719.2472	-0.0013
719.4267	-0.005
719.6061	-0.002
719.7856	0.0037
719.965	0.0067
720.1443	-0.0041
720.3237	0.0103
720.5031	0.0099
720.6824	0.0096
720.8617	-0.0041
721.041	-0.0054
721.2203	0.0123
721.3995	0.0062
721.5788	0.0011
721.758	0.0024
721.9372	-0.0029
722.1164	-0.0026
722.2956	-0.0005
722.4747	-0.0066
722.6538	-0.005
722.8329	0.0087
723.012	-0.0002
723.1911	-0.0038
723.3702	-0.0008
723.5492	0.0039
723.7282	-0.0004
723.9072	-0.0041
724.0862	-0.0031
724.2652	-0.0054
724.4441	-0.0081
724.623	-0.005
724.8019	-0.0037
724.9808	-0.0049
725.1597	-0.0103
725.3385	0.0089
725.5174	-0.0085
725.6962	0.0003
725.875	-0.001
726.0538	0.0009
726.2325	-0.0028
726.4112	0.0035
726.59	-0.0037
726.7687	-0.0052
726.9474	0.0004
727.126	0.005
727.3047	-0.0047
727.4833	-0.0007
727.6619	-0.0017
727.8405	0.0005
728.0191	-0.0018
728.1976	0.0013
728.3762	-0.0038
728.5547	-0.0021
728.7332	-0.0188
728.9116	-0.0044
729.0901	-0.0006
729.2686	-0.0137
729.447	0.0016
729.6254	-0.004
729.8038	0.0015
729.9821	-0.0068
730.1605	0.0028
730.3388	0.0051
730.5171	-0.0014
730.6954	-0.0072
730.8737	0.0001
731.0519	0.0062
731.2302	-0.0005
731.4084	0.0036
731.5866	-0.0017
731.7648	-0.0076
731.9429	-0.008
732.1211	-0.0068
732.2992	-0.0058
732.4773	0.0061
732.6554	-0.0101
732.8335	-0.0058
733.0115	0.0003
733.1896	0.0034
733.3676	-0.0128
733.5456	0.0006
733.7235	-0.001
733.9015	-0.0059
734.0794	-0.0019
734.2574	-0.0045
734.4353	-0.0005
734.6131	0.0062
734.791	-0.0049
734.9689	0.0003
735.1467	0.0025
735.3245	-0.017
735.5023	-0.0107
735.68	-0.0042
735.8578	-0.0042
736.0355	-0.0078
736.2132	-0.0034
736.3909	-0.007
736.5686	-0.0127
736.7463	0.0025
736.9239	-0.0022
737.1015	-0.0067
737.2791	-0.0009
737.4567	-0.0009
737.6343	-0.0118
737.8118	-0.0039
737.9894	0.0034
738.1669	0.0032
738.3444	-0.0037
738.5218	0.0023
738.6993	-0.0054
738.8767	-0.007
739.0541	0.0028
739.2315	-0.0084
739.4089	-0.0043
739.5863	0.0059
739.7636	-0.0127
739.9409	-0.0023
740.1182	-0.0013
740.2955	-0.0032
740.4728	-0.0053
740.65	-0.0042
740.8272	-0.0045
741.0044	-0.0022
741.1816	0.0017
741.3588	-0.0014
741.5359	-0.0025
741.7131	-0.0126
741.8902	-0.0113
742.0673	-0.0119
742.2444	-0.0125
742.4214	-0.0078
742.5985	-0.0056
742.7755	-0.0204
742.9525	-0.0164
743.1295	-0.0083
743.3064	-0.006
743.4834	-0.0036
743.6603	-0.0154
743.8372	-0.0124
744.0141	-0.0005
744.191	0.0015
744.3678	-0.0045
744.5446	-0.012
744.7215	0.0037
744.8982	-0.0084
745.075	-0.0077
745.2518	-0.0079
745.4285	-0.0067
745.6052	-0.0113
745.7819	-0.0022
745.9586	-0.0041
746.1353	-0.0067
746.3119	-0.0037
746.4885	-0.0064
746.6651	-0.0101
746.8417	0.0004
747.0183	-0.0038
747.1948	-0.0052
747.3714	0.0004
747.5479	0.0034
747.7244	-0.0069
747.9008	-0.0046
748.0773	0.0022
748.2537	-0.0002
748.4301	-0.0132
748.6065	-0.0009
748.7829	0.0053
748.9593	-0.0069
749.1356	-0.0084
749.3119	0.0079
749.4882	-0.005
749.6645	-0.0008
749.8408	-0.0124
750.017	-0.0064
750.1933	-0.0076
750.3695	-0.0121
750.5457	0.0004
750.7218	-0.0073
750.898	-0.0034
751.0741	-0.0127
751.2502	0.0006
751.4263	-0.0035
751.6024	0.0013
751.7784	-0.0055
751.9545	-0.0122
752.1305	-0.0118
752.3065	-0.0061
752.4825	-0.006
752.6584	-0.008
752.8344	-0.0082
753.0103	-0.0171
753.1862	-0.0141
753.3621	0.0007
753.5379	-0.0094
753.7138	-0.0019
753.8896	-0.0007
754.0654	0.0052
754.2412	0.0093
754.417	0.0099
754.5927	0.0019
754.7685	0.0043
754.9442	0.0091
755.1199	0.0058
755.2956	0.0032
755.4712	-0.0006
755.6469	-0.0008
755.8225	0.0018
755.9981	-0.0053
756.1736	0.0029
756.3492	0.0055
756.5248	-0.0174
756.7003	0.0041
756.8758	0.0043
757.0513	-0.0089
757.2267	-0.0001
757.4022	0.0026
757.5776	-0.011
757.753	0.0031
757.9284	-0.0084
758.1038	0.006
758.2791	0.0032
758.4545	-0.0046
758.6298	-0.01
758.8051	-0.0012
758.9803	0.0015
759.1556	0.0017
759.3308	-0.0095
759.506	0.005
759.6812	0.006
759.8564	0.0098
760.0316	0.0033
760.2067	0.0152
760.3819	-0.0002
760.557	0.0137
760.732	0.0127
760.9071	-0.0031
761.0821	0.0023
761.2572	0.0077
761.4322	0.0017
761.6072	-0.0068
761.7821	0.003
761.9571	0.0068
762.132	0.0013
762.3069	-0.0153
762.4818	-0.0121
762.6567	-0.0012
762.8316	0.0014
763.0064	-0.0051
763.1812	-0.0002
763.356	-0.0057
763.5308	-0.0041
763.7055	0.0035
763.8803	-0.0089
764.055	-0.0039
764.2297	-0.004
764.4044	-0.0152
764.579	0
764.7537	-0.0074
764.9283	-0.0017
765.1029	-0.0155
765.2775	-0.013
765.4521	-0.015
765.6266	-0.0093
765.8011	-0.012
765.9756	0.0038
766.1501	-0.0004
766.3246	-0.0091
766.4991	0.0027
766.6735	0.0009
766.8479	-0.0109
767.0223	0.0012
767.1967	-0.0061
767.371	-0.0133
767.5454	-0.0138
767.7197	-0.0088
767.894	-0.0111
768.0683	-0.0092
768.2425	0.0012
768.4168	-0.0048
768.591	-0.009
768.7652	-0.0079
768.9394	0.0002
769.1135	0.0055
769.2877	0.006
769.4618	-0.0077
769.6359	-0.0132
769.81	0.0005
769.984	0.004
770.1581	0.0035
770.3321	0.0046
770.5061	0.0037
770.6801	-0.0002
770.8541	0.0008
771.028	0.0088
771.202	-0.0117
771.3759	-0.0008
771.5498	-0.0006
771.7236	0.0071
771.8975	0.0065
772.0713	0.0055
772.2451	0.0036
772.4189	0.0041
772.5927	0.0099
772.7665	-0.0003
772.9402	0.0059
773.1139	0.0029
773.2876	-0.0034
773.4613	-0.0038
773.635	-0.0006
773.8086	0.0074
773.9822	0.0117
774.1558	0.0007
774.3294	-0.0166
774.503	-0.0091
774.6765	0.0003
774.8501	-0.0005
775.0236	0.0058
775.1971	0.0134
775.3705	-0.0218
775.544	-0.0019
775.7174	-0.0037
775.8908	-0.0048
776.0642	-0.0077
776.2376	-0.0076
776.4109	-0.005
776.5843	-0.0022
776.7576	0.0087
776.9309	0.0005
777.1041	0.0049
777.2774	0.0034
777.4506	-0.0023
777.6238	0
777.797	0.0084
777.9702	-0.0126
778.1434	-0.0081
778.3165	-0.0128
778.4896	-0.0062
778.6627	-0.0001
778.8358	-0.0069
779.0089	-0.0044
779.1819	-0.0045
779.3549	0.0145
779.5279	0.0008
779.7009	0.0003
779.8739	-0.0129
780.0468	-0.0218
780.2197	-0.0025
780.3926	0.0014
780.5655	-0.0077
780.7384	-0.0038
780.9112	0.0049
781.0841	-0.0023
781.2569	-0.0077
781.4297	0.0025
781.6024	0.0037
781.7752	0.0118
781.9479	0.012
782.1206	-0.0101
782.2933	-0.0111
782.466	0.0004
782.6386	-0.0067
782.8113	-0.0008
782.9839	0.0035
783.1565	0.0048
783.329	0.0004
783.5016	0.0143
783.6741	-0.0025
783.8466	-0.011
784.0191	0.014
784.1916	0.0007
784.3641	-0.0027
784.5365	0.0032
784.7089	0.0035
784.8813	-0.0032
785.0537	-0.0021
785.2261	-0.0137
785.3984	-0.0139
785.5707	-0.0016
785.743	-0.0005
785.9153	-0.0043
786.0876	-0.0066
786.2598	-0.002
786.432	-0.0048
786.6042	-0.0018
786.7764	-0.0102
786.9486	0.0007
787.1207	-0.0261
787.2928	-0.005
787.4649	-0.0012
787.637	0.0024
787.8091	0.0065
787.9811	-0.0017
788.1532	-0.0003
788.3252	-0.0015
788.4972	-0.002
788.6691	0.0033
788.8411	-0.003
789.013	-0.0127
789.1849	-0.007
789.3568	-0.0139
789.5287	-0.0114
789.7005	-0.0143
789.8723	0.0018
790.0442	0.0211
790.2159	-0.0051
790.3877	-0.0044
790.5595	-0.011
790.7312	0.0046
790.9029	-0.0098
791.0746	-0.0125
791.2463	-0.0157
791.4179	-0.0091
791.5896	-0.0198
791.7612	-0.0089
791.9328	0.0056
792.1044	-0.0096
792.2759	-0.0178
792.4474	-0.0079
792.619	-0.0024
792.7905	-0.0107
792.9619	-0.0051
793.1334	0.0027
793.3048	0.0097
793.4762	0.0018
793.6476	0.0088
793.819	-0.0049
793.9904	-0.0087
794.1617	-0.0265
794.333	-0.0033
794.5043	-0.0263
794.6756	-0.0162
794.8469	-0.0021
795.0181	-0.0032
795.1893	-0.0129
795.3605	0.0005
795.5317	-0.0007
795.7029	-0.008
795.874	-0.0037
796.0452	-0.0116
796.2163	0.0044
796.3873	0.0067
796.5584	-0.0007
796.7294	0.002
796.9005	0.0033
797.0715	0.0049
797.2425	-0.0061
797.4134	-0.0058
797.5844	0.0056
797.7553	-0.0157
797.9262	-0.0092
798.0971	-0.0144
798.2679	-0.0193
798.4388	-0.0213
798.6096	-0.0107
798.7804	-0.0205
798.9512	-0.0136
799.122	-0.0017
799.2927	0.0068
799.4635	0.0042
799.6342	-0.0342
799.8049	-0.0029
799.9755	-0.0072
800.1462	-0.0048
800.3168	-0.0052
800.4874	-0.0067
800.658	0.0016
800.8286	0.0018
800.9991	0.0014
801.1696	0.002
801.3402	0.0121
801.5106	-0.0002
801.6811	0.0084
801.8516	0.0184
802.022	0.0133
802.1924	0.0052
802.3628	0.0109
802.5332	0.0093
802.7035	0.002
802.8739	-0.0052
803.0442	-0.0144
803.2145	-0.0045
803.3847	-0.0179
803.555	0.0275
803.7252	-0.0054
803.8954	-0.0105
804.0656	-0.0142
804.2358	-0.0109
804.4059	0
804.5761	-0.0045
804.7462	0.0002
804.9163	-0.005
805.0864	-0.0189
805.2564	-0.017
805.4264	-0.0102
805.5965	-0.0302
805.7665	0.003
805.9364	0.0036
806.1064	-0.0002
806.2763	0.0065
806.4462	0.0094
806.6161	-0.0176
806.786	0.0013
806.9559	-0.0136
807.1257	-0.0078
807.2955	0.0036
807.4653	-0.0143
807.6351	-0.0142
807.8048	-0.0208
807.9746	0.0041
808.1443	-0.0084
808.314	-0.0254
808.4837	-0.0141
808.6533	0.0034
808.8229	0.0062
808.9926	0.0003
809.1622	-0.0069
809.3317	-0.0205
809.5013	-0.0005
809.6708	-0.0058
809.8403	-0.0068
810.0098	-0.0088
810.1793	-0.0012
810.3488	-0.0017
810.5182	-0.0242
810.6876	-0.0158
810.857	-0.0069
811.0264	-0.0032
811.1958	0.0115
811.3651	0.0058
811.5344	-0.0063
811.7037	0.0011
811.873	-0.0109
812.0422	-0.006
812.2115	-0.0208
812.3807	-0.0162
812.5499	-0.0195
812.7191	-0.0103
812.8882	-0.0112
813.0574	0.0033
813.2265	-0.0118
813.3956	-0.0101
813.5646	-0.0103
813.7337	-0.0165
813.9027	-0.0043
814.0718	0.0083
814.2407	0.0151
814.4097	-0.0185
814.5787	-0.0177
814.7476	-0.0366
814.9165	-0.0118
815.0854	0.0015
815.2543	-0.004
815.4232	-0.0221
815.592	-0.0063
815.7608	-0.0035
815.9296	0.0143
816.0984	-0.0098
816.2671	-0.0225
816.4359	-0.011
816.6046	-0.0126
816.7733	-0.0354
816.942	-0.0154
817.1106	0.0064
817.2793	-0.0234
817.4479	-0.01
817.6165	-0.0027
817.785	0.0054
817.9536	-0.0358
818.1221	-0.0123
818.2906	-0.0016
818.4591	-0.0324
818.6276	-0.0172
818.7961	0.0074
818.9645	-0.0143
819.1329	0.0024
819.3013	0.0201
819.4697	0.0266
819.638	-0.0265
819.8064	-0.013
819.9747	0.0067
820.143	-0.0285
820.3113	-0.0185
820.4795	-0.0083
820.6477	-0.0082
820.816	-0.001
820.9842	-0.0003
821.1523	-0.0127
821.3205	-0.0094
821.4886	-0.0068
821.6567	-0.014
821.8248	-0.0133
821.9929	0.0144
822.1609	-0.0104
822.329	0.022
822.497	0.0201
822.665	-0.0117
822.833	-0.024
823.0009	-0.0151
823.1688	0.0008
823.3367	0.0062
823.5046	0.0101
823.6725	0.0033
823.8404	-0.0074
824.0082	0.0258
824.176	-0.0039
824.3438	-0.0004
824.5116	-0.0016
824.6793	0.0254
824.847	-0.015
825.0147	-0.0187
825.1824	0.0276
825.3501	0.0149
825.5177	-0.0394
825.6854	0.0118
825.853	0.0021
826.0206	-0.0119
826.1881	0.0105
826.3557	-0.027
826.5232	0.0075
826.6907	-0.046
826.8582	-0.0301
827.0257	-0.0194
827.1931	-0.0115
827.3605	0.0009
827.528	0.0066
827.6953	-0.0198
827.8627	0.0182
828.03	0.0174
828.1974	0.0033
828.3647	-0.0284
828.532	-0.04
828.6992	-0.023
828.8665	-0.0205
829.0337	-0.0382
829.2009	0.0327
829.3681	0.0047
829.5352	0.009
829.7024	-0.023
829.8695	-0.0406
830.0366	0.0518
830.2037	-0.013
830.3707	0.0291
830.5378	-0.0203
830.7048	0.0061
830.8718	-0.0123
831.0388	-0.0256
831.2057	0.0054
831.3727	-0.0062
831.5396	-0.0172
831.7065	-0.0508
831.8734	-0.0216
832.0402	-0.0047
832.2071	0.0074
832.3739	-0.0434
832.5407	-0.0152
832.7075	0.0007
832.8742	0.0062
833.041	-0.043
833.2077	-0.0114
833.3744	0.0036
833.541	-0.0188
833.7077	0.0251
833.8743	-0.0148
834.0409	0.0175
834.2075	0.0007
834.3741	-0.0061
834.5407	-0.0106
834.7072	0.0077
834.8737	-0.0392
835.0402	-0.0397
835.2067	0.0244
835.3731	0.002
835.5395	-0.0088
835.706	-0.0025
835.8723	-0.0224
836.0387	-0.0325
836.2051	-0.0378
836.3714	-0.0398
836.5377	-0.0168
836.704	-0.0629
836.8703	-0.0129
837.0365	-0.0093
837.2027	-0.0313
837.3689	0.0165
837.5351	0.0061
837.7013	-0.0174
837.8674	-0.0641
838.0335	-0.02
838.1997	-0.0143
838.3657	-0.0338
838.5318	0.0202
838.6978	-0.0085
838.8639	0.0053
839.0299	0.0231
839.1958	-0.0176
839.3618	0.0044
839.5277	-0.0233
839.6937	0.0026
839.8596	-0.0496
840.0254	-0.013
840.1913	0.0034
840.3571	-0.0295
840.523	-0.0127
840.6888	-0.0263
840.8545	-0.0516
841.0203	-0.0095
841.186	0.0247
841.3517	0.0345
841.5174	0.0243
841.6831	-0.0522
841.8488	-0.0295
842.0144	-0.0401
842.18	-0.007
842.3456	0.0105
842.5112	0.0273
842.6767	-0.0429
842.8422	-0.0084
843.0077	-0.0307
843.1732	-0.0346
843.3387	-0.0621
843.5042	-0.0526
843.6696	-0.051
843.835	-0.0251
844.0004	0.0302
844.1657	-0.029
844.3311	-0.0275
844.4964	-0.0799
844.6617	-0.0533
844.827	-0.0461
844.9923	-0.0123
845.1575	0.0109
845.3227	-0.0135
845.4879	-0.011
845.6531	-0.0848
845.8183	-0.0815
845.9834	-0.0289
846.1485	-0.0032
846.3136	-0.0818
846.4787	-0.1117
846.6438	0.0588
846.8088	-0.1337
846.9738	-0.0595
847.1388	-0.0325
847.3038	-0.0605
847.4687	-0.1427
847.6337	0.048
847.7986	-0.0331
847.9635	-0.0297
848.1284	0.0112
848.2932	0.0064
848.458	-0.0247
848.6228	0.0643
848.7876	-0.0013
848.9524	-0.1486
849.1172	-0.0882
849.2819	0.0029
849.4466	-0.1276
849.6113	-0.1187
849.7759	-0.049
849.9406	-0.0423
850.1052	0.0224
850.2698	-0.0327
850.4344	-0.0884
850.599	-0.0736
850.7635	0.0538
850.928	-0.0359
851.0925	-0.1036
851.257	0.0109
851.4215	-0.0668
851.5859	-0.0686
851.7503	-0.0436
851.9147	-0.03
852.0791	-0.0841
852.2434	-0.0292
852.4078	0.0035
852.5721	0.005
852.7364	0.0002
852.9007	-0.2532
853.0649	-0.0018
853.2291	-0.0602
853.3934	-0.0621
853.5575	-0.043
853.7217	-0.0543
853.8859	-0.0781
854.05	-0.1485
854.2141	-0.0781
854.3782	-0.1182
854.5423	-0.1572
854.7063	0.0358
854.8703	-0.0615
855.0343	-0.0388
855.1983	-0.1781
855.3623	0.1004
855.5262	0.0058
855.6901	-0.1403
855.854	-0.0412
856.0179	0.0183
856.1818	0.0528
856.3456	-0.0098
856.5094	-0.1488
856.6732	-0.1756
856.837	-0.0381
857.0008	-0.0109
857.1645	-0.1603
857.3282	-0.17
857.4919	-0.0509
857.6556	0.0618
857.8192	-0.0638
857.9828	-0.0219
858.1465	-0.0407
858.31	-0.1807
858.4736	-0.1352
858.6372	-0.3001
858.8007	-0.2048
858.9642	0.059
859.1277	0.0772
859.2911	0.0441
859.4546	-0.1296
859.618	-0.5134
859.7814	-0.0738
859.9448	0.1026
860.1081	0.0569
860.2715	0.1488
860.4348	-0.0084
860.5981	-0.2232
860.7614	0.0394
860.9246	-0.3153
861.0879	-0.0894
861.2511	-0.1153
861.4143	-0.3636
861.5774	0.0773
861.7406	-0.3927
861.9037	0.2313
862.0668	-0.0498
862.2299	-0.1987
862.393	-0.7323
862.556	-0.1207
862.7191	-0.1381
862.8821	-0.2392
863.0451	-0.0703
863.208	0.0261
863.371	-0.0581
863.5339	-0.2577
863.6968	0.301
863.8597	0.0009
864.0225	-0.1852
864.1854	-0.1566
864.3482	0.001
864.511	0.157
864.6737	-0.0187
864.8365	-0.1166
864.9992	-0.147
865.1619	-0.5141
865.3246	0.1355
865.4873	-0.2011
865.65	0.1258
865.8126	0.1966
865.9752	-0.0207
866.1378	-0.3506
866.3004	0.1304
866.4629	0.1424
866.6254	-0.2491
866.7879	-0.1653
866.9504	-0.2138
867.1129	-0
867.2753	-0.0703
867.4377	-0.0206
867.6001	-0.4238
867.7625	0.0605
867.9249	-0.6571
868.0872	-0.1574
868.2495	0.0869
868.4118	-0.5191
868.5741	0.1776
868.7363	-0.2348
868.8986	-0
869.0608	-0.2875
869.223	0.7916
869.3851	-0
869.5473	0.4992
869.7094	0.1087
869.8715	-0.1955
870.0336	-0.0126
870.1957	-0.7927
870.3577	-0
870.5197	-0.1131
870.6817	-0.5613
870.8437	-0.3198
871.0057	-0
871.1676	-0.3745
871.3295	-0.4574
871.4914	-0
871.6533	-0.3059
871.8151	-0.6839
871.977	-0
872.1388	-0
872.3006	-0.0352
872.4623	-0
872.6241	0.3273
872.7858	0.0149
872.9475	-0.179
873.1092	-0.3198
873.2709	0.2789
873.4325	-0.3236
873.5941	-0.3848
873.7557	-0
873.9173	-0
874.0789	0.1977
874.2404	-0.4686
874.4019	-0
874.5634	-0.293
874.7249	-0.1051
874.8863	0.2296
875.0478	0.2489
875.2092	-0
875.3706	0.1255
875.5319	-1.0798
875.6933	-0
875.8546	-0.2371
876.0159	0.2593
876.1772	-0
876.3385	-0
876.4997	0.346
876.6609	-0.2983
876.8221	-0
876.9833	-0
877.1445	-0
877.3056	0.358
877.4667	0.0021
877.6278	-0
877.7889	-0.9016
877.9499	-0.3198
878.111	-0.7793
878.272	-0
878.433	-0
878.5939	-0
878.7549	-0.3287
878.9158	-0.6862
879.0767	-0
879.2376	0.1469
879.3984	-0.2663
879.5593	-0
879.7201	-0.3452
879.8809	-0.6925
880.0417	-0.4221
880.2024	0.1828
880.3632	-0.1532
880.5239	0.0069
880.6846	0.1519
880.8452	-2.6048
881.0059	-0
881.1665	0.1941
881.3271	0.113
881.4877	-0.6748
881.6483	-0.7786
881.8088	-0.1527
881.9693	-0
882.1298	-0
882.2903	-0
