Data from MonoPyChalIsomerACN10uM410nmA_Absorbance_14-53-25-073.txt Node
Date: Fri Jul 05 14:53:25 BST 2024
User: LASERRRRR
Spectrometer: FLMT03099
Trigger mode: 0
Integration Time (sec): 1.000000E-1
Scans to average: 1
Electric dark correction enabled: true
Nonlinearity correction enabled: false
Boxcar width: 0
XAxis mode: Wavelengths
Number of Pixels in Spectrum: 3648
>>>>>Begin Spectral Data<<<<<
179.3399	0.0747
179.5586	0.0747
179.7771	0.0747
179.9957	0.1177
180.2143	1.2333
180.4329	-0
180.6514	-0
180.8699	0.3703
181.0885	0.2255
181.307	0.1192
181.5255	-0.0113
181.744	-0
181.9625	-0
182.181	-0.7864
182.3994	0.8182
182.6179	-0.1174
182.8363	1.6543
183.0547	-0.0569
183.2732	0.0119
183.4916	0.1041
183.71	0.1993
183.9284	0.3647
184.1467	-0.1264
184.3651	0.152
184.5835	0.0324
184.8018	0.0541
185.0201	0.0045
185.2385	0.0424
185.4568	0.2302
185.6751	0.3953
185.8934	0.6665
186.1117	0.1293
186.3299	0.1827
186.5482	0.3937
186.7664	-0.0456
186.9847	0.1985
187.2029	0.094
187.4211	-0.0127
187.6393	0.2688
187.8575	-0.0765
188.0757	0.0297
188.2939	0.1598
188.512	-0
188.7302	0.4192
188.9483	0.5271
189.1665	0.3587
189.3846	0.0826
189.6027	0.1965
189.8208	0.2624
190.0389	0.2087
190.257	0.0602
190.475	0.327
190.6931	0.4817
190.9111	0.5718
191.1292	0.2534
191.3472	0.8917
191.5652	0.263
191.7832	0.3001
192.0012	0.4978
192.2192	0.4006
192.4371	0.5672
192.6551	0.397
192.873	0.3654
193.091	0.5641
193.3089	0.5898
193.5268	0.5363
193.7447	0.7917
193.9626	0.491
194.1805	1.0292
194.3984	0.5564
194.6162	0.5497
194.8341	0.5542
195.0519	0.631
195.2697	0.7105
195.4875	0.7037
195.7054	0.5589
195.9231	0.4869
196.1409	0.5635
196.3587	0.5428
196.5765	0.5666
196.7942	0.6176
197.012	0.5088
197.2297	0.6523
197.4474	0.7666
197.6651	0.5879
197.8828	0.6752
198.1005	0.6461
198.3182	0.6355
198.5358	0.7011
198.7535	0.6623
198.9711	0.5395
199.1888	0.6753
199.4064	0.7629
199.624	0.6631
199.8416	0.507
200.0592	0.6073
200.2767	0.6458
200.4943	0.6349
200.7119	0.8856
200.9294	0.669
201.1469	0.5899
201.3645	0.5823
201.582	0.6028
201.7995	0.6487
202.017	0.6532
202.2344	0.5858
202.4519	0.7437
202.6694	0.5877
202.8868	0.7131
203.1042	0.719
203.3217	0.6694
203.5391	0.6231
203.7565	0.6455
203.9739	0.6279
204.1913	0.5964
204.4086	0.694
204.626	0.7674
204.8433	0.6845
205.0607	0.6439
205.278	0.6835
205.4953	0.6566
205.7126	0.5852
205.9299	0.8277
206.1472	0.6877
206.3644	0.5834
206.5817	0.7361
206.7989	0.7451
207.0162	0.7291
207.2334	0.6573
207.4506	0.7105
207.6678	0.6124
207.885	0.6697
208.1022	0.7302
208.3194	0.6726
208.5365	0.6112
208.7537	0.638
208.9708	0.6168
209.1879	0.5968
209.405	0.7238
209.6222	0.716
209.8392	0.6529
210.0563	0.6522
210.2734	0.6882
210.4905	0.6044
210.7075	0.6442
210.9245	0.597
211.1416	0.7224
211.3586	0.7012
211.5756	0.5978
211.7926	0.6242
212.0096	0.6376
212.2265	0.5556
212.4435	0.6074
212.6604	0.5848
212.8774	0.6467
213.0943	0.5825
213.3112	0.5517
213.5281	0.5414
213.745	0.5025
213.9619	0.4994
214.1788	0.5037
214.3956	0.4841
214.6125	0.4851
214.8293	0.4313
215.0461	0.5015
215.2629	0.4809
215.4798	0.4366
215.6965	0.432
215.9133	0.4566
216.1301	0.4581
216.3469	0.4404
216.5636	0.4341
216.7803	0.4132
216.9971	0.4112
217.2138	0.4046
217.4305	0.3901
217.6472	0.3471
217.8639	0.3759
218.0805	0.3714
218.2972	0.3197
218.5138	0.329
218.7305	0.3417
218.9471	0.3103
219.1637	0.3188
219.3803	0.2886
219.5969	0.2719
219.8135	0.2564
220.0301	0.2898
220.2466	0.2733
220.4632	0.263
220.6797	0.2275
220.8962	0.2667
221.1127	0.2641
221.3292	0.2467
221.5457	0.2506
221.7622	0.2452
221.9787	0.2698
222.1951	0.2312
222.4116	0.2644
222.628	0.268
222.8444	0.2574
223.0608	0.233
223.2772	0.2476
223.4936	0.257
223.71	0.2532
223.9264	0.274
224.1427	0.2369
224.3591	0.2418
224.5754	0.2742
224.7917	0.2785
225.008	0.2796
225.2243	0.2615
225.4406	0.294
225.6569	0.259
225.8732	0.2655
226.0894	0.2528
226.3057	0.2695
226.5219	0.2845
226.7381	0.2689
226.9543	0.2992
227.1705	0.2869
227.3867	0.2871
227.6029	0.3036
227.8191	0.2975
228.0352	0.2825
228.2513	0.3068
228.4675	0.3096
228.6836	0.2892
228.8997	0.3021
229.1158	0.3233
229.3319	0.3291
229.548	0.3176
229.764	0.3399
229.9801	0.3318
230.1961	0.3366
230.4121	0.319
230.6282	0.3282
230.8442	0.314
231.0602	0.3618
231.2761	0.3438
231.4921	0.3548
231.7081	0.3316
231.924	0.3334
232.14	0.3844
232.3559	0.3407
232.5718	0.3721
232.7877	0.3705
233.0036	0.3523
233.2195	0.3591
233.4353	0.3621
233.6512	0.3579
233.867	0.3631
234.0829	0.3624
234.2987	0.3716
234.5145	0.3899
234.7303	0.3769
234.9461	0.3746
235.1619	0.3742
235.3776	0.3896
235.5934	0.3827
235.8091	0.3883
236.0249	0.3563
236.2406	0.39
236.4563	0.3921
236.672	0.3995
236.8877	0.3973
237.1034	0.4028
237.319	0.3957
237.5347	0.3992
237.7503	0.3828
237.966	0.4144
238.1816	0.4087
238.3972	0.3902
238.6128	0.4028
238.8284	0.4258
239.0439	0.4321
239.2595	0.4087
239.475	0.4276
239.6906	0.4224
239.9061	0.4263
240.1216	0.3919
240.3371	0.4066
240.5526	0.3773
240.7681	0.4065
240.9836	0.3809
241.199	0.3912
241.4145	0.3878
241.6299	0.3715
241.8453	0.38
242.0607	0.3874
242.2761	0.3521
242.4915	0.3772
242.7069	0.3549
242.9223	0.3545
243.1376	0.3405
243.353	0.3515
243.5683	0.3354
243.7836	0.3295
243.9989	0.3257
244.2142	0.315
244.4295	0.3029
244.6448	0.3128
244.86	0.299
245.0753	0.2934
245.2905	0.2886
245.5057	0.2751
245.721	0.2786
245.9362	0.2609
246.1514	0.2689
246.3665	0.2591
246.5817	0.2584
246.7969	0.2384
247.012	0.2524
247.2271	0.2292
247.4423	0.2452
247.6574	0.233
247.8725	0.2352
248.0876	0.2264
248.3026	0.2194
248.5177	0.2288
248.7328	0.2158
248.9478	0.2059
249.1628	0.2152
249.3779	0.2125
249.5929	0.2003
249.8079	0.1993
250.0228	0.1931
250.2378	0.212
250.4528	0.1964
250.6677	0.1854
250.8827	0.2075
251.0976	0.2016
251.3125	0.1833
251.5274	0.1801
251.7423	0.183
251.9572	0.1929
252.172	0.1731
252.3869	0.1793
252.6017	0.1784
252.8166	0.1736
253.0314	0.1706
253.2462	0.1712
253.461	0.1847
253.6758	0.1654
253.8906	0.1791
254.1053	0.1691
254.3201	0.1629
254.5348	0.1839
254.7496	0.1849
254.9643	0.1605
255.179	0.1748
255.3937	0.1606
255.6083	0.1775
255.823	0.1681
256.0377	0.167
256.2523	0.1815
256.467	0.1535
256.6816	0.1731
256.8962	0.164
257.1108	0.1573
257.3254	0.182
257.54	0.1652
257.7545	0.1693
257.9691	0.1743
258.1836	0.1636
258.3981	0.1741
258.6127	0.1862
258.8272	0.1711
259.0417	0.1723
259.2561	0.1699
259.4706	0.1522
259.6851	0.1726
259.8995	0.1599
260.114	0.1651
260.3284	0.1535
260.5428	0.1644
260.7572	0.1776
260.9716	0.1854
261.186	0.1631
261.4003	0.1632
261.6147	0.1813
261.829	0.1554
262.0433	0.1612
262.2577	0.1646
262.472	0.1736
262.6863	0.1428
262.9005	0.1656
263.1148	0.1638
263.3291	0.1399
263.5433	0.1682
263.7576	0.1606
263.9718	0.1653
264.186	0.1611
264.4002	0.1616
264.6144	0.1555
264.8286	0.1762
265.0427	0.164
265.2569	0.1534
265.471	0.1496
265.6851	0.1577
265.8993	0.1653
266.1134	0.1541
266.3275	0.1602
266.5415	0.1434
266.7556	0.15
266.9697	0.1599
267.1837	0.1722
267.3978	0.1633
267.6118	0.1807
267.8258	0.1746
268.0398	0.1455
268.2538	0.1578
268.4677	0.1569
268.6817	0.1475
268.8957	0.1612
269.1096	0.1693
269.3235	0.1674
269.5374	0.1598
269.7514	0.1561
269.9652	0.147
270.1791	0.148
270.393	0.1536
270.6068	0.1482
270.8207	0.1411
271.0345	0.139
271.2483	0.1507
271.4622	0.1449
271.676	0.1538
271.8897	0.1383
272.1035	0.1444
272.3173	0.1348
272.531	0.1475
272.7448	0.1422
272.9585	0.1296
273.1722	0.1351
273.3859	0.1422
273.5996	0.1253
273.8133	0.1467
274.0269	0.13
274.2406	0.1302
274.4542	0.1447
274.6679	0.1297
274.8815	0.1475
275.0951	0.1323
275.3087	0.1404
275.5223	0.147
275.7358	0.1442
275.9494	0.1433
276.1629	0.1335
276.3765	0.1364
276.59	0.142
276.8035	0.1446
277.017	0.1388
277.2305	0.1401
277.444	0.1542
277.6574	0.1328
277.8709	0.1491
278.0843	0.1324
278.2978	0.1525
278.5112	0.1251
278.7246	0.1301
278.938	0.1456
279.1513	0.1583
279.3647	0.1494
279.5781	0.1464
279.7914	0.1368
280.0047	0.1548
280.2181	0.1505
280.4314	0.1545
280.6447	0.1508
280.8579	0.1446
281.0712	0.1529
281.2845	0.1561
281.4977	0.1525
281.711	0.1371
281.9242	0.154
282.1374	0.1609
282.3506	0.1515
282.5638	0.1496
282.7769	0.1612
282.9901	0.1447
283.2033	0.1555
283.4164	0.1623
283.6295	0.1439
283.8426	0.1515
284.0557	0.1551
284.2688	0.1656
284.4819	0.1606
284.695	0.1564
284.908	0.1672
285.1211	0.1433
285.3341	0.172
285.5471	0.1606
285.7601	0.1583
285.9731	0.1448
286.1861	0.1466
286.3991	0.1592
286.612	0.1637
286.825	0.1492
287.0379	0.1701
287.2508	0.1595
287.4637	0.1639
287.6766	0.1564
287.8895	0.182
288.1024	0.196
288.3152	0.1624
288.5281	0.1588
288.7409	0.1717
288.9538	0.1753
289.1666	0.1655
289.3794	0.1515
289.5922	0.149
289.8049	0.1551
290.0177	0.1681
290.2304	0.1664
290.4432	0.17
290.6559	0.1662
290.8686	0.1806
291.0813	0.1645
291.294	0.1748
291.5067	0.1826
291.7194	0.1652
291.932	0.1735
292.1447	0.1653
292.3573	0.1644
292.5699	0.1633
292.7825	0.167
292.9951	0.1733
293.2077	0.1711
293.4203	0.1586
293.6328	0.1613
293.8454	0.1768
294.0579	0.1689
294.2704	0.1736
294.4829	0.156
294.6954	0.1686
294.9079	0.1687
295.1204	0.1758
295.3328	0.1739
295.5453	0.1675
295.7577	0.1725
295.9701	0.1606
296.1825	0.159
296.3949	0.1618
296.6073	0.1639
296.8197	0.1659
297.0321	0.172
297.2444	0.156
297.4567	0.17
297.6691	0.1565
297.8814	0.1718
298.0937	0.1681
298.306	0.1702
298.5182	0.163
298.7305	0.1678
298.9428	0.1703
299.155	0.1694
299.3672	0.1605
299.5794	0.1607
299.7916	0.169
300.0038	0.1625
300.216	0.1725
300.4282	0.1664
300.6403	0.1711
300.8525	0.1655
301.0646	0.1624
301.2767	0.1725
301.4888	0.1671
301.7009	0.1711
301.913	0.1643
302.125	0.164
302.3371	0.152
302.5491	0.1699
302.7612	0.1692
302.9732	0.1643
303.1852	0.1628
303.3972	0.1577
303.6092	0.155
303.8211	0.1619
304.0331	0.1604
304.245	0.1473
304.457	0.1541
304.6689	0.1489
304.8808	0.1651
305.0927	0.1463
305.3046	0.1574
305.5164	0.1539
305.7283	0.1474
305.9401	0.1512
306.152	0.1485
306.3638	0.1589
306.5756	0.1431
306.7874	0.1432
306.9992	0.1436
307.2109	0.1409
307.4227	0.1301
307.6344	0.1465
307.8462	0.1422
308.0579	0.137
308.2696	0.1365
308.4813	0.1367
308.693	0.1323
308.9046	0.1449
309.1163	0.1353
309.328	0.1277
309.5396	0.1278
309.7512	0.1359
309.9628	0.1361
310.1744	0.1256
310.386	0.1197
310.5976	0.125
310.8091	0.1192
311.0207	0.1211
311.2322	0.1239
311.4437	0.1083
311.6552	0.1076
311.8667	0.1157
312.0782	0.0955
312.2897	0.1041
312.5012	0.1016
312.7126	0.1052
312.924	0.1044
313.1355	0.1049
313.3469	0.1005
313.5583	0.0962
313.7696	0.1079
313.981	0.1132
314.1924	0.0972
314.4037	0.0986
314.6151	0.1133
314.8264	0.1031
315.0377	0.0985
315.249	0.0998
315.4603	0.1069
315.6716	0.097
315.8828	0.0952
316.0941	0.0955
316.3053	0.0922
316.5165	0.098
316.7277	0.0862
316.9389	0.1036
317.1501	0.0842
317.3613	0.099
317.5724	0.0843
317.7836	0.0889
317.9947	0.0933
318.2058	0.0964
318.417	0.0866
318.6281	0.0828
318.8391	0.0995
319.0502	0.0959
319.2613	0.1019
319.4723	0.0984
319.6834	0.095
319.8944	0.0856
320.1054	0.0859
320.3164	0.0982
320.5274	0.093
320.7383	0.0909
320.9493	0.1077
321.1602	0.1007
321.3712	0.086
321.5821	0.0872
321.793	0.1059
322.0039	0.0968
322.2148	0.0952
322.4257	0.0938
322.6365	0.1054
322.8474	0.0985
323.0582	0.091
323.269	0.1
323.4798	0.1041
323.6906	0.1018
323.9014	0.1102
324.1122	0.0961
324.3229	0.1002
324.5337	0.0942
324.7444	0.0974
324.9551	0.1151
325.1658	0.1015
325.3765	0.1047
325.5872	0.0968
325.7979	0.0924
326.0085	0.0982
326.2192	0.102
326.4298	0.1046
326.6404	0.0975
326.851	0.0916
327.0616	0.0984
327.2722	0.1049
327.4828	0.1126
327.6933	0.0993
327.9039	0.1076
328.1144	0.1163
328.3249	0.1053
328.5354	0.1063
328.7459	0.1073
328.9564	0.1018
329.1669	0.0901
329.3773	0.093
329.5878	0.1036
329.7982	0.0994
330.0086	0.0996
330.219	0.1149
330.4294	0.1024
330.6398	0.1023
330.8502	0.0956
331.0605	0.1111
331.2708	0.0987
331.4812	0.1098
331.6915	0.0995
331.9018	0.097
332.1121	0.1001
332.3224	0.1059
332.5326	0.1184
332.7429	0.0989
332.9531	0.1105
333.1633	0.1081
333.3735	0.1124
333.5837	0.0979
333.7939	0.1013
334.0041	0.1175
334.2143	0.1089
334.4244	0.1093
334.6346	0.1005
334.8447	0.1218
335.0548	0.0961
335.2649	0.1068
335.475	0.1166
335.685	0.1042
335.8951	0.1099
336.1051	0.1238
336.3152	0.116
336.5252	0.0972
336.7352	0.1116
336.9452	0.1064
337.1552	0.1119
337.3652	0.1097
337.5751	0.1121
337.7851	0.108
337.995	0.1113
338.2049	0.1177
338.4148	0.102
338.6247	0.1097
338.8346	0.096
339.0445	0.1023
339.2543	0.102
339.4642	0.1156
339.674	0.1205
339.8838	0.116
340.0936	0.1089
340.3034	0.1218
340.5132	0.1178
340.7229	0.122
340.9327	0.1216
341.1424	0.1098
341.3522	0.1237
341.5619	0.1116
341.7716	0.1172
341.9813	0.1021
342.1909	0.117
342.4006	0.1218
342.6102	0.1286
342.8199	0.1278
343.0295	0.1314
343.2391	0.1203
343.4487	0.1253
343.6583	0.1256
343.8679	0.1215
344.0774	0.1252
344.287	0.1212
344.4965	0.1298
344.706	0.1216
344.9155	0.1252
345.125	0.1281
345.3345	0.1223
345.544	0.1215
345.7534	0.1255
345.9629	0.1131
346.1723	0.1349
346.3817	0.122
346.5911	0.1056
346.8005	0.129
347.0099	0.1077
347.2193	0.1307
347.4286	0.1285
347.638	0.1234
347.8473	0.1312
348.0566	0.1134
348.2659	0.1352
348.4752	0.1426
348.6845	0.1361
348.8937	0.138
349.103	0.1399
349.3122	0.1406
349.5214	0.1355
349.7306	0.1422
349.9398	0.146
350.149	0.143
350.3582	0.1424
350.5674	0.1486
350.7765	0.1367
350.9856	0.1383
351.1948	0.1372
351.4039	0.1343
351.613	0.136
351.822	0.148
352.0311	0.144
352.2402	0.1429
352.4492	0.1373
352.6582	0.1472
352.8672	0.1347
353.0762	0.1468
353.2852	0.1379
353.4942	0.1416
353.7032	0.1554
353.9121	0.1403
354.1211	0.1518
354.33	0.1443
354.5389	0.1495
354.7478	0.1441
354.9567	0.1545
355.1655	0.1377
355.3744	0.1486
355.5833	0.1598
355.7921	0.1735
356.0009	0.1531
356.2097	0.1617
356.4185	0.1651
356.6273	0.1613
356.8361	0.1588
357.0448	0.1481
357.2536	0.1555
357.4623	0.1522
357.671	0.1471
357.8797	0.1559
358.0884	0.1691
358.2971	0.1641
358.5057	0.1635
358.7144	0.1787
358.923	0.1669
359.1316	0.1642
359.3402	0.173
359.5488	0.1641
359.7574	0.1614
359.966	0.1721
360.1746	0.188
360.3831	0.174
360.5916	0.1757
360.8002	0.1597
361.0087	0.1809
361.2172	0.1788
361.4256	0.1782
361.6341	0.1809
361.8426	0.186
362.051	0.1934
362.2594	0.1865
362.4678	0.1799
362.6762	0.1974
362.8846	0.1913
363.093	0.1767
363.3014	0.192
363.5097	0.1678
363.718	0.1827
363.9264	0.1989
364.1347	0.1812
364.343	0.1986
364.5513	0.2065
364.7595	0.1981
364.9678	0.2029
365.176	0.192
365.3842	0.1949
365.5925	0.1938
365.8007	0.2066
366.0089	0.194
366.217	0.1933
366.4252	0.2125
366.6333	0.2111
366.8415	0.2135
367.0496	0.1942
367.2577	0.2251
367.4658	0.2197
367.6739	0.2232
367.882	0.2248
368.09	0.2204
368.2981	0.2084
368.5061	0.2039
368.7141	0.2159
368.9221	0.2317
369.1301	0.2208
369.3381	0.2041
369.5461	0.2169
369.754	0.2143
369.962	0.2149
370.1699	0.2294
370.3778	0.2288
370.5857	0.2284
370.7936	0.2221
371.0015	0.2197
371.2093	0.2246
371.4172	0.2329
371.625	0.2103
371.8328	0.2253
372.0406	0.2328
372.2484	0.2183
372.4562	0.2521
372.664	0.2175
372.8717	0.2383
373.0795	0.235
373.2872	0.2279
373.4949	0.2128
373.7026	0.2175
373.9103	0.2441
374.118	0.232
374.3256	0.2482
374.5333	0.2223
374.7409	0.2223
374.9485	0.2421
375.1561	0.2169
375.3637	0.2413
375.5713	0.2453
375.7789	0.2428
375.9864	0.2291
376.194	0.2277
376.4015	0.2436
376.609	0.2471
376.8165	0.2273
377.024	0.2559
377.2315	0.2361
377.4389	0.2513
377.6464	0.2526
377.8538	0.2532
378.0612	0.2521
378.2686	0.2559
378.476	0.2591
378.6834	0.2794
378.8908	0.2509
379.0981	0.2553
379.3055	0.2514
379.5128	0.2506
379.7201	0.2654
379.9274	0.2392
380.1347	0.2597
380.342	0.2798
380.5492	0.2406
380.7565	0.2479
380.9637	0.2532
381.1709	0.2539
381.3781	0.2712
381.5853	0.268
381.7925	0.2859
381.9997	0.2688
382.2068	0.2741
382.4139	0.2679
382.6211	0.2567
382.8282	0.272
383.0353	0.2527
383.2424	0.2685
383.4494	0.2766
383.6565	0.2471
383.8635	0.2744
384.0706	0.2658
384.2776	0.2672
384.4846	0.259
384.6916	0.2595
384.8986	0.2588
385.1055	0.2725
385.3125	0.2625
385.5194	0.2546
385.7263	0.2646
385.9333	0.2686
386.1402	0.2545
386.347	0.2643
386.5539	0.2581
386.7608	0.2798
386.9676	0.2532
387.1744	0.2739
387.3813	0.2434
387.5881	0.2403
387.7948	0.2584
388.0016	0.27
388.2084	0.2724
388.4151	0.2471
388.6219	0.2767
388.8286	0.2748
389.0353	0.2669
389.242	0.2638
389.4487	0.2603
389.6553	0.2592
389.862	0.2492
390.0686	0.231
390.2753	0.258
390.4819	0.2452
390.6885	0.2424
390.8951	0.2593
391.1016	0.2606
391.3082	0.2493
391.5147	0.2557
391.7213	0.2338
391.9278	0.2371
392.1343	0.2385
392.3408	0.2608
392.5473	0.2298
392.7537	0.2172
392.9602	0.2387
393.1666	0.259
393.373	0.247
393.5794	0.2494
393.7858	0.2327
393.9922	0.2335
394.1986	0.2506
394.4049	0.2501
394.6113	0.2316
394.8176	0.2176
395.0239	0.2426
395.2302	0.2279
395.4365	0.2249
395.6428	0.251
395.8491	0.2241
396.0553	0.2475
396.2615	0.2178
396.4678	0.2238
396.674	0.2134
396.8802	0.2334
397.0863	0.2333
397.2925	0.2169
397.4987	0.213
397.7048	0.2139
397.9109	0.2155
398.117	0.2084
398.3231	0.2171
398.5292	0.2253
398.7353	0.2342
398.9413	0.2353
399.1474	0.2276
399.3534	0.2393
399.5594	0.2245
399.7654	0.2548
399.9714	0.2437
400.1774	0.221
400.3833	0.2138
400.5893	0.2222
400.7952	0.2324
401.0011	0.2245
401.207	0.2411
401.4129	0.2197
401.6188	0.2278
401.8247	0.2322
402.0305	0.2092
402.2364	0.2164
402.4422	0.2436
402.648	0.2318
402.8538	0.2158
403.0596	0.2307
403.2654	0.2379
403.4711	0.1985
403.6768	0.2164
403.8826	0.2266
404.0883	0.2117
404.294	0.2125
404.4997	0.2272
404.7054	0.2213
404.911	0.2154
405.1167	0.2147
405.3223	0.2191
405.5279	0.2467
405.7335	0.2402
405.9391	0.2245
406.1447	0.221
406.3502	0.2448
406.5558	0.219
406.7613	0.2231
406.9668	0.2157
407.1724	0.2358
407.3778	0.2276
407.5833	0.2271
407.7888	0.2188
407.9942	0.233
408.1997	0.2153
408.4051	0.214
408.6105	0.2273
408.8159	0.2117
409.0213	0.2137
409.2267	0.2328
409.432	0.2116
409.6374	0.2245
409.8427	0.2135
410.048	0.22
410.2533	0.2088
410.4586	0.2241
410.6639	0.2108
410.8691	0.2347
411.0744	0.2179
411.2796	0.2112
411.4848	0.2078
411.69	0.209
411.8952	0.2328
412.1004	0.232
412.3056	0.227
412.5107	0.2104
412.7158	0.2209
412.921	0.2129
413.1261	0.2232
413.3312	0.2163
413.5362	0.1959
413.7413	0.2108
413.9464	0.2268
414.1514	0.2072
414.3564	0.2069
414.5614	0.211
414.7664	0.2231
414.9714	0.2169
415.1764	0.2155
415.3813	0.2152
415.5863	0.2298
415.7912	0.2168
415.9961	0.1992
416.201	0.2181
416.4059	0.2298
416.6108	0.1884
416.8156	0.2112
417.0205	0.1933
417.2253	0.1982
417.4301	0.232
417.6349	0.1894
417.8397	0.2246
418.0445	0.2018
418.2492	0.2224
418.454	0.2001
418.6587	0.2027
418.8634	0.2063
419.0681	0.201
419.2728	0.2113
419.4775	0.196
419.6822	0.1948
419.8868	0.1897
420.0915	0.202
420.2961	0.1946
420.5007	0.2012
420.7053	0.204
420.9099	0.222
421.1144	0.1873
421.319	0.1917
421.5235	0.2073
421.728	0.1947
421.9325	0.1865
422.137	0.2043
422.3415	0.194
422.546	0.1969
422.7504	0.2075
422.9549	0.2109
423.1593	0.1865
423.3637	0.1809
423.5681	0.1747
423.7725	0.1907
423.9769	0.1836
424.1812	0.1717
424.3856	0.1677
424.5899	0.1964
424.7942	0.1922
424.9985	0.1945
425.2028	0.1853
425.4071	0.2128
425.6113	0.1723
425.8156	0.1837
426.0198	0.1918
426.224	0.1612
426.4282	0.1762
426.6324	0.177
426.8366	0.1769
427.0407	0.1689
427.2449	0.1725
427.449	0.1665
427.6531	0.1605
427.8572	0.1639
428.0613	0.1737
428.2654	0.1773
428.4694	0.1627
428.6735	0.1756
428.8775	0.171
429.0815	0.1756
429.2855	0.156
429.4895	0.179
429.6935	0.1549
429.8975	0.1641
430.1014	0.1464
430.3053	0.1443
430.5093	0.1522
430.7132	0.1448
430.9171	0.1436
431.1209	0.1416
431.3248	0.1436
431.5286	0.1404
431.7325	0.1586
431.9363	0.1409
432.1401	0.1452
432.3439	0.1281
432.5477	0.1183
432.7514	0.1174
432.9552	0.1447
433.1589	0.1241
433.3627	0.126
433.5664	0.1124
433.7701	0.1177
433.9737	0.1072
434.1774	0.1176
434.3811	0.1119
434.5847	0.128
434.7883	0.1152
434.9919	0.1203
435.1955	0.1095
435.3991	0.1246
435.6027	0.1203
435.8062	0.1103
436.0098	0.0973
436.2133	0.1018
436.4168	0.1102
436.6203	0.0969
436.8238	0.1144
437.0272	0.1077
437.2307	0.1002
437.4341	0.102
437.6375	0.108
437.841	0.0961
438.0443	0.1105
438.2477	0.0947
438.4511	0.0964
438.6545	0.0906
438.8578	0.1119
439.0611	0.1059
439.2644	0.0757
439.4677	0.0791
439.671	0.0927
439.8743	0.0777
440.0775	0.0909
440.2808	0.0767
440.484	0.0734
440.6872	0.0756
440.8904	0.068
441.0936	0.1039
441.2967	0.0882
441.4999	0.0855
441.703	0.0674
441.9062	0.0723
442.1093	0.0715
442.3124	0.0762
442.5155	0.0538
442.7185	0.0765
442.9216	0.0409
443.1246	0.0745
443.3276	0.0697
443.5307	0.0517
443.7337	0.0507
443.9366	0.0632
444.1396	0.0525
444.3426	0.0573
444.5455	0.0562
444.7484	0.0453
444.9513	0.0566
445.1542	0.0572
445.3571	0.0679
445.56	0.0601
445.7628	0.0372
445.9657	0.0535
446.1685	0.0565
446.3713	0.0472
446.5741	0.0487
446.7769	0.0316
446.9797	0.0436
447.1824	0.0504
447.3852	0.0377
447.5879	0.0656
447.7906	0.0572
447.9933	0.0481
448.196	0.0389
448.3986	0.0509
448.6013	0.0346
448.8039	0.0205
449.0066	0.0186
449.2092	0.0388
449.4118	0.0348
449.6143	0.0476
449.8169	0.0481
450.0195	0.0172
450.222	0.0104
450.4245	0.0291
450.627	0.0394
450.8295	0.0282
451.032	0.0254
451.2345	0.0333
451.4369	0.0284
451.6394	0.0217
451.8418	0.0128
452.0442	0.0158
452.2466	0.0248
452.449	0.0141
452.6513	0.0176
452.8537	0.0155
453.056	0.0061
453.2583	0.0196
453.4607	0.0154
453.663	0.0202
453.8652	0.0226
454.0675	0.0171
454.2697	0.0223
454.472	0.0085
454.6742	0.0123
454.8764	0.0131
455.0786	0.0192
455.2808	0.0082
455.4829	0.0212
455.6851	0.0139
455.8872	0.0292
456.0893	0.0283
456.2915	0.0107
456.4935	0.0383
456.6956	0.0171
456.8977	0.0169
457.0997	0.0103
457.3018	0.0077
457.5038	0.0185
457.7058	0.0034
457.9078	0.002
458.1098	0.0034
458.3117	0.0159
458.5137	0.02
458.7156	0.0114
458.9175	-0.0063
459.1194	0.0036
459.3213	0.0147
459.5232	0.0026
459.725	0.005
459.9269	0.0048
460.1287	0.0025
460.3305	0.0047
460.5323	0.0064
460.7341	-0.0038
460.9359	0.0032
461.1376	0.0143
461.3394	-0.0098
461.5411	0.0173
461.7428	0.0079
461.9445	0.0103
462.1462	0.0334
462.3479	0.0059
462.5495	-0.0047
462.7512	0.0171
462.9528	-0.0021
463.1544	-0.0138
463.356	-0.0053
463.5576	0.0139
463.7592	-0.0083
463.9607	0.0036
464.1623	0.0231
464.3638	0.0158
464.5653	-0.006
464.7668	-0.0021
464.9683	-0.0017
465.1697	0.0088
465.3712	-0.0091
465.5726	-0.0118
465.7741	-0.0032
465.9755	-0.0075
466.1769	0.0076
466.3782	-0.0014
466.5796	-0.0065
466.7809	0.0239
466.9823	-0.0054
467.1836	0.0029
467.3849	0.0025
467.5862	0.0072
467.7875	-0.0049
467.9887	0.0135
468.19	0.0003
468.3912	-0.0112
468.5924	-0.0029
468.7936	-0.0062
468.9948	-0.0021
469.196	0.0023
469.3972	-0.0145
469.5983	0.0075
469.7994	-0.0113
470.0006	0.0033
470.2017	-0.0107
470.4027	-0.0068
470.6038	0.0044
470.8049	-0.0159
471.0059	0.0042
471.2069	-0.0226
471.408	0.0064
471.6089	-0.0013
471.8099	0.0058
472.0109	0.0041
472.2119	-0.0141
472.4128	-0.0018
472.6137	0.0017
472.8146	-0.0145
473.0155	-0.0049
473.2164	0.0057
473.4173	0.0051
473.6181	0.0032
473.819	0.0161
474.0198	-0.0064
474.2206	-0.0052
474.4214	-0.0102
474.6222	-0.0065
474.8229	-0.0042
475.0237	-0.0051
475.2244	0.0007
475.4251	-0.0029
475.6258	0.0057
475.8265	-0.0089
476.0272	0.0078
476.2278	-0.0007
476.4285	-0.0074
476.6291	-0.0143
476.8297	-0.005
477.0303	0.0013
477.2309	-0.0008
477.4315	-0.0148
477.632	0.0001
477.8326	-0.0183
478.0331	0.0044
478.2336	-0.0052
478.4341	-0.0196
478.6346	-0.0096
478.8351	-0.0078
479.0355	-0.0043
479.236	-0.0038
479.4364	-0.0087
479.6368	-0.005
479.8372	-0.009
480.0376	-0.0157
480.2379	-0.0229
480.4383	-0.0135
480.6386	0.0044
480.8389	-0.0038
481.0392	-0.0195
481.2395	-0.0096
481.4398	0.0078
481.6401	0.0032
481.8403	-0.0029
482.0405	-0.0063
482.2408	-0.028
482.441	0.0027
482.6411	0.0032
482.8413	0.0017
483.0415	-0.0156
483.2416	-0.0155
483.4417	-0.0015
483.6419	-0.0033
483.8419	-0.0046
484.042	0.011
484.2421	-0.0004
484.4422	-0.0031
484.6422	-0.0052
484.8422	-0.0057
485.0422	-0.0156
485.2422	-0.0028
485.4422	-0.0131
485.6422	-0.0094
485.8421	-0.0046
486.042	-0.0118
486.242	-0.0053
486.4419	-0.0067
486.6417	-0.0042
486.8416	-0.0088
487.0415	-0.0112
487.2413	-0.0092
487.4411	-0.015
487.641	-0.0123
487.8408	0.007
488.0405	-0.0101
488.2403	-0.0171
488.4401	-0.0025
488.6398	-0.0058
488.8395	-0.0149
489.0392	0.0045
489.2389	-0.0092
489.4386	-0.0026
489.6383	-0.0127
489.8379	-0.0008
490.0376	-0.0123
490.2372	-0.0101
490.4368	-0.0212
490.6364	-0.0127
490.836	-0.0169
491.0355	-0.0087
491.2351	-0.0114
491.4346	-0.0072
491.6341	-0.0163
491.8336	-0.0077
492.0331	-0.0093
492.2326	-0.0172
492.432	-0.007
492.6315	-0.0069
492.8309	-0.0197
493.0303	-0.0257
493.2297	-0.0091
493.4291	-0.0058
493.6284	0.0031
493.8278	-0.0053
494.0271	-0.0033
494.2264	-0.0026
494.4257	-0.0146
494.625	-0.0102
494.8243	-0.0246
495.0236	-0.0125
495.2228	-0.0193
495.422	-0.0056
495.6213	-0.0104
495.8205	-0.0104
496.0196	-0.0028
496.2188	-0.0044
496.418	-0.0115
496.6171	-0.0142
496.8162	-0.0102
497.0153	-0.0087
497.2144	-0.0187
497.4135	0.0013
497.6126	-0.022
497.8116	-0.014
498.0107	-0.0026
498.2097	-0.0181
498.4087	-0.0016
498.6077	-0.0028
498.8067	-0.0023
499.0056	-0.0042
499.2046	-0.0167
499.4035	-0.02
499.6024	-0.0035
499.8013	-0.0052
500.0002	-0.0125
500.199	-0.0006
500.3979	-0.0121
500.5967	-0.0352
500.7956	-0.0074
500.9944	-0.014
501.1932	-0.0128
501.3919	-0.0139
501.5907	-0.0213
501.7895	-0.0038
501.9882	-0.0124
502.1869	-0.006
502.3856	-0.0081
502.5843	-0.0158
502.783	-0.0106
502.9816	-0.0159
503.1803	-0.0134
503.3789	-0.0094
503.5775	-0.0061
503.7761	-0.0088
503.9747	-0.0104
504.1732	-0.0109
504.3718	0.0052
504.5703	-0.0039
504.7689	-0.0038
504.9674	-0.007
505.1658	-0.0079
505.3643	-0.0078
505.5628	-0.0044
505.7612	-0.0145
505.9597	0.0087
506.1581	-0.0186
506.3565	0.0053
506.5549	-0.0055
506.7532	-0.017
506.9516	-0.0113
507.1499	-0.0093
507.3482	-0.0173
507.5465	-0.0132
507.7448	0.0036
507.9431	-0.011
508.1414	-0.0069
508.3396	-0.0128
508.5379	0.0014
508.7361	-0.0145
508.9343	-0.0027
509.1325	-0.0081
509.3306	-0.008
509.5288	-0.0061
509.7269	-0.0107
509.9251	-0.001
510.1232	-0.0128
510.3213	-0.0045
510.5193	-0.0038
510.7174	-0.0192
510.9154	-0.0079
511.1135	-0.0151
511.3115	-0.0134
511.5095	-0.002
511.7075	-0.0018
511.9055	-0.009
512.1034	-0.0174
512.3014	0.0026
512.4993	0.0013
512.6972	-0.0132
512.8951	-0.0182
513.093	-0.0069
513.2908	0.0017
513.4887	-0.0021
513.6865	-0.0086
513.8844	-0.0104
514.0822	-0.0137
514.2799	-0.0074
514.4777	-0.0093
514.6755	-0.013
514.8732	-0.0119
515.0709	-0.0065
515.2687	-0.0034
515.4664	-0.0153
515.664	-0.005
515.8617	-0.006
516.0594	-0.0242
516.257	-0.0038
516.4546	-0.0158
516.6522	-0.0043
516.8498	-0.0077
517.0474	-0.0057
517.2449	0.0043
517.4425	-0.0195
517.64	-0.0101
517.8375	-0.0029
518.035	-0.0095
518.2325	-0.005
518.43	-0.014
518.6274	-0.0143
518.8249	-0.022
519.0223	-0.0105
519.2197	-0.0153
519.4171	-0.0029
519.6145	-0.0105
519.8118	-0.0037
520.0092	-0.0062
520.2065	-0.0139
520.4038	-0.0233
520.6011	-0.0024
520.7984	-0.0222
520.9956	-0.0161
521.1929	-0.0157
521.3901	-0.0069
521.5874	-0.0081
521.7846	0.0071
521.9818	-0.0162
522.1789	-0.0127
522.3761	-0.0084
522.5732	-0.0094
522.7704	-0.0189
522.9675	0.0025
523.1646	-0.0099
523.3617	-0.0022
523.5587	-0.0087
523.7558	-0.0099
523.9528	-0.0017
524.1498	-0.0067
524.3468	-0.0094
524.5438	-0.0151
524.7408	0.0024
524.9378	0.0024
525.1347	-0.0096
525.3316	0.0008
525.5285	-0.0122
525.7254	-0.0081
525.9223	-0.0073
526.1192	-0.009
526.316	-0.0092
526.5129	-0.0039
526.7097	0.0012
526.9065	-0.0062
527.1033	-0.0047
527.3	0.0034
527.4968	-0.0158
527.6935	-0.0011
527.8903	-0.0063
528.087	-0.003
528.2837	-0.0082
528.4804	-0.0004
528.677	-0.0052
528.8737	0.0077
529.0703	-0.0057
529.2669	-0.0056
529.4635	-0.0075
529.6601	-0.0023
529.8567	-0.0098
530.0532	-0.0091
530.2498	0.0017
530.4463	-0.0001
530.6428	-0.0105
530.8393	-0.0018
531.0358	-0.0014
531.2322	-0.0061
531.4287	-0.0107
531.6251	-0.002
531.8215	0.0028
532.0179	-0.0036
532.2143	0.0058
532.4107	-0.0093
532.607	-0.0053
532.8034	0.0011
532.9997	-0.0067
533.196	-0.0028
533.3923	-0.0179
533.5886	-0.0064
533.7848	-0.0051
533.9811	-0.0057
534.1773	-0.0058
534.3735	0.003
534.5697	-0.0093
534.7659	-0.005
534.9621	-0.0074
535.1582	-0.0154
535.3544	-0.0181
535.5505	-0.0038
535.7466	-0.0078
535.9427	-0.0067
536.1387	-0.0021
536.3348	-0.0062
536.5308	-0.0004
536.7269	-0.0146
536.9229	0.0051
537.1189	-0.0018
537.3148	-0.0107
537.5108	-0.0103
537.7068	-0.0022
537.9027	-0.0102
538.0986	-0.0097
538.2945	-0.0014
538.4904	-0.0116
538.6863	-0.0121
538.8821	-0.0011
539.078	-0.0064
539.2738	-0.0022
539.4696	-0.0086
539.6654	0.0053
539.8611	0.0137
540.0569	-0.0029
540.2526	-0.0043
540.4484	-0.0019
540.6441	0.0014
540.8398	-0.0026
541.0355	0.0004
541.2311	-0.0074
541.4268	-0.005
541.6224	0.0017
541.818	0.0016
542.0136	-0.0051
542.2092	-0.0044
542.4048	-0.0052
542.6003	-0.0042
542.7959	-0.0006
542.9914	-0.0064
543.1869	0.0024
543.3824	-0.0061
543.5779	-0.0047
543.7734	-0.001
543.9688	-0.018
544.1642	0.0084
544.3596	0.0012
544.555	-0.0128
544.7504	-0.0042
544.9458	-0.0087
545.1411	-0.0051
545.3365	-0.0063
545.5318	-0.0102
545.7271	-0.0084
545.9224	-0.0028
546.1177	0.0018
546.3129	-0.0036
546.5081	-0.0049
546.7034	0.0001
546.8986	-0.0054
547.0938	-0.0008
547.289	-0.0062
547.4841	-0.0051
547.6793	-0.0014
547.8744	-0.0041
548.0695	0.0024
548.2646	-0.0043
548.4597	-0.0029
548.6548	-0.0069
548.8498	-0.0014
549.0448	0.0075
549.2399	-0.0078
549.4349	0.0027
549.6298	-0.0044
549.8248	0.0056
550.0198	-0.0088
550.2147	-0.0037
550.4096	-0.0037
550.6045	-0.0036
550.7994	-0.0045
550.9943	0.0008
551.1892	-0.001
551.384	0.0018
551.5788	-0.0015
551.7737	0.0066
551.9685	-0.0014
552.1632	-0.0015
552.358	-0.0043
552.5528	-0.0001
552.7475	-0.0002
552.9422	0.002
553.1369	-0.0059
553.3316	0.0086
553.5263	-0.0124
553.7209	0.0011
553.9156	-0.0042
554.1102	0.0051
554.3048	-0.014
554.4994	0.005
554.694	0.0024
554.8885	-0.0031
555.0831	-0.0069
555.2776	-0.0046
555.4721	-0.0018
555.6666	-0.0059
555.8611	0.0038
556.0555	0.0022
556.25	0.0004
556.4444	-0.0137
556.6388	0.0047
556.8332	-0.0078
557.0276	-0.0039
557.222	-0.0064
557.4163	-0.0037
557.6107	-0.0075
557.805	0.0084
557.9993	-0.0009
558.1936	-0.0015
558.3879	0.0038
558.5821	-0.0043
558.7764	-0.0036
558.9706	0.0014
559.1648	0.0034
559.359	-0.0084
559.5532	-0.0081
559.7473	-0.0036
559.9415	-0.0044
560.1356	-0.004
560.3297	-0.015
560.5238	-0.0094
560.7179	-0.003
560.9119	-0.0057
561.106	-0.0089
561.3	-0.0086
561.494	-0.0065
561.688	-0.0143
561.882	-0.0077
562.076	-0.0166
562.2699	0.0017
562.4639	-0.0033
562.6578	-0.0077
562.8517	-0.0001
563.0456	0.0007
563.2395	-0.0018
563.4333	0.0023
563.6272	0.0011
563.821	0.0025
564.0148	-0.0018
564.2086	-0.0057
564.4024	0.0001
564.5961	-0.0068
564.7899	0.0102
564.9836	-0.0055
565.1773	-0.0061
565.371	0.0034
565.5647	0.0023
565.7584	-0.0027
565.952	-0.0005
566.1456	0.0039
566.3393	-0.0026
566.5329	0.0007
566.7264	-0.0027
566.92	-0.0048
567.1136	0.003
567.3071	-0.0049
567.5006	-0.0031
567.6941	-0.0049
567.8876	-0.0017
568.0811	0.0001
568.2745	0.008
568.468	0.0092
568.6614	0.002
568.8548	-0.0047
569.0482	-0.0041
569.2416	-0.0081
569.4349	-0.0017
569.6283	-0.001
569.8216	-0.0073
570.0149	-0.0055
570.2082	0.0049
570.4015	0.0039
570.5947	0.0026
570.788	0.0055
570.9812	0.0044
571.1744	0.0012
571.3676	-0.0081
571.5608	0.0014
571.754	-0.0003
571.9471	0.0018
572.1402	-0.0004
572.3333	-0.0049
572.5264	0.0042
572.7195	-0.0019
572.9126	-0.0013
573.1057	-0.0069
573.2987	-0.0035
573.4917	0.0023
573.6847	-0.0034
573.8777	0.0053
574.0707	-0.0021
574.2636	-0.001
574.4566	-0.0026
574.6495	0.004
574.8424	-0.0008
575.0353	-0.0069
575.2281	0.0049
575.421	-0.0046
575.6138	0.0023
575.8067	-0.0027
575.9995	0.0006
576.1923	0.0048
576.385	-0.0044
576.5778	0.0013
576.7706	-0.0005
576.9633	-0.0027
577.156	0.0042
577.3487	-0.0029
577.5414	0.0024
577.734	0.0031
577.9267	0.0075
578.1193	-0.0073
578.3119	-0.0028
578.5045	0.0018
578.6971	-0.0027
578.8897	0.0039
579.0822	-0.0015
579.2747	0.0033
579.4673	-0.0089
579.6598	-0.0028
579.8522	-0.0068
580.0447	-0.0016
580.2372	0.0013
580.4296	0.0007
580.622	-0.0047
580.8144	0.0004
581.0068	-0.004
581.1992	-0.0089
581.3915	-0.0097
581.5839	-0.0076
581.7762	-0.0061
581.9685	-0.0063
582.1608	-0.0006
582.353	-0.0052
582.5453	0.004
582.7375	0.0051
582.9298	0.0039
583.122	-0.0047
583.3142	-0.003
583.5063	0.0012
583.6985	-0.0008
583.8906	0.0008
584.0827	-0.0037
584.2749	0.0009
584.4669	-0.006
584.659	-0.0013
584.8511	-0.0071
585.0431	-0.0052
585.2352	0.0033
585.4272	-0.0029
585.6192	0.0049
585.8111	-0.0012
586.0031	-0.0004
586.195	0.001
586.387	0.0044
586.5789	-0.0015
586.7708	0.0069
586.9627	0.0037
587.1545	-0.0062
587.3464	0.0052
587.5382	0.0031
587.73	0.002
587.9218	0.0038
588.1136	0.0002
588.3053	0.0075
588.4971	-0.0041
588.6888	-0.0008
588.8805	-0.0026
589.0722	0.0073
589.2639	-0.0001
589.4556	-0.0041
589.6472	0.0013
589.8389	-0.0095
590.0305	-0.0094
590.2221	0.001
590.4137	-0.0091
590.6052	0.0052
590.7968	0.0067
590.9883	0.0034
591.1798	0.0029
591.3713	-0.0016
591.5628	0.0052
591.7543	-0.0011
591.9458	0.0024
592.1372	0.0076
592.3286	0.0047
592.52	0.006
592.7114	-0.003
592.9028	-0.0025
593.0941	-0.0055
593.2855	0.0012
593.4768	-0.0024
593.6681	-0.005
593.8594	-0.0093
594.0506	0.0004
594.2419	0.0015
594.4331	-0.0013
594.6244	0.0018
594.8156	-0.0031
595.0067	0.0007
595.1979	0.0075
595.3891	0.004
595.5802	-0.0034
595.7713	-0.0108
595.9624	-0.0006
596.1535	0.0048
596.3446	-0.0043
596.5357	-0.008
596.7267	0.0016
596.9177	-0.0015
597.1087	-0.0062
597.2997	-0.0025
597.4907	-0.0015
597.6817	-0.0048
597.8726	0.0016
598.0635	-0.0062
598.2544	0.0034
598.4453	-0.0011
598.6362	-0.0031
598.827	-0.0079
599.0179	0.0041
599.2087	0.0015
599.3995	0.002
599.5903	0.0005
599.7811	0.0036
599.9718	-0.0003
600.1626	-0.0024
600.3533	-0.0033
600.544	0.005
600.7347	-0.0064
600.9254	0.0052
601.116	-0.0092
601.3067	0.0003
601.4973	-0.0034
601.6879	0.0053
601.8785	-0.0052
602.0691	-0.0068
602.2596	-0.0007
602.4502	-0.0014
602.6407	0.0024
602.8312	-0.0008
603.0217	-0.0042
603.2122	0.0038
603.4027	0.0041
603.5931	-0.0005
603.7835	-0.0014
603.9739	0.0032
604.1643	-0.0071
604.3547	0.0008
604.5451	0.0045
604.7354	0.0029
604.9257	0.0024
605.116	-0.0009
605.3063	0.0079
605.4966	0.0022
605.6869	-0.0017
605.8771	0.003
606.0673	0.0015
606.2575	0.0008
606.4477	0.0077
606.6379	0.0008
606.8281	-0
607.0182	-0
607.2083	0.0069
607.3985	-0.0022
607.5885	0.0012
607.7786	0.0069
607.9687	-0.0008
608.1587	-0.0006
608.3488	-0.0012
608.5388	0.0034
608.7288	-0.0018
608.9187	-0.0023
609.1087	-0.001
609.2986	0.0013
609.4886	0.0003
609.6785	-0.0029
609.8684	-0.0011
610.0582	0.002
610.2481	0.0012
610.4379	-0.0032
610.6278	-0.0035
610.8176	0.0035
611.0074	-0.0025
611.1971	-0.0017
611.3869	-0.0016
611.5766	-0.0081
611.7664	0.0097
611.9561	0.0018
612.1458	-0.0017
612.3354	-0.0102
612.5251	0.0046
612.7147	0.0039
612.9044	0.0062
613.094	0.0012
613.2836	0.0008
613.4731	-0.0045
613.6627	-0.0003
613.8522	0.0046
614.0417	-0.0022
614.2313	-0.0059
614.4207	-0.002
614.6102	0.0037
614.7997	0.001
614.9891	-0.0077
615.1785	0.0017
615.3679	-0.0049
615.5573	0.0047
615.7467	0.0034
615.9361	0.0017
616.1254	-0.0016
616.3147	0.0027
616.504	0.0062
616.6933	0.0049
616.8826	0.0013
617.0718	0.0045
617.2611	0.0047
617.4503	0.0007
617.6395	-0.0047
617.8287	-0.0013
618.0179	0.0039
618.207	0.0079
618.3961	0.0049
618.5853	-0.0015
618.7744	0.0051
618.9634	0.0069
619.1525	0.0001
619.3416	0.0023
619.5306	0.0014
619.7196	-0.006
619.9086	-0.0086
620.0976	0.0024
620.2866	-0.001
620.4755	0.0051
620.6645	0.0013
620.8534	0.0062
621.0423	0.0061
621.2312	0.0058
621.42	0.0015
621.6089	0.0052
621.7977	0.0048
621.9865	-0.0035
622.1753	0.0011
622.3641	-0.0014
622.5529	0.0053
622.7416	0.0102
622.9303	-0.0014
623.1191	0.0013
623.3078	-0.0064
623.4964	0.0024
623.6851	0.0006
623.8737	0.0008
624.0624	0.0026
624.251	-0.0025
624.4396	-0.0051
624.6282	-0.0024
624.8167	-0.0004
625.0053	-0.0081
625.1938	0.0124
625.3823	0.0016
625.5708	0.0009
625.7593	-0.0036
625.9477	-0.0059
626.1362	0.0002
626.3246	-0.0031
626.513	0.0028
626.7014	0.0018
626.8898	0.0023
627.0781	-0.0021
627.2665	0.0003
627.4548	0.008
627.6431	0.0034
627.8314	0.0038
628.0197	0.0131
628.2079	-0.0077
628.3962	-0.0089
628.5844	0.004
628.7726	0.0074
628.9608	0.007
629.1489	-0.0028
629.3371	0.0067
629.5252	-0.0007
629.7134	0.0085
629.9015	-0.0012
630.0895	0.0032
630.2776	0.0019
630.4657	-0
630.6537	0.0024
630.8417	-0.0015
631.0297	-0.0075
631.2177	-0.0003
631.4057	-0.0029
631.5936	0.0063
631.7815	0.0003
631.9695	0.0045
632.1574	0.0042
632.3452	0.0136
632.5331	0.0083
632.7209	0.0053
632.9088	0.0142
633.0966	0.0098
633.2844	0.0014
633.4722	0.004
633.6599	0.0038
633.8477	0.0011
634.0354	0.0038
634.2231	-0.0026
634.4108	0.0043
634.5985	0.0003
634.7861	0.0009
634.9738	0.0047
635.1614	0.001
635.349	0.0002
635.5366	-0.0028
635.7242	-0.0028
635.9117	0.0128
636.0993	0.0029
636.2868	0.005
636.4743	-0.0041
636.6618	0.0083
636.8492	-0.0003
637.0367	0.0074
637.2241	0.0006
637.4115	-0.0059
637.5989	0.0005
637.7863	0.003
637.9737	0.0025
638.161	-0.0007
638.3484	-0.0008
638.5357	0.0066
638.723	0.0016
638.9103	0.0006
639.0975	0.0059
639.2848	0.0049
639.472	0.0068
639.6592	0.0041
639.8464	0.0053
640.0336	0.0087
640.2208	0.0008
640.4079	0.0003
640.595	0.0034
640.7821	0.007
640.9692	0.0026
641.1563	0.0008
641.3434	0.0068
641.5304	-0.0008
641.7174	0.004
641.9044	0.0045
642.0914	0.0043
642.2784	0.0103
642.4653	0.0127
642.6523	0.0072
642.8392	-0.0019
643.0261	0.0074
643.213	0.0067
643.3999	-0.0026
643.5867	-0.0018
643.7735	0.0003
643.9604	-0.0006
644.1472	0.0102
644.3339	0.0026
644.5207	0.0033
644.7075	0.0023
644.8942	0.006
645.0809	0.0049
645.2676	0.0007
645.4543	0.0007
645.6409	0.0035
645.8276	-0.0003
646.0142	0.0111
646.2008	-0.0057
646.3874	-0.0003
646.574	-0.0035
646.7605	-0.0082
646.9471	-0.0104
647.1336	0.0052
647.3201	0.0079
647.5066	-0.0071
647.6931	0.0077
647.8795	0.0016
648.0659	0.0061
648.2524	0.0103
648.4388	0.0044
648.6252	0.0018
648.8115	0.0079
648.9979	-0.0022
649.1842	0.0013
649.3705	0.0034
649.5568	0.0062
649.7431	0.0065
649.9294	-0.0001
650.1156	0.0036
650.3018	-0.0001
650.488	0.0072
650.6742	0.0003
650.8604	-0.0026
651.0466	-0.005
651.2327	-0.0058
651.4188	0.0022
651.6049	0.0035
651.791	-0.0015
651.9771	0.0048
652.1632	0.001
652.3492	-0.0029
652.5352	-0.0009
652.7212	-0.0004
652.9072	0.0027
653.0932	-0.0042
653.2791	-0.0024
653.465	0.0046
653.651	-0.0045
653.8369	0.0015
654.0227	0.0023
654.2086	0.0056
654.3944	-0.0002
654.5803	0.0031
654.7661	0.0019
654.9519	-0.0049
655.1377	-0.0004
655.3234	0.0004
655.5092	-0.0042
655.6949	-0.0075
655.8806	-0.0043
656.0663	-0.0035
656.2519	0.0019
656.4376	-0.0007
656.6232	0.003
656.8088	0.0032
656.9945	-0.0006
657.18	-0.0001
657.3656	-0.0014
657.5511	-0.0019
657.7367	-0.0078
657.9222	0.0102
658.1077	0.0033
658.2932	0.0024
658.4786	-0.0052
658.6641	0.0031
658.8495	0.0007
659.0349	-0.0059
659.2203	0.002
659.4057	-0.0018
659.591	0.0066
659.7764	0.0071
659.9617	-0.0041
660.147	-0.0013
660.3323	0.0011
660.5176	0.012
660.7028	0.0026
660.888	0.011
661.0733	-0.0056
661.2585	-0.0042
661.4436	-0.0016
661.6288	0.0036
661.8139	-0.003
661.9991	0.0085
662.1842	0.0006
662.3693	0.0047
662.5544	0.0041
662.7394	0.0022
662.9245	0.0019
663.1095	0.0028
663.2945	0.0059
663.4795	0.0045
663.6644	0.0088
663.8494	0.0058
664.0343	0.0032
664.2193	-0.0037
664.4042	-0.0009
664.589	-0.0063
664.7739	-0.0024
664.9587	-0.0036
665.1436	-0.002
665.3284	0.0016
665.5132	-0.0087
665.698	-0.0017
665.8827	0.0097
666.0675	0.0061
666.2522	-0.0007
666.4369	0.0048
666.6216	0.0107
666.8063	0.0049
666.9909	0.0003
667.1756	-0.0061
667.3602	0.0001
667.5448	-0.0028
667.7294	0.0085
667.9139	0.0067
668.0985	0.0143
668.283	-0.001
668.4675	0.0012
668.652	0.0053
668.8365	-0.0038
669.0209	0.0126
669.2054	0.0116
669.3898	0.0019
669.5742	0.0016
669.7586	-0.0002
669.943	0.0157
670.1273	0.0037
670.3117	-0.0048
670.496	0.0022
670.6803	0.012
670.8646	0.0099
671.0488	-0.0045
671.2331	0.0106
671.4173	0.0028
671.6015	0.0003
671.7857	-0.0003
671.9699	0.0046
672.1541	0.0035
672.3382	0.0116
672.5223	0.0038
672.7064	0.0083
672.8905	0.005
673.0746	-0.0058
673.2587	0.0008
673.4427	0.0081
673.6267	0.0035
673.8107	0.009
673.9947	0.0075
674.1787	0.0056
674.3626	0.0006
674.5465	0.007
674.7304	0.0052
674.9143	0.0081
675.0982	0.0144
675.2821	-0.0015
675.4659	0.0038
675.6497	0.0015
675.8335	0.0036
676.0173	-0.0029
676.2011	0.0066
676.3849	0.0023
676.5686	-0.007
676.7523	0.0041
676.936	-0.0007
677.1197	-0.0031
677.3034	-0.0099
677.487	0.0106
677.6706	-0.0034
677.8542	0.0021
678.0378	0
678.2214	-0.0014
678.405	-0.0001
678.5885	-0.0097
678.772	-0.0012
678.9555	-0.0077
679.139	-0.0003
679.3225	0.0054
679.5059	0.0051
679.6894	0.002
679.8728	0.0013
680.0562	-0.0025
680.2395	-0.0054
680.4229	0.0005
680.6062	0.009
680.7896	0.0041
680.9729	-0.0074
681.1562	0.0086
681.3394	-0.0004
681.5227	-0.0021
681.7059	-0.0004
681.8891	0.0024
682.0723	0.0073
682.2555	0.0043
682.4387	-0.0022
682.6218	-0.0033
682.805	0.0062
682.9881	0.0005
683.1712	0.0043
683.3542	-0.0008
683.5373	0.0041
683.7203	-0.0082
683.9034	-0.003
684.0864	-0.0097
684.2694	-0.0016
684.4523	0.0018
684.6353	-0.0065
684.8182	0.0046
685.0011	-0.0007
685.184	0.0023
685.3669	0.0032
685.5498	0.0045
685.7326	0.004
685.9154	0.0027
686.0982	0.0077
686.281	0.0089
686.4638	0.0074
686.6465	-0.0009
686.8293	0.0044
687.012	0.0013
687.1947	-0.0094
687.3774	0.001
687.56	0.0017
687.7427	0.0056
687.9253	0.0015
688.1079	-0.0017
688.2905	0.0122
688.4731	-0.0004
688.6556	-0.0039
688.8382	-0.0014
689.0207	-0.0025
689.2032	-0.0123
689.3857	-0.0069
689.5681	-0
689.7506	-0.0046
689.933	-0.0098
690.1154	-0.0062
690.2978	-0.0066
690.4802	0.0011
690.6626	-0.0154
690.8449	-0.0079
691.0272	0.0029
691.2095	-0.0041
691.3918	-0.0047
691.5741	-0
691.7563	-0.0034
691.9386	-0.0028
692.1208	-0.0031
692.303	0.0045
692.4852	-0.0032
692.6673	0.0002
692.8495	-0.001
693.0316	0.0027
693.2137	0.0015
693.3958	-0.0035
693.5778	-0.0025
693.7599	0.0022
693.9419	-0.0034
694.1239	-0.0006
694.3059	0.0011
694.4879	0.0069
694.6699	0.0058
694.8518	-0.0003
695.0337	0.0036
695.2157	0.0076
695.3975	-0.0046
695.5794	-0.0011
695.7613	-0.0036
695.9431	-0.0008
696.1249	0.0039
696.3067	0.0035
696.4885	0.0003
696.6703	-0.0039
696.852	0.0016
697.0337	-0.0041
697.2154	0.0052
697.3971	0.0072
697.5788	0.0048
697.7605	0.0004
697.9421	0.0084
698.1237	0.0042
698.3053	0.0037
698.4869	-0.004
698.6685	-0.0068
698.85	-0.0007
699.0315	0.0049
699.213	-0.0011
699.3945	0.0022
699.576	0.0079
699.7575	0.0074
699.9389	0.0091
700.1203	-0.0044
700.3017	-0.011
700.4831	-0.007
700.6645	0.002
700.8458	-0.0005
701.0271	0.0027
701.2084	0.0154
701.3897	-0.0005
701.571	0.008
701.7523	-0.0078
701.9335	-0.0065
702.1147	0.0001
702.2959	0.0024
702.4771	0.0038
702.6583	0.0038
702.8394	-0.0002
703.0205	0.003
703.2016	-0.0017
703.3827	-0.004
703.5638	0.0119
703.7449	0.0038
703.9259	0.0027
704.1069	-0.0029
704.2879	0.0032
704.4689	0.0131
704.6499	0.0008
704.8308	0.0051
705.0117	-0.0038
705.1927	0.0019
705.3735	-0.0039
705.5544	-0.0041
705.7353	-0.0006
705.9161	-0.0097
706.0969	-0.0024
706.2777	-0.0012
706.4585	-0.0035
706.6393	0.0075
706.82	0.0008
707.0007	0.0065
707.1815	0.0069
707.3621	0.0096
707.5428	0.0019
707.7235	0.0032
707.9041	0.0063
708.0847	-0.0094
708.2653	-0.0044
708.4459	-0.0047
708.6265	-0.0001
708.807	-0.0082
708.9875	-0.0014
709.168	-0.0016
709.3485	-0.0118
709.529	-0.0046
709.7095	-0.0101
709.8899	-0.0048
710.0703	-0.0095
710.2507	0.0015
710.4311	-0.0015
710.6115	-0.0025
710.7918	-0.01
710.9721	0.0023
711.1524	0.0018
711.3327	-0.002
711.513	0.007
711.6932	0.0008
711.8735	0.0134
712.0537	-0.0038
712.2339	0.0029
712.4141	-0.0047
712.5942	-0.0067
712.7744	-0.0031
712.9545	-0.0088
713.1346	0.0009
713.3147	-0.0022
713.4947	-0.0017
713.6748	-0.0103
713.8548	-0.0053
714.0348	-0.0117
714.2148	-0.0083
714.3948	0.0062
714.5748	-0.0076
714.7547	-0.0054
714.9346	0.009
715.1145	-0.0028
715.2944	-0.0074
715.4743	0.0024
715.6541	-0.006
715.834	0.0043
716.0138	-0.0071
716.1936	-0.014
716.3733	-0.0064
716.5531	0.0028
716.7328	-0.0077
716.9126	-0.0075
717.0923	0.006
717.2719	0.0023
717.4516	0.0077
717.6312	0.0112
717.8109	-0.0034
717.9905	0.0046
718.1701	0.0001
718.3496	-0.0051
718.5292	-0.006
718.7087	0.0024
718.8882	-0.0048
719.0677	0.0021
719.2472	-0.0042
719.4267	-0.0003
719.6061	0.0029
719.7856	0.0098
719.965	0.0095
720.1443	-0.0016
720.3237	0.0098
720.5031	-0.0005
720.6824	0.0069
720.8617	-0.0015
721.041	0.0004
721.2203	0.0001
721.3995	0.0057
721.5788	-0.0034
721.758	0.0049
721.9372	0.0016
722.1164	0.0004
722.2956	0.004
722.4747	-0.0014
722.6538	-0.0019
722.8329	0.0095
723.012	0.003
723.1911	0.0009
723.3702	0.0042
723.5492	0.0081
723.7282	0.0007
723.9072	0.008
724.0862	0.0012
724.2652	-0.0027
724.4441	-0.0021
724.623	-0.0078
724.8019	-0.0076
724.9808	0.0021
725.1597	0.0005
725.3385	0.0005
725.5174	0.0002
725.6962	0.0034
725.875	0.0017
726.0538	0.0009
726.2325	-0.0049
726.4112	-0.0001
726.59	-0.0023
726.7687	0.001
726.9474	0.0054
727.126	0.0041
727.3047	-0.0081
727.4833	-0.001
727.6619	-0.0002
727.8405	0.0078
728.0191	0.0006
728.1976	0.0058
728.3762	0.002
728.5547	-0.0025
728.7332	-0.0102
728.9116	-0.0034
729.0901	0.0039
729.2686	-0.0035
729.447	0.0039
729.6254	0.0002
729.8038	-0.0036
729.9821	-0.0101
730.1605	-0.004
730.3388	0.0033
730.5171	0.0009
730.6954	-0.0051
730.8737	0.0065
731.0519	0.0009
731.2302	0.0046
731.4084	0.0033
731.5866	-0.0055
731.7648	-0.01
731.9429	-0.0062
732.1211	-0.0108
732.2992	-0.0075
732.4773	-0.0033
732.6554	-0.0044
732.8335	-0.0088
733.0115	-0.0002
733.1896	0.0034
733.3676	-0.0072
733.5456	0.0022
733.7235	0.0092
733.9015	-0.0001
734.0794	-0.0083
734.2574	-0.0004
734.4353	0.0026
734.6131	0.0068
734.791	0.0022
734.9689	-0.0059
735.1467	0.0016
735.3245	-0.0089
735.5023	-0.0097
735.68	-0.0016
735.8578	0.0074
736.0355	-0.0137
736.2132	-0.0099
736.3909	-0.0091
736.5686	-0.0178
736.7463	0.0052
736.9239	-0.0012
737.1015	-0.0031
737.2791	0.0065
737.4567	-0.0012
737.6343	-0.0023
737.8118	0.0013
737.9894	0.0048
738.1669	-0.0031
738.3444	-0.0035
738.5218	0.0057
738.6993	0.0074
738.8767	-0.0007
739.0541	0.0086
739.2315	-0.0083
739.4089	-0.0035
739.5863	0.0102
739.7636	-0.006
739.9409	0.0029
740.1182	0.0088
740.2955	0.0048
740.4728	-0.0057
740.65	-0.0067
740.8272	0.0009
741.0044	0.0001
741.1816	0.0015
741.3588	-0.0024
741.5359	0.0024
741.7131	-0.0132
741.8902	-0.0014
742.0673	0.0004
742.2444	-0.005
742.4214	-0.0042
742.5985	-0.0073
742.7755	-0.0202
742.9525	-0.0196
743.1295	-0.0066
743.3064	-0.0062
743.4834	-0.0023
743.6603	-0.0043
743.8372	-0.0061
744.0141	0.0047
744.191	-0.0107
744.3678	-0.0014
744.5446	0.0011
744.7215	0.0028
744.8982	0.0042
745.075	-0.0101
745.2518	-0.0075
745.4285	-0.0041
745.6052	-0.006
745.7819	-0.0045
745.9586	-0.0039
746.1353	-0.0013
746.3119	-0.0013
746.4885	-0.0077
746.6651	-0.0042
746.8417	-0.0012
747.0183	0.0026
747.1948	-0.0028
747.3714	0.0054
747.5479	-0.0022
747.7244	-0.0103
747.9008	0.0151
748.0773	-0.0064
748.2537	-0.0064
748.4301	-0.0054
748.6065	-0.0038
748.7829	0.0086
748.9593	-0.0023
749.1356	-0.0034
749.3119	0.0055
749.4882	-0.0139
749.6645	0.0021
749.8408	-0.01
750.017	-0.0077
750.1933	-0.0037
750.3695	-0.004
750.5457	0.0013
750.7218	-0.0005
750.898	0.0109
751.0741	0.003
751.2502	-0.0015
751.4263	0.0033
751.6024	-0.0053
751.7784	-0.0038
751.9545	-0.0039
752.1305	-0.0074
752.3065	-0.0045
752.4825	-0.0007
752.6584	-0.0059
752.8344	-0.0051
753.0103	0.0034
753.1862	-0.0063
753.3621	-0.0022
753.5379	-0.0062
753.7138	-0.0013
753.8896	-0.0002
754.0654	0.0067
754.2412	0.0098
754.417	0.0066
754.5927	-0.0031
754.7685	0.0034
754.9442	-0.0031
755.1199	0.0139
755.2956	-0.0014
755.4712	0.0081
755.6469	0.004
755.8225	0.005
755.9981	-0.0041
756.1736	0.0069
756.3492	0.0001
756.5248	-0.0056
756.7003	-0.002
756.8758	0.0108
757.0513	-0.0007
757.2267	-0.0117
757.4022	0.0086
757.5776	-0.0017
757.753	0.0056
757.9284	-0
758.1038	0.0024
758.2791	-0.0057
758.4545	-0.0107
758.6298	-0.0038
758.8051	0.0027
758.9803	-0.0006
759.1556	0.0006
759.3308	-0.0066
759.506	0.0076
759.6812	-0.0026
759.8564	0.0092
760.0316	-0.0006
760.2067	0.0106
760.3819	0.0048
760.557	0.0101
760.732	0.007
760.9071	-0.0029
761.0821	0.0097
761.2572	0.0058
761.4322	0.0063
761.6072	0.0046
761.7821	-0.0034
761.9571	0.0113
762.132	0.004
762.3069	0.0039
762.4818	-0.0071
762.6567	0.0006
762.8316	0.0005
763.0064	-0.0023
763.1812	0.0027
763.356	-0.0068
763.5308	-0.0031
763.7055	0.0113
763.8803	-0.0049
764.055	-0.0003
764.2297	-0.0038
764.4044	-0.0107
764.579	-0.004
764.7537	-0.011
764.9283	0.0109
765.1029	-0.0013
765.2775	-0.0002
765.4521	-0.0017
765.6266	-0.0028
765.8011	-0.0026
765.9756	0.008
766.1501	0.0067
766.3246	-0.0008
766.4991	0.0045
766.6735	0.0005
766.8479	-0.0124
767.0223	0.0059
767.1967	-0.0029
767.371	-0.0042
767.5454	0.0008
767.7197	-0.0044
767.894	-0.006
768.0683	-0.0104
768.2425	0.0079
768.4168	0.0071
768.591	0.0014
768.7652	-0.002
768.9394	-0.0058
769.1135	0.0044
769.2877	0.0173
769.4618	0.005
769.6359	-0.0058
769.81	0.0021
769.984	0.0074
770.1581	0.0042
770.3321	0.0108
770.5061	0.0124
770.6801	-0.0008
770.8541	0.0079
771.028	0.0147
771.202	-0.0005
771.3759	0.0033
771.5498	-0.0024
771.7236	0.0049
771.8975	-0.0018
772.0713	0.0075
772.2451	-0.0013
772.4189	0.0067
772.5927	0.0085
772.7665	0.0069
772.9402	0.0066
773.1139	0.0049
773.2876	-0.0004
773.4613	0.0088
773.635	0.0109
773.8086	-0.0145
773.9822	0.0123
774.1558	0.0115
774.3294	-0.013
774.503	0.0165
774.6765	0.0117
774.8501	0.0008
775.0236	0.0063
775.1971	0.0045
775.3705	-0.009
775.544	0.0117
775.7174	-0.0079
775.8908	-0.0037
776.0642	-0.007
776.2376	0.0014
776.4109	-0.0126
776.5843	-0.0058
776.7576	0.0027
776.9309	0.0128
777.1041	0.0068
777.2774	0.0201
777.4506	-0.0058
777.6238	-0.0085
777.797	-0.0016
777.9702	0.0015
778.1434	-0.0038
778.3165	-0.007
778.4896	-0.0042
778.6627	0.0117
778.8358	0.0039
779.0089	-0.0013
779.1819	-0.0022
779.3549	0.0116
779.5279	0.0051
779.7009	-0.0044
779.8739	0.0042
780.0468	-0.0015
780.2197	0.0081
780.3926	0.0004
780.5655	0.0055
780.7384	-0.0078
780.9112	0.0028
781.0841	-0.0066
781.2569	0.0088
781.4297	0.0028
781.6024	0.0082
781.7752	0.0018
781.9479	0.0105
782.1206	0.0053
782.2933	-0.0005
782.466	0.0019
782.6386	0.0201
782.8113	0.0044
782.9839	0.0103
783.1565	0.0199
783.329	0.0084
783.5016	0.0046
783.6741	0.0028
783.8466	-0.0055
784.0191	0.0196
784.1916	-0.0039
784.3641	0.0093
784.5365	-0.0072
784.7089	-0.0029
784.8813	-0.0076
785.0537	-0.0031
785.2261	-0.0076
785.3984	-0.0219
785.5707	-0.0025
785.743	0.0139
785.9153	-0.0092
786.0876	-0.0135
786.2598	0.0073
786.432	-0.0051
786.6042	0.0044
786.7764	-0.0163
786.9486	0.0008
787.1207	-0.0086
787.2928	0.011
787.4649	-0.001
787.637	0.0001
787.8091	0.006
787.9811	0.0141
788.1532	-0.0098
788.3252	0.0119
788.4972	-0.0047
788.6691	0.0057
788.8411	-0.001
789.013	-0.0018
789.1849	-0.0066
789.3568	-0.0096
789.5287	-0.0044
789.7005	-0.0034
789.8723	0.0049
790.0442	0.0194
790.2159	-0.002
790.3877	0.0004
790.5595	-0.0135
790.7312	0.0073
790.9029	0.0072
791.0746	-0.0117
791.2463	-0.0051
791.4179	-0.0014
791.5896	-0.0078
791.7612	-0.0147
791.9328	0.0054
792.1044	-0.0147
792.2759	-0.0135
792.4474	-0.0132
792.619	-0.0033
792.7905	-0.0008
792.9619	0.0008
793.1334	0.0022
793.3048	-0.0033
793.4762	0.0036
793.6476	-0.0068
793.819	-0.0027
793.9904	0.0076
794.1617	-0.0115
794.333	-0.0067
794.5043	-0.0084
794.6756	-0.0057
794.8469	-0.0132
795.0181	-0.0021
795.1893	0.0022
795.3605	0.0131
795.5317	-0.0075
795.7029	0.0027
795.874	-0.0015
796.0452	-0.0062
796.2163	-0.0092
796.3873	0.0204
796.5584	0.0094
796.7294	-0.0152
796.9005	0.0079
797.0715	-0.01
797.2425	-0.0047
797.4134	0.0007
797.5844	0.0051
797.7553	-0.0053
797.9262	0.0018
798.0971	-0.0106
798.2679	-0.005
798.4388	-0.0316
798.6096	-0.0063
798.7804	0.0137
798.9512	0.0075
799.122	0.0015
799.2927	-0.0132
799.4635	0.0113
799.6342	-0.0057
799.8049	-0.0045
799.9755	-0.0088
800.1462	0.0019
800.3168	-0.0002
800.4874	-0.0103
800.658	0.0228
800.8286	0.012
800.9991	0.0169
801.1696	0.0129
801.3402	0.0294
801.5106	-0.0122
801.6811	-0.0032
801.8516	0.014
802.022	0.0002
802.1924	-0.0035
802.3628	0.0125
802.5332	0.0237
802.7035	0.0136
802.8739	0.0036
803.0442	-0.0069
803.2145	0.0052
803.3847	-0.0007
803.555	-0.0032
803.7252	-0.0074
803.8954	-0.0159
804.0656	-0.0149
804.2358	0.0011
804.4059	0.0206
804.5761	-0.0009
804.7462	-0.0065
804.9163	-0.0054
805.0864	-0.0166
805.2564	-0.0016
805.4264	0.0136
805.5965	-0.0067
805.7665	0.0013
805.9364	-0.0002
806.1064	0.0327
806.2763	0.0013
806.4462	0.018
806.6161	0.0043
806.786	0.0028
806.9559	-0
807.1257	-0.0009
807.2955	0.0002
807.4653	-0.0002
807.6351	-0.0204
807.8048	0.0035
807.9746	0.0064
808.1443	0.0142
808.314	0.0072
808.4837	-0.0026
808.6533	0.0098
808.8229	0.0162
808.9926	-0.0144
809.1622	0.0111
809.3317	-0.0042
809.5013	-0.0052
809.6708	0.0088
809.8403	0.0163
810.0098	-0.0096
810.1793	-0.0013
810.3488	-0.0072
810.5182	-0.0292
810.6876	0.0086
810.857	-0.0111
811.0264	0.0212
811.1958	0.0106
811.3651	0.0287
811.5344	-0.0079
811.7037	-0.0165
811.873	-0.0131
812.0422	0.0008
812.2115	-0.007
812.3807	-0.0118
812.5499	0.0128
812.7191	-0.0059
812.8882	-0.0203
813.0574	0.018
813.2265	-0.0238
813.3956	0.0032
813.5646	-0.0022
813.7337	-0.0268
813.9027	0.0024
814.0718	0.0104
814.2407	0.0128
814.4097	-0.0031
814.5787	-0.0186
814.7476	0.0003
814.9165	-0.0058
815.0854	-0.0134
815.2543	-0.0103
815.4232	-0.014
815.592	0.0216
815.7608	0.005
815.9296	-0.0047
816.0984	0.0032
816.2671	-0.0036
816.4359	-0.0275
816.6046	-0.0163
816.7733	-0.0003
816.942	-0.0167
817.1106	-0.0003
817.2793	-0.0007
817.4479	-0.0112
817.6165	-0.007
817.785	-0.0082
817.9536	-0.046
818.1221	-0.0177
818.2906	-0.0136
818.4591	-0.0091
818.6276	-0.0146
818.7961	-0.001
818.9645	0.005
819.1329	-0.0027
819.3013	0.0348
819.4697	0.0126
819.638	0.0065
819.8064	-0.0021
819.9747	0.0232
820.143	0.0191
820.3113	-0.0429
820.4795	-0.0032
820.6477	0.0034
820.816	-0.0056
820.9842	0.0076
821.1523	-0.0054
821.3205	-0.0064
821.4886	-0.0051
821.6567	-0.0025
821.8248	0.013
821.9929	0.0143
822.1609	-0.0067
822.329	0.0167
822.497	0.0245
822.665	0.0004
822.833	-0.01
823.0009	0.0168
823.1688	0.0192
823.3367	0.0096
823.5046	0.0208
823.6725	0.0218
823.8404	0.0043
824.0082	0.0063
824.176	-0.0008
824.3438	0.0064
824.5116	-0.0237
824.6793	0.0083
824.847	-0.0127
825.0147	-0.0184
825.1824	0.0214
825.3501	0.0096
825.5177	-0.0058
825.6854	-0.0022
825.853	0.0209
826.0206	-0.0097
826.1881	0.0216
826.3557	-0.0376
826.5232	0.0132
826.6907	-0.0203
826.8582	-0.036
827.0257	-0.0194
827.1931	0.0105
827.3605	0.0231
827.528	-0.0047
827.6953	-0.0199
827.8627	-0.001
828.03	0.0216
828.1974	0.0075
828.3647	-0.0432
828.532	-0.0151
828.6992	-0.0231
828.8665	0.0082
829.0337	0.0005
829.2009	0.0106
829.3681	-0
829.5352	0.0255
829.7024	0.0209
829.8695	-0.0282
830.0366	0.0396
830.2037	-0.0016
830.3707	0.0094
830.5378	-0.0032
830.7048	0.0404
830.8718	0.016
831.0388	-0.0164
831.2057	0.0168
831.3727	0.0094
831.5396	-0.0057
831.7065	0.0052
831.8734	0.0342
832.0402	-0.0321
832.2071	-0.0023
832.3739	-0.02
832.5407	-0.0159
832.7075	-0.016
832.8742	-0.0291
833.041	-0.0352
833.2077	-0.0215
833.3744	0.0375
833.541	-0.0037
833.7077	-0.0238
833.8743	0.0112
834.0409	-0.0091
834.2075	-0.0174
834.3741	-0.0309
834.5407	-0.0113
834.7072	0.0227
834.8737	-0.027
835.0402	-0.0178
835.2067	-0.0019
835.3731	0.0106
835.5395	0.0162
835.706	0.0238
835.8723	-0.0418
836.0387	0.0228
836.2051	-0.0076
836.3714	0.0341
836.5377	-0.0143
836.704	-0.0473
836.8703	-0.0062
837.0365	-0.0001
837.2027	-0.0008
837.3689	-0.0054
837.5351	-0.0562
837.7013	-0.0176
837.8674	-0.0264
838.0335	-0.0306
838.1997	0.0294
838.3657	0.0061
838.5318	-0.02
838.6978	0.0198
838.8639	0.042
839.0299	-0.0035
839.1958	0.0191
839.3618	0.0025
839.5277	-0.0258
839.6937	0.0185
839.8596	-0.0256
840.0254	0.0317
840.1913	0.0272
840.3571	-0.0096
840.523	-0.0364
840.6888	0.024
840.8545	-0.0378
841.0203	0.0043
841.186	0.0565
841.3517	0.0373
841.5174	0.0233
841.6831	-0.0336
841.8488	0.009
842.0144	0.0302
842.18	-0.0132
842.3456	-0.0075
842.5112	-0.0632
842.6767	-0.0466
842.8422	-0.0418
843.0077	0.0009
843.1732	-0.0326
843.3387	-0.0179
843.5042	-0.0569
843.6696	0.0023
843.835	-0.0253
844.0004	0.067
844.1657	0.0111
844.3311	-0.0216
844.4964	-0.0496
844.6617	0.0407
844.827	0.0081
844.9923	-0.0058
845.1575	-0.0484
845.3227	0.0057
845.4879	-0.0001
845.6531	-0.0959
845.8183	-0.0523
845.9834	-0.0051
846.1485	0.012
846.3136	-0.0039
846.4787	-0.1059
846.6438	0.064
846.8088	-0.02
846.9738	-0.0559
847.1388	-0.0043
847.3038	-0.0474
847.4687	-0.1768
847.6337	0.0294
847.7986	-0.0271
847.9635	-0.0216
848.1284	-0.0136
848.2932	0.0386
848.458	0.0353
848.6228	0.0482
848.7876	0.0971
848.9524	-0.052
849.1172	-0.0665
849.2819	-0.0337
849.4466	-0.0094
849.6113	-0.1304
849.7759	0.0621
849.9406	-0.0939
850.1052	0.0038
850.2698	-0.0312
850.4344	-0.0079
850.599	0.0245
850.7635	0.0474
850.928	-0.0438
851.0925	0.0095
851.257	0.0349
851.4215	0.0648
851.5859	-0.0278
851.7503	0.035
851.9147	0.0252
852.0791	-0.0518
852.2434	-0.0485
852.4078	0.0877
852.5721	0.1052
852.7364	-0.0428
852.9007	-0.1786
853.0649	0.0098
853.2291	-0.0315
853.3934	-0.1061
853.5575	0.1631
853.7217	-0.0347
853.8859	-0.1019
854.05	-0.0081
854.2141	-0.0423
854.3782	-0.1054
854.5423	-0.0493
854.7063	0.1301
854.8703	0.0053
855.0343	-0.0247
855.1983	-0.1338
855.3623	0.1349
855.5262	0.0311
855.6901	-0.0464
855.854	0.0889
856.0179	0.011
856.1818	0.1994
856.3456	-0.1693
856.5094	-0.0897
856.6732	-0.1261
856.837	0.0034
857.0008	0.0083
857.1645	-0.1235
857.3282	-0.0803
857.4919	0.3129
857.6556	0.0206
857.8192	0.0483
857.9828	-0.0434
858.1465	-0.0754
858.31	-0.1982
858.4736	-0.046
858.6372	-0.2217
858.8007	-0.1411
858.9642	0.1706
859.1277	-0.1265
859.2911	0.0282
859.4546	-0.0783
859.618	-0.1879
859.7814	-0.0827
859.9448	-0.0571
860.1081	0.068
860.2715	0.1169
860.4348	-0.0188
860.5981	-0.0618
860.7614	0.0458
860.9246	0.0398
861.0879	-0.123
861.2511	0.0589
861.4143	0.1484
861.5774	0.0442
861.7406	-0.2972
861.9037	0.1502
862.0668	-0.0739
862.2299	0.0067
862.393	-0.6094
862.556	-0.0054
862.7191	-0.2887
862.8821	-0.1634
863.0451	0.1974
863.208	0.1187
863.371	0.1053
863.5339	0.2753
863.6968	-0.0197
863.8597	0.2543
864.0225	-0.1324
864.1854	-0.0674
864.3482	0.0498
864.511	0.0507
864.6737	0.3853
864.8365	0.0466
864.9992	1.8367
865.1619	-0.1126
865.3246	0.2183
865.4873	0.0302
865.65	-0.1761
865.8126	-0.1172
865.9752	-0.0058
866.1378	-0.0973
866.3004	0.2093
866.4629	0.1932
866.6254	-0.2579
866.7879	1.1429
866.9504	-0
867.1129	-0
867.2753	0.0672
867.4377	0.1905
867.6001	0.0318
867.7625	0.1476
867.9249	-0.7034
868.0872	-0.0259
868.2495	0.0856
868.4118	-0.1962
868.5741	-0.5607
868.7363	-0
868.8986	-0.002
869.0608	-0.2101
869.223	0.3356
869.3851	-0
869.5473	-0.1487
869.7094	0.015
869.8715	-0.3171
870.0336	-0
870.1957	-0.5639
870.3577	-0
870.5197	0.1658
870.6817	-0.1829
870.8437	0.0062
871.0057	-0.7624
871.1676	-0
871.3295	-0.5684
871.4914	-0.2051
871.6533	-0.1252
871.8151	-0.4838
871.977	-0
872.1388	-0
872.3006	-0.6532
872.4623	-0.2112
872.6241	0.3617
872.7858	0.5413
872.9475	-0
873.1092	0.1273
873.2709	-0
873.4325	1.4492
873.5941	-0.4469
873.7557	-0.6066
873.9173	-0.1375
874.0789	-0.2133
874.2404	-0.8191
874.4019	0.1946
874.5634	-0.2165
874.7249	-0.0841
874.8863	-0.0995
875.0478	0.0103
875.2092	-0
875.3706	0.6344
875.5319	-0.5712
875.6933	-0.0688
875.8546	-0.1528
876.0159	-0
876.1772	0.3544
876.3385	-0
876.4997	0.3716
876.6609	-0.6052
876.8221	-0.3027
876.9833	0.127
877.1445	0.4399
877.3056	0.0239
877.4667	0.1465
877.6278	0.8119
877.7889	-0.9026
877.9499	-0.4897
878.111	-0.8215
878.272	-0.4964
878.433	-0
878.5939	0.1516
878.7549	-0.1252
878.9158	-0.7222
879.0767	-0
879.2376	-0
879.3984	0.2034
879.5593	-0
879.7201	-0.0675
879.8809	-0.814
880.0417	-0.5918
880.2024	0.1988
880.3632	-0.3844
880.5239	0.4735
880.6846	-0
880.8452	-2.4526
881.0059	-0
881.1665	-0.034
881.3271	-0.4436
881.4877	0.1468
881.6483	-0
881.8088	-0.5271
881.9693	-0
882.1298	-0
882.2903	-0
