Data from MonoPyChalIsomerACN10uM410nmA_Absorbance_14-53-24-673.txt Node
Date: Fri Jul 05 14:53:24 BST 2024
User: LASERRRRR
Spectrometer: FLMT03099
Trigger mode: 0
Integration Time (sec): 1.000000E-1
Scans to average: 1
Electric dark correction enabled: true
Nonlinearity correction enabled: false
Boxcar width: 0
XAxis mode: Wavelengths
Number of Pixels in Spectrum: 3648
>>>>>Begin Spectral Data<<<<<
179.3399	-0.0733
179.5586	-0.0733
179.7771	-0.0733
179.9957	0.6563
180.2143	-0
180.4329	-0.1949
180.6514	0.2162
180.8699	-0
181.0885	0.255
181.307	0.187
181.5255	-0
181.744	-0.4345
181.9625	-0.4953
182.181	-0
182.3994	0.0146
182.6179	-0.0455
182.8363	0.6495
183.0547	-0.2018
183.2732	0.0683
183.4916	0.0215
183.71	0.2946
183.9284	0.0591
184.1467	-0.0711
184.3651	-0.1654
184.5835	-0.044
184.8018	0.1381
185.0201	0.0395
185.2385	-0.0063
185.4568	0.0871
185.6751	0.0283
185.8934	0.3838
186.1117	-0.0228
186.3299	0.0177
186.5482	0.1785
186.7664	-0.091
186.9847	-0.019
187.2029	0.0893
187.4211	0.0788
187.6393	0.004
187.8575	-0.1503
188.0757	0.1924
188.2939	-0.019
188.512	0.0143
188.7302	-0.1094
188.9483	0.3956
189.1665	0.0544
189.3846	-0.1236
189.6027	0.078
189.8208	0.1529
190.0389	0.0452
190.257	0.077
190.475	0.1325
190.6931	0.2012
190.9111	0.4655
191.1292	0.1406
191.3472	0.4483
191.5652	0.2728
191.7832	0.3378
192.0012	0.6031
192.2192	0.4552
192.4371	0.4697
192.6551	0.391
192.873	0.435
193.091	0.4232
193.3089	0.6319
193.5268	0.3716
193.7447	0.6819
193.9626	0.5728
194.1805	0.6991
194.3984	0.6053
194.6162	0.4397
194.8341	0.4301
195.0519	0.6597
195.2697	0.5088
195.4875	0.5437
195.7054	0.6333
195.9231	0.5292
196.1409	0.6137
196.3587	0.5718
196.5765	0.5762
196.7942	0.6606
197.012	0.4158
197.2297	0.5326
197.4474	0.9683
197.6651	0.5769
197.8828	0.55
198.1005	0.6375
198.3182	0.6206
198.5358	0.6579
198.7535	0.7618
198.9711	0.5096
199.1888	0.6371
199.4064	0.7498
199.624	0.7489
199.8416	0.55
200.0592	0.6371
200.2767	0.6733
200.4943	0.7003
200.7119	0.6717
200.9294	0.6508
201.1469	0.5616
201.3645	0.5955
201.582	0.5037
201.7995	0.6338
202.017	0.57
202.2344	0.5453
202.4519	0.5867
202.6694	0.6432
202.8868	0.6072
203.1042	0.6218
203.3217	0.7831
203.5391	0.6113
203.7565	0.6656
203.9739	0.6318
204.1913	0.6234
204.4086	0.6425
204.626	0.6204
204.8433	0.6863
205.0607	0.5501
205.278	0.6691
205.4953	0.6392
205.7126	0.7119
205.9299	0.8272
206.1472	0.7127
206.3644	0.6635
206.5817	0.7288
206.7989	0.7274
207.0162	0.6508
207.2334	0.6407
207.4506	0.7281
207.6678	0.6628
207.885	0.6179
208.1022	0.6339
208.3194	0.6019
208.5365	0.6234
208.7537	0.6347
208.9708	0.484
209.1879	0.6494
209.405	0.7654
209.6222	0.7254
209.8392	0.6372
210.0563	0.5814
210.2734	0.6275
210.4905	0.5873
210.7075	0.6626
210.9245	0.5897
211.1416	0.7492
211.3586	0.6054
211.5756	0.567
211.7926	0.6178
212.0096	0.568
212.2265	0.5785
212.4435	0.5441
212.6604	0.6206
212.8774	0.6265
213.0943	0.6105
213.3112	0.5684
213.5281	0.4678
213.745	0.539
213.9619	0.5037
214.1788	0.5176
214.3956	0.4475
214.6125	0.4512
214.8293	0.4187
215.0461	0.4571
215.2629	0.4527
215.4798	0.4597
215.6965	0.4338
215.9133	0.4108
216.1301	0.3905
216.3469	0.4112
216.5636	0.3975
216.7803	0.3976
216.9971	0.4057
217.2138	0.3878
217.4305	0.353
217.6472	0.3688
217.8639	0.3658
218.0805	0.3205
218.2972	0.321
218.5138	0.3453
218.7305	0.3082
218.9471	0.2884
219.1637	0.275
219.3803	0.2919
219.5969	0.2704
219.8135	0.246
220.0301	0.2852
220.2466	0.2911
220.4632	0.2835
220.6797	0.257
220.8962	0.248
221.1127	0.2526
221.3292	0.2501
221.5457	0.2424
221.7622	0.2214
221.9787	0.2559
222.1951	0.2339
222.4116	0.2656
222.628	0.2632
222.8444	0.2687
223.0608	0.2394
223.2772	0.2297
223.4936	0.256
223.71	0.2637
223.9264	0.2622
224.1427	0.2498
224.3591	0.2314
224.5754	0.2757
224.7917	0.253
225.008	0.2651
225.2243	0.2373
225.4406	0.287
225.6569	0.2576
225.8732	0.2632
226.0894	0.2633
226.3057	0.2633
226.5219	0.2783
226.7381	0.2739
226.9543	0.2812
227.1705	0.2854
227.3867	0.2659
227.6029	0.296
227.8191	0.2963
228.0352	0.2855
228.2513	0.3233
228.4675	0.2981
228.6836	0.2956
228.8997	0.3001
229.1158	0.3058
229.3319	0.3111
229.548	0.3265
229.764	0.3042
229.9801	0.3358
230.1961	0.3209
230.4121	0.3307
230.6282	0.3141
230.8442	0.3325
231.0602	0.3573
231.2761	0.3493
231.4921	0.3609
231.7081	0.3472
231.924	0.3374
232.14	0.3665
232.3559	0.3414
232.5718	0.3626
232.7877	0.3551
233.0036	0.3458
233.2195	0.3601
233.4353	0.3535
233.6512	0.3743
233.867	0.3611
234.0829	0.3556
234.2987	0.3654
234.5145	0.3623
234.7303	0.3894
234.9461	0.378
235.1619	0.3872
235.3776	0.3726
235.5934	0.3942
235.8091	0.3694
236.0249	0.3733
236.2406	0.386
236.4563	0.3845
236.672	0.397
236.8877	0.4126
237.1034	0.4063
237.319	0.3882
237.5347	0.4075
237.7503	0.3889
237.966	0.3997
238.1816	0.3924
238.3972	0.4362
238.6128	0.4025
238.8284	0.4025
239.0439	0.3934
239.2595	0.398
239.475	0.4035
239.6906	0.4356
239.9061	0.4141
240.1216	0.4041
240.3371	0.3947
240.5526	0.4051
240.7681	0.4024
240.9836	0.3897
241.199	0.4087
241.4145	0.3863
241.6299	0.3874
241.8453	0.3941
242.0607	0.3634
242.2761	0.3726
242.4915	0.3522
242.7069	0.3595
242.9223	0.3415
243.1376	0.354
243.353	0.3501
243.5683	0.3424
243.7836	0.3181
243.9989	0.3162
244.2142	0.3184
244.4295	0.3155
244.6448	0.2999
244.86	0.2765
245.0753	0.2793
245.2905	0.2792
245.5057	0.2776
245.721	0.2701
245.9362	0.2634
246.1514	0.2745
246.3665	0.2572
246.5817	0.2536
246.7969	0.2432
247.012	0.2517
247.2271	0.226
247.4423	0.2445
247.6574	0.2283
247.8725	0.2333
248.0876	0.2243
248.3026	0.225
248.5177	0.2119
248.7328	0.2155
248.9478	0.2079
249.1628	0.2024
249.3779	0.2148
249.5929	0.1966
249.8079	0.2266
250.0228	0.202
250.2378	0.2011
250.4528	0.2107
250.6677	0.1968
250.8827	0.1847
251.0976	0.1788
251.3125	0.1991
251.5274	0.1703
251.7423	0.1829
251.9572	0.1848
252.172	0.174
252.3869	0.1694
252.6017	0.1833
252.8166	0.1665
253.0314	0.1745
253.2462	0.1721
253.461	0.1791
253.6758	0.1654
253.8906	0.182
254.1053	0.1573
254.3201	0.1762
254.5348	0.1829
254.7496	0.1828
254.9643	0.1704
255.179	0.1645
255.3937	0.1719
255.6083	0.1591
255.823	0.1687
256.0377	0.1636
256.2523	0.1713
256.467	0.1489
256.6816	0.1678
256.8962	0.1654
257.1108	0.1624
257.3254	0.1823
257.54	0.1635
257.7545	0.1611
257.9691	0.1688
258.1836	0.1641
258.3981	0.1765
258.6127	0.1608
258.8272	0.1629
259.0417	0.1634
259.2561	0.1675
259.4706	0.1702
259.6851	0.1525
259.8995	0.1624
260.114	0.1567
260.3284	0.1686
260.5428	0.155
260.7572	0.1724
260.9716	0.1799
261.186	0.1541
261.4003	0.1588
261.6147	0.1662
261.829	0.1676
262.0433	0.1549
262.2577	0.169
262.472	0.1672
262.6863	0.148
262.9005	0.1514
263.1148	0.1607
263.3291	0.1492
263.5433	0.1631
263.7576	0.1586
263.9718	0.1604
264.186	0.1717
264.4002	0.1532
264.6144	0.1626
264.8286	0.1656
265.0427	0.1569
265.2569	0.1622
265.471	0.1585
265.6851	0.1478
265.8993	0.1537
266.1134	0.1541
266.3275	0.1635
266.5415	0.1453
266.7556	0.1667
266.9697	0.1556
267.1837	0.1626
267.3978	0.1602
267.6118	0.1523
267.8258	0.1644
268.0398	0.1409
268.2538	0.1607
268.4677	0.162
268.6817	0.1404
268.8957	0.1514
269.1096	0.155
269.3235	0.1698
269.5374	0.1539
269.7514	0.1471
269.9652	0.1507
270.1791	0.1521
270.393	0.1458
270.6068	0.1492
270.8207	0.1388
271.0345	0.132
271.2483	0.1561
271.4622	0.147
271.676	0.1388
271.8897	0.1456
272.1035	0.133
272.3173	0.1326
272.531	0.1411
272.7448	0.1427
272.9585	0.1291
273.1722	0.1419
273.3859	0.139
273.5996	0.132
273.8133	0.1298
274.0269	0.1356
274.2406	0.1319
274.4542	0.135
274.6679	0.1302
274.8815	0.1465
275.0951	0.1362
275.3087	0.1344
275.5223	0.1499
275.7358	0.1506
275.9494	0.1358
276.1629	0.1351
276.3765	0.1415
276.59	0.1446
276.8035	0.1375
277.017	0.1474
277.2305	0.1221
277.444	0.1458
277.6574	0.1261
277.8709	0.1405
278.0843	0.1406
278.2978	0.1397
278.5112	0.1363
278.7246	0.1414
278.938	0.1387
279.1513	0.1497
279.3647	0.143
279.5781	0.1411
279.7914	0.1288
280.0047	0.1635
280.2181	0.14
280.4314	0.1517
280.6447	0.1507
280.8579	0.152
281.0712	0.1411
281.2845	0.1447
281.4977	0.1499
281.711	0.1478
281.9242	0.1515
282.1374	0.1444
282.3506	0.1531
282.5638	0.1371
282.7769	0.145
282.9901	0.142
283.2033	0.1509
283.4164	0.1534
283.6295	0.1458
283.8426	0.1537
284.0557	0.1474
284.2688	0.1557
284.4819	0.1521
284.695	0.1532
284.908	0.1498
285.1211	0.1514
285.3341	0.1618
285.5471	0.152
285.7601	0.1483
285.9731	0.1533
286.1861	0.1484
286.3991	0.1609
286.612	0.1555
286.825	0.1641
287.0379	0.1686
287.2508	0.1504
287.4637	0.1636
287.6766	0.1526
287.8895	0.1711
288.1024	0.1798
288.3152	0.1648
288.5281	0.1586
288.7409	0.1757
288.9538	0.155
289.1666	0.1512
289.3794	0.1743
289.5922	0.1663
289.8049	0.1579
290.0177	0.1602
290.2304	0.1596
290.4432	0.1674
290.6559	0.1539
290.8686	0.1589
291.0813	0.1652
291.294	0.1759
291.5067	0.1719
291.7194	0.1598
291.932	0.178
292.1447	0.1706
292.3573	0.1568
292.5699	0.1701
292.7825	0.169
292.9951	0.164
293.2077	0.1553
293.4203	0.1763
293.6328	0.1586
293.8454	0.1791
294.0579	0.1675
294.2704	0.1687
294.4829	0.1703
294.6954	0.1752
294.9079	0.1686
295.1204	0.1621
295.3328	0.1636
295.5453	0.1703
295.7577	0.1796
295.9701	0.1459
296.1825	0.1738
296.3949	0.1737
296.6073	0.168
296.8197	0.1705
297.0321	0.1786
297.2444	0.1593
297.4567	0.1787
297.6691	0.1704
297.8814	0.1713
298.0937	0.1759
298.306	0.1685
298.5182	0.1634
298.7305	0.1763
298.9428	0.1666
299.155	0.1693
299.3672	0.1641
299.5794	0.1653
299.7916	0.1637
300.0038	0.1748
300.216	0.1714
300.4282	0.1661
300.6403	0.1545
300.8525	0.1749
301.0646	0.1653
301.2767	0.1716
301.4888	0.166
301.7009	0.16
301.913	0.1584
302.125	0.174
302.3371	0.1657
302.5491	0.1668
302.7612	0.184
302.9732	0.1665
303.1852	0.1634
303.3972	0.1524
303.6092	0.1561
303.8211	0.1553
304.0331	0.1552
304.245	0.1639
304.457	0.1506
304.6689	0.1669
304.8808	0.1685
305.0927	0.1476
305.3046	0.1506
305.5164	0.1568
305.7283	0.1407
305.9401	0.1562
306.152	0.1519
306.3638	0.1573
306.5756	0.1456
306.7874	0.1533
306.9992	0.1537
307.2109	0.1493
307.4227	0.1321
307.6344	0.1468
307.8462	0.1439
308.0579	0.1372
308.2696	0.1408
308.4813	0.1322
308.693	0.1341
308.9046	0.1428
309.1163	0.1351
309.328	0.1333
309.5396	0.1176
309.7512	0.1179
309.9628	0.1109
310.1744	0.1197
310.386	0.1217
310.5976	0.121
310.8091	0.1166
311.0207	0.1189
311.2322	0.1112
311.4437	0.1084
311.6552	0.1115
311.8667	0.1151
312.0782	0.1041
312.2897	0.1062
312.5012	0.1107
312.7126	0.1119
312.924	0.0995
313.1355	0.1076
313.3469	0.1105
313.5583	0.1046
313.7696	0.1124
313.981	0.0992
314.1924	0.0948
314.4037	0.0961
314.6151	0.108
314.8264	0.1008
315.0377	0.1046
315.249	0.0943
315.4603	0.0989
315.6716	0.0986
315.8828	0.0833
316.0941	0.0871
316.3053	0.0879
316.5165	0.0926
316.7277	0.0879
316.9389	0.099
317.1501	0.0962
317.3613	0.1148
317.5724	0.0785
317.7836	0.1044
317.9947	0.0976
318.2058	0.0833
318.417	0.0895
318.6281	0.0823
318.8391	0.09
319.0502	0.0861
319.2613	0.0889
319.4723	0.094
319.6834	0.097
319.8944	0.0811
320.1054	0.0952
320.3164	0.0908
320.5274	0.0867
320.7383	0.0935
320.9493	0.0938
321.1602	0.105
321.3712	0.0882
321.5821	0.0958
321.793	0.0941
322.0039	0.0929
322.2148	0.0996
322.4257	0.0924
322.6365	0.1092
322.8474	0.106
323.0582	0.087
323.269	0.1031
323.4798	0.098
323.6906	0.0946
323.9014	0.0994
324.1122	0.1019
324.3229	0.088
324.5337	0.0967
324.7444	0.0839
324.9551	0.1064
325.1658	0.1013
325.3765	0.1068
325.5872	0.0992
325.7979	0.0881
326.0085	0.0965
326.2192	0.1069
326.4298	0.0989
326.6404	0.0863
326.851	0.0866
327.0616	0.0867
327.2722	0.1053
327.4828	0.0967
327.6933	0.1001
327.9039	0.0988
328.1144	0.1086
328.3249	0.105
328.5354	0.0936
328.7459	0.0907
328.9564	0.1039
329.1669	0.1055
329.3773	0.1022
329.5878	0.1012
329.7982	0.0937
330.0086	0.0964
330.219	0.1072
330.4294	0.0953
330.6398	0.1047
330.8502	0.0928
331.0605	0.1047
331.2708	0.1014
331.4812	0.1074
331.6915	0.1021
331.9018	0.1094
332.1121	0.096
332.3224	0.0975
332.5326	0.1124
332.7429	0.0992
332.9531	0.1054
333.1633	0.1077
333.3735	0.0973
333.5837	0.1018
333.7939	0.1068
334.0041	0.1114
334.2143	0.1063
334.4244	0.0964
334.6346	0.0884
334.8447	0.1131
335.0548	0.0923
335.2649	0.0902
335.475	0.1176
335.685	0.1138
335.8951	0.1124
336.1051	0.1075
336.3152	0.1102
336.5252	0.0916
336.7352	0.1128
336.9452	0.1115
337.1552	0.1008
337.3652	0.0987
337.5751	0.1061
337.7851	0.1093
337.995	0.092
338.2049	0.1018
338.4148	0.1045
338.6247	0.1105
338.8346	0.0972
339.0445	0.0882
339.2543	0.106
339.4642	0.116
339.674	0.0959
339.8838	0.101
340.0936	0.0983
340.3034	0.1249
340.5132	0.1186
340.7229	0.1038
340.9327	0.1172
341.1424	0.1005
341.3522	0.1275
341.5619	0.1154
341.7716	0.1095
341.9813	0.1098
342.1909	0.1223
342.4006	0.1357
342.6102	0.1121
342.8199	0.1199
343.0295	0.1193
343.2391	0.1248
343.4487	0.1158
343.6583	0.1246
343.8679	0.1104
344.0774	0.1225
344.287	0.1259
344.4965	0.1181
344.706	0.1236
344.9155	0.1162
345.125	0.1187
345.3345	0.1367
345.544	0.1167
345.7534	0.1192
345.9629	0.123
346.1723	0.1238
346.3817	0.1185
346.5911	0.1205
346.8005	0.1336
347.0099	0.1178
347.2193	0.1275
347.4286	0.131
347.638	0.1281
347.8473	0.1332
348.0566	0.1254
348.2659	0.1389
348.4752	0.1307
348.6845	0.1163
348.8937	0.1308
349.103	0.1365
349.3122	0.1355
349.5214	0.1383
349.7306	0.1281
349.9398	0.1261
350.149	0.1396
350.3582	0.1349
350.5674	0.144
350.7765	0.1303
350.9856	0.1439
351.1948	0.1402
351.4039	0.1268
351.613	0.1366
351.822	0.1454
352.0311	0.1308
352.2402	0.1384
352.4492	0.1444
352.6582	0.1578
352.8672	0.1484
353.0762	0.1496
353.2852	0.1414
353.4942	0.1249
353.7032	0.1431
353.9121	0.1482
354.1211	0.147
354.33	0.1512
354.5389	0.1654
354.7478	0.1479
354.9567	0.1534
355.1655	0.1396
355.3744	0.1487
355.5833	0.1621
355.7921	0.169
356.0009	0.1536
356.2097	0.1685
356.4185	0.1675
356.6273	0.1591
356.8361	0.1532
357.0448	0.1451
357.2536	0.1408
357.4623	0.1528
357.671	0.1631
357.8797	0.1637
358.0884	0.1589
358.2971	0.1562
358.5057	0.161
358.7144	0.164
358.923	0.1629
359.1316	0.1727
359.3402	0.1584
359.5488	0.1748
359.7574	0.1701
359.966	0.1864
360.1746	0.1745
360.3831	0.1861
360.5916	0.1685
360.8002	0.1692
361.0087	0.1768
361.2172	0.1798
361.4256	0.1748
361.6341	0.1847
361.8426	0.1864
362.051	0.1755
362.2594	0.1796
362.4678	0.1707
362.6762	0.2081
362.8846	0.1906
363.093	0.1758
363.3014	0.182
363.5097	0.1747
363.718	0.1888
363.9264	0.1886
364.1347	0.1731
364.343	0.2104
364.5513	0.196
364.7595	0.2068
364.9678	0.1973
365.176	0.2039
365.3842	0.1847
365.5925	0.2229
365.8007	0.1962
366.0089	0.1844
366.217	0.1948
366.4252	0.2105
366.6333	0.2302
366.8415	0.1982
367.0496	0.1973
367.2577	0.2034
367.4658	0.2092
367.6739	0.2124
367.882	0.203
368.09	0.206
368.2981	0.2091
368.5061	0.1969
368.7141	0.2097
368.9221	0.2138
369.1301	0.2258
369.3381	0.1959
369.5461	0.2125
369.754	0.2216
369.962	0.2153
370.1699	0.2207
370.3778	0.2319
370.5857	0.2166
370.7936	0.2174
371.0015	0.2201
371.2093	0.2332
371.4172	0.232
371.625	0.2133
371.8328	0.214
372.0406	0.2327
372.2484	0.2309
372.4562	0.2242
372.664	0.2351
372.8717	0.2484
373.0795	0.224
373.2872	0.2219
373.4949	0.2301
373.7026	0.2199
373.9103	0.2454
374.118	0.2412
374.3256	0.2359
374.5333	0.2371
374.7409	0.2307
374.9485	0.2399
375.1561	0.2287
375.3637	0.2473
375.5713	0.2495
375.7789	0.24
375.9864	0.2378
376.194	0.2362
376.4015	0.2355
376.609	0.2475
376.8165	0.2424
377.024	0.2415
377.2315	0.237
377.4389	0.2619
377.6464	0.2575
377.8538	0.2552
378.0612	0.2693
378.2686	0.249
378.476	0.2714
378.6834	0.2481
378.8908	0.2572
379.0981	0.2593
379.3055	0.2729
379.5128	0.256
379.7201	0.258
379.9274	0.2472
380.1347	0.2598
380.342	0.2929
380.5492	0.2395
380.7565	0.2633
380.9637	0.271
381.1709	0.2716
381.3781	0.2639
381.5853	0.2765
381.7925	0.2761
381.9997	0.2839
382.2068	0.2733
382.4139	0.2644
382.6211	0.2597
382.8282	0.2689
383.0353	0.2494
383.2424	0.2631
383.4494	0.2716
383.6565	0.2461
383.8635	0.2562
384.0706	0.2524
384.2776	0.2739
384.4846	0.2592
384.6916	0.2884
384.8986	0.2634
385.1055	0.2827
385.3125	0.2717
385.5194	0.2533
385.7263	0.2576
385.9333	0.2688
386.1402	0.2629
386.347	0.2754
386.5539	0.2541
386.7608	0.2862
386.9676	0.2372
387.1744	0.2653
387.3813	0.2678
387.5881	0.2649
387.7948	0.2431
388.0016	0.245
388.2084	0.2743
388.4151	0.2557
388.6219	0.2921
388.8286	0.265
389.0353	0.2747
389.242	0.2727
389.4487	0.2519
389.6553	0.2581
389.862	0.2443
390.0686	0.2502
390.2753	0.2589
390.4819	0.2509
390.6885	0.2586
390.8951	0.2506
391.1016	0.2589
391.3082	0.2446
391.5147	0.255
391.7213	0.2571
391.9278	0.244
392.1343	0.253
392.3408	0.2464
392.5473	0.2382
392.7537	0.2373
392.9602	0.2519
393.1666	0.2388
393.373	0.2267
393.5794	0.2788
393.7858	0.2457
393.9922	0.2377
394.1986	0.2391
394.4049	0.2297
394.6113	0.226
394.8176	0.2412
395.0239	0.2498
395.2302	0.2269
395.4365	0.226
395.6428	0.2346
395.8491	0.2269
396.0553	0.2427
396.2615	0.2283
396.4678	0.2183
396.674	0.2189
396.8802	0.2162
397.0863	0.2407
397.2925	0.2276
397.4987	0.2124
397.7048	0.2236
397.9109	0.227
398.117	0.2318
398.3231	0.2217
398.5292	0.236
398.7353	0.2353
398.9413	0.21
399.1474	0.2174
399.3534	0.204
399.5594	0.2189
399.7654	0.225
399.9714	0.2256
400.1774	0.2328
400.3833	0.2151
400.5893	0.2149
400.7952	0.2281
401.0011	0.2077
401.207	0.2267
401.4129	0.224
401.6188	0.2219
401.8247	0.2268
402.0305	0.2083
402.2364	0.2214
402.4422	0.2479
402.648	0.218
402.8538	0.2148
403.0596	0.2113
403.2654	0.2157
403.4711	0.2182
403.6768	0.2331
403.8826	0.2245
404.0883	0.2298
404.294	0.2125
404.4997	0.2227
404.7054	0.2226
404.911	0.2331
405.1167	0.2182
405.3223	0.2436
405.5279	0.2246
405.7335	0.2431
405.9391	0.2259
406.1447	0.21
406.3502	0.2501
406.5558	0.2239
406.7613	0.2399
406.9668	0.2349
407.1724	0.225
407.3778	0.2244
407.5833	0.2212
407.7888	0.2127
407.9942	0.2484
408.1997	0.2321
408.4051	0.2127
408.6105	0.2502
408.8159	0.2072
409.0213	0.2127
409.2267	0.2147
409.432	0.2331
409.6374	0.2218
409.8427	0.221
410.048	0.2118
410.2533	0.2195
410.4586	0.2097
410.6639	0.2141
410.8691	0.2121
411.0744	0.2168
411.2796	0.2015
411.4848	0.214
411.69	0.2109
411.8952	0.2422
412.1004	0.2173
412.3056	0.23
412.5107	0.2065
412.7158	0.2345
412.921	0.2184
413.1261	0.2242
413.3312	0.2155
413.5362	0.2273
413.7413	0.198
413.9464	0.2151
414.1514	0.2049
414.3564	0.2131
414.5614	0.2051
414.7664	0.2064
414.9714	0.2215
415.1764	0.2231
415.3813	0.2324
415.5863	0.2181
415.7912	0.214
415.9961	0.2139
416.201	0.2318
416.4059	0.2343
416.6108	0.2203
416.8156	0.2097
417.0205	0.2111
417.2253	0.2165
417.4301	0.2145
417.6349	0.2108
417.8397	0.213
418.0445	0.2144
418.2492	0.199
418.454	0.2151
418.6587	0.198
418.8634	0.2131
419.0681	0.2062
419.2728	0.1997
419.4775	0.2012
419.6822	0.2098
419.8868	0.1911
420.0915	0.2055
420.2961	0.1953
420.5007	0.1936
420.7053	0.2046
420.9099	0.2156
421.1144	0.2087
421.319	0.2126
421.5235	0.2099
421.728	0.1934
421.9325	0.2083
422.137	0.2116
422.3415	0.1923
422.546	0.208
422.7504	0.2033
422.9549	0.2006
423.1593	0.1887
423.3637	0.2078
423.5681	0.1969
423.7725	0.2034
423.9769	0.1918
424.1812	0.1817
424.3856	0.1949
424.5899	0.199
424.7942	0.1865
424.9985	0.1848
425.2028	0.1739
425.4071	0.2057
425.6113	0.181
425.8156	0.1862
426.0198	0.1847
426.224	0.1725
426.4282	0.1741
426.6324	0.1584
426.8366	0.1665
427.0407	0.1646
427.2449	0.1755
427.449	0.1796
427.6531	0.1767
427.8572	0.1659
428.0613	0.1667
428.2654	0.153
428.4694	0.1677
428.6735	0.1637
428.8775	0.1689
429.0815	0.1778
429.2855	0.157
429.4895	0.1624
429.6935	0.1655
429.8975	0.16
430.1014	0.1577
430.3053	0.1602
430.5093	0.1516
430.7132	0.1438
430.9171	0.145
431.1209	0.1566
431.3248	0.1496
431.5286	0.1455
431.7325	0.1533
431.9363	0.1368
432.1401	0.1544
432.3439	0.1396
432.5477	0.1259
432.7514	0.1115
432.9552	0.1288
433.1589	0.1211
433.3627	0.1441
433.5664	0.1327
433.7701	0.1336
433.9737	0.1191
434.1774	0.1184
434.3811	0.1129
434.5847	0.126
434.7883	0.1321
434.9919	0.1111
435.1955	0.1126
435.3991	0.1286
435.6027	0.1247
435.8062	0.1221
436.0098	0.1073
436.2133	0.0979
436.4168	0.1092
436.6203	0.1063
436.8238	0.1033
437.0272	0.1017
437.2307	0.1089
437.4341	0.1142
437.6375	0.0941
437.841	0.0994
438.0443	0.0917
438.2477	0.1034
438.4511	0.0804
438.6545	0.0937
438.8578	0.0987
439.0611	0.092
439.2644	0.0874
439.4677	0.0719
439.671	0.0818
439.8743	0.088
440.0775	0.0819
440.2808	0.0729
440.484	0.0749
440.6872	0.0692
440.8904	0.0809
441.0936	0.0884
441.2967	0.0795
441.4999	0.0696
441.703	0.0659
441.9062	0.0674
442.1093	0.0598
442.3124	0.0632
442.5155	0.0557
442.7185	0.0631
442.9216	0.0527
443.1246	0.0701
443.3276	0.0562
443.5307	0.0558
443.7337	0.0678
443.9366	0.0626
444.1396	0.0695
444.3426	0.0656
444.5455	0.0635
444.7484	0.0505
444.9513	0.0523
445.1542	0.0641
445.3571	0.0565
445.56	0.0706
445.7628	0.0481
445.9657	0.0361
446.1685	0.0521
446.3713	0.0515
446.5741	0.0419
446.7769	0.0314
446.9797	0.0395
447.1824	0.0415
447.3852	0.0345
447.5879	0.04
447.7906	0.037
447.9933	0.0303
448.196	0.0399
448.3986	0.0383
448.6013	0.0334
448.8039	0.0216
449.0066	0.029
449.2092	0.0325
449.4118	0.0472
449.6143	0.0338
449.8169	0.0493
450.0195	0.0218
450.222	0.0171
450.4245	0.0276
450.627	0.033
450.8295	0.0241
451.032	0.0193
451.2345	0.0303
451.4369	0.0394
451.6394	0.0287
451.8418	0.0145
452.0442	0.0206
452.2466	0.0268
452.449	-0.0051
452.6513	0.0266
452.8537	0.0242
453.056	0.0192
453.2583	0.0183
453.4607	0.025
453.663	0.0222
453.8652	0.0336
454.0675	0.0126
454.2697	0.0332
454.472	-0.0045
454.6742	0.0214
454.8764	0.0146
455.0786	0.0236
455.2808	0.0136
455.4829	0.0289
455.6851	0.0224
455.8872	0.0244
456.0893	0.0191
456.2915	0.0015
456.4935	0.0224
456.6956	0.003
456.8977	0.0183
457.0997	0.0042
457.3018	0.0056
457.5038	0.0099
457.7058	-0.0094
457.9078	0.0055
458.1098	0.018
458.3117	0.0055
458.5137	0.0084
458.7156	0.0105
458.9175	-0.0028
459.1194	0.0168
459.3213	0.0121
459.5232	0.0094
459.725	-0.006
459.9269	0.0121
460.1287	0.0199
460.3305	0.0081
460.5323	0.0071
460.7341	-0.0053
460.9359	0.0004
461.1376	0.011
461.3394	-0.002
461.5411	0.0129
461.7428	-0.0103
461.9445	0.0243
462.1462	0.0216
462.3479	-0.0064
462.5495	0.0027
462.7512	0.0034
462.9528	0.0072
463.1544	0.0027
463.356	-0.0038
463.5576	0.0006
463.7592	-0.0126
463.9607	-0.0022
464.1623	0.0185
464.3638	0.0162
464.5653	0.006
464.7668	0.0024
464.9683	0.0065
465.1697	0.0171
465.3712	-0.0044
465.5726	0.0033
465.7741	-0.005
465.9755	-0.0057
466.1769	0.0128
466.3782	0.0001
466.5796	-0.0078
466.7809	0.0172
466.9823	-0.0084
467.1836	-0.0114
467.3849	0.0001
467.5862	-0.0057
467.7875	-0.0119
467.9887	0.0059
468.19	-0.0121
468.3912	-0.0058
468.5924	0.0035
468.7936	-0.0144
468.9948	-0.0026
469.196	0.0003
469.3972	-0.0179
469.5983	0.0124
469.7994	-0.0016
470.0006	-0.0109
470.2017	-0.0147
470.4027	-0.0144
470.6038	0.0092
470.8049	-0.0159
471.0059	-0.0261
471.2069	-0.0221
471.408	-0.0078
471.6089	0.0006
471.8099	-0.0169
472.0109	0.0048
472.2119	-0.0043
472.4128	-0.0097
472.6137	-0.0019
472.8146	-0.0193
473.0155	-0.0054
473.2164	-0.0094
473.4173	-0.0043
473.6181	0.0029
473.819	-0.0023
474.0198	-0.0176
474.2206	0.0065
474.4214	-0.0064
474.6222	-0.0096
474.8229	-0.0148
475.0237	-0.0141
475.2244	-0.0101
475.4251	-0.0047
475.6258	-0.0097
475.8265	-0.005
476.0272	0.0066
476.2278	0.0012
476.4285	-0.0165
476.6291	-0.0151
476.8297	0.0039
477.0303	-0.0004
477.2309	-0.0115
477.4315	-0.0192
477.632	-0.0026
477.8326	-0.019
478.0331	-0.0077
478.2336	-0.0093
478.4341	-0.0195
478.6346	-0.0055
478.8351	-0.0096
479.0355	-0.0069
479.236	-0.0081
479.4364	0.0006
479.6368	-0.0066
479.8372	-0.0166
480.0376	-0.0029
480.2379	-0.0271
480.4383	-0.0177
480.6386	-0.0006
480.8389	-0.0017
481.0392	-0.0195
481.2395	-0.0182
481.4398	0.0027
481.6401	-0.0026
481.8403	-0.0141
482.0405	-0.0159
482.2408	-0.0067
482.441	0.0112
482.6411	-0.011
482.8413	-0.0138
483.0415	-0.0125
483.2416	-0.0154
483.4417	-0.0014
483.6419	-0.0112
483.8419	-0.0105
484.042	0.0024
484.2421	-0.0173
484.4422	0.0039
484.6422	-0.0032
484.8422	-0.0129
485.0422	-0.0137
485.2422	-0.0085
485.4422	-0.0132
485.6422	-0.0084
485.8421	-0.0059
486.042	-0.0052
486.242	-0.0078
486.4419	-0.0135
486.6417	-0.0148
486.8416	-0.0041
487.0415	0.003
487.2413	-0.0132
487.4411	-0.0206
487.641	-0.0099
487.8408	-0.0078
488.0405	-0.0095
488.2403	0.0013
488.4401	-0.014
488.6398	-0.003
488.8395	-0.0189
489.0392	-0.0017
489.2389	-0.0115
489.4386	-0.0192
489.6383	-0.0054
489.8379	-0.0103
490.0376	-0.0118
490.2372	-0.0093
490.4368	-0.0108
490.6364	-0.0052
490.836	-0.0096
491.0355	-0.0119
491.2351	-0.0165
491.4346	-0.0043
491.6341	-0.0182
491.8336	0.0001
492.0331	-0.0265
492.2326	-0.016
492.432	-0.0175
492.6315	-0.014
492.8309	-0.0248
493.0303	-0.0133
493.2297	-0.0134
493.4291	-0.0096
493.6284	-0.0136
493.8278	-0.0018
494.0271	-0.0048
494.2264	0.0011
494.4257	-0.0088
494.625	-0.0163
494.8243	-0.023
495.0236	-0.0057
495.2228	-0.0163
495.422	-0.0024
495.6213	-0.0103
495.8205	-0.007
496.0196	-0.0007
496.2188	-0.0054
496.418	-0.0183
496.6171	-0.0095
496.8162	-0.0201
497.0153	0.0048
497.2144	-0.009
497.4135	0.002
497.6126	-0.0175
497.8116	-0.0099
498.0107	0.0034
498.2097	-0.0162
498.4087	-0.0156
498.6077	-0.0185
498.8067	-0.0174
499.0056	-0.0048
499.2046	-0.01
499.4035	-0.0287
499.6024	-0.0123
499.8013	-0.0114
500.0002	-0.013
500.199	-0.0055
500.3979	-0.0096
500.5967	-0.0311
500.7956	-0.0127
500.9944	0.0018
501.1932	-0.0209
501.3919	-0.0183
501.5907	-0.0257
501.7895	-0.0029
501.9882	-0.0131
502.1869	-0.0123
502.3856	-0.0183
502.5843	-0.0165
502.783	-0.0093
502.9816	-0.0062
503.1803	-0.0261
503.3789	-0.0133
503.5775	-0.0039
503.7761	-0.0142
503.9747	-0.0095
504.1732	-0.0052
504.3718	-0.0065
504.5703	-0.0112
504.7689	-0.0081
504.9674	-0.0004
505.1658	-0.0155
505.3643	-0.0089
505.5628	-0.0146
505.7612	-0.0119
505.9597	-0.0016
506.1581	-0.0171
506.3565	0.0041
506.5549	-0.0115
506.7532	-0.0231
506.9516	-0.0024
507.1499	-0.013
507.3482	-0.018
507.5465	-0.0172
507.7448	-0.0046
507.9431	-0.0087
508.1414	-0.0124
508.3396	-0.0098
508.5379	-0.0088
508.7361	-0.0135
508.9343	-0.0029
509.1325	-0.0053
509.3306	-0.0135
509.5288	-0.0196
509.7269	-0.0168
509.9251	-0.0148
510.1232	-0.0099
510.3213	-0.0088
510.5193	0.0009
510.7174	-0.0098
510.9154	-0.0087
511.1135	-0.0111
511.3115	-0.011
511.5095	-0.0073
511.7075	-0.0106
511.9055	-0.0121
512.1034	-0.0136
512.3014	-0.0087
512.4993	-0.0061
512.6972	-0.0116
512.8951	-0.0244
513.093	0.0029
513.2908	-0.0022
513.4887	-0.0131
513.6865	-0.0133
513.8844	-0.0199
514.0822	-0.018
514.2799	-0.0216
514.4777	-0.0113
514.6755	-0.0148
514.8732	-0.0102
515.0709	-0.0191
515.2687	-0.0104
515.4664	-0.0049
515.664	-0.0128
515.8617	-0.0109
516.0594	-0.0185
516.257	-0.0111
516.4546	-0.0089
516.6522	-0.0024
516.8498	-0.003
517.0474	-0.0052
517.2449	-0.0012
517.4425	-0.0255
517.64	-0.0169
517.8375	0.0031
518.035	-0.0068
518.2325	-0.0128
518.43	-0.0104
518.6274	-0.0101
518.8249	-0.0185
519.0223	-0.0066
519.2197	-0.009
519.4171	-0.0138
519.6145	-0.01
519.8118	0.0053
520.0092	-0.0143
520.2065	-0.0102
520.4038	-0.0182
520.6011	-0.0188
520.7984	-0.0231
520.9956	-0.0142
521.1929	-0.0185
521.3901	0.0005
521.5874	-0.0108
521.7846	-0.0134
521.9818	-0.0151
522.1789	-0.0099
522.3761	-0.0109
522.5732	-0.0039
522.7704	-0.0172
522.9675	-0.0089
523.1646	-0.0215
523.3617	-0.012
523.5587	-0.0054
523.7558	-0.012
523.9528	-0.018
524.1498	-0.0059
524.3468	-0.0145
524.5438	-0.0069
524.7408	-0.0085
524.9378	-0.0032
525.1347	0.0046
525.3316	-0.0099
525.5285	-0.018
525.7254	-0.0105
525.9223	-0.0105
526.1192	-0.0112
526.316	-0.0111
526.5129	0.0014
526.7097	-0.012
526.9065	-0.0123
527.1033	-0.0122
527.3	0.0039
527.4968	-0.0093
527.6935	-0.0109
527.8903	-0.0189
528.087	-0.0081
528.2837	-0.0082
528.4804	-0.0118
528.677	-0.0024
528.8737	-0.0082
529.0703	0.0051
529.2669	-0.0041
529.4635	0.0002
529.6601	-0.011
529.8567	-0.0006
530.0532	-0.0102
530.2498	0.0004
530.4463	-0.0031
530.6428	-0.0084
530.8393	-0.0031
531.0358	-0.0053
531.2322	-0.0141
531.4287	-0
531.6251	-0.0134
531.8215	-0.0028
532.0179	-0.0097
532.2143	-0.0055
532.4107	-0.0088
532.607	-0.0174
532.8034	-0.001
532.9997	-0.0031
533.196	0.0018
533.3923	-0.0061
533.5886	-0.0118
533.7848	-0.0103
533.9811	-0.0114
534.1773	-0.0053
534.3735	0.0037
534.5697	-0.0058
534.7659	-0.0002
534.9621	0.0045
535.1582	-0.013
535.3544	-0.0198
535.5505	-0.0053
535.7466	-0.011
535.9427	-0.0127
536.1387	-0.0061
536.3348	-0.0078
536.5308	0.0092
536.7269	-0.0226
536.9229	0.0023
537.1189	-0.006
537.3148	-0.0075
537.5108	-0.0149
537.7068	-0.0035
537.9027	-0.0033
538.0986	-0.0027
538.2945	-0.0064
538.4904	-0.0048
538.6863	-0.0058
538.8821	-0.0151
539.078	-0.0074
539.2738	-0.0126
539.4696	-0.0085
539.6654	0.0012
539.8611	0.0049
540.0569	-0.0053
540.2526	-0.0041
540.4484	-0.0046
540.6441	0.0053
540.8398	-0.0039
541.0355	-0.0096
541.2311	-0.0102
541.4268	-0.009
541.6224	0.0015
541.818	0.0023
542.0136	-0.0108
542.2092	-0.0013
542.4048	0.0029
542.6003	-0.0067
542.7959	-0.0022
542.9914	0.002
543.1869	-0.0109
543.3824	-0.0079
543.5779	-0.0087
543.7734	-0.0034
543.9688	-0.0092
544.1642	0.0029
544.3596	0.0044
544.555	-0.0075
544.7504	0.0043
544.9458	-0.0073
545.1411	-0.0028
545.3365	-0.0093
545.5318	-0.0048
545.7271	-0.005
545.9224	0.0013
546.1177	-0.0071
546.3129	-0.0021
546.5081	0.0059
546.7034	-0.0005
546.8986	-0.0078
547.0938	-0.006
547.289	-0.0089
547.4841	-0.007
547.6793	0.0009
547.8744	-0.0063
548.0695	-0.0043
548.2646	-0.0096
548.4597	0.0045
548.6548	-0.002
548.8498	-0.005
549.0448	0.0065
549.2399	-0.0083
549.4349	0.0033
549.6298	0.0014
549.8248	-0.0038
550.0198	-0.006
550.2147	-0.0088
550.4096	-0.0049
550.6045	-0.0021
550.7994	0.0005
550.9943	-0.0018
551.1892	-0.009
551.384	0.0096
551.5788	-0.0054
551.7737	0.0048
551.9685	-0.0065
552.1632	-0.0055
552.358	-0.0068
552.5528	-0.0054
552.7475	0.0035
552.9422	-0.0034
553.1369	-0.0046
553.3316	-0.0012
553.5263	-0.011
553.7209	0.0033
553.9156	-0.0088
554.1102	-0.0084
554.3048	-0.0039
554.4994	0.0036
554.694	-0.0077
554.8885	0.0028
555.0831	-0.0076
555.2776	-0.0093
555.4721	-0.0023
555.6666	-0.0048
555.8611	0.0046
556.0555	-0.0045
556.25	0.0063
556.4444	-0.0126
556.6388	-0.0032
556.8332	0.0026
557.0276	-0.0014
557.222	-0.002
557.4163	-0.0057
557.6107	-0.0024
557.805	-0.0029
557.9993	0.0001
558.1936	-0.0003
558.3879	0.0063
558.5821	0.0018
558.7764	-0.0089
558.9706	-0.0017
559.1648	-0.0019
559.359	-0.0053
559.5532	-0.0135
559.7473	-0.0028
559.9415	0.0031
560.1356	-0.0135
560.3297	-0.0134
560.5238	-0.0134
560.7179	-0.0027
560.9119	-0.0106
561.106	-0.0006
561.3	-0.0098
561.494	-0.0063
561.688	-0.0118
561.882	-0.0137
562.076	-0.0109
562.2699	0.0005
562.4639	-0.003
562.6578	-0.0017
562.8517	0.0036
563.0456	-0.003
563.2395	-0.0039
563.4333	0.0088
563.6272	0.0025
563.821	-0.0005
564.0148	-0.005
564.2086	-0.0064
564.4024	-0.0027
564.5961	-0.001
564.7899	-0.0003
564.9836	-0.002
565.1773	-0.002
565.371	0.0063
565.5647	0.0013
565.7584	-0.0081
565.952	-0.0028
566.1456	-0
566.3393	0.0003
566.5329	-0.0105
566.7264	0.0018
566.92	-0.0088
567.1136	0.0033
567.3071	-0.0136
567.5006	-0.0015
567.6941	-0.0021
567.8876	-0.0017
568.0811	-0.0072
568.2745	-0.005
568.468	0.0031
568.6614	-0.0037
568.8548	-0.0007
569.0482	-0.0026
569.2416	0.0008
569.4349	0.001
569.6283	-0.0007
569.8216	-0.0067
570.0149	-0.0172
570.2082	0.0012
570.4015	0.0027
570.5947	0.0034
570.788	0.0068
570.9812	0.0023
571.1744	0.0037
571.3676	-0.0066
571.5608	0.0012
571.754	0.0053
571.9471	0.0029
572.1402	-0.0018
572.3333	-0.0089
572.5264	-0.0031
572.7195	-0.0022
572.9126	-0.0052
573.1057	-0.0046
573.2987	-0.0011
573.4917	0.0007
573.6847	-0.0065
573.8777	0.0095
574.0707	-0.0026
574.2636	-0.0069
574.4566	-0.0049
574.6495	0.005
574.8424	0.0004
575.0353	-0.0016
575.2281	0.0114
575.421	0.0068
575.6138	-0.0016
575.8067	-0.0059
575.9995	-0.0006
576.1923	0.0043
576.385	0.0049
576.5778	-0.0065
576.7706	-0.0068
576.9633	-0.0065
577.156	0.0002
577.3487	0.0042
577.5414	-0.0007
577.734	-0.0031
577.9267	0.0021
578.1193	-0.0072
578.3119	-0.0067
578.5045	-0.0043
578.6971	-0.0027
578.8897	0.0049
579.0822	-0.0008
579.2747	0.0004
579.4673	-0.0055
579.6598	-0.0074
579.8522	-0.0092
580.0447	-0.0012
580.2372	-0.003
580.4296	0.0072
580.622	-0.0033
580.8144	0.0017
581.0068	-0.0094
581.1992	-0.0115
581.3915	-0.0072
581.5839	-0.0093
581.7762	-0.0095
581.9685	-0.0063
582.1608	0.0014
582.353	-0.0053
582.5453	-0.0051
582.7375	-0.0004
582.9298	0.0032
583.122	0.0009
583.3142	0.0036
583.5063	-0.0004
583.6985	-0.002
583.8906	-0.0006
584.0827	-0.0029
584.2749	-0.0025
584.4669	0.0053
584.659	0.0003
584.8511	-0.0044
585.0431	-0.0004
585.2352	-0.0026
585.4272	0
585.6192	0.0043
585.8111	-0.0059
586.0031	-0.002
586.195	0.0004
586.387	0.0033
586.5789	-0.0034
586.7708	0.0059
586.9627	-0.0006
587.1545	-0.0073
587.3464	0.0024
587.5382	0.0006
587.73	0.0034
587.9218	0.0027
588.1136	-0.005
588.3053	-0.0014
588.4971	-0.0003
588.6888	-0.0122
588.8805	0.0015
589.0722	-0.0018
589.2639	-0.0001
589.4556	0.0032
589.6472	-0.0037
589.8389	-0.0048
590.0305	-0.0088
590.2221	0.0003
590.4137	-0.0112
590.6052	0.0003
590.7968	0.0008
590.9883	0.0089
591.1798	-0.0063
591.3713	0.0011
591.5628	0.0001
591.7543	0.0076
591.9458	-0.0001
592.1372	-0.0006
592.3286	0.0059
592.52	0.0079
592.7114	-0.0045
592.9028	-0.0048
593.0941	-0.0078
593.2855	-0.0002
593.4768	-0.003
593.6681	-0.0088
593.8594	-0.0023
594.0506	-0.0044
594.2419	0.0053
594.4331	0.0024
594.6244	0.0005
594.8156	-0.0096
595.0067	0.0056
595.1979	0.0001
595.3891	-0.0012
595.5802	-0.0012
595.7713	0.0018
595.9624	-0.0008
596.1535	0.0058
596.3446	0.001
596.5357	0.0027
596.7267	0.0043
596.9177	-0.002
597.1087	-0.0007
597.2997	-0.0051
597.4907	0.003
597.6817	-0.0012
597.8726	-0.0023
598.0635	-0.0048
598.2544	0.0027
598.4453	0.0008
598.6362	-0.0047
598.827	-0.0062
599.0179	0
599.2087	0.0015
599.3995	0.0026
599.5903	-0.0001
599.7811	0.007
599.9718	0.0063
600.1626	-0.003
600.3533	-0.006
600.544	0.0023
600.7347	0.004
600.9254	-0.0003
601.116	-0.0115
601.3067	-0.0024
601.4973	-0.006
601.6879	0.0019
601.8785	-0.0027
602.0691	-0.0005
602.2596	0.0025
602.4502	0.0018
602.6407	-0.0023
602.8312	-0.0038
603.0217	-0.0079
603.2122	-0.0018
603.4027	0.0043
603.5931	-0.0059
603.7835	-0.0033
603.9739	-0.0013
604.1643	-0.0063
604.3547	-0.0074
604.5451	-0.002
604.7354	0.0027
604.9257	0.005
605.116	0.0049
605.3063	0.0088
605.4966	-0.0055
605.6869	0.0052
605.8771	0.007
606.0673	0.0037
606.2575	0.0051
606.4477	0.0116
606.6379	0.0112
606.8281	-0.0016
607.0182	0.0009
607.2083	0.0111
607.3985	-0.0055
607.5885	0.0002
607.7786	0.0092
607.9687	-0.003
608.1587	0.0051
608.3488	0.0055
608.5388	-0.0022
608.7288	-0.0028
608.9187	0.0001
609.1087	-0.0023
609.2986	-0.0051
609.4886	-0.0015
609.6785	0.0017
609.8684	0.0023
610.0582	0.0027
610.2481	0.0029
610.4379	0.0035
610.6278	-0.0002
610.8176	-0.0049
611.0074	-0.0049
611.1971	0.0006
611.3869	-0.0042
611.5766	-0.0004
611.7664	0.0065
611.9561	0.0089
612.1458	0.003
612.3354	-0.0033
612.5251	-0.0005
612.7147	0.0082
612.9044	0.0026
613.094	-0.0045
613.2836	0.0021
613.4731	-0.0049
613.6627	-0.0063
613.8522	0.0055
614.0417	-0.0004
614.2313	0.0053
614.4207	-0.0024
614.6102	0.0016
614.7997	-0.007
614.9891	0.0001
615.1785	0.0046
615.3679	0
615.5573	0.004
615.7467	-0.0006
615.9361	-0.0049
616.1254	-0.001
616.3147	0.0031
616.504	0.0052
616.6933	-0.0041
616.8826	-0.0001
617.0718	0.0092
617.2611	0.0012
617.4503	-0.0018
617.6395	-0.0042
617.8287	0.0005
618.0179	0.0066
618.207	0.007
618.3961	0.0036
618.5853	0.0012
618.7744	0.006
618.9634	0.0169
619.1525	0.0051
619.3416	0.0003
619.5306	-0.0008
619.7196	-0.0012
619.9086	-0.0055
620.0976	-0.003
620.2866	-0.0012
620.4755	0.0024
620.6645	0.0077
620.8534	0.0058
621.0423	-0.0016
621.2312	0.0056
621.42	0.0018
621.6089	0.0043
621.7977	0.0109
621.9865	-0.0124
622.1753	0.0087
622.3641	-0.0038
622.5529	0.0059
622.7416	0.0094
622.9303	-0.0015
623.1191	0.0028
623.3078	-0.0014
623.4964	0.0016
623.6851	-0.0065
623.8737	-0.0015
624.0624	0.0063
624.251	-0.0025
624.4396	0.0017
624.6282	-0.0026
624.8167	-0.0018
625.0053	-0.0012
625.1938	0.0054
625.3823	0.0062
625.5708	0.0003
625.7593	-0.0105
625.9477	-0.0004
626.1362	-0.0053
626.3246	0.0085
626.513	0.0064
626.7014	0.0052
626.8898	0.0037
627.0781	-0.0016
627.2665	-0.0038
627.4548	0.0112
627.6431	0.0037
627.8314	-0.0005
628.0197	0.0003
628.2079	-0.0061
628.3962	-0.006
628.5844	0.0052
628.7726	0.0019
628.9608	0.0106
629.1489	0.0004
629.3371	0.0066
629.5252	0.0025
629.7134	0.0105
629.9015	-0
630.0895	-0.0084
630.2776	0.0037
630.4657	-0.0043
630.6537	-0.0014
630.8417	-0.0029
631.0297	-0.0072
631.2177	-0.0005
631.4057	-0.0025
631.5936	-0.0038
631.7815	0.0051
631.9695	-0.0002
632.1574	0.0048
632.3452	0.0113
632.5331	0.0026
632.7209	0.0053
632.9088	0.0095
633.0966	0.0113
633.2844	-0.0065
633.4722	0.0008
633.6599	0.0059
633.8477	-0.0013
634.0354	-0.0008
634.2231	-0.0066
634.4108	0.0048
634.5985	0.0058
634.7861	0.0009
634.9738	0.0032
635.1614	-0.002
635.349	-0.0003
635.5366	-0.0022
635.7242	-0.0044
635.9117	0.0012
636.0993	-0.002
636.2868	0.0081
636.4743	-0.001
636.6618	0.0084
636.8492	0
637.0367	0.0048
637.2241	0.0019
637.4115	0.0049
637.5989	0.0024
637.7863	-0.0005
637.9737	-0.0062
638.161	0.0045
638.3484	0.0012
638.5357	0.0023
638.723	-0.0021
638.9103	0.0037
639.0975	0.0036
639.2848	0.004
639.472	0.0015
639.6592	0.0088
639.8464	0.0083
640.0336	0.0025
640.2208	0.003
640.4079	0.0017
640.595	0.003
640.7821	0.0049
640.9692	0.0016
641.1563	0.0123
641.3434	0.007
641.5304	0.0038
641.7174	0.0046
641.9044	0.0002
642.0914	0.0131
642.2784	0.0027
642.4653	0.0157
642.6523	0.0081
642.8392	0.0039
643.0261	0.0038
643.213	0.004
643.3999	0.003
643.5867	-0.0027
643.7735	0.0048
643.9604	-0.0051
644.1472	0.0079
644.3339	0.0075
644.5207	0.0057
644.7075	0.0082
644.8942	-0.0029
645.0809	-0.0006
645.2676	0.0077
645.4543	0.0075
645.6409	0.0046
645.8276	0.0052
646.0142	0.0026
646.2008	0.0064
646.3874	-0.0058
646.574	0.0075
646.7605	0.0021
646.9471	-0.0141
647.1336	0.0023
647.3201	0.0063
647.5066	-0.0053
647.6931	0.0001
647.8795	0.0012
648.0659	0.0118
648.2524	0.0064
648.4388	0.0019
648.6252	-0.0005
648.8115	-0.0001
648.9979	0.002
649.1842	0.0032
649.3705	0.0077
649.5568	0.003
649.7431	0.0033
649.9294	0.0007
650.1156	0.0072
650.3018	0.0014
650.488	0.0073
650.6742	0.0011
650.8604	0.0002
651.0466	-0.0053
651.2327	-0.0036
651.4188	-0.0004
651.6049	0.0012
651.791	-0.0009
651.9771	0.0045
652.1632	0.005
652.3492	-0.002
652.5352	0.0048
652.7212	-0.0012
652.9072	0.0103
653.0932	0.0006
653.2791	-0.0025
653.465	-0.0007
653.651	0.0034
653.8369	-0.0019
654.0227	0.0014
654.2086	0.002
654.3944	0.0068
654.5803	0.0092
654.7661	-0.0004
654.9519	0.0035
655.1377	-0.0042
655.3234	-0.0034
655.5092	-0.0045
655.6949	-0.0012
655.8806	-0.0062
656.0663	-0.0017
656.2519	0.0014
656.4376	0.0015
656.6232	0.0058
656.8088	0.002
656.9945	-0.0004
657.18	0.0004
657.3656	0.004
657.5511	-0.0048
657.7367	-0.0052
657.9222	0.0061
658.1077	-0.0018
658.2932	0.0084
658.4786	-0.007
658.6641	-0.0133
658.8495	0.0031
659.0349	-0.0018
659.2203	0.0068
659.4057	-0.0034
659.591	0.0013
659.7764	-0.0045
659.9617	0.0016
660.147	0.0029
660.3323	0.01
660.5176	0.0131
660.7028	0.0058
660.888	0.0036
661.0733	0.0055
661.2585	-0
661.4436	-0.0016
661.6288	-0.0047
661.8139	-0.003
661.9991	0.0055
662.1842	-0.0057
662.3693	0.0015
662.5544	-0.0037
662.7394	0.006
662.9245	-0.0056
663.1095	0.0059
663.2945	-0.0027
663.4795	-0.0032
663.6644	0.0018
663.8494	0.0004
664.0343	0.0064
664.2193	-0.0056
664.4042	-0.0004
664.589	-0.0078
664.7739	-0.0053
664.9587	-0.0088
665.1436	-0.008
665.3284	0.0027
665.5132	-0.0062
665.698	-0.0006
665.8827	0.0035
666.0675	-0.002
666.2522	-0.0032
666.4369	-0.0016
666.6216	0.0049
666.8063	-0.0034
666.9909	-0.0015
667.1756	-0.0054
667.3602	0.0029
667.5448	0.0035
667.7294	0.0088
667.9139	0.0031
668.0985	0.0068
668.283	0.0057
668.4675	-0.0023
668.652	0.0036
668.8365	-0.003
669.0209	0.0041
669.2054	0.0053
669.3898	-0.0029
669.5742	0.0038
669.7586	0.0065
669.943	0.003
670.1273	0.0028
670.3117	0.0021
670.496	-0.0013
670.6803	0.0129
670.8646	0.0057
671.0488	-0.0033
671.2331	0.0068
671.4173	0.0015
671.6015	0.0052
671.7857	-0.0033
671.9699	-0.0001
672.1541	0.0022
672.3382	-0.0008
672.5223	0.0076
672.7064	0.0025
672.8905	0.0109
673.0746	-0.003
673.2587	-0.004
673.4427	0.0039
673.6267	0.0061
673.8107	0.0056
673.9947	0.01
674.1787	0.0088
674.3626	-0.0015
674.5465	0.0032
674.7304	0.0048
674.9143	0.0066
675.0982	0.007
675.2821	-0.0038
675.4659	0.009
675.6497	0.0048
675.8335	0.0023
676.0173	0.003
676.2011	0.0054
676.3849	0.0051
676.5686	-0.0055
676.7523	0.0045
676.936	-0.0052
677.1197	0.0003
677.3034	-0.0065
677.487	0.006
677.6706	0.004
677.8542	0.0015
678.0378	-0.0005
678.2214	0.0001
678.405	0.0011
678.5885	-0.0046
678.772	-0.0006
678.9555	0.0003
679.139	0.0001
679.3225	-0.0034
679.5059	-0.0002
679.6894	0.0038
679.8728	-0.0009
680.0562	-0.0031
680.2395	0.0032
680.4229	0.0038
680.6062	0.0045
680.7896	0.0014
680.9729	-0.0017
681.1562	-0.003
681.3394	-0.0013
681.5227	-0.0097
681.7059	-0.003
681.8891	-0.0021
682.0723	0.0076
682.2555	0.0098
682.4387	-0.0008
682.6218	-0.0072
682.805	-0.001
682.9881	-0.0013
683.1712	0.001
683.3542	0.0037
683.5373	0.0057
683.7203	-0.0111
683.9034	0.002
684.0864	-0.01
684.2694	0.0039
684.4523	0.003
684.6353	-0.0067
684.8182	0.0015
685.0011	-0.0105
685.184	0.0005
685.3669	0.0021
685.5498	-0.0021
685.7326	0.0056
685.9154	-0.0026
686.0982	0.0046
686.281	0.0072
686.4638	-0.0014
686.6465	-0.0002
686.8293	-0.0075
687.012	-0.0035
687.1947	-0.0089
687.3774	-0.0006
687.56	-0.0075
687.7427	0.0092
687.9253	-0.001
688.1079	-0.0065
688.2905	0.0029
688.4731	-0.0047
688.6556	-0.0004
688.8382	-0.0078
689.0207	-0.0021
689.2032	-0.0161
689.3857	-0.0089
689.5681	-0.0012
689.7506	-0.0093
689.933	-0.0058
690.1154	-0.0015
690.2978	-0.0051
690.4802	-0.0059
690.6626	-0.0099
690.8449	-0.0073
691.0272	-0.0011
691.2095	-0.0117
691.3918	-0.0096
691.5741	-0.003
691.7563	-0.0038
691.9386	-0.001
692.1208	0.0029
692.303	-0.0009
692.4852	-0.0014
692.6673	-0.0051
692.8495	-0.0033
693.0316	-0.0011
693.2137	-0.001
693.3958	0.0061
693.5778	0.0014
693.7599	0.0009
693.9419	-0.0042
694.1239	0.0025
694.3059	-0.0049
694.4879	0.0095
694.6699	0.01
694.8518	0.0024
695.0337	0.0007
695.2157	0.0063
695.3975	-0.0032
695.5794	0.0028
695.7613	-0.0015
695.9431	-0.0034
696.1249	0.0004
696.3067	0.0094
696.4885	0.0006
696.6703	-0.0094
696.852	0.004
697.0337	0.0061
697.2154	0.0014
697.3971	-0.0011
697.5788	0.002
697.7605	0.0042
697.9421	-0.0009
698.1237	-0.0005
698.3053	0.005
698.4869	0.0046
698.6685	-0.0089
698.85	-0.0034
699.0315	0.0045
699.213	0.0019
699.3945	0.0021
699.576	0.0005
699.7575	0.0044
699.9389	0.0067
700.1203	-0.006
700.3017	-0.0094
700.4831	-0.0039
700.6645	-0.0031
700.8458	-0.0009
701.0271	-0.0027
701.2084	0.0054
701.3897	-0.0019
701.571	0.0083
701.7523	-0.0001
701.9335	0.0052
702.1147	0.0005
702.2959	-0.0043
702.4771	0.0007
702.6583	0.0068
702.8394	-0.0052
703.0205	0.0017
703.2016	-0.0036
703.3827	-0.0056
703.5638	0.0041
703.7449	0.0059
703.9259	0.0051
704.1069	-0.008
704.2879	0.0023
704.4689	-0.0076
704.6499	0.0052
704.8308	-0.0002
705.0117	0
705.1927	0.0036
705.3735	0.0002
705.5544	-0.0018
705.7353	-0.0039
705.9161	-0.0039
706.0969	-0.0071
706.2777	-0.0034
706.4585	-0.0039
706.6393	0.0025
706.82	-0.0047
707.0007	0.0014
707.1815	0.0021
707.3621	0.0049
707.5428	0.0046
707.7235	-0.0023
707.9041	0.0058
708.0847	-0.0059
708.2653	-0.0063
708.4459	-0.0139
708.6265	0.0005
708.807	-0.0055
708.9875	-0.0028
709.168	-0.0057
709.3485	-0.0024
709.529	-0.0016
709.7095	-0.0123
709.8899	0.0042
710.0703	-0.0096
710.2507	0.0002
710.4311	-0.0046
710.6115	-0.0017
710.7918	-0.0012
710.9721	0.0054
711.1524	-0.0034
711.3327	-0.0023
711.513	0.0046
711.6932	-0.0012
711.8735	0.0092
712.0537	0.0047
712.2339	0.0019
712.4141	-0.0047
712.5942	-0.0074
712.7744	-0.0042
712.9545	-0.0143
713.1346	-0.0042
713.3147	-0.0061
713.4947	-0.0029
713.6748	0
713.8548	-0.001
714.0348	-0.004
714.2148	-0.0068
714.3948	0.0032
714.5748	-0.0059
714.7547	-0.0034
714.9346	0.0038
715.1145	-0.0075
715.2944	-0.0082
715.4743	-0.006
715.6541	-0.0089
715.834	-0.0011
716.0138	0.0012
716.1936	-0.0196
716.3733	-0.0148
716.5531	0.0068
716.7328	-0.003
716.9126	-0.0018
717.0923	0.0068
717.2719	0.0091
717.4516	0.0034
717.6312	0.0068
717.8109	-0.0039
717.9905	0.0075
718.1701	-0.0033
718.3496	-0.0114
718.5292	-0.0021
718.7087	-0.0026
718.8882	-0.0001
719.0677	0.004
719.2472	0.0013
719.4267	0.002
719.6061	-0.001
719.7856	0.0031
719.965	0.0051
720.1443	-0.0058
720.3237	0.0167
720.5031	-0.0005
720.6824	0.0017
720.8617	-0.0084
721.041	0.0005
721.2203	0.0002
721.3995	0.002
721.5788	0.0003
721.758	0.0044
721.9372	-0.0016
722.1164	-0.004
722.2956	0.0035
722.4747	0.0037
722.6538	0.0012
722.8329	0.0065
723.012	0.0033
723.1911	-0.0015
723.3702	-0.0005
723.5492	0.0146
723.7282	-0.0058
723.9072	-0.0048
724.0862	-0.0089
724.2652	-0.0062
724.4441	0.0013
724.623	-0.0053
724.8019	-0.0024
724.9808	-0.0005
725.1597	-0.0031
725.3385	0.0021
725.5174	-0.0044
725.6962	-0.0033
725.875	-0.0079
726.0538	0.0008
726.2325	-0.0027
726.4112	-0.004
726.59	0.0023
726.7687	-0.0059
726.9474	0.0048
727.126	-0.0007
727.3047	-0.001
727.4833	0.0053
727.6619	0.0041
727.8405	-0.0041
728.0191	-0.0005
728.1976	0.0014
728.3762	-0.0057
728.5547	-0.0022
728.7332	-0.0043
728.9116	-0.0013
729.0901	0.0169
729.2686	-0.0033
729.447	-0.0042
729.6254	-0.0045
729.8038	0.0011
729.9821	-0.0085
730.1605	-0.0038
730.3388	0.0092
730.5171	-0.0025
730.6954	-0.005
730.8737	-0.0013
731.0519	0.0051
731.2302	0.0082
731.4084	0.0019
731.5866	0.0017
731.7648	-0.0045
731.9429	-0.0138
732.1211	-0.0076
732.2992	-0.0017
732.4773	0.0019
732.6554	-0.0078
732.8335	-0.0001
733.0115	0.003
733.1896	0.0018
733.3676	-0.0077
733.5456	-0.0049
733.7235	0.0008
733.9015	-0
734.0794	-0.0034
734.2574	-0.0041
734.4353	0.0011
734.6131	0.0054
734.791	-0.0006
734.9689	-0.0009
735.1467	0.0012
735.3245	-0.0105
735.5023	-0.0121
735.68	0.0025
735.8578	0.0074
736.0355	-0.0174
736.2132	-0.0087
736.3909	-0.0055
736.5686	-0.0106
736.7463	0.0056
736.9239	-0.0097
737.1015	-0.0021
737.2791	0.0078
737.4567	-0.0038
737.6343	-0.0092
737.8118	0.0057
737.9894	0.0137
738.1669	-0.0028
738.3444	-0.0014
738.5218	0.0044
738.6993	-0.0012
738.8767	-0.0035
739.0541	0.0142
739.2315	-0.0073
739.4089	-0.0056
739.5863	0.0057
739.7636	-0.01
739.9409	0.0034
740.1182	0.005
740.2955	0.0021
740.4728	-0.0078
740.65	-0.0041
740.8272	0.001
741.0044	-0.001
741.1816	0.0006
741.3588	-0.0019
741.5359	0.0035
741.7131	-0.0085
741.8902	-0.0049
742.0673	-0.0074
742.2444	-0.0067
742.4214	-0.0174
742.5985	-0.0103
742.7755	-0.0064
742.9525	-0.0145
743.1295	-0.0051
743.3064	-0.0043
743.4834	-0.0047
743.6603	-0.0048
743.8372	-0.0094
744.0141	-0.0023
744.191	0.0003
744.3678	0.0002
744.5446	-0.0053
744.7215	0.0046
744.8982	-0.0002
745.075	-0.0158
745.2518	-0.0006
745.4285	0.0006
745.6052	-0.001
745.7819	-0.0101
745.9586	-0.0021
746.1353	-0.0005
746.3119	-0.0116
746.4885	-0.0017
746.6651	-0.0009
746.8417	-0.0025
747.0183	-0.0039
747.1948	-0.0032
747.3714	0.0047
747.5479	-0.0039
747.7244	-0.0076
747.9008	0.0162
748.0773	0.0001
748.2537	-0.0065
748.4301	-0.0103
748.6065	-0.0005
748.7829	0.006
748.9593	-0.0049
749.1356	0.0034
749.3119	0.005
749.4882	-0.0116
749.6645	0.0101
749.8408	-0.0067
750.017	-0.0047
750.1933	-0.0054
750.3695	-0.008
750.5457	-0.0016
750.7218	-0.0016
750.898	0.0022
751.0741	-0.0123
751.2502	0.0026
751.4263	-0.0048
751.6024	-0.0001
751.7784	-0.0043
751.9545	-0.0048
752.1305	-0.009
752.3065	-0.0027
752.4825	0.0024
752.6584	-0.0115
752.8344	-0.0051
753.0103	-0.0084
753.1862	-0.0039
753.3621	-0.0014
753.5379	0.0005
753.7138	-0.0014
753.8896	-0.0023
754.0654	0.0091
754.2412	0.0103
754.417	0.0001
754.5927	0.0035
754.7685	-0.0036
754.9442	0.0056
755.1199	0.0196
755.2956	-0.0012
755.4712	0.0162
755.6469	0.0045
755.8225	0.0017
755.9981	0.0049
756.1736	0.0138
756.3492	0.0075
756.5248	-0.0044
756.7003	-0.0086
756.8758	0.0123
757.0513	-0.007
757.2267	0.0026
757.4022	-0.0012
757.5776	-0.0072
757.753	-0.0013
757.9284	0.0027
758.1038	0.0046
758.2791	0.0003
758.4545	-0.0085
758.6298	-0.002
758.8051	0.0028
758.9803	0.0009
759.1556	-0.0013
759.3308	-0.0045
759.506	-0.001
759.6812	0.0008
759.8564	0.0105
760.0316	0.0049
760.2067	0.0149
760.3819	0.0052
760.557	0.0203
760.732	0.0021
760.9071	-0.0092
761.0821	-0.0003
761.2572	0.0105
761.4322	0.0033
761.6072	0.0055
761.7821	0.0006
761.9571	0.0081
762.132	0.004
762.3069	-0.005
762.4818	0.002
762.6567	0.0023
762.8316	0.0058
763.0064	-0.0012
763.1812	0.0093
763.356	-0.0129
763.5308	0.0056
763.7055	0.0102
763.8803	-0.0096
764.055	-0.0061
764.2297	-0.007
764.4044	-0.0139
764.579	-0.0054
764.7537	-0.0135
764.9283	-0.0013
765.1029	0.0019
765.2775	0.0011
765.4521	-0.0123
765.6266	-0.0065
765.8011	-0.0035
765.9756	-0.006
766.1501	0.0159
766.3246	0.0008
766.4991	0.0052
766.6735	0.0038
766.8479	-0.0007
767.0223	0.0115
767.1967	0.0084
767.371	-0.006
767.5454	0.0009
767.7197	-0.0075
767.894	0.0007
768.0683	-0.0042
768.2425	0.0024
768.4168	0.0045
768.591	0.0044
768.7652	0.0036
768.9394	0.0006
769.1135	-0.003
769.2877	0.009
769.4618	0.0019
769.6359	0.002
769.81	0.0054
769.984	0.0063
770.1581	-0.0043
770.3321	0.0053
770.5061	0.0082
770.6801	0.0012
770.8541	0.0073
771.028	-0.0025
771.202	-0.0007
771.3759	0.0104
771.5498	-0.0002
771.7236	0.0132
771.8975	0.0115
772.0713	0.0069
772.2451	-0.0018
772.4189	0.0056
772.5927	0.0021
772.7665	0.0013
772.9402	-0.008
773.1139	-0.0048
773.2876	-0.0066
773.4613	0.0051
773.635	0.0096
773.8086	-0.004
773.9822	0.008
774.1558	0.0046
774.3294	-0.0141
774.503	-0.003
774.6765	0.0006
774.8501	0.0056
775.0236	0.0041
775.1971	0.007
775.3705	-0.0082
775.544	-0.0068
775.7174	-0.0069
775.8908	-0.0052
776.0642	-0.0091
776.2376	-0.0087
776.4109	-0.0125
776.5843	-0.0063
776.7576	-0.0068
776.9309	0.0081
777.1041	0.0047
777.2774	0.0124
777.4506	-0.0055
777.6238	-0.0045
777.797	-0.0078
777.9702	-0.0018
778.1434	-0.0055
778.3165	-0.0167
778.4896	0.0003
778.6627	0.0046
778.8358	0.0007
779.0089	-0.0119
779.1819	-0.009
779.3549	0.0118
779.5279	-0.0026
779.7009	0.007
779.8739	0.0066
780.0468	-0.0109
780.2197	-0.0075
780.3926	-0.0084
780.5655	0.0022
780.7384	-0.0122
780.9112	-0.0011
781.0841	-0.009
781.2569	-0.006
781.4297	-0.0023
781.6024	0.0046
781.7752	0.0125
781.9479	0.0019
782.1206	-0.0004
782.2933	-0.019
782.466	0.0029
782.6386	0.02
782.8113	0.0109
782.9839	0.0046
783.1565	0.0043
783.329	-0.0058
783.5016	0.005
783.6741	0.0133
783.8466	-0.0016
784.0191	0.004
784.1916	-0.0015
784.3641	-0.0038
784.5365	-0.0002
784.7089	-0.0059
784.8813	-0.0121
785.0537	-0.0034
785.2261	-0.006
785.3984	-0.0075
785.5707	-0.0054
785.743	0.0006
785.9153	-0.0117
786.0876	-0.0035
786.2598	-0.0013
786.432	-0.0238
786.6042	0.0033
786.7764	-0.016
786.9486	0.0015
787.1207	-0.0019
787.2928	0.0085
787.4649	0.0033
787.637	0.0009
787.8091	-0.0081
787.9811	-0.0123
788.1532	-0.0068
788.3252	0.0119
788.4972	-0.0133
788.6691	0.0004
788.8411	0.0053
789.013	-0.0054
789.1849	0.0041
789.3568	-0.0011
789.5287	0.0034
789.7005	-0.0003
789.8723	-0.0045
790.0442	0.0194
790.2159	0.0065
790.3877	-0.0034
790.5595	-0.0043
790.7312	0.0041
790.9029	-0.0048
791.0746	-0.0136
791.2463	-0.0139
791.4179	-0.0115
791.5896	-0.0123
791.7612	0.0092
791.9328	-0.0036
792.1044	-0.0144
792.2759	-0.0083
792.4474	-0.0056
792.619	-0.0026
792.7905	-0.0014
792.9619	0.0049
793.1334	0.0001
793.3048	0.0001
793.4762	-0.0016
793.6476	0.0147
793.819	-0.0099
793.9904	-0.0011
794.1617	-0.0177
794.333	-0.0083
794.5043	-0.0039
794.6756	-0.0018
794.8469	-0.0102
795.0181	0.0026
795.1893	-0.0097
795.3605	0.0211
795.5317	-0.0107
795.7029	-0.0147
795.874	0.0027
796.0452	-0.0002
796.2163	0.0014
796.3873	0.0357
796.5584	-0.0016
796.7294	0.0035
796.9005	-0.0013
797.0715	0.001
797.2425	-0.0066
797.4134	-0.0047
797.5844	-0.0004
797.7553	-0.0158
797.9262	-0.0064
798.0971	-0.0125
798.2679	0.0016
798.4388	-0.024
798.6096	-0.0121
798.7804	-0.0038
798.9512	-0.0078
799.122	-0.0085
799.2927	0.0077
799.4635	0.0014
799.6342	-0.0148
799.8049	-0.0006
799.9755	-0.0108
800.1462	-0.002
800.3168	0.0233
800.4874	0.0015
800.658	0.0254
800.8286	0.008
800.9991	0.0075
801.1696	-0.0006
801.3402	0.0108
801.5106	0.0032
801.6811	0.009
801.8516	0.0094
802.022	0.0061
802.1924	0.0082
802.3628	0.0073
802.5332	-0.0051
802.7035	0.0017
802.8739	0.0019
803.0442	-0.0178
803.2145	0.0104
803.3847	-0.0123
803.555	-0.0024
803.7252	-0.0179
803.8954	-0.0093
804.0656	-0.0069
804.2358	-0.008
804.4059	0.0082
804.5761	-0.0033
804.7462	0.001
804.9163	-0.0035
805.0864	-0.0092
805.2564	-0.0007
805.4264	-0.0022
805.5965	-0.0014
805.7665	0.0126
805.9364	-0.0052
806.1064	0.0131
806.2763	0.0097
806.4462	0.0235
806.6161	0.0089
806.786	0.0081
806.9559	-0.0262
807.1257	0.0093
807.2955	-0.0012
807.4653	-0.0124
807.6351	-0.0157
807.8048	-0.0052
807.9746	0.0056
808.1443	0.0085
808.314	0.0106
808.4837	0.0033
808.6533	-0.0069
808.8229	0.0239
808.9926	-0.006
809.1622	0.0004
809.3317	-0.0177
809.5013	0.0062
809.6708	0.0131
809.8403	-0.005
810.0098	-0.0069
810.1793	-0.0101
810.3488	-0.0073
810.5182	-0.0099
810.6876	0.0127
810.857	-0.0212
811.0264	0.0181
811.1958	-0.0052
811.3651	0.0092
811.5344	-0.0035
811.7037	-0.0188
811.873	-0.0191
812.0422	-0.0089
812.2115	-0.0028
812.3807	-0.0218
812.5499	-0.0017
812.7191	-0.0049
812.8882	-0.0373
813.0574	-0.0118
813.2265	0.0057
813.3956	0.0078
813.5646	-0.0161
813.7337	-0.0104
813.9027	0.0079
814.0718	0.0127
814.2407	0.0314
814.4097	-0.0051
814.5787	-0.02
814.7476	-0.0085
814.9165	0.0027
815.0854	-0.0007
815.2543	0.0049
815.4232	0.002
815.592	0.002
815.7608	-0.0132
815.9296	0.0091
816.0984	0.0076
816.2671	-0.0175
816.4359	0.0159
816.6046	-0.0072
816.7733	-0.031
816.942	-0.026
817.1106	-0.0019
817.2793	0.0031
817.4479	-0.0083
817.6165	-0.008
817.785	-0.0038
817.9536	-0.0202
818.1221	-0.0124
818.2906	-0.0185
818.4591	0.0022
818.6276	-0.0108
818.7961	-0.0027
818.9645	0.0172
819.1329	-0.007
819.3013	0.0333
819.4697	0.0255
819.638	0.0246
819.8064	-0.0078
819.9747	0.0087
820.143	-0.0167
820.3113	-0.0367
820.4795	0.0017
820.6477	-0.0011
820.816	0.0052
820.9842	0.0039
821.1523	-0.0327
821.3205	-0.0099
821.4886	-0.0008
821.6567	-0.0065
821.8248	0.0115
821.9929	0.0016
822.1609	-0.0068
822.329	-0.0068
822.497	0.0059
822.665	-0.0001
822.833	-0.0036
823.0009	-0.002
823.1688	0.0063
823.3367	0.0199
823.5046	0.0203
823.6725	0.0315
823.8404	-0.0182
824.0082	-0.0024
824.176	0.0217
824.3438	0.0104
824.5116	-0.0149
824.6793	-0.0009
824.847	-0.0231
825.0147	-0.0229
825.1824	0.0145
825.3501	0.0063
825.5177	0.0048
825.6854	-0.0099
825.853	-0.0001
826.0206	-0.0157
826.1881	-0.0186
826.3557	-0.0249
826.5232	-0.0001
826.6907	-0.0314
826.8582	-0.0156
827.0257	0.0008
827.1931	-0.0191
827.3605	0.0072
827.528	-0.0165
827.6953	-0.0204
827.8627	-0.0153
828.03	0.0439
828.1974	0.0142
828.3647	-0.0281
828.532	-0.0199
828.6992	-0.0189
828.8665	-0.0072
829.0337	-0.0402
829.2009	0.0266
829.3681	0.004
829.5352	0.0249
829.7024	-0.0317
829.8695	-0.0018
830.0366	0.0008
830.2037	0.0009
830.3707	0.0434
830.5378	-0.0133
830.7048	-0.0141
830.8718	-0.0071
831.0388	-0.0142
831.2057	0.0184
831.3727	0.0004
831.5396	-0.0018
831.7065	-0.0165
831.8734	0.022
832.0402	-0.009
832.2071	0.0078
832.3739	-0.0241
832.5407	-0.0148
832.7075	-0.028
832.8742	0.0142
833.041	-0.0341
833.2077	0.0103
833.3744	-0.0158
833.541	-0.0079
833.7077	-0.0209
833.8743	-0.0021
834.0409	0.0066
834.2075	-0.0395
834.3741	-0.0075
834.5407	0.0213
834.7072	0.0167
834.8737	0.0188
835.0402	-0.0015
835.2067	0.0087
835.3731	0.048
835.5395	0.0201
835.706	-0.0104
835.8723	-0.0023
836.0387	0.0199
836.2051	0.0054
836.3714	-0.0343
836.5377	0.0181
836.704	-0.0305
836.8703	-0.0278
837.0365	0.0285
837.2027	-0.028
837.3689	0.0291
837.5351	-0.0278
837.7013	-0.0169
837.8674	-0.0011
838.0335	0.0289
838.1997	-0.0177
838.3657	-0.0183
838.5318	-0.0088
838.6978	0.0137
838.8639	0.0636
839.0299	0.0041
839.1958	-0.0148
839.3618	-0.0053
839.5277	-0.0395
839.6937	0.0323
839.8596	-0.0384
840.0254	0.028
840.1913	-0.0092
840.3571	0.0104
840.523	-0.0392
840.6888	0.0268
840.8545	-0.0246
841.0203	0.0557
841.186	0.0208
841.3517	0.0591
841.5174	-0.0157
841.6831	-0.0178
841.8488	-0.023
842.0144	-0.0285
842.18	0.0042
842.3456	-0.0067
842.5112	-0.0152
842.6767	-0.0333
842.8422	-0.015
843.0077	-0.0377
843.1732	-0.0987
843.3387	-0.0059
843.5042	-0.0296
843.6696	-0.0535
843.835	0.0074
844.0004	0.0237
844.1657	-0.0003
844.3311	-0.0363
844.4964	-0.0659
844.6617	0.0099
844.827	-0.0359
844.9923	-0.0756
845.1575	-0.0027
845.3227	-0.0014
845.4879	0.0228
845.6531	-0.0083
845.8183	-0.043
845.9834	-0.0065
846.1485	-0.0447
846.3136	-0.025
846.4787	-0.1157
846.6438	0.0306
846.8088	-0.0306
846.9738	-0.0535
847.1388	-0.0169
847.3038	-0.0064
847.4687	-0.1464
847.6337	0.0519
847.7986	-0.0273
847.9635	-0.0733
848.1284	0.0079
848.2932	0.0234
848.458	-0.0284
848.6228	-0.014
848.7876	0.0362
848.9524	-0.0775
849.1172	-0.0713
849.2819	0.0285
849.4466	-0.0713
849.6113	-0.092
849.7759	-0.1079
849.9406	-0.0238
850.1052	0.0048
850.2698	-0.0861
850.4344	-0.0522
850.599	-0.0951
850.7635	0.0411
850.928	0.0818
851.0925	0.0503
851.257	0.0103
851.4215	0.0103
851.5859	-0.0177
851.7503	0.0802
851.9147	0.0708
852.0791	-0.0808
852.2434	-0.1014
852.4078	0.0675
852.5721	0.0582
852.7364	-0.0853
852.9007	-0.1639
853.0649	-0.0825
853.2291	0.0172
853.3934	-0.0074
853.5575	-0.0322
853.7217	-0.1056
853.8859	-0.1306
854.05	-0.1472
854.2141	0.0605
854.3782	-0.1168
854.5423	-0.1181
854.7063	0.1523
854.8703	-0.0089
855.0343	-0.0729
855.1983	-0.2812
855.3623	0.2047
855.5262	0.0189
855.6901	-0.0743
855.854	-0.0005
856.0179	0.127
856.1818	0.1003
856.3456	-0.1237
856.5094	0.0023
856.6732	-0.2292
856.837	0.0574
857.0008	0.1372
857.1645	-0.0907
857.3282	-0.2458
857.4919	-0.0195
857.6556	-0.021
857.8192	0.082
857.9828	0.1623
858.1465	0.0231
858.31	-0.1679
858.4736	-0.1985
858.6372	-0.2532
858.8007	-0.1733
858.9642	-0.1301
859.1277	0.1676
859.2911	-0.0612
859.4546	-0.1153
859.618	-0.2385
859.7814	-0.0803
859.9448	-0.0727
860.1081	0.1408
860.2715	0.2179
860.4348	-0.1615
860.5981	0.0757
860.7614	0.2603
860.9246	-0.0527
861.0879	-0.0916
861.2511	0.1268
861.4143	-0.3696
861.5774	0.2017
861.7406	-0.1295
861.9037	-0.0533
862.0668	-0.0748
862.2299	-0.1911
862.393	-0.6369
862.556	-0.0254
862.7191	-0.2775
862.8821	-0.1022
863.0451	0.0154
863.208	0.0761
863.371	-0.1377
863.5339	-0.266
863.6968	-0.1207
863.8597	0.3937
864.0225	-0.1545
864.1854	-0.0022
864.3482	0.1047
864.511	0.2081
864.6737	0.0184
864.8365	0.7071
864.9992	-0.493
865.1619	-0.3145
865.3246	-0.3743
865.4873	0.0565
865.65	-0.0334
865.8126	0.104
865.9752	0.1604
866.1378	0.0091
866.3004	-0.1235
866.4629	0.2648
866.6254	0.0855
866.7879	-0.1191
866.9504	-0
867.1129	-0
867.2753	0.0825
867.4377	0.0209
867.6001	0.0463
867.7625	0.027
867.9249	-0
868.0872	-0.2208
868.2495	0.0701
868.4118	-0.1674
868.5741	-0
868.7363	-0.0719
868.8986	0.6142
869.0608	-0.122
869.223	0.1967
869.3851	0.1031
869.5473	-0
869.7094	-0.0443
869.8715	0.2779
870.0336	-0
870.1957	-0.6867
870.3577	-0
870.5197	0.0432
870.6817	-0.5095
870.8437	0.0626
871.0057	-0.3339
871.1676	-0
871.3295	-0
871.4914	-0
871.6533	-0.2229
871.8151	-0.1609
871.977	-0
872.1388	-0
872.3006	0.0837
872.4623	0.0357
872.6241	0.5501
872.7858	0.4499
872.9475	-0.1819
873.1092	0.0106
873.2709	-0
873.4325	-0.5199
873.5941	-0
873.7557	0.0112
873.9173	-0
874.0789	-0.3398
874.2404	-0
874.4019	0.0104
874.5634	-0.3381
874.7249	-0.2317
874.8863	0.1243
875.0478	0.4341
875.2092	-0
875.3706	0.0838
875.5319	-0.575
875.6933	-0
875.8546	-0.2542
876.0159	-0.1272
876.1772	-0
876.3385	-0
876.4997	0.1246
876.6609	-0.0459
876.8221	0.3736
876.9833	-0
877.1445	-0
877.3056	-0.1107
877.4667	-0.2761
877.6278	-0
877.7889	-0.6335
877.9499	-0
878.111	-0
878.272	0.4973
878.433	-0
878.5939	-0
878.7549	0.0091
878.9158	-0.4748
879.0767	-0
879.2376	0.2088
879.3984	0.1104
879.5593	-0
879.7201	-0.2955
879.8809	-0.7123
880.0417	-0.3804
880.2024	0.2154
880.3632	-0.9052
880.5239	0.2907
880.6846	0.2926
880.8452	-2.667
881.0059	-0
881.1665	0.2624
881.3271	0.3876
881.4877	-0.5773
881.6483	-0.5565
881.8088	-0.4555
881.9693	0.6102
882.1298	0.6102
882.2903	0.6102
