Data from MonoPyChalIsomerACN10uM410nmA_Absorbance_14-53-30-873.txt Node
Date: Fri Jul 05 14:53:30 BST 2024
User: LASERRRRR
Spectrometer: FLMT03099
Trigger mode: 0
Integration Time (sec): 1.000000E-1
Scans to average: 1
Electric dark correction enabled: true
Nonlinearity correction enabled: false
Boxcar width: 0
XAxis mode: Wavelengths
Number of Pixels in Spectrum: 3648
>>>>>Begin Spectral Data<<<<<
179.3399	-0.3581
179.5586	-0.3581
179.7771	-0.3581
179.9957	-0.0683
180.2143	-0
180.4329	0.0769
180.6514	-0
180.8699	0.5079
181.0885	-0.3999
181.307	0.0447
181.5255	-0.7801
181.744	-0.2035
181.9625	-0
182.181	-1.1567
182.3994	0.5398
182.6179	-0
182.8363	0.6894
183.0547	0.2864
183.2732	-0.0307
183.4916	0.0231
183.71	0.1704
183.9284	0.0918
184.1467	0.0343
184.3651	0.2268
184.5835	0.329
184.8018	0.2577
185.0201	0.2773
185.2385	-0.1075
185.4568	0.445
185.6751	0.0367
185.8934	0.1818
186.1117	0.1404
186.3299	0.2368
186.5482	0.1481
186.7664	0.03
186.9847	-0.043
187.2029	0.1373
187.4211	0.1501
187.6393	0.1148
187.8575	0.1233
188.0757	0.4683
188.2939	0.1415
188.512	0.3343
188.7302	0.2259
188.9483	0.17
189.1665	0.1982
189.3846	-0
189.6027	0.315
189.8208	0.1706
190.0389	0.2048
190.257	0.2007
190.475	0.3212
190.6931	0.3711
190.9111	0.7602
191.1292	0.2302
191.3472	0.9434
191.5652	0.3673
191.7832	0.2464
192.0012	0.692
192.2192	0.3483
192.4371	0.6036
192.6551	0.2928
192.873	0.4403
193.091	0.4201
193.3089	1.0272
193.5268	0.5607
193.7447	0.7087
193.9626	0.4882
194.1805	0.6346
194.3984	0.7284
194.6162	0.615
194.8341	0.5019
195.0519	0.5909
195.2697	0.7986
195.4875	0.5091
195.7054	0.6083
195.9231	0.437
196.1409	0.668
196.3587	0.558
196.5765	0.5842
196.7942	0.5979
197.012	0.6595
197.2297	0.7465
197.4474	0.5958
197.6651	0.4995
197.8828	0.5591
198.1005	0.6933
198.3182	0.6045
198.5358	0.7093
198.7535	0.6665
198.9711	0.5147
199.1888	0.6351
199.4064	0.9071
199.624	0.558
199.8416	0.5559
200.0592	0.6708
200.2767	0.6679
200.4943	0.6886
200.7119	0.7238
200.9294	0.6211
201.1469	0.6724
201.3645	0.5267
201.582	0.5908
201.7995	0.719
202.017	0.6026
202.2344	0.5884
202.4519	0.7768
202.6694	0.644
202.8868	0.7053
203.1042	0.6542
203.3217	0.8592
203.5391	0.6075
203.7565	0.6481
203.9739	0.5519
204.1913	0.6025
204.4086	0.549
204.626	0.6576
204.8433	0.6674
205.0607	0.544
205.278	0.776
205.4953	0.6505
205.7126	0.6598
205.9299	0.7439
206.1472	0.7689
206.3644	0.6388
206.5817	0.7602
206.7989	0.7093
207.0162	0.6692
207.2334	0.6864
207.4506	0.6406
207.6678	0.5407
207.885	0.6834
208.1022	0.6427
208.3194	0.7056
208.5365	0.6741
208.7537	0.6954
208.9708	0.5908
209.1879	0.7065
209.405	0.6951
209.6222	0.7011
209.8392	0.6675
210.0563	0.6461
210.2734	0.7159
210.4905	0.6292
210.7075	0.615
210.9245	0.5925
211.1416	0.681
211.3586	0.6136
211.5756	0.5629
211.7926	0.6971
212.0096	0.5818
212.2265	0.5238
212.4435	0.5678
212.6604	0.6144
212.8774	0.6125
213.0943	0.6075
213.3112	0.5758
213.5281	0.4958
213.745	0.4768
213.9619	0.5207
214.1788	0.4715
214.3956	0.4892
214.6125	0.4853
214.8293	0.4328
215.0461	0.4829
215.2629	0.4346
215.4798	0.4635
215.6965	0.4301
215.9133	0.4293
216.1301	0.4209
216.3469	0.4385
216.5636	0.4198
216.7803	0.3804
216.9971	0.4287
217.2138	0.3992
217.4305	0.3724
217.6472	0.3289
217.8639	0.3744
218.0805	0.327
218.2972	0.3041
218.5138	0.308
218.7305	0.3371
218.9471	0.2991
219.1637	0.2813
219.3803	0.2733
219.5969	0.2835
219.8135	0.2694
220.0301	0.2701
220.2466	0.2897
220.4632	0.273
220.6797	0.232
220.8962	0.2284
221.1127	0.2353
221.3292	0.2523
221.5457	0.2382
221.7622	0.2162
221.9787	0.2316
222.1951	0.2297
222.4116	0.2565
222.628	0.262
222.8444	0.254
223.0608	0.2354
223.2772	0.233
223.4936	0.2592
223.71	0.2557
223.9264	0.274
224.1427	0.2539
224.3591	0.2298
224.5754	0.2454
224.7917	0.2725
225.008	0.2596
225.2243	0.2366
225.4406	0.2776
225.6569	0.279
225.8732	0.2487
226.0894	0.2478
226.3057	0.2495
226.5219	0.2767
226.7381	0.2684
226.9543	0.2718
227.1705	0.2997
227.3867	0.2857
227.6029	0.2747
227.8191	0.2937
228.0352	0.2786
228.2513	0.3006
228.4675	0.3001
228.6836	0.2787
228.8997	0.3036
229.1158	0.2962
229.3319	0.3075
229.548	0.3034
229.764	0.3264
229.9801	0.3189
230.1961	0.3163
230.4121	0.3061
230.6282	0.3362
230.8442	0.3019
231.0602	0.3486
231.2761	0.35
231.4921	0.3256
231.7081	0.33
231.924	0.3343
232.14	0.35
232.3559	0.341
232.5718	0.3494
232.7877	0.3631
233.0036	0.3361
233.2195	0.3663
233.4353	0.3588
233.6512	0.3621
233.867	0.3546
234.0829	0.3493
234.2987	0.3546
234.5145	0.3699
234.7303	0.374
234.9461	0.3829
235.1619	0.3545
235.3776	0.37
235.5934	0.3785
235.8091	0.3724
236.0249	0.3639
236.2406	0.3801
236.4563	0.3691
236.672	0.4068
236.8877	0.3783
237.1034	0.3837
237.319	0.3839
237.5347	0.3977
237.7503	0.3853
237.966	0.3902
238.1816	0.4159
238.3972	0.39
238.6128	0.4128
238.8284	0.3906
239.0439	0.3885
239.2595	0.396
239.475	0.4136
239.6906	0.4081
239.9061	0.393
240.1216	0.3963
240.3371	0.3875
240.5526	0.3834
240.7681	0.4007
240.9836	0.4009
241.199	0.3892
241.4145	0.3929
241.6299	0.3956
241.8453	0.3905
242.0607	0.3903
242.2761	0.3787
242.4915	0.3829
242.7069	0.3833
242.9223	0.37
243.1376	0.3574
243.353	0.3721
243.5683	0.3546
243.7836	0.356
243.9989	0.3559
244.2142	0.3291
244.4295	0.3399
244.6448	0.3439
244.86	0.3072
245.0753	0.3136
245.2905	0.3209
245.5057	0.2956
245.721	0.2892
245.9362	0.2864
246.1514	0.2895
246.3665	0.2785
246.5817	0.2639
246.7969	0.2679
247.012	0.2704
247.2271	0.2492
247.4423	0.2677
247.6574	0.2502
247.8725	0.2459
248.0876	0.2426
248.3026	0.2437
248.5177	0.2414
248.7328	0.2227
248.9478	0.209
249.1628	0.239
249.3779	0.2446
249.5929	0.217
249.8079	0.2281
250.0228	0.2099
250.2378	0.2196
250.4528	0.2139
250.6677	0.1981
250.8827	0.2099
251.0976	0.205
251.3125	0.1907
251.5274	0.1739
251.7423	0.1914
251.9572	0.1968
252.172	0.1937
252.3869	0.1927
252.6017	0.1872
252.8166	0.1786
253.0314	0.1716
253.2462	0.1733
253.461	0.1801
253.6758	0.1789
253.8906	0.1835
254.1053	0.1726
254.3201	0.1668
254.5348	0.1752
254.7496	0.1718
254.9643	0.1707
255.179	0.1825
255.3937	0.1691
255.6083	0.1685
255.823	0.1699
256.0377	0.1682
256.2523	0.1724
256.467	0.1581
256.6816	0.1757
256.8962	0.1774
257.1108	0.1643
257.3254	0.1763
257.54	0.1532
257.7545	0.1727
257.9691	0.1705
258.1836	0.1655
258.3981	0.1701
258.6127	0.1731
258.8272	0.1467
259.0417	0.1644
259.2561	0.1681
259.4706	0.1693
259.6851	0.1586
259.8995	0.1526
260.114	0.1585
260.3284	0.1597
260.5428	0.16
260.7572	0.1716
260.9716	0.1686
261.186	0.1662
261.4003	0.1628
261.6147	0.1794
261.829	0.1681
262.0433	0.174
262.2577	0.1585
262.472	0.1642
262.6863	0.1569
262.9005	0.1669
263.1148	0.1752
263.3291	0.1451
263.5433	0.1464
263.7576	0.1651
263.9718	0.1612
264.186	0.1698
264.4002	0.1599
264.6144	0.1593
264.8286	0.164
265.0427	0.1665
265.2569	0.1554
265.471	0.1581
265.6851	0.164
265.8993	0.1552
266.1134	0.147
266.3275	0.167
266.5415	0.1689
266.7556	0.175
266.9697	0.1756
267.1837	0.1673
267.3978	0.1677
267.6118	0.1701
267.8258	0.1876
268.0398	0.1625
268.2538	0.1807
268.4677	0.1782
268.6817	0.1656
268.8957	0.1679
269.1096	0.176
269.3235	0.1747
269.5374	0.1701
269.7514	0.1666
269.9652	0.156
270.1791	0.1637
270.393	0.1561
270.6068	0.1691
270.8207	0.1497
271.0345	0.163
271.2483	0.1808
271.4622	0.1455
271.676	0.1687
271.8897	0.1502
272.1035	0.1498
272.3173	0.1596
272.531	0.16
272.7448	0.149
272.9585	0.1562
273.1722	0.1665
273.3859	0.1673
273.5996	0.149
273.8133	0.1704
274.0269	0.1629
274.2406	0.1645
274.4542	0.1688
274.6679	0.1585
274.8815	0.1578
275.0951	0.1697
275.3087	0.1674
275.5223	0.181
275.7358	0.1649
275.9494	0.1725
276.1629	0.1491
276.3765	0.1551
276.59	0.1599
276.8035	0.1744
277.017	0.1655
277.2305	0.1621
277.444	0.1661
277.6574	0.1694
277.8709	0.1546
278.0843	0.1708
278.2978	0.1623
278.5112	0.1597
278.7246	0.1648
278.938	0.1707
279.1513	0.1776
279.3647	0.1832
279.5781	0.1701
279.7914	0.1783
280.0047	0.1739
280.2181	0.1637
280.4314	0.1626
280.6447	0.1759
280.8579	0.166
281.0712	0.1719
281.2845	0.1675
281.4977	0.1702
281.711	0.1586
281.9242	0.1671
282.1374	0.1785
282.3506	0.1555
282.5638	0.1724
282.7769	0.168
282.9901	0.1573
283.2033	0.1742
283.4164	0.1812
283.6295	0.1489
283.8426	0.1629
284.0557	0.1579
284.2688	0.1711
284.4819	0.1731
284.695	0.1565
284.908	0.1752
285.1211	0.1574
285.3341	0.1605
285.5471	0.1716
285.7601	0.1613
285.9731	0.1602
286.1861	0.1496
286.3991	0.1608
286.612	0.1577
286.825	0.1569
287.0379	0.1738
287.2508	0.1554
287.4637	0.1615
287.6766	0.1623
287.8895	0.1723
288.1024	0.1666
288.3152	0.1743
288.5281	0.1526
288.7409	0.161
288.9538	0.1525
289.1666	0.1469
289.3794	0.1531
289.5922	0.1473
289.8049	0.1586
290.0177	0.1522
290.2304	0.1599
290.4432	0.1552
290.6559	0.1554
290.8686	0.1465
291.0813	0.1542
291.294	0.1536
291.5067	0.162
291.7194	0.1513
291.932	0.1703
292.1447	0.1531
292.3573	0.1464
292.5699	0.1519
292.7825	0.1563
292.9951	0.1469
293.2077	0.1504
293.4203	0.1526
293.6328	0.1348
293.8454	0.1562
294.0579	0.1453
294.2704	0.1553
294.4829	0.1401
294.6954	0.1453
294.9079	0.16
295.1204	0.1475
295.3328	0.1398
295.5453	0.1539
295.7577	0.1576
295.9701	0.1362
296.1825	0.1489
296.3949	0.1419
296.6073	0.1473
296.8197	0.1355
297.0321	0.1636
297.2444	0.1343
297.4567	0.1491
297.6691	0.146
297.8814	0.1352
298.0937	0.1451
298.306	0.149
298.5182	0.1432
298.7305	0.1471
298.9428	0.1379
299.155	0.1558
299.3672	0.139
299.5794	0.1371
299.7916	0.145
300.0038	0.1457
300.216	0.1464
300.4282	0.1468
300.6403	0.1334
300.8525	0.1482
301.0646	0.1405
301.2767	0.1533
301.4888	0.1508
301.7009	0.1415
301.913	0.1492
302.125	0.1443
302.3371	0.1466
302.5491	0.1437
302.7612	0.1598
302.9732	0.1476
303.1852	0.1423
303.3972	0.1448
303.6092	0.1447
303.8211	0.141
304.0331	0.1421
304.245	0.1426
304.457	0.1344
304.6689	0.134
304.8808	0.1497
305.0927	0.1222
305.3046	0.1379
305.5164	0.141
305.7283	0.1356
305.9401	0.1425
306.152	0.1448
306.3638	0.1462
306.5756	0.1325
306.7874	0.1452
306.9992	0.1423
307.2109	0.1316
307.4227	0.1213
307.6344	0.126
307.8462	0.1315
308.0579	0.1243
308.2696	0.1231
308.4813	0.1213
308.693	0.132
308.9046	0.1303
309.1163	0.1262
309.328	0.1161
309.5396	0.1199
309.7512	0.1251
309.9628	0.1206
310.1744	0.119
310.386	0.1219
310.5976	0.1219
310.8091	0.1189
311.0207	0.1225
311.2322	0.1297
311.4437	0.1107
311.6552	0.1088
311.8667	0.1176
312.0782	0.1013
312.2897	0.1036
312.5012	0.1185
312.7126	0.1089
312.924	0.1094
313.1355	0.1199
313.3469	0.1044
313.5583	0.1176
313.7696	0.1082
313.981	0.1228
314.1924	0.1131
314.4037	0.1092
314.6151	0.1203
314.8264	0.1104
315.0377	0.1071
315.249	0.1117
315.4603	0.1069
315.6716	0.1079
315.8828	0.0966
316.0941	0.1109
316.3053	0.1016
316.5165	0.1005
316.7277	0.1033
316.9389	0.1189
317.1501	0.1084
317.3613	0.1164
317.5724	0.1089
317.7836	0.1211
317.9947	0.1103
318.2058	0.1089
318.417	0.0966
318.6281	0.1011
318.8391	0.1026
319.0502	0.1098
319.2613	0.1167
319.4723	0.1247
319.6834	0.1083
319.8944	0.0955
320.1054	0.1066
320.3164	0.1112
320.5274	0.1102
320.7383	0.1043
320.9493	0.1145
321.1602	0.1167
321.3712	0.0992
321.5821	0.1147
321.793	0.1169
322.0039	0.1032
322.2148	0.1022
322.4257	0.1168
322.6365	0.1108
322.8474	0.1127
323.0582	0.1109
323.269	0.1074
323.4798	0.12
323.6906	0.1009
323.9014	0.1114
324.1122	0.1044
324.3229	0.1098
324.5337	0.1125
324.7444	0.1066
324.9551	0.1279
325.1658	0.1159
325.3765	0.1155
325.5872	0.1156
325.7979	0.1097
326.0085	0.1178
326.2192	0.1306
326.4298	0.1206
326.6404	0.1144
326.851	0.113
327.0616	0.1058
327.2722	0.1153
327.4828	0.1221
327.6933	0.1176
327.9039	0.1295
328.1144	0.1323
328.3249	0.1213
328.5354	0.1209
328.7459	0.1148
328.9564	0.1171
329.1669	0.1275
329.3773	0.1188
329.5878	0.1229
329.7982	0.1137
330.0086	0.1241
330.219	0.1271
330.4294	0.1129
330.6398	0.1094
330.8502	0.1192
331.0605	0.1242
331.2708	0.1136
331.4812	0.1184
331.6915	0.1241
331.9018	0.1268
332.1121	0.1162
332.3224	0.1263
332.5326	0.126
332.7429	0.1223
332.9531	0.1319
333.1633	0.125
333.3735	0.1236
333.5837	0.1155
333.7939	0.1156
334.0041	0.1199
334.2143	0.132
334.4244	0.1175
334.6346	0.1059
334.8447	0.1243
335.0548	0.1297
335.2649	0.1173
335.475	0.1312
335.685	0.1176
335.8951	0.1296
336.1051	0.1223
336.3152	0.1329
336.5252	0.1349
336.7352	0.1337
336.9452	0.1304
337.1552	0.1264
337.3652	0.1191
337.5751	0.1185
337.7851	0.1249
337.995	0.122
338.2049	0.1303
338.4148	0.1176
338.6247	0.1343
338.8346	0.1151
339.0445	0.1219
339.2543	0.122
339.4642	0.1309
339.674	0.1197
339.8838	0.1264
340.0936	0.1301
340.3034	0.1356
340.5132	0.1328
340.7229	0.1265
340.9327	0.1308
341.1424	0.119
341.3522	0.1375
341.5619	0.1263
341.7716	0.1332
341.9813	0.1472
342.1909	0.1326
342.4006	0.138
342.6102	0.1473
342.8199	0.139
343.0295	0.1495
343.2391	0.1432
343.4487	0.1408
343.6583	0.1374
343.8679	0.1399
344.0774	0.1437
344.287	0.1437
344.4965	0.1411
344.706	0.1418
344.9155	0.1401
345.125	0.1387
345.3345	0.1534
345.544	0.1375
345.7534	0.1368
345.9629	0.1408
346.1723	0.1385
346.3817	0.1313
346.5911	0.1424
346.8005	0.1403
347.0099	0.1399
347.2193	0.1399
347.4286	0.1362
347.638	0.1498
347.8473	0.1407
348.0566	0.1499
348.2659	0.1452
348.4752	0.1477
348.6845	0.1448
348.8937	0.1514
349.103	0.1572
349.3122	0.1404
349.5214	0.1369
349.7306	0.1432
349.9398	0.1516
350.149	0.1525
350.3582	0.1485
350.5674	0.1564
350.7765	0.1481
350.9856	0.1522
351.1948	0.143
351.4039	0.1294
351.613	0.14
351.822	0.1511
352.0311	0.1571
352.2402	0.1516
352.4492	0.15
352.6582	0.1645
352.8672	0.1677
353.0762	0.1442
353.2852	0.1557
353.4942	0.1367
353.7032	0.146
353.9121	0.1596
354.1211	0.1551
354.33	0.1672
354.5389	0.1702
354.7478	0.1608
354.9567	0.1457
355.1655	0.1438
355.3744	0.1594
355.5833	0.1579
355.7921	0.1697
356.0009	0.1602
356.2097	0.1736
356.4185	0.1729
356.6273	0.1554
356.8361	0.1656
357.0448	0.166
357.2536	0.1537
357.4623	0.1693
357.671	0.1752
357.8797	0.1629
358.0884	0.166
358.2971	0.1435
358.5057	0.1586
358.7144	0.1583
358.923	0.1675
359.1316	0.172
359.3402	0.1776
359.5488	0.166
359.7574	0.1551
359.966	0.1692
360.1746	0.1652
360.3831	0.1785
360.5916	0.1623
360.8002	0.1731
361.0087	0.1787
361.2172	0.1613
361.4256	0.1731
361.6341	0.1952
361.8426	0.1857
362.051	0.1752
362.2594	0.1687
362.4678	0.1718
362.6762	0.1903
362.8846	0.182
363.093	0.1764
363.3014	0.1634
363.5097	0.1767
363.718	0.1815
363.9264	0.1689
364.1347	0.1767
364.343	0.1768
364.5513	0.1848
364.7595	0.1772
364.9678	0.1745
365.176	0.1814
365.3842	0.1794
365.5925	0.1782
365.8007	0.1806
366.0089	0.1767
366.217	0.182
366.4252	0.1925
366.6333	0.188
366.8415	0.1975
367.0496	0.1678
367.2577	0.1967
367.4658	0.183
367.6739	0.1938
367.882	0.1941
368.09	0.1866
368.2981	0.1895
368.5061	0.1753
368.7141	0.1848
368.9221	0.206
369.1301	0.1827
369.3381	0.1765
369.5461	0.1957
369.754	0.1896
369.962	0.1931
370.1699	0.2052
370.3778	0.2128
370.5857	0.197
370.7936	0.1948
371.0015	0.1985
371.2093	0.1908
371.4172	0.2155
371.625	0.1906
371.8328	0.1942
372.0406	0.1898
372.2484	0.1967
372.4562	0.1993
372.664	0.2022
372.8717	0.192
373.0795	0.178
373.2872	0.1955
373.4949	0.1869
373.7026	0.2026
373.9103	0.202
374.118	0.1937
374.3256	0.1982
374.5333	0.2062
374.7409	0.1997
374.9485	0.2091
375.1561	0.203
375.3637	0.1879
375.5713	0.1939
375.7789	0.1864
375.9864	0.2088
376.194	0.1987
376.4015	0.203
376.609	0.2092
376.8165	0.2048
377.024	0.1976
377.2315	0.1991
377.4389	0.2038
377.6464	0.2006
377.8538	0.1965
378.0612	0.1911
378.2686	0.1967
378.476	0.2153
378.6834	0.2132
378.8908	0.218
379.0981	0.2235
379.3055	0.2092
379.5128	0.2187
379.7201	0.1966
379.9274	0.2056
380.1347	0.2036
380.342	0.2126
380.5492	0.2013
380.7565	0.2198
380.9637	0.202
381.1709	0.223
381.3781	0.2145
381.5853	0.2064
381.7925	0.2079
381.9997	0.2322
382.2068	0.2229
382.4139	0.2147
382.6211	0.2075
382.8282	0.2101
383.0353	0.1964
383.2424	0.2095
383.4494	0.2216
383.6565	0.2038
383.8635	0.2189
384.0706	0.2011
384.2776	0.2136
384.4846	0.1981
384.6916	0.1996
384.8986	0.2015
385.1055	0.2157
385.3125	0.2086
385.5194	0.1895
385.7263	0.2038
385.9333	0.1971
386.1402	0.2126
386.347	0.1958
386.5539	0.1925
386.7608	0.209
386.9676	0.1898
387.1744	0.1968
387.3813	0.1983
387.5881	0.2011
387.7948	0.2126
388.0016	0.1988
388.2084	0.2079
388.4151	0.1923
388.6219	0.212
388.8286	0.2002
389.0353	0.2127
389.242	0.2016
389.4487	0.184
389.6553	0.1826
389.862	0.1671
390.0686	0.1933
390.2753	0.2001
390.4819	0.1933
390.6885	0.1919
390.8951	0.1904
391.1016	0.1914
391.3082	0.1893
391.5147	0.1945
391.7213	0.2033
391.9278	0.1734
392.1343	0.18
392.3408	0.1842
392.5473	0.1742
392.7537	0.1641
392.9602	0.1845
393.1666	0.1942
393.373	0.1691
393.5794	0.1993
393.7858	0.1764
393.9922	0.1699
394.1986	0.2036
394.4049	0.19
394.6113	0.1792
394.8176	0.1714
395.0239	0.1845
395.2302	0.1703
395.4365	0.1823
395.6428	0.1612
395.8491	0.1634
396.0553	0.1676
396.2615	0.1585
396.4678	0.1576
396.674	0.1601
396.8802	0.1754
397.0863	0.1916
397.2925	0.1687
397.4987	0.159
397.7048	0.1728
397.9109	0.167
398.117	0.1581
398.3231	0.1618
398.5292	0.1635
398.7353	0.1807
398.9413	0.1621
399.1474	0.158
399.3534	0.1613
399.5594	0.1543
399.7654	0.1772
399.9714	0.1767
400.1774	0.1722
400.3833	0.154
400.5893	0.1611
400.7952	0.1515
401.0011	0.164
401.207	0.1712
401.4129	0.1656
401.6188	0.1771
401.8247	0.1623
402.0305	0.1578
402.2364	0.15
402.4422	0.1728
402.648	0.1781
402.8538	0.167
403.0596	0.1545
403.2654	0.1574
403.4711	0.1465
403.6768	0.1717
403.8826	0.1642
404.0883	0.1744
404.294	0.1849
404.4997	0.1729
404.7054	0.1677
404.911	0.1757
405.1167	0.1573
405.3223	0.1817
405.5279	0.1768
405.7335	0.1778
405.9391	0.1827
406.1447	0.1661
406.3502	0.1529
406.5558	0.1624
406.7613	0.166
406.9668	0.1609
407.1724	0.1594
407.3778	0.1572
407.5833	0.168
407.7888	0.1609
407.9942	0.1901
408.1997	0.1496
408.4051	0.1582
408.6105	0.1723
408.8159	0.157
409.0213	0.1426
409.2267	0.1662
409.432	0.1501
409.6374	0.1746
409.8427	0.1523
410.048	0.1549
410.2533	0.1499
410.4586	0.1653
410.6639	0.1384
410.8691	0.1482
411.0744	0.1457
411.2796	0.1389
411.4848	0.1549
411.69	0.143
411.8952	0.1674
412.1004	0.1578
412.3056	0.1744
412.5107	0.1561
412.7158	0.1709
412.921	0.1435
413.1261	0.1533
413.3312	0.1631
413.5362	0.1355
413.7413	0.1546
413.9464	0.1458
414.1514	0.1639
414.3564	0.1458
414.5614	0.1548
414.7664	0.1495
414.9714	0.1455
415.1764	0.1589
415.3813	0.1654
415.5863	0.1476
415.7912	0.1609
415.9961	0.1633
416.201	0.1464
416.4059	0.1515
416.6108	0.1414
416.8156	0.1676
417.0205	0.1499
417.2253	0.1384
417.4301	0.169
417.6349	0.1661
417.8397	0.1314
418.0445	0.1671
418.2492	0.1613
418.454	0.1376
418.6587	0.1413
418.8634	0.1489
419.0681	0.1512
419.2728	0.1409
419.4775	0.1464
419.6822	0.139
419.8868	0.1355
420.0915	0.1622
420.2961	0.1352
420.5007	0.1405
420.7053	0.1533
420.9099	0.1462
421.1144	0.1436
421.319	0.1212
421.5235	0.146
421.728	0.1384
421.9325	0.1485
422.137	0.1432
422.3415	0.1348
422.546	0.1288
422.7504	0.1474
422.9549	0.1353
423.1593	0.1492
423.3637	0.1456
423.5681	0.1485
423.7725	0.131
423.9769	0.1296
424.1812	0.1263
424.3856	0.1333
424.5899	0.1494
424.7942	0.125
424.9985	0.1146
425.2028	0.1331
425.4071	0.1429
425.6113	0.1088
425.8156	0.1404
426.0198	0.1223
426.224	0.1152
426.4282	0.1191
426.6324	0.1169
426.8366	0.1352
427.0407	0.1177
427.2449	0.1375
427.449	0.1191
427.6531	0.1037
427.8572	0.1243
428.0613	0.1148
428.2654	0.1071
428.4694	0.1091
428.6735	0.1003
428.8775	0.1457
429.0815	0.1218
429.2855	0.1105
429.4895	0.1228
429.6935	0.1208
429.8975	0.117
430.1014	0.1075
430.3053	0.0926
430.5093	0.0988
430.7132	0.1039
430.9171	0.0964
431.1209	0.1001
431.3248	0.11
431.5286	0.1071
431.7325	0.0943
431.9363	0.0921
432.1401	0.1143
432.3439	0.1015
432.5477	0.0823
432.7514	0.0747
432.9552	0.0844
433.1589	0.0954
433.3627	0.0869
433.5664	0.0948
433.7701	0.0788
433.9737	0.0837
434.1774	0.0856
434.3811	0.0914
434.5847	0.1004
434.7883	0.0793
434.9919	0.0793
435.1955	0.0756
435.3991	0.0838
435.6027	0.0907
435.8062	0.0776
436.0098	0.0742
436.2133	0.0872
436.4168	0.0717
436.6203	0.0563
436.8238	0.0731
437.0272	0.0627
437.2307	0.0839
437.4341	0.0716
437.6375	0.0763
437.841	0.0569
438.0443	0.0862
438.2477	0.068
438.4511	0.0659
438.6545	0.0653
438.8578	0.0687
439.0611	0.0617
439.2644	0.0588
439.4677	0.0564
439.671	0.0702
439.8743	0.0706
440.0775	0.0698
440.2808	0.0516
440.484	0.0475
440.6872	0.0483
440.8904	0.0555
441.0936	0.0743
441.2967	0.0673
441.4999	0.0594
441.703	0.0453
441.9062	0.0472
442.1093	0.0604
442.3124	0.0544
442.5155	0.0428
442.7185	0.0469
442.9216	0.0146
443.1246	0.0682
443.3276	0.0429
443.5307	0.0414
443.7337	0.0534
443.9366	0.0391
444.1396	0.0347
444.3426	0.0371
444.5455	0.0499
444.7484	0.0416
444.9513	0.0403
445.1542	0.0537
445.3571	0.0319
445.56	0.0447
445.7628	0.0219
445.9657	0.0336
446.1685	0.0438
446.3713	0.0315
446.5741	0.0358
446.7769	0.0182
446.9797	0.0181
447.1824	0.0335
447.3852	0.0161
447.5879	0.0339
447.7906	0.0425
447.9933	0.0346
448.196	0.0204
448.3986	0.024
448.6013	0.0149
448.8039	0.0107
449.0066	0.031
449.2092	0.0373
449.4118	0.0242
449.6143	0.0308
449.8169	0.0195
450.0195	0.015
450.222	-0.0014
450.4245	0.0092
450.627	0.0181
450.8295	0.032
451.032	0.0074
451.2345	0.0227
451.4369	0.0243
451.6394	0.0176
451.8418	-0.0071
452.0442	0.0098
452.2466	0.0339
452.449	-0.0061
452.6513	0.013
452.8537	-0.0007
453.056	0.0054
453.2583	0.0121
453.4607	0.0086
453.663	0.0149
453.8652	0.0284
454.0675	0.0061
454.2697	0.0199
454.472	-0.0124
454.6742	0.0178
454.8764	0.011
455.0786	0.0057
455.2808	0.0169
455.4829	0.011
455.6851	0.0227
455.8872	0.0143
456.0893	0.0199
456.2915	-0.0143
456.4935	0.0092
456.6956	0.0015
456.8977	0.0144
457.0997	0.0016
457.3018	0.0012
457.5038	0.0172
457.7058	0.0252
457.9078	-0.002
458.1098	0.0131
458.3117	-0.0003
458.5137	0.0186
458.7156	0.0121
458.9175	-0.0063
459.1194	0.0085
459.3213	0.0057
459.5232	0.0087
459.725	-0.0061
459.9269	0.0071
460.1287	-0.0017
460.3305	-0.0001
460.5323	0.0091
460.7341	0.0006
460.9359	0.0016
461.1376	-0.0011
461.3394	0.0027
461.5411	0.0184
461.7428	0.009
461.9445	0.0128
462.1462	0.0163
462.3479	0.0093
462.5495	-0.0003
462.7512	0.0116
462.9528	-0.0024
463.1544	-0.0103
463.356	-0.0065
463.5576	0.005
463.7592	-0.0073
463.9607	0.0071
464.1623	0.0147
464.3638	0.0133
464.5653	0.0046
464.7668	0.002
464.9683	0.0122
465.1697	0.0179
465.3712	-0.0126
465.5726	-0.0096
465.7741	-0.0076
465.9755	-0.0103
466.1769	0.0171
466.3782	0
466.5796	-0.006
466.7809	0.0148
466.9823	-0.0085
467.1836	-0.0022
467.3849	-0.0099
467.5862	0.0083
467.7875	0.0015
467.9887	0.0209
468.19	-0.0029
468.3912	0.0042
468.5924	-0.0053
468.7936	-0.0047
468.9948	0.0008
469.196	0.0013
469.3972	-0.0171
469.5983	0.0065
469.7994	-0.0099
470.0006	-0.0094
470.2017	-0.0165
470.4027	0.0096
470.6038	0.0059
470.8049	-0.0187
471.0059	-0.0036
471.2069	-0.0243
471.408	0.0094
471.6089	-0.0032
471.8099	-0.0033
472.0109	0.0002
472.2119	-0.0141
472.4128	-0.0161
472.6137	0.0091
472.8146	-0.0181
473.0155	-0.0062
473.2164	-0.0047
473.4173	0.0028
473.6181	-0.0035
473.819	0.0009
474.0198	-0.0119
474.2206	-0.0101
474.4214	-0.011
474.6222	-0.003
474.8229	-0.0093
475.0237	-0.0193
475.2244	-0.0118
475.4251	0
475.6258	0.0071
475.8265	0.0057
476.0272	-0.002
476.2278	0.0024
476.4285	-0.012
476.6291	0.006
476.8297	-0.0047
477.0303	-0.0055
477.2309	-0.003
477.4315	-0.0082
477.632	0.0047
477.8326	-0.0057
478.0331	0.0049
478.2336	0.0004
478.4341	-0.0033
478.6346	-0.0027
478.8351	-0.0113
479.0355	-0.0067
479.236	-0.009
479.4364	-0.0077
479.6368	-0.0045
479.8372	-0.0128
480.0376	0.004
480.2379	-0.0135
480.4383	-0.0102
480.6386	-0.0047
480.8389	-0.004
481.0392	-0.0087
481.2395	-0.0122
481.4398	0.0022
481.6401	-0.0042
481.8403	0.0019
482.0405	-0.0124
482.2408	-0.0059
482.441	0.0115
482.6411	-0.007
482.8413	-0.0019
483.0415	-0.0119
483.2416	-0.0028
483.4417	0.0002
483.6419	0.0008
483.8419	-0.0015
484.042	0.0118
484.2421	0.0025
484.4422	0.0045
484.6422	-0.0039
484.8422	-0.0167
485.0422	-0.0109
485.2422	-0.0091
485.4422	-0.0099
485.6422	-0.008
485.8421	-0.0086
486.042	-0.0041
486.242	-0.0093
486.4419	-0.0222
486.6417	-0.0135
486.8416	-0.0083
487.0415	-0.0075
487.2413	-0.011
487.4411	-0.0123
487.641	-0.0077
487.8408	0.0016
488.0405	-0.0011
488.2403	-0.0155
488.4401	0.0062
488.6398	-0.0014
488.8395	-0.0113
489.0392	0.0096
489.2389	-0.0001
489.4386	-0.0026
489.6383	-0.0031
489.8379	0.0068
490.0376	0.0005
490.2372	-0.0077
490.4368	-0.011
490.6364	-0.009
490.836	-0.0027
491.0355	-0.0005
491.2351	-0.0125
491.4346	-0.0162
491.6341	-0.0046
491.8336	-0.0021
492.0331	-0.0036
492.2326	-0.0131
492.432	-0.0091
492.6315	-0.0034
492.8309	-0.0077
493.0303	-0.0058
493.2297	-0.0084
493.4291	-0.0127
493.6284	-0.0109
493.8278	0.0059
494.0271	0.0088
494.2264	0.0071
494.4257	-0.0119
494.625	-0.0091
494.8243	-0.0196
495.0236	-0.0103
495.2228	-0.0172
495.422	0.0127
495.6213	-0.0023
495.8205	-0.0076
496.0196	-0.0076
496.2188	0
496.418	-0.0094
496.6171	-0.0109
496.8162	-0.0031
497.0153	0.0031
497.2144	-0.0142
497.4135	-0.0024
497.6126	-0.0172
497.8116	-0.0045
498.0107	-0.002
498.2097	-0.0022
498.4087	-0.0128
498.6077	0.0074
498.8067	-0.0082
499.0056	0.0038
499.2046	0.0027
499.4035	-0.0244
499.6024	-0.001
499.8013	0.0007
500.0002	-0.0041
500.199	-0.006
500.3979	-0.0047
500.5967	-0.0202
500.7956	0.0002
500.9944	-0.0065
501.1932	-0.0019
501.3919	-0.0057
501.5907	-0.0176
501.7895	-0.0085
501.9882	-0.0112
502.1869	-0.0105
502.3856	-0.0193
502.5843	-0.0138
502.783	-0.0108
502.9816	-0.0023
503.1803	-0.0121
503.3789	-0.0127
503.5775	0.0024
503.7761	-0.0129
503.9747	-0.0069
504.1732	-0.0146
504.3718	0.0037
504.5703	-0.0099
504.7689	-0.01
504.9674	-0.0106
505.1658	-0.0157
505.3643	0.0057
505.5628	-0.0006
505.7612	-0.0073
505.9597	-0.0028
506.1581	-0.0051
506.3565	0.0112
506.5549	-0.0075
506.7532	-0.0087
506.9516	-0.0101
507.1499	-0.0019
507.3482	-0.0141
507.5465	-0.0083
507.7448	-0.0041
507.9431	0.0054
508.1414	-0.0031
508.3396	-0.0097
508.5379	-0.0051
508.7361	-0.0097
508.9343	-0.002
509.1325	-0.0005
509.3306	-0.0075
509.5288	-0.0063
509.7269	-0.0059
509.9251	-0.0024
510.1232	-0.012
510.3213	0.0008
510.5193	0.0029
510.7174	-0.0112
510.9154	-0.0089
511.1135	-0.0046
511.3115	-0.0133
511.5095	0.0015
511.7075	-0.005
511.9055	-0.0085
512.1034	0.0036
512.3014	-0.0048
512.4993	-0.0015
512.6972	-0.0134
512.8951	-0.0072
513.093	0.0014
513.2908	-0.004
513.4887	-0.0006
513.6865	-0.0089
513.8844	-0.0017
514.0822	-0.0064
514.2799	-0.011
514.4777	-0.0145
514.6755	-0.0006
514.8732	-0.0169
515.0709	-0.0092
515.2687	-0.004
515.4664	-0.0033
515.664	-0.0054
515.8617	-0.0015
516.0594	-0.0145
516.257	-0.0002
516.4546	-0.0167
516.6522	0.0102
516.8498	-0.0048
517.0474	-0.0006
517.2449	0.0058
517.4425	-0.0115
517.64	-0.0145
517.8375	-0.0013
518.035	0.0031
518.2325	-0.0077
518.43	-0.008
518.6274	-0.0125
518.8249	-0.0231
519.0223	-0.003
519.2197	-0.0052
519.4171	-0.0155
519.6145	-0.0126
519.8118	0.0044
520.0092	-0.0066
520.2065	-0.0131
520.4038	-0.0216
520.6011	0.0064
520.7984	-0.0101
520.9956	-0.0121
521.1929	-0.0054
521.3901	0.0008
521.5874	0.0002
521.7846	-0.0022
521.9818	-0.0086
522.1789	-0.0046
522.3761	-0.001
522.5732	-0.0059
522.7704	-0.0037
522.9675	-0.0016
523.1646	-0.0078
523.3617	-0.0019
523.5587	-0.008
523.7558	0.0034
523.9528	-0.0133
524.1498	0.0042
524.3468	-0.0072
524.5438	-0.0162
524.7408	-0.0111
524.9378	-0.0006
525.1347	-0.0056
525.3316	-0.0067
525.5285	-0.0109
525.7254	-0.0114
525.9223	-0.0008
526.1192	-0.0027
526.316	-0.0097
526.5129	0.0014
526.7097	-0.0016
526.9065	-0.0037
527.1033	-0.0084
527.3	0.0088
527.4968	-0.0027
527.6935	0.0041
527.8903	-0.0097
528.087	-0.006
528.2837	-0.0023
528.4804	-0.0066
528.677	-0.0079
528.8737	0.0025
529.0703	-0.0076
529.2669	-0.0053
529.4635	-0.0102
529.6601	0.0011
529.8567	-0.0032
530.0532	-0.0091
530.2498	0.0007
530.4463	0.004
530.6428	-0.0085
530.8393	0.005
531.0358	0.0042
531.2322	-0.0059
531.4287	-0.0036
531.6251	-0.0092
531.8215	-0.0003
532.0179	-0.0021
532.2143	0.0036
532.4107	-0.0007
532.607	0.0018
532.8034	-0.0055
532.9997	-0.0002
533.196	0.0059
533.3923	-0.0062
533.5886	-0.0053
533.7848	0.0039
533.9811	-0.0051
534.1773	-0.0001
534.3735	0.0053
534.5697	0.0016
534.7659	-0.0026
534.9621	-0.0034
535.1582	-0.0218
535.3544	0.0036
535.5505	-0.0091
535.7466	-0.0084
535.9427	0.0012
536.1387	-0.0013
536.3348	-0.0022
536.5308	0.0014
536.7269	-0.0081
536.9229	0.0012
537.1189	-0.0044
537.3148	0.0009
537.5108	-0.0071
537.7068	-0.0024
537.9027	0.0074
538.0986	-0.007
538.2945	-0.0057
538.4904	-0.0064
538.6863	-0.0084
538.8821	-0.0093
539.078	-0.0101
539.2738	-0.0011
539.4696	-0.0003
539.6654	0.0142
539.8611	0.0086
540.0569	-0.0067
540.2526	-0.006
540.4484	0.0002
540.6441	0.0054
540.8398	0.0002
541.0355	0.0005
541.2311	-0.001
541.4268	-0.0092
541.6224	0.0094
541.818	0.0046
542.0136	-0.0065
542.2092	0.0026
542.4048	-0.0034
542.6003	0.001
542.7959	-0.0027
542.9914	-0.004
543.1869	-0.002
543.3824	0.0003
543.5779	-0.0084
543.7734	0.0002
543.9688	-0.0096
544.1642	0.0032
544.3596	-0.0002
544.555	0.0058
544.7504	0.0026
544.9458	-0.0036
545.1411	0.0006
545.3365	-0.0104
545.5318	-0.014
545.7271	-0.0091
545.9224	0.0063
546.1177	0.0011
546.3129	0.0021
546.5081	-0.008
546.7034	-0.0056
546.8986	-0.0033
547.0938	-0.0067
547.289	-0.0013
547.4841	-0.0081
547.6793	0.0064
547.8744	-0.0081
548.0695	-0.0019
548.2646	-0.0042
548.4597	0.0034
548.6548	-0.0016
548.8498	-0.0025
549.0448	0.0037
549.2399	-0.0079
549.4349	0.0066
549.6298	-0.002
549.8248	-0.005
550.0198	0.0046
550.2147	-0.0119
550.4096	-0.0049
550.6045	-0.0001
550.7994	-0.0027
550.9943	0.0031
551.1892	0.0036
551.384	0.0035
551.5788	-0.003
551.7737	-0.0015
551.9685	-0.0019
552.1632	0.0023
552.358	-0.01
552.5528	-0.0022
552.7475	-0.0029
552.9422	-0.0067
553.1369	0.0051
553.3316	0.003
553.5263	-0.0136
553.7209	0.0084
553.9156	-0.0078
554.1102	-0.0031
554.3048	-0.0149
554.4994	0.0106
554.694	-0.006
554.8885	-0.0041
555.0831	-0.0067
555.2776	-0.0052
555.4721	0.0001
555.6666	0.0002
555.8611	0.01
556.0555	-0.0014
556.25	-0.0038
556.4444	-0.0102
556.6388	0.0023
556.8332	-0.001
557.0276	-0.0031
557.222	0.0022
557.4163	0.0035
557.6107	-0.005
557.805	0.0131
557.9993	-0.0074
558.1936	-0.0015
558.3879	-0.0022
558.5821	0.0067
558.7764	-0.005
558.9706	0.0033
559.1648	0.0018
559.359	-0.0089
559.5532	-0.0113
559.7473	-0.0053
559.9415	0.0044
560.1356	-0.0064
560.3297	-0.0105
560.5238	-0.011
560.7179	-0.0107
560.9119	-0.008
561.106	-0.0057
561.3	-0.005
561.494	-0.0024
561.688	-0.0069
561.882	-0.0124
562.076	-0.0059
562.2699	0.004
562.4639	-0.005
562.6578	-0.0023
562.8517	0.0011
563.0456	0.0029
563.2395	0.0005
563.4333	-0.0035
563.6272	0.0034
563.821	-0.0077
564.0148	0.0058
564.2086	-0.0086
564.4024	-0.0014
564.5961	-0.0038
564.7899	0.0043
564.9836	-0.0054
565.1773	0.0021
565.371	0.0054
565.5647	0.0038
565.7584	-0.0039
565.952	-0.0076
566.1456	-0.0035
566.3393	-0.0066
566.5329	-0.0098
566.7264	-0.0014
566.92	-0.0088
567.1136	-0.0029
567.3071	-0.0117
567.5006	0.0053
567.6941	-0.0001
567.8876	-0.0087
568.0811	-0.0035
568.2745	-0.0017
568.468	0.0021
568.6614	-0.0034
568.8548	-0.0022
569.0482	0.003
569.2416	-0.0047
569.4349	0.0012
569.6283	0.0041
569.8216	-0.0015
570.0149	-0.0083
570.2082	0.0086
570.4015	-0
570.5947	0.0031
570.788	0.0029
570.9812	0.0037
571.1744	-0.0037
571.3676	-0.0095
571.5608	-0.0023
571.754	0.0026
571.9471	-0.0012
572.1402	0.0036
572.3333	-0.0018
572.5264	-0.0052
572.7195	-0.0015
572.9126	-0.0086
573.1057	-0.0015
573.2987	-0.0042
573.4917	0.0042
573.6847	-0.0171
573.8777	0.0028
574.0707	0.0049
574.2636	-0.0063
574.4566	-0.0019
574.6495	0.003
574.8424	-0.0041
575.0353	0.0032
575.2281	0.0057
575.421	0.0004
575.6138	-0.0029
575.8067	-0.0064
575.9995	0.0033
576.1923	0.0038
576.385	0.0002
576.5778	-0.0035
576.7706	-0.0025
576.9633	-0.0004
577.156	0.0018
577.3487	-0.0014
577.5414	-0.0017
577.734	-0.0014
577.9267	0.0025
578.1193	-0.0061
578.3119	-0.0067
578.5045	-0.0008
578.6971	0.0029
578.8897	0.004
579.0822	0.0029
579.2747	0.0008
579.4673	-0.0068
579.6598	-0.0066
579.8522	0.0002
580.0447	-0.0047
580.2372	-0.0034
580.4296	0.002
580.622	0.0022
580.8144	-0.0038
581.0068	-0.0039
581.1992	-0.0132
581.3915	-0.0077
581.5839	-0.0069
581.7762	-0.0101
581.9685	-0.0026
582.1608	0.0038
582.353	-0.0046
582.5453	-0.0046
582.7375	-0.0086
582.9298	0.0026
583.122	0.001
583.3142	0.0063
583.5063	0.0023
583.6985	0.0012
583.8906	-0.0025
584.0827	-0.0089
584.2749	-0.0018
584.4669	-0.0008
584.659	-0.0043
584.8511	-0.0025
585.0431	-0.0053
585.2352	0.0017
585.4272	-0.0067
585.6192	-0.0043
585.8111	-0.0046
586.0031	-0.0029
586.195	-0.0035
586.387	0.002
586.5789	0.0025
586.7708	-0.0033
586.9627	-0.0028
587.1545	-0.0076
587.3464	0.0001
587.5382	0.0002
587.73	0.0014
587.9218	0.0008
588.1136	-0.0001
588.3053	0.0033
588.4971	-0.0083
588.6888	-0.0115
588.8805	-0.01
589.0722	0.0026
589.2639	0.0002
589.4556	-0.0025
589.6472	0.0014
589.8389	-0.0074
590.0305	-0.0088
590.2221	0.006
590.4137	-0.0135
590.6052	0.0119
590.7968	0.0014
590.9883	0.0013
591.1798	-0.003
591.3713	-0.001
591.5628	-0.0015
591.7543	0.0065
591.9458	-0.0051
592.1372	0.0083
592.3286	0.0018
592.52	-0.0001
592.7114	-0.0061
592.9028	-0.0031
593.0941	-0.007
593.2855	-0.0048
593.4768	-0.0088
593.6681	-0.0084
593.8594	-0.0033
594.0506	-0.0008
594.2419	0.0043
594.4331	-0.0047
594.6244	-0
594.8156	-0.0052
595.0067	-0.0006
595.1979	0.001
595.3891	-0.001
595.5802	-0.0037
595.7713	-0.003
595.9624	-0.0058
596.1535	0.0025
596.3446	0.0022
596.5357	0.0018
596.7267	0.012
596.9177	-0.0017
597.1087	-0.0071
597.2997	-0.0078
597.4907	0.0067
597.6817	0.0025
597.8726	0.003
598.0635	-0.0049
598.2544	-0.001
598.4453	-0.0009
598.6362	-0.0029
598.827	0.003
599.0179	0.0073
599.2087	0.0025
599.3995	-0.0012
599.5903	-0.0009
599.7811	0.0079
599.9718	0.0016
600.1626	-0.0078
600.3533	-0.0015
600.544	0.0022
600.7347	-0.0048
600.9254	-0.0047
601.116	-0.0066
601.3067	0.0012
601.4973	0.0036
601.6879	0.0044
601.8785	-0.0045
602.0691	0.0008
602.2596	0.0015
602.4502	0.0047
602.6407	0.0027
602.8312	0.0017
603.0217	-0.0161
603.2122	-0.0028
603.4027	0.0036
603.5931	-0.0017
603.7835	-0.0028
603.9739	0.0017
604.1643	-0.0058
604.3547	-0.0096
604.5451	0.0038
604.7354	-0.0032
604.9257	0.0014
605.116	0.0009
605.3063	0.0004
605.4966	-0.0042
605.6869	0.0024
605.8771	0.0072
606.0673	0.0086
606.2575	0.0047
606.4477	0.0055
606.6379	0.0014
606.8281	-0.0031
607.0182	-0.001
607.2083	0.0051
607.3985	-0.0081
607.5885	-0.0016
607.7786	0.0027
607.9687	-0.0053
608.1587	-0.0023
608.3488	0.0054
608.5388	-0.0005
608.7288	-0.0055
608.9187	-0.0053
609.1087	-0.0026
609.2986	-0.0017
609.4886	-0.0003
609.6785	-0.0016
609.8684	-0.0011
610.0582	0.0005
610.2481	0.004
610.4379	-0.0009
610.6278	-0.0039
610.8176	-0.0047
611.0074	-0.0068
611.1971	-0.0109
611.3869	-0.0008
611.5766	-0.0106
611.7664	0.0073
611.9561	0.0003
612.1458	-0.0029
612.3354	-0.0047
612.5251	0.0009
612.7147	0.0011
612.9044	0.002
613.094	-0.0058
613.2836	-0.0034
613.4731	0.0043
613.6627	-0.0067
613.8522	0.0073
614.0417	0.0073
614.2313	-0.0014
614.4207	-0.002
614.6102	-0.0025
614.7997	-0.0072
614.9891	-0.0066
615.1785	0.0019
615.3679	-0.0081
615.5573	0.0105
615.7467	-0.0016
615.9361	-0.0061
616.1254	-0.0019
616.3147	0.008
616.504	-0.0009
616.6933	0.0012
616.8826	0.0005
617.0718	-0.0023
617.2611	0.0033
617.4503	-0.0023
617.6395	-0.0007
617.8287	-0.0043
618.0179	-0.0048
618.207	0.0131
618.3961	0.0022
618.5853	-0.0033
618.7744	0.0073
618.9634	0.0077
619.1525	0.0054
619.3416	0.0003
619.5306	-0.0016
619.7196	0.001
619.9086	-0.0049
620.0976	0.0041
620.2866	-0.0042
620.4755	0.0085
620.6645	0.0069
620.8534	0.002
621.0423	0.0056
621.2312	0.0072
621.42	0.0041
621.6089	0.0008
621.7977	0.0043
621.9865	-0.0049
622.1753	0.003
622.3641	-0.0064
622.5529	0.0077
622.7416	0.0064
622.9303	-0.0026
623.1191	0.0006
623.3078	-0.0072
623.4964	-0.0041
623.6851	-0.0035
623.8737	-0.0041
624.0624	-0.0018
624.251	-0.0039
624.4396	0.0041
624.6282	-0.0059
624.8167	-0.0037
625.0053	-0.0023
625.1938	-0.0001
625.3823	0.0063
625.5708	-0.001
625.7593	-0.0049
625.9477	-0.0129
626.1362	-0.0112
626.3246	0.0054
626.513	-0.0012
626.7014	0.0041
626.8898	-0.0042
627.0781	-0.0003
627.2665	-0.0032
627.4548	0.002
627.6431	-0.0008
627.8314	0.0016
628.0197	0.0037
628.2079	-0.0077
628.3962	-0.0019
628.5844	0.0013
628.7726	0.0009
628.9608	0.007
629.1489	0.0026
629.3371	0.013
629.5252	-0.0026
629.7134	0.006
629.9015	-0.0018
630.0895	0.0026
630.2776	0.0029
630.4657	0.0067
630.6537	0.001
630.8417	-0.0085
631.0297	-0.0068
631.2177	-0.0021
631.4057	-0.0058
631.5936	0.0002
631.7815	-0.0035
631.9695	0.0004
632.1574	0.005
632.3452	0.0108
632.5331	-0.002
632.7209	-0.0057
632.9088	0.0111
633.0966	0.0059
633.2844	-0.0057
633.4722	0
633.6599	0.0039
633.8477	-0.002
634.0354	0.0039
634.2231	-0.0015
634.4108	-0.0006
634.5985	0.0038
634.7861	0.0043
634.9738	-0.0047
635.1614	-0.0021
635.349	-0.0033
635.5366	-0.0003
635.7242	0.0053
635.9117	0.0077
636.0993	-0.0043
636.2868	0.0016
636.4743	-0.0014
636.6618	0.0082
636.8492	0.0016
637.0367	-0.0012
637.2241	-0.0032
637.4115	-0.0009
637.5989	-0.0036
637.7863	-0.0004
637.9737	-0.0006
638.161	-0.0048
638.3484	-0.0028
638.5357	0.0054
638.723	-0.0011
638.9103	0.0048
639.0975	0.0027
639.2848	0.0105
639.472	0.0005
639.6592	0.0032
639.8464	0.0056
640.0336	0.0058
640.2208	0.0005
640.4079	-0.002
640.595	0.0042
640.7821	0.0045
640.9692	-0.0001
641.1563	0.007
641.3434	-0.0027
641.5304	0.0054
641.7174	0.0068
641.9044	0.0023
642.0914	0.0059
642.2784	0.0092
642.4653	0.0136
642.6523	0.0092
642.8392	0.0043
643.0261	0.0064
643.213	0.001
643.3999	-0.0002
643.5867	-0.0036
643.7735	0
643.9604	0.0005
644.1472	0.0033
644.3339	0.0056
644.5207	0.003
644.7075	-0.005
644.8942	0.002
645.0809	0.0016
645.2676	0.0016
645.4543	0.0049
645.6409	0.003
645.8276	0.0028
646.0142	0.0069
646.2008	-0.0069
646.3874	0.0006
646.574	0.0003
646.7605	-0.0048
646.9471	-0.001
647.1336	0.0006
647.3201	0.0055
647.5066	0.0005
647.6931	0.01
647.8795	-0.0008
648.0659	-0.0007
648.2524	0.001
648.4388	-0.0035
648.6252	0.0027
648.8115	0.0062
648.9979	-0.0022
649.1842	0.0055
649.3705	-0.0026
649.5568	0.0071
649.7431	0.0045
649.9294	-0.0026
650.1156	-0.0001
650.3018	-0.0041
650.488	0.0054
650.6742	0.005
650.8604	-0.0012
651.0466	-0.003
651.2327	-0.0037
651.4188	0.0057
651.6049	-0.0012
651.791	-0.0045
651.9771	-0.0015
652.1632	-0.0027
652.3492	0.0006
652.5352	-0.0029
652.7212	-0.0036
652.9072	0.0022
653.0932	0.0009
653.2791	-0.0062
653.465	-0.0012
653.651	0.0048
653.8369	-0.0078
654.0227	0.0053
654.2086	0.0132
654.3944	0.0059
654.5803	-0.0029
654.7661	0.0006
654.9519	-0.0005
655.1377	-0.0077
655.3234	0.0004
655.5092	-0.006
655.6949	-0.0043
655.8806	-0.004
656.0663	-0.0023
656.2519	-0.0028
656.4376	-0.0012
656.6232	0.0042
656.8088	0.003
656.9945	0.0015
657.18	0.0045
657.3656	-0.0063
657.5511	-0.0013
657.7367	-0.003
657.9222	-0.001
658.1077	-0.0016
658.2932	0.0068
658.4786	-0.0032
658.6641	-0.0097
658.8495	-0.0002
659.0349	-0.001
659.2203	0.0043
659.4057	0.0037
659.591	0.0051
659.7764	0.0012
659.9617	0.0038
660.147	0.0046
660.3323	0.0071
660.5176	0.0069
660.7028	0.003
660.888	0.0013
661.0733	0
661.2585	-0.0059
661.4436	0.0012
661.6288	-0.0023
661.8139	0.0025
661.9991	0.0094
662.1842	-0.0008
662.3693	0.0039
662.5544	-0.0063
662.7394	0.0067
662.9245	-0.0035
663.1095	-0.0011
663.2945	0.0008
663.4795	-0.0011
663.6644	-0.0007
663.8494	0.0015
664.0343	0.0073
664.2193	-0.0098
664.4042	-0.0028
664.589	-0.0099
664.7739	-0.0018
664.9587	-0.0088
665.1436	-0.0038
665.3284	-0.0059
665.5132	-0.0082
665.698	-0.0038
665.8827	-0.0017
666.0675	-0.0021
666.2522	-0.0045
666.4369	0.0044
666.6216	-0.0047
666.8063	0.0033
666.9909	0.0029
667.1756	-0.0059
667.3602	0.0003
667.5448	0.0011
667.7294	0.0058
667.9139	0.0047
668.0985	0.0137
668.283	0.0003
668.4675	-0.0012
668.652	-0.0016
668.8365	-0.0081
669.0209	0.0009
669.2054	0.0111
669.3898	0.0018
669.5742	-0.0034
669.7586	0.0017
669.943	0.0081
670.1273	0.0045
670.3117	0.0031
670.496	0.0051
670.6803	0.0068
670.8646	-0.0034
671.0488	-0.0026
671.2331	0.0095
671.4173	0.0065
671.6015	0.0011
671.7857	0.002
671.9699	0.0016
672.1541	0.0041
672.3382	0.0036
672.5223	0.0055
672.7064	0.0022
672.8905	0.0097
673.0746	-0.0018
673.2587	-0.0034
673.4427	0.0015
673.6267	0.0067
673.8107	0.0094
673.9947	0.0033
674.1787	0.0046
674.3626	-0.0037
674.5465	-0.0013
674.7304	0.0085
674.9143	0.0067
675.0982	0.003
675.2821	-0.007
675.4659	0.0047
675.6497	0.0025
675.8335	-0.0041
676.0173	0.0031
676.2011	0.0026
676.3849	-0.0038
676.5686	-0.0088
676.7523	0.0033
676.936	-0.0022
677.1197	0.0048
677.3034	-0.0073
677.487	0.0044
677.6706	0.0073
677.8542	0.0051
678.0378	-0.0016
678.2214	-0.005
678.405	-0.0004
678.5885	-0.0074
678.772	0.0043
678.9555	0.009
679.139	0.0023
679.3225	0.0099
679.5059	-0.0007
679.6894	-0.0007
679.8728	0.0016
680.0562	-0.0116
680.2395	-0.0024
680.4229	-0.0008
680.6062	0.0073
680.7896	0.0032
680.9729	-0.0095
681.1562	-0.005
681.3394	-0.0014
681.5227	-0.0049
681.7059	0.0007
681.8891	0.0033
682.0723	0.0085
682.2555	0.0002
682.4387	-0.009
682.6218	0.0023
682.805	0.0007
682.9881	0.0058
683.1712	-0.0015
683.3542	-0.0021
683.5373	-0.0012
683.7203	-0.0066
683.9034	-0.0032
684.0864	-0.016
684.2694	-0.0063
684.4523	-0.0038
684.6353	-0.0007
684.8182	-0.0075
685.0011	-0.0045
685.184	0.0039
685.3669	0.0017
685.5498	0.0026
685.7326	0.0027
685.9154	-0.0047
686.0982	0.0091
686.281	0.0049
686.4638	-0.0031
686.6465	0.0003
686.8293	-0.0079
687.012	-0.0007
687.1947	-0.0016
687.3774	-0.0014
687.56	-0.0078
687.7427	0.0075
687.9253	-0.0104
688.1079	-0.0037
688.2905	0.0049
688.4731	-0.0065
688.6556	-0.0053
688.8382	-0.0075
689.0207	0.0033
689.2032	-0.0085
689.3857	-0.0081
689.5681	0.0021
689.7506	-0.0142
689.933	-0.0038
690.1154	-0.0052
690.2978	0.0011
690.4802	-0.0064
690.6626	-0.0104
690.8449	-0.0074
691.0272	0.0007
691.2095	-0.0107
691.3918	-0.0008
691.5741	-0.0027
691.7563	0.0026
691.9386	-0.0022
692.1208	-0.0028
692.303	-0.0011
692.4852	-0.0055
692.6673	0.0058
692.8495	-0.0064
693.0316	0.0062
693.2137	-0.0009
693.3958	0.0022
693.5778	0.0003
693.7599	-0.0015
693.9419	-0.0011
694.1239	-0.0026
694.3059	0.0006
694.4879	0.0035
694.6699	0.011
694.8518	-0.0036
695.0337	-0.0014
695.2157	0.0091
695.3975	0.0002
695.5794	0.003
695.7613	0.0027
695.9431	-0.0009
696.1249	0.0019
696.3067	0.0034
696.4885	-0.0015
696.6703	-0.0137
696.852	0.0024
697.0337	0.0031
697.2154	-0.0007
697.3971	0.0083
697.5788	0.0034
697.7605	0.002
697.9421	0.0119
698.1237	-0.0024
698.3053	-0.0031
698.4869	-0.0017
698.6685	-0.0022
698.85	-0.0027
699.0315	0.004
699.213	-0.0093
699.3945	-0.0034
699.576	0.0051
699.7575	0.0026
699.9389	0.0036
700.1203	-0.0003
700.3017	-0.0078
700.4831	-0.0126
700.6645	-0.0078
700.8458	-0.001
701.0271	-0.0016
701.2084	0.0023
701.3897	-0.001
701.571	0.0061
701.7523	0.0019
701.9335	-0.0029
702.1147	-0.0024
702.2959	0.0025
702.4771	-0.0004
702.6583	0.0034
702.8394	-0.0094
703.0205	0.0018
703.2016	-0.0063
703.3827	0.0012
703.5638	0.013
703.7449	0.0002
703.9259	0.0124
704.1069	-0.0039
704.2879	0.0052
704.4689	0.0042
704.6499	0.0051
704.8308	0.0025
705.0117	-0.0047
705.1927	0.0047
705.3735	-0.0005
705.5544	-0.006
705.7353	-0.0013
705.9161	-0.004
706.0969	-0.0068
706.2777	-0.009
706.4585	-0.0068
706.6393	0.0008
706.82	-0.0011
707.0007	-0.0007
707.1815	0.0019
707.3621	0.0039
707.5428	-0.001
707.7235	0.0017
707.9041	0.0049
708.0847	-0.0143
708.2653	-0.0093
708.4459	-0.0099
708.6265	0.0029
708.807	0.005
708.9875	0.0007
709.168	-0.0078
709.3485	-0.0093
709.529	-0.0016
709.7095	-0.0107
709.8899	-0.0038
710.0703	-0.0078
710.2507	0.0041
710.4311	-0.0043
710.6115	-0.0046
710.7918	-0.0057
710.9721	0.0017
711.1524	-0.0077
711.3327	0.0001
711.513	0.0046
711.6932	0.0064
711.8735	0.0115
712.0537	0.0078
712.2339	-0.0017
712.4141	-0.0028
712.5942	-0.0029
712.7744	-0.0025
712.9545	-0.0033
713.1346	0.0012
713.3147	-0.0035
713.4947	-0.0095
713.6748	0.0065
713.8548	-0.0082
714.0348	-0.0053
714.2148	-0.0031
714.3948	0.005
714.5748	-0.0089
714.7547	-0.0057
714.9346	0.005
715.1145	-0.0013
715.2944	-0.0071
715.4743	-0.0006
715.6541	-0.0034
715.834	-0.0044
716.0138	-0.0117
716.1936	-0.016
716.3733	-0.0097
716.5531	0.0028
716.7328	-0.0041
716.9126	-0.0077
717.0923	0.0055
717.2719	0.0001
717.4516	0.0048
717.6312	0.007
717.8109	-0.0018
717.9905	-0.0022
718.1701	-0.0013
718.3496	-0.0097
718.5292	0.0016
718.7087	-0.0039
718.8882	-0.0073
719.0677	0.0103
719.2472	-0.0059
719.4267	-0.0009
719.6061	0.0015
719.7856	0.0085
719.965	0.0096
720.1443	-0.0016
720.3237	0.0099
720.5031	0.0084
720.6824	0.0041
720.8617	-0.0107
721.041	0.0018
721.2203	0.0045
721.3995	-0.0073
721.5788	-0.0038
721.758	0.0001
721.9372	-0.0028
722.1164	-0.0018
722.2956	-0.0074
722.4747	-0.0034
722.6538	-0.0003
722.8329	0.0103
723.012	0.0021
723.1911	-0.0054
723.3702	-0.0022
723.5492	0.0079
723.7282	-0.0047
723.9072	-0.0022
724.0862	-0.0073
724.2652	-0.005
724.4441	-0.0038
724.623	-0.0003
724.8019	-0.0129
724.9808	-0.0038
725.1597	-0.0085
725.3385	-0.0021
725.5174	-0.003
725.6962	0.0079
725.875	0.0019
726.0538	0.0073
726.2325	0.0046
726.4112	0.0076
726.59	0
726.7687	-0.0026
726.9474	0.0091
727.126	0.0018
727.3047	-0.0015
727.4833	-0.0028
727.6619	-0.0045
727.8405	-0.0001
728.0191	0.0004
728.1976	0.003
728.3762	0.005
728.5547	-0.0001
728.7332	-0.0081
728.9116	-0.0001
729.0901	0.002
729.2686	-0.0097
729.447	0.0048
729.6254	-0.0045
729.8038	-0.0017
729.9821	-0.0114
730.1605	-0.0008
730.3388	-0.0012
730.5171	-0.0016
730.6954	-0.0036
730.8737	0.0022
731.0519	0.0015
731.2302	0.0013
731.4084	0.0063
731.5866	-0.002
731.7648	-0.0096
731.9429	-0.0101
732.1211	-0.014
732.2992	-0.0037
732.4773	-0.017
732.6554	-0.0039
732.8335	-0.0058
733.0115	0.0002
733.1896	0.006
733.3676	-0.0087
733.5456	-0.0003
733.7235	0.0022
733.9015	-0.0026
734.0794	0.0017
734.2574	-0.0062
734.4353	0.0012
734.6131	0.0003
734.791	0.0002
734.9689	-0.0036
735.1467	-0.001
735.3245	-0.0166
735.5023	-0.0063
735.68	-0.0045
735.8578	0.0063
736.0355	-0.0194
736.2132	-0.0084
736.3909	-0.0057
736.5686	-0.0169
736.7463	-0.0042
736.9239	-0.0037
737.1015	-0.0017
737.2791	0.0012
737.4567	0.0004
737.6343	-0.0021
737.8118	0.0052
737.9894	-0.0017
738.1669	-0.0065
738.3444	-0.0072
738.5218	-0.0016
738.6993	0.001
738.8767	-0.0081
739.0541	0.011
739.2315	-0.0023
739.4089	-0.003
739.5863	0.0029
739.7636	-0.0039
739.9409	0.0001
740.1182	0.0068
740.2955	0.0001
740.4728	-0.0003
740.65	-0.0091
740.8272	-0.0006
741.0044	-0.0012
741.1816	0.0008
741.3588	-0.0051
741.5359	-0.0019
741.7131	-0.0059
741.8902	-0.0055
742.0673	-0.0081
742.2444	-0.0099
742.4214	-0.0046
742.5985	-0.0034
742.7755	-0.0118
742.9525	-0.0186
743.1295	-0.0085
743.3064	-0.013
743.4834	-0.0115
743.6603	-0.005
743.8372	-0.0121
744.0141	0.0002
744.191	-0.0039
744.3678	-0.0066
744.5446	0.0015
744.7215	0.0008
744.8982	-0.0066
745.075	-0.0156
745.2518	-0.004
745.4285	-0.0029
745.6052	-0.0088
745.7819	0.002
745.9586	-0.0103
746.1353	-0.0049
746.3119	-0.0042
746.4885	-0.0074
746.6651	-0.0043
746.8417	0.0007
747.0183	-0.0051
747.1948	0.0041
747.3714	-0.0019
747.5479	0.0094
747.7244	-0.0048
747.9008	0.0101
748.0773	-0.0007
748.2537	-0.0058
748.4301	-0.0133
748.6065	-0.0009
748.7829	0.0102
748.9593	-0.0009
749.1356	-0.0014
749.3119	-0.0013
749.4882	-0.0079
749.6645	0.0009
749.8408	0.0002
750.017	0.0015
750.1933	-0.0055
750.3695	-0.0022
750.5457	0.0073
750.7218	-0.0027
750.898	0.0023
751.0741	-0.0082
751.2502	-0.0042
751.4263	-0.0063
751.6024	-0.0018
751.7784	-0.0124
751.9545	-0.0085
752.1305	-0.0021
752.3065	-0.014
752.4825	-0.0041
752.6584	-0.0146
752.8344	-0.0067
753.0103	-0.0174
753.1862	-0.0067
753.3621	-0.0053
753.5379	-0.0044
753.7138	-0.0044
753.8896	0.0006
754.0654	0.008
754.2412	0.0135
754.417	-0.0017
754.5927	-0.0008
754.7685	0
754.9442	0.0022
755.1199	0.0149
755.2956	0.0022
755.4712	0.0164
755.6469	0.003
755.8225	-0.0049
755.9981	0.0028
756.1736	0.0104
756.3492	-0.0041
756.5248	-0.0038
756.7003	0.0013
756.8758	0.0112
757.0513	-0.0079
757.2267	-0.0005
757.4022	0.0004
757.5776	-0.0048
757.753	0.0041
757.9284	-0.0022
758.1038	0.0071
758.2791	0.003
758.4545	-0.0117
758.6298	0.0034
758.8051	0.0005
758.9803	0.0001
759.1556	-0.0059
759.3308	-0.0013
759.506	0.0107
759.6812	0.0037
759.8564	0.0077
760.0316	-0.0025
760.2067	0.0032
760.3819	0.0031
760.557	0.0178
760.732	0.0043
760.9071	-0.0076
761.0821	0.0034
761.2572	0.0182
761.4322	-0.0004
761.6072	0.0038
761.7821	0.003
761.9571	0.0059
762.132	0.0003
762.3069	-0.0105
762.4818	-0.0065
762.6567	-0.0013
762.8316	0.0064
763.0064	-0.0006
763.1812	-0.0005
763.356	-0.0039
763.5308	-0.0112
763.7055	0.0015
763.8803	-0.0016
764.055	-0.0089
764.2297	-0.0033
764.4044	-0.01
764.579	-0.002
764.7537	-0.0085
764.9283	-0.0006
765.1029	-0.0081
765.2775	-0.0086
765.4521	-0.0118
765.6266	-0.0089
765.8011	-0.0104
765.9756	-0.0023
766.1501	0.0106
766.3246	-0.0066
766.4991	0.0018
766.6735	-0.0061
766.8479	-0.0115
767.0223	0.0136
767.1967	-0.0087
767.371	-0.0039
767.5454	-0.0036
767.7197	-0.006
767.894	-0.0088
768.0683	-0.0119
768.2425	0.0059
768.4168	0.0049
768.591	0.0036
768.7652	0.0018
768.9394	-0.008
769.1135	0
769.2877	0.0034
769.4618	-0.0064
769.6359	0.0067
769.81	0.0088
769.984	-0.0037
770.1581	0.0008
770.3321	0.0033
770.5061	-0.0014
770.6801	-0.0041
770.8541	0.004
771.028	0.0029
771.202	-0.0095
771.3759	0.0048
771.5498	-0.001
771.7236	0.0124
771.8975	0.0076
772.0713	0.0033
772.2451	-0.0035
772.4189	0.013
772.5927	0.0162
772.7665	0.0063
772.9402	-0.0024
773.1139	0.0039
773.2876	-0.0033
773.4613	0.0108
773.635	0.0145
773.8086	-0.0047
773.9822	0.0077
774.1558	0.0066
774.3294	-0.0069
774.503	0.0033
774.6765	0.0012
774.8501	0.0027
775.0236	0.0001
775.1971	0.0038
775.3705	-0.005
775.544	-0.0011
775.7174	-0.0115
775.8908	-0.0062
776.0642	-0.0081
776.2376	-0.0138
776.4109	-0.0156
776.5843	0.0045
776.7576	-0.0045
776.9309	0.0052
777.1041	0.0038
777.2774	0.0121
777.4506	-0.002
777.6238	-0.0051
777.797	0.0071
777.9702	0.0051
778.1434	0.0095
778.3165	-0.0094
778.4896	0.0023
778.6627	0.0047
778.8358	-0.0021
779.0089	-0.0162
779.1819	-0.0063
779.3549	0.0155
779.5279	0.0095
779.7009	0.0032
779.8739	-0.0034
780.0468	0.0017
780.2197	0.0032
780.3926	0.0005
780.5655	0.0085
780.7384	0.0007
780.9112	-0.0043
781.0841	-0.0097
781.2569	0.0052
781.4297	0.0059
781.6024	-0.0006
781.7752	0.004
781.9479	0.0116
782.1206	-0.0012
782.2933	-0.011
782.466	0.002
782.6386	0.0059
782.8113	-0.0043
782.9839	0.002
783.1565	0.0052
783.329	0.0129
783.5016	0.0054
783.6741	0.0037
783.8466	0.0003
784.0191	0.0101
784.1916	0.0086
784.3641	0.004
784.5365	0.0001
784.7089	-0.0062
784.8813	-0.002
785.0537	-0.0048
785.2261	-0.0043
785.3984	-0.012
785.5707	0.0054
785.743	0.0129
785.9153	-0.0099
786.0876	0.0029
786.2598	-0.0064
786.432	-0.0131
786.6042	0.0006
786.7764	0.0002
786.9486	0.0108
787.1207	-0.0084
787.2928	0.0018
787.4649	0.0109
787.637	0.0046
787.8091	-0.0025
787.9811	-0.0103
788.1532	0.0016
788.3252	0.0098
788.4972	-0.0046
788.6691	0.0034
788.8411	0.0071
789.013	-0.0192
789.1849	-0.0007
789.3568	-0.0094
789.5287	0.0046
789.7005	-0.0083
789.8723	-0.0037
790.0442	0.0149
790.2159	0.005
790.3877	-0.0042
790.5595	-0.0139
790.7312	-0.0075
790.9029	0.0013
791.0746	-0.0059
791.2463	-0.0026
791.4179	-0.0065
791.5896	-0.0069
791.7612	0.0024
791.9328	0.0042
792.1044	-0.0175
792.2759	-0.0263
792.4474	-0.0095
792.619	0.0038
792.7905	0.0006
792.9619	-0.0041
793.1334	0.0118
793.3048	0.0024
793.4762	-0.0057
793.6476	-0.0006
793.819	-0.0074
793.9904	0.0064
794.1617	-0.0076
794.333	0.0017
794.5043	0.0026
794.6756	0.0028
794.8469	-0.0122
795.0181	0.0106
795.1893	-0.0098
795.3605	0.0135
795.5317	-0.0025
795.7029	-0.0036
795.874	-0.0005
796.0452	-0.0036
796.2163	0.0056
796.3873	0.0065
796.5584	0.0053
796.7294	0.011
796.9005	0.007
797.0715	0.0046
797.2425	-0.0094
797.4134	-0.0058
797.5844	0.002
797.7553	-0.0024
797.9262	0.0009
798.0971	-0.0097
798.2679	-0.0065
798.4388	-0.0342
798.6096	-0.0124
798.7804	-0.0024
798.9512	-0.0044
799.122	-0.0187
799.2927	-0.0109
799.4635	-0.0014
799.6342	-0.0086
799.8049	0.0053
799.9755	-0.0047
800.1462	-0.0075
800.3168	0.0078
800.4874	0.0098
800.658	0.0273
800.8286	0.0101
800.9991	0.0176
801.1696	0.0073
801.3402	0.0137
801.5106	-0.0162
801.6811	0.0056
801.8516	0.0142
802.022	-0.0018
802.1924	-0.0016
802.3628	0.0153
802.5332	-0.001
802.7035	0.0321
802.8739	-0.0034
803.0442	0.0109
803.2145	0.004
803.3847	-0.02
803.555	0.0064
803.7252	-0.0158
803.8954	-0.0157
804.0656	-0.0217
804.2358	-0.0164
804.4059	0.0089
804.5761	0.0026
804.7462	0
804.9163	-0.0192
805.0864	-0.0128
805.2564	-0.0187
805.4264	0.0009
805.5965	-0.0171
805.7665	0.0071
805.9364	0.0016
806.1064	0.0272
806.2763	0.0063
806.4462	0.0059
806.6161	0.0063
806.786	-0.0017
806.9559	0.0012
807.1257	-0.0108
807.2955	0.0075
807.4653	0.003
807.6351	-0.0197
807.8048	0.0107
807.9746	0.0003
808.1443	-0.0129
808.314	-0.012
808.4837	0.0024
808.6533	-0.0229
808.8229	0.0055
808.9926	-0.0073
809.1622	-0.0092
809.3317	-0.0061
809.5013	-0.0111
809.6708	0.0059
809.8403	0.0097
810.0098	-0.0147
810.1793	-0.0188
810.3488	-0.003
810.5182	-0.0124
810.6876	-0.006
810.857	-0.0175
811.0264	0.0151
811.1958	0.0235
811.3651	-0.0187
811.5344	-0.006
811.7037	-0.008
811.873	-0.0136
812.0422	-0.0192
812.2115	-0.0096
812.3807	-0.017
812.5499	0.0074
812.7191	-0.0019
812.8882	-0.0208
813.0574	-0.0223
813.2265	0.0071
813.3956	-0.0037
813.5646	-0.0149
813.7337	-0.0083
813.9027	0.0025
814.0718	0.0321
814.2407	0.0204
814.4097	-0.0252
814.5787	-0.016
814.7476	0.0003
814.9165	-0.0131
815.0854	-0.0142
815.2543	-0.0074
815.4232	-0.0009
815.592	-0.015
815.7608	0.0027
815.9296	0.003
816.0984	0.0128
816.2671	-0.0003
816.4359	-0.0024
816.6046	0.0022
816.7733	-0.0194
816.942	-0.0093
817.1106	-0.0059
817.2793	0.0016
817.4479	0.0025
817.6165	-0.0018
817.785	0.0077
817.9536	-0.0154
818.1221	0.0049
818.2906	0.022
818.4591	-0.0032
818.6276	-0.012
818.7961	0.0027
818.9645	-0.0006
819.1329	0.0156
819.3013	0.0031
819.4697	0.0243
819.638	-0.0095
819.8064	-0.0064
819.9747	0.0053
820.143	0.0076
820.3113	-0.0181
820.4795	0.0032
820.6477	-0.0031
820.816	-0.0124
820.9842	-0.0003
821.1523	0.0158
821.3205	0.0178
821.4886	0.0037
821.6567	0.0011
821.8248	0.0249
821.9929	0.0155
822.1609	-0.0209
822.329	0.0312
822.497	0.0321
822.665	-0.0074
822.833	-0.0185
823.0009	0.0184
823.1688	0.0284
823.3367	0.0113
823.5046	0.0081
823.6725	-0.0007
823.8404	-0.0132
824.0082	-0.0058
824.176	0.0124
824.3438	0.0396
824.5116	0.0026
824.6793	-0.0133
824.847	0.0156
825.0147	-0.0175
825.1824	0.0202
825.3501	0.0299
825.5177	-0.0157
825.6854	0.0048
825.853	0.0089
826.0206	-0.0301
826.1881	0.0005
826.3557	-0.0135
826.5232	-0.0111
826.6907	-0.03
826.8582	0.0096
827.0257	-0.0059
827.1931	0.0082
827.3605	0.0009
827.528	-0.0073
827.6953	-0.0343
827.8627	-0.0156
828.03	0.0354
828.1974	-0.012
828.3647	-0.0235
828.532	0.0015
828.6992	-0.0092
828.8665	0.0068
829.0337	0.0026
829.2009	0.0514
829.3681	-0.0436
829.5352	0.0296
829.7024	-0.0321
829.8695	-0.0181
830.0366	0.031
830.2037	-0.006
830.3707	0.0239
830.5378	0.0192
830.7048	0.0328
830.8718	-0.0032
831.0388	0.0012
831.2057	0.0241
831.3727	0.0192
831.5396	0.0252
831.7065	0.0041
831.8734	-0.0169
832.0402	0.0024
832.2071	0.015
832.3739	-0.0176
832.5407	0.0122
832.7075	-0.008
832.8742	0.0234
833.041	-0.0277
833.2077	0.0056
833.3744	-0.0162
833.541	0.0198
833.7077	-0.0177
833.8743	0.002
834.0409	0.0156
834.2075	-0.0094
834.3741	0.0222
834.5407	-0.0112
834.7072	0.0371
834.8737	-0.0288
835.0402	-0.0086
835.2067	0.0351
835.3731	0.0067
835.5395	0.0071
835.706	0.0378
835.8723	0.0088
836.0387	0.0034
836.2051	-0.0378
836.3714	-0.0107
836.5377	-0.0343
836.704	-0.0276
836.8703	-0.0068
837.0365	0.0164
837.2027	-0.0486
837.3689	0.0055
837.5351	-0.0441
837.7013	-0.0083
837.8674	-0.0656
838.0335	-0.0656
838.1997	-0.019
838.3657	-0.0289
838.5318	-0.0247
838.6978	0.0361
838.8639	0.0316
839.0299	0.0177
839.1958	0.004
839.3618	0.0423
839.5277	-0.0208
839.6937	-0.0008
839.8596	-0.0381
840.0254	-0.0057
840.1913	0.0583
840.3571	0.0892
840.523	-0.0194
840.6888	-0.0064
840.8545	-0.0233
841.0203	-0.0263
841.186	-0.0076
841.3517	0.0156
841.5174	0.0188
841.6831	0.0135
841.8488	0.0863
842.0144	-0.035
842.18	-0.0266
842.3456	0.0029
842.5112	-0.0159
842.6767	-0.0303
842.8422	-0.0616
843.0077	-0.0476
843.1732	-0.0504
843.3387	0.027
843.5042	0.0119
843.6696	-0.0291
843.835	-0.021
844.0004	0.0334
844.1657	0.0123
844.3311	-0.0625
844.4964	-0.0587
844.6617	-0.0562
844.827	0.0036
844.9923	-0.0361
845.1575	0.0013
845.3227	0.0568
845.4879	-0.0314
845.6531	-0.0408
845.8183	-0.0965
845.9834	0.0271
846.1485	-0.0304
846.3136	-0.0293
846.4787	-0.0661
846.6438	0.1079
846.8088	0.0049
846.9738	-0.0253
847.1388	0.0144
847.3038	-0.0565
847.4687	-0.123
847.6337	0.0408
847.7986	-0.0524
847.9635	-0.0072
848.1284	0.0523
848.2932	0.0474
848.458	-0.01
848.6228	0.0691
848.7876	0.1009
848.9524	-0.0456
849.1172	-0.1304
849.2819	0.0086
849.4466	-0.0834
849.6113	-0.0432
849.7759	0.0334
849.9406	0.0378
850.1052	0.0375
850.2698	-0.0761
850.4344	-0.0037
850.599	-0.0559
850.7635	0.0446
850.928	-0.0359
851.0925	-0.0454
851.257	0.0754
851.4215	0.0739
851.5859	-0.0869
851.7503	-0.0338
851.9147	0.0273
852.0791	-0.1199
852.2434	-0.0448
852.4078	0.017
852.5721	0.0874
852.7364	-0.0947
852.9007	-0.1928
853.0649	0.0413
853.2291	-0.0667
853.3934	-0.0458
853.5575	0.051
853.7217	-0.0939
853.8859	-0.2414
854.05	-0.0304
854.2141	0.0556
854.3782	-0.2215
854.5423	-0.0466
854.7063	0.1349
854.8703	0.0143
855.0343	-0.0359
855.1983	-0.0469
855.3623	0.1405
855.5262	0.0527
855.6901	-0.0118
855.854	0.0599
856.0179	0.0069
856.1818	0.0002
856.3456	-0.0324
856.5094	-0.0769
856.6732	-0.2635
856.837	-0.014
857.0008	-0.0081
857.1645	-0.0512
857.3282	-0.1549
857.4919	0.0963
857.6556	0.0618
857.8192	-0.0284
857.9828	0.0811
858.1465	0.106
858.31	-0.0847
858.4736	0.0201
858.6372	-0.0822
858.8007	-0.1653
858.9642	0.1454
859.1277	0.0987
859.2911	0.2408
859.4546	0.0517
859.618	-0.3176
859.7814	0.0501
859.9448	0.2367
860.1081	0.0817
860.2715	0.1208
860.4348	0.4164
860.5981	0.0833
860.7614	0.2188
860.9246	-0.0771
861.0879	-0.3657
861.2511	0.116
861.4143	-0.1989
861.5774	0.2639
861.7406	0.0535
861.9037	0.0334
862.0668	0.0353
862.2299	-0.0473
862.393	-0.1414
862.556	-0.1207
862.7191	-0.1709
862.8821	-0.1491
863.0451	-0.005
863.208	0.1252
863.371	-0.0299
863.5339	0.1653
863.6968	0.0258
863.8597	0.1653
864.0225	-0.1228
864.1854	-0.2471
864.3482	0.0387
864.511	0.0417
864.6737	0.1764
864.8365	0.0237
864.9992	0.19
865.1619	0.19
865.3246	0.4349
865.4873	-0.0236
865.65	0.301
865.8126	-0.2032
865.9752	0.6467
866.1378	-0.3559
866.3004	-0
866.4629	0.2392
866.6254	-0.2257
866.7879	0.352
866.9504	0.6237
867.1129	-0
867.2753	0.13
867.4377	0.3322
867.6001	-0.0985
867.7625	0.1207
867.9249	-0.6687
868.0872	0.9163
868.2495	0.0516
868.4118	-0.0954
868.5741	0.7664
868.7363	-0.2992
868.8986	-0.2603
869.0608	-0.2338
869.223	0.1915
869.3851	0.1418
869.5473	0.4406
869.7094	0.2444
869.8715	-0
870.0336	-0.3876
870.1957	-0.2735
870.3577	-1.3379
870.5197	0.1553
870.6817	2.4048
870.8437	0.16
871.0057	-0.3776
871.1676	-0
871.3295	-0.1571
871.4914	0.0913
871.6533	-0.4482
871.8151	0.1264
871.977	-0
872.1388	-0
872.3006	-0
872.4623	-0
872.6241	0.0647
872.7858	-0.0846
872.9475	0.0723
873.1092	-0.1304
873.2709	-0.2237
873.4325	-0
873.5941	-0.3684
873.7557	-0
873.9173	-0
874.0789	-0.4972
874.2404	-0
874.4019	-0.1217
874.5634	-0.1299
874.7249	-0.0829
874.8863	0.6853
875.0478	-0
875.2092	-0
875.3706	-0
875.5319	-0.9005
875.6933	0.6669
875.8546	-0.3416
876.0159	-0
876.1772	0.867
876.3385	-0
876.4997	0.1526
876.6609	-0.309
876.8221	-0.1088
876.9833	-0.0681
877.1445	-0
877.3056	-0.0604
877.4667	0.3844
877.6278	-0
877.7889	-0.2442
877.9499	-0.5441
878.111	-0
878.272	-0
878.433	-0
878.5939	0.4129
878.7549	-0
878.9158	-0
879.0767	1.5125
879.2376	2.5289
879.3984	-0
879.5593	-0
879.7201	0.4761
879.8809	-0.6169
880.0417	0.0642
880.2024	0.2021
880.3632	-0
880.5239	0.3763
880.6846	-0.0115
880.8452	-2.5347
881.0059	-0.9777
881.1665	0.0503
881.3271	-0.2947
881.4877	-0
881.6483	-0.2438
881.8088	-0.2194
881.9693	-0
882.1298	-0
882.2903	-0
