Data from MonoPyChalIsomerACN10uM410nmA_Absorbance_14-53-31-873.txt Node
Date: Fri Jul 05 14:53:31 BST 2024
User: LASERRRRR
Spectrometer: FLMT03099
Trigger mode: 0
Integration Time (sec): 1.000000E-1
Scans to average: 1
Electric dark correction enabled: true
Nonlinearity correction enabled: false
Boxcar width: 0
XAxis mode: Wavelengths
Number of Pixels in Spectrum: 3648
>>>>>Begin Spectral Data<<<<<
179.3399	-0.4609
179.5586	-0.4609
179.7771	-0.4609
179.9957	0.6508
180.2143	0.0414
180.4329	-0.1349
180.6514	-0
180.8699	-0
181.0885	-0.1013
181.307	0.2976
181.5255	-0
181.744	0.0107
181.9625	-0.6804
182.181	-0
182.3994	0.1519
182.6179	-0
182.8363	-0.0691
183.0547	0.226
183.2732	0.0157
183.4916	0.1208
183.71	0.1576
183.9284	0.0307
184.1467	-0.0519
184.3651	0.039
184.5835	0.0038
184.8018	-0.0836
185.0201	0.079
185.2385	0.1795
185.4568	0.1494
185.6751	0.4723
185.8934	0.2035
186.1117	0.1656
186.3299	0.145
186.5482	0.1048
186.7664	-0.0668
186.9847	0.1073
187.2029	0.1102
187.4211	0.2217
187.6393	0.3311
187.8575	0.1213
188.0757	0.2506
188.2939	0.148
188.512	0.2377
188.7302	0.1684
188.9483	0.1404
189.1665	0.2875
189.3846	-0
189.6027	0.1907
189.8208	0.2226
190.0389	0.2581
190.257	0.1995
190.475	0.4023
190.6931	0.3471
190.9111	0.5202
191.1292	0.3458
191.3472	0.5343
191.5652	0.341
191.7832	0.3807
192.0012	0.7961
192.2192	0.3249
192.4371	1.0071
192.6551	0.4231
192.873	0.473
193.091	0.3798
193.3089	1.2535
193.5268	0.8023
193.7447	0.6107
193.9626	0.5413
194.1805	0.9445
194.3984	0.811
194.6162	0.4813
194.8341	0.5994
195.0519	0.7695
195.2697	0.5807
195.4875	0.7474
195.7054	0.5945
195.9231	0.5329
196.1409	0.6469
196.3587	0.5998
196.5765	0.601
196.7942	0.7254
197.012	0.7407
197.2297	0.6792
197.4474	0.6601
197.6651	0.7792
197.8828	0.6749
198.1005	0.5621
198.3182	0.7419
198.5358	0.7919
198.7535	0.7759
198.9711	0.6456
199.1888	0.6225
199.4064	0.8612
199.624	0.5782
199.8416	0.579
200.0592	0.8224
200.2767	0.6578
200.4943	0.7377
200.7119	0.672
200.9294	0.6369
201.1469	0.5506
201.3645	0.5301
201.582	0.514
201.7995	0.6573
202.017	0.5919
202.2344	0.7074
202.4519	0.7627
202.6694	0.6813
202.8868	0.686
203.1042	0.8842
203.3217	0.6561
203.5391	0.7974
203.7565	0.601
203.9739	0.6236
204.1913	0.693
204.4086	0.746
204.626	0.7538
204.8433	0.7118
205.0607	0.6354
205.278	0.632
205.4953	0.6856
205.7126	0.7805
205.9299	0.7458
206.1472	0.8205
206.3644	0.6906
206.5817	0.7382
206.7989	0.7794
207.0162	0.7374
207.2334	0.6182
207.4506	0.682
207.6678	0.7102
207.885	0.8006
208.1022	0.6895
208.3194	0.7426
208.5365	0.679
208.7537	0.6967
208.9708	0.6356
209.1879	0.6675
209.405	0.7526
209.6222	0.6666
209.8392	0.7116
210.0563	0.6139
210.2734	0.6654
210.4905	0.6137
210.7075	0.6675
210.9245	0.5898
211.1416	0.7018
211.3586	0.6457
211.5756	0.6076
211.7926	0.602
212.0096	0.5659
212.2265	0.5377
212.4435	0.5557
212.6604	0.601
212.8774	0.5837
213.0943	0.6095
213.3112	0.5923
213.5281	0.5491
213.745	0.4815
213.9619	0.5158
214.1788	0.4843
214.3956	0.4686
214.6125	0.4777
214.8293	0.4284
215.0461	0.4851
215.2629	0.4641
215.4798	0.4791
215.6965	0.4135
215.9133	0.4844
216.1301	0.445
216.3469	0.4476
216.5636	0.3866
216.7803	0.3874
216.9971	0.4223
217.2138	0.4015
217.4305	0.3957
217.6472	0.3657
217.8639	0.4067
218.0805	0.3134
218.2972	0.3279
218.5138	0.3212
218.7305	0.3301
218.9471	0.3147
219.1637	0.285
219.3803	0.2865
219.5969	0.3072
219.8135	0.2616
220.0301	0.269
220.2466	0.2673
220.4632	0.2644
220.6797	0.2235
220.8962	0.246
221.1127	0.2438
221.3292	0.2372
221.5457	0.2499
221.7622	0.223
221.9787	0.2588
222.1951	0.2407
222.4116	0.2587
222.628	0.2372
222.8444	0.2629
223.0608	0.2516
223.2772	0.2279
223.4936	0.2656
223.71	0.248
223.9264	0.2583
224.1427	0.2442
224.3591	0.2444
224.5754	0.2791
224.7917	0.2524
225.008	0.2502
225.2243	0.251
225.4406	0.2936
225.6569	0.259
225.8732	0.2549
226.0894	0.2679
226.3057	0.2505
226.5219	0.2674
226.7381	0.2529
226.9543	0.277
227.1705	0.2809
227.3867	0.2639
227.6029	0.2941
227.8191	0.2852
228.0352	0.2806
228.2513	0.3256
228.4675	0.296
228.6836	0.3162
228.8997	0.2894
229.1158	0.3138
229.3319	0.3019
229.548	0.3093
229.764	0.3207
229.9801	0.3155
230.1961	0.3032
230.4121	0.3195
230.6282	0.3237
230.8442	0.3116
231.0602	0.3434
231.2761	0.3468
231.4921	0.335
231.7081	0.3587
231.924	0.3532
232.14	0.3465
232.3559	0.3479
232.5718	0.3758
232.7877	0.3362
233.0036	0.3312
233.2195	0.3373
233.4353	0.3457
233.6512	0.3464
233.867	0.3593
234.0829	0.3524
234.2987	0.3486
234.5145	0.3652
234.7303	0.3647
234.9461	0.3829
235.1619	0.3563
235.3776	0.3801
235.5934	0.3705
235.8091	0.3676
236.0249	0.3584
236.2406	0.3936
236.4563	0.379
236.672	0.3897
236.8877	0.3924
237.1034	0.3989
237.319	0.3973
237.5347	0.3929
237.7503	0.3794
237.966	0.3851
238.1816	0.4073
238.3972	0.3938
238.6128	0.3968
238.8284	0.3972
239.0439	0.4076
239.2595	0.4024
239.475	0.4081
239.6906	0.3989
239.9061	0.4121
240.1216	0.4049
240.3371	0.3958
240.5526	0.402
240.7681	0.41
240.9836	0.395
241.199	0.4017
241.4145	0.3777
241.6299	0.3795
241.8453	0.3943
242.0607	0.3881
242.2761	0.3781
242.4915	0.3753
242.7069	0.3825
242.9223	0.3664
243.1376	0.3736
243.353	0.355
243.5683	0.3646
243.7836	0.3502
243.9989	0.3548
244.2142	0.3333
244.4295	0.3423
244.6448	0.3356
244.86	0.3111
245.0753	0.3139
245.2905	0.3109
245.5057	0.2961
245.721	0.2977
245.9362	0.287
246.1514	0.3001
246.3665	0.2769
246.5817	0.2731
246.7969	0.2721
247.012	0.2675
247.2271	0.2642
247.4423	0.2663
247.6574	0.2652
247.8725	0.2549
248.0876	0.252
248.3026	0.2427
248.5177	0.2349
248.7328	0.2296
248.9478	0.2256
249.1628	0.2213
249.3779	0.2245
249.5929	0.2186
249.8079	0.233
250.0228	0.2124
250.2378	0.1971
250.4528	0.2188
250.6677	0.1999
250.8827	0.2052
251.0976	0.21
251.3125	0.1986
251.5274	0.1835
251.7423	0.1909
251.9572	0.2044
252.172	0.1887
252.3869	0.1839
252.6017	0.1999
252.8166	0.1745
253.0314	0.1656
253.2462	0.1761
253.461	0.1849
253.6758	0.1816
253.8906	0.1749
254.1053	0.1655
254.3201	0.1701
254.5348	0.1832
254.7496	0.1739
254.9643	0.1725
255.179	0.1667
255.3937	0.1531
255.6083	0.1734
255.823	0.1789
256.0377	0.16
256.2523	0.1733
256.467	0.1446
256.6816	0.1723
256.8962	0.1611
257.1108	0.1605
257.3254	0.1758
257.54	0.163
257.7545	0.1753
257.9691	0.1686
258.1836	0.1733
258.3981	0.1669
258.6127	0.1778
258.8272	0.158
259.0417	0.1597
259.2561	0.1687
259.4706	0.1598
259.6851	0.1708
259.8995	0.1668
260.114	0.1622
260.3284	0.179
260.5428	0.159
260.7572	0.1696
260.9716	0.1654
261.186	0.1604
261.4003	0.1687
261.6147	0.161
261.829	0.1694
262.0433	0.1655
262.2577	0.1694
262.472	0.1687
262.6863	0.1492
262.9005	0.1716
263.1148	0.176
263.3291	0.1469
263.5433	0.1771
263.7576	0.1776
263.9718	0.1735
264.186	0.166
264.4002	0.1544
264.6144	0.1657
264.8286	0.1797
265.0427	0.1647
265.2569	0.1743
265.471	0.1635
265.6851	0.1697
265.8993	0.1703
266.1134	0.1695
266.3275	0.1612
266.5415	0.1574
266.7556	0.1864
266.9697	0.1737
267.1837	0.1709
267.3978	0.1729
267.6118	0.1804
267.8258	0.1913
268.0398	0.1622
268.2538	0.179
268.4677	0.1601
268.6817	0.1734
268.8957	0.1797
269.1096	0.1818
269.3235	0.1775
269.5374	0.1662
269.7514	0.1683
269.9652	0.1648
270.1791	0.1696
270.393	0.1625
270.6068	0.1686
270.8207	0.1653
271.0345	0.1499
271.2483	0.1639
271.4622	0.1534
271.676	0.1663
271.8897	0.16
272.1035	0.1573
272.3173	0.1697
272.531	0.1623
272.7448	0.1759
272.9585	0.1592
273.1722	0.1654
273.3859	0.1631
273.5996	0.15
273.8133	0.1592
274.0269	0.1756
274.2406	0.1598
274.4542	0.1692
274.6679	0.1471
274.8815	0.163
275.0951	0.1792
275.3087	0.1737
275.5223	0.1786
275.7358	0.1619
275.9494	0.1673
276.1629	0.1556
276.3765	0.163
276.59	0.1663
276.8035	0.1777
277.017	0.1607
277.2305	0.1682
277.444	0.1825
277.6574	0.1593
277.8709	0.1702
278.0843	0.1599
278.2978	0.1766
278.5112	0.1646
278.7246	0.1728
278.938	0.1662
279.1513	0.1782
279.3647	0.1858
279.5781	0.1727
279.7914	0.1659
280.0047	0.1789
280.2181	0.1686
280.4314	0.1677
280.6447	0.1786
280.8579	0.1768
281.0712	0.1695
281.2845	0.1789
281.4977	0.1662
281.711	0.1695
281.9242	0.1662
282.1374	0.171
282.3506	0.1613
282.5638	0.1728
282.7769	0.171
282.9901	0.1671
283.2033	0.1722
283.4164	0.1858
283.6295	0.1585
283.8426	0.1748
284.0557	0.1709
284.2688	0.1757
284.4819	0.1767
284.695	0.163
284.908	0.172
285.1211	0.1662
285.3341	0.164
285.5471	0.1643
285.7601	0.1685
285.9731	0.1591
286.1861	0.1612
286.3991	0.1733
286.612	0.1741
286.825	0.1591
287.0379	0.1639
287.2508	0.1525
287.4637	0.1646
287.6766	0.1462
287.8895	0.1662
288.1024	0.1646
288.3152	0.1431
288.5281	0.1588
288.7409	0.1532
288.9538	0.1617
289.1666	0.1672
289.3794	0.1516
289.5922	0.1573
289.8049	0.1483
290.0177	0.1493
290.2304	0.1464
290.4432	0.1559
290.6559	0.1638
290.8686	0.1598
291.0813	0.1423
291.294	0.152
291.5067	0.1538
291.7194	0.1438
291.932	0.1619
292.1447	0.1414
292.3573	0.1464
292.5699	0.1487
292.7825	0.1543
292.9951	0.1432
293.2077	0.1438
293.4203	0.1498
293.6328	0.1389
293.8454	0.1553
294.0579	0.1435
294.2704	0.1474
294.4829	0.1445
294.6954	0.1548
294.9079	0.1412
295.1204	0.1453
295.3328	0.1369
295.5453	0.1447
295.7577	0.1475
295.9701	0.138
296.1825	0.1456
296.3949	0.1366
296.6073	0.1474
296.8197	0.1326
297.0321	0.1546
297.2444	0.1464
297.4567	0.1472
297.6691	0.1456
297.8814	0.1476
298.0937	0.1483
298.306	0.153
298.5182	0.1488
298.7305	0.1479
298.9428	0.1423
299.155	0.1375
299.3672	0.1348
299.5794	0.1329
299.7916	0.1395
300.0038	0.1491
300.216	0.1518
300.4282	0.1464
300.6403	0.137
300.8525	0.1496
301.0646	0.1287
301.2767	0.1415
301.4888	0.1488
301.7009	0.1452
301.913	0.1439
302.125	0.1443
302.3371	0.1318
302.5491	0.1405
302.7612	0.1494
302.9732	0.1313
303.1852	0.1468
303.3972	0.1408
303.6092	0.1367
303.8211	0.1284
304.0331	0.1304
304.245	0.1303
304.457	0.1285
304.6689	0.1422
304.8808	0.1452
305.0927	0.1414
305.3046	0.1401
305.5164	0.1391
305.7283	0.1309
305.9401	0.1361
306.152	0.1407
306.3638	0.1403
306.5756	0.1304
306.7874	0.1365
306.9992	0.1475
307.2109	0.1276
307.4227	0.1231
307.6344	0.1318
307.8462	0.1387
308.0579	0.1255
308.2696	0.1325
308.4813	0.126
308.693	0.1218
308.9046	0.1337
309.1163	0.1315
309.328	0.127
309.5396	0.1172
309.7512	0.1254
309.9628	0.1163
310.1744	0.132
310.386	0.1141
310.5976	0.1098
310.8091	0.1219
311.0207	0.1119
311.2322	0.1286
311.4437	0.1125
311.6552	0.1095
311.8667	0.122
312.0782	0.1015
312.2897	0.112
312.5012	0.1197
312.7126	0.1042
312.924	0.1141
313.1355	0.1178
313.3469	0.1165
313.5583	0.12
313.7696	0.1197
313.981	0.1158
314.1924	0.1123
314.4037	0.0999
314.6151	0.1157
314.8264	0.1054
315.0377	0.105
315.249	0.11
315.4603	0.1234
315.6716	0.118
315.8828	0.1015
316.0941	0.1189
316.3053	0.106
316.5165	0.1008
316.7277	0.0993
316.9389	0.114
317.1501	0.1149
317.3613	0.1135
317.5724	0.1002
317.7836	0.1159
317.9947	0.1089
318.2058	0.1049
318.417	0.1008
318.6281	0.0956
318.8391	0.1052
319.0502	0.1008
319.2613	0.1141
319.4723	0.1156
319.6834	0.1124
319.8944	0.0962
320.1054	0.1253
320.3164	0.1084
320.5274	0.1215
320.7383	0.1054
320.9493	0.1129
321.1602	0.1381
321.3712	0.1025
321.5821	0.1123
321.793	0.1066
322.0039	0.1168
322.2148	0.1145
322.4257	0.1179
322.6365	0.129
322.8474	0.1208
323.0582	0.1156
323.269	0.1152
323.4798	0.1213
323.6906	0.1236
323.9014	0.1181
324.1122	0.121
324.3229	0.1198
324.5337	0.1143
324.7444	0.1049
324.9551	0.1328
325.1658	0.1176
325.3765	0.1206
325.5872	0.1217
325.7979	0.1211
326.0085	0.1171
326.2192	0.1352
326.4298	0.1211
326.6404	0.1187
326.851	0.1108
327.0616	0.1144
327.2722	0.1148
327.4828	0.1317
327.6933	0.1229
327.9039	0.1294
328.1144	0.1294
328.3249	0.1247
328.5354	0.1156
328.7459	0.1231
328.9564	0.1153
329.1669	0.1322
329.3773	0.123
329.5878	0.1193
329.7982	0.1205
330.0086	0.1378
330.219	0.1258
330.4294	0.1198
330.6398	0.1253
330.8502	0.1166
331.0605	0.1169
331.2708	0.1169
331.4812	0.1215
331.6915	0.1342
331.9018	0.1241
332.1121	0.1281
332.3224	0.1144
332.5326	0.1291
332.7429	0.1161
332.9531	0.133
333.1633	0.1145
333.3735	0.1214
333.5837	0.1206
333.7939	0.1317
334.0041	0.1258
334.2143	0.1244
334.4244	0.1169
334.6346	0.1064
334.8447	0.1414
335.0548	0.1189
335.2649	0.117
335.475	0.13
335.685	0.1297
335.8951	0.1311
336.1051	0.135
336.3152	0.1356
336.5252	0.1278
336.7352	0.1329
336.9452	0.1182
337.1552	0.1384
337.3652	0.1254
337.5751	0.1199
337.7851	0.1253
337.995	0.1258
338.2049	0.1289
338.4148	0.1331
338.6247	0.1349
338.8346	0.1207
339.0445	0.1142
339.2543	0.1195
339.4642	0.1348
339.674	0.1204
339.8838	0.1307
340.0936	0.1172
340.3034	0.1342
340.5132	0.1306
340.7229	0.1392
340.9327	0.1337
341.1424	0.1388
341.3522	0.1452
341.5619	0.148
341.7716	0.1381
341.9813	0.1432
342.1909	0.1306
342.4006	0.1398
342.6102	0.1529
342.8199	0.1438
343.0295	0.1399
343.2391	0.151
343.4487	0.1477
343.6583	0.1358
343.8679	0.1397
344.0774	0.1544
344.287	0.1465
344.4965	0.1364
344.706	0.1528
344.9155	0.1466
345.125	0.1349
345.3345	0.1613
345.544	0.1365
345.7534	0.1447
345.9629	0.1407
346.1723	0.133
346.3817	0.1433
346.5911	0.1271
346.8005	0.1416
347.0099	0.1332
347.2193	0.1504
347.4286	0.1346
347.638	0.1539
347.8473	0.151
348.0566	0.1463
348.2659	0.1616
348.4752	0.1423
348.6845	0.1422
348.8937	0.1536
349.103	0.1524
349.3122	0.154
349.5214	0.1378
349.7306	0.1379
349.9398	0.1505
350.149	0.1444
350.3582	0.1508
350.5674	0.159
350.7765	0.1531
350.9856	0.15
351.1948	0.151
351.4039	0.145
351.613	0.1524
351.822	0.1417
352.0311	0.1471
352.2402	0.1441
352.4492	0.1543
352.6582	0.1558
352.8672	0.1576
353.0762	0.1566
353.2852	0.1499
353.4942	0.1445
353.7032	0.1574
353.9121	0.1584
354.1211	0.1548
354.33	0.1692
354.5389	0.159
354.7478	0.1541
354.9567	0.1576
355.1655	0.1536
355.3744	0.1419
355.5833	0.1687
355.7921	0.1701
356.0009	0.1605
356.2097	0.169
356.4185	0.164
356.6273	0.1702
356.8361	0.1646
357.0448	0.1548
357.2536	0.1532
357.4623	0.164
357.671	0.1747
357.8797	0.1649
358.0884	0.1684
358.2971	0.1696
358.5057	0.1678
358.7144	0.169
358.923	0.1586
359.1316	0.171
359.3402	0.1649
359.5488	0.1675
359.7574	0.1542
359.966	0.1638
360.1746	0.1691
360.3831	0.1749
360.5916	0.1611
360.8002	0.1568
361.0087	0.1802
361.2172	0.1781
361.4256	0.1658
361.6341	0.1749
361.8426	0.1768
362.051	0.1761
362.2594	0.1629
362.4678	0.1647
362.6762	0.1928
362.8846	0.1788
363.093	0.1724
363.3014	0.1709
363.5097	0.1642
363.718	0.1699
363.9264	0.1608
364.1347	0.1796
364.343	0.1883
364.5513	0.174
364.7595	0.1886
364.9678	0.1784
365.176	0.1927
365.3842	0.1907
365.5925	0.1763
365.8007	0.1812
366.0089	0.181
366.217	0.1758
366.4252	0.1912
366.6333	0.207
366.8415	0.1922
367.0496	0.1896
367.2577	0.1879
367.4658	0.1937
367.6739	0.1878
367.882	0.2009
368.09	0.191
368.2981	0.1844
368.5061	0.1732
368.7141	0.1964
368.9221	0.1941
369.1301	0.1881
369.3381	0.1835
369.5461	0.1966
369.754	0.1903
369.962	0.2085
370.1699	0.1918
370.3778	0.2069
370.5857	0.1835
370.7936	0.1953
371.0015	0.1878
371.2093	0.1919
371.4172	0.2009
371.625	0.1944
371.8328	0.1956
372.0406	0.1973
372.2484	0.1916
372.4562	0.1842
372.664	0.195
372.8717	0.2004
373.0795	0.1681
373.2872	0.19
373.4949	0.1967
373.7026	0.1866
373.9103	0.2158
374.118	0.1985
374.3256	0.1909
374.5333	0.1915
374.7409	0.1843
374.9485	0.2044
375.1561	0.1896
375.3637	0.1943
375.5713	0.1958
375.7789	0.1951
375.9864	0.204
376.194	0.1866
376.4015	0.1944
376.609	0.2002
376.8165	0.2048
377.024	0.1878
377.2315	0.1868
377.4389	0.2124
377.6464	0.2012
377.8538	0.1971
378.0612	0.1938
378.2686	0.2043
378.476	0.215
378.6834	0.2065
378.8908	0.2062
379.0981	0.2016
379.3055	0.2029
379.5128	0.2049
379.7201	0.213
379.9274	0.2075
380.1347	0.1997
380.342	0.211
380.5492	0.1832
380.7565	0.2065
380.9637	0.2169
381.1709	0.1975
381.3781	0.1895
381.5853	0.1949
381.7925	0.206
381.9997	0.2127
382.2068	0.2198
382.4139	0.2154
382.6211	0.1825
382.8282	0.1943
383.0353	0.196
383.2424	0.2066
383.4494	0.2062
383.6565	0.1986
383.8635	0.1988
384.0706	0.2006
384.2776	0.204
384.4846	0.2098
384.6916	0.1965
384.8986	0.1946
385.1055	0.2139
385.3125	0.235
385.5194	0.1949
385.7263	0.2307
385.9333	0.1979
386.1402	0.1983
386.347	0.2007
386.5539	0.1989
386.7608	0.1957
386.9676	0.1879
387.1744	0.1985
387.3813	0.1744
387.5881	0.2036
387.7948	0.1827
388.0016	0.1965
388.2084	0.2003
388.4151	0.1804
388.6219	0.2088
388.8286	0.1896
389.0353	0.2099
389.242	0.2115
389.4487	0.1885
389.6553	0.1971
389.862	0.1733
390.0686	0.192
390.2753	0.2049
390.4819	0.1858
390.6885	0.1808
390.8951	0.205
391.1016	0.188
391.3082	0.1643
391.5147	0.1848
391.7213	0.1891
391.9278	0.1619
392.1343	0.1868
392.3408	0.1964
392.5473	0.1782
392.7537	0.1814
392.9602	0.1725
393.1666	0.1817
393.373	0.1848
393.5794	0.1768
393.7858	0.1713
393.9922	0.1779
394.1986	0.1841
394.4049	0.1701
394.6113	0.178
394.8176	0.1609
395.0239	0.1804
395.2302	0.1752
395.4365	0.171
395.6428	0.1685
395.8491	0.167
396.0553	0.1644
396.2615	0.1557
396.4678	0.1728
396.674	0.1621
396.8802	0.1641
397.0863	0.17
397.2925	0.1563
397.4987	0.1539
397.7048	0.1533
397.9109	0.1645
398.117	0.1625
398.3231	0.1565
398.5292	0.1755
398.7353	0.1677
398.9413	0.1624
399.1474	0.1739
399.3534	0.1689
399.5594	0.1325
399.7654	0.1662
399.9714	0.1594
400.1774	0.1567
400.3833	0.1566
400.5893	0.1673
400.7952	0.1655
401.0011	0.1497
401.207	0.1763
401.4129	0.1587
401.6188	0.1631
401.8247	0.1635
402.0305	0.1536
402.2364	0.1489
402.4422	0.1588
402.648	0.1741
402.8538	0.1715
403.0596	0.142
403.2654	0.1653
403.4711	0.151
403.6768	0.1511
403.8826	0.176
404.0883	0.1729
404.294	0.1661
404.4997	0.1555
404.7054	0.1515
404.911	0.1403
405.1167	0.158
405.3223	0.1786
405.5279	0.1795
405.7335	0.1643
405.9391	0.176
406.1447	0.1637
406.3502	0.1773
406.5558	0.1643
406.7613	0.1625
406.9668	0.1602
407.1724	0.143
407.3778	0.1569
407.5833	0.1615
407.7888	0.1535
407.9942	0.1748
408.1997	0.157
408.4051	0.1788
408.6105	0.1402
408.8159	0.1463
409.0213	0.1558
409.2267	0.1742
409.432	0.1509
409.6374	0.1577
409.8427	0.1385
410.048	0.1616
410.2533	0.1507
410.4586	0.142
410.6639	0.1449
410.8691	0.1363
411.0744	0.1407
411.2796	0.1474
411.4848	0.1433
411.69	0.1473
411.8952	0.1606
412.1004	0.1354
412.3056	0.1704
412.5107	0.1469
412.7158	0.1647
412.921	0.1326
413.1261	0.1518
413.3312	0.1387
413.5362	0.1511
413.7413	0.1602
413.9464	0.1479
414.1514	0.1407
414.3564	0.1488
414.5614	0.1279
414.7664	0.1442
414.9714	0.1552
415.1764	0.1559
415.3813	0.1503
415.5863	0.139
415.7912	0.1643
415.9961	0.1613
416.201	0.1453
416.4059	0.1501
416.6108	0.1425
416.8156	0.1559
417.0205	0.1376
417.2253	0.1326
417.4301	0.1637
417.6349	0.135
417.8397	0.1234
418.0445	0.1519
418.2492	0.1509
418.454	0.1416
418.6587	0.1311
418.8634	0.1493
419.0681	0.1382
419.2728	0.1358
419.4775	0.1526
419.6822	0.138
419.8868	0.1109
420.0915	0.1356
420.2961	0.136
420.5007	0.1236
420.7053	0.1434
420.9099	0.151
421.1144	0.1432
421.319	0.1365
421.5235	0.1378
421.728	0.1346
421.9325	0.1314
422.137	0.1352
422.3415	0.1216
422.546	0.1271
422.7504	0.1228
422.9549	0.1545
423.1593	0.1434
423.3637	0.141
423.5681	0.1217
423.7725	0.1288
423.9769	0.1154
424.1812	0.121
424.3856	0.1127
424.5899	0.1359
424.7942	0.1293
424.9985	0.1389
425.2028	0.1137
425.4071	0.1381
425.6113	0.1121
425.8156	0.1175
426.0198	0.1277
426.224	0.1261
426.4282	0.13
426.6324	0.1128
426.8366	0.1295
427.0407	0.1123
427.2449	0.1193
427.449	0.1197
427.6531	0.0927
427.8572	0.1177
428.0613	0.1277
428.2654	0.1164
428.4694	0.1096
428.6735	0.1273
428.8775	0.1142
429.0815	0.1107
429.2855	0.0994
429.4895	0.1052
429.6935	0.1076
429.8975	0.1121
430.1014	0.0974
430.3053	0.09
430.5093	0.1018
430.7132	0.0848
430.9171	0.0888
431.1209	0.0995
431.3248	0.0947
431.5286	0.0981
431.7325	0.1022
431.9363	0.0954
432.1401	0.113
432.3439	0.0945
432.5477	0.0695
432.7514	0.0807
432.9552	0.0933
433.1589	0.0988
433.3627	0.0873
433.5664	0.0806
433.7701	0.0756
433.9737	0.0764
434.1774	0.0776
434.3811	0.0805
434.5847	0.0887
434.7883	0.0777
434.9919	0.081
435.1955	0.0958
435.3991	0.0702
435.6027	0.0751
435.8062	0.0831
436.0098	0.0638
436.2133	0.0715
436.4168	0.0762
436.6203	0.0592
436.8238	0.0757
437.0272	0.0692
437.2307	0.0697
437.4341	0.0719
437.6375	0.0761
437.841	0.0692
438.0443	0.0681
438.2477	0.0671
438.4511	0.0636
438.6545	0.0528
438.8578	0.0606
439.0611	0.0619
439.2644	0.0709
439.4677	0.066
439.671	0.0406
439.8743	0.0562
440.0775	0.0604
440.2808	0.0449
440.484	0.0501
440.6872	0.0351
440.8904	0.0545
441.0936	0.0676
441.2967	0.0564
441.4999	0.0613
441.703	0.0504
441.9062	0.0476
442.1093	0.0613
442.3124	0.0461
442.5155	0.038
442.7185	0.0515
442.9216	0.0292
443.1246	0.0549
443.3276	0.0239
443.5307	0.0323
443.7337	0.0505
443.9366	0.0391
444.1396	0.0557
444.3426	0.0376
444.5455	0.0395
444.7484	0.0429
444.9513	0.0359
445.1542	0.0431
445.3571	0.0397
445.56	0.0371
445.7628	0.0316
445.9657	0.0263
446.1685	0.0339
446.3713	0.0471
446.5741	0.0341
446.7769	0.0215
446.9797	0.0464
447.1824	0.0424
447.3852	0.019
447.5879	0.0401
447.7906	0.0376
447.9933	0.0259
448.196	0.0286
448.3986	0.0263
448.6013	0.027
448.8039	0.0091
449.0066	0.0149
449.2092	0.0342
449.4118	0.0287
449.6143	0.0382
449.8169	0.0292
450.0195	0.0145
450.222	0.0029
450.4245	0.0262
450.627	0.0322
450.8295	0.0157
451.032	0.0165
451.2345	0.0112
451.4369	0.0243
451.6394	0.025
451.8418	0.0076
452.0442	0.0104
452.2466	0.0213
452.449	0.0057
452.6513	0.0009
452.8537	0.0091
453.056	0.0049
453.2583	0.0147
453.4607	0.0104
453.663	0.0108
453.8652	0.0202
454.0675	0.0024
454.2697	0.0229
454.472	-0.0045
454.6742	0.0118
454.8764	0.0093
455.0786	0.0149
455.2808	0.0001
455.4829	0.0011
455.6851	0.0026
455.8872	0.0203
456.0893	0.0219
456.2915	0.0013
456.4935	0.0001
456.6956	0.0114
456.8977	0.0145
457.0997	0.002
457.3018	-0.0097
457.5038	0.0061
457.7058	0.0011
457.9078	0.0082
458.1098	0.0131
458.3117	0.0103
458.5137	0.0153
458.7156	0.0147
458.9175	-0.0132
459.1194	-0.0015
459.3213	-0.002
459.5232	0.0085
459.725	0.0108
459.9269	-0.0158
460.1287	-0.0065
460.3305	-0.0079
460.5323	0.0073
460.7341	0.0014
460.9359	0.0027
461.1376	0.0027
461.3394	-0.0023
461.5411	0.0085
461.7428	0.0042
461.9445	0.0139
462.1462	0.0148
462.3479	0.001
462.5495	-0.0004
462.7512	0.01
462.9528	0.0005
463.1544	-0.0107
463.356	-0.0024
463.5576	0.0178
463.7592	0.0006
463.9607	-0.008
464.1623	0.0103
464.3638	0.0191
464.5653	-0.0125
464.7668	-0.0036
464.9683	0.0025
465.1697	0.0093
465.3712	-0.0053
465.5726	-0.0071
465.7741	0.0003
465.9755	-0
466.1769	-0.0003
466.3782	0.0097
466.5796	-0.0076
466.7809	0.025
466.9823	-0.0053
467.1836	0.0077
467.3849	-0.0017
467.5862	-0.0025
467.7875	-0.0029
467.9887	0.0215
468.19	-0.0029
468.3912	0.0013
468.5924	-0.0108
468.7936	0.0016
468.9948	-0.0055
469.196	0.0008
469.3972	-0.0131
469.5983	0.0014
469.7994	-0.0165
470.0006	-0.0047
470.2017	-0.0114
470.4027	-0.001
470.6038	-0.006
470.8049	-0.013
471.0059	-0.0017
471.2069	-0.0182
471.408	0.014
471.6089	-0.001
471.8099	-0.0013
472.0109	-0.0027
472.2119	-0.0223
472.4128	-0.0159
472.6137	0.0062
472.8146	-0.0144
473.0155	-0.0088
473.2164	0.0013
473.4173	-0.0045
473.6181	0.0085
473.819	0.0047
474.0198	-0.005
474.2206	-0.008
474.4214	-0.0035
474.6222	-0.0114
474.8229	-0.009
475.0237	-0.0041
475.2244	-0.0034
475.4251	-0.0031
475.6258	-0.0122
475.8265	-0.0131
476.0272	0.01
476.2278	0.0021
476.4285	-0.0106
476.6291	-0.0239
476.8297	0.0021
477.0303	-0.0131
477.2309	0.0057
477.4315	-0.0096
477.632	-0.004
477.8326	-0.0106
478.0331	-0.0029
478.2336	-0.003
478.4341	-0.0123
478.6346	0.0004
478.8351	-0.0002
479.0355	-0.0027
479.236	-0.0031
479.4364	-0.0037
479.6368	-0.0001
479.8372	-0.0046
480.0376	-0.0059
480.2379	-0.0269
480.4383	-0.0086
480.6386	0.0077
480.8389	-0.0011
481.0392	-0.0115
481.2395	-0.0025
481.4398	0.0045
481.6401	-0.0087
481.8403	0.0055
482.0405	-0.0029
482.2408	-0.0079
482.441	0.0045
482.6411	-0.0096
482.8413	0.0003
483.0415	-0.002
483.2416	-0.0121
483.4417	-0.0019
483.6419	-0.0043
483.8419	-0.0036
484.042	-0.001
484.2421	-0.0058
484.4422	0.0026
484.6422	-0.0155
484.8422	-0.0084
485.0422	-0.0133
485.2422	0.0028
485.4422	-0.0181
485.6422	-0.0121
485.8421	-0.0032
486.042	-0.001
486.242	-0.0077
486.4419	-0.0115
486.6417	-0.0131
486.8416	-0.0129
487.0415	-0.0055
487.2413	-0.0084
487.4411	-0.0156
487.641	-0.0149
487.8408	-0.0025
488.0405	-0.0074
488.2403	-0.0015
488.4401	0.006
488.6398	-0.007
488.8395	-0.0118
489.0392	0.0006
489.2389	-0.0038
489.4386	-0.0041
489.6383	-0.0046
489.8379	-0.0033
490.0376	-0.0094
490.2372	-0.0136
490.4368	-0.0139
490.6364	-0.0106
490.836	-0.0199
491.0355	-0.0091
491.2351	-0.0185
491.4346	-0.0024
491.6341	-0.0156
491.8336	-0.0083
492.0331	-0.0157
492.2326	-0.011
492.432	-0.0087
492.6315	-0.0089
492.8309	-0.0201
493.0303	-0.0243
493.2297	-0.009
493.4291	-0.0016
493.6284	-0.007
493.8278	-0.0033
494.0271	-0.0014
494.2264	0.0095
494.4257	-0.0242
494.625	0.0012
494.8243	-0.0222
495.0236	-0.0184
495.2228	-0.0167
495.422	-0.0041
495.6213	-0.0168
495.8205	-0.0112
496.0196	-0.0025
496.2188	-0.0012
496.418	-0.0108
496.6171	-0.0056
496.8162	-0.017
497.0153	0.0029
497.2144	-0.0101
497.4135	-0.0013
497.6126	-0.0007
497.8116	-0.0199
498.0107	-0.0059
498.2097	-0.0208
498.4087	-0.0186
498.6077	0.0021
498.8067	-0.0118
499.0056	-0.0043
499.2046	-0.0099
499.4035	-0.0225
499.6024	-0.0107
499.8013	-0.0097
500.0002	-0.0084
500.199	-0.0038
500.3979	-0.0102
500.5967	-0.0239
500.7956	0.002
500.9944	-0
501.1932	-0.0116
501.3919	-0.0111
501.5907	-0.011
501.7895	-0.0117
501.9882	-0.0111
502.1869	-0.0089
502.3856	-0.0099
502.5843	-0.0202
502.783	-0.0122
502.9816	-0.0101
503.1803	-0.021
503.3789	-0.0108
503.5775	-0.0037
503.7761	-0.0155
503.9747	-0.0075
504.1732	0.003
504.3718	-0.0013
504.5703	-0.0092
504.7689	-0.0138
504.9674	-0.0012
505.1658	-0.0108
505.3643	-0.0045
505.5628	-0.0118
505.7612	-0.0164
505.9597	0.0055
506.1581	-0.0131
506.3565	-0.0039
506.5549	0.0036
506.7532	-0.0141
506.9516	-0.0023
507.1499	-0.006
507.3482	-0.0112
507.5465	-0.0142
507.7448	-0.0033
507.9431	-0.0003
508.1414	-0.0023
508.3396	-0.0075
508.5379	-0.0073
508.7361	-0.0117
508.9343	-0.0063
509.1325	-0.0051
509.3306	-0.0111
509.5288	-0.0084
509.7269	-0.0115
509.9251	-0.0073
510.1232	-0.0104
510.3213	-0.0045
510.5193	-0.0044
510.7174	-0.0117
510.9154	-0.0231
511.1135	-0.0152
511.3115	-0.013
511.5095	0.0003
511.7075	-0.0116
511.9055	-0.0097
512.1034	-0.0104
512.3014	-0.0055
512.4993	0.0023
512.6972	-0.015
512.8951	-0.0154
513.093	-0.0076
513.2908	-0.0123
513.4887	-0.0032
513.6865	0.0025
513.8844	-0.0069
514.0822	-0.0068
514.2799	-0.0119
514.4777	-0.0067
514.6755	-0.0099
514.8732	-0.0188
515.0709	-0.0091
515.2687	-0.0029
515.4664	-0.0033
515.664	-0.0044
515.8617	-0.0071
516.0594	-0.017
516.257	-0.0163
516.4546	-0.0077
516.6522	-0.0063
516.8498	-0.0074
517.0474	0.0022
517.2449	-0.0079
517.4425	-0.0185
517.64	-0.0026
517.8375	0.0014
518.035	-0.0047
518.2325	-0.0121
518.43	0.0003
518.6274	-0.0092
518.8249	-0.0143
519.0223	-0.0127
519.2197	-0.0123
519.4171	-0.0081
519.6145	-0.0227
519.8118	-0.0146
520.0092	-0.0062
520.2065	-0.0141
520.4038	-0.0126
520.6011	-0.0106
520.7984	-0.0136
520.9956	-0.0139
521.1929	-0.002
521.3901	0.0029
521.5874	-0.0055
521.7846	-0.0074
521.9818	-0.0198
522.1789	-0.0131
522.3761	-0.004
522.5732	-0.0005
522.7704	0.0014
522.9675	0.0071
523.1646	-0.009
523.3617	-0.0132
523.5587	-0.0093
523.7558	-0.008
523.9528	-0.0105
524.1498	0.0022
524.3468	-0.0023
524.5438	-0.0062
524.7408	-0.0015
524.9378	0.0004
525.1347	-0.0083
525.3316	-0.0036
525.5285	-0.0118
525.7254	-0.0119
525.9223	-0.0078
526.1192	-0.0095
526.316	-0.0152
526.5129	-0.0026
526.7097	-0.0072
526.9065	-0.007
527.1033	0.0021
527.3	0.0004
527.4968	-0.0148
527.6935	-0.0061
527.8903	-0.0103
528.087	-0.0123
528.2837	-0.0034
528.4804	0.0018
528.677	-0.008
528.8737	-0.0045
529.0703	-0.0017
529.2669	-0.0008
529.4635	-0.007
529.6601	-0.006
529.8567	0.0016
530.0532	-0.0104
530.2498	0.0013
530.4463	-0.0103
530.6428	-0.01
530.8393	0.0057
531.0358	-0.0056
531.2322	-0.0061
531.4287	-0.0074
531.6251	-0.0162
531.8215	0.0069
532.0179	-0.0016
532.2143	0.0088
532.4107	-0.007
532.607	-0.0048
532.8034	-0.0042
532.9997	-0.0049
533.196	0.0007
533.3923	-0.0021
533.5886	-0.0091
533.7848	-0.0044
533.9811	-0.0009
534.1773	-0.0106
534.3735	-0.0011
534.5697	-0.0096
534.7659	-0.0065
534.9621	0.0005
535.1582	-0.0115
535.3544	-0.0078
535.5505	-0.0087
535.7466	-0.0095
535.9427	-0.0132
536.1387	-0.0075
536.3348	-0.0047
536.5308	0.0004
536.7269	-0.0094
536.9229	-0.0091
537.1189	-0.0062
537.3148	-0.0054
537.5108	-0.0161
537.7068	-0.0033
537.9027	-0.0098
538.0986	-0.0018
538.2945	-0.0118
538.4904	-0.0092
538.6863	-0.0123
538.8821	-0.0079
539.078	-0.0159
539.2738	0.0023
539.4696	-0.01
539.6654	0.0017
539.8611	0.0085
540.0569	-0.0024
540.2526	-0.0104
540.4484	0.0014
540.6441	0.0019
540.8398	-0.001
541.0355	-0.0046
541.2311	-0.0098
541.4268	-0.0149
541.6224	0.0062
541.818	-0.0064
542.0136	-0.0066
542.2092	-0.0016
542.4048	-0.0034
542.6003	-0.0046
542.7959	-0.0011
542.9914	-0.0036
543.1869	-0.0036
543.3824	0.0034
543.5779	-0.0088
543.7734	-0.0053
543.9688	-0.0079
544.1642	0.0009
544.3596	-0.0083
544.555	-0.0095
544.7504	-0.0078
544.9458	-0.012
545.1411	-0.0107
545.3365	-0.0049
545.5318	-0.005
545.7271	-0.002
545.9224	-0.0102
546.1177	0.0094
546.3129	-0.0021
546.5081	-0.0091
546.7034	0.0028
546.8986	-0.0072
547.0938	-0.0056
547.289	-0.0083
547.4841	0.0013
547.6793	-0.0012
547.8744	-0.0054
548.0695	-0.007
548.2646	-0.0078
548.4597	-0.0049
548.6548	-0.0009
548.8498	0.0002
549.0448	0.0093
549.2399	-0.0072
549.4349	-0.0008
549.6298	0.0076
549.8248	-0.0027
550.0198	-0.0029
550.2147	-0.0039
550.4096	-0.0155
550.6045	-0.0075
550.7994	0.006
550.9943	0.0044
551.1892	0.0037
551.384	0.0061
551.5788	-0.0046
551.7737	-0.002
551.9685	0.004
552.1632	-0.0019
552.358	-0.0124
552.5528	0.0017
552.7475	-0.0022
552.9422	-0.0056
553.1369	0.0026
553.3316	0.0001
553.5263	-0.0099
553.7209	-0.005
553.9156	-0.0033
554.1102	-0.0062
554.3048	-0.0027
554.4994	0.0098
554.694	-0.006
554.8885	-0.0016
555.0831	-0.0079
555.2776	-0.0032
555.4721	-0.0045
555.6666	-0.0021
555.8611	-0.001
556.0555	-0.0004
556.25	-0.0078
556.4444	-0.011
556.6388	0.0002
556.8332	-0.0091
557.0276	-0.001
557.222	-0.0052
557.4163	0.0006
557.6107	-0.0101
557.805	0.0093
557.9993	-0.0082
558.1936	-0.008
558.3879	-0.002
558.5821	-0.0049
558.7764	-0.0077
558.9706	-0.0029
559.1648	0.0071
559.359	-0.0074
559.5532	-0.0197
559.7473	0.001
559.9415	-0.0029
560.1356	-0.0034
560.3297	-0.0126
560.5238	-0.0007
560.7179	0.0077
560.9119	-0.0058
561.106	-0.0047
561.3	-0.0036
561.494	-0.0064
561.688	-0.0081
561.882	-0.009
562.076	-0.012
562.2699	0.0039
562.4639	-0.0012
562.6578	-0.0007
562.8517	-0.0037
563.0456	-0.0001
563.2395	-0.0028
563.4333	-0.0059
563.6272	0.0108
563.821	-0.0054
564.0148	0.003
564.2086	0.0009
564.4024	0.0014
564.5961	0.0009
564.7899	0.0053
564.9836	-0.0068
565.1773	-0.0026
565.371	0.0065
565.5647	0.0054
565.7584	-0.0027
565.952	-0
566.1456	-0.0004
566.3393	-0.0034
566.5329	-0.0055
566.7264	-0.0028
566.92	-0.0064
567.1136	-0.0011
567.3071	-0.0067
567.5006	-0.0015
567.6941	0.0003
567.8876	0.0022
568.0811	-0.0022
568.2745	-0.0032
568.468	0.003
568.6614	-0.0016
568.8548	-0.0012
569.0482	-0.0013
569.2416	-0.0016
569.4349	0.0024
569.6283	0.0058
569.8216	-0.0031
570.0149	-0.0029
570.2082	0.0057
570.4015	-0.0027
570.5947	0.01
570.788	0.0033
570.9812	0.0014
571.1744	-0.0003
571.3676	-0.0069
571.5608	-0.0062
571.754	-0.0039
571.9471	0.002
572.1402	0.0022
572.3333	0.0004
572.5264	-0.0021
572.7195	-0.0005
572.9126	-0.0008
573.1057	-0.0028
573.2987	-0.0051
573.4917	0.0014
573.6847	-0.0078
573.8777	-0.0003
574.0707	0.0011
574.2636	-0.0042
574.4566	-0.0052
574.6495	-0.0034
574.8424	0.0009
575.0353	-0.0029
575.2281	0.008
575.421	0.0008
575.6138	0.0067
575.8067	-0.0065
575.9995	-0.0024
576.1923	0.0023
576.385	-0.0026
576.5778	0.0016
576.7706	0.0021
576.9633	-0.0032
577.156	0.0051
577.3487	-0.002
577.5414	0.0014
577.734	0.0025
577.9267	0.0046
578.1193	-0.0151
578.3119	-0.0035
578.5045	-0.0011
578.6971	-0.0064
578.8897	0.004
579.0822	0.0027
579.2747	-0.0016
579.4673	-0.0025
579.6598	-0.003
579.8522	-0.0043
580.0447	-0.0056
580.2372	-0.0053
580.4296	-0
580.622	0.0009
580.8144	-0.0011
581.0068	-0.0047
581.1992	-0.0155
581.3915	-0.002
581.5839	-0.0077
581.7762	-0.0082
581.9685	0.0031
582.1608	0.0029
582.353	-0.002
582.5453	0.0016
582.7375	0.0031
582.9298	0.0009
583.122	-0.0006
583.3142	0.0013
583.5063	-0.0032
583.6985	-0.0024
583.8906	-0.0006
584.0827	-0.0012
584.2749	0.0018
584.4669	-0.0036
584.659	-0.0022
584.8511	-0.0039
585.0431	-0.0051
585.2352	0.003
585.4272	0
585.6192	-0.0003
585.8111	-0.0043
586.0031	-0.0014
586.195	-0.0036
586.387	0.0091
586.5789	0.0019
586.7708	-0.002
586.9627	-0.0045
587.1545	-0.0073
587.3464	-0.0008
587.5382	0.0035
587.73	-0.0016
587.9218	-0.0005
588.1136	-0.0007
588.3053	-0.0014
588.4971	-0.0006
588.6888	-0.0118
588.8805	0.0002
589.0722	0.0091
589.2639	0.003
589.4556	0.0024
589.6472	-0.005
589.8389	-0.0074
590.0305	-0.0121
590.2221	0.0022
590.4137	-0.0053
590.6052	0.0118
590.7968	0.005
590.9883	-0.0018
591.1798	-0.0028
591.3713	-0.0003
591.5628	0.0059
591.7543	0.0027
591.9458	-0.001
592.1372	0.004
592.3286	0.0046
592.52	-0.0008
592.7114	-0.0049
592.9028	-0.0072
593.0941	-0.0062
593.2855	0.0016
593.4768	-0.0086
593.6681	-0.0091
593.8594	-0.0097
594.0506	-0.0071
594.2419	0.0032
594.4331	-0.0004
594.6244	0.0104
594.8156	-0.0052
595.0067	0.0083
595.1979	0.0013
595.3891	-0.0015
595.5802	-0.0036
595.7713	-0.0099
595.9624	-0.0042
596.1535	0.0021
596.3446	-0.0021
596.5357	-0.0012
596.7267	-0.0013
596.9177	0.001
597.1087	-0.0012
597.2997	-0.0014
597.4907	0.0033
597.6817	-0.0032
597.8726	0.0006
598.0635	0.0027
598.2544	-0.0061
598.4453	-0.002
598.6362	-0.0051
598.827	-0.0042
599.0179	0.0071
599.2087	0.0023
599.3995	0.0033
599.5903	0.001
599.7811	-0.003
599.9718	-0.0008
600.1626	-0.0056
600.3533	-0.0095
600.544	0.003
600.7347	-0.0045
600.9254	0.0085
601.116	-0.0119
601.3067	-0.0058
601.4973	-0.0044
601.6879	0.0026
601.8785	-0.0083
602.0691	0.0088
602.2596	0.0008
602.4502	0.0007
602.6407	-0.0021
602.8312	0.0009
603.0217	-0.0024
603.2122	-0.0027
603.4027	-0.0036
603.5931	0.0019
603.7835	-0.0012
603.9739	-0.0013
604.1643	-0.0029
604.3547	-0.0076
604.5451	0.0024
604.7354	0.0005
604.9257	-0
605.116	-0.001
605.3063	0.0029
605.4966	0.0053
605.6869	0.0011
605.8771	0.0086
606.0673	0.0043
606.2575	0.0046
606.4477	0.0063
606.6379	0.0017
606.8281	0.0006
607.0182	-0.0055
607.2083	0.0037
607.3985	-0.0037
607.5885	-0.0021
607.7786	0.0029
607.9687	0.0016
608.1587	0.0013
608.3488	-0.0014
608.5388	-0.0009
608.7288	-0.0021
608.9187	-0.0005
609.1087	-0.0074
609.2986	-0.0011
609.4886	-0.0022
609.6785	0.0035
609.8684	0.0061
610.0582	0.0101
610.2481	0.001
610.4379	0.0061
610.6278	-0.0024
610.8176	0.0003
611.0074	-0.0031
611.1971	0.001
611.3869	-0.0079
611.5766	-0.0029
611.7664	0.0013
611.9561	0.0002
612.1458	-0.0011
612.3354	-0.0034
612.5251	-0.0065
612.7147	0.0009
612.9044	-0.0008
613.094	-0.0015
613.2836	0.0021
613.4731	-0.0068
613.6627	-0.0044
613.8522	0.0089
614.0417	0.0036
614.2313	0.0004
614.4207	-0.0065
614.6102	-0.0007
614.7997	0.001
614.9891	-0.0001
615.1785	-0.0012
615.3679	-0.0044
615.5573	0.0072
615.7467	-0.001
615.9361	-0.002
616.1254	0.0043
616.3147	0.0067
616.504	0.0073
616.6933	0.0015
616.8826	0.0088
617.0718	0.0061
617.2611	0.0058
617.4503	-0.003
617.6395	-0.0042
617.8287	0.0019
618.0179	-0.0016
618.207	0.0095
618.3961	0.0021
618.5853	-0.0017
618.7744	0.0062
618.9634	0.0059
619.1525	0.0018
619.3416	0.0036
619.5306	0.0043
619.7196	-0.0029
619.9086	-0.0077
620.0976	-0.0046
620.2866	-0.0055
620.4755	0.0088
620.6645	0.0021
620.8534	0.0073
621.0423	0.0016
621.2312	0.0048
621.42	0.0036
621.6089	-0.0021
621.7977	0.0057
621.9865	-0.0005
622.1753	0.0039
622.3641	-0.0062
622.5529	0.0067
622.7416	0.0038
622.9303	-0.0067
623.1191	0.0042
623.3078	-0.0058
623.4964	-0.0031
623.6851	-0.0028
623.8737	-0.007
624.0624	0.0076
624.251	-0.0035
624.4396	-0.0048
624.6282	-0.0072
624.8167	-0.0041
625.0053	0.0016
625.1938	0.0027
625.3823	0.0072
625.5708	-0.0069
625.7593	-0.0093
625.9477	-0.0015
626.1362	-0.0044
626.3246	-0.003
626.513	-0.0013
626.7014	0.0031
626.8898	-0.0042
627.0781	0.0021
627.2665	-0.0039
627.4548	0.0025
627.6431	-0.004
627.8314	-0.0054
628.0197	0.0025
628.2079	-0.0028
628.3962	-0.0075
628.5844	0.0068
628.7726	0.0033
628.9608	0.0018
629.1489	0.0058
629.3371	0.0087
629.5252	0.002
629.7134	0.0097
629.9015	0.0001
630.0895	-0.0051
630.2776	-0.0015
630.4657	-0.0047
630.6537	-0.0019
630.8417	-0.0013
631.0297	-0.009
631.2177	0.0001
631.4057	-0.0101
631.5936	0.0095
631.7815	0.0064
631.9695	-0.001
632.1574	0.0089
632.3452	0.0074
632.5331	-0.0021
632.7209	-0.0005
632.9088	0.0103
633.0966	0.0092
633.2844	-0.0001
633.4722	-0.0043
633.6599	0.012
633.8477	0.0029
634.0354	0.0006
634.2231	-0.0043
634.4108	0.0048
634.5985	0.0103
634.7861	0.0011
634.9738	-0.0031
635.1614	0.0025
635.349	0.0025
635.5366	-0.0042
635.7242	-0.0048
635.9117	0.0047
636.0993	-0.0074
636.2868	0.0026
636.4743	-0.0005
636.6618	0.0108
636.8492	0.0082
637.0367	0.0017
637.2241	-0.0046
637.4115	-0.0022
637.5989	0.0006
637.7863	0.0069
637.9737	0.0012
638.161	0.0023
638.3484	0.0004
638.5357	0.0052
638.723	0.0021
638.9103	-0
639.0975	0.0011
639.2848	0.0038
639.472	0.01
639.6592	0.0058
639.8464	0.0049
640.0336	0.0058
640.2208	0.001
640.4079	-0.0008
640.595	0.0065
640.7821	0.0034
640.9692	0.0032
641.1563	0.0015
641.3434	0.0091
641.5304	0.0017
641.7174	0.0016
641.9044	0.0096
642.0914	0.0034
642.2784	0.0089
642.4653	0.011
642.6523	0.006
642.8392	0.0028
643.0261	0.0036
643.213	0.0034
643.3999	-0.0025
643.5867	-0.0011
643.7735	0.0039
643.9604	-0.0048
644.1472	0.0019
644.3339	0.0045
644.5207	0.0045
644.7075	-0.0025
644.8942	0.0063
645.0809	0.0147
645.2676	0.0019
645.4543	-0.0003
645.6409	0.0088
645.8276	0.0018
646.0142	0.0035
646.2008	-0.0023
646.3874	-0.007
646.574	0.0053
646.7605	-0.0062
646.9471	-0.0138
647.1336	-0.0034
647.3201	0.0057
647.5066	0.0012
647.6931	0.0004
647.8795	-0.0044
648.0659	0.003
648.2524	0.0034
648.4388	-0.0047
648.6252	0.0014
648.8115	0.0039
648.9979	-0.0036
649.1842	0.001
649.3705	0.0036
649.5568	0.0042
649.7431	0.0037
649.9294	-0.0003
650.1156	0.0071
650.3018	-0.0073
650.488	0.0061
650.6742	0.0068
650.8604	-0.0035
651.0466	-0.0082
651.2327	0.002
651.4188	0.0005
651.6049	-0.0074
651.791	-0.0056
651.9771	0.0043
652.1632	0.0025
652.3492	-0.0036
652.5352	0.0011
652.7212	0.0026
652.9072	0.0001
653.0932	-0.0037
653.2791	-0.0046
653.465	-0.0056
653.651	-0.004
653.8369	-0.0009
654.0227	0.0026
654.2086	0.0029
654.3944	0.0086
654.5803	-0.0009
654.7661	0.0019
654.9519	-0.0003
655.1377	-0.0041
655.3234	-0.0023
655.5092	-0.002
655.6949	-0.0071
655.8806	-0.0083
656.0663	-0.0038
656.2519	-0.0035
656.4376	-0.0021
656.6232	0.0057
656.8088	0.0033
656.9945	-0.002
657.18	0.0007
657.3656	0.006
657.5511	-0.0035
657.7367	-0.0042
657.9222	0.0079
658.1077	0.0058
658.2932	-0.0023
658.4786	-0.005
658.6641	-0.0015
658.8495	0.0009
659.0349	-0.0059
659.2203	0.0072
659.4057	-0.0005
659.591	0.0007
659.7764	0.0009
659.9617	0.0008
660.147	-0.0032
660.3323	0.0069
660.5176	0.0112
660.7028	0.0049
660.888	0.0016
661.0733	-0.0018
661.2585	-0.0042
661.4436	-0.0037
661.6288	-0.0045
661.8139	-0.0036
661.9991	0.0036
662.1842	-0.0026
662.3693	0.0047
662.5544	-0.0052
662.7394	0.0015
662.9245	0
663.1095	0.0021
663.2945	-0.0036
663.4795	0.0001
663.6644	0.0025
663.8494	0.0004
664.0343	0.0045
664.2193	-0.0041
664.4042	-0.0018
664.589	-0.0098
664.7739	-0.0014
664.9587	-0.0118
665.1436	-0.0027
665.3284	-0.003
665.5132	-0.0085
665.698	0.0004
665.8827	0.0003
666.0675	-0.0009
666.2522	-0.002
666.4369	0.0003
666.6216	0.0001
666.8063	0.0054
666.9909	0.0018
667.1756	-0.0042
667.3602	-0.0015
667.5448	0.0051
667.7294	0.0037
667.9139	0.0107
668.0985	0.011
668.283	-0.0028
668.4675	0.0061
668.652	-0.0008
668.8365	-0.0015
669.0209	0.0058
669.2054	0.0111
669.3898	-0.0023
669.5742	0.0048
669.7586	0.0082
669.943	0.0026
670.1273	0.0007
670.3117	-0.0018
670.496	0.0067
670.6803	0.0119
670.8646	0.0079
671.0488	-0.0056
671.2331	0.0076
671.4173	0.0066
671.6015	-0.005
671.7857	0.0012
671.9699	0.01
672.1541	0.0102
672.3382	0.0044
672.5223	0.0036
672.7064	-0.0063
672.8905	0.0071
673.0746	-0.001
673.2587	-0.0033
673.4427	0.004
673.6267	0.0067
673.8107	0.0144
673.9947	0.0075
674.1787	-0.0017
674.3626	0.0008
674.5465	0.0062
674.7304	0.0102
674.9143	0.0091
675.0982	0.0088
675.2821	-0.0082
675.4659	0.0054
675.6497	0.0003
675.8335	-0.0007
676.0173	-0.005
676.2011	-0.0033
676.3849	-0.001
676.5686	-0.0106
676.7523	-0.0054
676.936	-0.0059
677.1197	-0.0038
677.3034	-0.002
677.487	0.0041
677.6706	0.0013
677.8542	0.0075
678.0378	0.0061
678.2214	-0.0002
678.405	-0.0021
678.5885	-0.0106
678.772	-0.0014
678.9555	-0.0038
679.139	0.0012
679.3225	0.0055
679.5059	0.0018
679.6894	0.0003
679.8728	0.0093
680.0562	-0.006
680.2395	-0.002
680.4229	0.0007
680.6062	-0.0008
680.7896	-0.0009
680.9729	-0.0042
681.1562	0.0083
681.3394	0.0052
681.5227	-0.0056
681.7059	-0.001
681.8891	0.0011
682.0723	0.0055
682.2555	0.0019
682.4387	-0.0052
682.6218	-0.0037
682.805	0.0057
682.9881	0.001
683.1712	-0.0061
683.3542	-0.0003
683.5373	0.0026
683.7203	-0.0087
683.9034	0.0017
684.0864	-0.0038
684.2694	-0.0041
684.4523	-0.0006
684.6353	-0.0049
684.8182	0.0026
685.0011	-0.0129
685.184	0.0021
685.3669	-0.0032
685.5498	-0.0023
685.7326	0.0011
685.9154	-0.0097
686.0982	0.0046
686.281	0.0071
686.4638	-0.0026
686.6465	0.0013
686.8293	-0.0031
687.012	0.0012
687.1947	-0.01
687.3774	0.0005
687.56	-0.008
687.7427	0.0041
687.9253	-0.006
688.1079	-0.0067
688.2905	0.0117
688.4731	-0.0075
688.6556	-0.0012
688.8382	-0.0053
689.0207	-0.0008
689.2032	-0.0058
689.3857	-0.0125
689.5681	-0.0031
689.7506	-0.015
689.933	-0.0006
690.1154	-0.0039
690.2978	-0.0045
690.4802	0.006
690.6626	-0.0175
690.8449	-0.0054
691.0272	0.0049
691.2095	-0.0109
691.3918	-0.0058
691.5741	0.0001
691.7563	-0.0036
691.9386	-0.0006
692.1208	-0.0057
692.303	0.003
692.4852	-0.0038
692.6673	0.0005
692.8495	-0.0042
693.0316	-0.0036
693.2137	0.0006
693.3958	0.003
693.5778	-0.0015
693.7599	-0.0001
693.9419	-0.0011
694.1239	-0.0019
694.3059	-0.0017
694.4879	0.0096
694.6699	0.0096
694.8518	-0.0038
695.0337	-0.0001
695.2157	0.0053
695.3975	0.0002
695.5794	0.0091
695.7613	0.0025
695.9431	0.0017
696.1249	0.0024
696.3067	0.0026
696.4885	0.0056
696.6703	-0.0135
696.852	0.0036
697.0337	-0.0001
697.2154	-0.0006
697.3971	0.001
697.5788	0.0039
697.7605	-0.001
697.9421	0.0045
698.1237	-0.005
698.3053	0.0006
698.4869	-0.0081
698.6685	-0.0048
698.85	-0.0017
699.0315	0.0037
699.213	-0.0031
699.3945	-0.0009
699.576	0.005
699.7575	0.0021
699.9389	-0.0016
700.1203	0.0065
700.3017	-0.0118
700.4831	-0.0147
700.6645	-0.0064
700.8458	-0.003
701.0271	-0.0084
701.2084	-0.0032
701.3897	0.0031
701.571	0.0087
701.7523	0.0002
701.9335	0.0064
702.1147	0.0045
702.2959	0.005
702.4771	-0.0039
702.6583	0.004
702.8394	-0.0036
703.0205	0.0019
703.2016	-0.0024
703.3827	-0.0064
703.5638	0.0098
703.7449	0.003
703.9259	0.0126
704.1069	-0.0113
704.2879	0.0066
704.4689	0.0129
704.6499	-0.0005
704.8308	-0.0023
705.0117	0.0019
705.1927	0.0004
705.3735	0.0016
705.5544	-0.0074
705.7353	0.0002
705.9161	-0.0017
706.0969	-0.0042
706.2777	0.0064
706.4585	-0.0059
706.6393	-0.0023
706.82	-0.0032
707.0007	0.0037
707.1815	0.0038
707.3621	0.007
707.5428	-0.0028
707.7235	0.0091
707.9041	0.0106
708.0847	-0.0032
708.2653	-0.0002
708.4459	-0.0215
708.6265	0.0046
708.807	-0.0039
708.9875	-0.0007
709.168	-0.001
709.3485	-0.0095
709.529	-0.0068
709.7095	-0.0103
709.8899	0.0039
710.0703	-0.0029
710.2507	0.0031
710.4311	-0.0018
710.6115	-0.0005
710.7918	-0.0009
710.9721	-0.0014
711.1524	-0.0065
711.3327	-0.0075
711.513	0.0076
711.6932	0.0027
711.8735	0.0042
712.0537	-0.0001
712.2339	-0.003
712.4141	-0.0062
712.5942	-0.0066
712.7744	-0.0051
712.9545	-0.0053
713.1346	-0.0066
713.3147	-0.0029
713.4947	-0.0014
713.6748	0.0007
713.8548	-0.0048
714.0348	-0.0113
714.2148	-0.0014
714.3948	0.0076
714.5748	-0.0142
714.7547	-0.0037
714.9346	0.0018
715.1145	-0.0015
715.2944	0.0038
715.4743	-0.0012
715.6541	-0.0052
715.834	0.005
716.0138	-0.0051
716.1936	-0.0184
716.3733	-0.0125
716.5531	0.0066
716.7328	-0.0074
716.9126	-0.0048
717.0923	0.0002
717.2719	0.0095
717.4516	0.0026
717.6312	0.0077
717.8109	-0.0011
717.9905	0.002
718.1701	0.0001
718.3496	-0.0062
718.5292	-0.0079
718.7087	-0.0039
718.8882	0.0017
719.0677	0.0028
719.2472	0.0053
719.4267	0.0023
719.6061	-0.0005
719.7856	0.0097
719.965	0.0018
720.1443	-0.0078
720.3237	0.0107
720.5031	0.0004
720.6824	0.0128
720.8617	-0.0067
721.041	-0.0004
721.2203	0.0121
721.3995	0.0028
721.5788	0.0042
721.758	0.0067
721.9372	-0.0035
722.1164	-0.0053
722.2956	-0.0065
722.4747	-0.003
722.6538	0.0019
722.8329	0.013
723.012	0.0054
723.1911	0.0024
723.3702	-0.0029
723.5492	0.0016
723.7282	-0.0007
723.9072	0.0061
724.0862	-0.0059
724.2652	-0.003
724.4441	-0.0032
724.623	-0.0062
724.8019	-0.0038
724.9808	-0.0032
725.1597	-0.0081
725.3385	-0.001
725.5174	0.0025
725.6962	-0.0046
725.875	-0.0007
726.0538	-0.0035
726.2325	-0.0007
726.4112	0.0092
726.59	-0.0033
726.7687	-0.0075
726.9474	0.0051
727.126	0.0095
727.3047	-0.0064
727.4833	0.0057
727.6619	0.0022
727.8405	-0.0023
728.0191	0.0033
728.1976	-0.0015
728.3762	-0.0047
728.5547	0.0022
728.7332	-0.0168
728.9116	-0.0059
729.0901	0.0028
729.2686	-0.0052
729.447	-0.0058
729.6254	-0.0055
729.8038	-0.0003
729.9821	-0.0086
730.1605	-0.0006
730.3388	-0.0009
730.5171	0.0035
730.6954	-0.0086
730.8737	0.0044
731.0519	-0.0039
731.2302	-0.0002
731.4084	0.011
731.5866	0.0015
731.7648	-0.0039
731.9429	0.003
732.1211	-0.0061
732.2992	-0.0031
732.4773	-0.0061
732.6554	-0.0031
732.8335	0.0065
733.0115	-0.0004
733.1896	0.0011
733.3676	-0.0034
733.5456	0.0001
733.7235	0.0007
733.9015	0.0023
734.0794	-0.001
734.2574	0.0019
734.4353	0.0018
734.6131	0.0028
734.791	-0.0004
734.9689	-0.006
735.1467	0.0043
735.3245	-0.0122
735.5023	-0.0137
735.68	-0.0055
735.8578	0.0016
736.0355	-0.0191
736.2132	-0.0006
736.3909	-0.0059
736.5686	-0.0071
736.7463	0.0044
736.9239	-0.0104
737.1015	-0.0022
737.2791	0.0064
737.4567	0.0053
737.6343	-0.0039
737.8118	0.0082
737.9894	0.0018
738.1669	-0.0049
738.3444	-0.0055
738.5218	-0.0011
738.6993	0.0009
738.8767	-0.0112
739.0541	0.0123
739.2315	-0.0078
739.4089	0.0016
739.5863	0.0104
739.7636	-0.0007
739.9409	-0.0031
740.1182	0.0083
740.2955	0.003
740.4728	0.0014
740.65	-0.0064
740.8272	-0.0002
741.0044	-0.0089
741.1816	0.0025
741.3588	-0.0038
741.5359	-0.0004
741.7131	-0.0112
741.8902	-0.0077
742.0673	-0.0053
742.2444	-0.0098
742.4214	-0.0106
742.5985	-0.007
742.7755	-0.014
742.9525	-0.019
743.1295	-0.0041
743.3064	-0.0024
743.4834	-0.0021
743.6603	-0.0059
743.8372	0.0003
744.0141	0.0016
744.191	-0.0001
744.3678	-0.0002
744.5446	-0.0034
744.7215	-0.0085
744.8982	-0.0072
745.075	-0.0179
745.2518	-0.0035
745.4285	0.001
745.6052	-0.0086
745.7819	-0.0072
745.9586	-0.0017
746.1353	0.003
746.3119	-0.0126
746.4885	-0.0145
746.6651	-0.0022
746.8417	0.0036
747.0183	0.0016
747.1948	-0.0028
747.3714	0.0017
747.5479	0.0063
747.7244	-0.0037
747.9008	0.0005
748.0773	-0.0048
748.2537	-0.0018
748.4301	-0.002
748.6065	0.0056
748.7829	0.0072
748.9593	-0.0034
749.1356	-0.0051
749.3119	0.0079
749.4882	-0.0115
749.6645	0.0049
749.8408	-0.0063
750.017	-0.0019
750.1933	0.0075
750.3695	-0.003
750.5457	0.0094
750.7218	-0.0006
750.898	-0.0017
751.0741	-0.0052
751.2502	-0.0095
751.4263	-0.006
751.6024	-0.0019
751.7784	-0.0068
751.9545	-0.0016
752.1305	-0.0038
752.3065	-0.0005
752.4825	-0.0021
752.6584	-0.0044
752.8344	-0.0016
753.0103	-0.0087
753.1862	0.0017
753.3621	-0.0046
753.5379	-0.0086
753.7138	0.0072
753.8896	-0.0008
754.0654	0.0006
754.2412	0.0061
754.417	0.0085
754.5927	-0.0038
754.7685	-0.002
754.9442	-0.0004
755.1199	0.0221
755.2956	-0.0012
755.4712	0.0079
755.6469	0.0116
755.8225	-0.0028
755.9981	0.0066
756.1736	0.0047
756.3492	0.0009
756.5248	-0.0034
756.7003	0.0027
756.8758	0.0047
757.0513	-0.006
757.2267	-0.0079
757.4022	0.0025
757.5776	-0.011
757.753	-0.0003
757.9284	-0.0052
758.1038	0.0034
758.2791	-0.0036
758.4545	-0.0103
758.6298	0.0022
758.8051	-0.0023
758.9803	-0.0091
759.1556	-0.005
759.3308	-0.0031
759.506	0.0012
759.6812	0.0041
759.8564	0.0034
760.0316	0.0076
760.2067	0.004
760.3819	0.0024
760.557	0.0128
760.732	-0.0008
760.9071	-0.0087
761.0821	0.0046
761.2572	0.0098
761.4322	0.0036
761.6072	0.0061
761.7821	0.007
761.9571	0.0147
762.132	0.0053
762.3069	-0.0007
762.4818	0.004
762.6567	0.0045
762.8316	0.0011
763.0064	0.004
763.1812	0.0021
763.356	-0.0136
763.5308	0.0008
763.7055	0.0072
763.8803	-0.0036
764.055	0.0048
764.2297	-0.0074
764.4044	-0.0116
764.579	-0.0161
764.7537	-0.007
764.9283	-0.0008
765.1029	-0.0074
765.2775	-0.007
765.4521	-0.0077
765.6266	-0.0028
765.8011	-0.0014
765.9756	0.0031
766.1501	0.0127
766.3246	-0.0029
766.4991	0.0022
766.6735	-0.0058
766.8479	-0.0002
767.0223	0.0062
767.1967	-0.0021
767.371	0.0058
767.5454	0.0011
767.7197	0.0046
767.894	-0.0007
768.0683	-0.0067
768.2425	-0.0028
768.4168	-0.0022
768.591	-0.0018
768.7652	0.0038
768.9394	-0.0036
769.1135	0.0033
769.2877	0.0036
769.4618	0.002
769.6359	0.0018
769.81	-0.0019
769.984	0.0065
770.1581	0.0011
770.3321	0.0082
770.5061	0.0081
770.6801	-0.0063
770.8541	0.0083
771.028	0.0116
771.202	-0.0079
771.3759	0.0182
771.5498	-0.0018
771.7236	0.0022
771.8975	0.0039
772.0713	0.0079
772.2451	0.0041
772.4189	0.009
772.5927	0.0064
772.7665	0.0013
772.9402	0.0079
773.1139	-0.0022
773.2876	-0.0069
773.4613	0.0002
773.635	0.0148
773.8086	-0.0073
773.9822	0.0073
774.1558	0.0014
774.3294	-0.0052
774.503	-0.0033
774.6765	0.0035
774.8501	0.0061
775.0236	0.0098
775.1971	0.0133
775.3705	-0.0207
775.544	0.0084
775.7174	-0.0139
775.8908	0.0019
776.0642	-0.0129
776.2376	0.0046
776.4109	-0.0062
776.5843	-0.0049
776.7576	0.0161
776.9309	0.0154
777.1041	-0.0008
777.2774	0.0051
777.4506	0.0042
777.6238	-0.0042
777.797	-0.0057
777.9702	0.0056
778.1434	0.0043
778.3165	-0.0102
778.4896	-0.0064
778.6627	0.0155
778.8358	-0.01
779.0089	0.0062
779.1819	-0.0042
779.3549	0.0088
779.5279	0.0146
779.7009	-0.0045
779.8739	0.0074
780.0468	-0.0121
780.2197	0.0025
780.3926	-0.0092
780.5655	0.0013
780.7384	0.0074
780.9112	-0.0137
781.0841	-0.0059
781.2569	-0.0015
781.4297	-0.0092
781.6024	0.0072
781.7752	0.0074
781.9479	-0.0005
782.1206	0.0026
782.2933	-0.0077
782.466	0.0041
782.6386	0.0088
782.8113	0.0027
782.9839	0.0028
783.1565	0.0167
783.329	-0.0011
783.5016	0.0011
783.6741	0.0091
783.8466	0.0005
784.0191	0.0138
784.1916	0.0017
784.3641	0.0016
784.5365	-0.0028
784.7089	-0.01
784.8813	-0.0064
785.0537	-0.0077
785.2261	0.0013
785.3984	-0.0134
785.5707	0.0093
785.743	-0.0027
785.9153	-0.0022
786.0876	0.0061
786.2598	0.0008
786.432	-0.0126
786.6042	0.0029
786.7764	0.0052
786.9486	-0.0137
787.1207	-0.0223
787.2928	0.0054
787.4649	0.0031
787.637	0.0032
787.8091	-0.0007
787.9811	-0.0003
788.1532	-0.0066
788.3252	0.0012
788.4972	0.0044
788.6691	0.0027
788.8411	-0.0009
789.013	-0.0141
789.1849	0.0065
789.3568	-0.0113
789.5287	-0.0138
789.7005	-0.0077
789.8723	0.0003
790.0442	0.0156
790.2159	0.0041
790.3877	-0.0145
790.5595	-0.0129
790.7312	-0.0124
790.9029	-0.0034
791.0746	-0.0111
791.2463	-0.013
791.4179	0.0083
791.5896	-0.0019
791.7612	-0.0054
791.9328	0.007
792.1044	-0.0089
792.2759	-0.0202
792.4474	-0.0106
792.619	0.0064
792.7905	0.0053
792.9619	0.0012
793.1334	-0.0013
793.3048	0.0053
793.4762	0.0115
793.6476	0.005
793.819	-0.0136
793.9904	0.0107
794.1617	-0.0152
794.333	0.0158
794.5043	-0.0069
794.6756	-0.009
794.8469	0.008
795.0181	-0.0134
795.1893	-0.0012
795.3605	-0.0003
795.5317	0.0029
795.7029	-0.0072
795.874	-0.0007
796.0452	-0.0028
796.2163	-0.0153
796.3873	0.0155
796.5584	0.0005
796.7294	-0.0014
796.9005	0.0036
797.0715	0.0104
797.2425	-0.0184
797.4134	-0.002
797.5844	-0.0139
797.7553	-0.0086
797.9262	0.0064
798.0971	-0.0123
798.2679	-0.0067
798.4388	-0.0102
798.6096	-0.0036
798.7804	-0.0077
798.9512	-0.0067
799.122	-0.0146
799.2927	-0.0093
799.4635	0.0167
799.6342	-0.0214
799.8049	-0.0062
799.9755	0.0019
800.1462	-0.0048
800.3168	0.0193
800.4874	-0.0046
800.658	0.014
800.8286	0.0037
800.9991	0.0119
801.1696	0.0045
801.3402	0.0144
801.5106	0.0022
801.6811	0.0155
801.8516	0.0044
802.022	0.0035
802.1924	0.0173
802.3628	0.0113
802.5332	0.0061
802.7035	0.0212
802.8739	-0.0055
803.0442	-0.0155
803.2145	0.0157
803.3847	-0.0146
803.555	0.0042
803.7252	0.0037
803.8954	-0.0095
804.0656	-0.0299
804.2358	-0.0067
804.4059	0.0153
804.5761	0.0078
804.7462	0.0017
804.9163	-0
805.0864	-0.0116
805.2564	-0.0043
805.4264	0.0064
805.5965	-0.013
805.7665	0.001
805.9364	0.002
806.1064	0.0201
806.2763	-0.0034
806.4462	0.0233
806.6161	0.0262
806.786	-0.0026
806.9559	-0.0112
807.1257	-0.0158
807.2955	-0.0005
807.4653	-0.0168
807.6351	0.0014
807.8048	-0.0033
807.9746	0.0016
808.1443	0.0125
808.314	-0.0119
808.4837	-0.0144
808.6533	-0.0059
808.8229	0.0282
808.9926	0.0074
809.1622	0.0106
809.3317	-0.0165
809.5013	-0.0131
809.6708	0.0026
809.8403	0.0135
810.0098	-0.0011
810.1793	0.0071
810.3488	-0.0038
810.5182	-0.0252
810.6876	0.0225
810.857	-0.0127
811.0264	0.0251
811.1958	0.0103
811.3651	0.0063
811.5344	-0.0133
811.7037	0.0034
811.873	-0.0089
812.0422	0.013
812.2115	-0
812.3807	-0.0141
812.5499	-0.0017
812.7191	0.0051
812.8882	-0.0211
813.0574	0.0226
813.2265	-0.0022
813.3956	-0.0075
813.5646	0.008
813.7337	-0.0221
813.9027	0.0021
814.0718	0.0173
814.2407	0.001
814.4097	-0.0072
814.5787	-0.0149
814.7476	-0.0043
814.9165	0.005
815.0854	-0.0137
815.2543	-0.0032
815.4232	-0.0096
815.592	0.0069
815.7608	-0.0062
815.9296	0.0035
816.0984	0.0017
816.2671	0.0101
816.4359	-0.0049
816.6046	0.0034
816.7733	-0.0194
816.942	-0.0051
817.1106	-0.0004
817.2793	0.0006
817.4479	-0.0064
817.6165	0.0165
817.785	-0.0113
817.9536	-0.0264
818.1221	-0.013
818.2906	0.0048
818.4591	-0.0123
818.6276	-0.0266
818.7961	-0.0001
818.9645	0.0186
819.1329	-0.0103
819.3013	0.0322
819.4697	0.0212
819.638	0.01
819.8064	0.0078
819.9747	0.0006
820.143	-0.0011
820.3113	-0.0058
820.4795	0.0141
820.6477	0.0065
820.816	-0.0101
820.9842	0.0057
821.1523	0.0065
821.3205	-0.0067
821.4886	0.0233
821.6567	0.0075
821.8248	0.0348
821.9929	0.0233
822.1609	-0.0016
822.329	0.001
822.497	0.0208
822.665	-0.004
822.833	-0.0089
823.0009	0.0322
823.1688	0.0018
823.3367	0.0396
823.5046	-0.0039
823.6725	-0.0001
823.8404	0.0189
824.0082	0.007
824.176	-0.0098
824.3438	0.0317
824.5116	0.0075
824.6793	0.0095
824.847	-0.0218
825.0147	-0.0064
825.1824	0.0297
825.3501	-0.0071
825.5177	-0.0076
825.6854	-0.0086
825.853	-0.0067
826.0206	-0.0456
826.1881	0.0298
826.3557	-0.009
826.5232	0.0235
826.6907	-0.022
826.8582	0.0109
827.0257	0.0078
827.1931	-0.0099
827.3605	0.0174
827.528	-0.024
827.6953	0.0004
827.8627	-0.0139
828.03	0.0003
828.1974	0.0167
828.3647	-0.0088
828.532	-0.0424
828.6992	-0.0118
828.8665	0.0145
829.0337	0.0148
829.2009	0.0315
829.3681	-0.0026
829.5352	0.0235
829.7024	-0.0206
829.8695	-0.0366
830.0366	0.0448
830.2037	0.0224
830.3707	0.0338
830.5378	0.001
830.7048	-0.0092
830.8718	-0.0071
831.0388	-0.0052
831.2057	-0.0244
831.3727	0.0245
831.5396	-0.0108
831.7065	-0.0131
831.8734	0.0048
832.0402	-0.0233
832.2071	0.0033
832.3739	0.0146
832.5407	0.0071
832.7075	-0.0279
832.8742	-0.024
833.041	-0.0285
833.2077	0.0167
833.3744	0.0161
833.541	-0.0247
833.7077	0.0024
833.8743	0.0139
834.0409	0.0244
834.2075	0.0108
834.3741	-0.02
834.5407	0.0274
834.7072	0.0024
834.8737	0.0032
835.0402	-0.0094
835.2067	0.0315
835.3731	0.0293
835.5395	-0.0262
835.706	0.0184
835.8723	-0.003
836.0387	0.0136
836.2051	-0.0367
836.3714	0.0333
836.5377	0.0261
836.704	0.0049
836.8703	0.0253
837.0365	-0.0215
837.2027	-0.0128
837.3689	0.0433
837.5351	-0.0199
837.7013	-0.0297
837.8674	-0.0338
838.0335	-0.0478
838.1997	0.0097
838.3657	-0.05
838.5318	-0.0023
838.6978	0.0462
838.8639	0.0322
839.0299	0.0042
839.1958	-0.0325
839.3618	0.005
839.5277	0.0173
839.6937	0.0141
839.8596	-0.0179
840.0254	0.0032
840.1913	0.0065
840.3571	0.0078
840.523	-0.0158
840.6888	0.0171
840.8545	0.0027
841.0203	-0.008
841.186	0.0155
841.3517	0.0471
841.5174	-0.0198
841.6831	-0.044
841.8488	-0.0046
842.0144	0.01
842.18	0.0397
842.3456	0.0601
842.5112	-0.0132
842.6767	0.0068
842.8422	-0.018
843.0077	-0.0271
843.1732	0.0068
843.3387	-0.0484
843.5042	-0.0196
843.6696	0.0034
843.835	-0.0192
844.0004	0.0405
844.1657	-0.0032
844.3311	-0.0594
844.4964	-0.0391
844.6617	-0.0155
844.827	-0.0326
844.9923	0.0281
845.1575	0.0569
845.3227	0.0752
845.4879	0.0253
845.6531	-0.0147
845.8183	-0.0271
845.9834	0.0048
846.1485	-0.0013
846.3136	-0.0164
846.4787	-0.1192
846.6438	0.041
846.8088	-0.0669
846.9738	-0.056
847.1388	0.0749
847.3038	-0.0092
847.4687	-0.0886
847.6337	0.0348
847.7986	0.0011
847.9635	-0.0002
848.1284	-0.0029
848.2932	0.0628
848.458	-0.0531
848.6228	0.0687
848.7876	0.0083
848.9524	0.0067
849.1172	-0.0667
849.2819	0.0212
849.4466	-0.0114
849.6113	-0.0848
849.7759	0.0527
849.9406	-0.0595
850.1052	0.0194
850.2698	-0.0278
850.4344	0.0911
850.599	-0.0037
850.7635	0.0443
850.928	-0.0344
851.0925	0.0357
851.257	-0.0142
851.4215	0.0151
851.5859	-0.0279
851.7503	0.1291
851.9147	0.052
852.0791	-0.0051
852.2434	0.021
852.4078	0.0619
852.5721	0.0583
852.7364	0.0248
852.9007	-0.1177
853.0649	-0.0251
853.2291	0.0226
853.3934	0.0307
853.5575	0.0647
853.7217	-0.0966
853.8859	-0.1181
854.05	-0.031
854.2141	-0.0808
854.3782	-0.0804
854.5423	0.0263
854.7063	0.0762
854.8703	0.0586
855.0343	-0.0068
855.1983	-0.206
855.3623	0.2499
855.5262	0.0023
855.6901	-0.0509
855.854	0.0641
856.0179	0.2051
856.1818	0.1232
856.3456	-0.108
856.5094	-0.0569
856.6732	0.0361
856.837	-0.0679
857.0008	0.0286
857.1645	-0.0065
857.3282	0.0639
857.4919	0.0573
857.6556	0.0377
857.8192	0.1027
857.9828	0.0139
858.1465	0.1866
858.31	-0.0501
858.4736	0.0839
858.6372	-0.1022
858.8007	-0.0994
858.9642	0.0845
859.1277	0.0356
859.2911	-0.0568
859.4546	0.023
859.618	-0.3439
859.7814	-0.0072
859.9448	0.1661
860.1081	-0.1834
860.2715	0.0315
860.4348	0.6594
860.5981	0.0438
860.7614	0.2842
860.9246	-0.0723
861.0879	-0.091
861.2511	0.2289
861.4143	-0.2624
861.5774	0.2821
861.7406	-0.1973
861.9037	0.1121
862.0668	-0.0011
862.2299	0.0364
862.393	-0.4945
862.556	-0.0008
862.7191	-0.0246
862.8821	0.0587
863.0451	-0
863.208	0.0385
863.371	0.1593
863.5339	0.0588
863.6968	0.1107
863.8597	0.8547
864.0225	0.0766
864.1854	-0.1582
864.3482	-0
864.511	0.238
864.6737	0.1739
864.8365	0.3442
864.9992	-0
865.1619	-0.1333
865.3246	-0.3676
865.4873	-0.0561
865.65	0.0292
865.8126	-0.0668
865.9752	0.161
866.1378	0.2292
866.3004	0.1257
866.4629	0.5786
866.6254	0.2211
866.7879	0.1066
866.9504	0.0216
867.1129	-0
867.2753	-0
867.4377	0.3887
867.6001	-0.2764
867.7625	0.2578
867.9249	-0.4742
868.0872	-0.1278
868.2495	0.0366
868.4118	-0.2434
868.5741	-0.3967
868.7363	0.2518
868.8986	0.5323
869.0608	0.3966
869.223	1.1387
869.3851	0.0798
869.5473	-0
869.7094	0.5491
869.8715	-0
870.0336	-1.0876
870.1957	-0
870.3577	-1.4583
870.5197	0.0948
870.6817	-0.078
870.8437	-0.1698
871.0057	0.0126
871.1676	-0
871.3295	-0.357
871.4914	0.4624
871.6533	-0.2809
871.8151	-0
871.977	-0
872.1388	-0
872.3006	-0.479
872.4623	-0.5834
872.6241	0.4959
872.7858	0.7804
872.9475	0.3958
873.1092	-0.0899
873.2709	-0
873.4325	-0.2486
873.5941	-0
873.7557	-0
873.9173	-0.3532
874.0789	-0
874.2404	-0
874.4019	0.1031
874.5634	-0.0146
874.7249	0.488
874.8863	0.9561
875.0478	-0
875.2092	0.2583
875.3706	0.2084
875.5319	-0.3411
875.6933	-0.142
875.8546	0.0969
876.0159	-0
876.1772	-0
876.3385	-0.1032
876.4997	0.1591
876.6609	-0.6162
876.8221	0.0969
876.9833	0.1123
877.1445	-0
877.3056	0.0696
877.4667	-0
877.6278	1.4273
877.7889	0.3254
877.9499	-0
878.111	-0
878.272	-0
878.433	-0
878.5939	0.0969
878.7549	-0.0138
878.9158	-0
879.0767	-0.1753
879.2376	-0
879.3984	-0
879.5593	-0
879.7201	-0
879.8809	-0.541
880.0417	-0.3548
880.2024	-0
880.3632	-0
880.5239	0.8257
880.6846	-0
880.8452	-2.5132
881.0059	-0
881.1665	0.0402
881.3271	-0.3255
881.4877	-0
881.6483	-0.0369
881.8088	-0.4828
881.9693	0.4006
882.1298	0.4006
882.2903	0.4006
