Data from MonoPyChalIsomerACN10uM410nmA_Absorbance_14-53-24-573.txt Node
Date: Fri Jul 05 14:53:24 BST 2024
User: LASERRRRR
Spectrometer: FLMT03099
Trigger mode: 0
Integration Time (sec): 1.000000E-1
Scans to average: 1
Electric dark correction enabled: true
Nonlinearity correction enabled: false
Boxcar width: 0
XAxis mode: Wavelengths
Number of Pixels in Spectrum: 3648
>>>>>Begin Spectral Data<<<<<
179.3399	0.0917
179.5586	0.0917
179.7771	0.0917
179.9957	-0
180.2143	-0
180.4329	-0.0917
180.6514	-0
180.8699	-0
181.0885	0.3312
181.307	0.1395
181.5255	-0
181.744	-0.4186
181.9625	-0
182.181	-0
182.3994	-0.0548
182.6179	-0
182.8363	-0.0011
183.0547	-0.3066
183.2732	0.0606
183.4916	-0.069
183.71	0.106
183.9284	0.0319
184.1467	-0.0103
184.3651	0.2033
184.5835	0.0688
184.8018	-0.0218
185.0201	0.2593
185.2385	0.0909
185.4568	0.1008
185.6751	-0.0221
185.8934	0.3691
186.1117	-0.0655
186.3299	0.1566
186.5482	-0.1234
186.7664	-0.0575
186.9847	0.019
187.2029	0.0987
187.4211	0.0578
187.6393	0.0881
187.8575	0.0125
188.0757	0.2623
188.2939	0.0395
188.512	0.0428
188.7302	0.0246
188.9483	-0.0477
189.1665	0.2773
189.3846	-0.2304
189.6027	0.1814
189.8208	0.301
190.0389	0.08
190.257	0.1076
190.475	0.4483
190.6931	0.145
190.9111	0.5423
191.1292	0.1019
191.3472	0.3338
191.5652	0.281
191.7832	0.0783
192.0012	0.6816
192.2192	0.4145
192.4371	0.2509
192.6551	0.4895
192.873	0.4016
193.091	0.3808
193.3089	0.6735
193.5268	0.5096
193.7447	0.7559
193.9626	0.55
194.1805	0.5713
194.3984	0.8217
194.6162	0.528
194.8341	0.6055
195.0519	0.5118
195.2697	0.5536
195.4875	0.7766
195.7054	0.7432
195.9231	0.6143
196.1409	0.4363
196.3587	0.5399
196.5765	0.6436
196.7942	0.6762
197.012	0.6196
197.2297	0.5205
197.4474	0.5645
197.6651	0.5678
197.8828	0.5847
198.1005	0.6631
198.3182	0.6742
198.5358	0.6871
198.7535	0.609
198.9711	0.5192
199.1888	0.6204
199.4064	0.6398
199.624	0.6454
199.8416	0.647
200.0592	0.6811
200.2767	0.6315
200.4943	0.8599
200.7119	0.7072
200.9294	0.7596
201.1469	0.4935
201.3645	0.5675
201.582	0.4983
201.7995	0.5666
202.017	0.6181
202.2344	0.584
202.4519	0.7138
202.6694	0.6262
202.8868	0.628
203.1042	0.6938
203.3217	0.7
203.5391	0.7134
203.7565	0.5468
203.9739	0.6099
204.1913	0.6383
204.4086	0.6822
204.626	0.6513
204.8433	0.6804
205.0607	0.5949
205.278	0.5942
205.4953	0.6908
205.7126	0.6598
205.9299	0.813
206.1472	0.6434
206.3644	0.5593
206.5817	0.6396
206.7989	0.7217
207.0162	0.6083
207.2334	0.5736
207.4506	0.6663
207.6678	0.6001
207.885	0.6973
208.1022	0.6918
208.3194	0.7111
208.5365	0.6533
208.7537	0.6368
208.9708	0.5648
209.1879	0.658
209.405	0.6357
209.6222	0.7086
209.8392	0.5985
210.0563	0.6276
210.2734	0.6208
210.4905	0.678
210.7075	0.6384
210.9245	0.6081
211.1416	0.6716
211.3586	0.6162
211.5756	0.542
211.7926	0.5987
212.0096	0.6053
212.2265	0.5268
212.4435	0.5667
212.6604	0.6388
212.8774	0.5974
213.0943	0.6031
213.3112	0.5687
213.5281	0.5799
213.745	0.4925
213.9619	0.5283
214.1788	0.4699
214.3956	0.4993
214.6125	0.4605
214.8293	0.4575
215.0461	0.4551
215.2629	0.4379
215.4798	0.4927
215.6965	0.4562
215.9133	0.4407
216.1301	0.4247
216.3469	0.4545
216.5636	0.4223
216.7803	0.384
216.9971	0.4005
217.2138	0.3904
217.4305	0.3648
217.6472	0.3799
217.8639	0.3945
218.0805	0.3335
218.2972	0.3374
218.5138	0.3245
218.7305	0.3275
218.9471	0.3051
219.1637	0.3015
219.3803	0.3021
219.5969	0.2682
219.8135	0.2425
220.0301	0.2604
220.2466	0.2968
220.4632	0.2674
220.6797	0.2416
220.8962	0.2492
221.1127	0.2579
221.3292	0.2533
221.5457	0.2368
221.7622	0.2373
221.9787	0.2753
222.1951	0.2225
222.4116	0.254
222.628	0.2614
222.8444	0.2468
223.0608	0.2392
223.2772	0.2437
223.4936	0.2598
223.71	0.2373
223.9264	0.2715
224.1427	0.2554
224.3591	0.2542
224.5754	0.2585
224.7917	0.2533
225.008	0.2685
225.2243	0.2596
225.4406	0.2768
225.6569	0.2673
225.8732	0.2944
226.0894	0.2543
226.3057	0.273
226.5219	0.3009
226.7381	0.2689
226.9543	0.2852
227.1705	0.2674
227.3867	0.3019
227.6029	0.2944
227.8191	0.289
228.0352	0.3136
228.2513	0.2951
228.4675	0.3144
228.6836	0.2829
228.8997	0.2977
229.1158	0.3087
229.3319	0.2963
229.548	0.3138
229.764	0.3276
229.9801	0.3256
230.1961	0.3125
230.4121	0.3193
230.6282	0.3434
230.8442	0.3035
231.0602	0.347
231.2761	0.3353
231.4921	0.3418
231.7081	0.3512
231.924	0.3367
232.14	0.3617
232.3559	0.3212
232.5718	0.3821
232.7877	0.3457
233.0036	0.3335
233.2195	0.3439
233.4353	0.3649
233.6512	0.3464
233.867	0.3919
234.0829	0.3635
234.2987	0.372
234.5145	0.3762
234.7303	0.3635
234.9461	0.3973
235.1619	0.3893
235.3776	0.3708
235.5934	0.3774
235.8091	0.3735
236.0249	0.3654
236.2406	0.3961
236.4563	0.3925
236.672	0.3996
236.8877	0.3835
237.1034	0.3851
237.319	0.3849
237.5347	0.3914
237.7503	0.3935
237.966	0.3908
238.1816	0.4206
238.3972	0.4056
238.6128	0.3995
238.8284	0.4081
239.0439	0.4231
239.2595	0.4022
239.475	0.4125
239.6906	0.4104
239.9061	0.4114
240.1216	0.3892
240.3371	0.4261
240.5526	0.3981
240.7681	0.405
240.9836	0.3783
241.199	0.4023
241.4145	0.3693
241.6299	0.3634
241.8453	0.3655
242.0607	0.3908
242.2761	0.3595
242.4915	0.3496
242.7069	0.355
242.9223	0.3564
243.1376	0.3362
243.353	0.3302
243.5683	0.3507
243.7836	0.3235
243.9989	0.3372
244.2142	0.2965
244.4295	0.3046
244.6448	0.3047
244.86	0.2811
245.0753	0.2979
245.2905	0.2737
245.5057	0.2621
245.721	0.27
245.9362	0.2742
246.1514	0.2817
246.3665	0.2519
246.5817	0.2499
246.7969	0.2543
247.012	0.2383
247.2271	0.2408
247.4423	0.2355
247.6574	0.2327
247.8725	0.2146
248.0876	0.2102
248.3026	0.2117
248.5177	0.2236
248.7328	0.2044
248.9478	0.2037
249.1628	0.2117
249.3779	0.2179
249.5929	0.1986
249.8079	0.2116
250.0228	0.2024
250.2378	0.2032
250.4528	0.2014
250.6677	0.1854
250.8827	0.1775
251.0976	0.1836
251.3125	0.185
251.5274	0.1735
251.7423	0.1818
251.9572	0.1917
252.172	0.1749
252.3869	0.1875
252.6017	0.1765
252.8166	0.166
253.0314	0.1669
253.2462	0.1626
253.461	0.1662
253.6758	0.1585
253.8906	0.177
254.1053	0.1532
254.3201	0.1703
254.5348	0.1783
254.7496	0.1716
254.9643	0.1635
255.179	0.1626
255.3937	0.1635
255.6083	0.1641
255.823	0.1778
256.0377	0.1674
256.2523	0.1611
256.467	0.1619
256.6816	0.1759
256.8962	0.1591
257.1108	0.1415
257.3254	0.1676
257.54	0.1711
257.7545	0.1735
257.9691	0.1778
258.1836	0.1556
258.3981	0.1733
258.6127	0.1764
258.8272	0.1612
259.0417	0.1611
259.2561	0.1593
259.4706	0.1672
259.6851	0.1491
259.8995	0.1584
260.114	0.1636
260.3284	0.1681
260.5428	0.1682
260.7572	0.156
260.9716	0.1688
261.186	0.158
261.4003	0.1605
261.6147	0.1484
261.829	0.1693
262.0433	0.1624
262.2577	0.1559
262.472	0.1636
262.6863	0.16
262.9005	0.1597
263.1148	0.1635
263.3291	0.1436
263.5433	0.1595
263.7576	0.1618
263.9718	0.1573
264.186	0.1607
264.4002	0.1537
264.6144	0.164
264.8286	0.179
265.0427	0.1561
265.2569	0.1577
265.471	0.1546
265.6851	0.1452
265.8993	0.1501
266.1134	0.1549
266.3275	0.1577
266.5415	0.1562
266.7556	0.1602
266.9697	0.1527
267.1837	0.1764
267.3978	0.1634
267.6118	0.1663
267.8258	0.157
268.0398	0.1502
268.2538	0.1488
268.4677	0.1626
268.6817	0.157
268.8957	0.158
269.1096	0.1495
269.3235	0.1625
269.5374	0.1483
269.7514	0.1507
269.9652	0.1501
270.1791	0.1403
270.393	0.1483
270.6068	0.1571
270.8207	0.1405
271.0345	0.1333
271.2483	0.1475
271.4622	0.1443
271.676	0.1513
271.8897	0.1435
272.1035	0.1382
272.3173	0.1357
272.531	0.1451
272.7448	0.1308
272.9585	0.123
273.1722	0.1256
273.3859	0.1436
273.5996	0.1256
273.8133	0.1392
274.0269	0.132
274.2406	0.1306
274.4542	0.1347
274.6679	0.1287
274.8815	0.147
275.0951	0.1434
275.3087	0.1434
275.5223	0.1439
275.7358	0.1353
275.9494	0.1274
276.1629	0.1291
276.3765	0.1411
276.59	0.1441
276.8035	0.1322
277.017	0.1383
277.2305	0.1274
277.444	0.1474
277.6574	0.1326
277.8709	0.1311
278.0843	0.1274
278.2978	0.1399
278.5112	0.1362
278.7246	0.1318
278.938	0.1437
279.1513	0.1393
279.3647	0.1417
279.5781	0.1477
279.7914	0.1457
280.0047	0.1492
280.2181	0.143
280.4314	0.1465
280.6447	0.1473
280.8579	0.1421
281.0712	0.1486
281.2845	0.146
281.4977	0.1373
281.711	0.13
281.9242	0.1356
282.1374	0.1498
282.3506	0.1352
282.5638	0.1469
282.7769	0.15
282.9901	0.1388
283.2033	0.1498
283.4164	0.1576
283.6295	0.141
283.8426	0.148
284.0557	0.1483
284.2688	0.163
284.4819	0.1568
284.695	0.1596
284.908	0.1646
285.1211	0.1531
285.3341	0.1575
285.5471	0.1588
285.7601	0.1562
285.9731	0.1479
286.1861	0.1542
286.3991	0.1637
286.612	0.1647
286.825	0.1507
287.0379	0.1628
287.2508	0.1594
287.4637	0.1622
287.6766	0.1426
287.8895	0.167
288.1024	0.1797
288.3152	0.1696
288.5281	0.1577
288.7409	0.1729
288.9538	0.163
289.1666	0.1597
289.3794	0.1657
289.5922	0.1602
289.8049	0.1628
290.0177	0.1657
290.2304	0.1632
290.4432	0.1623
290.6559	0.1734
290.8686	0.1835
291.0813	0.157
291.294	0.1653
291.5067	0.1756
291.7194	0.1645
291.932	0.1682
292.1447	0.157
292.3573	0.1696
292.5699	0.164
292.7825	0.1621
292.9951	0.1664
293.2077	0.1811
293.4203	0.1613
293.6328	0.1572
293.8454	0.1724
294.0579	0.1738
294.2704	0.1755
294.4829	0.1644
294.6954	0.1771
294.9079	0.165
295.1204	0.1755
295.3328	0.1677
295.5453	0.1674
295.7577	0.1796
295.9701	0.164
296.1825	0.1815
296.3949	0.158
296.6073	0.1669
296.8197	0.1565
297.0321	0.1797
297.2444	0.1648
297.4567	0.172
297.6691	0.1741
297.8814	0.1585
298.0937	0.1802
298.306	0.1701
298.5182	0.1616
298.7305	0.1747
298.9428	0.1678
299.155	0.1657
299.3672	0.1677
299.5794	0.1608
299.7916	0.1643
300.0038	0.1675
300.216	0.1652
300.4282	0.1643
300.6403	0.1594
300.8525	0.1715
301.0646	0.1612
301.2767	0.1693
301.4888	0.1625
301.7009	0.1689
301.913	0.1684
302.125	0.174
302.3371	0.1636
302.5491	0.1702
302.7612	0.1621
302.9732	0.162
303.1852	0.1745
303.3972	0.1669
303.6092	0.1641
303.8211	0.1595
304.0331	0.1475
304.245	0.1623
304.457	0.1583
304.6689	0.1546
304.8808	0.1678
305.0927	0.1454
305.3046	0.1597
305.5164	0.1584
305.7283	0.1567
305.9401	0.1443
306.152	0.1473
306.3638	0.155
306.5756	0.149
306.7874	0.1485
306.9992	0.1505
307.2109	0.142
307.4227	0.1328
307.6344	0.1407
307.8462	0.138
308.0579	0.1372
308.2696	0.1366
308.4813	0.1387
308.693	0.1458
308.9046	0.1351
309.1163	0.1288
309.328	0.1326
309.5396	0.1335
309.7512	0.1241
309.9628	0.1148
310.1744	0.1236
310.386	0.1212
310.5976	0.1137
310.8091	0.1179
311.0207	0.1096
311.2322	0.1122
311.4437	0.1082
311.6552	0.1131
311.8667	0.1184
312.0782	0.0917
312.2897	0.0935
312.5012	0.1093
312.7126	0.1066
312.924	0.1004
313.1355	0.107
313.3469	0.1026
313.5583	0.1157
313.7696	0.1051
313.981	0.0979
314.1924	0.0902
314.4037	0.0991
314.6151	0.1132
314.8264	0.0924
315.0377	0.1032
315.249	0.0985
315.4603	0.1073
315.6716	0.1109
315.8828	0.0905
316.0941	0.0955
316.3053	0.0977
316.5165	0.0869
316.7277	0.1009
316.9389	0.0999
317.1501	0.094
317.3613	0.1005
317.5724	0.0784
317.7836	0.0945
317.9947	0.09
318.2058	0.0902
318.417	0.0964
318.6281	0.0827
318.8391	0.0915
319.0502	0.0876
319.2613	0.0869
319.4723	0.1018
319.6834	0.1001
319.8944	0.088
320.1054	0.0928
320.3164	0.0859
320.5274	0.0949
320.7383	0.0913
320.9493	0.0941
321.1602	0.1032
321.3712	0.0799
321.5821	0.0922
321.793	0.0969
322.0039	0.0916
322.2148	0.0873
322.4257	0.1015
322.6365	0.0964
322.8474	0.0931
323.0582	0.0947
323.269	0.0963
323.4798	0.098
323.6906	0.0917
323.9014	0.0993
324.1122	0.1102
324.3229	0.0943
324.5337	0.0976
324.7444	0.0848
324.9551	0.0932
325.1658	0.1024
325.3765	0.1011
325.5872	0.0994
325.7979	0.0953
326.0085	0.0945
326.2192	0.1071
326.4298	0.0934
326.6404	0.0973
326.851	0.085
327.0616	0.0794
327.2722	0.095
327.4828	0.1042
327.6933	0.1027
327.9039	0.1001
328.1144	0.1134
328.3249	0.1071
328.5354	0.087
328.7459	0.0986
328.9564	0.0924
329.1669	0.0986
329.3773	0.1069
329.5878	0.0993
329.7982	0.0968
330.0086	0.0951
330.219	0.0911
330.4294	0.0915
330.6398	0.0952
330.8502	0.0871
331.0605	0.0988
331.2708	0.1071
331.4812	0.1023
331.6915	0.109
331.9018	0.0935
332.1121	0.1002
332.3224	0.1052
332.5326	0.1041
332.7429	0.1032
332.9531	0.1087
333.1633	0.111
333.3735	0.0983
333.5837	0.0994
333.7939	0.0927
334.0041	0.1095
334.2143	0.1016
334.4244	0.1099
334.6346	0.0852
334.8447	0.1152
335.0548	0.0852
335.2649	0.0953
335.475	0.1089
335.685	0.0907
335.8951	0.1203
336.1051	0.094
336.3152	0.105
336.5252	0.1077
336.7352	0.1163
336.9452	0.1008
337.1552	0.1094
337.3652	0.0947
337.5751	0.0904
337.7851	0.0971
337.995	0.0958
338.2049	0.1089
338.4148	0.1118
338.6247	0.1073
338.8346	0.1052
339.0445	0.0921
339.2543	0.1172
339.4642	0.1112
339.674	0.1046
339.8838	0.103
340.0936	0.1089
340.3034	0.128
340.5132	0.1152
340.7229	0.1026
340.9327	0.1064
341.1424	0.1017
341.3522	0.14
341.5619	0.1205
341.7716	0.118
341.9813	0.1053
342.1909	0.1206
342.4006	0.1221
342.6102	0.1211
342.8199	0.106
343.0295	0.1263
343.2391	0.1257
343.4487	0.1305
343.6583	0.1008
343.8679	0.1114
344.0774	0.1209
344.287	0.1219
344.4965	0.1136
344.706	0.1271
344.9155	0.1225
345.125	0.1179
345.3345	0.1251
345.544	0.1141
345.7534	0.1209
345.9629	0.1027
346.1723	0.1181
346.3817	0.1094
346.5911	0.1198
346.8005	0.1373
347.0099	0.1297
347.2193	0.1262
347.4286	0.113
347.638	0.1296
347.8473	0.129
348.0566	0.1273
348.2659	0.1204
348.4752	0.1166
348.6845	0.1293
348.8937	0.1279
349.103	0.1434
349.3122	0.1219
349.5214	0.1356
349.7306	0.1333
349.9398	0.1375
350.149	0.1337
350.3582	0.1246
350.5674	0.1404
350.7765	0.1345
350.9856	0.1256
351.1948	0.1433
351.4039	0.1217
351.613	0.1288
351.822	0.1444
352.0311	0.1481
352.2402	0.1331
352.4492	0.1456
352.6582	0.1442
352.8672	0.1386
353.0762	0.1476
353.2852	0.133
353.4942	0.1344
353.7032	0.1539
353.9121	0.1319
354.1211	0.1575
354.33	0.1347
354.5389	0.1483
354.7478	0.1459
354.9567	0.146
355.1655	0.1433
355.3744	0.1492
355.5833	0.1484
355.7921	0.1707
356.0009	0.1543
356.2097	0.1601
356.4185	0.1681
356.6273	0.1675
356.8361	0.1495
357.0448	0.156
357.2536	0.1545
357.4623	0.1537
357.671	0.1773
357.8797	0.1748
358.0884	0.1645
358.2971	0.1691
358.5057	0.1619
358.7144	0.1576
358.923	0.1542
359.1316	0.1541
359.3402	0.1717
359.5488	0.1747
359.7574	0.1578
359.966	0.1797
360.1746	0.1914
360.3831	0.1715
360.5916	0.1552
360.8002	0.1753
361.0087	0.1842
361.2172	0.1699
361.4256	0.1821
361.6341	0.1839
361.8426	0.1974
362.051	0.1868
362.2594	0.1757
362.4678	0.1919
362.6762	0.21
362.8846	0.1898
363.093	0.1705
363.3014	0.1718
363.5097	0.1908
363.718	0.1787
363.9264	0.1799
364.1347	0.1859
364.343	0.1844
364.5513	0.2034
364.7595	0.1983
364.9678	0.193
365.176	0.1926
365.3842	0.1999
365.5925	0.1874
365.8007	0.2043
366.0089	0.1949
366.217	0.1928
366.4252	0.1996
366.6333	0.2059
366.8415	0.1834
367.0496	0.2057
367.2577	0.2115
367.4658	0.2164
367.6739	0.2066
367.882	0.2081
368.09	0.2162
368.2981	0.2219
368.5061	0.2215
368.7141	0.2183
368.9221	0.2319
369.1301	0.2202
369.3381	0.2123
369.5461	0.2203
369.754	0.2309
369.962	0.2359
370.1699	0.2414
370.3778	0.2275
370.5857	0.2093
370.7936	0.2323
371.0015	0.2195
371.2093	0.2301
371.4172	0.2261
371.625	0.2097
371.8328	0.2172
372.0406	0.2348
372.2484	0.2147
372.4562	0.221
372.664	0.2273
372.8717	0.2458
373.0795	0.2077
373.2872	0.2305
373.4949	0.2533
373.7026	0.2343
373.9103	0.2409
374.118	0.2371
374.3256	0.2388
374.5333	0.2243
374.7409	0.2331
374.9485	0.2483
375.1561	0.2487
375.3637	0.2502
375.5713	0.2432
375.7789	0.2414
375.9864	0.2384
376.194	0.2437
376.4015	0.2476
376.609	0.2669
376.8165	0.2468
377.024	0.2287
377.2315	0.2335
377.4389	0.2516
377.6464	0.2626
377.8538	0.2424
378.0612	0.2372
378.2686	0.233
378.476	0.2595
378.6834	0.2592
378.8908	0.2466
379.0981	0.2534
379.3055	0.2562
379.5128	0.2488
379.7201	0.263
379.9274	0.2411
380.1347	0.2637
380.342	0.2916
380.5492	0.2579
380.7565	0.2572
380.9637	0.2682
381.1709	0.2634
381.3781	0.2521
381.5853	0.2723
381.7925	0.259
381.9997	0.2772
382.2068	0.2722
382.4139	0.2521
382.6211	0.2713
382.8282	0.2533
383.0353	0.2688
383.2424	0.2636
383.4494	0.2545
383.6565	0.2564
383.8635	0.2802
384.0706	0.2596
384.2776	0.2723
384.4846	0.254
384.6916	0.2822
384.8986	0.2651
385.1055	0.2674
385.3125	0.263
385.5194	0.2596
385.7263	0.2781
385.9333	0.2639
386.1402	0.2864
386.347	0.2792
386.5539	0.2559
386.7608	0.2842
386.9676	0.2523
387.1744	0.2581
387.3813	0.2392
387.5881	0.2601
387.7948	0.2726
388.0016	0.2562
388.2084	0.2517
388.4151	0.2486
388.6219	0.2664
388.8286	0.2656
389.0353	0.2837
389.242	0.2677
389.4487	0.2527
389.6553	0.2501
389.862	0.2413
390.0686	0.258
390.2753	0.2597
390.4819	0.2529
390.6885	0.2555
390.8951	0.2521
391.1016	0.2551
391.3082	0.2591
391.5147	0.266
391.7213	0.2625
391.9278	0.2416
392.1343	0.2453
392.3408	0.2267
392.5473	0.2441
392.7537	0.2327
392.9602	0.2553
393.1666	0.2399
393.373	0.2444
393.5794	0.2425
393.7858	0.241
393.9922	0.2378
394.1986	0.2476
394.4049	0.2472
394.6113	0.2263
394.8176	0.2418
395.0239	0.2359
395.2302	0.2205
395.4365	0.2383
395.6428	0.2353
395.8491	0.2284
396.0553	0.2245
396.2615	0.2267
396.4678	0.2322
396.674	0.2108
396.8802	0.2376
397.0863	0.2424
397.2925	0.2142
397.4987	0.2328
397.7048	0.2199
397.9109	0.2251
398.117	0.2172
398.3231	0.2265
398.5292	0.2255
398.7353	0.238
398.9413	0.226
399.1474	0.2199
399.3534	0.2277
399.5594	0.2174
399.7654	0.2367
399.9714	0.2383
400.1774	0.2259
400.3833	0.2244
400.5893	0.2381
400.7952	0.2327
401.0011	0.2294
401.207	0.2416
401.4129	0.2363
401.6188	0.2248
401.8247	0.2217
402.0305	0.2249
402.2364	0.2171
402.4422	0.2334
402.648	0.2296
402.8538	0.2282
403.0596	0.216
403.2654	0.222
403.4711	0.2271
403.6768	0.2273
403.8826	0.2394
404.0883	0.2328
404.294	0.2424
404.4997	0.2313
404.7054	0.2114
404.911	0.2068
405.1167	0.2391
405.3223	0.2343
405.5279	0.2363
405.7335	0.2315
405.9391	0.2276
406.1447	0.2272
406.3502	0.2415
406.5558	0.2181
406.7613	0.2309
406.9668	0.2112
407.1724	0.2271
407.3778	0.2268
407.5833	0.237
407.7888	0.2242
407.9942	0.2506
408.1997	0.2182
408.4051	0.2301
408.6105	0.2231
408.8159	0.2208
409.0213	0.2181
409.2267	0.2406
409.432	0.2057
409.6374	0.2358
409.8427	0.2045
410.048	0.2205
410.2533	0.2272
410.4586	0.2162
410.6639	0.2113
410.8691	0.2283
411.0744	0.2103
411.2796	0.2271
411.4848	0.2315
411.69	0.2241
411.8952	0.225
412.1004	0.2184
412.3056	0.2053
412.5107	0.2184
412.7158	0.2312
412.921	0.2207
413.1261	0.2106
413.3312	0.2216
413.5362	0.2042
413.7413	0.2372
413.9464	0.2149
414.1514	0.2093
414.3564	0.2303
414.5614	0.2015
414.7664	0.2141
414.9714	0.2322
415.1764	0.2087
415.3813	0.2171
415.5863	0.2149
415.7912	0.2169
415.9961	0.2276
416.201	0.2222
416.4059	0.2264
416.6108	0.1997
416.8156	0.2204
417.0205	0.2181
417.2253	0.2093
417.4301	0.2274
417.6349	0.183
417.8397	0.2154
418.0445	0.2248
418.2492	0.2172
418.454	0.2158
418.6587	0.2183
418.8634	0.2176
419.0681	0.1967
419.2728	0.2178
419.4775	0.2033
419.6822	0.2055
419.8868	0.202
420.0915	0.2183
420.2961	0.1946
420.5007	0.1953
420.7053	0.2135
420.9099	0.1945
421.1144	0.2226
421.319	0.194
421.5235	0.2183
421.728	0.1976
421.9325	0.2072
422.137	0.2164
422.3415	0.1998
422.546	0.1961
422.7504	0.1948
422.9549	0.2147
423.1593	0.2008
423.3637	0.1943
423.5681	0.2101
423.7725	0.19
423.9769	0.1805
424.1812	0.1919
424.3856	0.195
424.5899	0.1984
424.7942	0.1836
424.9985	0.195
425.2028	0.1921
425.4071	0.2092
425.6113	0.1761
425.8156	0.1849
426.0198	0.1831
426.224	0.1745
426.4282	0.1739
426.6324	0.1708
426.8366	0.1828
427.0407	0.1793
427.2449	0.1809
427.449	0.1732
427.6531	0.1399
427.8572	0.175
428.0613	0.1628
428.2654	0.163
428.4694	0.1667
428.6735	0.1567
428.8775	0.1844
429.0815	0.1765
429.2855	0.1561
429.4895	0.1702
429.6935	0.1593
429.8975	0.1682
430.1014	0.1485
430.3053	0.1382
430.5093	0.1713
430.7132	0.1409
430.9171	0.163
431.1209	0.1388
431.3248	0.1471
431.5286	0.1462
431.7325	0.1571
431.9363	0.1353
432.1401	0.15
432.3439	0.144
432.5477	0.126
432.7514	0.1363
432.9552	0.1299
433.1589	0.1172
433.3627	0.1278
433.5664	0.1378
433.7701	0.1315
433.9737	0.1141
434.1774	0.1106
434.3811	0.1403
434.5847	0.1347
434.7883	0.1242
434.9919	0.1238
435.1955	0.1229
435.3991	0.1205
435.6027	0.1233
435.8062	0.1191
436.0098	0.1128
436.2133	0.1112
436.4168	0.1042
436.6203	0.096
436.8238	0.1113
437.0272	0.101
437.2307	0.1068
437.4341	0.1013
437.6375	0.1028
437.841	0.0924
438.0443	0.0992
438.2477	0.0866
438.4511	0.0835
438.6545	0.0991
438.8578	0.1056
439.0611	0.1028
439.2644	0.0869
439.4677	0.078
439.671	0.0848
439.8743	0.0762
440.0775	0.0917
440.2808	0.0899
440.484	0.0871
440.6872	0.0801
440.8904	0.0725
441.0936	0.0967
441.2967	0.075
441.4999	0.0769
441.703	0.064
441.9062	0.0669
442.1093	0.0847
442.3124	0.0712
442.5155	0.0503
442.7185	0.0633
442.9216	0.0343
443.1246	0.0708
443.3276	0.0594
443.5307	0.0657
443.7337	0.0612
443.9366	0.061
444.1396	0.0655
444.3426	0.0761
444.5455	0.0544
444.7484	0.056
444.9513	0.0511
445.1542	0.0545
445.3571	0.0486
445.56	0.0503
445.7628	0.0449
445.9657	0.0426
446.1685	0.0716
446.3713	0.0479
446.5741	0.0392
446.7769	0.0356
446.9797	0.0551
447.1824	0.0525
447.3852	0.0316
447.5879	0.0612
447.7906	0.0606
447.9933	0.053
448.196	0.0251
448.3986	0.0316
448.6013	0.0283
448.8039	0.0207
449.0066	0.0299
449.2092	0.0478
449.4118	0.0333
449.6143	0.0337
449.8169	0.0304
450.0195	0.0213
450.222	0.0039
450.4245	0.0231
450.627	0.0493
450.8295	0.014
451.032	0.0192
451.2345	0.0255
451.4369	0.0299
451.6394	0.0343
451.8418	0.0143
452.0442	0.0331
452.2466	0.0248
452.449	0.0048
452.6513	0.014
452.8537	0.0193
453.056	-0.0067
453.2583	0.0249
453.4607	0.0247
453.663	0.0246
453.8652	0.0317
454.0675	0.0117
454.2697	0.0272
454.472	0.0089
454.6742	0.005
454.8764	0.0131
455.0786	0.0153
455.2808	0.0144
455.4829	0.011
455.6851	0.0246
455.8872	0.0139
456.0893	0.0234
456.2915	-0.0043
456.4935	0.0231
456.6956	0.008
456.8977	0.0125
457.0997	0.006
457.3018	0.0141
457.5038	0.0264
457.7058	0.0074
457.9078	0.0007
458.1098	0.0046
458.3117	0.0025
458.5137	0.0117
458.7156	0.0151
458.9175	0.0021
459.1194	0.0018
459.3213	0.0082
459.5232	-0.0003
459.725	0.0088
459.9269	0.0058
460.1287	-0.0047
460.3305	0.0112
460.5323	0.0085
460.7341	-0.0078
460.9359	-0.0016
461.1376	0.0101
461.3394	0.0117
461.5411	0.0121
461.7428	-0.0017
461.9445	0.018
462.1462	0.004
462.3479	0.002
462.5495	-0.001
462.7512	0.0107
462.9528	0.0055
463.1544	-0.0115
463.356	-0.0027
463.5576	0.0003
463.7592	-0.0068
463.9607	0.0016
464.1623	0.0075
464.3638	0.0172
464.5653	-0.0049
464.7668	0.0091
464.9683	0.0151
465.1697	0.0119
465.3712	-0.0008
465.5726	-0.0105
465.7741	-0.0053
465.9755	-0.0091
466.1769	-0.003
466.3782	-0.0124
466.5796	-0.0029
466.7809	0.0164
466.9823	-0.0051
467.1836	-0.0035
467.3849	-0.007
467.5862	0.004
467.7875	0.0142
467.9887	0.0026
468.19	-0.0076
468.3912	-0.0163
468.5924	-0.02
468.7936	-0.0057
468.9948	0.0062
469.196	-0.0011
469.3972	-0.0196
469.5983	0.0106
469.7994	-0.0163
470.0006	-0.0129
470.2017	-0.0122
470.4027	-0.0097
470.6038	-0.0007
470.8049	-0.0133
471.0059	-0.0101
471.2069	-0.0221
471.408	0.0057
471.6089	-0.0105
471.8099	-0.0078
472.0109	-0.0088
472.2119	-0.0146
472.4128	-0.0196
472.6137	-0.0063
472.8146	-0.0332
473.0155	-0.0064
473.2164	0
473.4173	-0.0061
473.6181	0.0072
473.819	-0.0047
474.0198	-0.011
474.2206	-0.012
474.4214	-0.0119
474.6222	-0.003
474.8229	-0.0165
475.0237	-0.0235
475.2244	-0.0172
475.4251	-0.0059
475.6258	-0.0102
475.8265	-0.0123
476.0272	-0.0036
476.2278	-0.0071
476.4285	-0.0082
476.6291	-0.0076
476.8297	-0.0167
477.0303	-0.0145
477.2309	-0.0068
477.4315	-0.0142
477.632	-0.0122
477.8326	-0.015
478.0331	-0.0059
478.2336	0.0098
478.4341	-0.0086
478.6346	-0.0102
478.8351	-0.0056
479.0355	-0.0034
479.236	-0.0061
479.4364	-0.0044
479.6368	-0.0005
479.8372	-0.0068
480.0376	-0.0156
480.2379	-0.0355
480.4383	-0.0051
480.6386	-0.0015
480.8389	-0.0112
481.0392	-0.0188
481.2395	-0.0147
481.4398	-0.007
481.6401	-0.0055
481.8403	-0.0031
482.0405	-0.0224
482.2408	-0.0046
482.441	-0.0011
482.6411	-0.0074
482.8413	-0.0033
483.0415	-0.01
483.2416	-0.014
483.4417	-0.0036
483.6419	-0.0116
483.8419	-0.0091
484.042	0.0001
484.2421	-0.0052
484.4422	0
484.6422	-0.0115
484.8422	-0.0153
485.0422	-0.01
485.2422	-0.0073
485.4422	-0.0142
485.6422	-0.0201
485.8421	-0.0177
486.042	-0.0103
486.242	-0.011
486.4419	-0.0128
486.6417	-0.0084
486.8416	-0.0057
487.0415	-0.0053
487.2413	-0.0114
487.4411	-0.0114
487.641	-0.0115
487.8408	-0.0053
488.0405	-0.0231
488.2403	-0.0172
488.4401	0.0031
488.6398	-0.0001
488.8395	-0.0126
489.0392	0.001
489.2389	-0.0085
489.4386	-0.0068
489.6383	-0.0068
489.8379	-0.0032
490.0376	-0.0093
490.2372	-0.0171
490.4368	-0.0207
490.6364	-0.0157
490.836	-0.014
491.0355	-0.0023
491.2351	-0.0191
491.4346	-0.0085
491.6341	-0.0087
491.8336	-0.0027
492.0331	-0.0257
492.2326	-0.0273
492.432	-0.0143
492.6315	-0.0154
492.8309	-0.0213
493.0303	-0.0085
493.2297	-0.0124
493.4291	-0.0127
493.6284	-0.0122
493.8278	-0.005
494.0271	-0.0064
494.2264	-0.006
494.4257	-0.0239
494.625	-0.0071
494.8243	-0.019
495.0236	-0.0112
495.2228	-0.0137
495.422	-0.0113
495.6213	-0.0105
495.8205	-0.0071
496.0196	-0.0087
496.2188	-0.0071
496.418	-0.0134
496.6171	-0.0145
496.8162	-0.0179
497.0153	-0.0089
497.2144	-0.0085
497.4135	-0.0041
497.6126	-0.0197
497.8116	-0.0114
498.0107	-0.014
498.2097	-0.0155
498.4087	-0.0136
498.6077	-0.0089
498.8067	-0.0179
499.0056	-0.0012
499.2046	-0.0159
499.4035	-0.025
499.6024	-0.0033
499.8013	-0.0073
500.0002	-0.012
500.199	-0.0102
500.3979	-0.0141
500.5967	-0.0351
500.7956	-0.0046
500.9944	-0.0054
501.1932	-0.0137
501.3919	-0.0173
501.5907	-0.0169
501.7895	-0.0073
501.9882	-0.0163
502.1869	-0.0139
502.3856	-0.0225
502.5843	-0.0144
502.783	-0.018
502.9816	-0.0124
503.1803	-0.0229
503.3789	-0.0207
503.5775	-0.0025
503.7761	-0.0165
503.9747	-0.0087
504.1732	-0.0098
504.3718	-0.0026
504.5703	-0.0088
504.7689	-0.0144
504.9674	-0.0078
505.1658	-0.0165
505.3643	-0.0155
505.5628	-0.0201
505.7612	-0.0136
505.9597	-0.0074
506.1581	-0.0125
506.3565	-0.0131
506.5549	-0.0145
506.7532	-0.0181
506.9516	-0.0096
507.1499	-0.0087
507.3482	-0.0131
507.5465	-0.0212
507.7448	-0.0105
507.9431	-0.0096
508.1414	-0.0088
508.3396	-0.0106
508.5379	-0.011
508.7361	-0.0165
508.9343	-0.0026
509.1325	-0.0076
509.3306	-0.0174
509.5288	-0.0107
509.7269	-0.011
509.9251	-0.006
510.1232	-0.0222
510.3213	-0.007
510.5193	0
510.7174	-0.0149
510.9154	-0.0141
511.1135	-0.0225
511.3115	-0.0145
511.5095	-0.0187
511.7075	-0.0137
511.9055	-0.016
512.1034	-0.0168
512.3014	-0.0017
512.4993	-0.0154
512.6972	-0.0108
512.8951	-0.0158
513.093	-0.0026
513.2908	-0.0123
513.4887	-0.0086
513.6865	-0.0193
513.8844	-0.0168
514.0822	-0.0134
514.2799	-0.0174
514.4777	-0.0083
514.6755	-0.0171
514.8732	-0.0215
515.0709	-0.009
515.2687	-0.0152
515.4664	-0.0062
515.664	-0.0147
515.8617	-0.0167
516.0594	-0.0183
516.257	-0.007
516.4546	-0.0184
516.6522	-0.0015
516.8498	-0.0122
517.0474	-0.0091
517.2449	-0.0095
517.4425	-0.0261
517.64	-0.0101
517.8375	0.0002
518.035	-0.0076
518.2325	-0.0171
518.43	-0.0092
518.6274	-0.0103
518.8249	-0.0245
519.0223	-0.011
519.2197	-0.0127
519.4171	-0.007
519.6145	-0.0137
519.8118	-0.0016
520.0092	-0.0115
520.2065	-0.0155
520.4038	-0.0173
520.6011	-0.0094
520.7984	-0.0067
520.9956	-0.0021
521.1929	-0.0226
521.3901	-0.0034
521.5874	-0.0166
521.7846	-0.0131
521.9818	-0.0186
522.1789	-0.0016
522.3761	-0.0062
522.5732	-0.0095
522.7704	-0.0168
522.9675	-0.0158
523.1646	-0.0075
523.3617	-0.0099
523.5587	-0.0142
523.7558	-0.008
523.9528	-0.0092
524.1498	-0.0033
524.3468	-0.0207
524.5438	-0.0135
524.7408	-0.0057
524.9378	-0.0065
525.1347	-0.0161
525.3316	-0.0028
525.5285	-0.0131
525.7254	-0.0133
525.9223	-0.0072
526.1192	-0.0067
526.316	-0.0179
526.5129	-0.0023
526.7097	-0.0015
526.9065	-0.0115
527.1033	-0.0049
527.3	-0.0115
527.4968	-0.0107
527.6935	-0.0072
527.8903	-0.0138
528.087	-0.0041
528.2837	-0.0104
528.4804	-0.0059
528.677	-0.0195
528.8737	-0.0048
529.0703	-0.007
529.2669	-0.009
529.4635	-0.0133
529.6601	-0.0071
529.8567	-0.0083
530.0532	-0.0061
530.2498	-0.0091
530.4463	-0.0135
530.6428	-0.0113
530.8393	-0.0108
531.0358	-0.0091
531.2322	-0.0052
531.4287	-0.0084
531.6251	-0.014
531.8215	0.0044
532.0179	-0.0049
532.2143	-0.002
532.4107	-0.0078
532.607	-0.0091
532.8034	-0.0002
532.9997	-0.0012
533.196	-0.0061
533.3923	-0.0117
533.5886	-0.0052
533.7848	-0.0029
533.9811	-0.011
534.1773	0.0003
534.3735	-0.0017
534.5697	-0.0115
534.7659	-0.0149
534.9621	-0.002
535.1582	-0.0152
535.3544	-0.0071
535.5505	-0.0061
535.7466	-0.0104
535.9427	-0.0194
536.1387	-0.0125
536.3348	-0.0048
536.5308	-0.0038
536.7269	-0.0168
536.9229	-0.0091
537.1189	0.0013
537.3148	-0.0067
537.5108	-0.0124
537.7068	-0.0132
537.9027	0.0029
538.0986	-0.0052
538.2945	-0.0131
538.4904	-0.0049
538.6863	-0.0173
538.8821	-0.0037
539.078	-0.0062
539.2738	-0.002
539.4696	-0.0037
539.6654	-0.0047
539.8611	-0.0001
540.0569	-0.0055
540.2526	-0.0103
540.4484	-0.0012
540.6441	0.0062
540.8398	0.0016
541.0355	-0.0054
541.2311	-0.0062
541.4268	-0.0189
541.6224	0.0004
541.818	-0.0063
542.0136	-0.0153
542.2092	-0.0068
542.4048	-0.0047
542.6003	-0.0007
542.7959	-0.0001
542.9914	-0.0049
543.1869	-0.0096
543.3824	-0.0084
543.5779	-0.0108
543.7734	-0.01
543.9688	-0.0091
544.1642	0.0021
544.3596	0.0038
544.555	-0.0141
544.7504	-0.0038
544.9458	-0.0092
545.1411	-0.0068
545.3365	-0.0016
545.5318	-0.0048
545.7271	-0.0023
545.9224	-0.0079
546.1177	0.0015
546.3129	-0.0006
546.5081	-0.0093
546.7034	-0.0075
546.8986	0.0017
547.0938	-0.0068
547.289	-0.0048
547.4841	-0.0011
547.6793	0.0019
547.8744	-0.0084
548.0695	-0.0032
548.2646	-0.0219
548.4597	-0.0046
548.6548	-0.0077
548.8498	-0.0057
549.0448	0.0021
549.2399	-0.0115
549.4349	0.0001
549.6298	0.0007
549.8248	-0.01
550.0198	-0.0005
550.2147	-0.0119
550.4096	-0.0052
550.6045	-0.0038
550.7994	-0.0052
550.9943	0.0025
551.1892	-0.0077
551.384	0.0088
551.5788	-0.0064
551.7737	-0.009
551.9685	-0.0021
552.1632	0.0049
552.358	-0.0013
552.5528	-0.0028
552.7475	-0.0036
552.9422	-0.003
553.1369	0.0032
553.3316	0.0053
553.5263	-0.0083
553.7209	-0.0038
553.9156	-0.0018
554.1102	-0.0109
554.3048	-0.0074
554.4994	0.0081
554.694	-0.0089
554.8885	0.0017
555.0831	-0.0057
555.2776	-0.0078
555.4721	-0.0037
555.6666	-0.0024
555.8611	0.0031
556.0555	-0.0035
556.25	-0.0054
556.4444	-0.0038
556.6388	0.0079
556.8332	-0.0009
557.0276	-0.0043
557.222	-0.0052
557.4163	-0.0009
557.6107	-0.0052
557.805	0.0067
557.9993	-0.0056
558.1936	-0.0028
558.3879	-0.0013
558.5821	0.0009
558.7764	-0.0079
558.9706	-0.0006
559.1648	0.0023
559.359	-0.0167
559.5532	-0.0093
559.7473	-0.0017
559.9415	-0.0053
560.1356	-0.009
560.3297	-0.0077
560.5238	-0.0122
560.7179	-0.0081
560.9119	-0.0035
561.106	-0.0111
561.3	-0.0143
561.494	-0.0059
561.688	0.0015
561.882	-0.0093
562.076	-0.0044
562.2699	0.0013
562.4639	-0.0025
562.6578	-0.0078
562.8517	0.0009
563.0456	0.0032
563.2395	0.0024
563.4333	-0.0054
563.6272	0.0062
563.821	-0.0089
564.0148	-0.0068
564.2086	-0.0065
564.4024	-0.0109
564.5961	-0.0074
564.7899	0.0026
564.9836	-0.0107
565.1773	0.0006
565.371	0.0003
565.5647	0.0016
565.7584	-0.0061
565.952	-0.0052
566.1456	0.0036
566.3393	0.0002
566.5329	-0.006
566.7264	0.0034
566.92	-0.0104
567.1136	0.0018
567.3071	-0.0101
567.5006	0.0012
567.6941	-0.0041
567.8876	-0.007
568.0811	-0.0064
568.2745	0.0032
568.468	0.0021
568.6614	-0.0007
568.8548	0.0019
569.0482	0.0002
569.2416	-0.0048
569.4349	0.0039
569.6283	-0.0011
569.8216	-0.007
570.0149	-0.0084
570.2082	0.0084
570.4015	0.0018
570.5947	0.0027
570.788	-0.0004
570.9812	0.0064
571.1744	0.0054
571.3676	-0.0089
571.5608	-0.0013
571.754	-0.0036
571.9471	-0.0013
572.1402	-0.0021
572.3333	-0.0012
572.5264	0
572.7195	-0.002
572.9126	0.0015
573.1057	-0.0001
573.2987	-0.0036
573.4917	-0.0034
573.6847	-0.0118
573.8777	0.0005
574.0707	0.0066
574.2636	-0.0008
574.4566	-0.0018
574.6495	0.0098
574.8424	-0.0023
575.0353	-0.0036
575.2281	0.0072
575.421	-0.0029
575.6138	-0.0015
575.8067	-0.0021
575.9995	0.0048
576.1923	-0.0026
576.385	-0.0031
576.5778	0.0001
576.7706	-0.0046
576.9633	-0.0045
577.156	0.0008
577.3487	0.0039
577.5414	-0.0005
577.734	-0.0076
577.9267	0.0071
578.1193	-0.011
578.3119	-0.0052
578.5045	0.005
578.6971	-0.0062
578.8897	0.0052
579.0822	-0.0033
579.2747	0.0008
579.4673	-0.0028
579.6598	0
579.8522	-0.0087
580.0447	-0.0032
580.2372	-0.0107
580.4296	0.0026
580.622	-0
580.8144	-0.0019
581.0068	-0.0073
581.1992	-0.0111
581.3915	-0.0073
581.5839	-0.0069
581.7762	-0.0034
581.9685	-0.0088
582.1608	-0.0009
582.353	-0.0075
582.5453	0.0018
582.7375	-0.0024
582.9298	0.002
583.122	-0.0032
583.3142	-0.0048
583.5063	-0.0026
583.6985	-0.0029
583.8906	0.0002
584.0827	-0.0039
584.2749	-0.0035
584.4669	0.0046
584.659	0.0014
584.8511	-0.0012
585.0431	-0.0017
585.2352	0.0017
585.4272	-0.003
585.6192	-0.0009
585.8111	-0.0046
586.0031	-0.0002
586.195	0.0012
586.387	0.0042
586.5789	0.0011
586.7708	-0.0009
586.9627	-0.0003
587.1545	-0.004
587.3464	0.0014
587.5382	0.006
587.73	0.0024
587.9218	-0.0013
588.1136	-0.0067
588.3053	0.0016
588.4971	-0.0022
588.6888	-0.0085
588.8805	-0.0036
589.0722	0.0049
589.2639	0.0009
589.4556	0.0056
589.6472	-0.0039
589.8389	-0.0074
590.0305	-0.0087
590.2221	-0.0009
590.4137	-0.0058
590.6052	0.0055
590.7968	0.0017
590.9883	0.0021
591.1798	0.0007
591.3713	-0.0026
591.5628	-0.0003
591.7543	-0.001
591.9458	0.0039
592.1372	0.005
592.3286	0.0039
592.52	0.0089
592.7114	-0.0012
592.9028	-0.0061
593.0941	-0.0031
593.2855	0.0019
593.4768	-0.0058
593.6681	-0.0091
593.8594	-0.0051
594.0506	-0.0047
594.2419	0.0056
594.4331	0.0024
594.6244	0.0032
594.8156	-0.0052
595.0067	-0.002
595.1979	-0.0019
595.3891	0.0043
595.5802	-0.0007
595.7713	0.0029
595.9624	-0.0086
596.1535	0.0001
596.3446	0.0011
596.5357	-0.0004
596.7267	0.0051
596.9177	0.0013
597.1087	-0.0065
597.2997	-0.0047
597.4907	-0.0016
597.6817	-0.0062
597.8726	0.002
598.0635	-0.0085
598.2544	0.0011
598.4453	-0.0037
598.6362	0.0031
598.827	0.0023
599.0179	0.008
599.2087	0.0027
599.3995	0.0005
599.5903	0.0019
599.7811	-0.001
599.9718	0.005
600.1626	-0.0025
600.3533	-0.004
600.544	0.0002
600.7347	-0.0042
600.9254	-0.0018
601.116	-0.004
601.3067	-0.0023
601.4973	0.0015
601.6879	-0
601.8785	-0.0037
602.0691	0.0018
602.2596	0.0026
602.4502	0.0005
602.6407	0.0005
602.8312	0.0038
603.0217	-0.0041
603.2122	0.0003
603.4027	0.0012
603.5931	0.0025
603.7835	-0.0018
603.9739	-0.0002
604.1643	-0.0048
604.3547	-0.003
604.5451	0.0011
604.7354	0.0045
604.9257	0.0042
605.116	-0.0019
605.3063	0.002
605.4966	0.0035
605.6869	0.0022
605.8771	0.0093
606.0673	0.0007
606.2575	0.0048
606.4477	0.0069
606.6379	0.0041
606.8281	0.0007
607.0182	-0.0026
607.2083	0.0089
607.3985	-0.0061
607.5885	-0.0022
607.7786	-0
607.9687	-0.0054
608.1587	0.0036
608.3488	0.0006
608.5388	0.0019
608.7288	-0.0071
608.9187	-0.0005
609.1087	-0.0015
609.2986	-0.0045
609.4886	-0.0022
609.6785	-0.0052
609.8684	-0
610.0582	-0.0016
610.2481	-0.008
610.4379	0.0012
610.6278	0.0041
610.8176	-0.004
611.0074	-0.0001
611.1971	-0.0101
611.3869	-0.0007
611.5766	-0.0069
611.7664	0.0045
611.9561	0.0024
612.1458	-0.0052
612.3354	-0.002
612.5251	-0.001
612.7147	0.0084
612.9044	0.0129
613.094	-0.0056
613.2836	0.0027
613.4731	-0.0031
613.6627	-0.003
613.8522	0.0004
614.0417	0.001
614.2313	-0.0008
614.4207	-0.0035
614.6102	0.0005
614.7997	0.0061
614.9891	-0.0015
615.1785	0.0012
615.3679	-0.0065
615.5573	0.0082
615.7467	-0.0007
615.9361	-0.0029
616.1254	-0.0008
616.3147	0.0023
616.504	-0.0012
616.6933	0.0017
616.8826	0.0026
617.0718	0.0009
617.2611	0.0069
617.4503	-0.0049
617.6395	-0.0092
617.8287	0.0015
618.0179	-0
618.207	0.0006
618.3961	0.0096
618.5853	-0.0026
618.7744	0.0118
618.9634	0.0042
619.1525	0.0004
619.3416	0.0046
619.5306	0.0033
619.7196	-0.0016
619.9086	-0.0057
620.0976	-0.0004
620.2866	-0.0049
620.4755	0.0023
620.6645	0.0063
620.8534	0.0027
621.0423	0.0073
621.2312	0.0046
621.42	0.0041
621.6089	-0.0019
621.7977	0.0064
621.9865	-0.0018
622.1753	0.0019
622.3641	-0.0006
622.5529	0.0042
622.7416	0.0061
622.9303	-0.0006
623.1191	0.0029
623.3078	-0.0071
623.4964	0.0009
623.6851	-0.0029
623.8737	0.0012
624.0624	0.0103
624.251	-0.0057
624.4396	-0.0034
624.6282	-0.009
624.8167	-0.0038
625.0053	0.0044
625.1938	0.0063
625.3823	-0.0037
625.5708	-0.0039
625.7593	-0.0031
625.9477	-0.0064
626.1362	-0.005
626.3246	-0.0022
626.513	0.0037
626.7014	-0.0001
626.8898	-0.0079
627.0781	0.0027
627.2665	-0.001
627.4548	0.0087
627.6431	0.0009
627.8314	0.0033
628.0197	0.0009
628.2079	-0.0044
628.3962	-0.0098
628.5844	0.0048
628.7726	0.0005
628.9608	0.0062
629.1489	-0.0053
629.3371	-0.001
629.5252	-0.0072
629.7134	0.0078
629.9015	-0.0086
630.0895	0.0023
630.2776	0.0093
630.4657	0.0005
630.6537	0.0016
630.8417	0.0008
631.0297	-0.004
631.2177	0.0005
631.4057	-0.0041
631.5936	0.0038
631.7815	-0.002
631.9695	0.0094
632.1574	0.0104
632.3452	0.013
632.5331	0.0014
632.7209	-0.0005
632.9088	0.0205
633.0966	0.0096
633.2844	-0.0001
633.4722	0.0043
633.6599	0.0052
633.8477	-0.0029
634.0354	-0.0008
634.2231	-0.0043
634.4108	0.0071
634.5985	0.002
634.7861	0.0047
634.9738	-0.0068
635.1614	-0.002
635.349	-0.0008
635.5366	-0.004
635.7242	0.0004
635.9117	0.0074
636.0993	-0.0003
636.2868	0.0022
636.4743	-0.009
636.6618	0.0088
636.8492	0.0041
637.0367	0.0027
637.2241	0.0049
637.4115	-0.0096
637.5989	-0.0032
637.7863	0.003
637.9737	-0.0008
638.161	0.0008
638.3484	-0.0021
638.5357	-0.0005
638.723	0.0004
638.9103	0.0026
639.0975	0.0013
639.2848	0.0079
639.472	-0.0029
639.6592	0.0065
639.8464	0.0087
640.0336	0.0099
640.2208	-0.0069
640.4079	0.0017
640.595	0.0018
640.7821	0.0051
640.9692	-0.0068
641.1563	0.0068
641.3434	0.0078
641.5304	-0.0072
641.7174	0.0046
641.9044	-0
642.0914	0.0107
642.2784	0.0046
642.4653	0.0215
642.6523	0.0053
642.8392	0.0005
643.0261	0.0023
643.213	0.0042
643.3999	0.0031
643.5867	0.0034
643.7735	-0.0008
643.9604	-0.0031
644.1472	0.0061
644.3339	0.0046
644.5207	0.0019
644.7075	0.0037
644.8942	0.0099
645.0809	0.0079
645.2676	0.0112
645.4543	0.0026
645.6409	0.0072
645.8276	0.0026
646.0142	0.0047
646.2008	-0.0007
646.3874	0.004
646.574	0.0035
646.7605	-0.0062
646.9471	-0.0127
647.1336	0.0061
647.3201	0.0041
647.5066	-0.0062
647.6931	0.003
647.8795	0.0008
648.0659	0.0065
648.2524	0.0069
648.4388	-0.0067
648.6252	0.0091
648.8115	0.0044
648.9979	-0.0056
649.1842	0.0042
649.3705	0.0023
649.5568	-0.0016
649.7431	0.0057
649.9294	-0.0056
650.1156	0.0115
650.3018	-0.0015
650.488	0.0059
650.6742	0.0089
650.8604	-0.001
651.0466	-0.0013
651.2327	-0.0007
651.4188	0.0058
651.6049	0
651.791	0.0016
651.9771	0.002
652.1632	0.0016
652.3492	-0.0009
652.5352	0.0022
652.7212	-0.0048
652.9072	0.008
653.0932	0.0041
653.2791	-0.0053
653.465	0.0004
653.651	0.0009
653.8369	-0.0005
654.0227	0.0014
654.2086	0.0073
654.3944	-0.0013
654.5803	0.0064
654.7661	-0.0042
654.9519	0.0028
655.1377	-0.0002
655.3234	0.0026
655.5092	-0.0027
655.6949	-0.0043
655.8806	-0.0047
656.0663	-0.0023
656.2519	-0.0001
656.4376	-0.0005
656.6232	0.0003
656.8088	0.0005
656.9945	0.0008
657.18	0.0013
657.3656	0.0042
657.5511	0.0003
657.7367	0.0013
657.9222	0.002
658.1077	0.0076
658.2932	0.0044
658.4786	-0.0043
658.6641	-0.0033
658.8495	0.0013
659.0349	-0.0056
659.2203	0.0083
659.4057	0.0047
659.591	0.0054
659.7764	0.0022
659.9617	-0.0021
660.147	0.0036
660.3323	0.0027
660.5176	0.0095
660.7028	0.0073
660.888	0.0037
661.0733	0.0024
661.2585	-0.0053
661.4436	-0.0032
661.6288	-0.0022
661.8139	-0.003
661.9991	0.0011
662.1842	0
662.3693	0.006
662.5544	0.0035
662.7394	0.0027
662.9245	0.0014
663.1095	0.0013
663.2945	0.0026
663.4795	-0.0001
663.6644	0.0166
663.8494	0.0007
664.0343	0.0013
664.2193	-0.0074
664.4042	-0.004
664.589	-0.0007
664.7739	0.0033
664.9587	-0.0113
665.1436	-0.0077
665.3284	-0.0057
665.5132	-0.0034
665.698	-0.0022
665.8827	0.005
666.0675	0.0015
666.2522	-0.0084
666.4369	0.0023
666.6216	0.0025
666.8063	-0.0057
666.9909	0.0028
667.1756	-0.0073
667.3602	0.001
667.5448	0.0016
667.7294	0.0085
667.9139	0.0058
668.0985	0.0094
668.283	0.0019
668.4675	0.0019
668.652	-0.0087
668.8365	0.0005
669.0209	0.0102
669.2054	0.0039
669.3898	0.0013
669.5742	-0.0038
669.7586	0.0092
669.943	0.0034
670.1273	0.0001
670.3117	0.0029
670.496	-0.0011
670.6803	0.0099
670.8646	0.0045
671.0488	0.0015
671.2331	0.0037
671.4173	0.0084
671.6015	0.0006
671.7857	0.005
671.9699	0.007
672.1541	0.0045
672.3382	0.0047
672.5223	0.0027
672.7064	0.0038
672.8905	-0.0005
673.0746	0.0038
673.2587	-0.0058
673.4427	0.0078
673.6267	0.0036
673.8107	0.007
673.9947	0.0051
674.1787	0.0046
674.3626	-0.0033
674.5465	0.0059
674.7304	0.004
674.9143	0.0031
675.0982	0.0046
675.2821	-0.003
675.4659	0.0072
675.6497	0.0042
675.8335	0.0047
676.0173	-0.0014
676.2011	0.0034
676.3849	0.0005
676.5686	0.0028
676.7523	0.0053
676.936	0.0039
677.1197	0.0059
677.3034	-0.0095
677.487	0.0042
677.6706	-0.0007
677.8542	-0.0034
678.0378	-0.0034
678.2214	-0.0033
678.405	0.0039
678.5885	-0.0088
678.772	0.0001
678.9555	-0.0052
679.139	-0.0055
679.3225	0.0009
679.5059	0.0034
679.6894	0.0042
679.8728	-0.0025
680.0562	0.0005
680.2395	-0.0054
680.4229	-0.0021
680.6062	0.01
680.7896	-0.0043
680.9729	-0.0074
681.1562	0.0058
681.3394	0.0024
681.5227	-0.007
681.7059	-0.0003
681.8891	-0.0032
682.0723	0.0067
682.2555	0.0028
682.4387	0.0005
682.6218	0.0052
682.805	0.005
682.9881	0.0066
683.1712	0.0009
683.3542	0.0024
683.5373	0.0042
683.7203	-0.0039
683.9034	-0.0056
684.0864	-0.0088
684.2694	0.0008
684.4523	0.0004
684.6353	0.0005
684.8182	0.0073
685.0011	-0.0099
685.184	0.0031
685.3669	0.0026
685.5498	-0.001
685.7326	-0.0065
685.9154	-0.0067
686.0982	0.01
686.281	0.0068
686.4638	0.0042
686.6465	0.0078
686.8293	-0.0023
687.012	-0.0055
687.1947	-0.0156
687.3774	0.002
687.56	-0.0048
687.7427	0.0028
687.9253	-0.0076
688.1079	-0.0022
688.2905	0.008
688.4731	-0.0011
688.6556	-0.0063
688.8382	0.0033
689.0207	0.0043
689.2032	-0.0094
689.3857	-0.0112
689.5681	-0.0029
689.7506	-0.0116
689.933	-0.0057
690.1154	-0.0082
690.2978	-0.0054
690.4802	-0.0019
690.6626	-0.0093
690.8449	-0.007
691.0272	0.002
691.2095	-0.0109
691.3918	-0.004
691.5741	-0.0036
691.7563	0.0033
691.9386	0.0028
692.1208	0.0026
692.303	-0.0012
692.4852	-0.0018
692.6673	0.0037
692.8495	-0.0034
693.0316	-0.0039
693.2137	-0.0016
693.3958	-0.0029
693.5778	-0.001
693.7599	0.0013
693.9419	-0.0003
694.1239	0.0018
694.3059	-0.0038
694.4879	0.0045
694.6699	0.0102
694.8518	0.0094
695.0337	0.0012
695.2157	0.0047
695.3975	0.0074
695.5794	0.0124
695.7613	0.0057
695.9431	0.0019
696.1249	0.0073
696.3067	0.0072
696.4885	0.0074
696.6703	-0.0105
696.852	0.0036
697.0337	0.005
697.2154	-0.0018
697.3971	-0.0031
697.5788	0.0068
697.7605	-0.0029
697.9421	0.0059
698.1237	-0.002
698.3053	-0.005
698.4869	-0.0048
698.6685	-0.0047
698.85	0.0009
699.0315	0.0059
699.213	-0.0046
699.3945	0.0048
699.576	0.005
699.7575	0.0095
699.9389	0.0019
700.1203	-0.0051
700.3017	-0.007
700.4831	-0.0136
700.6645	-0.0026
700.8458	0.0047
701.0271	-0.0094
701.2084	0.0011
701.3897	0.0005
701.571	0.0061
701.7523	-0.0067
701.9335	0.003
702.1147	0.0008
702.2959	0.0015
702.4771	0.0064
702.6583	0.0011
702.8394	-0.0027
703.0205	-0.0036
703.2016	-0.0083
703.3827	-0.004
703.5638	0.0095
703.7449	-0.0032
703.9259	0.0132
704.1069	-0.0039
704.2879	0.001
704.4689	-0.0017
704.6499	0.0031
704.8308	-0.0011
705.0117	0.0003
705.1927	-0.0023
705.3735	-0.0014
705.5544	0.0004
705.7353	0.0018
705.9161	-0.0116
706.0969	-0.0057
706.2777	-0.0048
706.4585	-0.0042
706.6393	-0.0011
706.82	-0.0026
707.0007	0.0045
707.1815	0.0075
707.3621	0.0073
707.5428	0.0007
707.7235	0.004
707.9041	-0.0033
708.0847	-0.014
708.2653	-0.0086
708.4459	-0.0084
708.6265	0.0044
708.807	0.0033
708.9875	-0.0066
709.168	-0.0038
709.3485	-0.0075
709.529	-0.0012
709.7095	-0.0114
709.8899	-0.0008
710.0703	-0.006
710.2507	0.0051
710.4311	-0.0036
710.6115	-0.0144
710.7918	-0.004
710.9721	0.0011
711.1524	-0.0063
711.3327	0.0008
711.513	-0.0004
711.6932	-0.0003
711.8735	0.0043
712.0537	-0.0014
712.2339	0.0059
712.4141	-0.0136
712.5942	-0.0075
712.7744	-0.0072
712.9545	-0.0089
713.1346	-0.0106
713.3147	-0.0042
713.4947	-0.0028
713.6748	0.0035
713.8548	-0.0063
714.0348	-0.0022
714.2148	-0.0029
714.3948	0.009
714.5748	-0.0043
714.7547	-0.0063
714.9346	0.0117
715.1145	-0.0071
715.2944	-0.0014
715.4743	0.0018
715.6541	0.0015
715.834	0.0046
716.0138	-0.015
716.1936	-0.0128
716.3733	-0.0066
716.5531	0.0016
716.7328	-0.011
716.9126	-0.0043
717.0923	0.0039
717.2719	-0.0004
717.4516	0.0113
717.6312	0.0089
717.8109	0.0016
717.9905	0.0067
718.1701	-0.0046
718.3496	-0.0096
718.5292	0.003
718.7087	0.003
718.8882	-0.0015
719.0677	0.0033
719.2472	-0.0043
719.4267	0.0079
719.6061	0.007
719.7856	0.0013
719.965	0.0015
720.1443	0.0004
720.3237	0.0157
720.5031	0.005
720.6824	0.0083
720.8617	-0.004
721.041	0.0072
721.2203	0.0058
721.3995	-0.0006
721.5788	-0.0017
721.758	0.008
721.9372	-0.0092
722.1164	0.0018
722.2956	-0.0021
722.4747	-0.0091
722.6538	-0.0074
722.8329	0.0032
723.012	-0.002
723.1911	0.0039
723.3702	-0.0036
723.5492	0.0029
723.7282	0.0042
723.9072	0.0025
724.0862	-0.0118
724.2652	-0.0006
724.4441	0.0022
724.623	0.0011
724.8019	-0.0068
724.9808	0.0008
725.1597	-0.0087
725.3385	0.0033
725.5174	-0.0023
725.6962	-0.0074
725.875	-0.008
726.0538	-0.0006
726.2325	0.0038
726.4112	-0.002
726.59	-0.006
726.7687	-0.0071
726.9474	0.0078
727.126	-0.0054
727.3047	-0.0009
727.4833	-0.0015
727.6619	-0.0004
727.8405	-0.0077
728.0191	0.0003
728.1976	0.0063
728.3762	-0.0013
728.5547	0.0016
728.7332	-0.0063
728.9116	-0.0032
729.0901	-0.0078
729.2686	-0.0051
729.447	0.0033
729.6254	0.0062
729.8038	0.0041
729.9821	-0.0088
730.1605	-0.0024
730.3388	-0.0003
730.5171	0.0024
730.6954	-0.003
730.8737	0.0027
731.0519	0.0027
731.2302	0.0003
731.4084	0.0068
731.5866	-0.0062
731.7648	-0.0123
731.9429	-0.0086
732.1211	-0.0129
732.2992	-0.0081
732.4773	-0.0044
732.6554	-0.0016
732.8335	-0.0086
733.0115	-0.0018
733.1896	0.0023
733.3676	-0.0114
733.5456	0.009
733.7235	0.0003
733.9015	-0.0006
734.0794	-0.0024
734.2574	-0.0023
734.4353	0.0009
734.6131	0.0109
734.791	-0.0018
734.9689	-0.0005
735.1467	0.0023
735.3245	-0.0082
735.5023	-0.0076
735.68	0.0034
735.8578	0.0101
736.0355	-0.0168
736.2132	-0.0053
736.3909	-0.002
736.5686	-0.0087
736.7463	-0.0016
736.9239	-0.0079
737.1015	-0.0059
737.2791	0.0064
737.4567	0.003
737.6343	0.0035
737.8118	-0.0068
737.9894	0.0009
738.1669	-0.0026
738.3444	-0.008
738.5218	0.0014
738.6993	0.0022
738.8767	0.0017
739.0541	0.0155
739.2315	-0.0133
739.4089	-0.0002
739.5863	0.011
739.7636	-0.0034
739.9409	-0.0008
740.1182	0.004
740.2955	-0.0006
740.4728	0.0084
740.65	-0.0081
740.8272	-0.001
741.0044	-0.008
741.1816	-0.0011
741.3588	-0.003
741.5359	-0.0017
741.7131	-0.0147
741.8902	-0.007
742.0673	0.0016
742.2444	-0.013
742.4214	-0.0104
742.5985	-0.0064
742.7755	-0.0169
742.9525	-0.0206
743.1295	-0.0055
743.3064	-0.0088
743.4834	0.0052
743.6603	-0.0096
743.8372	-0.0091
744.0141	-0.0038
744.191	-0.0041
744.3678	-0.0015
744.5446	-0.001
744.7215	0.0003
744.8982	-0.0027
745.075	-0.0153
745.2518	0.0016
745.4285	-0.002
745.6052	-0.0152
745.7819	-0.0045
745.9586	-0.0031
746.1353	-0.0036
746.3119	-0.0052
746.4885	-0.0122
746.6651	-0.0015
746.8417	0.0017
747.0183	-0.011
747.1948	-0.0024
747.3714	-0.0008
747.5479	-0.0038
747.7244	-0.009
747.9008	0.013
748.0773	-0.0035
748.2537	-0.0012
748.4301	-0.0054
748.6065	0.0016
748.7829	0.0035
748.9593	-0.0022
749.1356	-0.0023
749.3119	0.0009
749.4882	-0.0068
749.6645	-0.0052
749.8408	-0.0127
750.017	-0.0097
750.1933	-0.0046
750.3695	-0.0117
750.5457	0.0027
750.7218	-0.0013
750.898	0.0051
751.0741	-0.0038
751.2502	0.0013
751.4263	-0.0026
751.6024	0.0019
751.7784	-0.0001
751.9545	-0.0076
752.1305	0.0052
752.3065	-0.0215
752.4825	0.0111
752.6584	-0.005
752.8344	0.0005
753.0103	-0.0183
753.1862	-0.0029
753.3621	-0.0044
753.5379	0.0016
753.7138	-0.0058
753.8896	0.001
754.0654	0.0051
754.2412	0.0166
754.417	0.0071
754.5927	0.0063
754.7685	0.0064
754.9442	0.0005
755.1199	0.0097
755.2956	-0.0033
755.4712	0.0073
755.6469	0.0043
755.8225	-0.0074
755.9981	-0.0064
756.1736	0.0008
756.3492	0.001
756.5248	-0.0128
756.7003	0.0081
756.8758	0.0176
757.0513	-0.0041
757.2267	-0.0018
757.4022	0.0053
757.5776	-0.0058
757.753	0.0091
757.9284	-0.0073
758.1038	0.0093
758.2791	-0.0082
758.4545	-0.0167
758.6298	-0.0038
758.8051	0.0064
758.9803	-0.0012
759.1556	0.0002
759.3308	-0.0113
759.506	0.008
759.6812	0.0016
759.8564	0.0107
760.0316	0.0013
760.2067	0.01
760.3819	0.0116
760.557	0.0037
760.732	0.0068
760.9071	-0.0105
761.0821	0.0075
761.2572	0.0127
761.4322	0.0041
761.6072	-0.0004
761.7821	-0.0021
761.9571	0.0074
762.132	0.0076
762.3069	-0.0074
762.4818	0.001
762.6567	-0.0018
762.8316	0.0065
763.0064	-0.0016
763.1812	0.0102
763.356	0.0056
763.5308	0.0009
763.7055	0.0032
763.8803	-0.009
764.055	-0.0019
764.2297	0.0088
764.4044	-0.0083
764.579	-0.005
764.7537	-0.0116
764.9283	0.0035
765.1029	-0.0066
765.2775	-0.0074
765.4521	-0.0022
765.6266	-0.013
765.8011	-0.0072
765.9756	-0.0016
766.1501	0.0105
766.3246	0.0057
766.4991	-0.006
766.6735	0.0048
766.8479	-0.0092
767.0223	0.0135
767.1967	0.0017
767.371	-0.006
767.5454	-0.0072
767.7197	-0.0049
767.894	-0.0097
768.0683	-0.0054
768.2425	0.0051
768.4168	-0.0087
768.591	0.0049
768.7652	0.0011
768.9394	-0.0026
769.1135	-0.003
769.2877	0.0061
769.4618	-0.0017
769.6359	-0.0041
769.81	0.0052
769.984	0.0084
770.1581	0.0034
770.3321	0.0058
770.5061	0.0057
770.6801	-0.0007
770.8541	0.0042
771.028	0.0107
771.202	-0.0075
771.3759	0.0144
771.5498	0.0039
771.7236	0.0055
771.8975	0.0034
772.0713	0.0118
772.2451	0.0015
772.4189	0.0063
772.5927	0.0212
772.7665	0.008
772.9402	-0.0071
773.1139	0.0026
773.2876	-0.0014
773.4613	0.0002
773.635	0.0132
773.8086	-0.0084
773.9822	0.0012
774.1558	0.007
774.3294	-0.0116
774.503	0.0015
774.6765	-0.0029
774.8501	0.0007
775.0236	0.0082
775.1971	0.0032
775.3705	-0.0123
775.544	0.0005
775.7174	-0.0089
775.8908	0.0026
776.0642	-0.0169
776.2376	-0.0053
776.4109	-0.0096
776.5843	0.0013
776.7576	0.0044
776.9309	0.015
777.1041	0.0008
777.2774	0.0159
777.4506	0.0002
777.6238	0.0025
777.797	0.0002
777.9702	-0.0007
778.1434	0.0071
778.3165	-0.0036
778.4896	-0.007
778.6627	0.0052
778.8358	-0.0044
779.0089	-0.0021
779.1819	0.0006
779.3549	0.0183
779.5279	0.0078
779.7009	0.001
779.8739	0.0044
780.0468	0.0041
780.2197	0.0043
780.3926	-0.0023
780.5655	-0.0046
780.7384	-0.0085
780.9112	-0.0057
781.0841	-0.0103
781.2569	0.0045
781.4297	-0.0001
781.6024	0.0015
781.7752	0.0043
781.9479	-0.0025
782.1206	0.0034
782.2933	-0.003
782.466	-0.005
782.6386	-0.0067
782.8113	-0.0056
782.9839	0.0089
783.1565	0.0095
783.329	0.0063
783.5016	0.0065
783.6741	-0.0018
783.8466	-0.0068
784.0191	0.0167
784.1916	-0.0019
784.3641	-0.0027
784.5365	0.0008
784.7089	-0.0089
784.8813	-0.002
785.0537	-0.0137
785.2261	-0.0109
785.3984	-0.021
785.5707	-0.0109
785.743	-0.0036
785.9153	-0.0142
786.0876	0.0022
786.2598	-0.0031
786.432	-0.0137
786.6042	0.0156
786.7764	0.0027
786.9486	0.0115
787.1207	-0.001
787.2928	0.0027
787.4649	0.0119
787.637	0.0124
787.8091	-0.0102
787.9811	-0.0134
788.1532	-0.0078
788.3252	0.0184
788.4972	0.0031
788.6691	0.0009
788.8411	0.0046
789.013	-0.013
789.1849	0.001
789.3568	-0.0105
789.5287	-0.0001
789.7005	0.0006
789.8723	-0.0059
790.0442	0.0086
790.2159	0.0081
790.3877	0.0043
790.5595	-0.0148
790.7312	0.0112
790.9029	-0.0057
791.0746	-0.0053
791.2463	-0.0121
791.4179	0.0093
791.5896	0.0015
791.7612	-0.0062
791.9328	0.0143
792.1044	-0.0223
792.2759	-0.0237
792.4474	-0.0093
792.619	0.0005
792.7905	0.0047
792.9619	-0.0069
793.1334	0.0129
793.3048	0.011
793.4762	0.0003
793.6476	0.0039
793.819	-0.0078
793.9904	0.0101
794.1617	-0.0187
794.333	-0.0107
794.5043	-0.0024
794.6756	-0.0045
794.8469	-0.0042
795.0181	0.0021
795.1893	-0.0195
795.3605	-0.0069
795.5317	0.0027
795.7029	-0.0041
795.874	0.0019
796.0452	0.0047
796.2163	-0.005
796.3873	0.0044
796.5584	0.0041
796.7294	-0.0123
796.9005	0.0171
797.0715	0.0053
797.2425	-0.0076
797.4134	-0.0018
797.5844	0.0033
797.7553	0.0021
797.9262	0.0024
798.0971	-0.0052
798.2679	-0.0041
798.4388	-0.0197
798.6096	-0.0098
798.7804	-0.0087
798.9512	-0.009
799.122	-0.0105
799.2927	-0.0027
799.4635	0.0106
799.6342	-0.0103
799.8049	-0.005
799.9755	0.0028
800.1462	0.0045
800.3168	0.0049
800.4874	0.007
800.658	0.0314
800.8286	-0.0066
800.9991	0.0094
801.1696	0.0061
801.3402	0.0006
801.5106	-0.0054
801.6811	0.0084
801.8516	0.0097
802.022	-0.0045
802.1924	0.0049
802.3628	-0.0086
802.5332	0.0167
802.7035	0.0056
802.8739	-0.0086
803.0442	0.0026
803.2145	0.0192
803.3847	-0.02
803.555	0.011
803.7252	0.0013
803.8954	-0.0068
804.0656	-0.0062
804.2358	-0.0105
804.4059	0.0076
804.5761	-0.0068
804.7462	-0.0024
804.9163	-0.0069
805.0864	-0.0137
805.2564	-0.0189
805.4264	-0.0052
805.5965	-0.006
805.7665	0.0113
805.9364	-0.0042
806.1064	0.0247
806.2763	0.0164
806.4462	0.0057
806.6161	0.0085
806.786	0.0051
806.9559	-0.0134
807.1257	0.0033
807.2955	0
807.4653	0.0051
807.6351	-0.0014
807.8048	-0.0129
807.9746	0.0203
808.1443	-0.0045
808.314	-0.013
808.4837	0.0036
808.6533	0.0031
808.8229	0.0007
808.9926	-0.0044
809.1622	0.0104
809.3317	-0.0136
809.5013	-0.0173
809.6708	0.0225
809.8403	0.0118
810.0098	-0.0193
810.1793	0.0008
810.3488	0.0115
810.5182	-0.007
810.6876	0.0102
810.857	-0.0244
811.0264	0.0285
811.1958	-0.0043
811.3651	-0.0075
811.5344	-0.0086
811.7037	-0.0101
811.873	-0.0182
812.0422	-0.0021
812.2115	-0.0059
812.3807	-0.0168
812.5499	-0.0202
812.7191	-0.0074
812.8882	-0.0092
813.0574	0.0006
813.2265	-0.0021
813.3956	-0.0175
813.5646	-0.0109
813.7337	-0.0148
813.9027	0.0121
814.0718	0.0123
814.2407	0.0131
814.4097	-0.0005
814.5787	-0.0137
814.7476	-0.0073
814.9165	-0.0137
815.0854	-0.0224
815.2543	0.0201
815.4232	-0.0203
815.592	0.0192
815.7608	0.0218
815.9296	-0.0058
816.0984	0.0161
816.2671	0.0066
816.4359	-0.0104
816.6046	0.0205
816.7733	-0.0191
816.942	-0.0247
817.1106	0.0079
817.2793	-0.0156
817.4479	-0.0344
817.6165	-0.0021
817.785	-0.0179
817.9536	-0.0226
818.1221	-0.0073
818.2906	-0.0006
818.4591	-0.033
818.6276	-0.0182
818.7961	0.0145
818.9645	0.0091
819.1329	0.0047
819.3013	0.0096
819.4697	0.0212
819.638	-0.0081
819.8064	0.0055
819.9747	0.0088
820.143	-0.0007
820.3113	-0.0319
820.4795	0.033
820.6477	-0.0152
820.816	-0.0066
820.9842	-0.0092
821.1523	0.0018
821.3205	0.0204
821.4886	-0.0071
821.6567	-0.006
821.8248	0.0018
821.9929	0.018
822.1609	-0.0137
822.329	0.0224
822.497	0.0143
822.665	-0.009
822.833	0.0055
823.0009	0.0008
823.1688	0.0196
823.3367	0.0257
823.5046	-0.0019
823.6725	0.0138
823.8404	0.0012
824.0082	-0.0069
824.176	-0.0082
824.3438	0.0081
824.5116	-0.0319
824.6793	0.0151
824.847	0.0029
825.0147	-0.0092
825.1824	0.0258
825.3501	0.0108
825.5177	-0.0174
825.6854	0.0194
825.853	0.0021
826.0206	-0.0213
826.1881	0.0158
826.3557	-0.0504
826.5232	0.0018
826.6907	-0.0308
826.8582	-0.004
827.0257	-0.0251
827.1931	-0.0027
827.3605	-0.0128
827.528	-0.0096
827.6953	-0.0372
827.8627	-0.031
828.03	0.0427
828.1974	-0.012
828.3647	-0.0221
828.532	-0.0126
828.6992	-0.0126
828.8665	0.0186
829.0337	-0.0192
829.2009	0.0127
829.3681	0.0031
829.5352	0.0129
829.7024	-0.0074
829.8695	-0.0213
830.0366	0.0413
830.2037	0.0072
830.3707	0.007
830.5378	-0.0162
830.7048	-0.0059
830.8718	0.0044
831.0388	-0.0239
831.2057	0.0065
831.3727	-0.0077
831.5396	-0.0084
831.7065	0.0129
831.8734	0.0171
832.0402	-0.0483
832.2071	0.0052
832.3739	-0.0205
832.5407	0.0215
832.7075	-0.0266
832.8742	-0.0398
833.041	-0.0201
833.2077	0.0245
833.3744	0.0048
833.541	0.0211
833.7077	-0.0092
833.8743	-0.0272
834.0409	-0.0132
834.2075	0.0309
834.3741	-0.0157
834.5407	0.0189
834.7072	0.0215
834.8737	0.0135
835.0402	-0.0132
835.2067	0.0317
835.3731	0.0294
835.5395	0.0312
835.706	0.024
835.8723	-0.0182
836.0387	0.033
836.2051	0.02
836.3714	0.0196
836.5377	-0.0542
836.704	-0.0362
836.8703	0.0255
837.0365	-0.0079
837.2027	-0.0334
837.3689	0.0149
837.5351	0.0216
837.7013	-0.0319
837.8674	-0.0344
838.0335	-0.0117
838.1997	-0.0096
838.3657	-0.0008
838.5318	-0.0007
838.6978	-0.0014
838.8639	0.0129
839.0299	0.0195
839.1958	0.0128
839.3618	0.0211
839.5277	0.0175
839.6937	0.0212
839.8596	-0.0151
840.0254	0.0026
840.1913	0.0101
840.3571	0.0309
840.523	-0.0316
840.6888	-0.0074
840.8545	-0.0368
841.0203	-0.0051
841.186	0.0035
841.3517	0.0055
841.5174	0.0009
841.6831	-0.0282
841.8488	-0.0244
842.0144	0.0159
842.18	-0.0307
842.3456	-0.0101
842.5112	0.0114
842.6767	-0.0266
842.8422	-0.0607
843.0077	-0.0666
843.1732	-0.089
843.3387	-0.0089
843.5042	-0.0608
843.6696	-0.0435
843.835	0.0044
844.0004	0.056
844.1657	0.0092
844.3311	-0.0592
844.4964	-0.0412
844.6617	-0.0279
844.827	-0.0258
844.9923	-0.0402
845.1575	0.0073
845.3227	0.0263
845.4879	0.0103
845.6531	-0.0492
845.8183	-0.0426
845.9834	-0.0449
846.1485	0.0167
846.3136	0.0014
846.4787	-0.0196
846.6438	0.0533
846.8088	-0.0557
846.9738	-0.1141
847.1388	-0.0736
847.3038	-0.0565
847.4687	-0.1569
847.6337	-0.0038
847.7986	0.0947
847.9635	-0.0115
848.1284	0.0056
848.2932	0.0389
848.458	-0.0083
848.6228	0.0611
848.7876	0.0587
848.9524	-0.1222
849.1172	-0.1226
849.2819	0.038
849.4466	-0.0771
849.6113	-0.1002
849.7759	0.0062
849.9406	-0.0665
850.1052	0.0694
850.2698	-0.0533
850.4344	-0.062
850.599	-0.1109
850.7635	0.0401
850.928	-0.0917
851.0925	-0.0186
851.257	-0.0016
851.4215	0.0496
851.5859	-0.0797
851.7503	-0.0208
851.9147	-0.0654
852.0791	-0.1014
852.2434	-0.1127
852.4078	0.08
852.5721	0.0443
852.7364	-0.0897
852.9007	-0.0623
853.0649	-0.0687
853.2291	0.0421
853.3934	-0.0223
853.5575	0.0262
853.7217	-0.1005
853.8859	-0.0535
854.05	-0.0329
854.2141	-0.0992
854.3782	-0.1331
854.5423	-0.0671
854.7063	0.0728
854.8703	0.0002
855.0343	-0.0666
855.1983	-0.0923
855.3623	0.1594
855.5262	-0.0025
855.6901	-0.0258
855.854	-0.12
856.0179	0.0183
856.1818	0.1241
856.3456	-0.1177
856.5094	-0.1178
856.6732	-0.1322
856.837	-0.1144
857.0008	0.0146
857.1645	0.0483
857.3282	-0.1845
857.4919	0.0439
857.6556	-0.0535
857.8192	-0.0405
857.9828	-0.0822
858.1465	0.1479
858.31	-0.1218
858.4736	-0.1244
858.6372	-0.2885
858.8007	-0.1549
858.9642	0.1088
859.1277	-0.1258
859.2911	0.2024
859.4546	0.0485
859.618	-0.3967
859.7814	-0.0097
859.9448	-0.1267
860.1081	0.0334
860.2715	0.2641
860.4348	-0.0084
860.5981	-0.0226
860.7614	0.1432
860.9246	-0.21
861.0879	-0.0541
861.2511	-0.0178
861.4143	-0.2493
861.5774	0.0608
861.7406	-0.1681
861.9037	0.1032
862.0668	-0.2197
862.2299	-0.06
862.393	-0.5387
862.556	0.2321
862.7191	-0.3168
862.8821	-0.1216
863.0451	0.2076
863.208	0.0088
863.371	0.014
863.5339	0.6234
863.6968	0.0472
863.8597	-0.1748
864.0225	-0.2115
864.1854	-0.096
864.3482	0.0947
864.511	0.1151
864.6737	-0.0774
864.8365	-0.218
864.9992	-0.198
865.1619	-0.2849
865.3246	-0
865.4873	0.0527
865.65	-0.25
865.8126	0.0781
865.9752	-0.0155
866.1378	0.08
866.3004	0.1698
866.4629	0.0456
866.6254	-0.3681
866.7879	-0.2998
866.9504	-0.346
867.1129	-0
867.2753	0.0605
867.4377	0.0908
867.6001	-0.1111
867.7625	0.1493
867.9249	-0.4119
868.0872	-0.0636
868.2495	-0.2942
868.4118	-0.5329
868.5741	-0.6315
868.7363	-0.0802
868.8986	-0.5266
869.0608	-0.0074
869.223	0.2407
869.3851	-0
869.5473	0.7462
869.7094	-0.0335
869.8715	-0
870.0336	-0
870.1957	0.223
870.3577	-0.0193
870.5197	-0.1131
870.6817	0.045
870.8437	-0.2762
871.0057	-0
871.1676	-0
871.3295	-0
871.4914	-0
871.6533	-0.3719
871.8151	-0.1153
871.977	-0
872.1388	-0
872.3006	0.5154
872.4623	-0.0537
872.6241	0.5305
872.7858	-0
872.9475	-0.3059
873.1092	-0.2313
873.2709	0.1338
873.4325	-0.1536
873.5941	-0.2327
873.7557	-0
873.9173	-0
874.0789	-0.6341
874.2404	0.5366
874.4019	0.4697
874.5634	0.014
874.7249	-0.1657
874.8863	-0.1481
875.0478	-0.0706
875.2092	-0
875.3706	0.6868
875.5319	-0.245
875.6933	-0
875.8546	-0.25
876.0159	-0.2927
876.1772	-0
876.3385	-0
876.4997	-0
876.6609	-0.4953
876.8221	-0
876.9833	0.3524
877.1445	-0
877.3056	0.5837
877.4667	-0.346
877.6278	0.9687
877.7889	-0.4705
877.9499	-0
878.111	0.3945
878.272	-0
878.433	-0
878.5939	-0
878.7549	-0.0658
878.9158	-0.9597
879.0767	-0.0293
879.2376	-0
879.3984	-0
879.5593	-0
879.7201	0.4761
879.8809	-0.3369
880.0417	-0.4432
880.2024	0.0265
880.3632	-0.5144
880.5239	0.149
880.6846	-0.0801
880.8452	-1.4843
881.0059	-0.0414
881.1665	-0.1077
881.3271	0.2385
881.4877	-0
881.6483	-0.5888
881.8088	-0.0184
881.9693	1.4665
882.1298	1.4665
882.2903	1.4665
