Data from MonoPyChalIsomerACN10uM410nmA_Absorbance_14-53-27-173.txt Node
Date: Fri Jul 05 14:53:27 BST 2024
User: LASERRRRR
Spectrometer: FLMT03099
Trigger mode: 0
Integration Time (sec): 1.000000E-1
Scans to average: 1
Electric dark correction enabled: true
Nonlinearity correction enabled: false
Boxcar width: 0
XAxis mode: Wavelengths
Number of Pixels in Spectrum: 3648
>>>>>Begin Spectral Data<<<<<
179.3399	0.1671
179.5586	0.1671
179.7771	0.1671
179.9957	-0
180.2143	-0
180.4329	-0.2368
180.6514	-0
180.8699	0.3811
181.0885	0.0341
181.307	0.027
181.5255	-0
181.744	-0
181.9625	-0
182.181	-0.4715
182.3994	-0
182.6179	-0.0455
182.8363	0.1952
183.0547	-0.2546
183.2732	-0.0573
183.4916	0.0866
183.71	0.0573
183.9284	0.0121
184.1467	-0.2496
184.3651	-0.0106
184.5835	-0.1582
184.8018	0.6166
185.0201	-0.0559
185.2385	-0.0402
185.4568	0.0592
185.6751	-0.1036
185.8934	0.3252
186.1117	-0.0192
186.3299	0.0574
186.5482	0.041
186.7664	-0.0672
186.9847	-0.0361
187.2029	0.0621
187.4211	0.0354
187.6393	0.3081
187.8575	0.0355
188.0757	0.1879
188.2939	0.2734
188.512	0.3286
188.7302	0.1188
188.9483	-0.1415
189.1665	0.134
189.3846	-0.3552
189.6027	0.1168
189.8208	0.0727
190.0389	0.0111
190.257	0.1545
190.475	0.1108
190.6931	0.1173
190.9111	0.2767
191.1292	0.1522
191.3472	0.3117
191.5652	0.1236
191.7832	0.1382
192.0012	0.3845
192.2192	0.3068
192.4371	0.5336
192.6551	0.2717
192.873	0.5488
193.091	0.442
193.3089	0.3421
193.5268	0.3563
193.7447	0.5067
193.9626	0.4705
194.1805	0.5803
194.3984	0.8547
194.6162	0.6296
194.8341	0.4535
195.0519	0.5642
195.2697	0.5129
195.4875	0.5155
195.7054	0.5583
195.9231	0.5729
196.1409	0.4474
196.3587	0.5387
196.5765	0.5041
196.7942	0.6794
197.012	0.5582
197.2297	0.7614
197.4474	0.5944
197.6651	0.6016
197.8828	0.6366
198.1005	0.6617
198.3182	0.5347
198.5358	0.8299
198.7535	0.699
198.9711	0.5487
199.1888	0.5755
199.4064	0.6263
199.624	0.6098
199.8416	0.5897
200.0592	0.5896
200.2767	0.6997
200.4943	0.605
200.7119	0.7261
200.9294	0.553
201.1469	0.5871
201.3645	0.4713
201.582	0.61
201.7995	0.6511
202.017	0.5211
202.2344	0.5535
202.4519	0.7559
202.6694	0.5988
202.8868	0.678
203.1042	0.7214
203.3217	0.5984
203.5391	0.609
203.7565	0.5238
203.9739	0.6534
204.1913	0.5397
204.4086	0.6491
204.626	0.699
204.8433	0.6753
205.0607	0.6435
205.278	0.6975
205.4953	0.5827
205.7126	0.741
205.9299	0.738
206.1472	0.6446
206.3644	0.5984
206.5817	0.5756
206.7989	0.6306
207.0162	0.6596
207.2334	0.6702
207.4506	0.6855
207.6678	0.5498
207.885	0.6179
208.1022	0.6102
208.3194	0.6544
208.5365	0.6494
208.7537	0.5984
208.9708	0.5178
209.1879	0.681
209.405	0.6691
209.6222	0.7234
209.8392	0.6938
210.0563	0.5828
210.2734	0.6829
210.4905	0.6245
210.7075	0.6117
210.9245	0.5399
211.1416	0.7084
211.3586	0.6584
211.5756	0.5868
211.7926	0.6228
212.0096	0.5895
212.2265	0.5366
212.4435	0.5955
212.6604	0.5971
212.8774	0.5727
213.0943	0.6072
213.3112	0.5279
213.5281	0.5141
213.745	0.5084
213.9619	0.4731
214.1788	0.4934
214.3956	0.4757
214.6125	0.471
214.8293	0.4325
215.0461	0.4624
215.2629	0.4576
215.4798	0.4718
215.6965	0.4306
215.9133	0.4297
216.1301	0.4119
216.3469	0.4743
216.5636	0.3981
216.7803	0.3704
216.9971	0.4291
217.2138	0.3712
217.4305	0.362
217.6472	0.3292
217.8639	0.3606
218.0805	0.3496
218.2972	0.3187
218.5138	0.3162
218.7305	0.3086
218.9471	0.3231
219.1637	0.2867
219.3803	0.276
219.5969	0.2651
219.8135	0.2442
220.0301	0.2614
220.2466	0.2359
220.4632	0.251
220.6797	0.2339
220.8962	0.2406
221.1127	0.2355
221.3292	0.2494
221.5457	0.2198
221.7622	0.2278
221.9787	0.2393
222.1951	0.2221
222.4116	0.2505
222.628	0.2283
222.8444	0.2619
223.0608	0.2403
223.2772	0.2722
223.4936	0.2606
223.71	0.2577
223.9264	0.2724
224.1427	0.2474
224.3591	0.2245
224.5754	0.2514
224.7917	0.2371
225.008	0.2548
225.2243	0.2592
225.4406	0.2607
225.6569	0.2647
225.8732	0.2568
226.0894	0.2708
226.3057	0.24
226.5219	0.2758
226.7381	0.2485
226.9543	0.2885
227.1705	0.2964
227.3867	0.2656
227.6029	0.2943
227.8191	0.261
228.0352	0.2822
228.2513	0.2976
228.4675	0.2997
228.6836	0.2913
228.8997	0.2855
229.1158	0.2994
229.3319	0.2897
229.548	0.3071
229.764	0.3198
229.9801	0.3238
230.1961	0.3447
230.4121	0.3458
230.6282	0.341
230.8442	0.3105
231.0602	0.3432
231.2761	0.3454
231.4921	0.3358
231.7081	0.3275
231.924	0.3291
232.14	0.343
232.3559	0.3376
232.5718	0.354
232.7877	0.3663
233.0036	0.3347
233.2195	0.356
233.4353	0.3465
233.6512	0.3413
233.867	0.3555
234.0829	0.3545
234.2987	0.3689
234.5145	0.366
234.7303	0.3563
234.9461	0.3858
235.1619	0.3606
235.3776	0.3726
235.5934	0.3751
235.8091	0.3726
236.0249	0.3638
236.2406	0.3795
236.4563	0.3665
236.672	0.3848
236.8877	0.4062
237.1034	0.3799
237.319	0.3978
237.5347	0.3942
237.7503	0.3862
237.966	0.4087
238.1816	0.4054
238.3972	0.3892
238.6128	0.4009
238.8284	0.4078
239.0439	0.4011
239.2595	0.4155
239.475	0.4046
239.6906	0.4213
239.9061	0.4113
240.1216	0.4051
240.3371	0.395
240.5526	0.3898
240.7681	0.4039
240.9836	0.3945
241.199	0.3911
241.4145	0.3743
241.6299	0.3839
241.8453	0.3798
242.0607	0.3937
242.2761	0.3556
242.4915	0.3689
242.7069	0.3595
242.9223	0.3588
243.1376	0.3476
243.353	0.3374
243.5683	0.3375
243.7836	0.332
243.9989	0.3432
244.2142	0.3031
244.4295	0.3183
244.6448	0.3121
244.86	0.3035
245.0753	0.2886
245.2905	0.3022
245.5057	0.2857
245.721	0.2884
245.9362	0.2692
246.1514	0.2767
246.3665	0.2643
246.5817	0.2453
246.7969	0.2605
247.012	0.2461
247.2271	0.2361
247.4423	0.2436
247.6574	0.2432
247.8725	0.2475
248.0876	0.2319
248.3026	0.2274
248.5177	0.2243
248.7328	0.2122
248.9478	0.2047
249.1628	0.2164
249.3779	0.2122
249.5929	0.2123
249.8079	0.2234
250.0228	0.2105
250.2378	0.1994
250.4528	0.194
250.6677	0.1823
250.8827	0.1926
251.0976	0.1836
251.3125	0.1981
251.5274	0.1699
251.7423	0.1857
251.9572	0.1959
252.172	0.1853
252.3869	0.1856
252.6017	0.1736
252.8166	0.1711
253.0314	0.1615
253.2462	0.1621
253.461	0.172
253.6758	0.1713
253.8906	0.1816
254.1053	0.1722
254.3201	0.169
254.5348	0.1852
254.7496	0.1873
254.9643	0.1698
255.179	0.1675
255.3937	0.1692
255.6083	0.1735
255.823	0.1718
256.0377	0.1613
256.2523	0.167
256.467	0.1598
256.6816	0.1693
256.8962	0.1664
257.1108	0.1512
257.3254	0.1764
257.54	0.1701
257.7545	0.1642
257.9691	0.1772
258.1836	0.175
258.3981	0.1752
258.6127	0.1718
258.8272	0.1636
259.0417	0.1716
259.2561	0.1646
259.4706	0.1584
259.6851	0.156
259.8995	0.1742
260.114	0.1563
260.3284	0.1578
260.5428	0.1526
260.7572	0.1696
260.9716	0.1745
261.186	0.1625
261.4003	0.1714
261.6147	0.1708
261.829	0.1695
262.0433	0.1659
262.2577	0.1547
262.472	0.1667
262.6863	0.1543
262.9005	0.1677
263.1148	0.1695
263.3291	0.1443
263.5433	0.1569
263.7576	0.1606
263.9718	0.1709
264.186	0.1633
264.4002	0.1628
264.6144	0.1616
264.8286	0.1798
265.0427	0.1579
265.2569	0.1574
265.471	0.1659
265.6851	0.1549
265.8993	0.1559
266.1134	0.1571
266.3275	0.156
266.5415	0.1564
266.7556	0.16
266.9697	0.1686
267.1837	0.1691
267.3978	0.1651
267.6118	0.165
267.8258	0.1732
268.0398	0.1506
268.2538	0.1638
268.4677	0.1717
268.6817	0.1516
268.8957	0.1724
269.1096	0.1702
269.3235	0.1582
269.5374	0.1539
269.7514	0.1606
269.9652	0.1537
270.1791	0.1467
270.393	0.1494
270.6068	0.1584
270.8207	0.14
271.0345	0.1509
271.2483	0.1548
271.4622	0.1328
271.676	0.1533
271.8897	0.1354
272.1035	0.1431
272.3173	0.1359
272.531	0.1479
272.7448	0.1432
272.9585	0.1438
273.1722	0.1601
273.3859	0.1524
273.5996	0.1352
273.8133	0.1472
274.0269	0.141
274.2406	0.1528
274.4542	0.1469
274.6679	0.1268
274.8815	0.1431
275.0951	0.1598
275.3087	0.1535
275.5223	0.1518
275.7358	0.1604
275.9494	0.1476
276.1629	0.1415
276.3765	0.1487
276.59	0.1534
276.8035	0.1556
277.017	0.1483
277.2305	0.1389
277.444	0.1509
277.6574	0.1433
277.8709	0.1557
278.0843	0.1482
278.2978	0.1523
278.5112	0.1339
278.7246	0.1585
278.938	0.154
279.1513	0.1517
279.3647	0.1617
279.5781	0.1483
279.7914	0.1515
280.0047	0.1689
280.2181	0.1489
280.4314	0.1652
280.6447	0.1611
280.8579	0.1494
281.0712	0.1626
281.2845	0.168
281.4977	0.1572
281.711	0.1548
281.9242	0.1503
282.1374	0.1621
282.3506	0.1551
282.5638	0.1691
282.7769	0.1481
282.9901	0.1514
283.2033	0.1589
283.4164	0.1675
283.6295	0.1424
283.8426	0.152
284.0557	0.1573
284.2688	0.164
284.4819	0.1604
284.695	0.1535
284.908	0.1526
285.1211	0.1455
285.3341	0.1528
285.5471	0.1617
285.7601	0.1519
285.9731	0.1518
286.1861	0.1515
286.3991	0.1657
286.612	0.1599
286.825	0.166
287.0379	0.1734
287.2508	0.153
287.4637	0.1604
287.6766	0.1583
287.8895	0.1683
288.1024	0.1657
288.3152	0.1584
288.5281	0.1526
288.7409	0.1661
288.9538	0.1628
289.1666	0.1634
289.3794	0.1526
289.5922	0.1589
289.8049	0.1581
290.0177	0.1472
290.2304	0.1518
290.4432	0.16
290.6559	0.1535
290.8686	0.1641
291.0813	0.1547
291.294	0.1642
291.5067	0.1714
291.7194	0.1532
291.932	0.1616
292.1447	0.1476
292.3573	0.1504
292.5699	0.1578
292.7825	0.1614
292.9951	0.1664
293.2077	0.1471
293.4203	0.162
293.6328	0.1346
293.8454	0.1651
294.0579	0.1559
294.2704	0.1562
294.4829	0.1548
294.6954	0.1649
294.9079	0.1646
295.1204	0.156
295.3328	0.1585
295.5453	0.1568
295.7577	0.162
295.9701	0.1525
296.1825	0.1532
296.3949	0.1584
296.6073	0.1452
296.8197	0.1534
297.0321	0.1669
297.2444	0.1483
297.4567	0.155
297.6691	0.1517
297.8814	0.1575
298.0937	0.1569
298.306	0.1633
298.5182	0.1579
298.7305	0.1624
298.9428	0.1482
299.155	0.1647
299.3672	0.1485
299.5794	0.1403
299.7916	0.1527
300.0038	0.1535
300.216	0.158
300.4282	0.1556
300.6403	0.1555
300.8525	0.1676
301.0646	0.1481
301.2767	0.1547
301.4888	0.1484
301.7009	0.1582
301.913	0.1496
302.125	0.1527
302.3371	0.1533
302.5491	0.1478
302.7612	0.1594
302.9732	0.1471
303.1852	0.1597
303.3972	0.1522
303.6092	0.1563
303.8211	0.1437
304.0331	0.1536
304.245	0.146
304.457	0.1432
304.6689	0.1425
304.8808	0.1551
305.0927	0.1416
305.3046	0.1529
305.5164	0.1459
305.7283	0.1428
305.9401	0.148
306.152	0.1358
306.3638	0.1495
306.5756	0.1398
306.7874	0.1389
306.9992	0.1527
307.2109	0.1345
307.4227	0.1247
307.6344	0.1317
307.8462	0.1281
308.0579	0.1348
308.2696	0.1311
308.4813	0.1278
308.693	0.1352
308.9046	0.1353
309.1163	0.1278
309.328	0.1275
309.5396	0.1217
309.7512	0.1315
309.9628	0.1178
310.1744	0.1156
310.386	0.1191
310.5976	0.1121
310.8091	0.1136
311.0207	0.1178
311.2322	0.1203
311.4437	0.1013
311.6552	0.1181
311.8667	0.1115
312.0782	0.1051
312.2897	0.0998
312.5012	0.1149
312.7126	0.1079
312.924	0.0984
313.1355	0.1192
313.3469	0.103
313.5583	0.1062
313.7696	0.113
313.981	0.1121
314.1924	0.1065
314.4037	0.1028
314.6151	0.1091
314.8264	0.0985
315.0377	0.1008
315.249	0.1033
315.4603	0.108
315.6716	0.1013
315.8828	0.0961
316.0941	0.0974
316.3053	0.0958
316.5165	0.0975
316.7277	0.0947
316.9389	0.1013
317.1501	0.0952
317.3613	0.1023
317.5724	0.0914
317.7836	0.0967
317.9947	0.0998
318.2058	0.0952
318.417	0.0963
318.6281	0.0852
318.8391	0.0966
319.0502	0.0924
319.2613	0.1017
319.4723	0.0964
319.6834	0.1059
319.8944	0.0946
320.1054	0.0942
320.3164	0.1044
320.5274	0.1035
320.7383	0.1005
320.9493	0.1075
321.1602	0.1038
321.3712	0.0913
321.5821	0.1046
321.793	0.1074
322.0039	0.0966
322.2148	0.1012
322.4257	0.1043
322.6365	0.1175
322.8474	0.1056
323.0582	0.1046
323.269	0.114
323.4798	0.1029
323.6906	0.0987
323.9014	0.1013
324.1122	0.1069
324.3229	0.097
324.5337	0.1042
324.7444	0.0993
324.9551	0.1229
325.1658	0.1143
325.3765	0.1109
325.5872	0.1005
325.7979	0.1065
326.0085	0.0989
326.2192	0.1146
326.4298	0.1088
326.6404	0.0996
326.851	0.0983
327.0616	0.0997
327.2722	0.0965
327.4828	0.1157
327.6933	0.1032
327.9039	0.1111
328.1144	0.1175
328.3249	0.1149
328.5354	0.1045
328.7459	0.0996
328.9564	0.1096
329.1669	0.1164
329.3773	0.1054
329.5878	0.1052
329.7982	0.103
330.0086	0.104
330.219	0.1173
330.4294	0.1042
330.6398	0.1226
330.8502	0.0956
331.0605	0.1157
331.2708	0.108
331.4812	0.1193
331.6915	0.1102
331.9018	0.1128
332.1121	0.1051
332.3224	0.1155
332.5326	0.1209
332.7429	0.0935
332.9531	0.1114
333.1633	0.1108
333.3735	0.1043
333.5837	0.1173
333.7939	0.1087
334.0041	0.1216
334.2143	0.1028
334.4244	0.1034
334.6346	0.0824
334.8447	0.1215
335.0548	0.1117
335.2649	0.1005
335.475	0.1082
335.685	0.1127
335.8951	0.1063
336.1051	0.1059
336.3152	0.1165
336.5252	0.1059
336.7352	0.1253
336.9452	0.1037
337.1552	0.114
337.3652	0.1096
337.5751	0.1129
337.7851	0.1114
337.995	0.1055
338.2049	0.1184
338.4148	0.1178
338.6247	0.1098
338.8346	0.1098
339.0445	0.109
339.2543	0.1125
339.4642	0.1126
339.674	0.1037
339.8838	0.1157
340.0936	0.1246
340.3034	0.1129
340.5132	0.1149
340.7229	0.1286
340.9327	0.1226
341.1424	0.1126
341.3522	0.1253
341.5619	0.1226
341.7716	0.1309
341.9813	0.1187
342.1909	0.1249
342.4006	0.1226
342.6102	0.1375
342.8199	0.1351
343.0295	0.129
343.2391	0.1238
343.4487	0.1312
343.6583	0.1085
343.8679	0.1218
344.0774	0.1274
344.287	0.1381
344.4965	0.1183
344.706	0.1406
344.9155	0.1199
345.125	0.122
345.3345	0.1267
345.544	0.1455
345.7534	0.1376
345.9629	0.1272
346.1723	0.1284
346.3817	0.1318
346.5911	0.1445
346.8005	0.1304
347.0099	0.1302
347.2193	0.1457
347.4286	0.1243
347.638	0.1405
347.8473	0.1321
348.0566	0.1391
348.2659	0.1335
348.4752	0.1219
348.6845	0.138
348.8937	0.1318
349.103	0.1439
349.3122	0.1325
349.5214	0.1338
349.7306	0.1287
349.9398	0.1269
350.149	0.1337
350.3582	0.1305
350.5674	0.1412
350.7765	0.1368
350.9856	0.1384
351.1948	0.1463
351.4039	0.1185
351.613	0.1298
351.822	0.1602
352.0311	0.1502
352.2402	0.1423
352.4492	0.1367
352.6582	0.1493
352.8672	0.1529
353.0762	0.1405
353.2852	0.1477
353.4942	0.1385
353.7032	0.1415
353.9121	0.1507
354.1211	0.1334
354.33	0.152
354.5389	0.1673
354.7478	0.1492
354.9567	0.1555
355.1655	0.1294
355.3744	0.1415
355.5833	0.1495
355.7921	0.1626
356.0009	0.1603
356.2097	0.1607
356.4185	0.1603
356.6273	0.1729
356.8361	0.1618
357.0448	0.1537
357.2536	0.1427
357.4623	0.1635
357.671	0.1631
357.8797	0.1588
358.0884	0.1592
358.2971	0.1644
358.5057	0.1688
358.7144	0.1857
358.923	0.1736
359.1316	0.1764
359.3402	0.1652
359.5488	0.1717
359.7574	0.1582
359.966	0.176
360.1746	0.1803
360.3831	0.1731
360.5916	0.1634
360.8002	0.1583
361.0087	0.1793
361.2172	0.178
361.4256	0.1675
361.6341	0.1752
361.8426	0.1842
362.051	0.1769
362.2594	0.1781
362.4678	0.1693
362.6762	0.1973
362.8846	0.1716
363.093	0.1866
363.3014	0.1769
363.5097	0.1597
363.718	0.1834
363.9264	0.1804
364.1347	0.1603
364.343	0.1936
364.5513	0.1957
364.7595	0.1847
364.9678	0.1987
365.176	0.1828
365.3842	0.1733
365.5925	0.1915
365.8007	0.1767
366.0089	0.2012
366.217	0.1779
366.4252	0.1801
366.6333	0.1915
366.8415	0.1931
367.0496	0.1954
367.2577	0.2127
367.4658	0.2014
367.6739	0.195
367.882	0.204
368.09	0.1983
368.2981	0.1997
368.5061	0.2044
368.7141	0.1998
368.9221	0.1995
369.1301	0.1965
369.3381	0.207
369.5461	0.2072
369.754	0.1886
369.962	0.2133
370.1699	0.2013
370.3778	0.2136
370.5857	0.186
370.7936	0.2114
371.0015	0.2103
371.2093	0.2051
371.4172	0.2146
371.625	0.194
371.8328	0.2089
372.0406	0.2136
372.2484	0.2054
372.4562	0.2051
372.664	0.2168
372.8717	0.2181
373.0795	0.1992
373.2872	0.2151
373.4949	0.2181
373.7026	0.2157
373.9103	0.2116
374.118	0.216
374.3256	0.2093
374.5333	0.2181
374.7409	0.2152
374.9485	0.2267
375.1561	0.2264
375.3637	0.2265
375.5713	0.2143
375.7789	0.2064
375.9864	0.2312
376.194	0.2161
376.4015	0.2192
376.609	0.2452
376.8165	0.2196
377.024	0.2249
377.2315	0.2166
377.4389	0.2314
377.6464	0.2354
377.8538	0.2103
378.0612	0.2222
378.2686	0.2265
378.476	0.2498
378.6834	0.2231
378.8908	0.2267
379.0981	0.2338
379.3055	0.235
379.5128	0.2273
379.7201	0.23
379.9274	0.2185
380.1347	0.2356
380.342	0.2346
380.5492	0.2343
380.7565	0.2161
380.9637	0.2387
381.1709	0.2399
381.3781	0.2386
381.5853	0.2463
381.7925	0.2353
381.9997	0.2615
382.2068	0.236
382.4139	0.2374
382.6211	0.2252
382.8282	0.2434
383.0353	0.2395
383.2424	0.239
383.4494	0.2457
383.6565	0.2324
383.8635	0.2424
384.0706	0.2182
384.2776	0.2483
384.4846	0.2195
384.6916	0.2498
384.8986	0.2403
385.1055	0.2286
385.3125	0.2467
385.5194	0.2291
385.7263	0.2454
385.9333	0.2277
386.1402	0.222
386.347	0.2336
386.5539	0.2081
386.7608	0.2455
386.9676	0.2247
387.1744	0.2453
387.3813	0.2336
387.5881	0.2466
387.7948	0.2147
388.0016	0.2279
388.2084	0.2382
388.4151	0.231
388.6219	0.2405
388.8286	0.2302
389.0353	0.2515
389.242	0.2312
389.4487	0.2351
389.6553	0.2101
389.862	0.202
390.0686	0.2088
390.2753	0.2296
390.4819	0.2297
390.6885	0.2178
390.8951	0.2387
391.1016	0.2198
391.3082	0.2278
391.5147	0.2141
391.7213	0.2326
391.9278	0.2075
392.1343	0.2142
392.3408	0.236
392.5473	0.2256
392.7537	0.22
392.9602	0.2183
393.1666	0.2179
393.373	0.2041
393.5794	0.2149
393.7858	0.2054
393.9922	0.2076
394.1986	0.2143
394.4049	0.2062
394.6113	0.2014
394.8176	0.2023
395.0239	0.2028
395.2302	0.1885
395.4365	0.2214
395.6428	0.2018
395.8491	0.1977
396.0553	0.2078
396.2615	0.208
396.4678	0.1904
396.674	0.1962
396.8802	0.2046
397.0863	0.2035
397.2925	0.1944
397.4987	0.1899
397.7048	0.1909
397.9109	0.215
398.117	0.1862
398.3231	0.1995
398.5292	0.203
398.7353	0.2085
398.9413	0.1965
399.1474	0.2001
399.3534	0.1947
399.5594	0.1971
399.7654	0.2051
399.9714	0.2149
400.1774	0.1852
400.3833	0.1978
400.5893	0.1908
400.7952	0.2007
401.0011	0.1882
401.207	0.2121
401.4129	0.199
401.6188	0.2035
401.8247	0.1867
402.0305	0.1855
402.2364	0.1861
402.4422	0.2057
402.648	0.2038
402.8538	0.2105
403.0596	0.191
403.2654	0.2025
403.4711	0.1813
403.6768	0.2081
403.8826	0.2075
404.0883	0.1962
404.294	0.2085
404.4997	0.2017
404.7054	0.2028
404.911	0.1864
405.1167	0.2021
405.3223	0.2082
405.5279	0.2013
405.7335	0.1925
405.9391	0.1913
406.1447	0.1865
406.3502	0.2092
406.5558	0.1961
406.7613	0.1979
406.9668	0.1907
407.1724	0.1904
407.3778	0.1945
407.5833	0.1892
407.7888	0.1848
407.9942	0.202
408.1997	0.1979
408.4051	0.1956
408.6105	0.1856
408.8159	0.1724
409.0213	0.1972
409.2267	0.2114
409.432	0.1884
409.6374	0.1939
409.8427	0.1983
410.048	0.1874
410.2533	0.187
410.4586	0.1724
410.6639	0.173
410.8691	0.1845
411.0744	0.183
411.2796	0.1833
411.4848	0.1908
411.69	0.1756
411.8952	0.1962
412.1004	0.1709
412.3056	0.1891
412.5107	0.1802
412.7158	0.1998
412.921	0.1975
413.1261	0.18
413.3312	0.1811
413.5362	0.1742
413.7413	0.1983
413.9464	0.1783
414.1514	0.1908
414.3564	0.1942
414.5614	0.1806
414.7664	0.1909
414.9714	0.1932
415.1764	0.1868
415.3813	0.186
415.5863	0.1832
415.7912	0.18
415.9961	0.1965
416.201	0.1891
416.4059	0.1992
416.6108	0.1714
416.8156	0.1998
417.0205	0.1831
417.2253	0.1758
417.4301	0.1834
417.6349	0.1798
417.8397	0.181
418.0445	0.1803
418.2492	0.1873
418.454	0.1849
418.6587	0.1822
418.8634	0.1686
419.0681	0.1769
419.2728	0.1643
419.4775	0.1789
419.6822	0.1661
419.8868	0.1573
420.0915	0.1649
420.2961	0.1678
420.5007	0.1515
420.7053	0.1671
420.9099	0.1633
421.1144	0.1664
421.319	0.1732
421.5235	0.1844
421.728	0.1859
421.9325	0.1871
422.137	0.1832
422.3415	0.1697
422.546	0.1705
422.7504	0.1721
422.9549	0.1715
423.1593	0.1735
423.3637	0.1615
423.5681	0.174
423.7725	0.1606
423.9769	0.1512
424.1812	0.1523
424.3856	0.1538
424.5899	0.1737
424.7942	0.1608
424.9985	0.18
425.2028	0.1624
425.4071	0.1802
425.6113	0.1391
425.8156	0.1576
426.0198	0.162
426.224	0.1463
426.4282	0.1547
426.6324	0.1476
426.8366	0.1502
427.0407	0.1523
427.2449	0.1515
427.449	0.1554
427.6531	0.1283
427.8572	0.1432
428.0613	0.1404
428.2654	0.1458
428.4694	0.1349
428.6735	0.1451
428.8775	0.1375
429.0815	0.1567
429.2855	0.1346
429.4895	0.1361
429.6935	0.1478
429.8975	0.1329
430.1014	0.1259
430.3053	0.1116
430.5093	0.1234
430.7132	0.1238
430.9171	0.1336
431.1209	0.1393
431.3248	0.1195
431.5286	0.1227
431.7325	0.1238
431.9363	0.1024
432.1401	0.118
432.3439	0.1046
432.5477	0.1056
432.7514	0.1061
432.9552	0.1223
433.1589	0.1069
433.3627	0.0907
433.5664	0.1116
433.7701	0.1063
433.9737	0.1048
434.1774	0.1013
434.3811	0.1016
434.5847	0.101
434.7883	0.1051
434.9919	0.1008
435.1955	0.1033
435.3991	0.0952
435.6027	0.0933
435.8062	0.0977
436.0098	0.0963
436.2133	0.1019
436.4168	0.0889
436.6203	0.0834
436.8238	0.0968
437.0272	0.0835
437.2307	0.0893
437.4341	0.105
437.6375	0.0937
437.841	0.0798
438.0443	0.1039
438.2477	0.0812
438.4511	0.0833
438.6545	0.0811
438.8578	0.0731
439.0611	0.0783
439.2644	0.0696
439.4677	0.0723
439.671	0.0705
439.8743	0.084
440.0775	0.0762
440.2808	0.0679
440.484	0.0675
440.6872	0.0573
440.8904	0.0545
441.0936	0.0974
441.2967	0.0513
441.4999	0.081
441.703	0.0513
441.9062	0.0632
442.1093	0.0619
442.3124	0.066
442.5155	0.0555
442.7185	0.0579
442.9216	0.027
443.1246	0.075
443.3276	0.0465
443.5307	0.0505
443.7337	0.0623
443.9366	0.046
444.1396	0.0481
444.3426	0.0459
444.5455	0.0578
444.7484	0.041
444.9513	0.033
445.1542	0.0461
445.3571	0.038
445.56	0.035
445.7628	0.0123
445.9657	0.0421
446.1685	0.0521
446.3713	0.0556
446.5741	0.0477
446.7769	0.0248
446.9797	0.0362
447.1824	0.0468
447.3852	0.0212
447.5879	0.042
447.7906	0.0408
447.9933	0.0285
448.196	0.0165
448.3986	0.0215
448.6013	0.0231
448.8039	0.0077
449.0066	0.0355
449.2092	0.0303
449.4118	0.0326
449.6143	0.0313
449.8169	0.0365
450.0195	0.0169
450.222	0.0066
450.4245	0.0202
450.627	0.0347
450.8295	0.0273
451.032	0.0314
451.2345	0.0171
451.4369	0.0258
451.6394	0.0287
451.8418	0.0023
452.0442	0.0057
452.2466	0.0323
452.449	0.0054
452.6513	0.007
452.8537	0.0108
453.056	0.0003
453.2583	0.0275
453.4607	0.0152
453.663	0.0143
453.8652	0.031
454.0675	0.0168
454.2697	0.0161
454.472	0.0194
454.6742	0.0144
454.8764	0.0162
455.0786	0.0195
455.2808	0.0003
455.4829	-0
455.6851	0.0108
455.8872	0.023
456.0893	0.02
456.2915	-0.0027
456.4935	0.0214
456.6956	0.0049
456.8977	0.0157
457.0997	0.0103
457.3018	-0.0139
457.5038	0.0127
457.7058	0.0093
457.9078	-0.0067
458.1098	0.0151
458.3117	0.0189
458.5137	0.0106
458.7156	0.0092
458.9175	-0.0063
459.1194	0.0133
459.3213	0.0118
459.5232	-0.0086
459.725	-0.0078
459.9269	-0.0087
460.1287	-0.0051
460.3305	-0.0065
460.5323	0.0011
460.7341	0.0135
460.9359	0.0004
461.1376	-0.0077
461.3394	-0.0053
461.5411	0.0049
461.7428	-0.0073
461.9445	0.0016
462.1462	0.0113
462.3479	0.003
462.5495	0.0096
462.7512	0.0024
462.9528	0.0052
463.1544	-0.0097
463.356	-0.0104
463.5576	0.0015
463.7592	-0.0107
463.9607	0.0019
464.1623	0.0024
464.3638	0.0184
464.5653	-0.0005
464.7668	-0.0121
464.9683	0.0054
465.1697	0.0095
465.3712	0.0024
465.5726	-0.0077
465.7741	-0.014
465.9755	-0.0116
466.1769	0.0016
466.3782	-0.0007
466.5796	-0.0028
466.7809	0.0114
466.9823	-0.0186
467.1836	0.0064
467.3849	-0.0064
467.5862	-0.0057
467.7875	0.0008
467.9887	0.0084
468.19	0.0004
468.3912	-0.0063
468.5924	-0.005
468.7936	-0.0048
468.9948	-0.0079
469.196	0.0063
469.3972	-0.0212
469.5983	-0.0011
469.7994	-0.0078
470.0006	-0.002
470.2017	-0.0209
470.4027	-0.0002
470.6038	-0.0034
470.8049	-0.0217
471.0059	-0.0143
471.2069	-0.0175
471.408	-0.007
471.6089	-0.0054
471.8099	-0.014
472.0109	0.0115
472.2119	-0.0257
472.4128	-0.0249
472.6137	-0.0062
472.8146	-0.0196
473.0155	-0.0145
473.2164	-0.0136
473.4173	-0.0083
473.6181	0.0103
473.819	-0.0151
474.0198	-0.0164
474.2206	-0.0073
474.4214	0.0042
474.6222	-0.0015
474.8229	-0.0116
475.0237	-0.0224
475.2244	-0.0164
475.4251	-0.0082
475.6258	-0.0126
475.8265	-0.0025
476.0272	-0.0067
476.2278	-0.0077
476.4285	0.0013
476.6291	-0.005
476.8297	-0.0188
477.0303	-0.0078
477.2309	-0.0119
477.4315	-0.0268
477.632	-0.0072
477.8326	-0.0136
478.0331	-0
478.2336	-0.0105
478.4341	-0.0065
478.6346	-0.0216
478.8351	-0.0049
479.0355	-0.0089
479.236	-0.0149
479.4364	-0.0034
479.6368	-0.0043
479.8372	-0.0138
480.0376	-0.0067
480.2379	-0.0142
480.4383	-0.018
480.6386	0.0009
480.8389	0.0045
481.0392	-0.0175
481.2395	-0.0079
481.4398	0.0002
481.6401	-0.0155
481.8403	-0.006
482.0405	-0.0009
482.2408	-0.0084
482.441	-0.003
482.6411	-0.007
482.8413	-0.0165
483.0415	-0.0201
483.2416	-0.0236
483.4417	-0.0232
483.6419	-0.0108
483.8419	-0.0136
484.042	0.0082
484.2421	-0.0083
484.4422	-0.0072
484.6422	-0.0117
484.8422	-0.006
485.0422	-0.0128
485.2422	-0.0036
485.4422	-0.0135
485.6422	-0.0137
485.8421	-0.0123
486.042	-0.0054
486.242	-0.0074
486.4419	-0.0221
486.6417	-0.0115
486.8416	-0.0011
487.0415	-0.0101
487.2413	-0.0008
487.4411	-0.016
487.641	-0.0002
487.8408	-0.0015
488.0405	-0.0116
488.2403	-0.009
488.4401	0.0026
488.6398	-0.0049
488.8395	-0.0041
489.0392	0.0047
489.2389	-0.0084
489.4386	-0.0123
489.6383	-0.0127
489.8379	-0.0075
490.0376	-0.0029
490.2372	-0.0182
490.4368	-0.0165
490.6364	-0.0109
490.836	-0.019
491.0355	-0.0125
491.2351	-0.0201
491.4346	-0.0158
491.6341	-0.0193
491.8336	-0.0003
492.0331	-0.023
492.2326	-0.0183
492.432	-0.0114
492.6315	-0.0188
492.8309	-0.0213
493.0303	-0.0165
493.2297	-0.0137
493.4291	-0.0122
493.6284	-0.0054
493.8278	-0.0079
494.0271	-0.0007
494.2264	-0.0005
494.4257	-0.018
494.625	-0.0102
494.8243	-0.0219
495.0236	-0.0202
495.2228	-0.0131
495.422	-0.0109
495.6213	-0.0089
495.8205	-0.0121
496.0196	-0.0156
496.2188	-0.0021
496.418	-0.0153
496.6171	-0.0135
496.8162	-0.0091
497.0153	-0.0048
497.2144	-0.0081
497.4135	-0.0134
497.6126	-0.0174
497.8116	-0.0141
498.0107	-0.0066
498.2097	-0.0204
498.4087	-0.0199
498.6077	-0.0028
498.8067	-0.0218
499.0056	-0.0003
499.2046	-0.0078
499.4035	-0.0186
499.6024	-0.0148
499.8013	-0.006
500.0002	-0.0197
500.199	-0.0097
500.3979	-0.0119
500.5967	-0.0287
500.7956	-0.0049
500.9944	-0.0122
501.1932	-0.0185
501.3919	-0.0164
501.5907	-0.0235
501.7895	-0.0065
501.9882	-0.0126
502.1869	-0.013
502.3856	-0.0101
502.5843	-0.0148
502.783	-0.0143
502.9816	-0.0127
503.1803	-0.0177
503.3789	-0.0168
503.5775	0.0082
503.7761	-0.0178
503.9747	-0.0085
504.1732	-0.0107
504.3718	-0.0064
504.5703	-0.0092
504.7689	-0.0144
504.9674	-0.0212
505.1658	-0.0144
505.3643	-0.0081
505.5628	-0.0138
505.7612	-0.0169
505.9597	0.0077
506.1581	-0.0148
506.3565	0.0103
506.5549	-0.0024
506.7532	-0.0261
506.9516	-0.0126
507.1499	-0.0025
507.3482	-0.0257
507.5465	-0.0211
507.7448	-0.0019
507.9431	-0.0084
508.1414	-0.0016
508.3396	-0.0172
508.5379	-0.012
508.7361	-0.0117
508.9343	-0.0121
509.1325	-0.0113
509.3306	-0.0118
509.5288	-0.0104
509.7269	-0.0082
509.9251	-0.0177
510.1232	-0.0236
510.3213	-0.0083
510.5193	-0.0029
510.7174	-0.018
510.9154	-0.0184
511.1135	-0.0166
511.3115	-0.0074
511.5095	-0.0038
511.7075	-0.0108
511.9055	-0.007
512.1034	-0.0079
512.3014	-0.009
512.4993	-0.0034
512.6972	-0.0122
512.8951	-0.0172
513.093	-0.0039
513.2908	-0.0112
513.4887	-0.0044
513.6865	-0.0079
513.8844	-0.0212
514.0822	-0.0101
514.2799	-0.0187
514.4777	-0.0133
514.6755	-0.0154
514.8732	-0.014
515.0709	-0.0092
515.2687	-0.015
515.4664	-0.0119
515.664	-0.0072
515.8617	-0.0108
516.0594	-0.0223
516.257	-0.0095
516.4546	-0.0098
516.6522	-0.006
516.8498	-0.0143
517.0474	-0.0043
517.2449	-0.0109
517.4425	-0.0275
517.64	-0.0107
517.8375	-0.0115
518.035	0.0009
518.2325	-0.0138
518.43	-0.0215
518.6274	-0.0077
518.8249	-0.0207
519.0223	-0.0164
519.2197	-0.016
519.4171	-0.0153
519.6145	-0.0131
519.8118	-0.0114
520.0092	-0.0031
520.2065	-0.0157
520.4038	-0.0169
520.6011	-0.009
520.7984	-0.0218
520.9956	-0.0092
521.1929	-0.0203
521.3901	-0.0034
521.5874	0.0007
521.7846	-0.0083
521.9818	-0.0283
522.1789	-0.0141
522.3761	-0.0102
522.5732	-0.0168
522.7704	-0.0133
522.9675	-0.0048
523.1646	-0.0195
523.3617	-0.0018
523.5587	-0.01
523.7558	-0.0016
523.9528	-0.0113
524.1498	-0.0045
524.3468	-0.014
524.5438	-0.0123
524.7408	-0.0089
524.9378	0.0006
525.1347	-0.0052
525.3316	-0.0054
525.5285	-0.0095
525.7254	-0.0204
525.9223	-0.0123
526.1192	-0.0117
526.316	-0.0178
526.5129	-0.0089
526.7097	-0
526.9065	-0.0233
527.1033	-0.012
527.3	0.0041
527.4968	-0.0062
527.6935	0.0027
527.8903	-0.0081
528.087	-0
528.2837	-0.004
528.4804	-0.0183
528.677	-0.0116
528.8737	-0.001
529.0703	-0.0082
529.2669	-0.0072
529.4635	-0.0132
529.6601	-0.0099
529.8567	-0.004
530.0532	-0.0124
530.2498	0.0003
530.4463	0.0013
530.6428	-0.0134
530.8393	0.0008
531.0358	-0.0097
531.2322	-0.008
531.4287	-0.0083
531.6251	-0.0079
531.8215	-0.002
532.0179	-0.0027
532.2143	-0.0083
532.4107	-0.0065
532.607	-0.0041
532.8034	-0.0043
532.9997	-0.0055
533.196	-0.0126
533.3923	-0.0095
533.5886	-0.0056
533.7848	-0.0059
533.9811	-0.0057
534.1773	0.0003
534.3735	-0.0005
534.5697	-0.005
534.7659	-0.0056
534.9621	0.0017
535.1582	-0.0131
535.3544	-0.0122
535.5505	-0.0097
535.7466	-0.001
535.9427	-0.0019
536.1387	-0.0036
536.3348	0.0039
536.5308	-0.0073
536.7269	-0.0227
536.9229	0.0003
537.1189	-0.005
537.3148	-0.01
537.5108	-0.0141
537.7068	0.0088
537.9027	-0.0085
538.0986	-0.0096
538.2945	-0.0104
538.4904	-0.0088
538.6863	-0.0015
538.8821	-0.0093
539.078	-0.0027
539.2738	-0.0064
539.4696	-0.0134
539.6654	0.0017
539.8611	0.0034
540.0569	-0.0084
540.2526	-0.0049
540.4484	0.0034
540.6441	-0.0011
540.8398	-0.0089
541.0355	0.0008
541.2311	-0.0018
541.4268	-0.0126
541.6224	-0.008
541.818	-0.0022
542.0136	-0.0103
542.2092	-0.0018
542.4048	-0.0035
542.6003	-0.0036
542.7959	-0.0083
542.9914	-0.0109
543.1869	-0.0032
543.3824	-0.0078
543.5779	-0.0089
543.7734	-0.0028
543.9688	-0.0114
544.1642	-0.0052
544.3596	0.0025
544.555	-0.0122
544.7504	-0.0012
544.9458	-0.0137
545.1411	-0.0086
545.3365	-0.0049
545.5318	-0.0018
545.7271	-0.0139
545.9224	-0.0021
546.1177	0.005
546.3129	-0.0007
546.5081	-0.0058
546.7034	-0.007
546.8986	-0.0172
547.0938	-0.0157
547.289	-0.0103
547.4841	0.0009
547.6793	-0.0001
547.8744	-0.0094
548.0695	-0.0107
548.2646	-0.0169
548.4597	-0.0053
548.6548	0.0029
548.8498	0.0045
549.0448	-0.0051
549.2399	-0.0073
549.4349	0.0054
549.6298	-0.0112
549.8248	-0.0002
550.0198	-0.0062
550.2147	-0.0113
550.4096	-0.0044
550.6045	0.0016
550.7994	0.0056
550.9943	0.002
551.1892	-0.0053
551.384	0.0009
551.5788	-0.0129
551.7737	-0.0025
551.9685	-0.0023
552.1632	-0.0093
552.358	-0.0023
552.5528	0.0002
552.7475	0.0041
552.9422	0.0017
553.1369	-0.0019
553.3316	0.0007
553.5263	-0.0152
553.7209	0.0052
553.9156	-0.0083
554.1102	-0.0008
554.3048	-0.0036
554.4994	0.0031
554.694	-0.0079
554.8885	-0.0025
555.0831	-0.0083
555.2776	-0.0096
555.4721	-0.0107
555.6666	-0.0071
555.8611	0.0045
556.0555	-0.0033
556.25	-0.0073
556.4444	-0.0123
556.6388	-0.0074
556.8332	-0.0058
557.0276	0.0003
557.222	-0.0059
557.4163	-0.0063
557.6107	-0.0128
557.805	0.0006
557.9993	-0.0091
558.1936	0.0001
558.3879	-0.0053
558.5821	-0.0005
558.7764	0.002
558.9706	-0.0058
559.1648	-0.0038
559.359	-0.0092
559.5532	-0.0106
559.7473	-0.0059
559.9415	-0.0022
560.1356	-0.0084
560.3297	-0.0124
560.5238	-0.0082
560.7179	-0.0047
560.9119	-0.0063
561.106	-0.0049
561.3	-0.0073
561.494	-0.006
561.688	-0.0079
561.882	-0.0127
562.076	-0.0116
562.2699	0.0003
562.4639	-0.0073
562.6578	0.001
562.8517	-0.0049
563.0456	0.0021
563.2395	-0.0038
563.4333	0.0005
563.6272	0.0031
563.821	-0.0086
564.0148	-0.0057
564.2086	-0.0072
564.4024	-0.0063
564.5961	-0.0093
564.7899	-0.0017
564.9836	-0.0048
565.1773	0.0003
565.371	-0.004
565.5647	0.002
565.7584	-0.0033
565.952	-0.0059
566.1456	-0.013
566.3393	-0.0061
566.5329	-0.0166
566.7264	-0.0076
566.92	-0.0098
567.1136	0.0026
567.3071	-0.0022
567.5006	-0
567.6941	-0.003
567.8876	0
568.0811	-0.0053
568.2745	-0.001
568.468	-0.0001
568.6614	0.0011
568.8548	-0.0052
569.0482	-0.0058
569.2416	-0.0044
569.4349	-0.0031
569.6283	-0.0028
569.8216	-0.0024
570.0149	-0.0006
570.2082	-0.0019
570.4015	0.0005
570.5947	-0.0006
570.788	0.0041
570.9812	0.0063
571.1744	0.0067
571.3676	-0.0056
571.5608	-0.0045
571.754	0.0046
571.9471	0.0009
572.1402	-0.0011
572.3333	-0.0096
572.5264	-0.0022
572.7195	0.0045
572.9126	-0.0023
573.1057	0.0025
573.2987	-0.0081
573.4917	-0.0038
573.6847	-0.0081
573.8777	0
574.0707	0.0018
574.2636	-0.0003
574.4566	-0.0061
574.6495	0.0008
574.8424	-0.0007
575.0353	-0.006
575.2281	0.008
575.421	0.0056
575.6138	0.0021
575.8067	-0.0046
575.9995	0.001
576.1923	-0.0021
576.385	0.0022
576.5778	-0.0069
576.7706	0.0001
576.9633	-0.0005
577.156	0.0027
577.3487	-0.0078
577.5414	-0.0052
577.734	0.0001
577.9267	-0.0003
578.1193	-0.0108
578.3119	-0.0044
578.5045	0.0055
578.6971	-0.0016
578.8897	0.0011
579.0822	0.0006
579.2747	-0.0039
579.4673	-0.007
579.6598	-0.0018
579.8522	-0.0049
580.0447	-0.0038
580.2372	-0.0046
580.4296	-0.0007
580.622	-0.0075
580.8144	-0.0006
581.0068	-0.0103
581.1992	-0.0123
581.3915	-0.0072
581.5839	-0.0058
581.7762	-0.01
581.9685	-0.004
582.1608	0.0008
582.353	-0.0041
582.5453	-0.0045
582.7375	-0.004
582.9298	-0.0018
583.122	-0.001
583.3142	-0.0016
583.5063	-0.0007
583.6985	-0.0087
583.8906	-0.0052
584.0827	-0.0085
584.2749	0.0045
584.4669	-0.0023
584.659	-0.0039
584.8511	-0.0018
585.0431	-0.0065
585.2352	-0.0037
585.4272	-0.0006
585.6192	-0.0024
585.8111	0.0004
586.0031	-0.0021
586.195	-0.0045
586.387	0.0007
586.5789	-0.0023
586.7708	-0.003
586.9627	-0.0008
587.1545	-0.0101
587.3464	-0.0008
587.5382	0.0003
587.73	0.0003
587.9218	0.0041
588.1136	-0.0038
588.3053	0.0068
588.4971	-0.0064
588.6888	-0.007
588.8805	-0.0039
589.0722	0.0049
589.2639	0.0047
589.4556	-0.002
589.6472	0.002
589.8389	-0.0092
590.0305	-0.0123
590.2221	0.0086
590.4137	-0.0141
590.6052	0.0076
590.7968	-0.0036
590.9883	-0.0003
591.1798	-0.0044
591.3713	-0.0025
591.5628	-0.0019
591.7543	0.0027
591.9458	-0.0062
592.1372	0.0007
592.3286	0.0038
592.52	0.0034
592.7114	-0.0068
592.9028	-0.0022
593.0941	-0.0032
593.2855	-0.0008
593.4768	-0.0014
593.6681	-0.0051
593.8594	-0.0046
594.0506	-0.0004
594.2419	0.0032
594.4331	0.0058
594.6244	-0.0023
594.8156	-0.0091
595.0067	-0.0003
595.1979	-0.0058
595.3891	0.0027
595.5802	0.0023
595.7713	-0.0059
595.9624	-0.0042
596.1535	0.0029
596.3446	-0.0019
596.5357	-0.0045
596.7267	0.0054
596.9177	-0.0015
597.1087	-0.0041
597.2997	-0.0081
597.4907	0.0025
597.6817	-0.0051
597.8726	0.0005
598.0635	-0.0045
598.2544	-0.0027
598.4453	-0.0004
598.6362	-0.0025
598.827	-0.0028
599.0179	0.0015
599.2087	0.0032
599.3995	0.0014
599.5903	0.0029
599.7811	0.0025
599.9718	-0.002
600.1626	-0.0051
600.3533	-0.0071
600.544	0.003
600.7347	-0.0051
600.9254	-0.0038
601.116	-0.0069
601.3067	0.0007
601.4973	-0.0072
601.6879	0.0019
601.8785	-0.002
602.0691	-0.0038
602.2596	0.0106
602.4502	0.0026
602.6407	0.002
602.8312	0.001
603.0217	-0.0039
603.2122	0.0011
603.4027	-0.0062
603.5931	-0.0029
603.7835	-0.0028
603.9739	-0.001
604.1643	-0.0076
604.3547	-0.0076
604.5451	0.0083
604.7354	-0.0014
604.9257	-0.0042
605.116	-0.0042
605.3063	0.0045
605.4966	-0.0023
605.6869	0.0035
605.8771	0.0015
606.0673	0.001
606.2575	0.0027
606.4477	0.0036
606.6379	0.0024
606.8281	0.0005
607.0182	-0.0067
607.2083	0.0107
607.3985	-0.0029
607.5885	-0.002
607.7786	0.0018
607.9687	-0.0074
608.1587	-0.0021
608.3488	-0.0046
608.5388	0.0029
608.7288	-0.0047
608.9187	-0.0042
609.1087	-0.0047
609.2986	-0.0083
609.4886	-0.006
609.6785	-0.0023
609.8684	0.0043
610.0582	-0.0005
610.2481	-0.0004
610.4379	-0.0039
610.6278	-0.0031
610.8176	0.0006
611.0074	-0.0074
611.1971	-0.0071
611.3869	-0.0018
611.5766	-0.0063
611.7664	-0.0036
611.9561	0.0042
612.1458	-0.006
612.3354	-0.0097
612.5251	-0.0061
612.7147	-0.0014
612.9044	0.0063
613.094	-0.0123
613.2836	-0.0039
613.4731	-0.0045
613.6627	-0.004
613.8522	-0.0024
614.0417	0.0045
614.2313	0.0015
614.4207	-0.0006
614.6102	0.0023
614.7997	-0.0095
614.9891	-0.0056
615.1785	-0.0001
615.3679	-0.0048
615.5573	0.0035
615.7467	0.0003
615.9361	-0.0045
616.1254	0.0008
616.3147	-0.0006
616.504	-0.0007
616.6933	0.003
616.8826	0.0042
617.0718	-0.0027
617.2611	0.004
617.4503	-0.0079
617.6395	-0.0041
617.8287	-0.0056
618.0179	-0.0019
618.207	0.007
618.3961	-0.0075
618.5853	-0.0039
618.7744	0.003
618.9634	0.0001
619.1525	0.0005
619.3416	0.0005
619.5306	-0.0006
619.7196	-0.0005
619.9086	-0.0076
620.0976	0.0005
620.2866	-0.0022
620.4755	0.0019
620.6645	-0.0036
620.8534	-0.0022
621.0423	-0.0014
621.2312	0.0069
621.42	-0.0038
621.6089	0.0012
621.7977	0.0014
621.9865	-0.0096
622.1753	0.0022
622.3641	-0.0036
622.5529	-0.0014
622.7416	0.0013
622.9303	-0.0035
623.1191	0.0058
623.3078	-0.0083
623.4964	-0.0025
623.6851	0.0005
623.8737	-0.0022
624.0624	0.0073
624.251	-0.0082
624.4396	-0.004
624.6282	-0.0114
624.8167	0.0031
625.0053	0.0013
625.1938	0.0083
625.3823	0.0021
625.5708	-0.0015
625.7593	-0.0085
625.9477	-0.011
626.1362	-0.0076
626.3246	0.0027
626.513	0.0017
626.7014	0.0009
626.8898	-0.0071
627.0781	-0.0017
627.2665	-0.002
627.4548	0.0055
627.6431	0.0024
627.8314	0.0025
628.0197	0.0012
628.2079	-0.006
628.3962	-0.0018
628.5844	-0.0069
628.7726	0.0031
628.9608	0.006
629.1489	0.003
629.3371	0.0024
629.5252	0.0037
629.7134	0.006
629.9015	-0.0002
630.0895	-0.0055
630.2776	0.0067
630.4657	-0.0029
630.6537	0.0005
630.8417	-0.0047
631.0297	0.0026
631.2177	-0.0058
631.4057	-0.0081
631.5936	0.0021
631.7815	0.0038
631.9695	-0.0019
632.1574	0.0076
632.3452	0.0095
632.5331	-0.0015
632.7209	-0.0071
632.9088	0.0157
633.0966	0.0101
633.2844	-0.0031
633.4722	0.0052
633.6599	0.0004
633.8477	0.001
634.0354	0.0021
634.2231	-0.0097
634.4108	-0.0006
634.5985	0.0047
634.7861	-0.0011
634.9738	-0.0013
635.1614	-0.0005
635.349	0.0026
635.5366	-0.0065
635.7242	0.0055
635.9117	-0.0019
636.0993	-0.0009
636.2868	0.0051
636.4743	-0.0016
636.6618	0.0121
636.8492	-0.0031
637.0367	0.0003
637.2241	-0.0047
637.4115	-0.0052
637.5989	-0.0039
637.7863	0.0076
637.9737	-0.0013
638.161	-0.0017
638.3484	-0.0044
638.5357	0.0041
638.723	0.0002
638.9103	0.0005
639.0975	0.0073
639.2848	-0.0007
639.472	0.0022
639.6592	0.0063
639.8464	0.0149
640.0336	0.0104
640.2208	0.0038
640.4079	-0.0021
640.595	-0.003
640.7821	0.0025
640.9692	0.0075
641.1563	0.0061
641.3434	0.004
641.5304	-0.0027
641.7174	0.0017
641.9044	0.0091
642.0914	0.0052
642.2784	0.0069
642.4653	0.0039
642.6523	0.0037
642.8392	-0.0048
643.0261	0.0089
643.213	0.0022
643.3999	0.0001
643.5867	-0.0024
643.7735	0.0012
643.9604	-0.0006
644.1472	-0.0014
644.3339	0.0027
644.5207	0.0118
644.7075	0.0016
644.8942	0.0092
645.0809	0.0096
645.2676	0.0163
645.4543	0.0011
645.6409	0.0047
645.8276	0.0069
646.0142	0.0045
646.2008	0.0005
646.3874	-0.0075
646.574	0
646.7605	-0.0038
646.9471	-0.0092
647.1336	0.0055
647.3201	-0.0002
647.5066	-0.0023
647.6931	0.0021
647.8795	-0.0039
648.0659	0.0057
648.2524	0.0049
648.4388	-0.0012
648.6252	-0.0007
648.8115	0.0027
648.9979	0.0009
649.1842	-0.0022
649.3705	0.0005
649.5568	-0.0032
649.7431	0.0006
649.9294	0.001
650.1156	-0.0054
650.3018	-0.0041
650.488	-0.0027
650.6742	0.005
650.8604	-0.0032
651.0466	-0.0083
651.2327	-0.0013
651.4188	0.0005
651.6049	-0.0079
651.791	-0.0006
651.9771	0.0034
652.1632	0.0029
652.3492	0.0028
652.5352	0.0014
652.7212	-0.0064
652.9072	0.0066
653.0932	0.0023
653.2791	-0.0033
653.465	0.0013
653.651	-0.0057
653.8369	0.0014
654.0227	0.0073
654.2086	0.0084
654.3944	0.0061
654.5803	0.0037
654.7661	-0.0026
654.9519	0.0004
655.1377	-0.0082
655.3234	-0.0032
655.5092	-0.0061
655.6949	-0.0105
655.8806	-0.008
656.0663	0.0001
656.2519	-0.0057
656.4376	0.0012
656.6232	0.0036
656.8088	-0.0002
656.9945	-0.0027
657.18	-0.0011
657.3656	0.0035
657.5511	-0.0042
657.7367	-0.0081
657.9222	0.0024
658.1077	-0.0032
658.2932	0.0028
658.4786	-0.0107
658.6641	-0.0042
658.8495	-0.0015
659.0349	-0.0018
659.2203	-0.0013
659.4057	0.0029
659.591	-0.0011
659.7764	-0.0089
659.9617	-0.0005
660.147	-0.0038
660.3323	0.0019
660.5176	0.0037
660.7028	0.0033
660.888	0.0027
661.0733	0.002
661.2585	-0.0048
661.4436	-0.0063
661.6288	-0.0043
661.8139	-0.0045
661.9991	0.0065
662.1842	0.0002
662.3693	-0.0022
662.5544	0.0002
662.7394	0.0004
662.9245	-0.0036
663.1095	0.0003
663.2945	0.0025
663.4795	-0.0003
663.6644	0.0045
663.8494	0.0051
664.0343	-0.0041
664.2193	-0.0105
664.4042	0.0028
664.589	-0.0077
664.7739	-0.0044
664.9587	-0.0054
665.1436	0.0041
665.3284	-0.0004
665.5132	-0.0019
665.698	-0.0033
665.8827	-0.0012
666.0675	-0.0054
666.2522	-0.0076
666.4369	-0.0004
666.6216	0.0049
666.8063	0
666.9909	0.0033
667.1756	-0.0083
667.3602	-0.0044
667.5448	-0.0063
667.7294	0.0072
667.9139	0.0025
668.0985	0.01
668.283	0.001
668.4675	-0.0011
668.652	0.0005
668.8365	-0.001
669.0209	0.0026
669.2054	0.0104
669.3898	-0.0021
669.5742	0.002
669.7586	0.0018
669.943	0.0025
670.1273	0.0046
670.3117	0.0058
670.496	0.0129
670.6803	0.0103
670.8646	0.003
671.0488	-0.0017
671.2331	0.011
671.4173	0.0019
671.6015	-0.0041
671.7857	0.0043
671.9699	0.0045
672.1541	-0.001
672.3382	0.0043
672.5223	0.0031
672.7064	0.0074
672.8905	0.0078
673.0746	-0.0042
673.2587	0.0023
673.4427	0.0041
673.6267	0.0022
673.8107	0.009
673.9947	0.0081
674.1787	-0.0005
674.3626	-0.0095
674.5465	0.0106
674.7304	-0.0005
674.9143	-0
675.0982	0.0095
675.2821	-0.0094
675.4659	0.0054
675.6497	0.0058
675.8335	-0.0031
676.0173	-0.0009
676.2011	0.0015
676.3849	-0.0004
676.5686	0.0004
676.7523	-0.0028
676.936	-0.0019
677.1197	-0.0052
677.3034	-0.0113
677.487	0.004
677.6706	-0.0002
677.8542	-0.0016
678.0378	-0.0041
678.2214	-0.0002
678.405	-0.0049
678.5885	-0.0013
678.772	0.0032
678.9555	-0.0066
679.139	-0.0034
679.3225	0.001
679.5059	-0.003
679.6894	0.0004
679.8728	0.0035
680.0562	-0.0028
680.2395	0.0002
680.4229	0.0005
680.6062	0.0055
680.7896	-0.0036
680.9729	-0.003
681.1562	0.0043
681.3394	0.0009
681.5227	-0.0089
681.7059	-0.0002
681.8891	0.0009
682.0723	0.0075
682.2555	0.0077
682.4387	0.0002
682.6218	-0.0034
682.805	0.0024
682.9881	0.0005
683.1712	-0.0029
683.3542	0.003
683.5373	0.0064
683.7203	-0.0101
683.9034	-0.0065
684.0864	-0.0115
684.2694	-0.0046
684.4523	0.0054
684.6353	-0.0042
684.8182	-0.0015
685.0011	-0.0125
685.184	0.0011
685.3669	-0.0022
685.5498	0.0033
685.7326	0.0029
685.9154	-0.003
686.0982	0.0101
686.281	0.0071
686.4638	0.0077
686.6465	0.0019
686.8293	-0.0078
687.012	-0.006
687.1947	-0.0108
687.3774	0.0011
687.56	-0.007
687.7427	-0.0025
687.9253	-0.0047
688.1079	-0.0007
688.2905	0.0004
688.4731	-0.0005
688.6556	-0.0079
688.8382	-0.0003
689.0207	0.0001
689.2032	-0.013
689.3857	-0.0087
689.5681	-0.016
689.7506	-0.0098
689.933	-0.008
690.1154	-0.0045
690.2978	-0.0033
690.4802	-0.0086
690.6626	-0.0116
690.8449	-0.0077
691.0272	0.0021
691.2095	-0.0106
691.3918	-0.0043
691.5741	0.001
691.7563	-0.004
691.9386	-0.0069
692.1208	-0.0038
692.303	0.0014
692.4852	-0.0053
692.6673	0.0082
692.8495	-0.0037
693.0316	0.0042
693.2137	-0.0011
693.3958	-0.0027
693.5778	0.0014
693.7599	-0.0039
693.9419	-0.0027
694.1239	-0.0028
694.3059	-0.0083
694.4879	0.0073
694.6699	0.0031
694.8518	0.001
695.0337	-0.0065
695.2157	0.0024
695.3975	-0.0055
695.5794	0.0024
695.7613	0.0066
695.9431	-0.0062
696.1249	0.0014
696.3067	0.0034
696.4885	0.0122
696.6703	-0.0102
696.852	0
697.0337	0.0006
697.2154	-0.0028
697.3971	0.0007
697.5788	0.0006
697.7605	0.0012
697.9421	-0.0004
698.1237	0.0005
698.3053	-0.0028
698.4869	-0.0074
698.6685	-0.0083
698.85	-0.0074
699.0315	0.0048
699.213	-0.0058
699.3945	-0.0009
699.576	0.003
699.7575	0.0011
699.9389	0.0067
700.1203	-0.0064
700.3017	-0.0043
700.4831	-0.0058
700.6645	-0.0037
700.8458	-0.0022
701.0271	-0.0035
701.2084	0.0069
701.3897	-0.0064
701.571	0.0019
701.7523	-0.006
701.9335	-0.0025
702.1147	-0.0058
702.2959	-0.0081
702.4771	-0.0018
702.6583	0.0028
702.8394	-0.0035
703.0205	0.0018
703.2016	-0.0074
703.3827	-0.0062
703.5638	0.0117
703.7449	-0.0003
703.9259	0.0115
704.1069	-0.0021
704.2879	0.0108
704.4689	0.0032
704.6499	-0.0025
704.8308	0.0006
705.0117	0.0026
705.1927	0.0066
705.3735	-0.0025
705.5544	-0.007
705.7353	0.0019
705.9161	-0.0108
706.0969	-0.004
706.2777	-0.0059
706.4585	-0.0057
706.6393	-0.0002
706.82	0.0067
707.0007	0.0022
707.1815	0.0021
707.3621	0.0048
707.5428	0.0003
707.7235	0.0024
707.9041	-0.0014
708.0847	-0.0167
708.2653	-0.005
708.4459	-0.0157
708.6265	0.0019
708.807	-0.0057
708.9875	-0.0085
709.168	-0.0014
709.3485	-0.0077
709.529	-0.0036
709.7095	-0.0101
709.8899	0.0035
710.0703	-0.0091
710.2507	-0.0027
710.4311	-0.0007
710.6115	-0.007
710.7918	-0.0034
710.9721	-0.0031
711.1524	-0.0127
711.3327	0.0076
711.513	0.0014
711.6932	0.0016
711.8735	-0.0001
712.0537	0.0051
712.2339	0.0043
712.4141	-0.0127
712.5942	-0.002
712.7744	-0.0068
712.9545	-0.0099
713.1346	-0.0017
713.3147	0.0035
713.4947	-0.0068
713.6748	-0.0014
713.8548	-0.0041
714.0348	-0.0022
714.2148	-0.0032
714.3948	-0.0018
714.5748	-0.0045
714.7547	-0.0075
714.9346	0.0082
715.1145	-0.008
715.2944	-0.0105
715.4743	-0.0038
715.6541	-0.0034
715.834	-0.0026
716.0138	-0.0031
716.1936	-0.0121
716.3733	-0.0103
716.5531	-0.0031
716.7328	-0.0113
716.9126	-0.0057
717.0923	-0.0014
717.2719	0.0034
717.4516	0.0024
717.6312	0.0016
717.8109	-0.0006
717.9905	0.001
718.1701	-0.0108
718.3496	-0.0117
718.5292	-0.003
718.7087	0.0062
718.8882	-0.0092
719.0677	-0.0003
719.2472	-0.0048
719.4267	0.0023
719.6061	-0.0018
719.7856	0.0056
719.965	0.0063
720.1443	0.0065
720.3237	0.0123
720.5031	-0.0003
720.6824	0.0027
720.8617	-0.0074
721.041	0.004
721.2203	0.0057
721.3995	0.0013
721.5788	-0.0032
721.758	0.0032
721.9372	-0.0058
722.1164	0.0013
722.2956	0.0023
722.4747	-0.0084
722.6538	-0.0063
722.8329	0.0074
723.012	0.0042
723.1911	-0.0069
723.3702	0.0009
723.5492	0.0125
723.7282	-0.0012
723.9072	0.003
724.0862	-0.0069
724.2652	-0.006
724.4441	-0.0004
724.623	-0.0051
724.8019	-0.0069
724.9808	0.002
725.1597	-0.0158
725.3385	0.0128
725.5174	-0.0107
725.6962	-0.0004
725.875	-0.0013
726.0538	0.0021
726.2325	0.0046
726.4112	0.0014
726.59	-0.0003
726.7687	-0.0021
726.9474	0.0075
727.126	-0.001
727.3047	-0.0046
727.4833	-0.0008
727.6619	-0.0114
727.8405	0.0031
728.0191	-0.0047
728.1976	0.0022
728.3762	-0.0042
728.5547	-0.0043
728.7332	-0.0059
728.9116	0.001
729.0901	-0.0008
729.2686	0.0015
729.447	0.0001
729.6254	-0.0007
729.8038	-0.0011
729.9821	-0.0137
730.1605	-0.0026
730.3388	-0.0039
730.5171	0.0006
730.6954	-0.0073
730.8737	-0.0019
731.0519	0.0031
731.2302	0.005
731.4084	-0.0033
731.5866	0.0009
731.7648	-0.0036
731.9429	-0.012
732.1211	-0.0145
732.2992	-0.0053
732.4773	-0.0089
732.6554	-0.002
732.8335	0.0009
733.0115	0.0019
733.1896	0.014
733.3676	-0.0088
733.5456	-0.001
733.7235	0.0003
733.9015	-0.0062
734.0794	-0.0028
734.2574	-0.0054
734.4353	-0.0058
734.6131	0.0002
734.791	0.0016
734.9689	-0.0047
735.1467	0.004
735.3245	-0.0122
735.5023	-0.008
735.68	-0.0051
735.8578	0.008
736.0355	-0.0156
736.2132	-0.0075
736.3909	-0.0074
736.5686	-0.0109
736.7463	-0.0019
736.9239	-0.0116
737.1015	-0.004
737.2791	0.0019
737.4567	-0.0034
737.6343	-0.0029
737.8118	0.0036
737.9894	-0.0012
738.1669	-0.0054
738.3444	-0.0044
738.5218	0.0001
738.6993	0.0059
738.8767	-0.0012
739.0541	0.0065
739.2315	-0.0098
739.4089	-0.0047
739.5863	0.0026
739.7636	-0.0057
739.9409	-0.0006
740.1182	0.0005
740.2955	0.0053
740.4728	-0.005
740.65	-0.0043
740.8272	-0.0007
741.0044	-0.0069
741.1816	0.001
741.3588	-0.0036
741.5359	0.0015
741.7131	-0.0107
741.8902	0.0022
742.0673	0.0004
742.2444	-0.0143
742.4214	-0.0137
742.5985	-0.0071
742.7755	-0.0084
742.9525	-0.0167
743.1295	-0.0132
743.3064	-0.0144
743.4834	-0.0053
743.6603	-0.0054
743.8372	-0.0115
744.0141	-0.0082
744.191	-0.0023
744.3678	-0.0047
744.5446	0.0004
744.7215	-0.001
744.8982	-0.0111
745.075	-0.0207
745.2518	-0.005
745.4285	-0.0023
745.6052	-0.0064
745.7819	-0.0092
745.9586	-0.0086
746.1353	-0.0002
746.3119	-0.0127
746.4885	-0.0061
746.6651	-0.0092
746.8417	-0.0078
747.0183	0.0034
747.1948	0.0017
747.3714	0.0023
747.5479	0.0042
747.7244	-0.0099
747.9008	0.0034
748.0773	0.002
748.2537	-0.0019
748.4301	-0.01
748.6065	0.0073
748.7829	0.0037
748.9593	-0.006
749.1356	-0.0037
749.3119	-0.0024
749.4882	-0.0089
749.6645	0.0073
749.8408	-0.0063
750.017	-0.0107
750.1933	-0.0068
750.3695	-0.0028
750.5457	0.003
750.7218	0.0002
750.898	-0.005
751.0741	-0.0012
751.2502	-0.0028
751.4263	-0.0016
751.6024	-0.0076
751.7784	-0.0043
751.9545	-0.0086
752.1305	-0.0065
752.3065	-0.005
752.4825	0.0039
752.6584	-0.0197
752.8344	0.0051
753.0103	-0.0054
753.1862	-0.0047
753.3621	-0.003
753.5379	-0.003
753.7138	-0.003
753.8896	-0.0002
754.0654	0.0013
754.2412	0.0031
754.417	0.0039
754.5927	-0.0041
754.7685	-0.0065
754.9442	0.0003
755.1199	0.0081
755.2956	0.0014
755.4712	0.0107
755.6469	0.0004
755.8225	-0.0002
755.9981	-0.0004
756.1736	0.0031
756.3492	-0.0015
756.5248	-0.0002
756.7003	0.0022
756.8758	0.0069
757.0513	-0.01
757.2267	-0.0046
757.4022	-0.0072
757.5776	-0.003
757.753	-0.0023
757.9284	-0.0048
758.1038	0.0066
758.2791	0.0039
758.4545	-0.0158
758.6298	-0.0056
758.8051	0.0011
758.9803	-0.0064
759.1556	0.0027
759.3308	-0.0064
759.506	0.0104
759.6812	0.0078
759.8564	0.0124
760.0316	-0.0039
760.2067	0.0053
760.3819	0.0041
760.557	0.0107
760.732	0.0014
760.9071	-0.0088
761.0821	0.0087
761.2572	0.0164
761.4322	0.0035
761.6072	-0.0017
761.7821	0.006
761.9571	0.0107
762.132	0.0029
762.3069	-0.0034
762.4818	0.0025
762.6567	-0.0011
762.8316	0.0056
763.0064	0.0003
763.1812	0.0048
763.356	-0.0093
763.5308	-0.0027
763.7055	-0.0023
763.8803	-0.0043
764.055	-0.0041
764.2297	-0.008
764.4044	-0.0152
764.579	-0.0056
764.7537	-0.0134
764.9283	-0.0027
765.1029	-0.0016
765.2775	-0.0171
765.4521	-0.0224
765.6266	-0.012
765.8011	-0.0027
765.9756	-0.0121
766.1501	-0.0003
766.3246	-0.0066
766.4991	-0.0033
766.6735	-0.0001
766.8479	-0.0063
767.0223	0.0033
767.1967	-0.0077
767.371	-0.0002
767.5454	-0.0077
767.7197	-0.0035
767.894	-0.0114
768.0683	-0.0112
768.2425	-0.0004
768.4168	0.0044
768.591	0.0041
768.7652	0.0004
768.9394	-0.0068
769.1135	-0.0009
769.2877	-0.0001
769.4618	0.0009
769.6359	0.0026
769.81	0.0043
769.984	-0.0012
770.1581	-0.0033
770.3321	0.0034
770.5061	0.0078
770.6801	-0.0013
770.8541	0.0013
771.028	0.0016
771.202	-0.0054
771.3759	0.0089
771.5498	-0.0006
771.7236	0.0079
771.8975	-0.0004
772.0713	-0.0045
772.2451	-0.0064
772.4189	0.0113
772.5927	0.0065
772.7665	0.0034
772.9402	0.002
773.1139	0.0052
773.2876	-0.018
773.4613	0.0027
773.635	-0.0031
773.8086	-0.0045
773.9822	0.0069
774.1558	-0.0091
774.3294	-0.0148
774.503	0.0093
774.6765	-0.0029
774.8501	-0.0089
775.0236	0.0024
775.1971	0.0074
775.3705	-0.0072
775.544	0.007
775.7174	-0.008
775.8908	-0.0054
776.0642	-0.0014
776.2376	-0.0117
776.4109	-0.017
776.5843	-0.004
776.7576	0.0052
776.9309	-0.0017
777.1041	-0.0027
777.2774	0.0156
777.4506	-0.0026
777.6238	-0.0105
777.797	-0.0043
777.9702	-0.0059
778.1434	0.0075
778.3165	-0.0109
778.4896	-0.007
778.6627	0.0046
778.8358	0.0014
779.0089	-0.0065
779.1819	-0.0107
779.3549	0.0078
779.5279	0.0063
779.7009	0.0085
779.8739	0.0084
780.0468	0.0044
780.2197	-0.0022
780.3926	0.0034
780.5655	-0.0026
780.7384	0.002
780.9112	-0.0004
781.0841	-0.0032
781.2569	0.0008
781.4297	-0.0095
781.6024	0.0096
781.7752	0.009
781.9479	0.0036
782.1206	0.0024
782.2933	-0.0194
782.466	0.0042
782.6386	0.0055
782.8113	-0.0095
782.9839	-0.0034
783.1565	0.0148
783.329	-0.0003
783.5016	0.0045
783.6741	-0.0041
783.8466	0.0017
784.0191	0.0043
784.1916	0.0024
784.3641	-0.0081
784.5365	0.006
784.7089	-0.0063
784.8813	-0.0047
785.0537	-0.0127
785.2261	-0.0125
785.3984	-0.0113
785.5707	-0.0053
785.743	-0.0059
785.9153	0.0088
786.0876	-0.0029
786.2598	-0.0137
786.432	-0.0203
786.6042	-0.0015
786.7764	0.007
786.9486	0.0111
787.1207	-0.0026
787.2928	-0.0031
787.4649	-0.0014
787.637	0.0051
787.8091	-0.0054
787.9811	-0.0074
788.1532	0.0065
788.3252	0.0042
788.4972	-0.0019
788.6691	-0
788.8411	0.0033
789.013	0.002
789.1849	-0.0027
789.3568	0.0034
789.5287	0.0025
789.7005	0.0036
789.8723	0.0015
790.0442	0.0076
790.2159	-0.0074
790.3877	0.0088
790.5595	-0.0153
790.7312	0.0063
790.9029	-0.0145
791.0746	-0.0093
791.2463	-0.0016
791.4179	0.0038
791.5896	0.0009
791.7612	-0.0044
791.9328	-0.0033
792.1044	-0.0081
792.2759	-0.027
792.4474	-0.0032
792.619	0.0094
792.7905	0.0166
792.9619	-0.0089
793.1334	0.021
793.3048	0.0055
793.4762	-0
793.6476	0.0108
793.819	-0.0164
793.9904	0.0001
794.1617	-0.0162
794.333	-0.0046
794.5043	-0.0248
794.6756	-0.0098
794.8469	0.0036
795.0181	-0.0004
795.1893	-0.0202
795.3605	0.0169
795.5317	-0.0041
795.7029	-0.0079
795.874	-0.0011
796.0452	-0.0033
796.2163	-0.0016
796.3873	0.0085
796.5584	0.015
796.7294	0.006
796.9005	0.0212
797.0715	-0.0083
797.2425	-0.0209
797.4134	0.0067
797.5844	-0.0058
797.7553	-0.0186
797.9262	-0.0135
798.0971	-0.0096
798.2679	-0.0169
798.4388	-0.0117
798.6096	-0.0141
798.7804	-0.0143
798.9512	-0.0039
799.122	-0.0256
799.2927	0.01
799.4635	0.0111
799.6342	-0.0192
799.8049	-0.0068
799.9755	-0.0108
800.1462	0.0052
800.3168	0.0001
800.4874	0.0017
800.658	0.0236
800.8286	0.0114
800.9991	0.0121
801.1696	0.011
801.3402	0.0042
801.5106	0.0063
801.6811	0.0023
801.8516	0.0077
802.022	0.0072
802.1924	-0.0017
802.3628	0.01
802.5332	0.0122
802.7035	0.004
802.8739	-0.0158
803.0442	-0.0067
803.2145	0.0085
803.3847	-0.0048
803.555	-0.0087
803.7252	-0.0098
803.8954	-0.0045
804.0656	-0.0076
804.2358	-0.0065
804.4059	0.0147
804.5761	-0.0028
804.7462	-0.0029
804.9163	-0.0048
805.0864	-0.012
805.2564	-0.0175
805.4264	0.0057
805.5965	-0.012
805.7665	-0.006
805.9364	-0.0014
806.1064	0.0233
806.2763	0.0047
806.4462	0.0202
806.6161	-0.0067
806.786	-0.0175
806.9559	-0.0025
807.1257	-0.0019
807.2955	0.0018
807.4653	-0.0091
807.6351	-0.015
807.8048	-0.0022
807.9746	0.0035
808.1443	-0.0111
808.314	0.0016
808.4837	-0.0087
808.6533	0.005
808.8229	0.0103
808.9926	-0.0069
809.1622	-0.0128
809.3317	-0.0006
809.5013	0.0032
809.6708	-0.0054
809.8403	0.0107
810.0098	-0.0228
810.1793	0.0015
810.3488	0.006
810.5182	-0.025
810.6876	0.0078
810.857	-0.0124
811.0264	0.0253
811.1958	-0.0034
811.3651	0.0122
811.5344	0.0023
811.7037	-0.004
811.873	-0.0351
812.0422	0.0095
812.2115	-0.0001
812.3807	-0.0102
812.5499	-0.0091
812.7191	-0.0009
812.8882	-0.0138
813.0574	-0.0107
813.2265	-0.0111
813.3956	-0.0165
813.5646	-0.0139
813.7337	-0.0246
813.9027	0.0005
814.0718	0.0175
814.2407	0.0119
814.4097	-0.0284
814.5787	-0.0136
814.7476	-0.0134
814.9165	0.0033
815.0854	-0.0166
815.2543	-0.0066
815.4232	-0.0137
815.592	0.0008
815.7608	0.0074
815.9296	0.0002
816.0984	0.0163
816.2671	-0.0036
816.4359	-0.0034
816.6046	-0.006
816.7733	0.0064
816.942	-0.0106
817.1106	0.0112
817.2793	-0.0063
817.4479	-0.0116
817.6165	-0.0104
817.785	-0.015
817.9536	-0.0133
818.1221	-0.0155
818.2906	-0.0133
818.4591	-0.0123
818.6276	-0.0317
818.7961	-0.0079
818.9645	0.013
819.1329	0.0066
819.3013	-0.0088
819.4697	0.0161
819.638	0.0009
819.8064	-0.0122
819.9747	-0.0066
820.143	-0.0142
820.3113	-0.0193
820.4795	0.0203
820.6477	0.0023
820.816	0.0027
820.9842	-0.0012
821.1523	-0.0094
821.3205	-0.0171
821.4886	-0.015
821.6567	-0.0179
821.8248	0.0044
821.9929	0.0027
822.1609	0.0086
822.329	0.0265
822.497	0.0215
822.665	-0.0099
822.833	-0.0325
823.0009	0.0075
823.1688	-0.0152
823.3367	0.0288
823.5046	0.0139
823.6725	0.0307
823.8404	-0.0036
824.0082	0.0142
824.176	-0.011
824.3438	-0.0005
824.5116	-0.0355
824.6793	-0.0201
824.847	0.0061
825.0147	0.0029
825.1824	0.0231
825.3501	0.0148
825.5177	-0.0251
825.6854	-0.0268
825.853	0.0195
826.0206	-0.0372
826.1881	0.013
826.3557	-0.0373
826.5232	0.0144
826.6907	-0.0372
826.8582	-0.0323
827.0257	-0.0182
827.1931	-0.0169
827.3605	-0.0152
827.528	0.0121
827.6953	-0.0221
827.8627	0.0136
828.03	0.0237
828.1974	0.0065
828.3647	-0.0183
828.532	-0.0099
828.6992	-0.0569
828.8665	0.0013
829.0337	-0.036
829.2009	0.0293
829.3681	-0.0235
829.5352	0.0244
829.7024	-0.0049
829.8695	-0.0112
830.0366	0.0406
830.2037	0.0112
830.3707	0.0359
830.5378	0.0009
830.7048	-0.0167
830.8718	-0.0182
831.0388	-0.0448
831.2057	-0.0001
831.3727	-0.0073
831.5396	-0.0052
831.7065	0.0139
831.8734	-0.0119
832.0402	0.0052
832.2071	-0.008
832.3739	-0.032
832.5407	0.0213
832.7075	-0.0076
832.8742	-0.0263
833.041	-0.0133
833.2077	0.0005
833.3744	-0.0013
833.541	-0.015
833.7077	-0.002
833.8743	0.0346
834.0409	0.0023
834.2075	-0.0139
834.3741	-0.0305
834.5407	0.0193
834.7072	0.0011
834.8737	-0.0061
835.0402	0.0093
835.2067	-0.0094
835.3731	-0.0145
835.5395	-0.0065
835.706	0.005
835.8723	0.0265
836.0387	-0.0008
836.2051	-0.0232
836.3714	-0.011
836.5377	0.0005
836.704	-0.0135
836.8703	-0.0101
837.0365	0.0147
837.2027	0.0067
837.3689	-0.0108
837.5351	0.0006
837.7013	-0.0209
837.8674	-0.0314
838.0335	-0.0547
838.1997	-0.0067
838.3657	-0.002
838.5318	-0.0002
838.6978	0.0281
838.8639	0.056
839.0299	0.0347
839.1958	-0.0348
839.3618	-0.0112
839.5277	-0.017
839.6937	-0.0463
839.8596	0.0034
840.0254	0.0432
840.1913	0.0235
840.3571	0.0278
840.523	0.0088
840.6888	0.0141
840.8545	-0.0336
841.0203	0.0315
841.186	0.0458
841.3517	0.047
841.5174	-0.008
841.6831	-0.0123
841.8488	-0.0339
842.0144	-0.0119
842.18	-0.002
842.3456	0.0473
842.5112	-0.0362
842.6767	-0.0546
842.8422	0.0194
843.0077	-0.0756
843.1732	-0.0434
843.3387	-0.0644
843.5042	-0.0858
843.6696	-0.0098
843.835	-0.0264
844.0004	-0.0089
844.1657	-0.0486
844.3311	-0.0481
844.4964	-0.051
844.6617	-0.0467
844.827	-0.0506
844.9923	-0.0093
845.1575	-0.0324
845.3227	-0.0072
845.4879	-0.04
845.6531	-0.0387
845.8183	-0.0513
845.9834	-0.0186
846.1485	-0.0256
846.3136	-0.0238
846.4787	-0.0585
846.6438	0.0821
846.8088	-0.0561
846.9738	-0.0711
847.1388	-0.0237
847.3038	-0.0635
847.4687	-0.1741
847.6337	-0.0055
847.7986	0.0037
847.9635	-0.0033
848.1284	-0.0294
848.2932	-0.043
848.458	-0.0907
848.6228	0.0418
848.7876	0.0198
848.9524	-0.1329
849.1172	-0.0815
849.2819	0.053
849.4466	-0.0517
849.6113	-0.1274
849.7759	-0.1126
849.9406	-0.0786
850.1052	-0.0383
850.2698	-0.0172
850.4344	0.0258
850.599	-0.1205
850.7635	0.0549
850.928	-0.0026
851.0925	-0.098
851.257	0.0121
851.4215	-0.0181
851.5859	-0.073
851.7503	-0.0004
851.9147	0.0302
852.0791	-0.0886
852.2434	0.0014
852.4078	-0.0182
852.5721	-0.0178
852.7364	-0.054
852.9007	-0.2936
853.0649	0.03
853.2291	-0.1003
853.3934	-0.0485
853.5575	0.0122
853.7217	-0.1585
853.8859	-0.1306
854.05	-0.0434
854.2141	0.0206
854.3782	-0.1541
854.5423	-0.1487
854.7063	0.0029
854.8703	-0.0924
855.0343	-0.1416
855.1983	-0.1717
855.3623	0.1503
855.5262	-0.0324
855.6901	-0.0618
855.854	-0.0067
856.0179	-0.0407
856.1818	-0.0396
856.3456	-0.0365
856.5094	-0.0802
856.6732	-0.2187
856.837	0.0574
857.0008	-0.0118
857.1645	-0.0068
857.3282	-0.2067
857.4919	0.095
857.6556	0.1428
857.8192	-0.0591
857.9828	-0.0539
858.1465	-0.0558
858.31	-0.2367
858.4736	-0.0291
858.6372	-0.126
858.8007	-0.2505
858.9642	0.1247
859.1277	-0.1094
859.2911	-0.0103
859.4546	-0.0691
859.618	-0.4086
859.7814	-0.0424
859.9448	0.0077
860.1081	-0.0957
860.2715	-0.0006
860.4348	-0.0854
860.5981	0.0035
860.7614	0.0966
860.9246	-0.2566
861.0879	-0.2436
861.2511	0.0727
861.4143	-0.2453
861.5774	0.3391
861.7406	-0.367
861.9037	-0.0498
862.0668	-0.1175
862.2299	-0.0429
862.393	-0.3865
862.556	0.0866
862.7191	-0.4095
862.8821	-0.3903
863.0451	-0.0989
863.208	0.1701
863.371	0.0931
863.5339	-0.3015
863.6968	-0.0251
863.8597	0.0325
864.0225	-0.0773
864.1854	0.2776
864.3482	0.1364
864.511	-0.0915
864.6737	0.433
864.8365	-0.107
864.9992	-0.0961
865.1619	0.0467
865.3246	-0.2316
865.4873	-0.0297
865.65	-0.3386
865.8126	-0.0935
865.9752	-0.0891
866.1378	-0.2082
866.3004	0.0251
866.4629	0.2721
866.6254	-0.2879
866.7879	-0.0888
866.9504	0.7011
867.1129	-0
867.2753	-0.0479
867.4377	0.2774
867.6001	-0.2936
867.7625	0.1269
867.9249	-0.661
868.0872	0.0245
868.2495	0.0993
868.4118	-0.1568
868.5741	-0.532
868.7363	-0.0843
868.8986	-0.0289
869.0608	-0.09
869.223	-0.0347
869.3851	-0
869.5473	-0
869.7094	0.1917
869.8715	-0
870.0336	-0
870.1957	-0.5036
870.3577	-0.8006
870.5197	0.4352
870.6817	-0.5158
870.8437	-0.252
871.0057	-0
871.1676	-0.4759
871.3295	-0
871.4914	-0
871.6533	-0.4543
871.8151	-0.4486
871.977	-0
872.1388	-0
872.3006	-0
872.4623	0.3811
872.6241	0.3213
872.7858	-0.2809
872.9475	-0.0638
873.1092	-0
873.2709	-0
873.4325	-0.3255
873.5941	-0
873.7557	-0
873.9173	-0
874.0789	0.074
874.2404	-0
874.4019	0.843
874.5634	-0.2476
874.7249	-0.0202
874.8863	-0.2846
875.0478	0.171
875.2092	-0
875.3706	-0
875.5319	-0.836
875.6933	-0
875.8546	-0.2146
876.0159	-0
876.1772	-0
876.3385	-0
876.4997	0.2566
876.6609	-0.7264
876.8221	-0.0291
876.9833	-0
877.1445	-0
877.3056	0.1976
877.4667	-0.3145
877.6278	-0
877.7889	-0.1318
877.9499	-0
878.111	-0
878.272	-0
878.433	-0
878.5939	0.018
878.7549	-0.2439
878.9158	-1.0607
879.0767	-0
879.2376	-0
879.3984	-0.6354
879.5593	-0
879.7201	0.0215
879.8809	-0.8151
880.0417	-0.1499
880.2024	1.3949
880.3632	-0
880.5239	0.3427
880.6846	-0.1041
880.8452	-2.5447
881.0059	-0
881.1665	0.003
881.3271	0.0042
881.4877	-0.6595
881.6483	-0.6688
881.8088	-0.2111
881.9693	1.2291
882.1298	1.2291
882.2903	1.2291
