Data from MonoPyChalIsomerACN10uM410nmA_Absorbance_14-53-25-773.txt Node
Date: Fri Jul 05 14:53:25 BST 2024
User: LASERRRRR
Spectrometer: FLMT03099
Trigger mode: 0
Integration Time (sec): 1.000000E-1
Scans to average: 1
Electric dark correction enabled: true
Nonlinearity correction enabled: false
Boxcar width: 0
XAxis mode: Wavelengths
Number of Pixels in Spectrum: 3648
>>>>>Begin Spectral Data<<<<<
179.3399	-0.1107
179.5586	-0.1107
179.7771	-0.1107
179.9957	0.3184
180.2143	-0
180.4329	-0.3821
180.6514	-0
180.8699	0.1452
181.0885	0.2115
181.307	-0.0967
181.5255	-0.7466
181.744	-0.8405
181.9625	-0
182.181	-0
182.3994	-0
182.6179	-0
182.8363	0.0197
183.0547	-0.1851
183.2732	0.0913
183.4916	0.3137
183.71	0.0562
183.9284	0.4134
184.1467	-0.1592
184.3651	0.1231
184.5835	0.0304
184.8018	0.4095
185.0201	0.1135
185.2385	0.1196
185.4568	0.2349
185.6751	0.1463
185.8934	0.2015
186.1117	0.0935
186.3299	0.0055
186.5482	0.1836
186.7664	0.064
186.9847	0.0559
187.2029	0.0217
187.4211	0.0703
187.6393	0.0245
187.8575	-0.1119
188.0757	0.2288
188.2939	0.1582
188.512	0.44
188.7302	-0.0726
188.9483	0.2693
189.1665	0.2408
189.3846	-0.1625
189.6027	0.2642
189.8208	0.2118
190.0389	0.1665
190.257	0.227
190.475	0.481
190.6931	0.2846
190.9111	0.1913
191.1292	0.0965
191.3472	0.3666
191.5652	0.3961
191.7832	0.2391
192.0012	0.4504
192.2192	0.3819
192.4371	0.4081
192.6551	0.3284
192.873	0.4261
193.091	0.4654
193.3089	0.4525
193.5268	0.6147
193.7447	0.6245
193.9626	0.6195
194.1805	0.495
194.3984	0.6256
194.6162	0.5254
194.8341	0.4883
195.0519	0.4431
195.2697	0.8721
195.4875	0.6452
195.7054	0.8023
195.9231	0.5081
196.1409	0.7675
196.3587	0.5864
196.5765	0.6071
196.7942	0.5505
197.012	0.4322
197.2297	0.563
197.4474	0.6269
197.6651	0.6117
197.8828	0.5413
198.1005	0.561
198.3182	0.5991
198.5358	0.6959
198.7535	0.6468
198.9711	0.7493
199.1888	0.6073
199.4064	0.6776
199.624	0.5622
199.8416	0.589
200.0592	0.5945
200.2767	0.6446
200.4943	0.6995
200.7119	0.8551
200.9294	0.5934
201.1469	0.5412
201.3645	0.5454
201.582	0.5821
201.7995	0.5875
202.017	0.6521
202.2344	0.6465
202.4519	0.7648
202.6694	0.6748
202.8868	0.6598
203.1042	0.7034
203.3217	0.6092
203.5391	0.7292
203.7565	0.5769
203.9739	0.655
204.1913	0.5665
204.4086	0.6576
204.626	0.7745
204.8433	0.6577
205.0607	0.6267
205.278	0.6188
205.4953	0.6387
205.7126	0.6463
205.9299	0.8551
206.1472	0.7699
206.3644	0.5877
206.5817	0.8299
206.7989	0.7464
207.0162	0.6663
207.2334	0.74
207.4506	0.633
207.6678	0.6448
207.885	0.8206
208.1022	0.7154
208.3194	0.6477
208.5365	0.6591
208.7537	0.6944
208.9708	0.6036
209.1879	0.6604
209.405	0.7073
209.6222	0.7952
209.8392	0.6147
210.0563	0.6298
210.2734	0.6776
210.4905	0.6132
210.7075	0.5761
210.9245	0.57
211.1416	0.6785
211.3586	0.7102
211.5756	0.5877
211.7926	0.6076
212.0096	0.5525
212.2265	0.5884
212.4435	0.634
212.6604	0.627
212.8774	0.6002
213.0943	0.5938
213.3112	0.5591
213.5281	0.5371
213.745	0.5667
213.9619	0.5463
214.1788	0.4646
214.3956	0.4346
214.6125	0.4916
214.8293	0.4226
215.0461	0.4676
215.2629	0.4491
215.4798	0.493
215.6965	0.4195
215.9133	0.4715
216.1301	0.4335
216.3469	0.433
216.5636	0.4122
216.7803	0.3743
216.9971	0.4208
217.2138	0.3546
217.4305	0.3683
217.6472	0.3539
217.8639	0.3848
218.0805	0.3127
218.2972	0.3324
218.5138	0.3461
218.7305	0.3142
218.9471	0.3044
219.1637	0.2651
219.3803	0.2897
219.5969	0.279
219.8135	0.2369
220.0301	0.262
220.2466	0.2679
220.4632	0.2538
220.6797	0.2442
220.8962	0.2262
221.1127	0.2515
221.3292	0.2727
221.5457	0.243
221.7622	0.244
221.9787	0.2623
222.1951	0.2363
222.4116	0.2786
222.628	0.2528
222.8444	0.258
223.0608	0.2472
223.2772	0.2456
223.4936	0.269
223.71	0.2583
223.9264	0.2827
224.1427	0.2453
224.3591	0.2555
224.5754	0.2589
224.7917	0.2616
225.008	0.26
225.2243	0.2429
225.4406	0.2772
225.6569	0.255
225.8732	0.2475
226.0894	0.2575
226.3057	0.2572
226.5219	0.3138
226.7381	0.2716
226.9543	0.2619
227.1705	0.2769
227.3867	0.2917
227.6029	0.2855
227.8191	0.2946
228.0352	0.2824
228.2513	0.2904
228.4675	0.307
228.6836	0.3293
228.8997	0.2732
229.1158	0.312
229.3319	0.2985
229.548	0.303
229.764	0.3257
229.9801	0.3221
230.1961	0.329
230.4121	0.3251
230.6282	0.3334
230.8442	0.3152
231.0602	0.3545
231.2761	0.3555
231.4921	0.3402
231.7081	0.3742
231.924	0.3392
232.14	0.3596
232.3559	0.3467
232.5718	0.3548
232.7877	0.3545
233.0036	0.3441
233.2195	0.3571
233.4353	0.3559
233.6512	0.3527
233.867	0.3662
234.0829	0.3628
234.2987	0.3784
234.5145	0.373
234.7303	0.3746
234.9461	0.3921
235.1619	0.365
235.3776	0.3784
235.5934	0.3605
235.8091	0.347
236.0249	0.3862
236.2406	0.3941
236.4563	0.3821
236.672	0.4101
236.8877	0.391
237.1034	0.3817
237.319	0.3911
237.5347	0.3918
237.7503	0.3928
237.966	0.4052
238.1816	0.3931
238.3972	0.4076
238.6128	0.3993
238.8284	0.4088
239.0439	0.401
239.2595	0.4049
239.475	0.3951
239.6906	0.4025
239.9061	0.4043
240.1216	0.4074
240.3371	0.4107
240.5526	0.3885
240.7681	0.4028
240.9836	0.3944
241.199	0.3734
241.4145	0.3796
241.6299	0.3697
241.8453	0.3748
242.0607	0.3954
242.2761	0.372
242.4915	0.3693
242.7069	0.3559
242.9223	0.3508
243.1376	0.3445
243.353	0.3384
243.5683	0.3409
243.7836	0.3267
243.9989	0.3405
244.2142	0.3116
244.4295	0.327
244.6448	0.3119
244.86	0.2868
245.0753	0.2972
245.2905	0.2927
245.5057	0.2699
245.721	0.2816
245.9362	0.2593
246.1514	0.2608
246.3665	0.2656
246.5817	0.2577
246.7969	0.2413
247.012	0.2493
247.2271	0.2429
247.4423	0.2408
247.6574	0.2585
247.8725	0.2217
248.0876	0.212
248.3026	0.2285
248.5177	0.2337
248.7328	0.2123
248.9478	0.2083
249.1628	0.2131
249.3779	0.2187
249.5929	0.1989
249.8079	0.2087
250.0228	0.2009
250.2378	0.2096
250.4528	0.2094
250.6677	0.1903
250.8827	0.1847
251.0976	0.1929
251.3125	0.1975
251.5274	0.1759
251.7423	0.189
251.9572	0.1873
252.172	0.1853
252.3869	0.1848
252.6017	0.1715
252.8166	0.1619
253.0314	0.1668
253.2462	0.1717
253.461	0.1789
253.6758	0.1619
253.8906	0.1747
254.1053	0.1662
254.3201	0.1707
254.5348	0.1784
254.7496	0.1758
254.9643	0.1658
255.179	0.1695
255.3937	0.1667
255.6083	0.1723
255.823	0.1625
256.0377	0.1617
256.2523	0.1686
256.467	0.1498
256.6816	0.1706
256.8962	0.162
257.1108	0.1606
257.3254	0.1776
257.54	0.1635
257.7545	0.1623
257.9691	0.1702
258.1836	0.1736
258.3981	0.1702
258.6127	0.1848
258.8272	0.1625
259.0417	0.1663
259.2561	0.1633
259.4706	0.1576
259.6851	0.1633
259.8995	0.1598
260.114	0.1599
260.3284	0.1668
260.5428	0.1639
260.7572	0.1565
260.9716	0.1708
261.186	0.1468
261.4003	0.1556
261.6147	0.1551
261.829	0.167
262.0433	0.1611
262.2577	0.1661
262.472	0.1734
262.6863	0.1592
262.9005	0.1596
263.1148	0.1559
263.3291	0.1404
263.5433	0.1675
263.7576	0.163
263.9718	0.1532
264.186	0.1638
264.4002	0.1541
264.6144	0.1606
264.8286	0.1699
265.0427	0.1603
265.2569	0.1713
265.471	0.1565
265.6851	0.1529
265.8993	0.1429
266.1134	0.1676
266.3275	0.1563
266.5415	0.1555
266.7556	0.1765
266.9697	0.1629
267.1837	0.1622
267.3978	0.1621
267.6118	0.1661
267.8258	0.1706
268.0398	0.1567
268.2538	0.1587
268.4677	0.1675
268.6817	0.1497
268.8957	0.1672
269.1096	0.1691
269.3235	0.1688
269.5374	0.1556
269.7514	0.1553
269.9652	0.1505
270.1791	0.1535
270.393	0.1482
270.6068	0.1565
270.8207	0.1438
271.0345	0.1422
271.2483	0.1548
271.4622	0.1508
271.676	0.1638
271.8897	0.1375
272.1035	0.1434
272.3173	0.1447
272.531	0.1376
272.7448	0.147
272.9585	0.1388
273.1722	0.1443
273.3859	0.1397
273.5996	0.1395
273.8133	0.1312
274.0269	0.1359
274.2406	0.1387
274.4542	0.1421
274.6679	0.142
274.8815	0.1498
275.0951	0.1408
275.3087	0.156
275.5223	0.1458
275.7358	0.1515
275.9494	0.1313
276.1629	0.1282
276.3765	0.1473
276.59	0.1508
276.8035	0.1408
277.017	0.1489
277.2305	0.138
277.444	0.1516
277.6574	0.137
277.8709	0.153
278.0843	0.1358
278.2978	0.1327
278.5112	0.1382
278.7246	0.1432
278.938	0.1557
279.1513	0.1487
279.3647	0.1493
279.5781	0.1408
279.7914	0.1458
280.0047	0.1509
280.2181	0.1573
280.4314	0.1585
280.6447	0.1532
280.8579	0.1447
281.0712	0.1541
281.2845	0.1493
281.4977	0.1501
281.711	0.1424
281.9242	0.1394
282.1374	0.1448
282.3506	0.1439
282.5638	0.147
282.7769	0.1427
282.9901	0.1473
283.2033	0.1706
283.4164	0.1627
283.6295	0.1464
283.8426	0.1474
284.0557	0.1634
284.2688	0.1641
284.4819	0.1585
284.695	0.1523
284.908	0.1622
285.1211	0.1566
285.3341	0.142
285.5471	0.165
285.7601	0.1524
285.9731	0.1528
286.1861	0.1583
286.3991	0.1561
286.612	0.1764
286.825	0.1573
287.0379	0.1627
287.2508	0.1627
287.4637	0.1653
287.6766	0.1599
287.8895	0.1597
288.1024	0.1792
288.3152	0.1646
288.5281	0.1489
288.7409	0.157
288.9538	0.148
289.1666	0.16
289.3794	0.1633
289.5922	0.1493
289.8049	0.1717
290.0177	0.155
290.2304	0.1639
290.4432	0.1742
290.6559	0.1565
290.8686	0.1679
291.0813	0.1698
291.294	0.1651
291.5067	0.1597
291.7194	0.1585
291.932	0.1799
292.1447	0.1557
292.3573	0.1605
292.5699	0.1629
292.7825	0.1716
292.9951	0.1578
293.2077	0.1592
293.4203	0.1687
293.6328	0.144
293.8454	0.177
294.0579	0.1603
294.2704	0.1669
294.4829	0.1502
294.6954	0.1554
294.9079	0.1665
295.1204	0.1574
295.3328	0.1648
295.5453	0.1705
295.7577	0.1638
295.9701	0.1556
296.1825	0.1669
296.3949	0.1643
296.6073	0.1658
296.8197	0.153
297.0321	0.178
297.2444	0.145
297.4567	0.1604
297.6691	0.1721
297.8814	0.1595
298.0937	0.1599
298.306	0.1726
298.5182	0.165
298.7305	0.1697
298.9428	0.1546
299.155	0.1618
299.3672	0.1625
299.5794	0.1561
299.7916	0.1652
300.0038	0.1669
300.216	0.1741
300.4282	0.1683
300.6403	0.1578
300.8525	0.1681
301.0646	0.1498
301.2767	0.1608
301.4888	0.1609
301.7009	0.1621
301.913	0.1623
302.125	0.1597
302.3371	0.1566
302.5491	0.1647
302.7612	0.1676
302.9732	0.1693
303.1852	0.1674
303.3972	0.1635
303.6092	0.1494
303.8211	0.1669
304.0331	0.1532
304.245	0.1574
304.457	0.1527
304.6689	0.1447
304.8808	0.1621
305.0927	0.1508
305.3046	0.1488
305.5164	0.161
305.7283	0.1522
305.9401	0.1528
306.152	0.1566
306.3638	0.1531
306.5756	0.142
306.7874	0.1446
306.9992	0.151
307.2109	0.1457
307.4227	0.1293
307.6344	0.1391
307.8462	0.1324
308.0579	0.1311
308.2696	0.1365
308.4813	0.1177
308.693	0.1339
308.9046	0.1368
309.1163	0.1287
309.328	0.1174
309.5396	0.1277
309.7512	0.114
309.9628	0.1263
310.1744	0.1232
310.386	0.1233
310.5976	0.1256
310.8091	0.1212
311.0207	0.1163
311.2322	0.1141
311.4437	0.1073
311.6552	0.1181
311.8667	0.1131
312.0782	0.1016
312.2897	0.0938
312.5012	0.1098
312.7126	0.0978
312.924	0.1004
313.1355	0.1189
313.3469	0.1096
313.5583	0.1025
313.7696	0.1101
313.981	0.1067
314.1924	0.0994
314.4037	0.1056
314.6151	0.1128
314.8264	0.0942
315.0377	0.0856
315.249	0.1047
315.4603	0.1139
315.6716	0.1055
315.8828	0.0936
316.0941	0.0969
316.3053	0.0889
316.5165	0.0964
316.7277	0.0869
316.9389	0.0962
317.1501	0.1006
317.3613	0.0953
317.5724	0.0879
317.7836	0.1075
317.9947	0.0949
318.2058	0.0889
318.417	0.0828
318.6281	0.082
318.8391	0.1047
319.0502	0.0961
319.2613	0.0938
319.4723	0.0971
319.6834	0.0982
319.8944	0.1043
320.1054	0.1016
320.3164	0.1054
320.5274	0.0992
320.7383	0.1029
320.9493	0.0991
321.1602	0.1064
321.3712	0.0868
321.5821	0.1103
321.793	0.0909
322.0039	0.0956
322.2148	0.0945
322.4257	0.1016
322.6365	0.1067
322.8474	0.0949
323.0582	0.1042
323.269	0.0986
323.4798	0.1099
323.6906	0.1023
323.9014	0.099
324.1122	0.1043
324.3229	0.0993
324.5337	0.1055
324.7444	0.095
324.9551	0.1093
325.1658	0.0976
325.3765	0.1
325.5872	0.1033
325.7979	0.0922
326.0085	0.1051
326.2192	0.1036
326.4298	0.0956
326.6404	0.0971
326.851	0.0955
327.0616	0.0856
327.2722	0.1072
327.4828	0.1121
327.6933	0.1054
327.9039	0.1054
328.1144	0.102
328.3249	0.1059
328.5354	0.0988
328.7459	0.1076
328.9564	0.1078
329.1669	0.1019
329.3773	0.1096
329.5878	0.1008
329.7982	0.0994
330.0086	0.1012
330.219	0.1196
330.4294	0.1065
330.6398	0.1044
330.8502	0.0929
331.0605	0.1024
331.2708	0.1108
331.4812	0.1165
331.6915	0.1028
331.9018	0.1024
332.1121	0.0996
332.3224	0.106
332.5326	0.1123
332.7429	0.1066
332.9531	0.1166
333.1633	0.1018
333.3735	0.1095
333.5837	0.1022
333.7939	0.0962
334.0041	0.1216
334.2143	0.1146
334.4244	0.1045
334.6346	0.0851
334.8447	0.1211
335.0548	0.0925
335.2649	0.095
335.475	0.1234
335.685	0.0997
335.8951	0.1186
336.1051	0.1227
336.3152	0.114
336.5252	0.1042
336.7352	0.1025
336.9452	0.1134
337.1552	0.1159
337.3652	0.1129
337.5751	0.1053
337.7851	0.1156
337.995	0.0972
338.2049	0.1218
338.4148	0.1091
338.6247	0.1211
338.8346	0.1075
339.0445	0.104
339.2543	0.098
339.4642	0.1277
339.674	0.1168
339.8838	0.1131
340.0936	0.1154
340.3034	0.1216
340.5132	0.1241
340.7229	0.1231
340.9327	0.1186
341.1424	0.1002
341.3522	0.1245
341.5619	0.1228
341.7716	0.1148
341.9813	0.1136
342.1909	0.1176
342.4006	0.1375
342.6102	0.1328
342.8199	0.1213
343.0295	0.1113
343.2391	0.1323
343.4487	0.134
343.6583	0.1195
343.8679	0.1185
344.0774	0.115
344.287	0.1259
344.4965	0.1257
344.706	0.1155
344.9155	0.1224
345.125	0.1308
345.3345	0.1207
345.544	0.1151
345.7534	0.123
345.9629	0.1162
346.1723	0.1276
346.3817	0.1202
346.5911	0.1136
346.8005	0.1359
347.0099	0.122
347.2193	0.1324
347.4286	0.128
347.638	0.1268
347.8473	0.1296
348.0566	0.1427
348.2659	0.1416
348.4752	0.1408
348.6845	0.1232
348.8937	0.1312
349.103	0.1502
349.3122	0.1244
349.5214	0.1397
349.7306	0.1437
349.9398	0.1409
350.149	0.1475
350.3582	0.1331
350.5674	0.1548
350.7765	0.1343
350.9856	0.1475
351.1948	0.1322
351.4039	0.1292
351.613	0.1329
351.822	0.1291
352.0311	0.1523
352.2402	0.1527
352.4492	0.1429
352.6582	0.1476
352.8672	0.1388
353.0762	0.1475
353.2852	0.153
353.4942	0.1372
353.7032	0.1531
353.9121	0.1502
354.1211	0.159
354.33	0.1573
354.5389	0.1575
354.7478	0.1479
354.9567	0.1431
355.1655	0.1464
355.3744	0.1465
355.5833	0.1689
355.7921	0.1618
356.0009	0.158
356.2097	0.1653
356.4185	0.1676
356.6273	0.1566
356.8361	0.1548
357.0448	0.1469
357.2536	0.1359
357.4623	0.1643
357.671	0.1624
357.8797	0.1705
358.0884	0.1761
358.2971	0.159
358.5057	0.1633
358.7144	0.1606
358.923	0.1571
359.1316	0.1792
359.3402	0.1758
359.5488	0.1721
359.7574	0.1639
359.966	0.1763
360.1746	0.1573
360.3831	0.1831
360.5916	0.1694
360.8002	0.1642
361.0087	0.1807
361.2172	0.19
361.4256	0.1739
361.6341	0.1764
361.8426	0.194
362.051	0.1823
362.2594	0.1795
362.4678	0.18
362.6762	0.2003
362.8846	0.19
363.093	0.188
363.3014	0.1756
363.5097	0.1756
363.718	0.1873
363.9264	0.1807
364.1347	0.1869
364.343	0.1972
364.5513	0.194
364.7595	0.1891
364.9678	0.1907
365.176	0.1914
365.3842	0.2027
365.5925	0.1952
365.8007	0.2071
366.0089	0.2008
366.217	0.1925
366.4252	0.2015
366.6333	0.2105
366.8415	0.2027
367.0496	0.1856
367.2577	0.2157
367.4658	0.2146
367.6739	0.2038
367.882	0.2102
368.09	0.1975
368.2981	0.2006
368.5061	0.2083
368.7141	0.2093
368.9221	0.2149
369.1301	0.2181
369.3381	0.2052
369.5461	0.2032
369.754	0.2092
369.962	0.2199
370.1699	0.2074
370.3778	0.2203
370.5857	0.2112
370.7936	0.2319
371.0015	0.2111
371.2093	0.2117
371.4172	0.2343
371.625	0.2037
371.8328	0.2165
372.0406	0.2216
372.2484	0.2306
372.4562	0.2239
372.664	0.2039
372.8717	0.2374
373.0795	0.1902
373.2872	0.2289
373.4949	0.2263
373.7026	0.2088
373.9103	0.2429
374.118	0.2162
374.3256	0.2292
374.5333	0.2103
374.7409	0.2196
374.9485	0.2473
375.1561	0.2315
375.3637	0.2408
375.5713	0.2357
375.7789	0.2286
375.9864	0.2389
376.194	0.2217
376.4015	0.2413
376.609	0.2357
376.8165	0.236
377.024	0.2391
377.2315	0.2336
377.4389	0.2571
377.6464	0.2491
377.8538	0.2447
378.0612	0.237
378.2686	0.2563
378.476	0.2516
378.6834	0.2386
378.8908	0.2467
379.0981	0.2539
379.3055	0.2331
379.5128	0.226
379.7201	0.2604
379.9274	0.2539
380.1347	0.2426
380.342	0.2605
380.5492	0.2483
380.7565	0.2465
380.9637	0.2638
381.1709	0.2412
381.3781	0.2617
381.5853	0.2532
381.7925	0.2509
381.9997	0.2451
382.2068	0.2538
382.4139	0.2593
382.6211	0.2606
382.8282	0.2582
383.0353	0.2658
383.2424	0.2507
383.4494	0.2552
383.6565	0.2317
383.8635	0.2474
384.0706	0.2469
384.2776	0.2546
384.4846	0.2527
384.6916	0.2573
384.8986	0.258
385.1055	0.2839
385.3125	0.2522
385.5194	0.2533
385.7263	0.2594
385.9333	0.2655
386.1402	0.2673
386.347	0.2618
386.5539	0.26
386.7608	0.2714
386.9676	0.232
387.1744	0.2424
387.3813	0.2607
387.5881	0.2522
387.7948	0.2523
388.0016	0.2586
388.2084	0.2541
388.4151	0.2305
388.6219	0.2588
388.8286	0.2418
389.0353	0.2798
389.242	0.2568
389.4487	0.2502
389.6553	0.2448
389.862	0.2202
390.0686	0.2499
390.2753	0.2591
390.4819	0.2358
390.6885	0.2257
390.8951	0.2552
391.1016	0.2383
391.3082	0.2387
391.5147	0.2256
391.7213	0.2436
391.9278	0.225
392.1343	0.2451
392.3408	0.2455
392.5473	0.227
392.7537	0.2343
392.9602	0.2206
393.1666	0.2326
393.373	0.2293
393.5794	0.2324
393.7858	0.2288
393.9922	0.2307
394.1986	0.2368
394.4049	0.2266
394.6113	0.239
394.8176	0.2237
395.0239	0.2201
395.2302	0.2133
395.4365	0.2188
395.6428	0.2253
395.8491	0.2032
396.0553	0.2271
396.2615	0.2245
396.4678	0.2233
396.674	0.2073
396.8802	0.2214
397.0863	0.2244
397.2925	0.2032
397.4987	0.2113
397.7048	0.2205
397.9109	0.2042
398.117	0.2081
398.3231	0.2089
398.5292	0.2154
398.7353	0.2191
398.9413	0.2236
399.1474	0.2054
399.3534	0.2146
399.5594	0.1987
399.7654	0.1951
399.9714	0.221
400.1774	0.2089
400.3833	0.2125
400.5893	0.2052
400.7952	0.2018
401.0011	0.213
401.207	0.2252
401.4129	0.2155
401.6188	0.2183
401.8247	0.2071
402.0305	0.2042
402.2364	0.202
402.4422	0.2387
402.648	0.2206
402.8538	0.2226
403.0596	0.1992
403.2654	0.2242
403.4711	0.1945
403.6768	0.2237
403.8826	0.2146
404.0883	0.2084
404.294	0.2041
404.4997	0.2214
404.7054	0.2205
404.911	0.2071
405.1167	0.2055
405.3223	0.2163
405.5279	0.2239
405.7335	0.2327
405.9391	0.2068
406.1447	0.2016
406.3502	0.2334
406.5558	0.1938
406.7613	0.2091
406.9668	0.2076
407.1724	0.2002
407.3778	0.2043
407.5833	0.1896
407.7888	0.2027
407.9942	0.2346
408.1997	0.1978
408.4051	0.2176
408.6105	0.2135
408.8159	0.2072
409.0213	0.1972
409.2267	0.2216
409.432	0.2005
409.6374	0.2205
409.8427	0.2069
410.048	0.208
410.2533	0.2054
410.4586	0.2189
410.6639	0.1966
410.8691	0.1962
411.0744	0.2079
411.2796	0.2186
411.4848	0.212
411.69	0.2149
411.8952	0.2286
412.1004	0.2071
412.3056	0.2135
412.5107	0.1847
412.7158	0.2267
412.921	0.2106
413.1261	0.2207
413.3312	0.1797
413.5362	0.2099
413.7413	0.2058
413.9464	0.2007
414.1514	0.2112
414.3564	0.2068
414.5614	0.1927
414.7664	0.218
414.9714	0.2088
415.1764	0.2002
415.3813	0.2154
415.5863	0.2105
415.7912	0.2199
415.9961	0.2145
416.201	0.2133
416.4059	0.1925
416.6108	0.186
416.8156	0.2185
417.0205	0.1997
417.2253	0.191
417.4301	0.2017
417.6349	0.2011
417.8397	0.2163
418.0445	0.2037
418.2492	0.2087
418.454	0.1836
418.6587	0.2018
418.8634	0.2169
419.0681	0.1875
419.2728	0.1781
419.4775	0.2108
419.6822	0.2001
419.8868	0.1693
420.0915	0.1892
420.2961	0.1709
420.5007	0.1938
420.7053	0.1962
420.9099	0.195
421.1144	0.1797
421.319	0.1644
421.5235	0.185
421.728	0.2009
421.9325	0.1929
422.137	0.1895
422.3415	0.1801
422.546	0.1977
422.7504	0.1879
422.9549	0.1941
423.1593	0.203
423.3637	0.1834
423.5681	0.1806
423.7725	0.1817
423.9769	0.1906
424.1812	0.1693
424.3856	0.1629
424.5899	0.1811
424.7942	0.1859
424.9985	0.171
425.2028	0.1739
425.4071	0.1863
425.6113	0.1585
425.8156	0.1706
426.0198	0.2012
426.224	0.172
426.4282	0.1815
426.6324	0.1674
426.8366	0.1669
427.0407	0.1672
427.2449	0.1649
427.449	0.1703
427.6531	0.1431
427.8572	0.1584
428.0613	0.1467
428.2654	0.1642
428.4694	0.1486
428.6735	0.1618
428.8775	0.1867
429.0815	0.1803
429.2855	0.1482
429.4895	0.1605
429.6935	0.1517
429.8975	0.1553
430.1014	0.1404
430.3053	0.1356
430.5093	0.1374
430.7132	0.1417
430.9171	0.1388
431.1209	0.1491
431.3248	0.1244
431.5286	0.1395
431.7325	0.1258
431.9363	0.1285
432.1401	0.1507
432.3439	0.1395
432.5477	0.1062
432.7514	0.1269
432.9552	0.1025
433.1589	0.1177
433.3627	0.1321
433.5664	0.1268
433.7701	0.1103
433.9737	0.1166
434.1774	0.112
434.3811	0.1095
434.5847	0.1222
434.7883	0.1158
434.9919	0.1119
435.1955	0.1183
435.3991	0.0967
435.6027	0.1176
435.8062	0.118
436.0098	0.1065
436.2133	0.105
436.4168	0.0945
436.6203	0.1058
436.8238	0.107
437.0272	0.0968
437.2307	0.1021
437.4341	0.0965
437.6375	0.1004
437.841	0.0822
438.0443	0.1012
438.2477	0.0994
438.4511	0.0867
438.6545	0.0833
438.8578	0.1041
439.0611	0.0808
439.2644	0.0819
439.4677	0.0704
439.671	0.0763
439.8743	0.0791
440.0775	0.0825
440.2808	0.0827
440.484	0.0741
440.6872	0.0623
440.8904	0.0751
441.0936	0.0802
441.2967	0.0647
441.4999	0.079
441.703	0.0752
441.9062	0.0651
442.1093	0.0638
442.3124	0.0569
442.5155	0.0564
442.7185	0.0543
442.9216	0.0428
443.1246	0.0714
443.3276	0.0647
443.5307	0.0568
443.7337	0.0674
443.9366	0.0572
444.1396	0.0604
444.3426	0.0538
444.5455	0.0515
444.7484	0.0608
444.9513	0.0338
445.1542	0.0594
445.3571	0.0477
445.56	0.0491
445.7628	0.0331
445.9657	0.0368
446.1685	0.0543
446.3713	0.0531
446.5741	0.0433
446.7769	0.0249
446.9797	0.0454
447.1824	0.0429
447.3852	0.04
447.5879	0.0583
447.7906	0.0397
447.9933	0.0433
448.196	0.0185
448.3986	0.0228
448.6013	0.0232
448.8039	0.012
449.0066	0.0294
449.2092	0.0372
449.4118	0.034
449.6143	0.0385
449.8169	0.02
450.0195	0.0333
450.222	0.0073
450.4245	0.0401
450.627	0.0343
450.8295	0.026
451.032	0.0212
451.2345	0.0348
451.4369	0.0205
451.6394	0.0248
451.8418	0.0131
452.0442	0.0206
452.2466	0.0406
452.449	0.0094
452.6513	0.0242
452.8537	0.0342
453.056	-0.0044
453.2583	0.0118
453.4607	0.008
453.663	0.0061
453.8652	0.028
454.0675	0.007
454.2697	0.0175
454.472	-0.0019
454.6742	0.0251
454.8764	0.0305
455.0786	0.0242
455.2808	0.0018
455.4829	0.019
455.6851	0.0285
455.8872	0.042
456.0893	0.0163
456.2915	0.0003
456.4935	0.0165
456.6956	-0.0021
456.8977	0.0253
457.0997	0.0045
457.3018	-0.0096
457.5038	0.0091
457.7058	0.0096
457.9078	0.0071
458.1098	0.0077
458.3117	0.0091
458.5137	0.0149
458.7156	0.0261
458.9175	-0.0017
459.1194	0.0124
459.3213	0.0133
459.5232	-0.0046
459.725	0.0013
459.9269	0.0034
460.1287	0.0028
460.3305	0.0023
460.5323	0.0017
460.7341	-0.0121
460.9359	0.01
461.1376	0.0179
461.3394	0.0019
461.5411	0.0074
461.7428	0.0057
461.9445	0.0175
462.1462	0.0186
462.3479	-0.0057
462.5495	0.0045
462.7512	0.0017
462.9528	-0.0111
463.1544	-0.0121
463.356	0.0013
463.5576	0.0102
463.7592	-0.0019
463.9607	0.0111
464.1623	0.0156
464.3638	0.0217
464.5653	-0.0085
464.7668	0.0089
464.9683	0.0161
465.1697	0.0184
465.3712	0.0014
465.5726	-0.0051
465.7741	-0.0136
465.9755	0.0066
466.1769	-0.0087
466.3782	0.008
466.5796	-0.0022
466.7809	0.0013
466.9823	-0.0171
467.1836	-0.0009
467.3849	-0.004
467.5862	-0.0049
467.7875	-0.0225
467.9887	0.0202
468.19	-0.0049
468.3912	-0.0131
468.5924	-0.0066
468.7936	-0.0035
468.9948	-0.0078
469.196	0.0079
469.3972	-0.0197
469.5983	-0.0054
469.7994	-0.0177
470.0006	-0.0054
470.2017	-0.0209
470.4027	-0.0153
470.6038	0.0024
470.8049	-0.0066
471.0059	-0.0119
471.2069	-0.0129
471.408	0.0088
471.6089	-0.003
471.8099	-0.0116
472.0109	-0.006
472.2119	-0.0098
472.4128	-0.0044
472.6137	0.0007
472.8146	-0.0143
473.0155	-0.0068
473.2164	-0.0114
473.4173	-0.0022
473.6181	0.0148
473.819	-0.0073
474.0198	-0.0081
474.2206	-0.0089
474.4214	-0.0052
474.6222	-0.0046
474.8229	-0.0062
475.0237	-0.0117
475.2244	-0.0156
475.4251	-0.0013
475.6258	-0.0025
475.8265	-0.0045
476.0272	0.0128
476.2278	0.0103
476.4285	-0.0051
476.6291	-0.0206
476.8297	-0.0153
477.0303	-0.0125
477.2309	-0.0106
477.4315	-0.0179
477.632	-0.0109
477.8326	-0.0035
478.0331	-0.0039
478.2336	0.0058
478.4341	-0.0137
478.6346	-0.0035
478.8351	-0.0093
479.0355	-0.0086
479.236	-0.0139
479.4364	-0.0075
479.6368	-0.008
479.8372	-0.021
480.0376	-0.0054
480.2379	-0.0199
480.4383	-0.0169
480.6386	-0.0024
480.8389	0.0001
481.0392	-0.0104
481.2395	-0.0114
481.4398	-0.0085
481.6401	0.0006
481.8403	-0.0062
482.0405	-0.0186
482.2408	-0.0073
482.441	0.0017
482.6411	0.0003
482.8413	-0.0225
483.0415	-0.0138
483.2416	-0.0151
483.4417	-0.0034
483.6419	-0.0135
483.8419	-0.0076
484.042	-0.0016
484.2421	-0.0077
484.4422	-0.0088
484.6422	-0.0049
484.8422	-0.0168
485.0422	-0.0144
485.2422	-0.007
485.4422	-0.0191
485.6422	-0.0038
485.8421	-0.0112
486.042	-0.0082
486.242	-0.0068
486.4419	-0.0233
486.6417	-0.0159
486.8416	-0.0104
487.0415	-0.0102
487.2413	-0.0062
487.4411	-0.0114
487.641	-0.022
487.8408	0.0003
488.0405	-0.0139
488.2403	-0.0162
488.4401	-0.0086
488.6398	-0.0002
488.8395	-0.0135
489.0392	-0.0019
489.2389	-0.0108
489.4386	-0.0023
489.6383	-0.008
489.8379	-0.0107
490.0376	-0.008
490.2372	-0.0154
490.4368	-0.0204
490.6364	-0.0155
490.836	-0.0171
491.0355	-0.0146
491.2351	-0.0192
491.4346	-0.0132
491.6341	-0.0152
491.8336	-0.0116
492.0331	-0.0177
492.2326	-0.0159
492.432	-0.0183
492.6315	-0.0151
492.8309	-0.023
493.0303	-0.0176
493.2297	-0.0138
493.4291	-0.0165
493.6284	-0.0051
493.8278	0.0058
494.0271	-0.0016
494.2264	-0.0126
494.4257	-0.0187
494.625	-0.002
494.8243	-0.0147
495.0236	-0.0206
495.2228	-0.0214
495.422	-0.0101
495.6213	-0.0128
495.8205	-0.0076
496.0196	-0.0071
496.2188	-0.0047
496.418	-0.0111
496.6171	-0.0166
496.8162	-0.011
497.0153	-0.0019
497.2144	-0.0083
497.4135	-0.0064
497.6126	-0.0154
497.8116	-0.0119
498.0107	-0.0001
498.2097	-0.0158
498.4087	-0.0199
498.6077	-0.0053
498.8067	-0.0156
499.0056	-0.0035
499.2046	-0.0152
499.4035	-0.0177
499.6024	-0.0106
499.8013	-0.0041
500.0002	-0.0135
500.199	-0.0113
500.3979	-0.0104
500.5967	-0.0204
500.7956	-0.0052
500.9944	-0.0134
501.1932	-0.0222
501.3919	-0.0113
501.5907	-0.0165
501.7895	-0.0032
501.9882	-0.0144
502.1869	-0.0115
502.3856	-0.0191
502.5843	-0.0166
502.783	-0.0114
502.9816	-0.0095
503.1803	-0.0258
503.3789	-0.0098
503.5775	0.0039
503.7761	-0.0107
503.9747	-0.0053
504.1732	-0.0131
504.3718	-0.0072
504.5703	-0.0087
504.7689	-0.0171
504.9674	-0.0083
505.1658	-0.009
505.3643	-0.0133
505.5628	-0.0192
505.7612	-0.0148
505.9597	-0.0004
506.1581	-0.014
506.3565	0.0055
506.5549	-0.0116
506.7532	-0.0151
506.9516	-0.0062
507.1499	-0.0062
507.3482	-0.0078
507.5465	-0.0181
507.7448	-0.0042
507.9431	-0.0097
508.1414	-0.0046
508.3396	-0.0138
508.5379	-0.0109
508.7361	-0.0165
508.9343	-0.0139
509.1325	-0.0059
509.3306	-0.0106
509.5288	-0.0045
509.7269	-0.0092
509.9251	-0.0115
510.1232	-0.0236
510.3213	-0.0122
510.5193	-0.0069
510.7174	-0.0228
510.9154	-0.0141
511.1135	-0.0266
511.3115	-0.0092
511.5095	-0.0023
511.7075	-0.0115
511.9055	-0.0097
512.1034	-0.0189
512.3014	-0.01
512.4993	0.0025
512.6972	-0.015
512.8951	-0.0187
513.093	-0.007
513.2908	-0.0109
513.4887	-0.0129
513.6865	-0.0108
513.8844	-0.0142
514.0822	-0.0189
514.2799	-0.0115
514.4777	-0.0174
514.6755	-0.0101
514.8732	-0.011
515.0709	-0.0068
515.2687	-0.0107
515.4664	-0.0144
515.664	-0.0139
515.8617	-0.003
516.0594	-0.0247
516.257	-0.0059
516.4546	-0.0059
516.6522	-0.0127
516.8498	-0.0161
517.0474	-0.0117
517.2449	0.0026
517.4425	-0.0235
517.64	-0.0075
517.8375	0.0061
518.035	-0.0152
518.2325	-0.0102
518.43	-0.0154
518.6274	-0.0246
518.8249	-0.0257
519.0223	-0.0038
519.2197	-0.0081
519.4171	-0.0207
519.6145	-0.0247
519.8118	0
520.0092	-0.0071
520.2065	-0.0223
520.4038	-0.0223
520.6011	-0.0084
520.7984	-0.0061
520.9956	-0.0121
521.1929	-0.0158
521.3901	-0.0034
521.5874	-0.0044
521.7846	-0.0096
521.9818	-0.0133
522.1789	-0.0098
522.3761	-0.0006
522.5732	-0.0083
522.7704	-0.0113
522.9675	-0.008
523.1646	-0.0208
523.3617	-0.0014
523.5587	-0.0034
523.7558	-0.0109
523.9528	-0.0181
524.1498	-0.0036
524.3468	-0.0147
524.5438	-0.013
524.7408	-0.014
524.9378	0.0031
525.1347	-0.013
525.3316	-0.0039
525.5285	-0.0147
525.7254	-0.0129
525.9223	-0.0051
526.1192	-0.0134
526.316	-0.0203
526.5129	0.0029
526.7097	-0.0018
526.9065	-0.0052
527.1033	-0.0144
527.3	0.0011
527.4968	-0.0138
527.6935	-0.0098
527.8903	-0.0188
528.087	-0.0078
528.2837	-0.0116
528.4804	-0.0083
528.677	-0.0155
528.8737	-0.0054
529.0703	-0.0047
529.2669	-0.0209
529.4635	-0.0153
529.6601	-0.0056
529.8567	-0.007
530.0532	-0.0186
530.2498	-0.0101
530.4463	0.0053
530.6428	-0.014
530.8393	-0.0007
531.0358	-0.0188
531.2322	-0.0075
531.4287	-0.0127
531.6251	-0.0127
531.8215	-0.0015
532.0179	-0.0121
532.2143	-0.0033
532.4107	0.0016
532.607	-0.0096
532.8034	-0.0109
532.9997	-0.0026
533.196	0.0019
533.3923	-0.0201
533.5886	-0.005
533.7848	-0.0042
533.9811	-0.0087
534.1773	-0.0074
534.3735	-0.0026
534.5697	-0.0136
534.7659	-0.0181
534.9621	-0.0086
535.1582	-0.0147
535.3544	-0.0137
535.5505	-0.0079
535.7466	-0.0136
535.9427	-0.0091
536.1387	-0.0051
536.3348	-0.0105
536.5308	-0.0035
536.7269	-0.0152
536.9229	-0.0019
537.1189	-0.011
537.3148	-0.0101
537.5108	-0.0144
537.7068	-0.0078
537.9027	-0.0013
538.0986	-0.01
538.2945	-0.0037
538.4904	-0.0081
538.6863	-0.0138
538.8821	-0.0024
539.078	-0.0129
539.2738	-0.0065
539.4696	-0.0035
539.6654	0.0032
539.8611	0.0092
540.0569	-0.0111
540.2526	-0.005
540.4484	-0.0018
540.6441	0.0041
540.8398	0.0003
541.0355	-0.0039
541.2311	-0.0057
541.4268	-0.0155
541.6224	-0.0014
541.818	-0.01
542.0136	-0.0151
542.2092	-0.0003
542.4048	-0.0053
542.6003	-0.0107
542.7959	-0.0111
542.9914	-0.0041
543.1869	-0.0012
543.3824	-0.0042
543.5779	-0.0079
543.7734	-0.0057
543.9688	-0.0137
544.1642	-0.0077
544.3596	-0.0033
544.555	-0.0135
544.7504	0.0016
544.9458	-0.013
545.1411	-0.0103
545.3365	-0.0032
545.5318	-0.0167
545.7271	-0.0032
545.9224	-0.0043
546.1177	-0.0068
546.3129	-0.0011
546.5081	-0.0032
546.7034	-0.0058
546.8986	-0.0111
547.0938	-0.0085
547.289	-0.0053
547.4841	0.0023
547.6793	0.0073
547.8744	-0.0176
548.0695	-0.0123
548.2646	-0.0124
548.4597	0.0001
548.6548	-0.0052
548.8498	-0.0062
549.0448	-0.0009
549.2399	-0.0012
549.4349	-0.003
549.6298	-0.0011
549.8248	-0.0018
550.0198	-0.0061
550.2147	-0.0031
550.4096	-0.0108
550.6045	-0.0037
550.7994	0.0009
550.9943	-0.008
551.1892	-0.0023
551.384	0.0057
551.5788	-0.0101
551.7737	0.0041
551.9685	-0.0037
552.1632	0.005
552.358	-0.0058
552.5528	0.0041
552.7475	-0.0036
552.9422	0.0024
553.1369	0.0023
553.3316	-0.0056
553.5263	-0.0167
553.7209	0.0051
553.9156	-0.0098
554.1102	-0.0065
554.3048	-0.0095
554.4994	0.0058
554.694	0.0022
554.8885	-0.0019
555.0831	-0.0076
555.2776	-0.0136
555.4721	-0.0072
555.6666	-0.0109
555.8611	0.0055
556.0555	-0.0016
556.25	-0.0021
556.4444	-0.016
556.6388	0.0018
556.8332	0.0012
557.0276	-0.0065
557.222	-0.0049
557.4163	-0.0027
557.6107	-0.0088
557.805	0.0086
557.9993	-0.0075
558.1936	0.0003
558.3879	0.0018
558.5821	0.008
558.7764	-0.0061
558.9706	-0.0062
559.1648	-0.0018
559.359	-0.0062
559.5532	-0.0127
559.7473	-0.0072
559.9415	-0.006
560.1356	-0.0104
560.3297	-0.0083
560.5238	-0.0082
560.7179	-0.0056
560.9119	-0.0086
561.106	-0.0122
561.3	-0.0103
561.494	-0.0037
561.688	-0.0098
561.882	-0.0097
562.076	-0.0045
562.2699	0.0051
562.4639	0.0006
562.6578	-0.0012
562.8517	-0.0075
563.0456	-0.0106
563.2395	-0.0063
563.4333	-0.0012
563.6272	0.0018
563.821	0.0012
564.0148	-0.0015
564.2086	-0.0046
564.4024	-0.0028
564.5961	-0.003
564.7899	0.007
564.9836	-0.0032
565.1773	-0.0033
565.371	0.0089
565.5647	0.0032
565.7584	-0.0019
565.952	-0.003
566.1456	0.0008
566.3393	-0.0018
566.5329	-0.0086
566.7264	-0.0035
566.92	-0.0065
567.1136	0.0014
567.3071	-0.0095
567.5006	0
567.6941	-0.0035
567.8876	-0.0017
568.0811	-0.0072
568.2745	0.0035
568.468	0.0021
568.6614	-0.0019
568.8548	0.0059
569.0482	-0.0039
569.2416	-0.0097
569.4349	-0.003
569.6283	-0.0021
569.8216	0.0008
570.0149	-0.0075
570.2082	0.0024
570.4015	0.0029
570.5947	0.0049
570.788	0.0034
570.9812	0.0033
571.1744	0.0035
571.3676	-0.0072
571.5608	-0.0024
571.754	0.004
571.9471	-0.0036
572.1402	-0.0054
572.3333	-0.007
572.5264	-0.0019
572.7195	0.0006
572.9126	0.0003
573.1057	-0.0023
573.2987	-0.0066
573.4917	0.001
573.6847	-0.0129
573.8777	0.0039
574.0707	0.0012
574.2636	-0.0098
574.4566	-0.0076
574.6495	0.0043
574.8424	-0.0022
575.0353	-0.0057
575.2281	0.003
575.421	0.0009
575.6138	-0.0042
575.8067	-0.008
575.9995	-0.0013
576.1923	-0.0024
576.385	0.002
576.5778	-0.0034
576.7706	0.0016
576.9633	0.0019
577.156	0.0011
577.3487	0.0015
577.5414	-0.0019
577.734	-0.0027
577.9267	0.0024
578.1193	-0.0075
578.3119	-0.0114
578.5045	0.0021
578.6971	-0.0052
578.8897	0.0015
579.0822	-0.003
579.2747	-0.0046
579.4673	-0.0059
579.6598	-0.0054
579.8522	-0.0042
580.0447	-0.0087
580.2372	-0.0021
580.4296	0.0047
580.622	-0.0052
580.8144	-0.005
581.0068	-0.0014
581.1992	-0.0129
581.3915	-0.0069
581.5839	-0.0091
581.7762	-0.0041
581.9685	-0.0072
582.1608	0.0041
582.353	-0.0047
582.5453	-0.0004
582.7375	0.0005
582.9298	-0.0002
583.122	-0.0021
583.3142	-0.0013
583.5063	0.0021
583.6985	0.0031
583.8906	0.0003
584.0827	-0.0036
584.2749	-0.0001
584.4669	0.0017
584.659	-0.0018
584.8511	-0.0051
585.0431	-0.0004
585.2352	-0.0009
585.4272	0.0035
585.6192	0.0019
585.8111	-0.0071
586.0031	-0.0022
586.195	-0.0065
586.387	0.0011
586.5789	-0.0004
586.7708	0.0064
586.9627	-0.0053
587.1545	-0.0068
587.3464	0.0013
587.5382	-0.0005
587.73	-0.0012
587.9218	0.0018
588.1136	-0.0061
588.3053	0.0077
588.4971	-0.0023
588.6888	-0.0046
588.8805	-0.0001
589.0722	0.0035
589.2639	0.0023
589.4556	0.0021
589.6472	-0.0069
589.8389	-0.0039
590.0305	-0.0092
590.2221	0.0005
590.4137	-0.009
590.6052	0.0082
590.7968	0.0012
590.9883	0.002
591.1798	0.0019
591.3713	-0.0032
591.5628	0.0017
591.7543	0.0022
591.9458	-0.0044
592.1372	0.0056
592.3286	0.0026
592.52	0.0043
592.7114	-0.0041
592.9028	0.0039
593.0941	0.0025
593.2855	-0.0057
593.4768	-0.0077
593.6681	-0.0049
593.8594	-0.0015
594.0506	0.0014
594.2419	0.0063
594.4331	-0.0023
594.6244	0.0013
594.8156	-0.0017
595.0067	0.0093
595.1979	0.0015
595.3891	0.0016
595.5802	-0.0011
595.7713	-0.0038
595.9624	-0.0022
596.1535	0.0029
596.3446	-0.0052
596.5357	-0.0022
596.7267	0.0008
596.9177	-0.0008
597.1087	-0.0024
597.2997	-0.0038
597.4907	0.0027
597.6817	-0.0064
597.8726	-0.0034
598.0635	-0.0062
598.2544	0.0015
598.4453	-0.0013
598.6362	0.0004
598.827	0.0004
599.0179	0.0008
599.2087	0.0035
599.3995	0.0055
599.5903	-0.0019
599.7811	0.0028
599.9718	0.0012
600.1626	-0.0062
600.3533	-0.0084
600.544	0.0026
600.7347	-0.0037
600.9254	-0.0025
601.116	-0.0103
601.3067	0.0033
601.4973	0.006
601.6879	0.0066
601.8785	-0.001
602.0691	-0.0008
602.2596	-0.0019
602.4502	0.0012
602.6407	-0.0059
602.8312	-0.0036
603.0217	-0.0086
603.2122	-0.0066
603.4027	-0.004
603.5931	-0.0008
603.7835	0.0011
603.9739	0.0003
604.1643	-0.0031
604.3547	-0.0029
604.5451	0.0007
604.7354	-0.0029
604.9257	0.0019
605.116	-0.0016
605.3063	0.0067
605.4966	0.0053
605.6869	-0.0002
605.8771	0.0013
606.0673	0.0017
606.2575	0.0045
606.4477	0.0098
606.6379	0.0035
606.8281	-0.0032
607.0182	-0.0007
607.2083	0.0134
607.3985	-0.0001
607.5885	-0.0014
607.7786	0.0033
607.9687	-0.0021
608.1587	0.0078
608.3488	0.0015
608.5388	-0.0027
608.7288	-0.0008
608.9187	-0.0021
609.1087	-0.0051
609.2986	-0.0096
609.4886	-0.0015
609.6785	-0.0057
609.8684	-0.0007
610.0582	0.0029
610.2481	0.0022
610.4379	-0.0004
610.6278	0.0006
610.8176	-0.0069
611.0074	-0.0078
611.1971	-0.0035
611.3869	0.0008
611.5766	-0.0021
611.7664	0.0032
611.9561	0.0029
612.1458	0.0016
612.3354	-0.0028
612.5251	0.0008
612.7147	0.0015
612.9044	0.0012
613.094	-0.0073
613.2836	0.001
613.4731	-0.0049
613.6627	-0.0049
613.8522	0.005
614.0417	0.0045
614.2313	-0.0055
614.4207	-0.0056
614.6102	-0.0003
614.7997	-0.0018
614.9891	-0.0012
615.1785	0.0002
615.3679	-0.0067
615.5573	0.0103
615.7467	0.0029
615.9361	0.0034
616.1254	0.002
616.3147	0.0048
616.504	0.0037
616.6933	-0.0022
616.8826	-0.003
617.0718	0.0035
617.2611	0.0026
617.4503	0.0002
617.6395	-0.0087
617.8287	-0.0059
618.0179	-0.0024
618.207	0.0049
618.3961	0.0015
618.5853	-0.0029
618.7744	-0.0005
618.9634	0.0058
619.1525	-0.0018
619.3416	0.0004
619.5306	0.0014
619.7196	-0.0034
619.9086	0.0009
620.0976	-0.0045
620.2866	-0.004
620.4755	0.0005
620.6645	-0.0044
620.8534	0.0064
621.0423	0.0049
621.2312	0.0058
621.42	0.0063
621.6089	0.0002
621.7977	0.0028
621.9865	-0.0089
622.1753	0.0056
622.3641	0.0009
622.5529	0.0073
622.7416	0.0029
622.9303	-0.0054
623.1191	0.0034
623.3078	0.0038
623.4964	-0.0048
623.6851	-0.0016
623.8737	-0.0005
624.0624	0.0007
624.251	-0.0095
624.4396	-0.0061
624.6282	-0.0058
624.8167	0.0035
625.0053	-0.0037
625.1938	0.0028
625.3823	0.0005
625.5708	-0.0085
625.7593	-0.0086
625.9477	-0.0067
626.1362	-0
626.3246	-0.0014
626.513	-0.0018
626.7014	0.0053
626.8898	-0.0056
627.0781	-0.0009
627.2665	0
627.4548	0.0052
627.6431	0.0031
627.8314	0.0074
628.0197	0.0071
628.2079	-0.006
628.3962	-0.0007
628.5844	0.0019
628.7726	-0.0004
628.9608	-0.0013
629.1489	0.0011
629.3371	0.002
629.5252	-0.0001
629.7134	0.0146
629.9015	0.0027
630.0895	0.0047
630.2776	0.0122
630.4657	0.0017
630.6537	-0.0001
630.8417	-0.0024
631.0297	-0.0062
631.2177	0.0081
631.4057	-0.0025
631.5936	0.0066
631.7815	0.0065
631.9695	0.001
632.1574	0.0055
632.3452	0.0106
632.5331	0.0073
632.7209	0.0003
632.9088	0.0068
633.0966	0.0112
633.2844	-0.0019
633.4722	0.0032
633.6599	0.0059
633.8477	0.0005
634.0354	-0.0039
634.2231	-0.0049
634.4108	-0.0032
634.5985	0.0106
634.7861	0.003
634.9738	0.0022
635.1614	0.0045
635.349	0.0052
635.5366	-0.0023
635.7242	0.0016
635.9117	0.0005
636.0993	-0.003
636.2868	0.0092
636.4743	-0.0022
636.6618	0.0063
636.8492	0.0019
637.0367	0.0011
637.2241	-0.0014
637.4115	-0.0046
637.5989	-0.0018
637.7863	-0.0033
637.9737	0.0027
638.161	0.0056
638.3484	-0.0023
638.5357	0.0071
638.723	-0.0023
638.9103	0.0071
639.0975	0.0047
639.2848	0.0025
639.472	0.0057
639.6592	0.0092
639.8464	0.0113
640.0336	0.0054
640.2208	0.0043
640.4079	0.0018
640.595	0.0021
640.7821	0.001
640.9692	-0.0005
641.1563	-0.0017
641.3434	0.0032
641.5304	0.0077
641.7174	0.0106
641.9044	0.0078
642.0914	0.0082
642.2784	0.0092
642.4653	0.0118
642.6523	0.0051
642.8392	0.0035
643.0261	0.0035
643.213	0.0057
643.3999	-0.0049
643.5867	0.0033
643.7735	0.0016
643.9604	-0.0055
644.1472	0.0063
644.3339	0.0039
644.5207	0.0052
644.7075	0.0011
644.8942	0.0007
645.0809	0.0074
645.2676	0.0071
645.4543	0.0068
645.6409	0.0025
645.8276	0.0019
646.0142	0.0112
646.2008	-0.0037
646.3874	0.0025
646.574	0.0013
646.7605	0
646.9471	-0.0077
647.1336	0.0034
647.3201	0.009
647.5066	-0.0015
647.6931	0.0018
647.8795	0.0039
648.0659	0.003
648.2524	0.0109
648.4388	-0.0057
648.6252	0.0009
648.8115	-0.0038
648.9979	-0.0035
649.1842	0.0007
649.3705	0.0041
649.5568	0.0064
649.7431	0.0066
649.9294	-0.0012
650.1156	0.0044
650.3018	-0.0091
650.488	0.0029
650.6742	0.0045
650.8604	0.0042
651.0466	-0.0054
651.2327	-0.0001
651.4188	0.0025
651.6049	0.0008
651.791	-0.0061
651.9771	0.0058
652.1632	0.0016
652.3492	0.0012
652.5352	-0.0007
652.7212	-0.0046
652.9072	0.001
653.0932	-0.0035
653.2791	-0.0038
653.465	0.0003
653.651	-0.0046
653.8369	-0.0045
654.0227	-0.0046
654.2086	0.0131
654.3944	0.0026
654.5803	0.0025
654.7661	-0.0019
654.9519	0.0033
655.1377	-0.0081
655.3234	0.0005
655.5092	-0.0013
655.6949	-0.0037
655.8806	-0.0053
656.0663	0.0001
656.2519	-0.0025
656.4376	-0.0023
656.6232	0.0054
656.8088	0.0021
656.9945	0.0009
657.18	-0
657.3656	-0.0008
657.5511	-0.0019
657.7367	-0.0006
657.9222	0.0067
658.1077	0.0063
658.2932	0.004
658.4786	-0.0086
658.6641	0.0012
658.8495	0.0037
659.0349	-0.0057
659.2203	0.0079
659.4057	0.003
659.591	-0.0033
659.7764	-0.0048
659.9617	-0.002
660.147	-0.0035
660.3323	-0.0053
660.5176	0.0068
660.7028	0.0061
660.888	0.0029
661.0733	0.0047
661.2585	-0.0096
661.4436	0.0017
661.6288	-0.0026
661.8139	-0.0059
661.9991	0.0074
662.1842	0.0059
662.3693	0.005
662.5544	0.0006
662.7394	0.0024
662.9245	0.0002
663.1095	-0.0014
663.2945	0.0029
663.4795	-0.0037
663.6644	0.0029
663.8494	-0.0021
664.0343	0.0021
664.2193	-0.005
664.4042	-0.0077
664.589	-0.0056
664.7739	-0.001
664.9587	-0.0129
665.1436	-0.0039
665.3284	0.0008
665.5132	-0.0016
665.698	-0.0033
665.8827	-0.0011
666.0675	-0.0014
666.2522	-0.0074
666.4369	-0.0012
666.6216	0.0017
666.8063	0.0012
666.9909	-0.001
667.1756	0.0011
667.3602	0.0015
667.5448	0.0031
667.7294	0.0122
667.9139	0.0059
668.0985	0.006
668.283	-0.0051
668.4675	-0.0017
668.652	-0.0018
668.8365	-0.0066
669.0209	0.0056
669.2054	0.0086
669.3898	0.0018
669.5742	0.0044
669.7586	0.0045
669.943	0.0088
670.1273	0.0079
670.3117	0.0044
670.496	0.0023
670.6803	0.0032
670.8646	0
671.0488	0.0002
671.2331	0.0074
671.4173	0.0088
671.6015	-0.003
671.7857	0.0025
671.9699	0.01
672.1541	0.0056
672.3382	0.0007
672.5223	0.0087
672.7064	0.0006
672.8905	0.0137
673.0746	0.0055
673.2587	-0.0068
673.4427	0.0015
673.6267	0.0035
673.8107	0.0082
673.9947	0.0027
674.1787	0.0041
674.3626	-0.0043
674.5465	0.0051
674.7304	0.002
674.9143	0.0152
675.0982	0.0075
675.2821	-0.0013
675.4659	0.0058
675.6497	0.002
675.8335	0.0059
676.0173	0.0033
676.2011	0.0015
676.3849	0.0006
676.5686	-0.0032
676.7523	0.0015
676.936	-0.0004
677.1197	0.0047
677.3034	-0.0039
677.487	0.004
677.6706	0.0006
677.8542	-0.0013
678.0378	-0.004
678.2214	-0.0064
678.405	0.007
678.5885	-0.005
678.772	-0.0037
678.9555	-0.0039
679.139	0.0012
679.3225	0.0047
679.5059	0.0004
679.6894	0.0058
679.8728	0.0037
680.0562	-0.0074
680.2395	-0.0053
680.4229	-0.0004
680.6062	0.0053
680.7896	0.0037
680.9729	-0.0038
681.1562	-0.0028
681.3394	-0.0007
681.5227	-0.0034
681.7059	-0.0003
681.8891	-0.0081
682.0723	0.0114
682.2555	0.007
682.4387	-0.0002
682.6218	-0.0022
682.805	0.006
682.9881	0.0047
683.1712	-0.0037
683.3542	-0.0009
683.5373	-0.002
683.7203	-0.0048
683.9034	0.0036
684.0864	-0.0056
684.2694	-0
684.4523	0.0027
684.6353	-0.0075
684.8182	0.0043
685.0011	-0.0139
685.184	0.0037
685.3669	-0.0017
685.5498	0.0025
685.7326	0.0062
685.9154	-0.0027
686.0982	0.01
686.281	0.0084
686.4638	-0.0007
686.6465	-0.0078
686.8293	-0.0082
687.012	0.0007
687.1947	-0.0067
687.3774	-0.0052
687.56	-0.0051
687.7427	0.0036
687.9253	-0.0038
688.1079	-0.005
688.2905	0.0069
688.4731	-0.0114
688.6556	-0.0022
688.8382	-0.0071
689.0207	-0.0004
689.2032	-0.0118
689.3857	-0.0123
689.5681	-0.0073
689.7506	-0.007
689.933	0.0027
690.1154	-0.003
690.2978	0.0007
690.4802	-0.0036
690.6626	-0.0188
690.8449	-0.01
691.0272	0.0024
691.2095	-0.0111
691.3918	-0.0054
691.5741	-0.0035
691.7563	-0.0043
691.9386	-0.0039
692.1208	-0.0019
692.303	0.0033
692.4852	-0.0044
692.6673	0.0043
692.8495	-0.0071
693.0316	0.0007
693.2137	-0.0004
693.3958	0.0016
693.5778	-0.0033
693.7599	-0.0065
693.9419	0.0007
694.1239	0.0053
694.3059	-0.0052
694.4879	0.0066
694.6699	0.0121
694.8518	-0.0012
695.0337	-0.0036
695.2157	0.0047
695.3975	-0.0014
695.5794	0.0014
695.7613	0.0039
695.9431	-0.0095
696.1249	0.0039
696.3067	0.0057
696.4885	0.0035
696.6703	-0.0107
696.852	-0.002
697.0337	0.0033
697.2154	0.0064
697.3971	0.0053
697.5788	0.011
697.7605	0.002
697.9421	0.003
698.1237	-0.0023
698.3053	0.0063
698.4869	-0.0001
698.6685	-0.0054
698.85	-0.0005
699.0315	0.0082
699.213	-0.0066
699.3945	0.0026
699.576	0.0103
699.7575	0.0076
699.9389	0.0075
700.1203	-0.0036
700.3017	-0.0102
700.4831	-0.0091
700.6645	-0.0045
700.8458	0.0058
701.0271	-0.0036
701.2084	-0.0009
701.3897	0.0008
701.571	0.0098
701.7523	-0.0077
701.9335	0.001
702.1147	0.0036
702.2959	0.0041
702.4771	-0.0019
702.6583	0.0059
702.8394	-0.0034
703.0205	0.0013
703.2016	-0.0027
703.3827	-0.0036
703.5638	0.0069
703.7449	0.004
703.9259	0.0107
704.1069	-0.0062
704.2879	0.0064
704.4689	0.0047
704.6499	-0.0003
704.8308	0.0025
705.0117	0.0034
705.1927	0.0011
705.3735	-0.002
705.5544	-0.0068
705.7353	-0.0086
705.9161	-0.0092
706.0969	-0.0073
706.2777	-0.0006
706.4585	-0.0045
706.6393	-0.0013
706.82	-0.0025
707.0007	-0.0014
707.1815	0.0031
707.3621	0.0069
707.5428	0.0018
707.7235	-0.0066
707.9041	0.0009
708.0847	-0.01
708.2653	-0.0029
708.4459	-0.0094
708.6265	0.0013
708.807	-0.0033
708.9875	-0.0063
709.168	0.0047
709.3485	-0.0025
709.529	-0.004
709.7095	-0.0033
709.8899	-0.0019
710.0703	-0.0122
710.2507	0.0028
710.4311	-0.0031
710.6115	-0.0135
710.7918	-0.005
710.9721	-0.0006
711.1524	-0.005
711.3327	-0.0017
711.513	-0.0008
711.6932	0.0076
711.8735	0.0111
712.0537	0.0007
712.2339	0.0022
712.4141	-0.0045
712.5942	0.0004
712.7744	-0.0015
712.9545	-0.0135
713.1346	-0.0086
713.3147	-0.0001
713.4947	-0.0064
713.6748	-0.0036
713.8548	0.0006
714.0348	-0.0052
714.2148	-0.0045
714.3948	0.0066
714.5748	-0.002
714.7547	-0.0043
714.9346	0.0037
715.1145	-0.0051
715.2944	-0.0074
715.4743	-0.0025
715.6541	-0.0084
715.834	-0.0026
716.0138	-0.0059
716.1936	-0.0139
716.3733	-0.0007
716.5531	0.0016
716.7328	-0.0087
716.9126	-0.0039
717.0923	0.0018
717.2719	-0.0018
717.4516	0.0005
717.6312	0.0004
717.8109	-0.0003
717.9905	0.0041
718.1701	-0.0011
718.3496	-0.0061
718.5292	-0.0041
718.7087	-0.0021
718.8882	-0.0003
719.0677	0.0059
719.2472	-0.0045
719.4267	0.0017
719.6061	0.0007
719.7856	0.0093
719.965	0.0067
720.1443	-0.0084
720.3237	0.0133
720.5031	0.004
720.6824	0.0019
720.8617	0.0011
721.041	0.0064
721.2203	0.0066
721.3995	0.0028
721.5788	-0.0025
721.758	0.0033
721.9372	-0.0054
722.1164	0.004
722.2956	-0.0022
722.4747	-0.0064
722.6538	0.0001
722.8329	0.0097
723.012	0.0045
723.1911	0.0007
723.3702	0.0021
723.5492	0.0058
723.7282	-0.0036
723.9072	0.003
724.0862	-0.0037
724.2652	-0.0044
724.4441	0.0017
724.623	-0.0027
724.8019	-0.0049
724.9808	0.0052
725.1597	-0.0089
725.3385	0.0028
725.5174	-0.0057
725.6962	-0.0097
725.875	-0.0038
726.0538	0.0112
726.2325	-0.0076
726.4112	0.0004
726.59	-0.0035
726.7687	-0.0101
726.9474	0.0071
727.126	0.0061
727.3047	0.0032
727.4833	0.0055
727.6619	0.0004
727.8405	-0.0029
728.0191	-0.0066
728.1976	-0.0008
728.3762	-0.0103
728.5547	-0.0016
728.7332	-0.016
728.9116	0.0023
729.0901	0.0089
729.2686	-0.006
729.447	0.0033
729.6254	-0.0031
729.8038	-0.0062
729.9821	-0.0101
730.1605	0.0048
730.3388	-0.0043
730.5171	-0.0039
730.6954	-0.0108
730.8737	0.0036
731.0519	0.0012
731.2302	0.0006
731.4084	0.0037
731.5866	0.0035
731.7648	-0.0019
731.9429	-0.0045
732.1211	-0.0191
732.2992	-0.0099
732.4773	-0.0035
732.6554	-0.0049
732.8335	-0.0054
733.0115	-0.0054
733.1896	0.0101
733.3676	-0.0136
733.5456	0.0076
733.7235	-0.0005
733.9015	-0.0002
734.0794	-0.007
734.2574	0.0033
734.4353	-0.0079
734.6131	-0.004
734.791	-0.0013
734.9689	-0.0013
735.1467	0.0111
735.3245	-0.0109
735.5023	-0.0094
735.68	-0.0028
735.8578	0.0013
736.0355	-0.018
736.2132	-0.0109
736.3909	-0.0086
736.5686	-0.0141
736.7463	-0.0001
736.9239	-0.0054
737.1015	-0.0085
737.2791	0.001
737.4567	0.002
737.6343	-0.0013
737.8118	0.0042
737.9894	0.0052
738.1669	-0.0087
738.3444	0.0001
738.5218	0.0093
738.6993	-0.0048
738.8767	0.0043
739.0541	0.0117
739.2315	-0.011
739.4089	0.0062
739.5863	0.0023
739.7636	0.002
739.9409	-0.0003
740.1182	0.0074
740.2955	0.0052
740.4728	-0.0028
740.65	-0.0015
740.8272	-0.0029
741.0044	0.0064
741.1816	-0.0011
741.3588	-0.0073
741.5359	-0.001
741.7131	-0.0045
741.8902	-0.0114
742.0673	0.0005
742.2444	-0.0117
742.4214	-0.0106
742.5985	-0.0051
742.7755	-0.0116
742.9525	-0.0227
743.1295	-0.0004
743.3064	-0.0095
743.4834	-0.0038
743.6603	-0.0084
743.8372	-0.007
744.0141	-0.0069
744.191	-0.0042
744.3678	0.0024
744.5446	-0.0052
744.7215	0.0044
744.8982	-0.0046
745.075	-0.0137
745.2518	0.0025
745.4285	-0.0062
745.6052	-0.0132
745.7819	0.0009
745.9586	-0.0111
746.1353	-0.0032
746.3119	-0.0161
746.4885	-0.0059
746.6651	-0.0052
746.8417	0.0021
747.0183	-0.0121
747.1948	0.003
747.3714	0.0049
747.5479	-0.0034
747.7244	-0.0004
747.9008	0.0142
748.0773	0.0018
748.2537	-0.0031
748.4301	-0.0122
748.6065	-0.0064
748.7829	0.0052
748.9593	0.0002
749.1356	-0.0017
749.3119	0.0029
749.4882	-0.0045
749.6645	0.0018
749.8408	-0.0071
750.017	-0.0088
750.1933	0.0008
750.3695	-0.0093
750.5457	0.0074
750.7218	-0.0004
750.898	0.0049
751.0741	-0.004
751.2502	-0.0052
751.4263	0.0025
751.6024	-0.0052
751.7784	-0.013
751.9545	-0.0095
752.1305	0.0029
752.3065	-0.0045
752.4825	0.0081
752.6584	-0.0116
752.8344	-0.0103
753.0103	-0.0109
753.1862	-0.0021
753.3621	-0.0073
753.5379	-0.0144
753.7138	-0.005
753.8896	-0.0004
754.0654	0.0031
754.2412	0.0099
754.417	0.0048
754.5927	0.0005
754.7685	-0.0009
754.9442	-0.0001
755.1199	0.0092
755.2956	0.005
755.4712	0.0087
755.6469	0.0082
755.8225	0.0051
755.9981	-0.0035
756.1736	0.0066
756.3492	0.0102
756.5248	-0.001
756.7003	0.0028
756.8758	0.0127
757.0513	-0.0137
757.2267	0.0012
757.4022	-0.0031
757.5776	-0.0113
757.753	0.0004
757.9284	-0.0015
758.1038	0.0072
758.2791	0.0036
758.4545	-0.0132
758.6298	-0.0081
758.8051	-0.0032
758.9803	-0.0071
759.1556	-0.0014
759.3308	-0.0069
759.506	0.0022
759.6812	0.0004
759.8564	0.0011
760.0316	-0.0096
760.2067	0.0139
760.3819	0.004
760.557	0.0055
760.732	0.0027
760.9071	-0.0057
761.0821	-0.0005
761.2572	0.0059
761.4322	0.0076
761.6072	0.0097
761.7821	-0.0001
761.9571	0.0095
762.132	0.0067
762.3069	-0.0065
762.4818	0.01
762.6567	0.0013
762.8316	-0.0061
763.0064	0.0034
763.1812	0.0076
763.356	-0.0129
763.5308	-0.0086
763.7055	0.0053
763.8803	-0.0077
764.055	-0.002
764.2297	-0.0006
764.4044	-0.0135
764.579	-0.0103
764.7537	-0.0105
764.9283	-0.004
765.1029	-0.0092
765.2775	0.0005
765.4521	0.0017
765.6266	-0.0108
765.8011	-0.0065
765.9756	0.0005
766.1501	0.0046
766.3246	-0.0008
766.4991	-0.0054
766.6735	-0.007
766.8479	-0.0078
767.0223	0.0052
767.1967	0.0017
767.371	-0.0025
767.5454	-0.0059
767.7197	-0.0058
767.894	-0.0036
768.0683	-0.0139
768.2425	-0.0022
768.4168	0.0023
768.591	0.0019
768.7652	-0.0069
768.9394	-0.0034
769.1135	0.0007
769.2877	0.0058
769.4618	-0.0021
769.6359	-0.0019
769.81	0.0096
769.984	0.0009
770.1581	-0.0083
770.3321	-0.0015
770.5061	-0.0064
770.6801	0.0051
770.8541	-0.0044
771.028	0.006
771.202	-0.0089
771.3759	0.0034
771.5498	0.0025
771.7236	-0.0033
771.8975	0.0015
772.0713	-0.0015
772.2451	0.0042
772.4189	0.0065
772.5927	0.0149
772.7665	0.0028
772.9402	0.0022
773.1139	0.0012
773.2876	-0.0001
773.4613	0.0124
773.635	0.0132
773.8086	-0.0116
773.9822	0.0015
774.1558	0.0034
774.3294	-0.0075
774.503	0.0021
774.6765	-0.002
774.8501	-0.0045
775.0236	0.0042
775.1971	0.0079
775.3705	-0.0148
775.544	0.0034
775.7174	-0.0068
775.8908	-0.0173
776.0642	-0.0084
776.2376	-0.004
776.4109	-0.0161
776.5843	-0.0032
776.7576	-0.0043
776.9309	0.0131
777.1041	0.0154
777.2774	0.014
777.4506	0.007
777.6238	-0.0119
777.797	0.0044
777.9702	-0.0089
778.1434	-0.0112
778.3165	-0.0032
778.4896	-0.0027
778.6627	0.0131
778.8358	-0.0045
779.0089	-0.0054
779.1819	-0.0007
779.3549	0.0153
779.5279	0.0124
779.7009	-0.0048
779.8739	-0.0078
780.0468	0.0091
780.2197	0.0156
780.3926	-0.0039
780.5655	0.0046
780.7384	-0.006
780.9112	-0.0122
781.0841	0.0013
781.2569	-0.0003
781.4297	0.001
781.6024	-0.0019
781.7752	0.0122
781.9479	0.0065
782.1206	-0.0095
782.2933	-0.0149
782.466	0.0017
782.6386	0.0106
782.8113	0.0045
782.9839	0.0112
783.1565	0.0113
783.329	0.0138
783.5016	0.0082
783.6741	0.0078
783.8466	-0.0171
784.0191	0.0102
784.1916	-0.0033
784.3641	-0.0022
784.5365	0.006
784.7089	-0.0031
784.8813	-0.009
785.0537	-0.0027
785.2261	0.0027
785.3984	-0.0141
785.5707	0.0035
785.743	-0.0055
785.9153	-0.0111
786.0876	0.0062
786.2598	-0.0012
786.432	-0.0155
786.6042	0.007
786.7764	-0.006
786.9486	-0.0081
787.1207	-0.0084
787.2928	0.0102
787.4649	0.0104
787.637	0.0003
787.8091	-0.0009
787.9811	-0.0025
788.1532	0.0042
788.3252	0.0105
788.4972	0.0078
788.6691	0.0072
788.8411	0.0095
789.013	-0.0044
789.1849	-0.0031
789.3568	-0.008
789.5287	-0.0023
789.7005	-0.0107
789.8723	0.0047
790.0442	0.0165
790.2159	0.0114
790.3877	-0.0011
790.5595	-0.0122
790.7312	-0.0049
790.9029	0.0013
791.0746	0.0002
791.2463	-0.0064
791.4179	-0.0078
791.5896	-0.016
791.7612	0.0004
791.9328	-0.0002
792.1044	-0.0199
792.2759	-0.0103
792.4474	-0.0002
792.619	0.006
792.7905	0.0043
792.9619	-0.0089
793.1334	-0.0049
793.3048	0.0111
793.4762	0.0034
793.6476	-0.0047
793.819	-0.0126
793.9904	0.0059
794.1617	-0.0123
794.333	-0.0099
794.5043	-0.0069
794.6756	0.0084
794.8469	-0.0154
795.0181	-0.0051
795.1893	-0.0064
795.3605	0.0045
795.5317	-0.017
795.7029	-0.0109
795.874	0.007
796.0452	0.0025
796.2163	-0.0091
796.3873	0.0036
796.5584	-0.0053
796.7294	0.0004
796.9005	-0.0017
797.0715	-0.0032
797.2425	-0.0107
797.4134	0.0115
797.5844	0.0046
797.7553	-0.0057
797.9262	0.0052
798.0971	-0.0184
798.2679	-0.0141
798.4388	-0.0162
798.6096	-0.0041
798.7804	0.0156
798.9512	-0.0027
799.122	-0.0046
799.2927	-0.0097
799.4635	0.0017
799.6342	-0.0128
799.8049	-0.0156
799.9755	-0.0064
800.1462	-0.0001
800.3168	0.002
800.4874	0.0083
800.658	-0.0058
800.8286	0.0125
800.9991	0.0034
801.1696	0.011
801.3402	0.0092
801.5106	-0.0052
801.6811	0.0079
801.8516	0.0087
802.022	-0.007
802.1924	0.0102
802.3628	0.0164
802.5332	0.0111
802.7035	0.0252
802.8739	-0.0145
803.0442	-0.0135
803.2145	0.0082
803.3847	-0.0298
803.555	0.0076
803.7252	-0.0067
803.8954	-0.0074
804.0656	-0.0277
804.2358	0.0045
804.4059	0.0088
804.5761	-0.0076
804.7462	0.0041
804.9163	-0.0109
805.0864	-0.0099
805.2564	-0.0057
805.4264	-0.0088
805.5965	-0.0043
805.7665	0.001
805.9364	-0.0076
806.1064	0.0167
806.2763	-0.0069
806.4462	0.0147
806.6161	-0.0038
806.786	0.0192
806.9559	-0.0142
807.1257	-0.0079
807.2955	-0.0084
807.4653	-0.0078
807.6351	-0.0141
807.8048	-0.014
807.9746	-0.0074
808.1443	0.0001
808.314	-0.0112
808.4837	-0.009
808.6533	-0.0114
808.8229	0.0215
808.9926	0.0009
809.1622	0.0004
809.3317	-0.0248
809.5013	-0.0206
809.6708	-0.0102
809.8403	-0.0079
810.0098	-0.0129
810.1793	-0.0039
810.3488	-0.0096
810.5182	-0.0209
810.6876	-0.0106
810.857	-0.0182
811.0264	0.0154
811.1958	0.0089
811.3651	0.0025
811.5344	-0.0134
811.7037	-0.0307
811.873	-0.0127
812.0422	0.0007
812.2115	0.0007
812.3807	-0.0066
812.5499	-0.0181
812.7191	-0.006
812.8882	0.0038
813.0574	0.0015
813.2265	-0.0055
813.3956	-0.0108
813.5646	-0.0037
813.7337	-0.0164
813.9027	0.0018
814.0718	0.0129
814.2407	0.0202
814.4097	-0.0174
814.5787	-0.0231
814.7476	-0.0016
814.9165	-0.0157
815.0854	-0.0086
815.2543	0.0071
815.4232	0.0041
815.592	-0.0044
815.7608	-0.0019
815.9296	0.001
816.0984	0.0129
816.2671	-0.0028
816.4359	-0.0011
816.6046	0.0002
816.7733	-0.0222
816.942	-0.007
817.1106	0.0053
817.2793	-0.0054
817.4479	-0.0095
817.6165	-0.0011
817.785	0.0065
817.9536	-0.0228
818.1221	-0.0002
818.2906	0.0158
818.4591	-0.0127
818.6276	-0.0296
818.7961	0.0051
818.9645	0.0058
819.1329	0.0008
819.3013	0.0213
819.4697	0.0217
819.638	-0.0222
819.8064	0.0029
819.9747	0.0058
820.143	0.0074
820.3113	-0.0307
820.4795	-0.0047
820.6477	-0.0094
820.816	0.0065
820.9842	0.0186
821.1523	-0.0168
821.3205	-0.0186
821.4886	0.016
821.6567	0.0078
821.8248	0.0078
821.9929	0.0089
822.1609	0.0028
822.329	0.0122
822.497	0.0292
822.665	0.0058
822.833	-0.0209
823.0009	0.0006
823.1688	0.0108
823.3367	0.0214
823.5046	-0.0171
823.6725	0.0148
823.8404	-0.0122
824.0082	-0.011
824.176	0.0094
824.3438	-0.0104
824.5116	-0.0239
824.6793	0.0165
824.847	-0.0002
825.0147	-0.0036
825.1824	0.0153
825.3501	0.0229
825.5177	-0.0064
825.6854	-0.0146
825.853	-0.0077
826.0206	-0.0135
826.1881	0.0214
826.3557	-0.0472
826.5232	-0.0101
826.6907	-0.0625
826.8582	-0.0118
827.0257	-0.0339
827.1931	0.0094
827.3605	-0.0078
827.528	-0.0076
827.6953	-0.0218
827.8627	-0.0185
828.03	0.0294
828.1974	0.0007
828.3647	-0.0359
828.532	-0.0335
828.6992	-0.0242
828.8665	-0.0221
829.0337	-0.0117
829.2009	0.0191
829.3681	0.0075
829.5352	0.0116
829.7024	-0.0093
829.8695	-0.0119
830.0366	0.0147
830.2037	-0.0133
830.3707	0.022
830.5378	-0.0082
830.7048	0.0124
830.8718	-0.0225
831.0388	-0.035
831.2057	0.0149
831.3727	0.031
831.5396	-0.0461
831.7065	-0.021
831.8734	0.0247
832.0402	-0.0411
832.2071	-0.0217
832.3739	-0.0003
832.5407	-0.0196
832.7075	-0.0216
832.8742	-0.0003
833.041	-0.0397
833.2077	0.0108
833.3744	0.036
833.541	-0.0087
833.7077	-0.0053
833.8743	-0.0373
834.0409	0.0003
834.2075	-0.0273
834.3741	-0.0237
834.5407	0.0299
834.7072	-0.0091
834.8737	-0.0063
835.0402	0.0024
835.2067	0.0267
835.3731	0.0097
835.5395	0.0173
835.706	0.0242
835.8723	0.004
836.0387	0.0058
836.2051	-0.0395
836.3714	0.0024
836.5377	-0.0112
836.704	-0.0246
836.8703	-0.0294
837.0365	0.0092
837.2027	-0.0462
837.3689	-0.0198
837.5351	-0.0122
837.7013	-0.013
837.8674	-0.0108
838.0335	-0.0396
838.1997	-0.0187
838.3657	-0.0227
838.5318	-0.0217
838.6978	0.0597
838.8639	0.0117
839.0299	0.0065
839.1958	0.0083
839.3618	-0.018
839.5277	-0.0451
839.6937	-0.0182
839.8596	-0.0336
840.0254	0.0286
840.1913	0.0438
840.3571	0.0192
840.523	0.0085
840.6888	0.0024
840.8545	-0.0382
841.0203	0.0022
841.186	0.0456
841.3517	-0.0049
841.5174	0.0229
841.6831	-0.0296
841.8488	0.0105
842.0144	-0.0439
842.18	-0.0092
842.3456	0.0042
842.5112	-0.0105
842.6767	-0.0178
842.8422	0.048
843.0077	-0.0463
843.1732	-0.0309
843.3387	-0.0216
843.5042	0.0173
843.6696	-0.0113
843.835	0.0137
844.0004	0.0194
844.1657	0.019
844.3311	-0.0184
844.4964	-0.0513
844.6617	-0.0489
844.827	0.0184
844.9923	-0.0096
845.1575	-0.0041
845.3227	-0.004
845.4879	0.0213
845.6531	-0.0833
845.8183	-0.0527
845.9834	0.0211
846.1485	-0.0498
846.3136	-0.0205
846.4787	-0.1196
846.6438	0.0676
846.8088	-0.0496
846.9738	-0.0652
847.1388	0.0314
847.3038	-0.0328
847.4687	-0.2005
847.6337	0.0085
847.7986	0.0128
847.9635	-0.0051
848.1284	0.0203
848.2932	0.0748
848.458	0.0457
848.6228	0.0206
848.7876	0.0092
848.9524	-0.0691
849.1172	-0.0611
849.2819	-0.0049
849.4466	-0.117
849.6113	-0.1437
849.7759	-0.0875
849.9406	-0.0432
850.1052	0.0353
850.2698	-0.0526
850.4344	-0.0257
850.599	-0.1036
850.7635	0.056
850.928	-0.096
851.0925	0.0186
851.257	0.0153
851.4215	-0.0008
851.5859	-0.0076
851.7503	0.041
851.9147	0.057
852.0791	-0.1006
852.2434	-0.0084
852.4078	0.0092
852.5721	0.0942
852.7364	-0.0361
852.9007	-0.0769
853.0649	-0.0201
853.2291	-0.0278
853.3934	-0.0712
853.5575	-0.0087
853.7217	-0.0307
853.8859	-0.0592
854.05	-0.1382
854.2141	-0.0141
854.3782	-0.0789
854.5423	-0.0639
854.7063	0.1057
854.8703	-0.0724
855.0343	0.0209
855.1983	-0.0939
855.3623	0.2258
855.5262	-0.0356
855.6901	-0.0108
855.854	-0.0442
856.0179	0.106
856.1818	0.1105
856.3456	-0.0927
856.5094	-0.1349
856.6732	-0.0932
856.837	-0.1457
857.0008	0.0752
857.1645	0.0532
857.3282	-0.1571
857.4919	0.0597
857.6556	0.0146
857.8192	0.0324
857.9828	0.0248
858.1465	-0.1083
858.31	-0.1827
858.4736	-0.0648
858.6372	-0.0535
858.8007	-0.1498
858.9642	0.3285
859.1277	0.0463
859.2911	0.095
859.4546	0.0498
859.618	-0.5177
859.7814	-0.0462
859.9448	0.073
860.1081	0.2015
860.2715	0.1326
860.4348	-0.1503
860.5981	-0.1415
860.7614	0.0443
860.9246	-0.1731
861.0879	0.0976
861.2511	-0.0046
861.4143	-0.2757
861.5774	0.2059
861.7406	-0.1513
861.9037	-0.0781
862.0668	0.3274
862.2299	-0.1053
862.393	-0.5364
862.556	-0.0538
862.7191	-0.4151
862.8821	-0.1186
863.0451	-0.0135
863.208	-0.0984
863.371	0.0301
863.5339	0.0057
863.6968	0.128
863.8597	-0.0381
864.0225	-0.0634
864.1854	-0.0856
864.3482	-0.1199
864.511	0.0535
864.6737	0.1334
864.8365	0.3905
864.9992	-0.3527
865.1619	-0.5109
865.3246	-0
865.4873	0.1414
865.65	-0.2002
865.8126	-0.0117
865.9752	-0.0081
866.1378	-0.029
866.3004	-0
866.4629	0.1787
866.6254	0.098
866.7879	0.1407
866.9504	0.0128
867.1129	-0
867.2753	-0.129
867.4377	0.2441
867.6001	-0.3417
867.7625	-0.0495
867.9249	-0
868.0872	0.0806
868.2495	0.0754
868.4118	-0.2375
868.5741	-0.5346
868.7363	-0.4472
868.8986	-0.4189
869.0608	-0.0917
869.223	-0.0123
869.3851	-0.2418
869.5473	1.2142
869.7094	0.4212
869.8715	-0.5648
870.0336	-0.0706
870.1957	-0.3286
870.3577	-1.2849
870.5197	0.1482
870.6817	-0.4353
870.8437	0.0101
871.0057	-0
871.1676	-0
871.3295	0.0929
871.4914	1.1614
871.6533	0.0066
871.8151	-0.3436
871.977	-0
872.1388	-0
872.3006	-0
872.4623	-0
872.6241	0.2223
872.7858	-0
872.9475	0.3257
873.1092	-0.2195
873.2709	0.2156
873.4325	-0.2509
873.5941	-0.6393
873.7557	-0
873.9173	-0.5734
874.0789	-0
874.2404	-0
874.4019	0.2133
874.5634	-0.1164
874.7249	-0.1631
874.8863	-0.2973
875.0478	0.1063
875.2092	-0
875.3706	0.2357
875.5319	-0.5339
875.6933	0.0295
875.8546	-0.1748
876.0159	-0
876.1772	0.0232
876.3385	-0
876.4997	0.3656
876.6609	-0.196
876.8221	-0.1783
876.9833	-0
877.1445	-0
877.3056	0.0276
877.4667	-0.3954
877.6278	-0
877.7889	-0.4797
877.9499	0.9294
878.111	-0
878.272	-0.9224
878.433	-0
878.5939	0.4347
878.7549	-0.1873
878.9158	-0.7735
879.0767	-0
879.2376	-0
879.3984	-0
879.5593	-0
879.7201	0.0442
879.8809	-0.367
880.0417	0.1956
880.2024	-0
880.3632	-0
880.5239	0.2876
880.6846	0.3118
880.8452	-2.4183
881.0059	-1.3874
881.1665	-0.219
881.3271	0.026
881.4877	-0
881.6483	-0.4204
881.8088	-0.2015
881.9693	-0
882.1298	-0
882.2903	-0
