Data from MonoPyChalIsomerACN10uM410nmA_Absorbance_14-53-30-573.txt Node
Date: Fri Jul 05 14:53:30 BST 2024
User: LASERRRRR
Spectrometer: FLMT03099
Trigger mode: 0
Integration Time (sec): 1.000000E-1
Scans to average: 1
Electric dark correction enabled: true
Nonlinearity correction enabled: false
Boxcar width: 0
XAxis mode: Wavelengths
Number of Pixels in Spectrum: 3648
>>>>>Begin Spectral Data<<<<<
179.3399	0.3643
179.5586	0.3643
179.7771	0.3643
179.9957	-0
180.2143	-0
180.4329	-0.3761
180.6514	-0
180.8699	-0
181.0885	1.1389
181.307	-0
181.5255	0.0483
181.744	-0
181.9625	-0
182.181	-0.8051
182.3994	0.2732
182.6179	-0
182.8363	0.2947
183.0547	0.0699
183.2732	-0.0793
183.4916	0.4028
183.71	0.083
183.9284	0.0473
184.1467	-0.0775
184.3651	-0.0125
184.5835	-0.0457
184.8018	0.0568
185.0201	-0.0313
185.2385	-0.1065
185.4568	0.2177
185.6751	0.1291
185.8934	0.4686
186.1117	0.0364
186.3299	0.0901
186.5482	0.0106
186.7664	-0.0523
186.9847	-0.1513
187.2029	-0.0483
187.4211	0.0172
187.6393	0.1757
187.8575	-0.1644
188.0757	0.2854
188.2939	0.1171
188.512	-0.0504
188.7302	-0.2296
188.9483	-0.0631
189.1665	0.1898
189.3846	-0.0982
189.6027	0.0563
189.8208	0.1242
190.0389	0.067
190.257	0.0899
190.475	0.2529
190.6931	0.476
190.9111	0.1644
191.1292	0.139
191.3472	0.446
191.5652	0.2819
191.7832	0.2429
192.0012	0.3621
192.2192	0.3812
192.4371	0.4839
192.6551	0.3596
192.873	0.3915
193.091	0.4033
193.3089	0.3949
193.5268	0.4107
193.7447	0.6677
193.9626	0.4924
194.1805	0.6684
194.3984	0.8796
194.6162	0.5161
194.8341	0.5876
195.0519	0.535
195.2697	0.588
195.4875	0.6042
195.7054	0.6895
195.9231	0.5988
196.1409	0.59
196.3587	0.5818
196.5765	0.5087
196.7942	0.4869
197.012	0.5535
197.2297	0.5052
197.4474	0.635
197.6651	0.4512
197.8828	0.5654
198.1005	0.6641
198.3182	0.5919
198.5358	1.0044
198.7535	0.4984
198.9711	0.5021
199.1888	0.6935
199.4064	0.7401
199.624	0.4934
199.8416	0.4921
200.0592	0.6204
200.2767	0.6067
200.4943	0.6144
200.7119	0.7867
200.9294	0.6111
201.1469	0.5934
201.3645	0.5063
201.582	0.6841
201.7995	0.6679
202.017	0.6459
202.2344	0.6213
202.4519	0.7146
202.6694	0.6097
202.8868	0.557
203.1042	0.6729
203.3217	0.6731
203.5391	0.7468
203.7565	0.5333
203.9739	0.6394
204.1913	0.6205
204.4086	0.5731
204.626	0.6798
204.8433	0.6429
205.0607	0.6283
205.278	0.6682
205.4953	0.7106
205.7126	0.7276
205.9299	0.6939
206.1472	0.7118
206.3644	0.6225
206.5817	0.6149
206.7989	0.686
207.0162	0.6715
207.2334	0.6191
207.4506	0.6811
207.6678	0.6179
207.885	0.8044
208.1022	0.6776
208.3194	0.6537
208.5365	0.5983
208.7537	0.6511
208.9708	0.6174
209.1879	0.5847
209.405	0.7031
209.6222	0.6233
209.8392	0.613
210.0563	0.552
210.2734	0.6313
210.4905	0.6309
210.7075	0.5798
210.9245	0.6323
211.1416	0.5848
211.3586	0.6593
211.5756	0.6339
211.7926	0.5931
212.0096	0.6117
212.2265	0.5424
212.4435	0.5072
212.6604	0.5578
212.8774	0.5831
213.0943	0.6123
213.3112	0.5096
213.5281	0.5174
213.745	0.5294
213.9619	0.507
214.1788	0.4377
214.3956	0.4526
214.6125	0.4649
214.8293	0.433
215.0461	0.4705
215.2629	0.4374
215.4798	0.4736
215.6965	0.4138
215.9133	0.4241
216.1301	0.3915
216.3469	0.4091
216.5636	0.4337
216.7803	0.3824
216.9971	0.4061
217.2138	0.3704
217.4305	0.3682
217.6472	0.3548
217.8639	0.3761
218.0805	0.3356
218.2972	0.3064
218.5138	0.3296
218.7305	0.299
218.9471	0.2706
219.1637	0.2723
219.3803	0.2547
219.5969	0.2635
219.8135	0.2614
220.0301	0.2662
220.2466	0.2816
220.4632	0.2348
220.6797	0.2223
220.8962	0.2268
221.1127	0.2611
221.3292	0.237
221.5457	0.2396
221.7622	0.1994
221.9787	0.2477
222.1951	0.2286
222.4116	0.2421
222.628	0.2552
222.8444	0.2491
223.0608	0.2328
223.2772	0.2462
223.4936	0.2477
223.71	0.2367
223.9264	0.2472
224.1427	0.2429
224.3591	0.2342
224.5754	0.233
224.7917	0.2514
225.008	0.2736
225.2243	0.2283
225.4406	0.2653
225.6569	0.2637
225.8732	0.2559
226.0894	0.2543
226.3057	0.2649
226.5219	0.2818
226.7381	0.2637
226.9543	0.2651
227.1705	0.2766
227.3867	0.2476
227.6029	0.2739
227.8191	0.2864
228.0352	0.2773
228.2513	0.2904
228.4675	0.2782
228.6836	0.2856
228.8997	0.2742
229.1158	0.2751
229.3319	0.2875
229.548	0.3138
229.764	0.3095
229.9801	0.3145
230.1961	0.3186
230.4121	0.3317
230.6282	0.32
230.8442	0.3002
231.0602	0.327
231.2761	0.3278
231.4921	0.3341
231.7081	0.3306
231.924	0.3397
232.14	0.3511
232.3559	0.325
232.5718	0.3336
232.7877	0.3523
233.0036	0.3339
233.2195	0.3497
233.4353	0.3578
233.6512	0.3583
233.867	0.3347
234.0829	0.3449
234.2987	0.3639
234.5145	0.3713
234.7303	0.3551
234.9461	0.3704
235.1619	0.3765
235.3776	0.3512
235.5934	0.387
235.8091	0.3424
236.0249	0.3718
236.2406	0.3887
236.4563	0.3741
236.672	0.4013
236.8877	0.3825
237.1034	0.3876
237.319	0.3977
237.5347	0.3954
237.7503	0.3835
237.966	0.3865
238.1816	0.3952
238.3972	0.4078
238.6128	0.3884
238.8284	0.3927
239.0439	0.4007
239.2595	0.4046
239.475	0.4107
239.6906	0.4095
239.9061	0.3953
240.1216	0.3856
240.3371	0.3876
240.5526	0.3745
240.7681	0.4058
240.9836	0.3919
241.199	0.4024
241.4145	0.3842
241.6299	0.3723
241.8453	0.4008
242.0607	0.3771
242.2761	0.3676
242.4915	0.3697
242.7069	0.3638
242.9223	0.3652
243.1376	0.3606
243.353	0.3576
243.5683	0.3718
243.7836	0.3324
243.9989	0.3483
244.2142	0.3287
244.4295	0.3408
244.6448	0.3302
244.86	0.3398
245.0753	0.3009
245.2905	0.3084
245.5057	0.2919
245.721	0.2913
245.9362	0.2773
246.1514	0.2906
246.3665	0.2737
246.5817	0.2733
246.7969	0.267
247.012	0.2437
247.2271	0.2439
247.4423	0.2626
247.6574	0.2583
247.8725	0.2537
248.0876	0.2394
248.3026	0.2418
248.5177	0.243
248.7328	0.2264
248.9478	0.2159
249.1628	0.2226
249.3779	0.2207
249.5929	0.2083
249.8079	0.2274
250.0228	0.2072
250.2378	0.2134
250.4528	0.2252
250.6677	0.1856
250.8827	0.2038
251.0976	0.1994
251.3125	0.1945
251.5274	0.1813
251.7423	0.1827
251.9572	0.191
252.172	0.1855
252.3869	0.1804
252.6017	0.1738
252.8166	0.1667
253.0314	0.1738
253.2462	0.1711
253.461	0.1841
253.6758	0.1787
253.8906	0.1702
254.1053	0.1629
254.3201	0.1752
254.5348	0.1802
254.7496	0.1721
254.9643	0.1782
255.179	0.1641
255.3937	0.1701
255.6083	0.1621
255.823	0.1713
256.0377	0.1552
256.2523	0.1711
256.467	0.1561
256.6816	0.1593
256.8962	0.1683
257.1108	0.1565
257.3254	0.1657
257.54	0.1621
257.7545	0.156
257.9691	0.1607
258.1836	0.1578
258.3981	0.1667
258.6127	0.1767
258.8272	0.1625
259.0417	0.1695
259.2561	0.1603
259.4706	0.1567
259.6851	0.1676
259.8995	0.1614
260.114	0.1686
260.3284	0.16
260.5428	0.1553
260.7572	0.1669
260.9716	0.1631
261.186	0.1629
261.4003	0.1557
261.6147	0.1694
261.829	0.1588
262.0433	0.1518
262.2577	0.1647
262.472	0.1738
262.6863	0.1672
262.9005	0.1674
263.1148	0.174
263.3291	0.1436
263.5433	0.1548
263.7576	0.1584
263.9718	0.1664
264.186	0.1675
264.4002	0.1648
264.6144	0.164
264.8286	0.1728
265.0427	0.1648
265.2569	0.1545
265.471	0.1687
265.6851	0.1613
265.8993	0.1597
266.1134	0.1567
266.3275	0.1539
266.5415	0.1674
266.7556	0.1732
266.9697	0.1597
267.1837	0.1685
267.3978	0.1593
267.6118	0.1795
267.8258	0.1763
268.0398	0.1612
268.2538	0.1865
268.4677	0.1752
268.6817	0.168
268.8957	0.1649
269.1096	0.1748
269.3235	0.1766
269.5374	0.164
269.7514	0.1567
269.9652	0.163
270.1791	0.1602
270.393	0.1543
270.6068	0.1481
270.8207	0.1509
271.0345	0.1624
271.2483	0.1731
271.4622	0.1544
271.676	0.1671
271.8897	0.1492
272.1035	0.1573
272.3173	0.1567
272.531	0.1642
272.7448	0.1661
272.9585	0.152
273.1722	0.1525
273.3859	0.17
273.5996	0.1473
273.8133	0.1656
274.0269	0.1534
274.2406	0.1406
274.4542	0.1537
274.6679	0.1503
274.8815	0.1628
275.0951	0.1683
275.3087	0.165
275.5223	0.1709
275.7358	0.1657
275.9494	0.1599
276.1629	0.1617
276.3765	0.1556
276.59	0.1608
276.8035	0.1594
277.017	0.1599
277.2305	0.1576
277.444	0.1666
277.6574	0.1504
277.8709	0.1645
278.0843	0.1656
278.2978	0.1657
278.5112	0.1474
278.7246	0.1649
278.938	0.1655
279.1513	0.1599
279.3647	0.1788
279.5781	0.1607
279.7914	0.1696
280.0047	0.1835
280.2181	0.1651
280.4314	0.1634
280.6447	0.1652
280.8579	0.1585
281.0712	0.1641
281.2845	0.1753
281.4977	0.1588
281.711	0.152
281.9242	0.1584
282.1374	0.1661
282.3506	0.1576
282.5638	0.1706
282.7769	0.1665
282.9901	0.1663
283.2033	0.1696
283.4164	0.1632
283.6295	0.1479
283.8426	0.1506
284.0557	0.1641
284.2688	0.1869
284.4819	0.1673
284.695	0.1465
284.908	0.1554
285.1211	0.1674
285.3341	0.1592
285.5471	0.1639
285.7601	0.1505
285.9731	0.1509
286.1861	0.154
286.3991	0.1623
286.612	0.1677
286.825	0.1567
287.0379	0.1694
287.2508	0.1553
287.4637	0.1581
287.6766	0.1614
287.8895	0.1653
288.1024	0.1769
288.3152	0.1625
288.5281	0.1452
288.7409	0.155
288.9538	0.1567
289.1666	0.1467
289.3794	0.1492
289.5922	0.1468
289.8049	0.1521
290.0177	0.1458
290.2304	0.1475
290.4432	0.1606
290.6559	0.1544
290.8686	0.1592
291.0813	0.1543
291.294	0.1602
291.5067	0.1674
291.7194	0.1586
291.932	0.1493
292.1447	0.1504
292.3573	0.1508
292.5699	0.1416
292.7825	0.1491
292.9951	0.1543
293.2077	0.1418
293.4203	0.1503
293.6328	0.1453
293.8454	0.162
294.0579	0.141
294.2704	0.1605
294.4829	0.1484
294.6954	0.1548
294.9079	0.1481
295.1204	0.1406
295.3328	0.1508
295.5453	0.1476
295.7577	0.1412
295.9701	0.1369
296.1825	0.1463
296.3949	0.1446
296.6073	0.1441
296.8197	0.1423
297.0321	0.158
297.2444	0.1377
297.4567	0.1427
297.6691	0.1453
297.8814	0.133
298.0937	0.1473
298.306	0.1462
298.5182	0.1503
298.7305	0.1575
298.9428	0.1277
299.155	0.1476
299.3672	0.1405
299.5794	0.1437
299.7916	0.1418
300.0038	0.1434
300.216	0.1518
300.4282	0.1557
300.6403	0.1413
300.8525	0.1491
301.0646	0.1402
301.2767	0.1356
301.4888	0.1466
301.7009	0.1475
301.913	0.1493
302.125	0.1474
302.3371	0.1321
302.5491	0.1428
302.7612	0.1456
302.9732	0.1436
303.1852	0.1497
303.3972	0.1463
303.6092	0.1436
303.8211	0.145
304.0331	0.133
304.245	0.1369
304.457	0.1394
304.6689	0.1359
304.8808	0.154
305.0927	0.1327
305.3046	0.1314
305.5164	0.1413
305.7283	0.1332
305.9401	0.1447
306.152	0.1379
306.3638	0.1447
306.5756	0.1375
306.7874	0.1377
306.9992	0.1402
307.2109	0.1243
307.4227	0.1175
307.6344	0.1278
307.8462	0.1266
308.0579	0.1305
308.2696	0.1144
308.4813	0.1294
308.693	0.1184
308.9046	0.1332
309.1163	0.1173
309.328	0.1191
309.5396	0.1256
309.7512	0.1187
309.9628	0.1208
310.1744	0.1088
310.386	0.1151
310.5976	0.1206
310.8091	0.1203
311.0207	0.1093
311.2322	0.1183
311.4437	0.1015
311.6552	0.1067
311.8667	0.1213
312.0782	0.1
312.2897	0.111
312.5012	0.1253
312.7126	0.1148
312.924	0.1196
313.1355	0.117
313.3469	0.1123
313.5583	0.1158
313.7696	0.1079
313.981	0.1112
314.1924	0.1035
314.4037	0.105
314.6151	0.1151
314.8264	0.1029
315.0377	0.1048
315.249	0.1118
315.4603	0.1183
315.6716	0.1178
315.8828	0.0931
316.0941	0.1076
316.3053	0.1039
316.5165	0.095
316.7277	0.1018
316.9389	0.1089
317.1501	0.1049
317.3613	0.1074
317.5724	0.0945
317.7836	0.1016
317.9947	0.1084
318.2058	0.1006
318.417	0.1039
318.6281	0.0979
318.8391	0.0899
319.0502	0.1007
319.2613	0.1176
319.4723	0.1172
319.6834	0.1232
319.8944	0.0889
320.1054	0.1099
320.3164	0.1075
320.5274	0.1016
320.7383	0.1047
320.9493	0.1023
321.1602	0.1112
321.3712	0.1037
321.5821	0.1107
321.793	0.1119
322.0039	0.1103
322.2148	0.1087
322.4257	0.1064
322.6365	0.129
322.8474	0.1181
323.0582	0.1134
323.269	0.115
323.4798	0.123
323.6906	0.122
323.9014	0.1205
324.1122	0.1147
324.3229	0.1148
324.5337	0.1157
324.7444	0.0992
324.9551	0.1202
325.1658	0.1175
325.3765	0.1155
325.5872	0.115
325.7979	0.1202
326.0085	0.1124
326.2192	0.1235
326.4298	0.1161
326.6404	0.1089
326.851	0.1118
327.0616	0.1083
327.2722	0.1161
327.4828	0.1246
327.6933	0.1027
327.9039	0.1235
328.1144	0.1211
328.3249	0.1096
328.5354	0.1063
328.7459	0.1208
328.9564	0.1178
329.1669	0.128
329.3773	0.1144
329.5878	0.1114
329.7982	0.1261
330.0086	0.1109
330.219	0.1229
330.4294	0.1161
330.6398	0.1202
330.8502	0.1114
331.0605	0.1235
331.2708	0.1174
331.4812	0.126
331.6915	0.118
331.9018	0.1138
332.1121	0.1039
332.3224	0.122
332.5326	0.1264
332.7429	0.1146
332.9531	0.1281
333.1633	0.123
333.3735	0.1222
333.5837	0.1201
333.7939	0.1107
334.0041	0.1224
334.2143	0.1257
334.4244	0.1262
334.6346	0.1075
334.8447	0.13
335.0548	0.1227
335.2649	0.1132
335.475	0.1301
335.685	0.1114
335.8951	0.1278
336.1051	0.1355
336.3152	0.124
336.5252	0.1213
336.7352	0.1251
336.9452	0.1275
337.1552	0.1285
337.3652	0.1148
337.5751	0.1078
337.7851	0.1315
337.995	0.1107
338.2049	0.1289
338.4148	0.1263
338.6247	0.1297
338.8346	0.1254
339.0445	0.1182
339.2543	0.1194
339.4642	0.122
339.674	0.1091
339.8838	0.1215
340.0936	0.129
340.3034	0.1387
340.5132	0.1327
340.7229	0.1376
340.9327	0.1313
341.1424	0.1344
341.3522	0.1442
341.5619	0.1299
341.7716	0.1337
341.9813	0.1386
342.1909	0.1268
342.4006	0.1351
342.6102	0.1497
342.8199	0.1347
343.0295	0.1399
343.2391	0.1343
343.4487	0.1445
343.6583	0.1298
343.8679	0.1346
344.0774	0.1354
344.287	0.139
344.4965	0.1227
344.706	0.1386
344.9155	0.1238
345.125	0.1397
345.3345	0.1398
345.544	0.1393
345.7534	0.1488
345.9629	0.1418
346.1723	0.143
346.3817	0.1329
346.5911	0.1297
346.8005	0.1462
347.0099	0.1403
347.2193	0.1373
347.4286	0.1408
347.638	0.1357
347.8473	0.1385
348.0566	0.1442
348.2659	0.1504
348.4752	0.1361
348.6845	0.1286
348.8937	0.1382
349.103	0.1506
349.3122	0.1294
349.5214	0.131
349.7306	0.1566
349.9398	0.1369
350.149	0.1451
350.3582	0.1418
350.5674	0.1642
350.7765	0.141
350.9856	0.1427
351.1948	0.1539
351.4039	0.1313
351.613	0.1503
351.822	0.1636
352.0311	0.1546
352.2402	0.1428
352.4492	0.1531
352.6582	0.1628
352.8672	0.1473
353.0762	0.1553
353.2852	0.1459
353.4942	0.1424
353.7032	0.149
353.9121	0.1349
354.1211	0.1386
354.33	0.1494
354.5389	0.1529
354.7478	0.1429
354.9567	0.1464
355.1655	0.1313
355.3744	0.1586
355.5833	0.1485
355.7921	0.1774
356.0009	0.1569
356.2097	0.1626
356.4185	0.1649
356.6273	0.1586
356.8361	0.1592
357.0448	0.1528
357.2536	0.1583
357.4623	0.1619
357.671	0.1748
357.8797	0.1735
358.0884	0.1678
358.2971	0.1466
358.5057	0.158
358.7144	0.1756
358.923	0.1631
359.1316	0.1614
359.3402	0.1857
359.5488	0.1665
359.7574	0.1639
359.966	0.1682
360.1746	0.1652
360.3831	0.168
360.5916	0.1669
360.8002	0.1602
361.0087	0.1774
361.2172	0.1564
361.4256	0.1795
361.6341	0.1853
361.8426	0.1807
362.051	0.1734
362.2594	0.1746
362.4678	0.1732
362.6762	0.1827
362.8846	0.1773
363.093	0.175
363.3014	0.1635
363.5097	0.151
363.718	0.1837
363.9264	0.1732
364.1347	0.1699
364.343	0.1775
364.5513	0.1804
364.7595	0.194
364.9678	0.1812
365.176	0.1709
365.3842	0.2015
365.5925	0.1788
365.8007	0.1797
366.0089	0.16
366.217	0.1685
366.4252	0.1838
366.6333	0.1822
366.8415	0.1966
367.0496	0.181
367.2577	0.1953
367.4658	0.2093
367.6739	0.1737
367.882	0.2031
368.09	0.1849
368.2981	0.2037
368.5061	0.1827
368.7141	0.1975
368.9221	0.1956
369.1301	0.19
369.3381	0.1816
369.5461	0.1731
369.754	0.1981
369.962	0.2035
370.1699	0.1962
370.3778	0.2182
370.5857	0.1911
370.7936	0.2004
371.0015	0.1813
371.2093	0.1991
371.4172	0.2062
371.625	0.1701
371.8328	0.1908
372.0406	0.1944
372.2484	0.1904
372.4562	0.1916
372.664	0.1845
372.8717	0.2058
373.0795	0.1847
373.2872	0.1969
373.4949	0.1916
373.7026	0.1982
373.9103	0.1939
374.118	0.2055
374.3256	0.1851
374.5333	0.1896
374.7409	0.1917
374.9485	0.1996
375.1561	0.1996
375.3637	0.1934
375.5713	0.2157
375.7789	0.2039
375.9864	0.202
376.194	0.1938
376.4015	0.2175
376.609	0.2151
376.8165	0.1978
377.024	0.1958
377.2315	0.1909
377.4389	0.2032
377.6464	0.1999
377.8538	0.2149
378.0612	0.2039
378.2686	0.2075
378.476	0.224
378.6834	0.1985
378.8908	0.1968
379.0981	0.1942
379.3055	0.2114
379.5128	0.1982
379.7201	0.2137
379.9274	0.2008
380.1347	0.1978
380.342	0.2219
380.5492	0.2026
380.7565	0.2074
380.9637	0.2206
381.1709	0.2059
381.3781	0.2002
381.5853	0.2219
381.7925	0.1978
381.9997	0.2118
382.2068	0.2284
382.4139	0.2097
382.6211	0.195
382.8282	0.1937
383.0353	0.2237
383.2424	0.2179
383.4494	0.2035
383.6565	0.2078
383.8635	0.2099
384.0706	0.2074
384.2776	0.2191
384.4846	0.2053
384.6916	0.223
384.8986	0.2058
385.1055	0.2132
385.3125	0.203
385.5194	0.197
385.7263	0.2116
385.9333	0.2102
386.1402	0.2058
386.347	0.1972
386.5539	0.2005
386.7608	0.2204
386.9676	0.2009
387.1744	0.2071
387.3813	0.2007
387.5881	0.2158
387.7948	0.2065
388.0016	0.2068
388.2084	0.1965
388.4151	0.2033
388.6219	0.2166
388.8286	0.1908
389.0353	0.2162
389.242	0.2127
389.4487	0.1899
389.6553	0.1891
389.862	0.1865
390.0686	0.1867
390.2753	0.2061
390.4819	0.1886
390.6885	0.1973
390.8951	0.1964
391.1016	0.196
391.3082	0.1924
391.5147	0.1896
391.7213	0.1872
391.9278	0.1788
392.1343	0.1877
392.3408	0.1826
392.5473	0.1753
392.7537	0.1771
392.9602	0.1849
393.1666	0.1933
393.373	0.1898
393.5794	0.1977
393.7858	0.1794
393.9922	0.1718
394.1986	0.1888
394.4049	0.1863
394.6113	0.1789
394.8176	0.1699
395.0239	0.1687
395.2302	0.1719
395.4365	0.1757
395.6428	0.1768
395.8491	0.1684
396.0553	0.1866
396.2615	0.1723
396.4678	0.1658
396.674	0.1559
396.8802	0.1763
397.0863	0.1923
397.2925	0.1653
397.4987	0.1568
397.7048	0.1686
397.9109	0.1796
398.117	0.1648
398.3231	0.1674
398.5292	0.1595
398.7353	0.1615
398.9413	0.1631
399.1474	0.1693
399.3534	0.1669
399.5594	0.1613
399.7654	0.1926
399.9714	0.1834
400.1774	0.1568
400.3833	0.1645
400.5893	0.1641
400.7952	0.1604
401.0011	0.1518
401.207	0.164
401.4129	0.1717
401.6188	0.1757
401.8247	0.169
402.0305	0.1633
402.2364	0.1469
402.4422	0.1919
402.648	0.1724
402.8538	0.1725
403.0596	0.1598
403.2654	0.1599
403.4711	0.1601
403.6768	0.1696
403.8826	0.1638
404.0883	0.1485
404.294	0.1688
404.4997	0.1609
404.7054	0.1751
404.911	0.1552
405.1167	0.1546
405.3223	0.181
405.5279	0.169
405.7335	0.169
405.9391	0.173
406.1447	0.1546
406.3502	0.1739
406.5558	0.1599
406.7613	0.1652
406.9668	0.1682
407.1724	0.1565
407.3778	0.1615
407.5833	0.1665
407.7888	0.1523
407.9942	0.1706
408.1997	0.1684
408.4051	0.1607
408.6105	0.1679
408.8159	0.1558
409.0213	0.1573
409.2267	0.1778
409.432	0.1556
409.6374	0.1576
409.8427	0.1459
410.048	0.1666
410.2533	0.1648
410.4586	0.1654
410.6639	0.1563
410.8691	0.1648
411.0744	0.159
411.2796	0.1392
411.4848	0.1421
411.69	0.1407
411.8952	0.1876
412.1004	0.1364
412.3056	0.1564
412.5107	0.1579
412.7158	0.1605
412.921	0.1751
413.1261	0.1634
413.3312	0.1577
413.5362	0.1615
413.7413	0.1599
413.9464	0.1424
414.1514	0.1615
414.3564	0.1587
414.5614	0.1392
414.7664	0.1456
414.9714	0.1535
415.1764	0.1527
415.3813	0.1657
415.5863	0.1558
415.7912	0.1497
415.9961	0.152
416.201	0.1538
416.4059	0.1289
416.6108	0.1379
416.8156	0.1538
417.0205	0.1418
417.2253	0.1327
417.4301	0.1578
417.6349	0.1602
417.8397	0.1415
418.0445	0.1529
418.2492	0.1499
418.454	0.157
418.6587	0.1536
418.8634	0.1634
419.0681	0.1462
419.2728	0.1459
419.4775	0.1474
419.6822	0.1292
419.8868	0.147
420.0915	0.1328
420.2961	0.1469
420.5007	0.1345
420.7053	0.1284
420.9099	0.1469
421.1144	0.1504
421.319	0.1381
421.5235	0.1465
421.728	0.1462
421.9325	0.1357
422.137	0.1636
422.3415	0.1334
422.546	0.1285
422.7504	0.1445
422.9549	0.13
423.1593	0.1393
423.3637	0.147
423.5681	0.1394
423.7725	0.1327
423.9769	0.1231
424.1812	0.1223
424.3856	0.1442
424.5899	0.1378
424.7942	0.1157
424.9985	0.1358
425.2028	0.1285
425.4071	0.1444
425.6113	0.11
425.8156	0.1417
426.0198	0.1296
426.224	0.1232
426.4282	0.1153
426.6324	0.1196
426.8366	0.1281
427.0407	0.1211
427.2449	0.1147
427.449	0.1253
427.6531	0.1058
427.8572	0.1338
428.0613	0.1213
428.2654	0.1331
428.4694	0.0998
428.6735	0.109
428.8775	0.1152
429.0815	0.1228
429.2855	0.1076
429.4895	0.1133
429.6935	0.109
429.8975	0.1143
430.1014	0.0955
430.3053	0.0973
430.5093	0.1098
430.7132	0.1069
430.9171	0.1054
431.1209	0.1118
431.3248	0.0977
431.5286	0.1015
431.7325	0.0994
431.9363	0.0844
432.1401	0.1165
432.3439	0.0779
432.5477	0.0851
432.7514	0.0909
432.9552	0.0918
433.1589	0.0894
433.3627	0.0827
433.5664	0.0889
433.7701	0.0946
433.9737	0.0817
434.1774	0.0604
434.3811	0.0691
434.5847	0.1037
434.7883	0.082
434.9919	0.0791
435.1955	0.0858
435.3991	0.0686
435.6027	0.0763
435.8062	0.0699
436.0098	0.0684
436.2133	0.0822
436.4168	0.0595
436.6203	0.0698
436.8238	0.0715
437.0272	0.0695
437.2307	0.0789
437.4341	0.0756
437.6375	0.0793
437.841	0.0557
438.0443	0.0652
438.2477	0.0591
438.4511	0.0718
438.6545	0.0591
438.8578	0.0727
439.0611	0.0602
439.2644	0.0589
439.4677	0.0555
439.671	0.059
439.8743	0.0755
440.0775	0.0628
440.2808	0.0465
440.484	0.053
440.6872	0.0362
440.8904	0.0463
441.0936	0.0761
441.2967	0.0538
441.4999	0.059
441.703	0.0481
441.9062	0.0469
442.1093	0.0443
442.3124	0.0576
442.5155	0.0374
442.7185	0.0393
442.9216	0.0315
443.1246	0.0561
443.3276	0.0357
443.5307	0.0417
443.7337	0.0378
443.9366	0.0473
444.1396	0.0415
444.3426	0.0412
444.5455	0.0418
444.7484	0.0354
444.9513	0.0375
445.1542	0.0495
445.3571	0.0275
445.56	0.0382
445.7628	0.0313
445.9657	0.0308
446.1685	0.0434
446.3713	0.0292
446.5741	0.0326
446.7769	0.0282
446.9797	0.0319
447.1824	0.0294
447.3852	0.0092
447.5879	0.0436
447.7906	0.0337
447.9933	0.0297
448.196	0.0144
448.3986	0.0169
448.6013	0.0174
448.8039	0.0123
449.0066	0.0142
449.2092	0.0339
449.4118	0.0226
449.6143	0.0218
449.8169	0.0299
450.0195	0.0087
450.222	-0.0024
450.4245	0.0144
450.627	0.021
450.8295	0.0236
451.032	0.0075
451.2345	0.014
451.4369	0.0224
451.6394	0.0181
451.8418	-0.0017
452.0442	0.0143
452.2466	0.0108
452.449	0.0024
452.6513	0.0053
452.8537	0.0106
453.056	0.0079
453.2583	0.0264
453.4607	0.0191
453.663	0.0175
453.8652	0.0191
454.0675	0.003
454.2697	0.0035
454.472	-0.0064
454.6742	0.0127
454.8764	0.0065
455.0786	0.0143
455.2808	0.0145
455.4829	0.0038
455.6851	0.0106
455.8872	0.0117
456.0893	0.0187
456.2915	0.0006
456.4935	0.0057
456.6956	0.0156
456.8977	0.0047
457.0997	0.0092
457.3018	-0.0116
457.5038	0.0161
457.7058	0.0085
457.9078	0.0078
458.1098	0.0014
458.3117	0.011
458.5137	0.0099
458.7156	0.0096
458.9175	-0.0001
459.1194	0.0056
459.3213	0.0066
459.5232	-0.0051
459.725	-0.0077
459.9269	-0.007
460.1287	-0.0039
460.3305	-0.0084
460.5323	-0.0002
460.7341	0.0029
460.9359	-0.002
461.1376	0.0037
461.3394	-0.005
461.5411	0.0087
461.7428	-0.0132
461.9445	0.0111
462.1462	0.0212
462.3479	-0.0056
462.5495	0.0002
462.7512	0.0086
462.9528	-0.0057
463.1544	-0.0197
463.356	-0.0054
463.5576	0.0019
463.7592	-0.0081
463.9607	0.0062
464.1623	0.0002
464.3638	0.0238
464.5653	-0.0083
464.7668	-0.0044
464.9683	0.0052
465.1697	0.0178
465.3712	-0.0134
465.5726	-0.0121
465.7741	-0.0113
465.9755	-0.0121
466.1769	0.0025
466.3782	-0.0021
466.5796	-0.0156
466.7809	0.0106
466.9823	-0.0131
467.1836	-0.0159
467.3849	-0.0066
467.5862	0.0108
467.7875	-0.0046
467.9887	-0.0006
468.19	-0.0036
468.3912	0.0022
468.5924	-0.0114
468.7936	-0.0063
468.9948	-0.0025
469.196	-0.0088
469.3972	-0.0105
469.5983	0.0047
469.7994	-0.0219
470.0006	-0.0019
470.2017	-0.0106
470.4027	-0.0098
470.6038	-0.0048
470.8049	-0.0253
471.0059	-0.0062
471.2069	-0.0284
471.408	-0.0009
471.6089	0.0133
471.8099	-0.0013
472.0109	-0.0027
472.2119	-0.01
472.4128	-0.0247
472.6137	0.0089
472.8146	-0.0261
473.0155	-0.0036
473.2164	-0.0085
473.4173	0.0008
473.6181	-0.0007
473.819	0.0019
474.0198	-0.0139
474.2206	-0.0098
474.4214	-0.0184
474.6222	0.0052
474.8229	-0.0077
475.0237	-0.0154
475.2244	-0.0163
475.4251	-0.0108
475.6258	-0.0051
475.8265	-0.0057
476.0272	-0.0013
476.2278	-0.0067
476.4285	-0.0001
476.6291	-0.0009
476.8297	-0.0067
477.0303	-0.0089
477.2309	-0.0087
477.4315	-0.0185
477.632	-0.0091
477.8326	-0.0142
478.0331	0.0018
478.2336	-0.0044
478.4341	-0.0151
478.6346	-0.0024
478.8351	-0.0069
479.0355	-0.009
479.236	-0.024
479.4364	-0.0112
479.6368	0.0007
479.8372	-0.0203
480.0376	-0.0102
480.2379	-0.0202
480.4383	-0.0123
480.6386	-0.001
480.8389	0.0015
481.0392	-0.0127
481.2395	-0.0174
481.4398	0.0046
481.6401	-0.0095
481.8403	-0.0204
482.0405	-0.0183
482.2408	-0.0011
482.441	0.0021
482.6411	-0.009
482.8413	-0.002
483.0415	-0.0156
483.2416	-0.0147
483.4417	-0.0059
483.6419	-0.0019
483.8419	-0.0027
484.042	0.0067
484.2421	-0.0155
484.4422	-0.0178
484.6422	-0.0107
484.8422	-0.0148
485.0422	-0.0123
485.2422	0.0014
485.4422	-0.013
485.6422	-0.0186
485.8421	-0.0034
486.042	-0.0041
486.242	-0.0072
486.4419	-0.0166
486.6417	-0.0122
486.8416	-0.0023
487.0415	-0.0073
487.2413	-0.0034
487.4411	-0.0161
487.641	-0.0147
487.8408	0.0069
488.0405	-0.0077
488.2403	-0.0087
488.4401	0.0092
488.6398	-0.0079
488.8395	-0.0124
489.0392	-0.0079
489.2389	-0.0191
489.4386	-0.0192
489.6383	-0.0062
489.8379	-0.004
490.0376	-0.0053
490.2372	-0.018
490.4368	-0.0168
490.6364	-0.0102
490.836	-0.0134
491.0355	-0.012
491.2351	-0.0186
491.4346	-0.0098
491.6341	-0.019
491.8336	-0.0038
492.0331	-0.0235
492.2326	-0.0164
492.432	-0.0067
492.6315	-0.0127
492.8309	-0.0187
493.0303	-0.0162
493.2297	-0.0032
493.4291	-0.0096
493.6284	-0.0041
493.8278	-0.0082
494.0271	-0.0091
494.2264	-0.0025
494.4257	-0.0183
494.625	-0.0174
494.8243	-0.0297
495.0236	-0.0231
495.2228	-0.0215
495.422	-0.012
495.6213	-0.011
495.8205	-0.0158
496.0196	-0.0128
496.2188	-0.0019
496.418	-0.0157
496.6171	-0.0197
496.8162	-0.0141
497.0153	-0.0056
497.2144	-0.0082
497.4135	-0.0064
497.6126	-0.0191
497.8116	-0.0146
498.0107	-0.0133
498.2097	-0.0097
498.4087	-0.0163
498.6077	-0.0124
498.8067	-0.0148
499.0056	-0.0047
499.2046	-0.0221
499.4035	-0.025
499.6024	-0.0055
499.8013	-0.0029
500.0002	-0.0178
500.199	-0.0029
500.3979	-0.0136
500.5967	-0.0169
500.7956	-0.0086
500.9944	-0.0118
501.1932	-0.0143
501.3919	-0.0206
501.5907	-0.0142
501.7895	-0.0132
501.9882	-0.0211
502.1869	-0.008
502.3856	-0.0209
502.5843	-0.0131
502.783	-0.0091
502.9816	-0.0096
503.1803	-0.0203
503.3789	-0.0174
503.5775	-0.0045
503.7761	-0.006
503.9747	-0.0076
504.1732	-0.0112
504.3718	-0.0144
504.5703	-0.0066
504.7689	-0.0119
504.9674	-0.0022
505.1658	-0.0205
505.3643	-0.0137
505.5628	-0.0069
505.7612	-0.0134
505.9597	-0.0049
506.1581	-0.0121
506.3565	-0.0082
506.5549	-0.0099
506.7532	-0.0199
506.9516	-0.01
507.1499	-0.0049
507.3482	-0.019
507.5465	-0.0223
507.7448	-0.0086
507.9431	-0.0117
508.1414	-0.0045
508.3396	-0.011
508.5379	-0.0182
508.7361	-0.0217
508.9343	-0.015
509.1325	-0.0032
509.3306	-0.0142
509.5288	-0.0079
509.7269	-0.0134
509.9251	-0.0042
510.1232	-0.0128
510.3213	-0.0049
510.5193	-0.0026
510.7174	-0.0186
510.9154	-0.0179
511.1135	-0.022
511.3115	-0.0153
511.5095	-0.0163
511.7075	-0.0099
511.9055	-0.0142
512.1034	-0.013
512.3014	-0.0102
512.4993	-0.0048
512.6972	-0.0192
512.8951	-0.0227
513.093	-0.0072
513.2908	-0.0077
513.4887	-0.0063
513.6865	-0.0133
513.8844	-0.0161
514.0822	-0.0125
514.2799	-0.0179
514.4777	-0.0209
514.6755	-0.0162
514.8732	-0.013
515.0709	-0.016
515.2687	-0.0154
515.4664	-0.0058
515.664	-0.01
515.8617	-0.0103
516.0594	-0.0148
516.257	-0.0063
516.4546	-0.0106
516.6522	0.0018
516.8498	-0.0071
517.0474	-0.0013
517.2449	-0.0075
517.4425	-0.0185
517.64	-0.0117
517.8375	-0.0056
518.035	-0.0045
518.2325	-0.0203
518.43	-0.0139
518.6274	-0.0133
518.8249	-0.0177
519.0223	-0.009
519.2197	-0.0088
519.4171	-0.017
519.6145	-0.0138
519.8118	-0.0102
520.0092	-0.0013
520.2065	-0.0144
520.4038	-0.0246
520.6011	-0.0181
520.7984	-0.0161
520.9956	-0.0182
521.1929	-0.0179
521.3901	-0.0047
521.5874	-0.0073
521.7846	-0.001
521.9818	-0.0078
522.1789	-0.0127
522.3761	-0.0114
522.5732	-0.0114
522.7704	-0.009
522.9675	0.0011
523.1646	-0.0141
523.3617	-0.003
523.5587	-0.0092
523.7558	-0.0043
523.9528	-0.0157
524.1498	-0.0108
524.3468	-0.0112
524.5438	-0.0177
524.7408	-0.0068
524.9378	0.0064
525.1347	-0.0065
525.3316	-0.0087
525.5285	-0.0139
525.7254	-0.0134
525.9223	-0.0057
526.1192	-0.0101
526.316	-0.0142
526.5129	-0.0054
526.7097	-0.0073
526.9065	-0.0077
527.1033	-0.0175
527.3	0.0008
527.4968	-0.0118
527.6935	-0.0056
527.8903	-0.0125
528.087	-0.0077
528.2837	-0.0012
528.4804	-0.0038
528.677	-0.0149
528.8737	0.0029
529.0703	-0.0114
529.2669	-0.0017
529.4635	-0.0113
529.6601	-0.0097
529.8567	-0.0113
530.0532	-0.0153
530.2498	0.0033
530.4463	-0.0031
530.6428	-0.0081
530.8393	0.0043
531.0358	-0.0171
531.2322	-0.0049
531.4287	-0.0074
531.6251	-0.0169
531.8215	-0.0054
532.0179	-0.0074
532.2143	0.0028
532.4107	-0.0087
532.607	-0.0066
532.8034	0.0011
532.9997	-0.0012
533.196	-0.0144
533.3923	-0.0095
533.5886	-0.003
533.7848	-0.006
533.9811	-0.0062
534.1773	-0.0028
534.3735	0.0003
534.5697	-0.0065
534.7659	-0.0083
534.9621	-0.0035
535.1582	-0.0093
535.3544	-0.016
535.5505	-0.0187
535.7466	-0.0036
535.9427	-0.0091
536.1387	-0.0183
536.3348	-0.0096
536.5308	-0.0021
536.7269	-0.0158
536.9229	-0.0074
537.1189	-0.0115
537.3148	-0.0072
537.5108	-0.0117
537.7068	-0.0032
537.9027	0.0004
538.0986	-0.0052
538.2945	-0.0101
538.4904	-0.0151
538.6863	-0.0131
538.8821	-0.007
539.078	-0.0138
539.2738	-0.004
539.4696	-0.0134
539.6654	-0.0034
539.8611	0.0053
540.0569	0
540.2526	-0.0072
540.4484	-0.0058
540.6441	-0.0091
540.8398	-0.0138
541.0355	0.0016
541.2311	-0.0013
541.4268	-0.0173
541.6224	0.0067
541.818	-0.0073
542.0136	-0.0064
542.2092	-0.0076
542.4048	-0.0024
542.6003	-0.0023
542.7959	-0.0138
542.9914	-0.0162
543.1869	-0.0039
543.3824	-0.0032
543.5779	-0.011
543.7734	-0.006
543.9688	-0.0081
544.1642	-0.0008
544.3596	0.0018
544.555	-0.0056
544.7504	-0.0111
544.9458	-0.012
545.1411	-0.0055
545.3365	-0.0098
545.5318	-0.0102
545.7271	-0.0142
545.9224	-0.0126
546.1177	-0.0024
546.3129	-0.0002
546.5081	-0.0037
546.7034	-0.0063
546.8986	-0.0108
547.0938	-0.0163
547.289	-0.0081
547.4841	-0.0051
547.6793	0.0153
547.8744	-0.0094
548.0695	-0.0063
548.2646	-0.0082
548.4597	-0.0041
548.6548	-0.0035
548.8498	-0.0096
549.0448	-0.0013
549.2399	-0.0093
549.4349	0.0038
549.6298	-0.0068
549.8248	-0.002
550.0198	-0.009
550.2147	-0.0073
550.4096	-0.0088
550.6045	-0.0077
550.7994	0.0019
550.9943	-0.0003
551.1892	-0.0063
551.384	0.0028
551.5788	-0.0083
551.7737	-0.0017
551.9685	-0.0016
552.1632	-0.0044
552.358	0.0018
552.5528	0.0021
552.7475	-0.0039
552.9422	-0.0022
553.1369	-0.0049
553.3316	-0.0069
553.5263	-0.007
553.7209	0.0001
553.9156	-0.0049
554.1102	-0.0034
554.3048	-0.0104
554.4994	0.0012
554.694	-0.0086
554.8885	0.0048
555.0831	-0.0134
555.2776	-0.0099
555.4721	-0.0075
555.6666	0.0019
555.8611	0.0055
556.0555	-0.0077
556.25	-0
556.4444	-0.0075
556.6388	0.0026
556.8332	-0.0065
557.0276	-0.0026
557.222	-0.0062
557.4163	-0.0059
557.6107	-0.0134
557.805	-0.0018
557.9993	-0.0066
558.1936	-0.0034
558.3879	-0.0013
558.5821	-0.0037
558.7764	-0.0021
558.9706	-0.0049
559.1648	0.0067
559.359	-0.0065
559.5532	-0.0156
559.7473	0.0014
559.9415	-0.001
560.1356	-0.0119
560.3297	-0.0162
560.5238	-0.0063
560.7179	-0.0025
560.9119	-0.0097
561.106	-0.0053
561.3	-0.01
561.494	-0.0053
561.688	-0.0037
561.882	-0.0136
562.076	-0.0071
562.2699	0.0006
562.4639	-0.01
562.6578	0.004
562.8517	-0.0109
563.0456	-0.0004
563.2395	-0.0025
563.4333	0.0022
563.6272	0.0056
563.821	-0.0056
564.0148	-0.0069
564.2086	-0.0138
564.4024	-0.0031
564.5961	-0
564.7899	0.0046
564.9836	-0.0041
565.1773	0.0028
565.371	0.0067
565.5647	-0.0046
565.7584	-0.0048
565.952	-0.0015
566.1456	0.0079
566.3393	-0.0038
566.5329	-0.0039
566.7264	-0.004
566.92	-0.0083
567.1136	-0.0002
567.3071	-0.0076
567.5006	0.0027
567.6941	-0.0012
567.8876	-0.0044
568.0811	-0.0066
568.2745	0.008
568.468	0.0063
568.6614	-0.0061
568.8548	-0.0083
569.0482	-0.0073
569.2416	-0.0065
569.4349	-0.0065
569.6283	-0.0044
569.8216	-0.0059
570.0149	-0.004
570.2082	0.0028
570.4015	0.0036
570.5947	0.0038
570.788	-0.0013
570.9812	0.0042
571.1744	-0.0001
571.3676	-0.008
571.5608	0.0007
571.754	-0.0084
571.9471	-0.0067
572.1402	0.0033
572.3333	-0.0013
572.5264	-0.0039
572.7195	0.0051
572.9126	-0.0004
573.1057	-0.0012
573.2987	-0.0096
573.4917	-0.0019
573.6847	-0.0092
573.8777	-0.0091
574.0707	-0.0003
574.2636	-0.0081
574.4566	-0.003
574.6495	0.0028
574.8424	-0.002
575.0353	-0.0051
575.2281	0.0102
575.421	0.0019
575.6138	0.0018
575.8067	-0.0104
575.9995	-0.0038
576.1923	0.0025
576.385	-0.0015
576.5778	-0.0075
576.7706	-0.0048
576.9633	0.0045
577.156	0.0074
577.3487	-0.001
577.5414	-0.0009
577.734	-0.0037
577.9267	0.0037
578.1193	-0.0033
578.3119	-0.0104
578.5045	-0.0072
578.6971	-0.0036
578.8897	-0.0007
579.0822	-0.0024
579.2747	0.0024
579.4673	-0.0078
579.6598	-0.0067
579.8522	-0.0056
580.0447	-0.0104
580.2372	0.0013
580.4296	0.0053
580.622	-0.0036
580.8144	-0.0022
581.0068	-0.0083
581.1992	-0.013
581.3915	-0.0052
581.5839	-0.0108
581.7762	-0.0081
581.9685	-0.0046
582.1608	-0.0012
582.353	-0
582.5453	-0.0013
582.7375	-0.0007
582.9298	0.005
583.122	-0.0017
583.3142	-0.0025
583.5063	-0.0056
583.6985	0.0023
583.8906	-0.0047
584.0827	-0.0083
584.2749	0.0007
584.4669	-0.0082
584.659	-0.0066
584.8511	-0.0039
585.0431	-0.0054
585.2352	-0.0037
585.4272	-0.0029
585.6192	0.001
585.8111	0.0005
586.0031	-0.0001
586.195	-0.0001
586.387	0.0048
586.5789	-0.0012
586.7708	0.0006
586.9627	-0.0003
587.1545	-0.0047
587.3464	0.0011
587.5382	0.0092
587.73	-0.0004
587.9218	-0.0004
588.1136	-0.0095
588.3053	0.004
588.4971	-0.005
588.6888	-0.0137
588.8805	-0.0048
589.0722	0.0074
589.2639	-0.0034
589.4556	0
589.6472	-0.0009
589.8389	-0.0122
590.0305	-0.0118
590.2221	0.0004
590.4137	-0.0032
590.6052	0.0061
590.7968	-0.0041
590.9883	-0.0064
591.1798	-0.0067
591.3713	-0.0038
591.5628	-0.0029
591.7543	0.0034
591.9458	-0.0035
592.1372	0.006
592.3286	0.0065
592.52	0.0044
592.7114	-0.006
592.9028	-0.0077
593.0941	0.0021
593.2855	-0.0034
593.4768	-0.0071
593.6681	-0.0106
593.8594	-0.0079
594.0506	-0.0004
594.2419	-0.0007
594.4331	-0.0033
594.6244	-0.0032
594.8156	-0.0058
595.0067	-0.0023
595.1979	0.0022
595.3891	-0.0008
595.5802	0.0001
595.7713	-0.0016
595.9624	-0.0104
596.1535	0.0002
596.3446	-0.0006
596.5357	-0.0029
596.7267	-0.0001
596.9177	-0.0017
597.1087	-0.006
597.2997	-0.0048
597.4907	0.0007
597.6817	0.0007
597.8726	0
598.0635	-0.0068
598.2544	-0.0035
598.4453	0.0039
598.6362	-0.0021
598.827	-0.0068
599.0179	-0.0004
599.2087	0.0033
599.3995	0.0013
599.5903	0.0019
599.7811	0.0002
599.9718	-0.0005
600.1626	-0.0052
600.3533	-0.0091
600.544	-0.0001
600.7347	-0.0064
600.9254	0.0031
601.116	-0.0105
601.3067	-0.0001
601.4973	-0.0077
601.6879	0.0053
601.8785	-0.01
602.0691	0.0024
602.2596	-0.004
602.4502	-0.0059
602.6407	0.0034
602.8312	0.0003
603.0217	-0.0077
603.2122	0.0033
603.4027	0.0014
603.5931	-0.0019
603.7835	-0.0058
603.9739	0.0013
604.1643	-0.0028
604.3547	-0.008
604.5451	0.003
604.7354	-0.0027
604.9257	-0.0009
605.116	-0.0024
605.3063	0.0037
605.4966	0.0007
605.6869	-0.0024
605.8771	0.0024
606.0673	0.0016
606.2575	-0.0001
606.4477	0.0031
606.6379	-0.0013
606.8281	-0.0027
607.0182	0.0009
607.2083	0.0051
607.3985	-0.0053
607.5885	-0.0023
607.7786	0.0012
607.9687	0
608.1587	0.002
608.3488	-0.002
608.5388	0.0001
608.7288	-0.0008
608.9187	-0.0032
609.1087	0.0005
609.2986	-0.0082
609.4886	-0.0034
609.6785	-0.0034
609.8684	0.005
610.0582	-0.0006
610.2481	0.0021
610.4379	0.001
610.6278	-0.0048
610.8176	-0.0044
611.0074	-0.0044
611.1971	-0.0049
611.3869	-0.0046
611.5766	-0.0045
611.7664	0.0056
611.9561	0.0006
612.1458	-0.0039
612.3354	-0.0119
612.5251	0.0045
612.7147	-0.004
612.9044	0.0057
613.094	-0.0058
613.2836	-0.0036
613.4731	-0.0025
613.6627	-0.006
613.8522	0.0016
614.0417	0.0075
614.2313	-0.0045
614.4207	-0.0033
614.6102	0.0033
614.7997	-0.0077
614.9891	-0.0035
615.1785	-0.0013
615.3679	-0.0048
615.5573	0.01
615.7467	0.0006
615.9361	-0.0016
616.1254	-0.0035
616.3147	0.0025
616.504	-0.0089
616.6933	0.0008
616.8826	0.0039
617.0718	0.0034
617.2611	0.0019
617.4503	-0.0061
617.6395	-0.0061
617.8287	-0.004
618.0179	0.0047
618.207	0.0094
618.3961	0.0009
618.5853	-0.0017
618.7744	0.0074
618.9634	0.003
619.1525	-0.0008
619.3416	-0.0015
619.5306	-0.0008
619.7196	-0.0017
619.9086	-0.0113
620.0976	-0.0003
620.2866	-0.0062
620.4755	-0.0052
620.6645	-0.0042
620.8534	0.0039
621.0423	0.0002
621.2312	0.0032
621.42	0.0015
621.6089	0.0019
621.7977	0.0059
621.9865	-0.0073
622.1753	0.0028
622.3641	-0.0031
622.5529	0.0063
622.7416	-0.0013
622.9303	-0.006
623.1191	0.0042
623.3078	-0.0042
623.4964	0.0015
623.6851	-0.0114
623.8737	-0.0109
624.0624	0.0034
624.251	-0.0059
624.4396	-0.0049
624.6282	-0.0082
624.8167	-0.0009
625.0053	0.0003
625.1938	0.005
625.3823	0.0016
625.5708	-0.0033
625.7593	-0.0103
625.9477	-0.0061
626.1362	-0.0051
626.3246	-0.0003
626.513	-0.0035
626.7014	0.0047
626.8898	-0.006
627.0781	-0.0006
627.2665	-0.0058
627.4548	0.0008
627.6431	0.0032
627.8314	0.0002
628.0197	0.0075
628.2079	-0.0043
628.3962	-0.0036
628.5844	0.0014
628.7726	0.0004
628.9608	0.0024
629.1489	-0.0051
629.3371	0.0015
629.5252	-0.0029
629.7134	0.0062
629.9015	0.0002
630.0895	-0.0035
630.2776	0.0044
630.4657	-0.008
630.6537	-0.0021
630.8417	-0.0056
631.0297	-0.0027
631.2177	-0.004
631.4057	-0.0033
631.5936	-0.0024
631.7815	-0.0062
631.9695	-0.0021
632.1574	0.007
632.3452	0.0126
632.5331	-0.0011
632.7209	-0.0012
632.9088	0.0067
633.0966	0.0116
633.2844	0.0025
633.4722	-0.0058
633.6599	0.0066
633.8477	-0.0015
634.0354	-0.0007
634.2231	-0.0091
634.4108	0.0024
634.5985	0.008
634.7861	0.0007
634.9738	-0.0029
635.1614	0.0001
635.349	0.0007
635.5366	-0.0026
635.7242	-0.0045
635.9117	-0.0051
636.0993	-0.0071
636.2868	0.0044
636.4743	-0.0036
636.6618	0.0111
636.8492	0.0004
637.0367	0.0028
637.2241	-0.005
637.4115	-0.0066
637.5989	0.0046
637.7863	0.0017
637.9737	-0.0033
638.161	0.0003
638.3484	-0.0055
638.5357	0.004
638.723	0.0021
638.9103	-0
639.0975	-0.0011
639.2848	0.0067
639.472	0.0026
639.6592	0.0061
639.8464	0.009
640.0336	0.0069
640.2208	-0.0002
640.4079	-0.0035
640.595	0.0044
640.7821	0.004
640.9692	-0.0035
641.1563	0.0001
641.3434	0.0025
641.5304	-0.0004
641.7174	0.0046
641.9044	0.0056
642.0914	0.0074
642.2784	0.0048
642.4653	0.0113
642.6523	0.0051
642.8392	-0.0001
643.0261	0.002
643.213	-0.0004
643.3999	-0.0068
643.5867	0.0001
643.7735	0.0029
643.9604	-0.0026
644.1472	0.0061
644.3339	0.0061
644.5207	0.0023
644.7075	0
644.8942	0.0087
645.0809	0.0091
645.2676	0.0111
645.4543	0.003
645.6409	0.0003
645.8276	0.0017
646.0142	0.0009
646.2008	-0.0051
646.3874	-0.0029
646.574	0.0009
646.7605	-0.0088
646.9471	-0.0137
647.1336	-0.0029
647.3201	-0.0001
647.5066	-0.0012
647.6931	-0.0011
647.8795	-0.0047
648.0659	0.0064
648.2524	0.0081
648.4388	-0.0016
648.6252	0.0075
648.8115	0.0038
648.9979	-0.0079
649.1842	-0.0017
649.3705	0.0008
649.5568	0.0013
649.7431	0.0036
649.9294	-0.0009
650.1156	0.0022
650.3018	-0.0063
650.488	0.0026
650.6742	0.0018
650.8604	0.0013
651.0466	-0.003
651.2327	-0.0036
651.4188	-0.0018
651.6049	0.0021
651.791	-0.0036
651.9771	0.0008
652.1632	0.0037
652.3492	-0.0046
652.5352	0.005
652.7212	0.0018
652.9072	-0.0045
653.0932	-0.0053
653.2791	-0.0077
653.465	-0.0015
653.651	-0.0033
653.8369	-0.0004
654.0227	0.0005
654.2086	0.0076
654.3944	0.0023
654.5803	-0.0007
654.7661	0.0006
654.9519	-0.0005
655.1377	-0.0058
655.3234	-0.0003
655.5092	-0.0038
655.6949	-0.007
655.8806	-0.0106
656.0663	-0.0011
656.2519	-0.0047
656.4376	-0.0079
656.6232	0.0076
656.8088	-0.0022
656.9945	-0.0071
657.18	0.0041
657.3656	-0.0021
657.5511	-0.0014
657.7367	-0.0022
657.9222	0.0027
658.1077	0.0029
658.2932	-0.0004
658.4786	-0.0029
658.6641	-0.0057
658.8495	0.0014
659.0349	0.0004
659.2203	-0.0005
659.4057	0.0074
659.591	0.0011
659.7764	-0.0037
659.9617	-0.0026
660.147	0.0022
660.3323	0.0052
660.5176	0.0091
660.7028	0.0005
660.888	-0.0003
661.0733	-0.0043
661.2585	-0.0089
661.4436	-0.0012
661.6288	-0.0025
661.8139	0.002
661.9991	0.0055
662.1842	-0.0003
662.3693	-0.0014
662.5544	-0.0108
662.7394	0.0049
662.9245	-0.0009
663.1095	0.0019
663.2945	-0.0045
663.4795	-0.0066
663.6644	0.0055
663.8494	0.0017
664.0343	-0.0025
664.2193	-0.0055
664.4042	-0.0021
664.589	-0.0076
664.7739	-0.0032
664.9587	-0.0121
665.1436	-0.0084
665.3284	-0.0065
665.5132	-0.0028
665.698	-0.0069
665.8827	0.0019
666.0675	-0.003
666.2522	-0.0049
666.4369	0.0005
666.6216	-0.0033
666.8063	-0.0034
666.9909	0.0024
667.1756	-0.0036
667.3602	-0.0005
667.5448	0.0007
667.7294	0.0047
667.9139	-0.0015
668.0985	0.0158
668.283	-0.0049
668.4675	-0.0007
668.652	-0.0013
668.8365	-0.0073
669.0209	0.0075
669.2054	0.0141
669.3898	-0.0043
669.5742	0.0035
669.7586	0.0013
669.943	0.0035
670.1273	0.0058
670.3117	0.0078
670.496	0.0018
670.6803	0.0044
670.8646	0.0054
671.0488	-0.0012
671.2331	0.0038
671.4173	-0.0075
671.6015	0
671.7857	-0.0011
671.9699	0.0001
672.1541	0.0068
672.3382	-0.0018
672.5223	0.001
672.7064	0.0032
672.8905	-0.0007
673.0746	-0.0021
673.2587	-0.0016
673.4427	-0.0057
673.6267	0.0034
673.8107	0.0037
673.9947	-0.0031
674.1787	-0.0043
674.3626	-0.0091
674.5465	-0.0008
674.7304	0.004
674.9143	0.0022
675.0982	0.0097
675.2821	-0.0068
675.4659	0.0021
675.6497	0.0059
675.8335	0.0035
676.0173	0.0017
676.2011	0.0017
676.3849	-0.0029
676.5686	-0.0055
676.7523	-0.0033
676.936	-0.0066
677.1197	-0.0005
677.3034	0.0002
677.487	0.0035
677.6706	-0.0003
677.8542	0.0021
678.0378	-0
678.2214	-0.0004
678.405	-0.0005
678.5885	-0.0044
678.772	-0.0047
678.9555	-0.0054
679.139	-0.0056
679.3225	0.0043
679.5059	-0.0012
679.6894	-0
679.8728	0.002
680.0562	-0.0064
680.2395	0.0037
680.4229	0.0012
680.6062	0.0086
680.7896	0.001
680.9729	-0.007
681.1562	0.0025
681.3394	-0.0026
681.5227	-0.0136
681.7059	-0.0043
681.8891	-0.0109
682.0723	0.0079
682.2555	0.0014
682.4387	-0.0034
682.6218	-0.0031
682.805	0.0115
682.9881	0.0014
683.1712	-0.0011
683.3542	-0.0066
683.5373	-0.0011
683.7203	-0.0146
683.9034	-0.0095
684.0864	-0.008
684.2694	-0.0026
684.4523	0.001
684.6353	-0.0084
684.8182	0.0102
685.0011	-0.0066
685.184	-0.0004
685.3669	-0.0034
685.5498	0.0031
685.7326	0.0026
685.9154	-0.005
686.0982	0.0067
686.281	0.0012
686.4638	0.0011
686.6465	-0.0041
686.8293	-0.0006
687.012	-0.0027
687.1947	-0.0128
687.3774	0.0018
687.56	-0.003
687.7427	-0.0018
687.9253	-0.0049
688.1079	-0.0002
688.2905	0.0008
688.4731	0.0002
688.6556	-0.0033
688.8382	-0.0077
689.0207	-0.0015
689.2032	-0.0052
689.3857	-0.0144
689.5681	-0.0084
689.7506	-0.0112
689.933	-0.0138
690.1154	-0.0011
690.2978	-0.0057
690.4802	-0.0024
690.6626	-0.0169
690.8449	-0.011
691.0272	-0.0013
691.2095	-0.0072
691.3918	-0.0023
691.5741	0.002
691.7563	-0.0111
691.9386	0.0042
692.1208	-0.0095
692.303	0.0073
692.4852	-0.0015
692.6673	-0.0046
692.8495	-0.0017
693.0316	-0.0047
693.2137	0.0033
693.3958	0.0039
693.5778	-0.0054
693.7599	-0.0046
693.9419	-0.0037
694.1239	0.0003
694.3059	-0.0112
694.4879	-0.0069
694.6699	0.0029
694.8518	-0.0036
695.0337	-0.0086
695.2157	0.0046
695.3975	0.0001
695.5794	0.0042
695.7613	-0.0055
695.9431	0.0016
696.1249	-0.0021
696.3067	0.0025
696.4885	0.0077
696.6703	-0.0055
696.852	-0.001
697.0337	-0.0016
697.2154	-0.0042
697.3971	0.0049
697.5788	0.0019
697.7605	-0.0037
697.9421	0.0073
698.1237	-0.0023
698.3053	-0.0017
698.4869	-0.0013
698.6685	-0.0055
698.85	-0.0059
699.0315	0.0101
699.213	-0.0003
699.3945	0.0001
699.576	-0.002
699.7575	0.0009
699.9389	-0.0009
700.1203	-0.0086
700.3017	-0.0106
700.4831	-0.0145
700.6645	-0.0103
700.8458	0.0031
701.0271	-0.0081
701.2084	-0.0017
701.3897	-0.0033
701.571	-0.0003
701.7523	-0.0086
701.9335	-0.0017
702.1147	-0.0046
702.2959	0.0039
702.4771	-0
702.6583	0.0058
702.8394	-0.0034
703.0205	0.0013
703.2016	-0.0074
703.3827	-0.0045
703.5638	0.0057
703.7449	-0.0045
703.9259	0.0035
704.1069	-0.0014
704.2879	0.0076
704.4689	-0.0034
704.6499	-0.0026
704.8308	-0.0011
705.0117	-0.0053
705.1927	0.0065
705.3735	-0.0048
705.5544	-0.0052
705.7353	0.0001
705.9161	0.0008
706.0969	-0.0112
706.2777	-0.0037
706.4585	-0.0035
706.6393	-0.0005
706.82	-0.003
707.0007	0.0029
707.1815	0.0018
707.3621	0.0085
707.5428	0.0008
707.7235	-0.0088
707.9041	-0.0022
708.0847	-0.0015
708.2653	-0.0083
708.4459	-0.014
708.6265	-0.006
708.807	0.0028
708.9875	0.0049
709.168	-0.0061
709.3485	-0.0063
709.529	-0.0105
709.7095	-0.0077
709.8899	-0.0026
710.0703	-0.011
710.2507	0.0003
710.4311	-0.0139
710.6115	-0.0075
710.7918	-0.0041
710.9721	-0
711.1524	-0.0066
711.3327	-0.0055
711.513	-0.0031
711.6932	0.0024
711.8735	0.0042
712.0537	-0.0034
712.2339	0.0033
712.4141	-0.0052
712.5942	-0.0096
712.7744	-0.008
712.9545	-0.007
713.1346	-0.0075
713.3147	-0.0063
713.4947	-0.0054
713.6748	-0.0108
713.8548	-0.0043
714.0348	-0.0063
714.2148	-0.0115
714.3948	0.0017
714.5748	-0.0107
714.7547	-0.0067
714.9346	-0.0032
715.1145	-0.0127
715.2944	-0.0075
715.4743	0.0011
715.6541	-0.008
715.834	-0.001
716.0138	-0.0013
716.1936	-0.0237
716.3733	-0.0088
716.5531	0.0027
716.7328	-0.0038
716.9126	-0.0034
717.0923	0.0043
717.2719	0.0031
717.4516	0.0094
717.6312	0.0049
717.8109	-0.0011
717.9905	-0.0008
718.1701	0.0005
718.3496	-0.0105
718.5292	-0.0034
718.7087	-0.0065
718.8882	-0.0072
719.0677	0.0007
719.2472	-0.0072
719.4267	0.0001
719.6061	-0.0081
719.7856	0.0038
719.965	0.0042
720.1443	-0.0095
720.3237	0.0123
720.5031	-0.0015
720.6824	-0.0009
720.8617	0.0042
721.041	-0.0055
721.2203	0.0044
721.3995	0.0018
721.5788	-0.0036
721.758	0.0026
721.9372	-0.0012
722.1164	-0.0074
722.2956	-0.0046
722.4747	-0.003
722.6538	-0.0018
722.8329	0.0134
723.012	-0.0011
723.1911	-0.0062
723.3702	0.0038
723.5492	0.005
723.7282	0.0036
723.9072	0.0043
724.0862	-0.0073
724.2652	0.0002
724.4441	0.0015
724.623	-0.0084
724.8019	-0.0012
724.9808	-0.0009
725.1597	-0.0074
725.3385	0.0013
725.5174	-0.001
725.6962	0.0009
725.875	0.0067
726.0538	-0.0009
726.2325	-0.0069
726.4112	0.0023
726.59	-0.0038
726.7687	0.0032
726.9474	-0.0012
727.126	0.0027
727.3047	0
727.4833	-0.0019
727.6619	-0.0101
727.8405	-0.007
728.0191	-0.0019
728.1976	0.0027
728.3762	0.0032
728.5547	0.0042
728.7332	-0.0117
728.9116	-0.0046
729.0901	0.0077
729.2686	-0.0056
729.447	0.0062
729.6254	-0.0007
729.8038	-0.0054
729.9821	-0.0047
730.1605	-0.0039
730.3388	-0.0056
730.5171	-0.0069
730.6954	-0.006
730.8737	0.0002
731.0519	0.0048
731.2302	-0.0059
731.4084	0.0117
731.5866	0.0012
731.7648	0.0008
731.9429	0.0004
732.1211	-0.0171
732.2992	-0.0068
732.4773	-0.0094
732.6554	-0.007
732.8335	0.0043
733.0115	-0.0074
733.1896	0.0038
733.3676	-0.0106
733.5456	-0.004
733.7235	0.0009
733.9015	-0.0038
734.0794	-0.0048
734.2574	-0.0044
734.4353	-0.0071
734.6131	0.0018
734.791	0.0008
734.9689	0.0032
735.1467	-0.007
735.3245	-0.0113
735.5023	-0.0138
735.68	0.0028
735.8578	0.0049
736.0355	-0.0237
736.2132	-0.0076
736.3909	-0.0023
736.5686	-0.0027
736.7463	0.0008
736.9239	-0.0041
737.1015	0.0035
737.2791	0.0002
737.4567	-0.0006
737.6343	-0.0061
737.8118	-0.0026
737.9894	-0.0014
738.1669	-0.0039
738.3444	-0.0069
738.5218	-0
738.6993	0.0063
738.8767	-0.005
739.0541	0.0069
739.2315	-0.0131
739.4089	0.0014
739.5863	0.0064
739.7636	-0.0072
739.9409	-0.0041
740.1182	-0.0015
740.2955	-0.0019
740.4728	-0.0053
740.65	0.0037
740.8272	-0.0063
741.0044	-0.0068
741.1816	-0.0015
741.3588	0.0004
741.5359	-0.0006
741.7131	-0.0116
741.8902	-0.0065
742.0673	-0.0054
742.2444	-0.0117
742.4214	-0.0095
742.5985	-0.0081
742.7755	-0.0141
742.9525	-0.032
743.1295	-0.0077
743.3064	-0.0055
743.4834	-0.0106
743.6603	-0.0107
743.8372	-0.0121
744.0141	0.0048
744.191	-0.0087
744.3678	-0.0014
744.5446	-0.0012
744.7215	-0.0016
744.8982	-0.0055
745.075	-0.01
745.2518	-0.0016
745.4285	-0.0017
745.6052	-0.0035
745.7819	-0.0016
745.9586	-0.0122
746.1353	-0.0045
746.3119	-0.0114
746.4885	-0.0137
746.6651	-0.0044
746.8417	-0.0032
747.0183	-0.0058
747.1948	0.0045
747.3714	-0.0008
747.5479	0.0036
747.7244	-0.0064
747.9008	0.002
748.0773	-0.0003
748.2537	-0.0071
748.4301	0.0019
748.6065	0.0067
748.7829	-0.0011
748.9593	-0.0035
749.1356	-0.0041
749.3119	0.004
749.4882	-0.0126
749.6645	0.0035
749.8408	-0.0074
750.017	-0.0117
750.1933	-0.008
750.3695	-0.0082
750.5457	-0.0057
750.7218	-0.0138
750.898	0.0029
751.0741	-0.0044
751.2502	0.0003
751.4263	-0.0144
751.6024	-0.0085
751.7784	-0.0076
751.9545	-0.0058
752.1305	-0.0028
752.3065	-0.0092
752.4825	0.0014
752.6584	-0.0077
752.8344	-0.0052
753.0103	-0.0121
753.1862	-0.0137
753.3621	-0.0139
753.5379	-0.0106
753.7138	0.0001
753.8896	0.006
754.0654	0.0058
754.2412	0.0081
754.417	0.003
754.5927	-0.004
754.7685	-0.0083
754.9442	-0.0009
755.1199	0.0097
755.2956	0.0016
755.4712	0.0094
755.6469	0.0062
755.8225	-0.0021
755.9981	0.0008
756.1736	-0.0032
756.3492	0
756.5248	-0.0025
756.7003	0.0006
756.8758	0.0048
757.0513	-0.0141
757.2267	-0.0016
757.4022	0.0034
757.5776	-0.011
757.753	-0.0017
757.9284	-0.006
758.1038	0.0088
758.2791	-0.0002
758.4545	-0.0105
758.6298	-0.0079
758.8051	0.0046
758.9803	-0.006
759.1556	-0.002
759.3308	-0.0063
759.506	-0.0032
759.6812	0.0014
759.8564	0.0086
760.0316	-0.0084
760.2067	0.0077
760.3819	0.004
760.557	0.0099
760.732	0.0052
760.9071	-0.0096
761.0821	0.0037
761.2572	0.0045
761.4322	0.001
761.6072	0.0023
761.7821	0.0031
761.9571	0.0018
762.132	0.0016
762.3069	-0.0018
762.4818	-0.0067
762.6567	-0.0032
762.8316	0.0045
763.0064	-0.0014
763.1812	-0.0061
763.356	-0.0091
763.5308	-0.0051
763.7055	-0.0052
763.8803	-0.0102
764.055	-0.0043
764.2297	-0.0043
764.4044	-0.0126
764.579	-0.0109
764.7537	-0.0206
764.9283	0.0026
765.1029	-0.0146
765.2775	-0.0088
765.4521	-0.0056
765.6266	-0.0104
765.8011	0.0003
765.9756	-0.0015
766.1501	0.0024
766.3246	-0.0053
766.4991	-0.006
766.6735	0.0006
766.8479	-0.0022
767.0223	0.0085
767.1967	-0.0085
767.371	-0.0018
767.5454	-0.0076
767.7197	-0.0031
767.894	-0.0065
768.0683	-0.0055
768.2425	-0.0057
768.4168	-0.002
768.591	-0.004
768.7652	-0.0078
768.9394	0.0035
769.1135	-0.0018
769.2877	0.0003
769.4618	-0.0028
769.6359	0.0004
769.81	-0.0023
769.984	0.003
770.1581	-0.0101
770.3321	0.0029
770.5061	0.0008
770.6801	-0.0037
770.8541	0.0141
771.028	0.0082
771.202	0.0001
771.3759	0.0155
771.5498	-0.0023
771.7236	0.0019
771.8975	0.0038
772.0713	0.0062
772.2451	0.0009
772.4189	0.0089
772.5927	0.0126
772.7665	0.0011
772.9402	0.0153
773.1139	0.0005
773.2876	-0.0083
773.4613	0.0061
773.635	0.0057
773.8086	-0.006
773.9822	0.0063
774.1558	-0.0022
774.3294	-0.011
774.503	-0.003
774.6765	0.0079
774.8501	0.0118
775.0236	-0.0075
775.1971	-0.0025
775.3705	-0.0046
775.544	0.0065
775.7174	-0.0135
775.8908	0.0105
776.0642	-0.0098
776.2376	-0.0105
776.4109	-0.0068
776.5843	-0.013
776.7576	-0.0014
776.9309	0.0066
777.1041	0.0097
777.2774	0.0187
777.4506	-0.0024
777.6238	0.0031
777.797	0.0064
777.9702	-0.0044
778.1434	0.0006
778.3165	-0.0132
778.4896	-0.0119
778.6627	0.0106
778.8358	-0.0003
779.0089	-0.0116
779.1819	-0.0072
779.3549	0.0038
779.5279	0.0033
779.7009	0.0036
779.8739	0.0026
780.0468	0.0067
780.2197	0.0047
780.3926	0.0069
780.5655	-0.0041
780.7384	-0.0061
780.9112	0.006
781.0841	-0.0101
781.2569	-0.0097
781.4297	0.0116
781.6024	0.0034
781.7752	-0.0023
781.9479	0.0104
782.1206	-0.0035
782.2933	-0.0134
782.466	0.0107
782.6386	0.0039
782.8113	0.0003
782.9839	0.0049
783.1565	0.0014
783.329	0.0119
783.5016	0.0042
783.6741	0.0035
783.8466	-0.0049
784.0191	0.0169
784.1916	-0.0001
784.3641	-0.0026
784.5365	-0.004
784.7089	-0.0122
784.8813	-0.0143
785.0537	-0.0024
785.2261	-0.0144
785.3984	-0.0233
785.5707	-0.005
785.743	-0.0081
785.9153	-0.0116
786.0876	0.0017
786.2598	-0.0009
786.432	-0.0078
786.6042	0.01
786.7764	-0.0065
786.9486	0.006
787.1207	-0.0057
787.2928	0.002
787.4649	-0.0085
787.637	0.0075
787.8091	0.0013
787.9811	-0.0079
788.1532	-0.0088
788.3252	0.0013
788.4972	-0.0153
788.6691	0.0025
788.8411	-0.0086
789.013	-0.0098
789.1849	-0.0014
789.3568	-0.001
789.5287	-0.0003
789.7005	-0.0086
789.8723	-0.0066
790.0442	0.0082
790.2159	-0.0055
790.3877	-0.0013
790.5595	-0.0216
790.7312	-0.0045
790.9029	0.0042
791.0746	-0.018
791.2463	-0.0012
791.4179	-0.0125
791.5896	-0.003
791.7612	0.0054
791.9328	0.0085
792.1044	-0.0118
792.2759	-0.023
792.4474	-0.0165
792.619	0.0015
792.7905	0.0046
792.9619	0.0005
793.1334	0.0071
793.3048	0.013
793.4762	-0.0101
793.6476	0.0079
793.819	-0.0101
793.9904	0.0094
794.1617	-0.017
794.333	-0.005
794.5043	-0.0232
794.6756	0.0053
794.8469	0.0081
795.0181	-0.0022
795.1893	-0.0092
795.3605	0.0025
795.5317	-0.0129
795.7029	-0.0073
795.874	0.003
796.0452	-0.0006
796.2163	0.0022
796.3873	0.0201
796.5584	0.0052
796.7294	-0.0093
796.9005	-0.0058
797.0715	-0.0006
797.2425	-0.0228
797.4134	0.0072
797.5844	-0.005
797.7553	-0.0189
797.9262	0.0063
798.0971	-0.0211
798.2679	-0.0066
798.4388	-0.0226
798.6096	-0.0013
798.7804	0.0021
798.9512	0.0046
799.122	-0.0101
799.2927	0.0047
799.4635	0.0072
799.6342	-0.0249
799.8049	-0.0118
799.9755	0.0026
800.1462	-0.0084
800.3168	0.0073
800.4874	0.01
800.658	0.0159
800.8286	0.0202
800.9991	0.0075
801.1696	-0.004
801.3402	0.0024
801.5106	0.0058
801.6811	0.0107
801.8516	0.0219
802.022	0.0073
802.1924	-0.002
802.3628	0.012
802.5332	-0.0181
802.7035	0.0247
802.8739	-0.0027
803.0442	-0.0095
803.2145	0.0053
803.3847	-0.0034
803.555	-0.0063
803.7252	-0.0247
803.8954	-0.0177
804.0656	-0.0273
804.2358	-0.0021
804.4059	0.0105
804.5761	-0.0093
804.7462	0.0123
804.9163	-0.0081
805.0864	-0.0229
805.2564	-0.018
805.4264	-0.0069
805.5965	-0.009
805.7665	0.0029
805.9364	-0.0019
806.1064	0.0186
806.2763	-0.0071
806.4462	0.0039
806.6161	0.0029
806.786	0.0151
806.9559	-0.0144
807.1257	-0.0029
807.2955	-0.0055
807.4653	0.0072
807.6351	-0.0042
807.8048	-0.0126
807.9746	-0.006
808.1443	0.0063
808.314	-0.012
808.4837	-0.0006
808.6533	-0.016
808.8229	0.0104
808.9926	0.0003
809.1622	-0.0099
809.3317	-0.0197
809.5013	-0.0041
809.6708	-0.0055
809.8403	-0.0092
810.0098	-0.0012
810.1793	0.007
810.3488	-0.0019
810.5182	0.007
810.6876	-0.0032
810.857	-0.0099
811.0264	0.0033
811.1958	-0.0091
811.3651	-0.0059
811.5344	-0.0195
811.7037	-0.0116
811.873	-0.0124
812.0422	-0.0098
812.2115	-0.0082
812.3807	-0.0232
812.5499	-0.0132
812.7191	-0.0147
812.8882	-0.0201
813.0574	0.0043
813.2265	0.0034
813.3956	-0.0082
813.5646	-0.0087
813.7337	-0.0259
813.9027	-0.0005
814.0718	0.0185
814.2407	0.0151
814.4097	-0.0104
814.5787	-0.0254
814.7476	0.0004
814.9165	0.0054
815.0854	-0.0084
815.2543	-0.0182
815.4232	0.0083
815.592	0.0318
815.7608	0.0055
815.9296	0.0126
816.0984	0.0027
816.2671	-0.0023
816.4359	0.0114
816.6046	-0.0064
816.7733	-0.0164
816.942	-0.0184
817.1106	0.0031
817.2793	0.0023
817.4479	-0.0226
817.6165	-0.0075
817.785	-0.0154
817.9536	-0.0244
818.1221	-0.0138
818.2906	-0.0113
818.4591	-0.0083
818.6276	-0.0135
818.7961	-0.0042
818.9645	0.0088
819.1329	-0.0065
819.3013	-0.0043
819.4697	0.02
819.638	0.0018
819.8064	-0.0036
819.9747	-0.0129
820.143	-0.0199
820.3113	-0.0085
820.4795	0.0012
820.6477	0.0081
820.816	-0.0037
820.9842	-0.0216
821.1523	-0.0084
821.3205	-0.0052
821.4886	0.0063
821.6567	-0.0066
821.8248	0.0074
821.9929	0.0191
822.1609	0.002
822.329	0.0121
822.497	0.0265
822.665	-0.0184
822.833	-0.0228
823.0009	0.0001
823.1688	0.0104
823.3367	0.0051
823.5046	0.0126
823.6725	0.0278
823.8404	-0.0022
824.0082	0.014
824.176	0.0013
824.3438	0.009
824.5116	-0.0279
824.6793	0.0312
824.847	-0.0197
825.0147	-0.0033
825.1824	0.0114
825.3501	0.0334
825.5177	-0.013
825.6854	-0.013
825.853	-0.0007
826.0206	-0.0278
826.1881	-0.0213
826.3557	-0.0374
826.5232	-0.005
826.6907	-0.0536
826.8582	-0.0145
827.0257	-0.0353
827.1931	0.0056
827.3605	-0.0088
827.528	-0.0131
827.6953	-0.0358
827.8627	0.003
828.03	0.0257
828.1974	-0.02
828.3647	-0.0336
828.532	-0.047
828.6992	-0.0139
828.8665	-0.0093
829.0337	0.0042
829.2009	-0.0008
829.3681	0.0043
829.5352	0.012
829.7024	-0.0309
829.8695	-0.0343
830.0366	0.0301
830.2037	-0.0049
830.3707	0.0173
830.5378	0.0255
830.7048	-0.0293
830.8718	-0.0236
831.0388	0.0054
831.2057	0.0137
831.3727	0.0188
831.5396	-0.0143
831.7065	-0.0106
831.8734	0.0184
832.0402	-0.0396
832.2071	0.0192
832.3739	-0.0238
832.5407	-0.0046
832.7075	-0.0443
832.8742	-0.0289
833.041	-0.0155
833.2077	0.002
833.3744	-0.008
833.541	0.0174
833.7077	0.0273
833.8743	-0.0114
834.0409	-0.0293
834.2075	0.0284
834.3741	-0.0203
834.5407	-0.0275
834.7072	-0.0154
834.8737	-0.0249
835.0402	0.0223
835.2067	0.0213
835.3731	-0.0024
835.5395	0.008
835.706	-0.0273
835.8723	-0.0563
836.0387	0.0002
836.2051	-0.0358
836.3714	-0.0289
836.5377	0.0214
836.704	-0.038
836.8703	-0.0028
837.0365	-0.0315
837.2027	-0.0233
837.3689	0.0119
837.5351	-0.0174
837.7013	-0.0213
837.8674	-0.0684
838.0335	-0.0632
838.1997	-0.0349
838.3657	-0.065
838.5318	-0.0447
838.6978	0.0232
838.8639	0.0154
839.0299	-0.0023
839.1958	-0.0329
839.3618	-0.0445
839.5277	-0.0327
839.6937	-0.003
839.8596	-0.0192
840.0254	-0.003
840.1913	0.0154
840.3571	0.0705
840.523	-0.0341
840.6888	-0.0225
840.8545	-0.0222
841.0203	0.0012
841.186	0.0151
841.3517	0.0057
841.5174	0.0255
841.6831	-0.0181
841.8488	-0.0165
842.0144	-0.0042
842.18	-0.0179
842.3456	0.0022
842.5112	-0.0272
842.6767	-0.0462
842.8422	-0.0028
843.0077	-0.0362
843.1732	-0.0212
843.3387	-0.0086
843.5042	-0.0387
843.6696	-0.054
843.835	-0.0467
844.0004	-0.0035
844.1657	0.0125
844.3311	-0.0474
844.4964	-0.0999
844.6617	-0.039
844.827	-0.0244
844.9923	-0.0493
845.1575	0.0064
845.3227	0.048
845.4879	-0.0162
845.6531	-0.079
845.8183	-0.0482
845.9834	-0.0321
846.1485	-0.024
846.3136	-0.0231
846.4787	-0.0724
846.6438	0.0262
846.8088	-0.0134
846.9738	-0.0944
847.1388	-0.0188
847.3038	-0.0757
847.4687	-0.2104
847.6337	-0.0235
847.7986	-0.0048
847.9635	-0.0509
848.1284	0.02
848.2932	0.0211
848.458	-0.0401
848.6228	0.0412
848.7876	0.0236
848.9524	-0.1384
849.1172	-0.0778
849.2819	0.0539
849.4466	-0.1712
849.6113	-0.0562
849.7759	-0.0073
849.9406	-0.0542
850.1052	0.0323
850.2698	-0.0789
850.4344	-0.0186
850.599	-0.0659
850.7635	0.0158
850.928	-0.0792
851.0925	0.0223
851.257	-0.0219
851.4215	-0.0129
851.5859	-0.0186
851.7503	-0.0071
851.9147	-0.0447
852.0791	-0.0933
852.2434	-0.0529
852.4078	-0.0077
852.5721	0.0556
852.7364	-0.1088
852.9007	-0.17
853.0649	0.0146
853.2291	0.0084
853.3934	-0.0754
853.5575	-0.1101
853.7217	-0.115
853.8859	-0.0807
854.05	-0.1188
854.2141	0.0504
854.3782	-0.084
854.5423	-0.0575
854.7063	0.14
854.8703	0.0295
855.0343	-0.1072
855.1983	-0.1532
855.3623	0.0753
855.5262	-0.0153
855.6901	-0.1049
855.854	0.0285
856.0179	0.1
856.1818	0.0504
856.3456	-0.1447
856.5094	-0.144
856.6732	-0.0756
856.837	-0.0787
857.0008	0.0009
857.1645	-0.0312
857.3282	-0.1178
857.4919	0.0075
857.6556	-0.0668
857.8192	-0.1289
857.9828	0.0396
858.1465	-0.1325
858.31	-0.0616
858.4736	-0.0737
858.6372	0.0102
858.8007	-0.2921
858.9642	0.0299
859.1277	-0.0584
859.2911	0.0157
859.4546	0.1536
859.618	-0.2084
859.7814	-0.0345
859.9448	0.0014
860.1081	-0.114
860.2715	0.1285
860.4348	-0.0239
860.5981	-0.0879
860.7614	0.123
860.9246	-0.1991
861.0879	-0.2905
861.2511	-0.0316
861.4143	-0.434
861.5774	0.0119
861.7406	-0.0876
861.9037	-0.0819
862.0668	-0.1145
862.2299	-0.1062
862.393	-0.5637
862.556	-0.0412
862.7191	-0.3685
862.8821	-0.3172
863.0451	0.201
863.208	0.3116
863.371	-0.1088
863.5339	-0.3039
863.6968	-0.0583
863.8597	-0.0601
864.0225	-0.0793
864.1854	-0.2407
864.3482	0.6122
864.511	0.1586
864.6737	-0.0417
864.8365	0.1131
864.9992	-0.2543
865.1619	-0.445
865.3246	-0.1523
865.4873	0.0324
865.65	-0.182
865.8126	-0.1024
865.9752	0.0922
866.1378	-0.2399
866.3004	0.4206
866.4629	0.1073
866.6254	-0.324
866.7879	-0.0598
866.9504	-0.3073
867.1129	-0
867.2753	0.1138
867.4377	0.1548
867.6001	-0.3356
867.7625	0.0545
867.9249	-0.2592
868.0872	-0.3889
868.2495	-0.0384
868.4118	-0.4737
868.5741	0.0121
868.7363	-0.3047
868.8986	-0.2154
869.0608	-0.2949
869.223	-0.0457
869.3851	-0
869.5473	-0
869.7094	0.2742
869.8715	-0.5946
870.0336	0.1165
870.1957	-0.3514
870.3577	-0
870.5197	-0.0765
870.6817	-0.103
870.8437	-0.0989
871.0057	-0.2413
871.1676	-0.6346
871.3295	-0.1358
871.4914	-0
871.6533	-0.0572
871.8151	-0.506
871.977	-0
872.1388	-0
872.3006	-0
872.4623	0.2875
872.6241	-0.0892
872.7858	0.6135
872.9475	0.0317
873.1092	-0
873.2709	-0
873.4325	-0.0201
873.5941	-0.2708
873.7557	-0
873.9173	-0
874.0789	-0.5939
874.2404	-0
874.4019	0.3052
874.5634	-0.3227
874.7249	-0.1514
874.8863	0.4217
875.0478	0.1807
875.2092	-0
875.3706	0.0341
875.5319	0.2609
875.6933	-0
875.8546	-0.3593
876.0159	-0
876.1772	0.6698
876.3385	-0
876.4997	0.2007
876.6609	-0.2117
876.8221	-0.0847
876.9833	-0
877.1445	-0
877.3056	-0.0486
877.4667	-0.3073
877.6278	-0
877.7889	-0.5268
877.9499	-0
878.111	-0.948
878.272	-0
878.433	0.289
878.5939	-0
878.7549	0.1296
878.9158	-0.1807
879.0767	-0
879.2376	1.5289
879.3984	0.2173
879.5593	-0
879.7201	-0.1478
879.8809	-0.5707
880.0417	-0.1165
880.2024	0.2712
880.3632	-0.983
880.5239	0.2081
880.6846	0.1564
880.8452	-2.6857
881.0059	-1.7528
881.1665	0.3457
881.3271	-0
881.4877	-0.6815
881.6483	-0.3968
881.8088	-0.5058
881.9693	-0
882.1298	-0
882.2903	-0
