Data from MonoPyChalIsomerACN10uM410nmA_Absorbance_14-53-28-973.txt Node
Date: Fri Jul 05 14:53:28 BST 2024
User: LASERRRRR
Spectrometer: FLMT03099
Trigger mode: 0
Integration Time (sec): 1.000000E-1
Scans to average: 1
Electric dark correction enabled: true
Nonlinearity correction enabled: false
Boxcar width: 0
XAxis mode: Wavelengths
Number of Pixels in Spectrum: 3648
>>>>>Begin Spectral Data<<<<<
179.3399	-0.2982
179.5586	-0.2982
179.7771	-0.2982
179.9957	0.3498
180.2143	-0
180.4329	0.1537
180.6514	-0
180.8699	0.3979
181.0885	0.1665
181.307	0.6909
181.5255	-0
181.744	-0
181.9625	-0
182.181	-0
182.3994	-0
182.6179	-0.1494
182.8363	-0
183.0547	-0.1652
183.2732	0.0766
183.4916	0.342
183.71	-0.0019
183.9284	0.164
184.1467	0.0427
184.3651	-0.1181
184.5835	0.4071
184.8018	-0.0757
185.0201	0.0489
185.2385	0.2613
185.4568	0.3146
185.6751	0.5823
185.8934	0.1899
186.1117	0.0709
186.3299	0.1641
186.5482	0.1029
186.7664	-0.1563
186.9847	-0.0885
187.2029	0.0149
187.4211	0.045
187.6393	0.3875
187.8575	0.0536
188.0757	0.1824
188.2939	0.0905
188.512	1.3078
188.7302	-0.137
188.9483	0.088
189.1665	0.0972
189.3846	-0
189.6027	0.222
189.8208	0.1028
190.0389	0.246
190.257	0.3095
190.475	0.2091
190.6931	0.1702
190.9111	0.3093
191.1292	0.2766
191.3472	0.5321
191.5652	0.3779
191.7832	0.1058
192.0012	0.4884
192.2192	0.2179
192.4371	0.5258
192.6551	0.4795
192.873	0.6087
193.091	0.3997
193.3089	0.7807
193.5268	0.5818
193.7447	0.7809
193.9626	0.4664
194.1805	0.5956
194.3984	0.9454
194.6162	0.7066
194.8341	0.688
195.0519	0.6386
195.2697	0.9119
195.4875	0.5469
195.7054	0.5498
195.9231	0.6119
196.1409	0.7306
196.3587	0.7145
196.5765	0.5394
196.7942	0.729
197.012	0.5953
197.2297	0.6374
197.4474	0.7825
197.6651	0.5336
197.8828	0.5603
198.1005	0.7477
198.3182	0.5925
198.5358	0.7345
198.7535	0.6232
198.9711	0.5457
199.1888	0.6333
199.4064	0.9401
199.624	0.7171
199.8416	0.6089
200.0592	0.5095
200.2767	0.7127
200.4943	0.7093
200.7119	0.9301
200.9294	0.6956
201.1469	0.6111
201.3645	0.5727
201.582	0.6496
201.7995	0.5215
202.017	0.7688
202.2344	0.6414
202.4519	0.8482
202.6694	0.6248
202.8868	0.611
203.1042	0.6922
203.3217	0.6844
203.5391	0.6244
203.7565	0.6358
203.9739	0.6048
204.1913	0.5613
204.4086	0.7183
204.626	0.7008
204.8433	0.6726
205.0607	0.6914
205.278	0.6731
205.4953	0.6325
205.7126	0.7404
205.9299	0.7995
206.1472	0.6554
206.3644	0.5728
206.5817	0.6831
206.7989	0.6883
207.0162	0.7099
207.2334	0.6774
207.4506	0.66
207.6678	0.6023
207.885	0.6727
208.1022	0.6743
208.3194	0.6414
208.5365	0.6766
208.7537	0.6224
208.9708	0.6036
209.1879	0.649
209.405	0.6141
209.6222	0.6872
209.8392	0.6061
210.0563	0.6222
210.2734	0.5729
210.4905	0.5858
210.7075	0.6228
210.9245	0.6261
211.1416	0.6979
211.3586	0.6274
211.5756	0.56
211.7926	0.5715
212.0096	0.5611
212.2265	0.5896
212.4435	0.5975
212.6604	0.6071
212.8774	0.5811
213.0943	0.5717
213.3112	0.4924
213.5281	0.5371
213.745	0.5205
213.9619	0.5585
214.1788	0.4742
214.3956	0.4715
214.6125	0.4622
214.8293	0.4692
215.0461	0.4746
215.2629	0.4762
215.4798	0.431
215.6965	0.4409
215.9133	0.4295
216.1301	0.4199
216.3469	0.4266
216.5636	0.4158
216.7803	0.4024
216.9971	0.3782
217.2138	0.3677
217.4305	0.377
217.6472	0.3594
217.8639	0.3783
218.0805	0.3377
218.2972	0.3114
218.5138	0.3152
218.7305	0.3267
218.9471	0.278
219.1637	0.2969
219.3803	0.2985
219.5969	0.2825
219.8135	0.2449
220.0301	0.2703
220.2466	0.2728
220.4632	0.2732
220.6797	0.2473
220.8962	0.223
221.1127	0.2374
221.3292	0.236
221.5457	0.2327
221.7622	0.2268
221.9787	0.2314
222.1951	0.2265
222.4116	0.256
222.628	0.2297
222.8444	0.2735
223.0608	0.2472
223.2772	0.2523
223.4936	0.2728
223.71	0.2418
223.9264	0.2526
224.1427	0.2525
224.3591	0.239
224.5754	0.2481
224.7917	0.2649
225.008	0.2626
225.2243	0.2574
225.4406	0.2711
225.6569	0.2646
225.8732	0.2606
226.0894	0.2449
226.3057	0.2711
226.5219	0.2757
226.7381	0.2696
226.9543	0.2679
227.1705	0.2814
227.3867	0.268
227.6029	0.2598
227.8191	0.2818
228.0352	0.2983
228.2513	0.3083
228.4675	0.2821
228.6836	0.298
228.8997	0.2857
229.1158	0.2947
229.3319	0.2953
229.548	0.3046
229.764	0.3352
229.9801	0.3226
230.1961	0.3214
230.4121	0.3323
230.6282	0.3236
230.8442	0.3319
231.0602	0.3526
231.2761	0.3507
231.4921	0.3411
231.7081	0.3455
231.924	0.3352
232.14	0.3416
232.3559	0.3372
232.5718	0.3498
232.7877	0.3481
233.0036	0.3396
233.2195	0.345
233.4353	0.3521
233.6512	0.354
233.867	0.3523
234.0829	0.3595
234.2987	0.3616
234.5145	0.3725
234.7303	0.3604
234.9461	0.3779
235.1619	0.3614
235.3776	0.363
235.5934	0.3748
235.8091	0.3625
236.0249	0.3593
236.2406	0.3812
236.4563	0.3765
236.672	0.3899
236.8877	0.3961
237.1034	0.3968
237.319	0.375
237.5347	0.385
237.7503	0.3796
237.966	0.4068
238.1816	0.3987
238.3972	0.3815
238.6128	0.3768
238.8284	0.3964
239.0439	0.4047
239.2595	0.3934
239.475	0.4137
239.6906	0.4093
239.9061	0.3867
240.1216	0.3971
240.3371	0.4039
240.5526	0.3928
240.7681	0.4054
240.9836	0.3962
241.199	0.4073
241.4145	0.3808
241.6299	0.3807
241.8453	0.3785
242.0607	0.4121
242.2761	0.372
242.4915	0.3576
242.7069	0.3836
242.9223	0.3627
243.1376	0.3475
243.353	0.3659
243.5683	0.3585
243.7836	0.3451
243.9989	0.341
244.2142	0.3116
244.4295	0.3458
244.6448	0.3141
244.86	0.3116
245.0753	0.3027
245.2905	0.305
245.5057	0.2882
245.721	0.2911
245.9362	0.2603
246.1514	0.2957
246.3665	0.2648
246.5817	0.2677
246.7969	0.2503
247.012	0.2463
247.2271	0.2412
247.4423	0.2451
247.6574	0.259
247.8725	0.2413
248.0876	0.2258
248.3026	0.2453
248.5177	0.2298
248.7328	0.2198
248.9478	0.2225
249.1628	0.2256
249.3779	0.2331
249.5929	0.201
249.8079	0.2204
250.0228	0.2026
250.2378	0.2053
250.4528	0.209
250.6677	0.1927
250.8827	0.2026
251.0976	0.1929
251.3125	0.1918
251.5274	0.18
251.7423	0.1933
251.9572	0.1893
252.172	0.1782
252.3869	0.176
252.6017	0.1806
252.8166	0.1708
253.0314	0.1855
253.2462	0.1717
253.461	0.1686
253.6758	0.1759
253.8906	0.182
254.1053	0.1696
254.3201	0.1804
254.5348	0.1884
254.7496	0.1878
254.9643	0.1677
255.179	0.165
255.3937	0.1607
255.6083	0.1652
255.823	0.1663
256.0377	0.1555
256.2523	0.1844
256.467	0.1545
256.6816	0.1839
256.8962	0.1629
257.1108	0.1634
257.3254	0.1705
257.54	0.1603
257.7545	0.1606
257.9691	0.1749
258.1836	0.1688
258.3981	0.1744
258.6127	0.1676
258.8272	0.1665
259.0417	0.1546
259.2561	0.1677
259.4706	0.1627
259.6851	0.1606
259.8995	0.1674
260.114	0.1769
260.3284	0.1595
260.5428	0.1622
260.7572	0.1759
260.9716	0.1723
261.186	0.1568
261.4003	0.1691
261.6147	0.1709
261.829	0.1652
262.0433	0.1676
262.2577	0.1542
262.472	0.1668
262.6863	0.1591
262.9005	0.1583
263.1148	0.169
263.3291	0.1414
263.5433	0.1616
263.7576	0.1659
263.9718	0.1571
264.186	0.1582
264.4002	0.1741
264.6144	0.1613
264.8286	0.172
265.0427	0.1606
265.2569	0.1553
265.471	0.1636
265.6851	0.1538
265.8993	0.1512
266.1134	0.1573
266.3275	0.1568
266.5415	0.1619
266.7556	0.1762
266.9697	0.1588
267.1837	0.1683
267.3978	0.1778
267.6118	0.1782
267.8258	0.1658
268.0398	0.1557
268.2538	0.1803
268.4677	0.1674
268.6817	0.1654
268.8957	0.1718
269.1096	0.1617
269.3235	0.1709
269.5374	0.1584
269.7514	0.158
269.9652	0.1453
270.1791	0.1529
270.393	0.155
270.6068	0.1618
270.8207	0.1607
271.0345	0.1593
271.2483	0.1435
271.4622	0.1517
271.676	0.1622
271.8897	0.1544
272.1035	0.1589
272.3173	0.1503
272.531	0.1542
272.7448	0.1424
272.9585	0.1502
273.1722	0.1484
273.3859	0.1619
273.5996	0.1447
273.8133	0.1538
274.0269	0.1578
274.2406	0.147
274.4542	0.1653
274.6679	0.154
274.8815	0.1573
275.0951	0.1708
275.3087	0.1632
275.5223	0.1651
275.7358	0.1526
275.9494	0.1684
276.1629	0.1464
276.3765	0.1512
276.59	0.159
276.8035	0.1499
277.017	0.1671
277.2305	0.1493
277.444	0.1652
277.6574	0.15
277.8709	0.1608
278.0843	0.1556
278.2978	0.1643
278.5112	0.1517
278.7246	0.1533
278.938	0.1642
279.1513	0.1693
279.3647	0.1641
279.5781	0.1546
279.7914	0.1604
280.0047	0.174
280.2181	0.1623
280.4314	0.1638
280.6447	0.1642
280.8579	0.1511
281.0712	0.1613
281.2845	0.1675
281.4977	0.1633
281.711	0.1511
281.9242	0.1658
282.1374	0.1576
282.3506	0.1683
282.5638	0.1731
282.7769	0.1619
282.9901	0.1578
283.2033	0.1701
283.4164	0.1741
283.6295	0.1548
283.8426	0.1595
284.0557	0.1527
284.2688	0.1633
284.4819	0.174
284.695	0.1623
284.908	0.1556
285.1211	0.1616
285.3341	0.1671
285.5471	0.1693
285.7601	0.1573
285.9731	0.1506
286.1861	0.1454
286.3991	0.1766
286.612	0.1707
286.825	0.1554
287.0379	0.1628
287.2508	0.1534
287.4637	0.1659
287.6766	0.1539
287.8895	0.171
288.1024	0.1821
288.3152	0.1676
288.5281	0.1476
288.7409	0.1541
288.9538	0.1523
289.1666	0.1567
289.3794	0.1517
289.5922	0.1588
289.8049	0.1541
290.0177	0.1487
290.2304	0.1625
290.4432	0.1581
290.6559	0.1578
290.8686	0.1636
291.0813	0.1482
291.294	0.1634
291.5067	0.1618
291.7194	0.1585
291.932	0.167
292.1447	0.1484
292.3573	0.1463
292.5699	0.1582
292.7825	0.1571
292.9951	0.1547
293.2077	0.1547
293.4203	0.1441
293.6328	0.1482
293.8454	0.1678
294.0579	0.1675
294.2704	0.1588
294.4829	0.1337
294.6954	0.1592
294.9079	0.153
295.1204	0.1501
295.3328	0.1523
295.5453	0.1479
295.7577	0.1437
295.9701	0.1568
296.1825	0.1642
296.3949	0.1535
296.6073	0.1463
296.8197	0.1372
297.0321	0.1628
297.2444	0.1413
297.4567	0.1484
297.6691	0.1513
297.8814	0.1503
298.0937	0.1564
298.306	0.1573
298.5182	0.1482
298.7305	0.1671
298.9428	0.1477
299.155	0.1582
299.3672	0.1529
299.5794	0.143
299.7916	0.1481
300.0038	0.1555
300.216	0.1495
300.4282	0.156
300.6403	0.146
300.8525	0.158
301.0646	0.1471
301.2767	0.1519
301.4888	0.1441
301.7009	0.1517
301.913	0.1546
302.125	0.159
302.3371	0.1402
302.5491	0.146
302.7612	0.1527
302.9732	0.1501
303.1852	0.1371
303.3972	0.1528
303.6092	0.1549
303.8211	0.1356
304.0331	0.1402
304.245	0.1366
304.457	0.1425
304.6689	0.1546
304.8808	0.1579
305.0927	0.1363
305.3046	0.1465
305.5164	0.1488
305.7283	0.1318
305.9401	0.1366
306.152	0.1384
306.3638	0.1425
306.5756	0.133
306.7874	0.1473
306.9992	0.1396
307.2109	0.139
307.4227	0.1304
307.6344	0.121
307.8462	0.1311
308.0579	0.1366
308.2696	0.1333
308.4813	0.1209
308.693	0.1279
308.9046	0.1413
309.1163	0.1266
309.328	0.116
309.5396	0.1206
309.7512	0.1195
309.9628	0.1212
310.1744	0.1218
310.386	0.112
310.5976	0.1148
310.8091	0.1177
311.0207	0.1088
311.2322	0.1176
311.4437	0.1106
311.6552	0.1153
311.8667	0.1162
312.0782	0.1018
312.2897	0.1151
312.5012	0.1117
312.7126	0.1106
312.924	0.1064
313.1355	0.1163
313.3469	0.1089
313.5583	0.1076
313.7696	0.1174
313.981	0.1165
314.1924	0.1028
314.4037	0.1122
314.6151	0.1104
314.8264	0.1066
315.0377	0.1041
315.249	0.1072
315.4603	0.1094
315.6716	0.1048
315.8828	0.1001
316.0941	0.1128
316.3053	0.1023
316.5165	0.1084
316.7277	0.0992
316.9389	0.1116
317.1501	0.0977
317.3613	0.1087
317.5724	0.0851
317.7836	0.1085
317.9947	0.1009
318.2058	0.1056
318.417	0.1011
318.6281	0.1081
318.8391	0.0973
319.0502	0.0946
319.2613	0.1134
319.4723	0.1102
319.6834	0.0982
319.8944	0.0983
320.1054	0.1065
320.3164	0.1026
320.5274	0.0983
320.7383	0.1126
320.9493	0.1078
321.1602	0.1158
321.3712	0.0938
321.5821	0.1106
321.793	0.1132
322.0039	0.1016
322.2148	0.1086
322.4257	0.1117
322.6365	0.1131
322.8474	0.1131
323.0582	0.1064
323.269	0.1141
323.4798	0.1183
323.6906	0.1107
323.9014	0.1097
324.1122	0.1151
324.3229	0.1064
324.5337	0.1035
324.7444	0.0985
324.9551	0.1297
325.1658	0.1085
325.3765	0.1151
325.5872	0.1074
325.7979	0.1046
326.0085	0.1134
326.2192	0.121
326.4298	0.1163
326.6404	0.1029
326.851	0.1087
327.0616	0.1038
327.2722	0.1054
327.4828	0.1204
327.6933	0.1174
327.9039	0.117
328.1144	0.1251
328.3249	0.1215
328.5354	0.1023
328.7459	0.1155
328.9564	0.1003
329.1669	0.1075
329.3773	0.1117
329.5878	0.1133
329.7982	0.1108
330.0086	0.1169
330.219	0.1166
330.4294	0.1132
330.6398	0.1154
330.8502	0.1003
331.0605	0.1205
331.2708	0.117
331.4812	0.1239
331.6915	0.1226
331.9018	0.1068
332.1121	0.1078
332.3224	0.115
332.5326	0.1076
332.7429	0.1194
332.9531	0.1279
333.1633	0.1179
333.3735	0.1121
333.5837	0.1169
333.7939	0.1188
334.0041	0.126
334.2143	0.1257
334.4244	0.1098
334.6346	0.1103
334.8447	0.129
335.0548	0.1136
335.2649	0.1069
335.475	0.1312
335.685	0.108
335.8951	0.1138
336.1051	0.114
336.3152	0.1263
336.5252	0.1123
336.7352	0.1277
336.9452	0.121
337.1552	0.1235
337.3652	0.1196
337.5751	0.1192
337.7851	0.1321
337.995	0.1145
338.2049	0.1378
338.4148	0.1147
338.6247	0.124
338.8346	0.1163
339.0445	0.1131
339.2543	0.1134
339.4642	0.1367
339.674	0.1085
339.8838	0.1257
340.0936	0.1358
340.3034	0.1364
340.5132	0.133
340.7229	0.1351
340.9327	0.1248
341.1424	0.1276
341.3522	0.1433
341.5619	0.1455
341.7716	0.1263
341.9813	0.1362
342.1909	0.1365
342.4006	0.1322
342.6102	0.1371
342.8199	0.1325
343.0295	0.1336
343.2391	0.1278
343.4487	0.1392
343.6583	0.1182
343.8679	0.1358
344.0774	0.1489
344.287	0.1489
344.4965	0.1309
344.706	0.1365
344.9155	0.1432
345.125	0.1239
345.3345	0.1299
345.544	0.1317
345.7534	0.1338
345.9629	0.1302
346.1723	0.1444
346.3817	0.1333
346.5911	0.126
346.8005	0.1467
347.0099	0.1268
347.2193	0.14
347.4286	0.1307
347.638	0.1369
347.8473	0.1426
348.0566	0.1346
348.2659	0.1422
348.4752	0.1357
348.6845	0.1363
348.8937	0.1231
349.103	0.1603
349.3122	0.1345
349.5214	0.141
349.7306	0.1458
349.9398	0.1348
350.149	0.1517
350.3582	0.1408
350.5674	0.1586
350.7765	0.1476
350.9856	0.1313
351.1948	0.1446
351.4039	0.129
351.613	0.1286
351.822	0.1403
352.0311	0.1498
352.2402	0.1493
352.4492	0.1513
352.6582	0.1516
352.8672	0.1403
353.0762	0.1472
353.2852	0.1487
353.4942	0.1468
353.7032	0.1481
353.9121	0.1532
354.1211	0.1445
354.33	0.1512
354.5389	0.1479
354.7478	0.1498
354.9567	0.1602
355.1655	0.1373
355.3744	0.1555
355.5833	0.1629
355.7921	0.1776
356.0009	0.1602
356.2097	0.171
356.4185	0.1718
356.6273	0.1646
356.8361	0.1565
357.0448	0.1477
357.2536	0.1459
357.4623	0.1471
357.671	0.1793
357.8797	0.1444
358.0884	0.1735
358.2971	0.1657
358.5057	0.1691
358.7144	0.1688
358.923	0.1711
359.1316	0.1616
359.3402	0.1671
359.5488	0.1732
359.7574	0.1694
359.966	0.185
360.1746	0.1687
360.3831	0.1618
360.5916	0.164
360.8002	0.1516
361.0087	0.1796
361.2172	0.1731
361.4256	0.1871
361.6341	0.1854
361.8426	0.1763
362.051	0.1688
362.2594	0.1637
362.4678	0.1783
362.6762	0.1841
362.8846	0.1784
363.093	0.1745
363.3014	0.1834
363.5097	0.1607
363.718	0.1863
363.9264	0.182
364.1347	0.1733
364.343	0.1849
364.5513	0.184
364.7595	0.2052
364.9678	0.187
365.176	0.1941
365.3842	0.1835
365.5925	0.1853
365.8007	0.1819
366.0089	0.186
366.217	0.189
366.4252	0.1948
366.6333	0.19
366.8415	0.1883
367.0496	0.193
367.2577	0.1905
367.4658	0.2035
367.6739	0.1915
367.882	0.1968
368.09	0.1878
368.2981	0.1932
368.5061	0.1944
368.7141	0.1888
368.9221	0.2
369.1301	0.2026
369.3381	0.1765
369.5461	0.2038
369.754	0.2009
369.962	0.213
370.1699	0.2057
370.3778	0.2097
370.5857	0.1896
370.7936	0.2052
371.0015	0.2013
371.2093	0.1899
371.4172	0.2069
371.625	0.2037
371.8328	0.204
372.0406	0.1988
372.2484	0.216
372.4562	0.194
372.664	0.2072
372.8717	0.2064
373.0795	0.1882
373.2872	0.2022
373.4949	0.2064
373.7026	0.2104
373.9103	0.2191
374.118	0.2278
374.3256	0.2144
374.5333	0.1937
374.7409	0.2062
374.9485	0.2271
375.1561	0.2219
375.3637	0.2168
375.5713	0.2137
375.7789	0.195
375.9864	0.2083
376.194	0.2154
376.4015	0.2138
376.609	0.2268
376.8165	0.2268
377.024	0.2064
377.2315	0.2
377.4389	0.2307
377.6464	0.2183
377.8538	0.204
378.0612	0.2117
378.2686	0.2194
378.476	0.2269
378.6834	0.2116
378.8908	0.2127
379.0981	0.2184
379.3055	0.2149
379.5128	0.2154
379.7201	0.2082
379.9274	0.2034
380.1347	0.2296
380.342	0.2403
380.5492	0.2128
380.7565	0.2099
380.9637	0.2082
381.1709	0.192
381.3781	0.2343
381.5853	0.232
381.7925	0.2125
381.9997	0.2296
382.2068	0.2326
382.4139	0.2095
382.6211	0.2053
382.8282	0.2251
383.0353	0.2205
383.2424	0.2223
383.4494	0.2354
383.6565	0.2286
383.8635	0.2289
384.0706	0.2276
384.2776	0.2439
384.4846	0.2126
384.6916	0.2219
384.8986	0.2228
385.1055	0.2173
385.3125	0.2294
385.5194	0.2141
385.7263	0.2085
385.9333	0.2353
386.1402	0.2363
386.347	0.2221
386.5539	0.2258
386.7608	0.2352
386.9676	0.2161
387.1744	0.2206
387.3813	0.216
387.5881	0.2189
387.7948	0.2272
388.0016	0.2127
388.2084	0.2137
388.4151	0.2086
388.6219	0.2156
388.8286	0.2184
389.0353	0.2262
389.242	0.2217
389.4487	0.1994
389.6553	0.2023
389.862	0.1924
390.0686	0.2158
390.2753	0.2213
390.4819	0.2135
390.6885	0.214
390.8951	0.2153
391.1016	0.2009
391.3082	0.2001
391.5147	0.1988
391.7213	0.2021
391.9278	0.1865
392.1343	0.2239
392.3408	0.2014
392.5473	0.2033
392.7537	0.191
392.9602	0.198
393.1666	0.1935
393.373	0.2094
393.5794	0.1996
393.7858	0.2014
393.9922	0.1756
394.1986	0.2073
394.4049	0.1903
394.6113	0.1789
394.8176	0.1815
395.0239	0.1822
395.2302	0.176
395.4365	0.2021
395.6428	0.1918
395.8491	0.1775
396.0553	0.1947
396.2615	0.1848
396.4678	0.1823
396.674	0.1825
396.8802	0.1741
397.0863	0.1873
397.2925	0.1886
397.4987	0.1825
397.7048	0.1838
397.9109	0.1764
398.117	0.1744
398.3231	0.1873
398.5292	0.1762
398.7353	0.1852
398.9413	0.178
399.1474	0.1817
399.3534	0.185
399.5594	0.1729
399.7654	0.1881
399.9714	0.2008
400.1774	0.1752
400.3833	0.1736
400.5893	0.1747
400.7952	0.1795
401.0011	0.1839
401.207	0.1755
401.4129	0.1968
401.6188	0.1814
401.8247	0.1849
402.0305	0.1676
402.2364	0.1674
402.4422	0.1814
402.648	0.1773
402.8538	0.1931
403.0596	0.1599
403.2654	0.17
403.4711	0.185
403.6768	0.1816
403.8826	0.1851
404.0883	0.1855
404.294	0.1985
404.4997	0.1858
404.7054	0.1829
404.911	0.1724
405.1167	0.1792
405.3223	0.1947
405.5279	0.1729
405.7335	0.1817
405.9391	0.1921
406.1447	0.1662
406.3502	0.1981
406.5558	0.17
406.7613	0.1795
406.9668	0.1802
407.1724	0.1779
407.3778	0.164
407.5833	0.1824
407.7888	0.188
407.9942	0.2019
408.1997	0.172
408.4051	0.1669
408.6105	0.2046
408.8159	0.1676
409.0213	0.1704
409.2267	0.1862
409.432	0.1729
409.6374	0.1925
409.8427	0.1714
410.048	0.182
410.2533	0.1664
410.4586	0.1692
410.6639	0.1607
410.8691	0.1702
411.0744	0.1653
411.2796	0.1654
411.4848	0.1848
411.69	0.1578
411.8952	0.1918
412.1004	0.1629
412.3056	0.1714
412.5107	0.1616
412.7158	0.1827
412.921	0.1811
413.1261	0.1867
413.3312	0.1597
413.5362	0.1562
413.7413	0.1597
413.9464	0.1655
414.1514	0.1645
414.3564	0.1811
414.5614	0.1693
414.7664	0.1596
414.9714	0.1716
415.1764	0.1774
415.3813	0.1645
415.5863	0.1759
415.7912	0.1802
415.9961	0.1663
416.201	0.18
416.4059	0.1697
416.6108	0.1473
416.8156	0.1792
417.0205	0.1585
417.2253	0.1589
417.4301	0.1973
417.6349	0.1612
417.8397	0.1573
418.0445	0.172
418.2492	0.1818
418.454	0.1606
418.6587	0.1703
418.8634	0.1796
419.0681	0.1601
419.2728	0.1566
419.4775	0.1695
419.6822	0.1458
419.8868	0.1422
420.0915	0.1684
420.2961	0.1493
420.5007	0.1525
420.7053	0.1685
420.9099	0.1557
421.1144	0.1597
421.319	0.1498
421.5235	0.1591
421.728	0.16
421.9325	0.1501
422.137	0.15
422.3415	0.1549
422.546	0.1633
422.7504	0.1575
422.9549	0.1556
423.1593	0.1577
423.3637	0.1492
423.5681	0.1459
423.7725	0.1327
423.9769	0.149
424.1812	0.1362
424.3856	0.1348
424.5899	0.1495
424.7942	0.1351
424.9985	0.1591
425.2028	0.1435
425.4071	0.155
425.6113	0.1337
425.8156	0.1466
426.0198	0.1315
426.224	0.1376
426.4282	0.1396
426.6324	0.1464
426.8366	0.1301
427.0407	0.1272
427.2449	0.1352
427.449	0.1283
427.6531	0.12
427.8572	0.1232
428.0613	0.1405
428.2654	0.1437
428.4694	0.1359
428.6735	0.1319
428.8775	0.1454
429.0815	0.1304
429.2855	0.1078
429.4895	0.1332
429.6935	0.1255
429.8975	0.1111
430.1014	0.1186
430.3053	0.1107
430.5093	0.1246
430.7132	0.1125
430.9171	0.1163
431.1209	0.1136
431.3248	0.1096
431.5286	0.1104
431.7325	0.1197
431.9363	0.0983
432.1401	0.1284
432.3439	0.1067
432.5477	0.0883
432.7514	0.0969
432.9552	0.1023
433.1589	0.0949
433.3627	0.0897
433.5664	0.0859
433.7701	0.0983
433.9737	0.0837
434.1774	0.0902
434.3811	0.0947
434.5847	0.1025
434.7883	0.0971
434.9919	0.0932
435.1955	0.0906
435.3991	0.0898
435.6027	0.095
435.8062	0.0904
436.0098	0.0829
436.2133	0.0801
436.4168	0.0824
436.6203	0.0798
436.8238	0.103
437.0272	0.0763
437.2307	0.0899
437.4341	0.077
437.6375	0.0834
437.841	0.0686
438.0443	0.0965
438.2477	0.0749
438.4511	0.0674
438.6545	0.0723
438.8578	0.0705
439.0611	0.0731
439.2644	0.0706
439.4677	0.0676
439.671	0.0623
439.8743	0.0737
440.0775	0.069
440.2808	0.0603
440.484	0.0546
440.6872	0.0509
440.8904	0.0504
441.0936	0.066
441.2967	0.057
441.4999	0.0669
441.703	0.0498
441.9062	0.0581
442.1093	0.0628
442.3124	0.069
442.5155	0.045
442.7185	0.0523
442.9216	0.0349
443.1246	0.0733
443.3276	0.0334
443.5307	0.0437
443.7337	0.0472
443.9366	0.0509
444.1396	0.0476
444.3426	0.0356
444.5455	0.0579
444.7484	0.0441
444.9513	0.0398
445.1542	0.048
445.3571	0.0363
445.56	0.0474
445.7628	0.0177
445.9657	0.0266
446.1685	0.0545
446.3713	0.0352
446.5741	0.031
446.7769	0.0396
446.9797	0.0421
447.1824	0.0367
447.3852	0.0288
447.5879	0.0394
447.7906	0.0411
447.9933	0.0375
448.196	0.0232
448.3986	0.0403
448.6013	0.0208
448.8039	0.0131
449.0066	0.0075
449.2092	0.0345
449.4118	0.0279
449.6143	0.0383
449.8169	0.0423
450.0195	0.0139
450.222	0.0026
450.4245	0.0208
450.627	0.0397
450.8295	0.0199
451.032	0.0262
451.2345	0.0297
451.4369	0.0274
451.6394	0.0207
451.8418	-0.0029
452.0442	0.0238
452.2466	0.0272
452.449	0.0017
452.6513	0.023
452.8537	0.0145
453.056	0.0026
453.2583	0.0214
453.4607	0.0138
453.663	0.0116
453.8652	0.0112
454.0675	0.0022
454.2697	0.0073
454.472	-0.0062
454.6742	0.0154
454.8764	0.0028
455.0786	0.0171
455.2808	0.0125
455.4829	0.0196
455.6851	0.0193
455.8872	0.0192
456.0893	0.0318
456.2915	0.0099
456.4935	0.018
456.6956	0.0006
456.8977	0.0155
457.0997	0.0042
457.3018	-0.0008
457.5038	0.003
457.7058	0.0043
457.9078	0.0099
458.1098	-0.0006
458.3117	0.0032
458.5137	0.0097
458.7156	0.0182
458.9175	-0.0043
459.1194	0.0033
459.3213	-0.0016
459.5232	0.0035
459.725	-0.0024
459.9269	-0.0042
460.1287	0.01
460.3305	0.0012
460.5323	0.0004
460.7341	-0.0043
460.9359	-0.0045
461.1376	0.0111
461.3394	0.0138
461.5411	0.0081
461.7428	-0.0062
461.9445	0.0118
462.1462	0.0166
462.3479	-0.0078
462.5495	-0.0025
462.7512	-0.0112
462.9528	0.0038
463.1544	-0.0123
463.356	-0.0035
463.5576	0.0046
463.7592	0.0013
463.9607	0.0045
464.1623	0.0105
464.3638	0.0068
464.5653	-0.0113
464.7668	-0.0041
464.9683	0.0017
465.1697	0.0118
465.3712	0.0044
465.5726	-0.0056
465.7741	-0.002
465.9755	-0.003
466.1769	-0.0081
466.3782	0.0012
466.5796	-0.0075
466.7809	0.0125
466.9823	-0.0131
467.1836	-0.0131
467.3849	-0.0061
467.5862	0.0097
467.7875	-0.0204
467.9887	0.0068
468.19	-0.0179
468.3912	-0.0071
468.5924	-0.0035
468.7936	-0.0108
468.9948	-0.0103
469.196	-0.0068
469.3972	-0.0041
469.5983	-0.0085
469.7994	-0.008
470.0006	-0.0142
470.2017	-0.013
470.4027	-0.0009
470.6038	-0.0009
470.8049	-0.012
471.0059	-0.0142
471.2069	-0.0122
471.408	0.0045
471.6089	-0.004
471.8099	0.0022
472.0109	0.0007
472.2119	-0.0167
472.4128	-0.0102
472.6137	-0.002
472.8146	-0.0156
473.0155	-0.0078
473.2164	0.0038
473.4173	0.0035
473.6181	-0.0009
473.819	-0.0067
474.0198	-0.015
474.2206	0.0011
474.4214	-0.0094
474.6222	-0.0151
474.8229	-0.0111
475.0237	-0.0219
475.2244	-0.0099
475.4251	-0.0051
475.6258	-0.0005
475.8265	-0.0077
476.0272	0.0017
476.2278	-0.0001
476.4285	0.0034
476.6291	-0.009
476.8297	-0.0059
477.0303	-0.0146
477.2309	-0.0009
477.4315	-0.0149
477.632	-0.014
477.8326	-0.0166
478.0331	-0.0044
478.2336	-0.0007
478.4341	-0.0021
478.6346	-0.0142
478.8351	-0.0018
479.0355	-0.0119
479.236	-0.0172
479.4364	-0.0002
479.6368	-0.0017
479.8372	-0.0084
480.0376	-0.0045
480.2379	-0.0253
480.4383	-0.0129
480.6386	-0.0012
480.8389	-0.0065
481.0392	-0.005
481.2395	-0.0103
481.4398	0.0002
481.6401	-0.0101
481.8403	-0.0138
482.0405	-0.0191
482.2408	-0.0058
482.441	0.0044
482.6411	-0.0017
482.8413	-0.009
483.0415	-0.0112
483.2416	-0.0152
483.4417	-0.001
483.6419	-0.0085
483.8419	-0.0026
484.042	-0.0005
484.2421	-0.0086
484.4422	0.0018
484.6422	-0.0087
484.8422	-0.0109
485.0422	-0.0205
485.2422	-0.006
485.4422	-0.02
485.6422	-0.0145
485.8421	-0.005
486.042	-0.0032
486.242	-0.0053
486.4419	-0.0102
486.6417	-0.0149
486.8416	-0.0069
487.0415	-0.0072
487.2413	-0.0225
487.4411	-0.0151
487.641	-0.0133
487.8408	-0.0137
488.0405	-0.0205
488.2403	-0.0113
488.4401	-0.003
488.6398	-0.0047
488.8395	-0.0119
489.0392	-0.0054
489.2389	-0.0062
489.4386	0.0004
489.6383	-0.0161
489.8379	-0.0009
490.0376	-0.0077
490.2372	-0.0162
490.4368	-0.0134
490.6364	-0.0072
490.836	-0.0163
491.0355	-0.0138
491.2351	-0.0145
491.4346	-0.0075
491.6341	-0.0181
491.8336	-0.0035
492.0331	-0.0266
492.2326	-0.0232
492.432	-0.0008
492.6315	-0.0115
492.8309	-0.0225
493.0303	-0.0198
493.2297	-0.0093
493.4291	-0.01
493.6284	-0.0057
493.8278	-0.0041
494.0271	-0.0034
494.2264	-0.0006
494.4257	-0.0183
494.625	-0.0037
494.8243	-0.0303
495.0236	-0.0136
495.2228	-0.0148
495.422	-0.0104
495.6213	-0.02
495.8205	-0.0104
496.0196	-0.0188
496.2188	-0.0042
496.418	-0.0169
496.6171	-0.0149
496.8162	-0.0115
497.0153	-0.0075
497.2144	-0.0033
497.4135	-0.0079
497.6126	-0.0175
497.8116	-0.0071
498.0107	-0.0019
498.2097	-0.0252
498.4087	-0.0157
498.6077	-0.01
498.8067	-0.012
499.0056	-0.0071
499.2046	-0.0103
499.4035	-0.018
499.6024	-0.0094
499.8013	-0.0025
500.0002	-0.0098
500.199	-0.0138
500.3979	-0.0112
500.5967	-0.0213
500.7956	-0.0049
500.9944	-0.0129
501.1932	-0.0116
501.3919	-0.0211
501.5907	-0.0136
501.7895	-0.0036
501.9882	-0.0172
502.1869	-0.0191
502.3856	-0.0153
502.5843	-0.015
502.783	-0.0009
502.9816	-0.0037
503.1803	-0.0208
503.3789	-0.0167
503.5775	-0.004
503.7761	-0.0213
503.9747	-0.013
504.1732	-0.0044
504.3718	-0.0074
504.5703	-0.0101
504.7689	-0.021
504.9674	-0.0088
505.1658	-0.0089
505.3643	-0.0053
505.5628	-0.0124
505.7612	-0.0106
505.9597	-0
506.1581	-0.008
506.3565	0.0023
506.5549	-0.0179
506.7532	-0.022
506.9516	-0.0025
507.1499	-0.0099
507.3482	-0.0149
507.5465	-0.0192
507.7448	-0.0061
507.9431	-0.012
508.1414	-0.0074
508.3396	-0.0101
508.5379	-0.0166
508.7361	-0.0111
508.9343	-0.0053
509.1325	-0.0088
509.3306	-0.015
509.5288	-0.0107
509.7269	-0.0139
509.9251	-0.0088
510.1232	-0.0226
510.3213	-0.0061
510.5193	-0.0074
510.7174	-0.0161
510.9154	-0.0131
511.1135	-0.0132
511.3115	-0.006
511.5095	-0.0181
511.7075	-0.0108
511.9055	-0.0119
512.1034	-0.0142
512.3014	-0.0035
512.4993	-0.0103
512.6972	-0.0136
512.8951	-0.0181
513.093	-0.004
513.2908	-0.0112
513.4887	-0.0113
513.6865	-0.0068
513.8844	-0.0105
514.0822	-0.0163
514.2799	-0.0103
514.4777	-0.0152
514.6755	-0.0116
514.8732	-0.0196
515.0709	-0.0105
515.2687	-0.0101
515.4664	-0.0044
515.664	-0.0153
515.8617	-0.0191
516.0594	-0.0246
516.257	-0.0077
516.4546	-0.0226
516.6522	-0.0035
516.8498	-0.006
517.0474	-0.0009
517.2449	0.0011
517.4425	-0.0222
517.64	-0.0092
517.8375	-0.0048
518.035	-0.0077
518.2325	-0.0096
518.43	-0.0198
518.6274	-0.0052
518.8249	-0.0162
519.0223	-0.0102
519.2197	-0.0042
519.4171	-0.0151
519.6145	-0.0122
519.8118	-0.0158
520.0092	-0.0077
520.2065	-0.0247
520.4038	-0.0202
520.6011	-0.0093
520.7984	-0.0115
520.9956	-0.0192
521.1929	-0.0266
521.3901	-0.0102
521.5874	-0.004
521.7846	-0.0135
521.9818	-0.0158
522.1789	-0.0127
522.3761	-0.0051
522.5732	-0.0143
522.7704	-0.0132
522.9675	-0.0121
523.1646	-0.0234
523.3617	-0.0143
523.5587	-0.0041
523.7558	-0.0214
523.9528	-0.0179
524.1498	-0.0089
524.3468	-0.0203
524.5438	-0.0116
524.7408	-0.0103
524.9378	0.0014
525.1347	-0.0122
525.3316	0.001
525.5285	-0.0141
525.7254	-0.0104
525.9223	-0.0022
526.1192	-0.0061
526.316	-0.0187
526.5129	0.0031
526.7097	-0.0019
526.9065	-0.0148
527.1033	-0.0126
527.3	-0.0042
527.4968	-0.0127
527.6935	-0.0098
527.8903	-0.014
528.087	-0.0161
528.2837	-0.0067
528.4804	-0.0084
528.677	-0.0133
528.8737	-0.0046
529.0703	-0.0084
529.2669	-0.0106
529.4635	-0.0122
529.6601	-0.0085
529.8567	-0.0013
530.0532	-0.0131
530.2498	-0.0175
530.4463	-0.0039
530.6428	-0.0117
530.8393	-0.004
531.0358	-0.0056
531.2322	-0.0163
531.4287	-0.0109
531.6251	-0.0099
531.8215	-0.0043
532.0179	-0.0102
532.2143	0.0004
532.4107	-0.0029
532.607	-0.0178
532.8034	-0.0085
532.9997	-0.0058
533.196	-0.001
533.3923	-0.009
533.5886	0.0006
533.7848	-0.0087
533.9811	-0.0129
534.1773	-0.0039
534.3735	0.0026
534.5697	-0.0009
534.7659	-0.0088
534.9621	-0.0075
535.1582	-0.0072
535.3544	-0.0095
535.5505	-0.017
535.7466	-0.0055
535.9427	-0.0108
536.1387	-0.0163
536.3348	-0.0068
536.5308	-0.0067
536.7269	-0.0147
536.9229	0.0016
537.1189	-0.0061
537.3148	0.0004
537.5108	-0.0153
537.7068	-0.0032
537.9027	-0.0069
538.0986	-0.0063
538.2945	-0.0062
538.4904	-0.0117
538.6863	-0.0114
538.8821	-0.0125
539.078	-0.011
539.2738	0.0003
539.4696	-0.0079
539.6654	-0.0022
539.8611	0.011
540.0569	-0.006
540.2526	-0.0116
540.4484	-0.0007
540.6441	-0.0014
540.8398	-0.0132
541.0355	-0.0011
541.2311	-0.0023
541.4268	-0.0168
541.6224	-0.0047
541.818	0.0046
542.0136	-0.0133
542.2092	-0.0055
542.4048	-0.0075
542.6003	-0.001
542.7959	-0.0059
542.9914	-0.0127
543.1869	-0.006
543.3824	-0.0014
543.5779	-0.0134
543.7734	-0.0163
543.9688	-0.0155
544.1642	-0.0053
544.3596	-0.0049
544.555	-0.0152
544.7504	-0.0109
544.9458	-0.0107
545.1411	-0.0119
545.3365	-0.0072
545.5318	-0.0093
545.7271	-0.007
545.9224	-0.0004
546.1177	-0.001
546.3129	-0.0001
546.5081	-0.0113
546.7034	-0.003
546.8986	-0.0129
547.0938	0.004
547.289	-0.0094
547.4841	0.0016
547.6793	0.0016
547.8744	-0.0115
548.0695	-0.0082
548.2646	-0.0136
548.4597	-0.0063
548.6548	-0.0105
548.8498	0.0002
549.0448	-0.0069
549.2399	-0.0048
549.4349	0.0073
549.6298	-0.0065
549.8248	-0.0049
550.0198	-0.0033
550.2147	-0.0106
550.4096	-0.0093
550.6045	-0.0032
550.7994	-0.0017
550.9943	0.0005
551.1892	-0.0035
551.384	0.0073
551.5788	-0.0083
551.7737	0.0041
551.9685	-0.0102
552.1632	0.0032
552.358	-0.004
552.5528	-0.0013
552.7475	-0.0061
552.9422	-0.0001
553.1369	-0.0063
553.3316	-0.0016
553.5263	-0.0114
553.7209	-0.0027
553.9156	-0.0045
554.1102	-0.0107
554.3048	-0.0047
554.4994	0.0088
554.694	-0.0027
554.8885	-0.0014
555.0831	-0.0094
555.2776	-0.0076
555.4721	-0.0081
555.6666	-0.0015
555.8611	0.0011
556.0555	-0.0057
556.25	-0.0032
556.4444	-0.0094
556.6388	-0.0137
556.8332	-0.0058
557.0276	-0.0026
557.222	-0.0011
557.4163	-0.0049
557.6107	-0.0113
557.805	0.008
557.9993	-0.0024
558.1936	-0.0075
558.3879	-0.0018
558.5821	0.0014
558.7764	-0.004
558.9706	-0.0092
559.1648	0.0015
559.359	-0.0066
559.5532	-0.0136
559.7473	-0.0089
559.9415	-0.0033
560.1356	-0.0104
560.3297	-0.0091
560.5238	-0.0044
560.7179	-0.0054
560.9119	-0.0022
561.106	-0.0038
561.3	-0.0166
561.494	-0.007
561.688	-0.0035
561.882	-0.0151
562.076	-0.0138
562.2699	0
562.4639	-0.0027
562.6578	-0.0032
562.8517	0.0028
563.0456	-0.0052
563.2395	-0.0024
563.4333	-0.0101
563.6272	0.0002
563.821	-0.0037
564.0148	-0.0012
564.2086	-0.0094
564.4024	0.0002
564.5961	-0.0035
564.7899	-0.0041
564.9836	-0.0047
565.1773	0.0023
565.371	0.0019
565.5647	-0.0039
565.7584	-0.002
565.952	-0.0002
566.1456	-0.0019
566.3393	-0.0087
566.5329	-0.009
566.7264	-0.0016
566.92	-0.0078
567.1136	0.002
567.3071	-0.0077
567.5006	0.0013
567.6941	0
567.8876	-0.0005
568.0811	-0.009
568.2745	-0.001
568.468	0.0041
568.6614	-0.0049
568.8548	-0.0063
569.0482	-0.0037
569.2416	-0.0035
569.4349	-0.0066
569.6283	0.0015
569.8216	-0.0089
570.0149	-0.0084
570.2082	0.0055
570.4015	-0.0006
570.5947	0.0069
570.788	-0.0034
570.9812	0
571.1744	0.0015
571.3676	-0.0019
571.5608	-0.0015
571.754	-0.0009
571.9471	-0.0054
572.1402	0.0055
572.3333	-0.0055
572.5264	-0.0071
572.7195	0.0007
572.9126	0.0044
573.1057	0.0004
573.2987	-0.0071
573.4917	-0.0016
573.6847	-0.0011
573.8777	0.008
574.0707	-0.0023
574.2636	-0.0087
574.4566	-0.0008
574.6495	0.0069
574.8424	-0.0082
575.0353	-0.0018
575.2281	0.0018
575.421	-0.0039
575.6138	-0.0075
575.8067	-0.0048
575.9995	-0.0051
576.1923	0.001
576.385	-0.0032
576.5778	-0.0021
576.7706	-0.0021
576.9633	-0.0005
577.156	-0.0001
577.3487	-0.0034
577.5414	-0.0014
577.734	-0.0034
577.9267	0.0001
578.1193	-0.0086
578.3119	-0.0062
578.5045	0.0007
578.6971	-0.0029
578.8897	0.0064
579.0822	0.001
579.2747	-0.0068
579.4673	-0.0088
579.6598	-0.0058
579.8522	-0.0024
580.0447	-0.0026
580.2372	-0.0059
580.4296	0.0016
580.622	-0.0042
580.8144	-0.0009
581.0068	0.001
581.1992	-0.0112
581.3915	-0.0103
581.5839	-0.0068
581.7762	-0.0078
581.9685	-0.0065
582.1608	-0.0027
582.353	0.0004
582.5453	-0.0023
582.7375	-0.0115
582.9298	0.0028
583.122	-0.0008
583.3142	-0.0051
583.5063	-0.0031
583.6985	-0.0015
583.8906	-0.0073
584.0827	-0.0066
584.2749	0.008
584.4669	-0.0008
584.659	0.0001
584.8511	-0.0038
585.0431	-0.0073
585.2352	-0.0021
585.4272	-0.0026
585.6192	-0.003
585.8111	-0.0049
586.0031	0.0001
586.195	-0.0015
586.387	0.0017
586.5789	-0.0009
586.7708	-0.0008
586.9627	-0.0028
587.1545	-0.0054
587.3464	-0.0007
587.5382	0.0029
587.73	-0.0021
587.9218	0.0005
588.1136	-0.0035
588.3053	0.0044
588.4971	-0.0033
588.6888	-0.0111
588.8805	0.0011
589.0722	0.0073
589.2639	0.0012
589.4556	-0.0008
589.6472	-0.001
589.8389	-0.0087
590.0305	-0.0135
590.2221	0.0019
590.4137	-0.0044
590.6052	0.0029
590.7968	-0.0069
590.9883	0.0009
591.1798	-0.0072
591.3713	-0.0018
591.5628	-0.0005
591.7543	-0.0025
591.9458	-0.0061
592.1372	0.0012
592.3286	0.0096
592.52	0.0088
592.7114	-0.0015
592.9028	-0.0074
593.0941	-0.0016
593.2855	-0.0018
593.4768	-0.0098
593.6681	-0.0112
593.8594	-0.0043
594.0506	-0.001
594.2419	0.0034
594.4331	-0.0057
594.6244	0.0014
594.8156	-0.0107
595.0067	0.0015
595.1979	0.0006
595.3891	0.0029
595.5802	0.0032
595.7713	-0.0087
595.9624	-0.0054
596.1535	0.004
596.3446	0.0018
596.5357	-0.0004
596.7267	-0.0014
596.9177	-0.0018
597.1087	-0.0057
597.2997	-0.0103
597.4907	-0.0023
597.6817	0.0012
597.8726	-0.0015
598.0635	-0.0013
598.2544	-0.0074
598.4453	-0.0022
598.6362	-0.0001
598.827	-0.0004
599.0179	-0.0021
599.2087	0.0009
599.3995	0.0008
599.5903	0.0067
599.7811	0.0011
599.9718	0.0018
600.1626	-0.0062
600.3533	-0.0043
600.544	-0.0034
600.7347	-0.0063
600.9254	0.0043
601.116	-0.0121
601.3067	-0.0044
601.4973	-0.0006
601.6879	0.0038
601.8785	-0.0049
602.0691	0.0001
602.2596	-0
602.4502	0.0046
602.6407	-0.0026
602.8312	-0.0003
603.0217	-0.007
603.2122	-0.0064
603.4027	-0.0005
603.5931	0.0018
603.7835	-0.0005
603.9739	0.001
604.1643	-0.0037
604.3547	-0.0062
604.5451	0.0034
604.7354	-0.0017
604.9257	0.0012
605.116	-0.0075
605.3063	0.0032
605.4966	0.0018
605.6869	0.0035
605.8771	0.0066
606.0673	0.0022
606.2575	0.0084
606.4477	0.008
606.6379	-0.0008
606.8281	-0.0034
607.0182	-0.0041
607.2083	0.012
607.3985	-0
607.5885	-0.0014
607.7786	0.0029
607.9687	-0.0068
608.1587	0.0011
608.3488	0.0043
608.5388	-0.0046
608.7288	-0.0002
608.9187	-0.0019
609.1087	-0.0064
609.2986	-0.0087
609.4886	-0.0058
609.6785	0.0026
609.8684	0.0037
610.0582	0.0031
610.2481	-0.0018
610.4379	-0.0046
610.6278	-0.0032
610.8176	-0.0005
611.0074	0.0003
611.1971	-0.0011
611.3869	-0.0011
611.5766	-0.0118
611.7664	0.01
611.9561	-0.0019
612.1458	-0.0032
612.3354	-0.0064
612.5251	-0.0045
612.7147	0.0053
612.9044	-0.0004
613.094	-0.0028
613.2836	-0.0034
613.4731	0.0016
613.6627	-0.01
613.8522	-0.001
614.0417	0.0039
614.2313	-0.0037
614.4207	-0.0019
614.6102	-0.0054
614.7997	0.0016
614.9891	-0.0037
615.1785	-0.0018
615.3679	-0.0007
615.5573	0.0094
615.7467	0.0047
615.9361	-0.0051
616.1254	-0.0003
616.3147	-0.001
616.504	0.0059
616.6933	0.003
616.8826	0.0022
617.0718	0.0079
617.2611	0.0019
617.4503	-0.0037
617.6395	-0.0045
617.8287	-0.0051
618.0179	-0.0072
618.207	0.0075
618.3961	-0.001
618.5853	0.0006
618.7744	0.0051
618.9634	0.0025
619.1525	0.0036
619.3416	0.0031
619.5306	0.0024
619.7196	0.0005
619.9086	-0.0059
620.0976	-0.0019
620.2866	-0.0056
620.4755	0.0006
620.6645	0.005
620.8534	0.0092
621.0423	-0.0016
621.2312	0.0065
621.42	-0.0023
621.6089	0.0038
621.7977	0.002
621.9865	-0.0058
622.1753	0.0029
622.3641	-0.0073
622.5529	0.0062
622.7416	0.0011
622.9303	-0.0015
623.1191	0.0037
623.3078	-0.0046
623.4964	0.0014
623.6851	-0.0049
623.8737	0.0011
624.0624	0.0047
624.251	-0.0009
624.4396	-0.0039
624.6282	-0.0114
624.8167	-0.0015
625.0053	0.0014
625.1938	0.0025
625.3823	-0.0002
625.5708	-0.0095
625.7593	-0.0047
625.9477	-0.0046
626.1362	-0.0017
626.3246	-0.0014
626.513	0.0054
626.7014	0.0014
626.8898	-0.0019
627.0781	-0.0048
627.2665	-0.0024
627.4548	0.0025
627.6431	0.0011
627.8314	0.0023
628.0197	0.0027
628.2079	-0.0103
628.3962	-0.0008
628.5844	0.0027
628.7726	0.0009
628.9608	0.0042
629.1489	-0.0081
629.3371	0.0025
629.5252	-0.0023
629.7134	0.0062
629.9015	0.0006
630.0895	0.0004
630.2776	0.0006
630.4657	-0.0014
630.6537	-0.0022
630.8417	-0.0102
631.0297	-0.001
631.2177	0.0049
631.4057	-0.0034
631.5936	0.0012
631.7815	-0.0016
631.9695	0.002
632.1574	0.0034
632.3452	0.0055
632.5331	-0.002
632.7209	0.0024
632.9088	0.0061
633.0966	0.0099
633.2844	-0.003
633.4722	0.0025
633.6599	0.0036
633.8477	0.0029
634.0354	0.0011
634.2231	0.0026
634.4108	-0.0063
634.5985	0.0037
634.7861	0.0017
634.9738	0.0014
635.1614	-0.0023
635.349	0.0057
635.5366	-0.0049
635.7242	0.0015
635.9117	0.0029
636.0993	0.0033
636.2868	0.0014
636.4743	-0.0005
636.6618	0.0045
636.8492	-0.0029
637.0367	0.0047
637.2241	-0.0027
637.4115	0.0011
637.5989	0.0056
637.7863	-0.0034
637.9737	-0.0052
638.161	0.0029
638.3484	0.0014
638.5357	0.0051
638.723	-0.0003
638.9103	0.0003
639.0975	0.0032
639.2848	0.0057
639.472	-0.0011
639.6592	0.0026
639.8464	0.005
640.0336	0.01
640.2208	0.0005
640.4079	-0.0011
640.595	0.0055
640.7821	0.0036
640.9692	0.0022
641.1563	0.0011
641.3434	0.0044
641.5304	0.0082
641.7174	0.0027
641.9044	0.0002
642.0914	0.0069
642.2784	0.0131
642.4653	0.0067
642.6523	0.0114
642.8392	0.002
643.0261	0.0053
643.213	0.0011
643.3999	-0.0074
643.5867	-0.0011
643.7735	0.0018
643.9604	-0.0075
644.1472	0.0024
644.3339	0.0057
644.5207	-0.0038
644.7075	0.0016
644.8942	0.0063
645.0809	0.0023
645.2676	0.0094
645.4543	0.0057
645.6409	0.0055
645.8276	0.0067
646.0142	0.0077
646.2008	0.0033
646.3874	-0.0033
646.574	-0.0007
646.7605	-0.002
646.9471	-0.0102
647.1336	0.0006
647.3201	0.001
647.5066	-0.0001
647.6931	0.0007
647.8795	0.0034
648.0659	0.0058
648.2524	0.0051
648.4388	-0.0058
648.6252	-0.0021
648.8115	0.0036
648.9979	-0.0045
649.1842	0.0009
649.3705	0.0033
649.5568	-0.0009
649.7431	0.0041
649.9294	-0.0016
650.1156	0.0039
650.3018	-0.0003
650.488	-0.0008
650.6742	0.0063
650.8604	0
651.0466	-0.0054
651.2327	-0.0029
651.4188	0.0004
651.6049	-0.0034
651.791	-0.0019
651.9771	0.007
652.1632	0.0023
652.3492	-0.0006
652.5352	-0.0068
652.7212	-0.0018
652.9072	0.0044
653.0932	-0.005
653.2791	-0.0092
653.465	-0.0008
653.651	-0.005
653.8369	-0.0036
654.0227	0.0063
654.2086	0.0065
654.3944	0.0029
654.5803	0.0064
654.7661	-0.0019
654.9519	0.0067
655.1377	-0.007
655.3234	-0.0019
655.5092	-0.0089
655.6949	-0.0069
655.8806	-0.0042
656.0663	-0.004
656.2519	-0.0044
656.4376	-0.0048
656.6232	0.0065
656.8088	-0.0011
656.9945	-0.0032
657.18	-0.0012
657.3656	0.003
657.5511	0.0012
657.7367	-0.0033
657.9222	0.0091
658.1077	-0.0044
658.2932	0.0025
658.4786	-0.0128
658.6641	-0.0008
658.8495	-0.0028
659.0349	0.0023
659.2203	0.005
659.4057	-0.0031
659.591	0.0001
659.7764	0.0032
659.9617	-0.0001
660.147	0.0001
660.3323	0.0003
660.5176	0.0106
660.7028	0.0001
660.888	0.0043
661.0733	0.0075
661.2585	-0.0005
661.4436	0.0005
661.6288	-0.0032
661.8139	0.0066
661.9991	0.0027
662.1842	-0.0042
662.3693	0.0026
662.5544	0.0007
662.7394	0.0008
662.9245	-0.0011
663.1095	-0.006
663.2945	0.0004
663.4795	-0.0058
663.6644	0.0045
663.8494	0.0031
664.0343	0.0022
664.2193	-0.0086
664.4042	-0.0008
664.589	-0.0041
664.7739	-0.0059
664.9587	-0.0108
665.1436	-0.0084
665.3284	-0.0047
665.5132	-0.0013
665.698	-0.0057
665.8827	0.0073
666.0675	-0.0056
666.2522	-0.0073
666.4369	0.001
666.6216	0.007
666.8063	-0.0003
666.9909	0.0031
667.1756	-0.0043
667.3602	-0.0014
667.5448	-0.0048
667.7294	-0.0009
667.9139	0.0027
668.0985	0.0084
668.283	0.0016
668.4675	-0.0057
668.652	0.0038
668.8365	-0.005
669.0209	0.0064
669.2054	0.0033
669.3898	-0.0044
669.5742	0.0006
669.7586	0.0035
669.943	0.0043
670.1273	0.007
670.3117	0.0036
670.496	-0.0021
670.6803	0.0106
670.8646	0.0079
671.0488	-0
671.2331	0.0007
671.4173	0.0086
671.6015	-0.0029
671.7857	0.002
671.9699	0.0036
672.1541	0.0041
672.3382	-0.0042
672.5223	0.002
672.7064	-0.0017
672.8905	0.0135
673.0746	-0.0009
673.2587	-0.0038
673.4427	0.0058
673.6267	0.0073
673.8107	0.0083
673.9947	0.0077
674.1787	0.002
674.3626	-0.0064
674.5465	0.0018
674.7304	0.0011
674.9143	0.0028
675.0982	0.0044
675.2821	-0.0044
675.4659	0.0015
675.6497	-0.0055
675.8335	-0.0014
676.0173	-0.003
676.2011	-0.0043
676.3849	0.0018
676.5686	-0.0049
676.7523	0.0018
676.936	-0.0015
677.1197	-0.0064
677.3034	-0.0034
677.487	0.0037
677.6706	0.0005
677.8542	-0.0024
678.0378	0.0022
678.2214	-0.0015
678.405	-0.0055
678.5885	-0.0087
678.772	-0.0032
678.9555	-0.0022
679.139	-0.0037
679.3225	-0.0062
679.5059	0.0024
679.6894	0.006
679.8728	-0.0028
680.0562	-0.0112
680.2395	-0.0091
680.4229	-0.0046
680.6062	0.0038
680.7896	-0.004
680.9729	-0.0068
681.1562	0.0031
681.3394	0.0071
681.5227	-0.0108
681.7059	-0.0033
681.8891	-0.0082
682.0723	0.0025
682.2555	0.0012
682.4387	-0.0039
682.6218	-0.0072
682.805	-0.0009
682.9881	-0.0035
683.1712	-0.0038
683.3542	-0.0077
683.5373	0.0106
683.7203	-0.0058
683.9034	0.0015
684.0864	-0.0083
684.2694	0.0003
684.4523	0.0067
684.6353	-0.0084
684.8182	0.0039
685.0011	-0.0135
685.184	-0.0029
685.3669	0.0034
685.5498	0.0023
685.7326	0.0061
685.9154	-0.0051
686.0982	0.0129
686.281	0.0076
686.4638	0.0024
686.6465	0.0024
686.8293	0.0005
687.012	0.0034
687.1947	-0.0072
687.3774	0.0001
687.56	-0.0031
687.7427	0.0024
687.9253	-0.0066
688.1079	-0.0035
688.2905	0.0043
688.4731	0.0017
688.6556	-0.0058
688.8382	-0.0051
689.0207	0.0018
689.2032	-0.0126
689.3857	-0.0134
689.5681	-0.0006
689.7506	-0.0033
689.933	-0.0082
690.1154	-0.0069
690.2978	-0.007
690.4802	-0.005
690.6626	-0.0091
690.8449	0.0036
691.0272	-0.0038
691.2095	-0.0068
691.3918	-0.0111
691.5741	0.0003
691.7563	-0.0034
691.9386	-0.0018
692.1208	-0.0018
692.303	-0.0016
692.4852	0.0001
692.6673	0.0007
692.8495	-0.0032
693.0316	0.0003
693.2137	-0.0009
693.3958	-0.0005
693.5778	0.0002
693.7599	-0.0055
693.9419	0.0005
694.1239	-0.0019
694.3059	0.0005
694.4879	-0.0018
694.6699	0.0013
694.8518	-0.0031
695.0337	-0.0084
695.2157	0.0029
695.3975	0.0005
695.5794	-0.0023
695.7613	0.0006
695.9431	-0.0007
696.1249	0.0046
696.3067	0.0025
696.4885	0.0034
696.6703	-0.0042
696.852	0.0047
697.0337	-0.0014
697.2154	0.0018
697.3971	-0.0015
697.5788	0.0024
697.7605	-0.0002
697.9421	0.0029
698.1237	-0.0019
698.3053	0.0033
698.4869	-0.0039
698.6685	-0.0146
698.85	-0.0087
699.0315	-0.001
699.213	0.0014
699.3945	0.0038
699.576	0.0107
699.7575	0.0048
699.9389	0.0069
700.1203	-0.0056
700.3017	-0.014
700.4831	-0.008
700.6645	-0.0127
700.8458	0.0004
701.0271	-0.0075
701.2084	0.0077
701.3897	-0.0013
701.571	0.0046
701.7523	-0.0036
701.9335	0.0039
702.1147	-0.0028
702.2959	0.0046
702.4771	0.0041
702.6583	0.0005
702.8394	-0.0058
703.0205	-0.0022
703.2016	0.0017
703.3827	-0.0045
703.5638	0.0105
703.7449	0.0051
703.9259	0.009
704.1069	-0.0096
704.2879	0.0098
704.4689	-0.0009
704.6499	0.0035
704.8308	-0.01
705.0117	-0.0036
705.1927	0.0001
705.3735	-0.0012
705.5544	-0.0139
705.7353	-0.0001
705.9161	-0.0065
706.0969	-0.0053
706.2777	-0.0014
706.4585	-0.0047
706.6393	-0.0021
706.82	-0.0071
707.0007	0.0031
707.1815	-0.0025
707.3621	0.0073
707.5428	0.0031
707.7235	-0.0004
707.9041	-0.0017
708.0847	-0.0104
708.2653	-0.0027
708.4459	-0.008
708.6265	0.006
708.807	-0.0054
708.9875	-0.0024
709.168	-0.0069
709.3485	-0.0064
709.529	-0.0091
709.7095	-0.0147
709.8899	-0.0066
710.0703	-0.0158
710.2507	-0.0032
710.4311	-0.0122
710.6115	-0.0084
710.7918	-0.0006
710.9721	-0.0049
711.1524	-0.0075
711.3327	0.0013
711.513	0.0063
711.6932	-0.0008
711.8735	0.0039
712.0537	0.0022
712.2339	-0.0029
712.4141	-0.0064
712.5942	-0.0056
712.7744	-0.0038
712.9545	-0.0124
713.1346	-0.0019
713.3147	-0.0063
713.4947	-0.0037
713.6748	-0.0017
713.8548	-0.0004
714.0348	-0.0063
714.2148	-0.0042
714.3948	0.0064
714.5748	-0.0021
714.7547	-0.0078
714.9346	-0.0025
715.1145	0.0008
715.2944	-0.009
715.4743	-0.0059
715.6541	-0.0084
715.834	-0.0011
716.0138	-0.0057
716.1936	-0.0148
716.3733	-0.0046
716.5531	-0.0073
716.7328	-0.0061
716.9126	-0.0111
717.0923	0.0003
717.2719	0.0023
717.4516	0.0063
717.6312	-0.0004
717.8109	0.0024
717.9905	0.0034
718.1701	-0.0115
718.3496	-0.0159
718.5292	-0.0004
718.7087	-0.003
718.8882	-0.0076
719.0677	0.0046
719.2472	-0.0045
719.4267	0.0026
719.6061	0.0008
719.7856	0.001
719.965	0.0109
720.1443	-0.0046
720.3237	0.0054
720.5031	0.0021
720.6824	0.0038
720.8617	0.0004
721.041	-0.0012
721.2203	0.005
721.3995	0.0038
721.5788	-0.0016
721.758	0.0063
721.9372	-0.0079
722.1164	0.0032
722.2956	0.0052
722.4747	-0.0071
722.6538	-0.008
722.8329	0.0131
723.012	0.0009
723.1911	-0.0001
723.3702	0.0015
723.5492	0.0113
723.7282	0.0034
723.9072	-0.0044
724.0862	-0.0099
724.2652	-0.0047
724.4441	-0.0074
724.623	-0.0029
724.8019	-0.0073
724.9808	-0.0066
725.1597	-0.0089
725.3385	-0.0048
725.5174	-0.0035
725.6962	-0.0053
725.875	-0.0001
726.0538	-0.0025
726.2325	-0.001
726.4112	0.004
726.59	-0.0033
726.7687	-0.0054
726.9474	0.006
727.126	-0.0006
727.3047	-0.002
727.4833	0.0005
727.6619	0.0022
727.8405	-0.0014
728.0191	-0.0093
728.1976	-0.0004
728.3762	-0.0005
728.5547	0.0028
728.7332	-0.0079
728.9116	-0.0009
729.0901	0.0087
729.2686	-0.011
729.447	-0.0041
729.6254	0.0037
729.8038	-0.0043
729.9821	-0.0071
730.1605	0.0033
730.3388	0.007
730.5171	-0.0085
730.6954	-0.0054
730.8737	-0.0052
731.0519	-0.0015
731.2302	-0.0074
731.4084	0.0156
731.5866	-0.0019
731.7648	-0.0004
731.9429	-0.0068
732.1211	-0.0115
732.2992	-0.0102
732.4773	-0.006
732.6554	-0.0052
732.8335	0.0026
733.0115	-0.0002
733.1896	0.0047
733.3676	-0.0138
733.5456	0.0004
733.7235	-0.0012
733.9015	-0.0035
734.0794	0.0003
734.2574	-0.0065
734.4353	-0.0014
734.6131	0.0114
734.791	-0.0005
734.9689	-0.0028
735.1467	-0.0017
735.3245	-0.0044
735.5023	-0.007
735.68	-0.0019
735.8578	-0.0058
736.0355	-0.0258
736.2132	-0.0098
736.3909	-0.003
736.5686	-0.0148
736.7463	-0.0027
736.9239	-0.0042
737.1015	0.0011
737.2791	0.0002
737.4567	0.0095
737.6343	-0.007
737.8118	0.0043
737.9894	-0.0009
738.1669	-0.0037
738.3444	-0.0042
738.5218	0.0066
738.6993	0.0062
738.8767	-0.004
739.0541	0.0008
739.2315	-0.0101
739.4089	-0.0005
739.5863	-0.0028
739.7636	-0.0015
739.9409	0.0026
740.1182	0.0044
740.2955	0.003
740.4728	0.001
740.65	-0.0048
740.8272	0.0012
741.0044	-0.0097
741.1816	-0.0043
741.3588	-0.0045
741.5359	-0.0036
741.7131	-0.0133
741.8902	-0.0059
742.0673	0.0022
742.2444	-0.0077
742.4214	-0.0069
742.5985	-0.0145
742.7755	-0.0164
742.9525	-0.0227
743.1295	-0.0064
743.3064	-0.0077
743.4834	-0.002
743.6603	-0.0056
743.8372	-0.0099
744.0141	0.0037
744.191	-0.0028
744.3678	-0.0016
744.5446	-0.0013
744.7215	0.0059
744.8982	-0.0183
745.075	-0.0062
745.2518	-0.0036
745.4285	-0.0069
745.6052	-0.0053
745.7819	-0.0057
745.9586	-0.0051
746.1353	-0.0088
746.3119	-0.0188
746.4885	-0.0057
746.6651	-0.0122
746.8417	-0.0012
747.0183	0.0027
747.1948	-0.0044
747.3714	0.0035
747.5479	0.0005
747.7244	-0.0017
747.9008	-0
748.0773	-0.0016
748.2537	-0.0054
748.4301	-0.0064
748.6065	0.0052
748.7829	-0.0016
748.9593	-0.0021
749.1356	0.0043
749.3119	0.0083
749.4882	-0.0102
749.6645	0.0055
749.8408	-0.0138
750.017	-0.0103
750.1933	-0.0016
750.3695	-0.0043
750.5457	0.009
750.7218	0.0058
750.898	-0.0032
751.0741	0.0035
751.2502	0.0014
751.4263	-0.0118
751.6024	-0.0022
751.7784	-0.0075
751.9545	-0.003
752.1305	-0.0061
752.3065	-0.0071
752.4825	0.0008
752.6584	-0.0058
752.8344	-0.007
753.0103	-0.0205
753.1862	0.0039
753.3621	0.0012
753.5379	-0.0093
753.7138	0.0001
753.8896	-0.0015
754.0654	0.0083
754.2412	0.0087
754.417	0.0064
754.5927	0.0019
754.7685	-0.0029
754.9442	-0.0031
755.1199	0.0126
755.2956	0.0005
755.4712	0.0058
755.6469	0.0082
755.8225	0.0081
755.9981	0.0018
756.1736	0.0051
756.3492	0.0011
756.5248	-0.0004
756.7003	0.0012
756.8758	0.0025
757.0513	-0.0137
757.2267	-0.0018
757.4022	-0.0009
757.5776	-0.011
757.753	0.0034
757.9284	-0.0042
758.1038	-0.0018
758.2791	0.0071
758.4545	-0.0194
758.6298	0.0031
758.8051	-0.0029
758.9803	-0.0092
759.1556	0.0022
759.3308	-0.0071
759.506	0.0053
759.6812	0.0034
759.8564	0.0095
760.0316	0.0011
760.2067	0.0075
760.3819	0.0049
760.557	0.0146
760.732	0.0102
760.9071	-0.004
761.0821	0.0051
761.2572	0.0117
761.4322	0.0099
761.6072	0.0104
761.7821	-0.0005
761.9571	0.0118
762.132	0.0051
762.3069	-0.0026
762.4818	-0.0051
762.6567	-0.0016
762.8316	0.0019
763.0064	-0.0017
763.1812	-0.0031
763.356	-0.0072
763.5308	0.0086
763.7055	0.0029
763.8803	-0.0058
764.055	-0.0029
764.2297	-0.0047
764.4044	-0.0066
764.579	-0.0176
764.7537	-0.0081
764.9283	0.0012
765.1029	-0.012
765.2775	-0.006
765.4521	-0.0151
765.6266	-0.0149
765.8011	-0.0129
765.9756	-0.0098
766.1501	0.0109
766.3246	0.0051
766.4991	-0.0057
766.6735	0.0034
766.8479	-0.0099
767.0223	0.0078
767.1967	-0.0043
767.371	0.0053
767.5454	0.0026
767.7197	-0.0034
767.894	-0.0066
768.0683	-0.0174
768.2425	0.0021
768.4168	-0.0012
768.591	0.0014
768.7652	-0.0032
768.9394	0.0044
769.1135	-0.0055
769.2877	0.0085
769.4618	0.0014
769.6359	-0.0012
769.81	0.0029
769.984	0.0005
770.1581	0.008
770.3321	0.0083
770.5061	0.0043
770.6801	0.0074
770.8541	0.0021
771.028	0.0119
771.202	-0.0057
771.3759	0.0086
771.5498	0.0005
771.7236	0.0075
771.8975	0.0074
772.0713	0.0107
772.2451	-0.0075
772.4189	0.0102
772.5927	0.0114
772.7665	0.0022
772.9402	0.0045
773.1139	0.004
773.2876	-0.0064
773.4613	0.0001
773.635	0.0079
773.8086	-0.0079
773.9822	-0.0065
774.1558	0.0011
774.3294	-0.0165
774.503	-0.0115
774.6765	-0.0023
774.8501	-0.0021
775.0236	0.0073
775.1971	0.0049
775.3705	-0.0092
775.544	-0.0008
775.7174	-0.0088
775.8908	-0.0071
776.0642	-0.002
776.2376	-0.0027
776.4109	-0.0046
776.5843	-0.0079
776.7576	0.0061
776.9309	0.0169
777.1041	0.0075
777.2774	0.0151
777.4506	0.0004
777.6238	-0.0133
777.797	-0.0038
777.9702	-0.0037
778.1434	-0.0106
778.3165	-0.0065
778.4896	-0.0003
778.6627	0.009
778.8358	0.0032
779.0089	-0.0048
779.1819	-0.0048
779.3549	0.0042
779.5279	0.0017
779.7009	0.0031
779.8739	0.0038
780.0468	0.0013
780.2197	0.0109
780.3926	0.0039
780.5655	-0.0014
780.7384	-0.0044
780.9112	-0.008
781.0841	-0.0061
781.2569	0.009
781.4297	0.0008
781.6024	0.0048
781.7752	0.0088
781.9479	0.009
782.1206	-0.0077
782.2933	0.0033
782.466	-0.0031
782.6386	0.0006
782.8113	-0.0022
782.9839	0.0104
783.1565	0.0189
783.329	0.0046
783.5016	0.0052
783.6741	0.0122
783.8466	-0.0068
784.0191	0.0199
784.1916	0.0122
784.3641	-0.0071
784.5365	0.0125
784.7089	-0.0211
784.8813	-0.0124
785.0537	-0.0035
785.2261	-0.0092
785.3984	-0.0141
785.5707	-0.0116
785.743	0.0069
785.9153	-0.0082
786.0876	0.0025
786.2598	0.0015
786.432	0.0097
786.6042	0.0038
786.7764	-0.007
786.9486	-0.006
787.1207	-0.0151
787.2928	-0.0073
787.4649	0.0029
787.637	-0.005
787.8091	-0.009
787.9811	-0.0239
788.1532	-0.0042
788.3252	0.0015
788.4972	-0.0259
788.6691	-0.0033
788.8411	0.0033
789.013	0.0026
789.1849	0.0011
789.3568	-0.0102
789.5287	-0.005
789.7005	-0.0057
789.8723	-0.0019
790.0442	0.0097
790.2159	-0.0135
790.3877	0.0014
790.5595	-0.0172
790.7312	0.0031
790.9029	0.0095
791.0746	0.0021
791.2463	-0.0062
791.4179	-0.0223
791.5896	-0.0199
791.7612	0.007
791.9328	-0.0025
792.1044	-0.0292
792.2759	-0.01
792.4474	-0.0128
792.619	-0.0137
792.7905	0.0124
792.9619	-0.0033
793.1334	0.0191
793.3048	-0.0029
793.4762	0.0059
793.6476	0.0024
793.819	-0.0061
793.9904	0.0028
794.1617	-0.0066
794.333	-0.0035
794.5043	-0.014
794.6756	-0.0007
794.8469	-0.0145
795.0181	-0.0037
795.1893	-0.0062
795.3605	0.0154
795.5317	-0.0163
795.7029	-0.0106
795.874	0.0023
796.0452	0.0003
796.2163	-0.0043
796.3873	0.0094
796.5584	0.0088
796.7294	-0.0071
796.9005	0.0085
797.0715	0.0084
797.2425	-0.0145
797.4134	-0.0084
797.5844	-0.006
797.7553	-0.0205
797.9262	0.0062
798.0971	-0.0134
798.2679	-0.0001
798.4388	-0.0179
798.6096	-0.0063
798.7804	-0.0007
798.9512	0.0029
799.122	-0.0059
799.2927	-0.0007
799.4635	0.0114
799.6342	-0.0093
799.8049	-0.0088
799.9755	0.0073
800.1462	0.0182
800.3168	0.0059
800.4874	0.002
800.658	0.0211
800.8286	0.0119
800.9991	0.0024
801.1696	0.0102
801.3402	-0.0054
801.5106	-0.0098
801.6811	-0.0035
801.8516	0.015
802.022	-0.0086
802.1924	-0.0064
802.3628	0.0321
802.5332	0.0036
802.7035	0.0106
802.8739	0.0014
803.0442	-0.0152
803.2145	0.0309
803.3847	-0.0186
803.555	0.0031
803.7252	-0.0071
803.8954	-0.0147
804.0656	-0.0078
804.2358	-0.0098
804.4059	0.0109
804.5761	-0.0046
804.7462	0.0185
804.9163	0.0001
805.0864	-0.0138
805.2564	0.0021
805.4264	0.0088
805.5965	-0.0098
805.7665	0.0044
805.9364	-0.0039
806.1064	0.0171
806.2763	0.0079
806.4462	0.0147
806.6161	-0.002
806.786	0.025
806.9559	0.0158
807.1257	0.0034
807.2955	-0.0093
807.4653	-0.0078
807.6351	-0.0248
807.8048	-0.0032
807.9746	-0.0145
808.1443	-0.0128
808.314	-0.0098
808.4837	-0.0036
808.6533	-0.0039
808.8229	0.0105
808.9926	0.0009
809.1622	0.0096
809.3317	-0.0018
809.5013	-0.0021
809.6708	0.0018
809.8403	-0.0011
810.0098	0.0063
810.1793	-0.0014
810.3488	-0.0034
810.5182	-0.0186
810.6876	-0.0118
810.857	-0.0062
811.0264	0.0114
811.1958	0.0035
811.3651	0.0145
811.5344	-0.0062
811.7037	0.0113
811.873	-0.0304
812.0422	-0.0194
812.2115	-0.0196
812.3807	-0.0199
812.5499	-0.0081
812.7191	0.0185
812.8882	-0.0138
813.0574	-0.0083
813.2265	-0.0216
813.3956	0.0028
813.5646	-0.0148
813.7337	-0.0133
813.9027	0.0114
814.0718	0.0199
814.2407	-0.0049
814.4097	-0.0071
814.5787	-0.0028
814.7476	-0.0192
814.9165	0.0169
815.0854	-0.0051
815.2543	0.0022
815.4232	-0.0115
815.592	0.0045
815.7608	-0.0104
815.9296	0.0075
816.0984	0.0081
816.2671	-0.006
816.4359	-0.0118
816.6046	-0.0116
816.7733	-0.0367
816.942	0.0152
817.1106	-0.0105
817.2793	-0.0017
817.4479	-0.0068
817.6165	0.0104
817.785	-0.008
817.9536	-0.0327
818.1221	-0.0046
818.2906	-0.0165
818.4591	-0.0305
818.6276	-0.02
818.7961	-0.0154
818.9645	0.0195
819.1329	0.0049
819.3013	-0.0029
819.4697	0.0234
819.638	0.0148
819.8064	0.0036
819.9747	0.036
820.143	-0.0129
820.3113	0.0013
820.4795	0.0069
820.6477	0.0231
820.816	-0.0169
820.9842	0.0002
821.1523	-0.0133
821.3205	-0.023
821.4886	-0.0041
821.6567	0.0034
821.8248	-0.0012
821.9929	0.0246
822.1609	-0.0091
822.329	0.036
822.497	0.017
822.665	-0.0069
822.833	-0.0161
823.0009	0.0277
823.1688	0.0085
823.3367	0.0174
823.5046	0.0091
823.6725	0.022
823.8404	0.0175
824.0082	-0.0079
824.176	0.0321
824.3438	0.0164
824.5116	-0.0134
824.6793	0.0098
824.847	-0.0035
825.0147	-0.0028
825.1824	0.0085
825.3501	0.0159
825.5177	-0.0081
825.6854	-0.0138
825.853	0.0086
826.0206	-0.039
826.1881	0.0098
826.3557	-0.0321
826.5232	0.005
826.6907	-0.02
826.8582	-0.0123
827.0257	-0.0147
827.1931	-0.0025
827.3605	-0.0051
827.528	-0.0067
827.6953	-0.0387
827.8627	-0.0252
828.03	0.0352
828.1974	-0.0145
828.3647	-0.0301
828.532	-0.011
828.6992	0.0153
828.8665	-0.0143
829.0337	0.0074
829.2009	0.0302
829.3681	0.0069
829.5352	0.0045
829.7024	-0.0432
829.8695	-0.0124
830.0366	0.0374
830.2037	0.0028
830.3707	0.0042
830.5378	-0.0201
830.7048	0.0438
830.8718	-0.0412
831.0388	0.0026
831.2057	0.0056
831.3727	0.0304
831.5396	-0.002
831.7065	-0.0111
831.8734	0.0079
832.0402	-0.0074
832.2071	0.0117
832.3739	-0.0127
832.5407	-0.0056
832.7075	0.0321
832.8742	0.0028
833.041	-0.023
833.2077	0.0108
833.3744	0.0044
833.541	0.0088
833.7077	-0.0192
833.8743	-0.0313
834.0409	0.0197
834.2075	-0.0097
834.3741	-0.03
834.5407	-0.0409
834.7072	-0.0153
834.8737	-0.0316
835.0402	-0.0181
835.2067	0.0207
835.3731	0.0151
835.5395	0.0042
835.706	-0.0067
835.8723	-0.0355
836.0387	0.0058
836.2051	0.0181
836.3714	0.0323
836.5377	0.0017
836.704	-0.0067
836.8703	-0.0337
837.0365	-0.0434
837.2027	-0.0071
837.3689	0.0184
837.5351	-0.0363
837.7013	-0.0363
837.8674	-0.0705
838.0335	-0.0489
838.1997	0.0212
838.3657	-0.0423
838.5318	-0.0231
838.6978	0.0897
838.8639	0.0845
839.0299	0.0253
839.1958	-0.0104
839.3618	0.0082
839.5277	0.0233
839.6937	-0.0206
839.8596	-0.0085
840.0254	0.0286
840.1913	-0.0237
840.3571	0.0476
840.523	-0.0064
840.6888	-0.017
840.8545	-0.0147
841.0203	0.0211
841.186	0.0021
841.3517	0.0692
841.5174	0.0066
841.6831	0.0005
841.8488	-0.0291
842.0144	-0.0131
842.18	-0.0066
842.3456	0.0554
842.5112	-0.027
842.6767	-0.0234
842.8422	0.0114
843.0077	-0.0388
843.1732	-0.05
843.3387	-0.0301
843.5042	-0.0385
843.6696	-0.0006
843.835	-0.0164
844.0004	0.0234
844.1657	0.0538
844.3311	-0.0808
844.4964	-0.0478
844.6617	-0.0439
844.827	0.0017
844.9923	0.0302
845.1575	0.0078
845.3227	0.0123
845.4879	-0.016
845.6531	-0.0228
845.8183	-0.0299
845.9834	0.0224
846.1485	-0.0218
846.3136	-0.03
846.4787	-0.0337
846.6438	-0.0042
846.8088	-0.0339
846.9738	-0.1092
847.1388	-0.0384
847.3038	-0.0546
847.4687	-0.129
847.6337	0.0059
847.7986	0.0155
847.9635	-0.04
848.1284	-0.0074
848.2932	0.0263
848.458	-0.0059
848.6228	0.0235
848.7876	0.0741
848.9524	-0.0526
849.1172	-0.0962
849.2819	-0.0049
849.4466	-0.1024
849.6113	-0.139
849.7759	0.0194
849.9406	0.0026
850.1052	0.073
850.2698	-0.0441
850.4344	-0.0544
850.599	-0.0431
850.7635	0.0702
850.928	0.045
851.0925	0.0371
851.257	0.0172
851.4215	-0.0112
851.5859	0.0499
851.7503	0.036
851.9147	0.0025
852.0791	-0.1622
852.2434	-0.0787
852.4078	-0.0058
852.5721	0.0504
852.7364	-0.0111
852.9007	-0.2083
853.0649	-0.073
853.2291	0.0165
853.3934	-0.0365
853.5575	0.0696
853.7217	-0.07
853.8859	-0.1549
854.05	-0.1124
854.2141	0.0145
854.3782	-0.0153
854.5423	-0.0879
854.7063	0.1359
854.8703	-0.0307
855.0343	-0.0573
855.1983	-0.1349
855.3623	0.1261
855.5262	0.1711
855.6901	-0.0789
855.854	0.0355
856.0179	0.0813
856.1818	0.1975
856.3456	-0.0615
856.5094	-0.0858
856.6732	-0.086
856.837	-0.0265
857.0008	0.046
857.1645	-0.1058
857.3282	-0.1213
857.4919	0.1226
857.6556	0.0544
857.8192	-0.0209
857.9828	-0.1086
858.1465	0.0388
858.31	-0.147
858.4736	-0.0072
858.6372	-0.237
858.8007	-0.1907
858.9642	-0.0023
859.1277	-0.0575
859.2911	-0.0855
859.4546	0.0467
859.618	-0.4095
859.7814	-0.1409
859.9448	0.02
860.1081	0.0779
860.2715	0.1614
860.4348	-0.2222
860.5981	-0.0715
860.7614	0.2589
860.9246	-0.0679
861.0879	-0.2352
861.2511	-0.0562
861.4143	0.1139
861.5774	0.2866
861.7406	-0.1661
861.9037	-0.0879
862.0668	-0.0818
862.2299	-0.1164
862.393	-0.4719
862.556	-0.0312
862.7191	-0.3524
862.8821	-0.2088
863.0451	-0.0393
863.208	0.2644
863.371	0.0159
863.5339	-0.123
863.6968	0.0386
863.8597	-0.1315
864.0225	-0.121
864.1854	0.4356
864.3482	-0.0176
864.511	0.1118
864.6737	0.3065
864.8365	-0.1142
864.9992	-0.4785
865.1619	-0.1395
865.3246	0.3132
865.4873	0.044
865.65	-0.2718
865.8126	0.0544
865.9752	0.235
866.1378	-0.2387
866.3004	-0
866.4629	0.1557
866.6254	-0.1973
866.7879	0.2994
866.9504	-0
867.1129	-0
867.2753	-0.0238
867.4377	0.2293
867.6001	-0.3833
867.7625	0.4014
867.9249	-0.5299
868.0872	0.3263
868.2495	0.2941
868.4118	-0.1904
868.5741	-0.6978
868.7363	-0.2728
868.8986	-0.0961
869.0608	-0.1646
869.223	0.1164
869.3851	1.0271
869.5473	-0
869.7094	0.1314
869.8715	-0
870.0336	-0
870.1957	-0.633
870.3577	-0
870.5197	0.0132
870.6817	-0.3791
870.8437	-0.214
871.0057	-0.6021
871.1676	0.7853
871.3295	-0.4623
871.4914	-0.8515
871.6533	-0.3582
871.8151	-0.4696
871.977	-0
872.1388	-0
872.3006	-0
872.4623	0.4726
872.6241	-0
872.7858	0.7541
872.9475	0.418
873.1092	0.007
873.2709	0.0607
873.4325	0.1042
873.5941	-0.2458
873.7557	-0
873.9173	-0.4143
874.0789	-0.0877
874.2404	-0.6846
874.4019	0.6686
874.5634	-0.2421
874.7249	0.2163
874.8863	-0.0055
875.0478	0.2776
875.2092	-0
875.3706	0.7072
875.5319	-0.6962
875.6933	-0.1088
875.8546	1.0607
876.0159	-0
876.1772	-0
876.3385	-0
876.4997	0.3517
876.6609	-0.4563
876.8221	-0.7082
876.9833	1.4293
877.1445	-0
877.3056	0.0404
877.4667	-0.5262
877.6278	-0
877.7889	-0.4299
877.9499	-0.7866
878.111	-0.7287
878.272	-0
878.433	-0
878.5939	0.4347
878.7549	-0
878.9158	-0.4531
879.0767	-0
879.2376	-0
879.3984	-0
879.5593	-0
879.7201	0.0716
879.8809	-0.633
880.0417	-0
880.2024	0.2524
880.3632	-0
880.5239	0.902
880.6846	0.7097
880.8452	-2.3541
881.0059	-0
881.1665	1.4293
881.3271	0.026
881.4877	-0.0209
881.6483	-0.1277
881.8088	-0.5236
881.9693	-0
882.1298	-0
882.2903	-0
