Data from MonoPyChalIsomerACN10uM410nmA_Absorbance_14-53-24-773.txt Node
Date: Fri Jul 05 14:53:24 BST 2024
User: LASERRRRR
Spectrometer: FLMT03099
Trigger mode: 0
Integration Time (sec): 1.000000E-1
Scans to average: 1
Electric dark correction enabled: true
Nonlinearity correction enabled: false
Boxcar width: 0
XAxis mode: Wavelengths
Number of Pixels in Spectrum: 3648
>>>>>Begin Spectral Data<<<<<
179.3399	-0.2313
179.5586	-0.2313
179.7771	-0.2313
179.9957	0.4333
180.2143	-0
180.4329	0.1704
180.6514	0.5247
180.8699	-0
181.0885	-0.0935
181.307	0.2884
181.5255	-0.7782
181.744	-0.3958
181.9625	-0
182.181	0.3358
182.3994	-0
182.6179	-0
182.8363	-0.0147
183.0547	-0.2594
183.2732	0.1203
183.4916	-0.0494
183.71	0.0966
183.9284	0.1142
184.1467	-0.0405
184.3651	0.0567
184.5835	-0.034
184.8018	-0.0373
185.0201	0.1051
185.2385	-0.1453
185.4568	0.0669
185.6751	0.3575
185.8934	0.3364
186.1117	0.1108
186.3299	0.1219
186.5482	0.0737
186.7664	-0.0488
186.9847	-0.0629
187.2029	-0.0797
187.4211	0.0101
187.6393	0.1365
187.8575	-0.1443
188.0757	0.0974
188.2939	0.0861
188.512	0.0903
188.7302	-0.0693
188.9483	-0.0907
189.1665	-0.0086
189.3846	-0.1196
189.6027	0.1053
189.8208	0.1088
190.0389	0.0838
190.257	0.1235
190.475	0.2346
190.6931	0.4374
190.9111	0.2575
191.1292	0.1163
191.3472	0.3014
191.5652	0.3108
191.7832	0.3015
192.0012	0.6245
192.2192	0.2373
192.4371	0.5425
192.6551	0.5164
192.873	0.4366
193.091	0.2615
193.3089	0.4753
193.5268	0.521
193.7447	0.4449
193.9626	0.5275
194.1805	0.4802
194.3984	0.6701
194.6162	0.4001
194.8341	0.53
195.0519	0.474
195.2697	0.9189
195.4875	0.5802
195.7054	0.4699
195.9231	0.4752
196.1409	0.6022
196.3587	0.687
196.5765	0.5384
196.7942	0.8031
197.012	0.537
197.2297	0.524
197.4474	0.8331
197.6651	0.5325
197.8828	0.5999
198.1005	0.6391
198.3182	0.5446
198.5358	0.6802
198.7535	0.5968
198.9711	0.4158
199.1888	0.7103
199.4064	0.7682
199.624	0.5354
199.8416	0.5692
200.0592	0.5908
200.2767	0.5796
200.4943	0.6469
200.7119	0.9019
200.9294	0.7907
201.1469	0.6697
201.3645	0.5592
201.582	0.5579
201.7995	0.6643
202.017	0.5198
202.2344	0.5523
202.4519	0.7141
202.6694	0.5595
202.8868	0.6565
203.1042	0.6672
203.3217	0.6622
203.5391	0.6331
203.7565	0.6483
203.9739	0.7161
204.1913	0.5624
204.4086	0.6283
204.626	0.6599
204.8433	0.6528
205.0607	0.6929
205.278	0.6961
205.4953	0.6637
205.7126	0.6517
205.9299	0.6736
206.1472	0.7404
206.3644	0.711
206.5817	0.6472
206.7989	0.6229
207.0162	0.6621
207.2334	0.6273
207.4506	0.6164
207.6678	0.594
207.885	0.574
208.1022	0.6202
208.3194	0.6471
208.5365	0.6402
208.7537	0.6369
208.9708	0.6391
209.1879	0.6549
209.405	0.6805
209.6222	0.7013
209.8392	0.6455
210.0563	0.6217
210.2734	0.6325
210.4905	0.568
210.7075	0.698
210.9245	0.5446
211.1416	0.6655
211.3586	0.5859
211.5756	0.563
211.7926	0.6233
212.0096	0.5684
212.2265	0.5778
212.4435	0.5051
212.6604	0.6002
212.8774	0.5699
213.0943	0.6436
213.3112	0.5357
213.5281	0.5274
213.745	0.4951
213.9619	0.5198
214.1788	0.4788
214.3956	0.4867
214.6125	0.4542
214.8293	0.5141
215.0461	0.4559
215.2629	0.4723
215.4798	0.4808
215.6965	0.4212
215.9133	0.4526
216.1301	0.4096
216.3469	0.4399
216.5636	0.423
216.7803	0.3695
216.9971	0.3854
217.2138	0.3501
217.4305	0.3724
217.6472	0.3532
217.8639	0.3808
218.0805	0.3198
218.2972	0.3257
218.5138	0.3115
218.7305	0.3062
218.9471	0.303
219.1637	0.2881
219.3803	0.2916
219.5969	0.262
219.8135	0.2539
220.0301	0.2827
220.2466	0.2549
220.4632	0.2619
220.6797	0.2263
220.8962	0.2509
221.1127	0.2356
221.3292	0.2586
221.5457	0.2422
221.7622	0.2279
221.9787	0.2753
222.1951	0.234
222.4116	0.269
222.628	0.2329
222.8444	0.249
223.0608	0.2557
223.2772	0.2593
223.4936	0.2595
223.71	0.2441
223.9264	0.2489
224.1427	0.2375
224.3591	0.243
224.5754	0.266
224.7917	0.2606
225.008	0.2538
225.2243	0.2714
225.4406	0.269
225.6569	0.251
225.8732	0.2602
226.0894	0.2608
226.3057	0.2568
226.5219	0.2832
226.7381	0.2623
226.9543	0.2602
227.1705	0.285
227.3867	0.2755
227.6029	0.2626
227.8191	0.2967
228.0352	0.2818
228.2513	0.3164
228.4675	0.2969
228.6836	0.3059
228.8997	0.2988
229.1158	0.3199
229.3319	0.3015
229.548	0.3199
229.764	0.3351
229.9801	0.3356
230.1961	0.3582
230.4121	0.3143
230.6282	0.3353
230.8442	0.3208
231.0602	0.3495
231.2761	0.3334
231.4921	0.3373
231.7081	0.3354
231.924	0.3422
232.14	0.3678
232.3559	0.3435
232.5718	0.3597
232.7877	0.3353
233.0036	0.3372
233.2195	0.3342
233.4353	0.3544
233.6512	0.3621
233.867	0.358
234.0829	0.3805
234.2987	0.3878
234.5145	0.3547
234.7303	0.3675
234.9461	0.377
235.1619	0.3799
235.3776	0.3788
235.5934	0.3755
235.8091	0.3669
236.0249	0.3697
236.2406	0.3747
236.4563	0.3828
236.672	0.4041
236.8877	0.3944
237.1034	0.399
237.319	0.4017
237.5347	0.4185
237.7503	0.3927
237.966	0.3975
238.1816	0.4271
238.3972	0.4075
238.6128	0.3886
238.8284	0.4098
239.0439	0.4103
239.2595	0.413
239.475	0.3989
239.6906	0.4145
239.9061	0.3985
240.1216	0.4014
240.3371	0.4059
240.5526	0.3869
240.7681	0.4073
240.9836	0.4085
241.199	0.3887
241.4145	0.3847
241.6299	0.3769
241.8453	0.3803
242.0607	0.3963
242.2761	0.3566
242.4915	0.3625
242.7069	0.362
242.9223	0.3397
243.1376	0.3486
243.353	0.3403
243.5683	0.3498
243.7836	0.3129
243.9989	0.3247
244.2142	0.3136
244.4295	0.3203
244.6448	0.2982
244.86	0.297
245.0753	0.2831
245.2905	0.2893
245.5057	0.2631
245.721	0.273
245.9362	0.2685
246.1514	0.2584
246.3665	0.2559
246.5817	0.2566
246.7969	0.2439
247.012	0.2403
247.2271	0.2211
247.4423	0.2242
247.6574	0.2303
247.8725	0.2243
248.0876	0.2326
248.3026	0.2323
248.5177	0.2157
248.7328	0.2137
248.9478	0.2111
249.1628	0.198
249.3779	0.2191
249.5929	0.2043
249.8079	0.2164
250.0228	0.1926
250.2378	0.2031
250.4528	0.1965
250.6677	0.1784
250.8827	0.1957
251.0976	0.1984
251.3125	0.1766
251.5274	0.1723
251.7423	0.169
251.9572	0.1818
252.172	0.1721
252.3869	0.1655
252.6017	0.1742
252.8166	0.1597
253.0314	0.1658
253.2462	0.1654
253.461	0.1808
253.6758	0.1606
253.8906	0.1649
254.1053	0.1622
254.3201	0.1643
254.5348	0.175
254.7496	0.1769
254.9643	0.1747
255.179	0.1765
255.3937	0.1582
255.6083	0.1794
255.823	0.1721
256.0377	0.151
256.2523	0.1689
256.467	0.1468
256.6816	0.1794
256.8962	0.1676
257.1108	0.1619
257.3254	0.1805
257.54	0.1636
257.7545	0.169
257.9691	0.1763
258.1836	0.1666
258.3981	0.1732
258.6127	0.1791
258.8272	0.1662
259.0417	0.1635
259.2561	0.1674
259.4706	0.1588
259.6851	0.1675
259.8995	0.1643
260.114	0.1563
260.3284	0.1711
260.5428	0.161
260.7572	0.1673
260.9716	0.1667
261.186	0.1482
261.4003	0.1554
261.6147	0.1634
261.829	0.1671
262.0433	0.1587
262.2577	0.1603
262.472	0.1548
262.6863	0.1666
262.9005	0.1651
263.1148	0.1586
263.3291	0.1398
263.5433	0.1651
263.7576	0.1686
263.9718	0.1654
264.186	0.1707
264.4002	0.1518
264.6144	0.1606
264.8286	0.165
265.0427	0.1505
265.2569	0.1604
265.471	0.1549
265.6851	0.1522
265.8993	0.1638
266.1134	0.147
266.3275	0.1566
266.5415	0.1628
266.7556	0.1664
266.9697	0.1564
267.1837	0.1654
267.3978	0.154
267.6118	0.1655
267.8258	0.1662
268.0398	0.1494
268.2538	0.164
268.4677	0.1618
268.6817	0.1505
268.8957	0.1517
269.1096	0.1554
269.3235	0.1615
269.5374	0.1533
269.7514	0.1564
269.9652	0.1407
270.1791	0.1433
270.393	0.1457
270.6068	0.15
270.8207	0.1518
271.0345	0.1428
271.2483	0.1582
271.4622	0.1336
271.676	0.1491
271.8897	0.1344
272.1035	0.1303
272.3173	0.1362
272.531	0.1338
272.7448	0.1324
272.9585	0.1384
273.1722	0.1418
273.3859	0.144
273.5996	0.1194
273.8133	0.1389
274.0269	0.138
274.2406	0.1361
274.4542	0.1423
274.6679	0.1341
274.8815	0.1397
275.0951	0.1365
275.3087	0.142
275.5223	0.1476
275.7358	0.144
275.9494	0.143
276.1629	0.1309
276.3765	0.14
276.59	0.141
276.8035	0.1345
277.017	0.1372
277.2305	0.1394
277.444	0.1419
277.6574	0.1377
277.8709	0.1438
278.0843	0.1404
278.2978	0.1378
278.5112	0.1264
278.7246	0.1397
278.938	0.1384
279.1513	0.142
279.3647	0.1525
279.5781	0.1335
279.7914	0.1457
280.0047	0.1472
280.2181	0.147
280.4314	0.1507
280.6447	0.1467
280.8579	0.1481
281.0712	0.1438
281.2845	0.1484
281.4977	0.1438
281.711	0.1359
281.9242	0.1421
282.1374	0.141
282.3506	0.1469
282.5638	0.1416
282.7769	0.1539
282.9901	0.149
283.2033	0.1597
283.4164	0.159
283.6295	0.154
283.8426	0.1426
284.0557	0.1524
284.2688	0.1594
284.4819	0.1579
284.695	0.1549
284.908	0.1599
285.1211	0.1494
285.3341	0.1583
285.5471	0.1513
285.7601	0.1605
285.9731	0.1641
286.1861	0.1606
286.3991	0.1645
286.612	0.1719
286.825	0.1586
287.0379	0.1676
287.2508	0.1478
287.4637	0.1571
287.6766	0.1479
287.8895	0.1603
288.1024	0.1766
288.3152	0.165
288.5281	0.153
288.7409	0.168
288.9538	0.1667
289.1666	0.1635
289.3794	0.1716
289.5922	0.1656
289.8049	0.17
290.0177	0.1649
290.2304	0.1597
290.4432	0.1611
290.6559	0.1696
290.8686	0.166
291.0813	0.1686
291.294	0.1625
291.5067	0.1742
291.7194	0.1618
291.932	0.1784
292.1447	0.1635
292.3573	0.1608
292.5699	0.1608
292.7825	0.1708
292.9951	0.1612
293.2077	0.1671
293.4203	0.1687
293.6328	0.1555
293.8454	0.1675
294.0579	0.1589
294.2704	0.1742
294.4829	0.1604
294.6954	0.1648
294.9079	0.1723
295.1204	0.1648
295.3328	0.1521
295.5453	0.1708
295.7577	0.1729
295.9701	0.1561
296.1825	0.1654
296.3949	0.1634
296.6073	0.1592
296.8197	0.1586
297.0321	0.1743
297.2444	0.1621
297.4567	0.1749
297.6691	0.1709
297.8814	0.1614
298.0937	0.1598
298.306	0.1649
298.5182	0.1538
298.7305	0.1689
298.9428	0.1699
299.155	0.173
299.3672	0.1599
299.5794	0.1564
299.7916	0.1637
300.0038	0.1751
300.216	0.1744
300.4282	0.1699
300.6403	0.1643
300.8525	0.1692
301.0646	0.1637
301.2767	0.1723
301.4888	0.1598
301.7009	0.1685
301.913	0.1553
302.125	0.1663
302.3371	0.1756
302.5491	0.1723
302.7612	0.1727
302.9732	0.1685
303.1852	0.1688
303.3972	0.1545
303.6092	0.168
303.8211	0.1506
304.0331	0.1494
304.245	0.162
304.457	0.1441
304.6689	0.1532
304.8808	0.1717
305.0927	0.165
305.3046	0.1448
305.5164	0.1596
305.7283	0.1598
305.9401	0.1492
306.152	0.1494
306.3638	0.1569
306.5756	0.1489
306.7874	0.1475
306.9992	0.1443
307.2109	0.1372
307.4227	0.1313
307.6344	0.141
307.8462	0.1458
308.0579	0.1353
308.2696	0.1382
308.4813	0.1264
308.693	0.1327
308.9046	0.1257
309.1163	0.1273
309.328	0.1383
309.5396	0.1218
309.7512	0.1187
309.9628	0.1188
310.1744	0.1209
310.386	0.1204
310.5976	0.1231
310.8091	0.1207
311.0207	0.1157
311.2322	0.1229
311.4437	0.1184
311.6552	0.1111
311.8667	0.1112
312.0782	0.1002
312.2897	0.1029
312.5012	0.1078
312.7126	0.0935
312.924	0.0906
313.1355	0.112
313.3469	0.1077
313.5583	0.1081
313.7696	0.1031
313.981	0.1093
314.1924	0.097
314.4037	0.0961
314.6151	0.0966
314.8264	0.0936
315.0377	0.102
315.249	0.1023
315.4603	0.1051
315.6716	0.0971
315.8828	0.0871
316.0941	0.0991
316.3053	0.0851
316.5165	0.0949
316.7277	0.0832
316.9389	0.105
317.1501	0.0937
317.3613	0.0906
317.5724	0.0856
317.7836	0.0973
317.9947	0.0894
318.2058	0.0947
318.417	0.0842
318.6281	0.0861
318.8391	0.0986
319.0502	0.0917
319.2613	0.0916
319.4723	0.1026
319.6834	0.1007
319.8944	0.0921
320.1054	0.0948
320.3164	0.0902
320.5274	0.0863
320.7383	0.0861
320.9493	0.0876
321.1602	0.1055
321.3712	0.0846
321.5821	0.0943
321.793	0.0896
322.0039	0.0865
322.2148	0.0931
322.4257	0.1034
322.6365	0.1108
322.8474	0.1028
323.0582	0.0925
323.269	0.0866
323.4798	0.0978
323.6906	0.1039
323.9014	0.1014
324.1122	0.0966
324.3229	0.0992
324.5337	0.1096
324.7444	0.0911
324.9551	0.1073
325.1658	0.1003
325.3765	0.0964
325.5872	0.1028
325.7979	0.0998
326.0085	0.0949
326.2192	0.1048
326.4298	0.1043
326.6404	0.0878
326.851	0.0904
327.0616	0.0909
327.2722	0.0994
327.4828	0.0997
327.6933	0.0897
327.9039	0.1034
328.1144	0.1124
328.3249	0.0979
328.5354	0.0847
328.7459	0.0972
328.9564	0.0809
329.1669	0.0911
329.3773	0.0903
329.5878	0.1036
329.7982	0.0946
330.0086	0.0963
330.219	0.1028
330.4294	0.0982
330.6398	0.0869
330.8502	0.1014
331.0605	0.104
331.2708	0.0903
331.4812	0.1021
331.6915	0.0966
331.9018	0.1015
332.1121	0.0905
332.3224	0.1041
332.5326	0.1079
332.7429	0.0977
332.9531	0.1041
333.1633	0.1024
333.3735	0.105
333.5837	0.0998
333.7939	0.0907
334.0041	0.1062
334.2143	0.1124
334.4244	0.1094
334.6346	0.0992
334.8447	0.1181
335.0548	0.0883
335.2649	0.1076
335.475	0.1
335.685	0.1011
335.8951	0.109
336.1051	0.1047
336.3152	0.1102
336.5252	0.0989
336.7352	0.1217
336.9452	0.0998
337.1552	0.1055
337.3652	0.1069
337.5751	0.1111
337.7851	0.1071
337.995	0.091
338.2049	0.1166
338.4148	0.1069
338.6247	0.114
338.8346	0.1064
339.0445	0.0929
339.2543	0.1024
339.4642	0.1125
339.674	0.0969
339.8838	0.1131
340.0936	0.1056
340.3034	0.1085
340.5132	0.1082
340.7229	0.1154
340.9327	0.1065
341.1424	0.1082
341.3522	0.1211
341.5619	0.1113
341.7716	0.1102
341.9813	0.1188
342.1909	0.1057
342.4006	0.1225
342.6102	0.1268
342.8199	0.1208
343.0295	0.1281
343.2391	0.117
343.4487	0.129
343.6583	0.1243
343.8679	0.1138
344.0774	0.1204
344.287	0.1234
344.4965	0.1035
344.706	0.1347
344.9155	0.122
345.125	0.1155
345.3345	0.1191
345.544	0.1196
345.7534	0.1202
345.9629	0.1187
346.1723	0.1263
346.3817	0.111
346.5911	0.1176
346.8005	0.1291
347.0099	0.1294
347.2193	0.1338
347.4286	0.1318
347.638	0.1423
347.8473	0.1395
348.0566	0.1329
348.2659	0.1418
348.4752	0.1282
348.6845	0.1264
348.8937	0.1369
349.103	0.1352
349.3122	0.1265
349.5214	0.1376
349.7306	0.1346
349.9398	0.1341
350.149	0.1303
350.3582	0.1374
350.5674	0.1392
350.7765	0.1375
350.9856	0.1376
351.1948	0.1471
351.4039	0.129
351.613	0.1296
351.822	0.139
352.0311	0.1577
352.2402	0.136
352.4492	0.1331
352.6582	0.1467
352.8672	0.1343
353.0762	0.1297
353.2852	0.1567
353.4942	0.1419
353.7032	0.1389
353.9121	0.1338
354.1211	0.1575
354.33	0.1376
354.5389	0.1486
354.7478	0.1398
354.9567	0.146
355.1655	0.1304
355.3744	0.1463
355.5833	0.1526
355.7921	0.1523
356.0009	0.145
356.2097	0.1779
356.4185	0.1592
356.6273	0.1627
356.8361	0.1555
357.0448	0.1499
357.2536	0.1622
357.4623	0.143
357.671	0.1672
357.8797	0.1653
358.0884	0.162
358.2971	0.1533
358.5057	0.1675
358.7144	0.1759
358.923	0.1597
359.1316	0.1726
359.3402	0.1699
359.5488	0.1595
359.7574	0.156
359.966	0.1851
360.1746	0.1778
360.3831	0.1803
360.5916	0.167
360.8002	0.1605
361.0087	0.1967
361.2172	0.1618
361.4256	0.1723
361.6341	0.1805
361.8426	0.1987
362.051	0.1934
362.2594	0.1903
362.4678	0.1796
362.6762	0.2193
362.8846	0.191
363.093	0.1872
363.3014	0.1826
363.5097	0.1701
363.718	0.1808
363.9264	0.199
364.1347	0.1867
364.343	0.1913
364.5513	0.2006
364.7595	0.1936
364.9678	0.1993
365.176	0.1983
365.3842	0.202
365.5925	0.1968
365.8007	0.2123
366.0089	0.1942
366.217	0.2055
366.4252	0.1968
366.6333	0.219
366.8415	0.1993
367.0496	0.1966
367.2577	0.2202
367.4658	0.219
367.6739	0.2134
367.882	0.2178
368.09	0.1984
368.2981	0.2126
368.5061	0.2133
368.7141	0.2128
368.9221	0.2227
369.1301	0.2227
369.3381	0.2034
369.5461	0.2073
369.754	0.2107
369.962	0.2216
370.1699	0.2116
370.3778	0.2161
370.5857	0.2089
370.7936	0.2264
371.0015	0.2344
371.2093	0.2293
371.4172	0.2338
371.625	0.2075
371.8328	0.2185
372.0406	0.2139
372.2484	0.2295
372.4562	0.2125
372.664	0.2222
372.8717	0.236
373.0795	0.1972
373.2872	0.2284
373.4949	0.223
373.7026	0.2345
373.9103	0.2437
374.118	0.2527
374.3256	0.2369
374.5333	0.2363
374.7409	0.2075
374.9485	0.2435
375.1561	0.2377
375.3637	0.2456
375.5713	0.2382
375.7789	0.233
375.9864	0.2375
376.194	0.2343
376.4015	0.246
376.609	0.2312
376.8165	0.2361
377.024	0.2379
377.2315	0.2393
377.4389	0.2507
377.6464	0.2542
377.8538	0.2448
378.0612	0.2443
378.2686	0.2424
378.476	0.2579
378.6834	0.2489
378.8908	0.2527
379.0981	0.2542
379.3055	0.2566
379.5128	0.2524
379.7201	0.2496
379.9274	0.251
380.1347	0.2608
380.342	0.2597
380.5492	0.2607
380.7565	0.2655
380.9637	0.2586
381.1709	0.2651
381.3781	0.2522
381.5853	0.2623
381.7925	0.2733
381.9997	0.2637
382.2068	0.2748
382.4139	0.2768
382.6211	0.2463
382.8282	0.2435
383.0353	0.2598
383.2424	0.2485
383.4494	0.2654
383.6565	0.2506
383.8635	0.2606
384.0706	0.2567
384.2776	0.26
384.4846	0.2524
384.6916	0.2708
384.8986	0.2503
385.1055	0.2575
385.3125	0.266
385.5194	0.2556
385.7263	0.2776
385.9333	0.2565
386.1402	0.27
386.347	0.2629
386.5539	0.2515
386.7608	0.2733
386.9676	0.2621
387.1744	0.2649
387.3813	0.2393
387.5881	0.2531
387.7948	0.2655
388.0016	0.2602
388.2084	0.2486
388.4151	0.2542
388.6219	0.27
388.8286	0.2596
389.0353	0.2728
389.242	0.2542
389.4487	0.2487
389.6553	0.2544
389.862	0.2437
390.0686	0.2419
390.2753	0.2617
390.4819	0.2512
390.6885	0.2482
390.8951	0.2606
391.1016	0.2602
391.3082	0.243
391.5147	0.2416
391.7213	0.2409
391.9278	0.2585
392.1343	0.2394
392.3408	0.2371
392.5473	0.2424
392.7537	0.2421
392.9602	0.2383
393.1666	0.2334
393.373	0.2505
393.5794	0.254
393.7858	0.2488
393.9922	0.2264
394.1986	0.2499
394.4049	0.2371
394.6113	0.2315
394.8176	0.2305
395.0239	0.2312
395.2302	0.2317
395.4365	0.2282
395.6428	0.2406
395.8491	0.2376
396.0553	0.2243
396.2615	0.2144
396.4678	0.2234
396.674	0.2207
396.8802	0.2323
397.0863	0.2395
397.2925	0.2056
397.4987	0.208
397.7048	0.2217
397.9109	0.2281
398.117	0.2317
398.3231	0.21
398.5292	0.2418
398.7353	0.2288
398.9413	0.2171
399.1474	0.23
399.3534	0.2171
399.5594	0.2078
399.7654	0.2266
399.9714	0.2397
400.1774	0.2273
400.3833	0.2242
400.5893	0.2265
400.7952	0.224
401.0011	0.231
401.207	0.234
401.4129	0.2178
401.6188	0.2276
401.8247	0.2205
402.0305	0.2136
402.2364	0.2031
402.4422	0.2287
402.648	0.252
402.8538	0.2351
403.0596	0.2236
403.2654	0.2249
403.4711	0.2119
403.6768	0.233
403.8826	0.238
404.0883	0.233
404.294	0.2286
404.4997	0.2338
404.7054	0.2275
404.911	0.2101
405.1167	0.2146
405.3223	0.2167
405.5279	0.2361
405.7335	0.2183
405.9391	0.2177
406.1447	0.2086
406.3502	0.2458
406.5558	0.2203
406.7613	0.2424
406.9668	0.2303
407.1724	0.2169
407.3778	0.2045
407.5833	0.2115
407.7888	0.2046
407.9942	0.2343
408.1997	0.2189
408.4051	0.2183
408.6105	0.2229
408.8159	0.2144
409.0213	0.2013
409.2267	0.2419
409.432	0.2136
409.6374	0.2321
409.8427	0.2017
410.048	0.2191
410.2533	0.2086
410.4586	0.2295
410.6639	0.2114
410.8691	0.2007
411.0744	0.2131
411.2796	0.1939
411.4848	0.2205
411.69	0.2233
411.8952	0.2523
412.1004	0.1926
412.3056	0.2286
412.5107	0.2129
412.7158	0.2269
412.921	0.2044
413.1261	0.226
413.3312	0.21
413.5362	0.2088
413.7413	0.2138
413.9464	0.217
414.1514	0.205
414.3564	0.215
414.5614	0.2086
414.7664	0.2198
414.9714	0.2198
415.1764	0.2374
415.3813	0.2287
415.5863	0.2241
415.7912	0.232
415.9961	0.221
416.201	0.2154
416.4059	0.2084
416.6108	0.2156
416.8156	0.2174
417.0205	0.2153
417.2253	0.2164
417.4301	0.231
417.6349	0.2173
417.8397	0.1969
418.0445	0.215
418.2492	0.1979
418.454	0.2152
418.6587	0.2094
418.8634	0.2171
419.0681	0.1982
419.2728	0.1825
419.4775	0.2084
419.6822	0.2171
419.8868	0.1878
420.0915	0.1989
420.2961	0.1807
420.5007	0.209
420.7053	0.2015
420.9099	0.2079
421.1144	0.2033
421.319	0.1974
421.5235	0.2045
421.728	0.2047
421.9325	0.1953
422.137	0.1947
422.3415	0.1864
422.546	0.201
422.7504	0.1948
422.9549	0.1961
423.1593	0.2144
423.3637	0.197
423.5681	0.1898
423.7725	0.1865
423.9769	0.1848
424.1812	0.1896
424.3856	0.1774
424.5899	0.1893
424.7942	0.1798
424.9985	0.1939
425.2028	0.1647
425.4071	0.2128
425.6113	0.1754
425.8156	0.1784
426.0198	0.1942
426.224	0.1772
426.4282	0.1793
426.6324	0.1676
426.8366	0.1825
427.0407	0.1791
427.2449	0.1759
427.449	0.1688
427.6531	0.1562
427.8572	0.1646
428.0613	0.1766
428.2654	0.1659
428.4694	0.1769
428.6735	0.1489
428.8775	0.1886
429.0815	0.1609
429.2855	0.15
429.4895	0.1714
429.6935	0.1546
429.8975	0.1643
430.1014	0.1654
430.3053	0.144
430.5093	0.1462
430.7132	0.1434
430.9171	0.1518
431.1209	0.1519
431.3248	0.1445
431.5286	0.1527
431.7325	0.1458
431.9363	0.1364
432.1401	0.1642
432.3439	0.1456
432.5477	0.1073
432.7514	0.1285
432.9552	0.1252
433.1589	0.1261
433.3627	0.1114
433.5664	0.1195
433.7701	0.1382
433.9737	0.1185
434.1774	0.1096
434.3811	0.1304
434.5847	0.1198
434.7883	0.1157
434.9919	0.1167
435.1955	0.1192
435.3991	0.1088
435.6027	0.1225
435.8062	0.1154
436.0098	0.1188
436.2133	0.1111
436.4168	0.1174
436.6203	0.1043
436.8238	0.1133
437.0272	0.0972
437.2307	0.1102
437.4341	0.1089
437.6375	0.1186
437.841	0.0812
438.0443	0.1098
438.2477	0.0962
438.4511	0.0881
438.6545	0.0943
438.8578	0.1032
439.0611	0.1046
439.2644	0.0852
439.4677	0.0807
439.671	0.0894
439.8743	0.0875
440.0775	0.0852
440.2808	0.0878
440.484	0.0755
440.6872	0.0579
440.8904	0.0851
441.0936	0.0948
441.2967	0.0834
441.4999	0.0771
441.703	0.0583
441.9062	0.0709
442.1093	0.0677
442.3124	0.0697
442.5155	0.0521
442.7185	0.0739
442.9216	0.0457
443.1246	0.0589
443.3276	0.0599
443.5307	0.0574
443.7337	0.0646
443.9366	0.0622
444.1396	0.0645
444.3426	0.0573
444.5455	0.0427
444.7484	0.05
444.9513	0.0481
445.1542	0.0675
445.3571	0.0567
445.56	0.0579
445.7628	0.0346
445.9657	0.0466
446.1685	0.0625
446.3713	0.0386
446.5741	0.0418
446.7769	0.0374
446.9797	0.0578
447.1824	0.0451
447.3852	0.027
447.5879	0.0419
447.7906	0.0501
447.9933	0.0489
448.196	0.0341
448.3986	0.0322
448.6013	0.0282
448.8039	0.0319
449.0066	0.0404
449.2092	0.0477
449.4118	0.0305
449.6143	0.0197
449.8169	0.0298
450.0195	0.0228
450.222	0.014
450.4245	0.0154
450.627	0.029
450.8295	0.0369
451.032	0.0247
451.2345	0.0152
451.4369	0.0422
451.6394	0.0401
451.8418	0.0053
452.0442	0.0178
452.2466	0.0407
452.449	0.0074
452.6513	0.0152
452.8537	0.0195
453.056	0.0039
453.2583	0.0224
453.4607	0.0113
453.663	0.02
453.8652	0.0197
454.0675	0.0123
454.2697	0.028
454.472	0.0076
454.6742	0.0104
454.8764	0.0082
455.0786	0.0113
455.2808	0.0134
455.4829	0.0126
455.6851	0.0276
455.8872	0.0122
456.0893	0.0241
456.2915	0.0027
456.4935	0.0207
456.6956	0.0094
456.8977	0.0137
457.0997	0.0109
457.3018	-0.0003
457.5038	0.0264
457.7058	0.0081
457.9078	-0.0064
458.1098	0.0152
458.3117	0.0197
458.5137	0.0121
458.7156	0.0124
458.9175	-0.0063
459.1194	0.0196
459.3213	0.0074
459.5232	-0.0063
459.725	-0.0066
459.9269	-0.0016
460.1287	-0.0105
460.3305	0.0107
460.5323	0.003
460.7341	0.0016
460.9359	0.0101
461.1376	0.01
461.3394	-0.0036
461.5411	-0.004
461.7428	0.0041
461.9445	0.0226
462.1462	0.0177
462.3479	-0.0047
462.5495	0.0025
462.7512	0.0122
462.9528	-0.0021
463.1544	-0.0088
463.356	-0.0013
463.5576	0.0172
463.7592	-0.0028
463.9607	0.0121
464.1623	0.0147
464.3638	0.0083
464.5653	-0.0112
464.7668	-0.0107
464.9683	0.0087
465.1697	0.0047
465.3712	-0.0021
465.5726	-0.0066
465.7741	0.0018
465.9755	-0.0171
466.1769	-0.0117
466.3782	0.0021
466.5796	0.0028
466.7809	0.0129
466.9823	-0.0139
467.1836	-0.0022
467.3849	-0.0115
467.5862	0.0093
467.7875	-0.0167
467.9887	0.0008
468.19	-0.0109
468.3912	-0.0152
468.5924	-0.0106
468.7936	-0.0047
468.9948	-0.0146
469.196	0.001
469.3972	-0.031
469.5983	-0.0005
469.7994	-0.0044
470.0006	-0.0039
470.2017	-0.0146
470.4027	-0.0092
470.6038	0.0015
470.8049	-0.025
471.0059	-0.0043
471.2069	-0.037
471.408	0.0059
471.6089	0.0035
471.8099	-0.0144
472.0109	0.0052
472.2119	-0.0178
472.4128	-0.0258
472.6137	0.0054
472.8146	-0.02
473.0155	-0.0177
473.2164	-0.0115
473.4173	-0.0006
473.6181	-0.0019
473.819	0.0026
474.0198	-0.0134
474.2206	-0.0184
474.4214	-0.0104
474.6222	-0.015
474.8229	-0.0178
475.0237	-0.0239
475.2244	-0.0183
475.4251	-0.0139
475.6258	-0.0154
475.8265	-0.0142
476.0272	0.0031
476.2278	0.0006
476.4285	-0.0141
476.6291	-0.0052
476.8297	-0.0202
477.0303	-0.0115
477.2309	-0.0044
477.4315	-0.0249
477.632	-0.0088
477.8326	-0.009
478.0331	0.0081
478.2336	-0.0076
478.4341	-0.0091
478.6346	-0.0064
478.8351	-0.0133
479.0355	0.0025
479.236	-0.0156
479.4364	-0.0083
479.6368	-0.0131
479.8372	-0.014
480.0376	-0.0136
480.2379	-0.0395
480.4383	-0.0235
480.6386	0.0005
480.8389	-0.0059
481.0392	-0.0164
481.2395	-0.0112
481.4398	-0.0012
481.6401	-0.0082
481.8403	-0.0107
482.0405	-0.0151
482.2408	-0.0158
482.441	-0.0001
482.6411	-0.0111
482.8413	-0.0148
483.0415	-0.0121
483.2416	-0.0124
483.4417	-0.0199
483.6419	-0.0187
483.8419	-0.0108
484.042	-0.0028
484.2421	0.0051
484.4422	-0.0102
484.6422	-0.0091
484.8422	-0.0041
485.0422	-0.025
485.2422	-0.0051
485.4422	-0.0187
485.6422	-0.0064
485.8421	-0.013
486.042	-0.0087
486.242	-0.0074
486.4419	-0.0192
486.6417	-0.0188
486.8416	-0.0086
487.0415	-0.0079
487.2413	-0.0029
487.4411	-0.001
487.641	-0.0154
487.8408	-0.0071
488.0405	-0.0103
488.2403	-0.0127
488.4401	0.0013
488.6398	-0.0062
488.8395	-0.0167
489.0392	-0.0085
489.2389	-0.0138
489.4386	-0.0154
489.6383	-0.0144
489.8379	-0.0059
490.0376	-0.0111
490.2372	-0.0217
490.4368	-0.0123
490.6364	-0.0069
490.836	-0.0198
491.0355	-0.0145
491.2351	-0.0056
491.4346	-0.0126
491.6341	-0.016
491.8336	-0.0116
492.0331	-0.0187
492.2326	-0.0144
492.432	-0.0246
492.6315	-0.0049
492.8309	-0.0159
493.0303	-0.0185
493.2297	-0.013
493.4291	-0.0145
493.6284	-0.004
493.8278	-0.0098
494.0271	-0.0045
494.2264	-0.0013
494.4257	-0.0186
494.625	-0.0074
494.8243	-0.0279
495.0236	-0.0113
495.2228	-0.0213
495.422	-0.0061
495.6213	-0.0154
495.8205	-0.007
496.0196	-0.0092
496.2188	-0.0007
496.418	-0.0122
496.6171	-0.0189
496.8162	-0.0261
497.0153	-0.0065
497.2144	-0.0165
497.4135	-0.0113
497.6126	-0.0127
497.8116	-0.012
498.0107	-0.01
498.2097	-0.0215
498.4087	-0.0197
498.6077	-0.0137
498.8067	-0.0143
499.0056	-0.0053
499.2046	-0.0098
499.4035	-0.0343
499.6024	-0.0054
499.8013	-0.0004
500.0002	-0.0126
500.199	-0.0028
500.3979	-0.0154
500.5967	-0.0267
500.7956	-0.0074
500.9944	-0.0062
501.1932	-0.0256
501.3919	-0.0222
501.5907	-0.0188
501.7895	-0.0164
501.9882	-0.0164
502.1869	-0.0252
502.3856	-0.0154
502.5843	-0.0152
502.783	-0.0148
502.9816	-0.0083
503.1803	-0.0148
503.3789	-0.0179
503.5775	-0.0046
503.7761	-0.0155
503.9747	-0.0015
504.1732	-0.0048
504.3718	-0.0081
504.5703	-0.006
504.7689	-0.0152
504.9674	0.0027
505.1658	-0.021
505.3643	-0.0103
505.5628	-0.0046
505.7612	-0.0144
505.9597	0.0069
506.1581	-0.0212
506.3565	-0.0032
506.5549	-0.009
506.7532	-0.0201
506.9516	-0.0152
507.1499	-0.0111
507.3482	-0.0203
507.5465	-0.0251
507.7448	-0.0123
507.9431	-0.0072
508.1414	-0.0056
508.3396	-0.0164
508.5379	-0.0061
508.7361	-0.0237
508.9343	-0.0076
509.1325	-0.0101
509.3306	-0.0192
509.5288	-0.0166
509.7269	-0.0211
509.9251	-0.0241
510.1232	-0.0206
510.3213	-0.0107
510.5193	-0.0096
510.7174	-0.029
510.9154	-0.0104
511.1135	-0.0078
511.3115	-0.0112
511.5095	-0.0166
511.7075	-0.0092
511.9055	-0.0065
512.1034	-0.018
512.3014	-0.0056
512.4993	-0.0037
512.6972	-0.0183
512.8951	-0.024
513.093	-0.012
513.2908	-0.0034
513.4887	-0.0046
513.6865	-0.0139
513.8844	-0.0116
514.0822	-0.0179
514.2799	-0.0188
514.4777	-0.0238
514.6755	-0.0179
514.8732	-0.0106
515.0709	-0.011
515.2687	-0.0121
515.4664	-0.0149
515.664	-0.0077
515.8617	-0.0073
516.0594	-0.0118
516.257	-0.0071
516.4546	-0.0219
516.6522	-0.0023
516.8498	-0.0129
517.0474	-0.0006
517.2449	-0.0081
517.4425	-0.0228
517.64	-0.0181
517.8375	-0.0056
518.035	-0.0133
518.2325	-0.0152
518.43	-0.0171
518.6274	-0.0129
518.8249	-0.0126
519.0223	-0.0021
519.2197	-0.0176
519.4171	-0.0086
519.6145	-0.0222
519.8118	-0.0053
520.0092	-0.0145
520.2065	-0.0202
520.4038	-0.031
520.6011	-0.0054
520.7984	-0.0208
520.9956	-0.014
521.1929	-0.0153
521.3901	-0.0081
521.5874	-0.0163
521.7846	-0.0134
521.9818	-0.0074
522.1789	-0.0182
522.3761	-0.0084
522.5732	-0.0214
522.7704	-0.0117
522.9675	-0.0144
523.1646	-0.0148
523.3617	-0.0104
523.5587	-0.0039
523.7558	-0.0047
523.9528	-0.0074
524.1498	-0.0203
524.3468	-0.0162
524.5438	-0.0124
524.7408	-0.0105
524.9378	-0.0012
525.1347	-0.0087
525.3316	0.0044
525.5285	-0.0255
525.7254	-0.0104
525.9223	-0.0018
526.1192	-0.0125
526.316	-0.0212
526.5129	-0.0061
526.7097	0.0006
526.9065	-0.0121
527.1033	-0.018
527.3	-0.0062
527.4968	-0.0062
527.6935	0.0058
527.8903	-0.0138
528.087	-0.0126
528.2837	-0.0101
528.4804	-0.0077
528.677	-0.0073
528.8737	0.0081
529.0703	-0.0081
529.2669	-0.0098
529.4635	-0.006
529.6601	-0.011
529.8567	-0.0099
530.0532	-0.01
530.2498	-0.0074
530.4463	-0.0058
530.6428	-0.0127
530.8393	-0.0035
531.0358	-0.0105
531.2322	-0.0016
531.4287	-0.011
531.6251	-0.0181
531.8215	0.0021
532.0179	-0.0097
532.2143	-0.0075
532.4107	-0.0074
532.607	-0.0075
532.8034	-0.0025
532.9997	-0.0065
533.196	-0.0074
533.3923	-0.0111
533.5886	-0.0083
533.7848	-0.0036
533.9811	-0.0031
534.1773	0.002
534.3735	-0.0027
534.5697	-0.0027
534.7659	-0.0029
534.9621	0.0015
535.1582	-0.0112
535.3544	-0.0113
535.5505	-0.0195
535.7466	-0.0054
535.9427	-0.0093
536.1387	-0.0032
536.3348	-0.0087
536.5308	0.0035
536.7269	-0.0159
536.9229	-0.008
537.1189	-0.0001
537.3148	-0.0127
537.5108	-0.0067
537.7068	-0.0024
537.9027	-0.0129
538.0986	-0.0062
538.2945	-0.0101
538.4904	-0.0138
538.6863	-0.0114
538.8821	-0.0123
539.078	-0.0077
539.2738	-0.008
539.4696	-0.0131
539.6654	-0.0014
539.8611	0.0047
540.0569	-0.0105
540.2526	-0.0158
540.4484	-0.0154
540.6441	0.0074
540.8398	-0.0044
541.0355	-0.0038
541.2311	-0.0021
541.4268	-0.0121
541.6224	0.0027
541.818	-0.0097
542.0136	-0.0146
542.2092	-0.0025
542.4048	-0.0032
542.6003	-0.0046
542.7959	-0.0125
542.9914	-0.0071
543.1869	-0.0009
543.3824	-0.0118
543.5779	-0.0157
543.7734	-0.0076
543.9688	-0.0133
544.1642	-0.003
544.3596	-0.005
544.555	-0.0046
544.7504	-0.0052
544.9458	-0.0105
545.1411	-0.0054
545.3365	-0.0114
545.5318	-0.012
545.7271	-0.0064
545.9224	-0.003
546.1177	-0.0052
546.3129	-0.0038
546.5081	-0.0125
546.7034	-0.0035
546.8986	-0.0033
547.0938	-0.0086
547.289	-0.0075
547.4841	0.0002
547.6793	0.0021
547.8744	-0.0146
548.0695	-0.0094
548.2646	-0.0089
548.4597	-0.0128
548.6548	-0.0062
548.8498	-0.0118
549.0448	0.0006
549.2399	-0.0064
549.4349	0.0078
549.6298	-0.0056
549.8248	-0.0082
550.0198	-0.0097
550.2147	-0.0069
550.4096	-0.0178
550.6045	-0.0032
550.7994	0.0009
550.9943	-0.0027
551.1892	0.0002
551.384	-0.011
551.5788	-0.0145
551.7737	-0.0028
551.9685	-0.0082
552.1632	-0.0036
552.358	-0.0036
552.5528	-0.0076
552.7475	-0.0092
552.9422	-0.0037
553.1369	-0.0029
553.3316	-0.006
553.5263	-0.0083
553.7209	0.0101
553.9156	-0.0161
554.1102	-0.0044
554.3048	-0.0145
554.4994	-0.0043
554.694	-0.0116
554.8885	-0.0083
555.0831	-0.0035
555.2776	-0.0025
555.4721	-0.0013
555.6666	-0.0017
555.8611	0.0107
556.0555	-0.0079
556.25	-0.005
556.4444	-0.02
556.6388	-0.002
556.8332	-0.0072
557.0276	-0.0057
557.222	-0.0127
557.4163	0.0013
557.6107	-0.0094
557.805	-0.0052
557.9993	-0.0062
558.1936	-0.001
558.3879	-0.0083
558.5821	0.0022
558.7764	-0.009
558.9706	0.0002
559.1648	-0.0017
559.359	-0.0122
559.5532	-0.013
559.7473	-0.0026
559.9415	-0.001
560.1356	-0.0113
560.3297	-0.0105
560.5238	-0.0122
560.7179	-0.0004
560.9119	-0.0022
561.106	-0.0076
561.3	-0.0104
561.494	-0.0011
561.688	-0.0048
561.882	-0.0138
562.076	-0.0114
562.2699	-0.0045
562.4639	-0.0043
562.6578	-0.0056
562.8517	-0.0042
563.0456	-0.0005
563.2395	0.0007
563.4333	-0.0079
563.6272	0.0079
563.821	-0.0072
564.0148	0.0006
564.2086	-0.0056
564.4024	-0.0104
564.5961	-0.0095
564.7899	0.0033
564.9836	-0.0132
565.1773	-0.0097
565.371	-0.0033
565.5647	-0.0001
565.7584	-0.004
565.952	0
566.1456	-0.0027
566.3393	-0.0068
566.5329	-0.0038
566.7264	0.0004
566.92	-0.0097
567.1136	-0.0012
567.3071	-0.0076
567.5006	0.0018
567.6941	0.0073
567.8876	-0.0002
568.0811	-0.0008
568.2745	-0.002
568.468	0.0007
568.6614	-0.0001
568.8548	-0.0002
569.0482	-0.0104
569.2416	-0.0036
569.4349	-0.002
569.6283	0.0022
569.8216	-0.0031
570.0149	-0.0057
570.2082	0.0005
570.4015	0.004
570.5947	0.0047
570.788	-0.0024
570.9812	0.0008
571.1744	0.0015
571.3676	0.0023
571.5608	-0.0008
571.754	0.0018
571.9471	0.0019
572.1402	-0.006
572.3333	-0.0014
572.5264	-0.0069
572.7195	-0.0016
572.9126	0
573.1057	-0.001
573.2987	-0.0019
573.4917	0.003
573.6847	-0.0076
573.8777	0.0025
574.0707	-0.0028
574.2636	-0.0061
574.4566	-0.0022
574.6495	0.0013
574.8424	-0.0093
575.0353	-0.0062
575.2281	0.0089
575.421	-0.0012
575.6138	-0.0014
575.8067	0.0008
575.9995	0.0002
576.1923	-0.0051
576.385	0.0026
576.5778	-0.0029
576.7706	-0.0043
576.9633	-0.002
577.156	-0.0013
577.3487	0.0002
577.5414	-0.001
577.734	-0.0009
577.9267	0.005
578.1193	-0.0103
578.3119	-0.0075
578.5045	-0.002
578.6971	0.0022
578.8897	0.0043
579.0822	-0.0004
579.2747	0.005
579.4673	-0.0083
579.6598	-0.0061
579.8522	-0.0093
580.0447	-0.0062
580.2372	-0.0033
580.4296	0.0017
580.622	-0.0008
580.8144	-0.0014
581.0068	-0.0041
581.1992	-0.0089
581.3915	-0.0062
581.5839	-0.0062
581.7762	-0.0051
581.9685	0.0015
582.1608	0.0025
582.353	-0.0002
582.5453	0.0004
582.7375	0.0015
582.9298	-0.0052
583.122	-0.0005
583.3142	-0.0031
583.5063	-0.0009
583.6985	0.0053
583.8906	-0.0043
584.0827	-0.0082
584.2749	0.0002
584.4669	0.0002
584.659	0.0014
584.8511	-0.0057
585.0431	-0.0059
585.2352	0.0008
585.4272	-0.0039
585.6192	0.0011
585.8111	0.0004
586.0031	-0.002
586.195	-0.003
586.387	0.0047
586.5789	-0.0017
586.7708	0.0091
586.9627	-0.0055
587.1545	-0.0057
587.3464	0.0018
587.5382	0.0019
587.73	0.0032
587.9218	-0.0011
588.1136	0.0048
588.3053	0.0019
588.4971	-0.0097
588.6888	-0.0079
588.8805	-0
589.0722	0.0036
589.2639	0.0023
589.4556	-0.0027
589.6472	0.0028
589.8389	-0.009
590.0305	0.0005
590.2221	0.0009
590.4137	-0.0103
590.6052	0.0063
590.7968	-0.0015
590.9883	-0.001
591.1798	0.0017
591.3713	-0.0004
591.5628	0.0011
591.7543	0.005
591.9458	0.0013
592.1372	0.0048
592.3286	0.0059
592.52	0.0028
592.7114	0.0013
592.9028	-0.0067
593.0941	-0.0002
593.2855	0.0013
593.4768	-0.0059
593.6681	-0.0106
593.8594	-0.0073
594.0506	-0.0023
594.2419	0.0085
594.4331	0.0073
594.6244	0.0012
594.8156	-0.0072
595.0067	0.0028
595.1979	0.0021
595.3891	0.005
595.5802	-0.0015
595.7713	-0.0055
595.9624	-0.0051
596.1535	0.0112
596.3446	-0.0026
596.5357	-0.0047
596.7267	0.0031
596.9177	-0.002
597.1087	-0.0091
597.2997	-0.0003
597.4907	0.0028
597.6817	-0.0036
597.8726	0.0047
598.0635	-0.0015
598.2544	0.0035
598.4453	-0.0042
598.6362	-0.0024
598.827	-0.0032
599.0179	0.0066
599.2087	0.0037
599.3995	-0.0029
599.5903	0.0003
599.7811	-0.0017
599.9718	0.0014
600.1626	-0.005
600.3533	-0.0097
600.544	-0.0024
600.7347	0.0023
600.9254	0.0023
601.116	-0.0076
601.3067	-0.0018
601.4973	-0.008
601.6879	0.0055
601.8785	-0.0034
602.0691	-0.001
602.2596	0.006
602.4502	0.0028
602.6407	0.0002
602.8312	-0.0038
603.0217	-0.0059
603.2122	-0.0027
603.4027	-0.0026
603.5931	-0.0022
603.7835	0.0002
603.9739	0.0034
604.1643	-0.0022
604.3547	-0.0007
604.5451	0.0015
604.7354	-0.0013
604.9257	0.0003
605.116	0.0022
605.3063	0.004
605.4966	0.0005
605.6869	-0.0029
605.8771	0.0078
606.0673	-0.0017
606.2575	0.009
606.4477	0.0053
606.6379	-0.0009
606.8281	-0.0017
607.0182	0.0006
607.2083	0.0105
607.3985	-0.0017
607.5885	-0.0022
607.7786	-0.0035
607.9687	-0.0045
608.1587	-0.0023
608.3488	0.0013
608.5388	-0.0007
608.7288	-0.0041
608.9187	-0.0029
609.1087	-0.0052
609.2986	-0.0027
609.4886	-0.0006
609.6785	0.0002
609.8684	0.002
610.0582	0.0029
610.2481	0.0011
610.4379	0.0082
610.6278	-0.0017
610.8176	-0
611.0074	0.0013
611.1971	0.0076
611.3869	0.0003
611.5766	-0.0079
611.7664	0.0062
611.9561	0.0002
612.1458	-0.003
612.3354	-0.0039
612.5251	0.0012
612.7147	0.0044
612.9044	0.0042
613.094	-0.0146
613.2836	0.0054
613.4731	-0.0025
613.6627	0.0016
613.8522	0.0098
614.0417	0.0095
614.2313	0.0013
614.4207	-0.0005
614.6102	0.0032
614.7997	-0.0022
614.9891	-0.0022
615.1785	0.004
615.3679	-0.0044
615.5573	0.0105
615.7467	-0.0025
615.9361	0.001
616.1254	-0.0047
616.3147	0.0045
616.504	0.001
616.6933	0.0049
616.8826	0.0022
617.0718	0.0018
617.2611	-0.0061
617.4503	-0.0018
617.6395	-0.0012
617.8287	-0.0057
618.0179	0.0007
618.207	0.0078
618.3961	0.004
618.5853	-0.0058
618.7744	-0.001
618.9634	-0.0018
619.1525	0.0119
619.3416	-0.0009
619.5306	-0.0034
619.7196	0.0035
619.9086	-0.0024
620.0976	-0.0005
620.2866	-0.0034
620.4755	-0.0018
620.6645	0.0028
620.8534	0.0034
621.0423	0.0012
621.2312	0.0105
621.42	0.005
621.6089	0.0038
621.7977	0.0044
621.9865	-0.0003
622.1753	0.0031
622.3641	-0.0004
622.5529	0.0052
622.7416	0.0056
622.9303	-0.001
623.1191	0.002
623.3078	-0.0051
623.4964	0.0044
623.6851	-0.0083
623.8737	-0.0067
624.0624	0.001
624.251	-0.0016
624.4396	-0.0037
624.6282	-0.0101
624.8167	0.0026
625.0053	0.0019
625.1938	0.0086
625.3823	-0.0034
625.5708	-0.0065
625.7593	-0.0031
625.9477	-0.0012
626.1362	-0.0041
626.3246	0.0032
626.513	0.0039
626.7014	0.0029
626.8898	-0.0032
627.0781	0.0028
627.2665	-0.0017
627.4548	0.0045
627.6431	0.0008
627.8314	0.0004
628.0197	0.0013
628.2079	-0.0082
628.3962	-0.0054
628.5844	0.006
628.7726	0.0044
628.9608	0.007
629.1489	-0.0043
629.3371	0.0029
629.5252	-0.0022
629.7134	0.0138
629.9015	-0.0059
630.0895	-0.0008
630.2776	0.0098
630.4657	0.0047
630.6537	0.0016
630.8417	-0.0007
631.0297	-0.0002
631.2177	0.0013
631.4057	-0.0003
631.5936	0.0033
631.7815	0.0028
631.9695	0.0035
632.1574	0.0129
632.3452	0.013
632.5331	-0.0046
632.7209	-0.0037
632.9088	0.0074
633.0966	0.0091
633.2844	-0.0015
633.4722	-0.0005
633.6599	0.0053
633.8477	-0.0008
634.0354	-0.0004
634.2231	-0.0056
634.4108	0.0007
634.5985	0.0036
634.7861	0.0053
634.9738	0.0033
635.1614	-0.0006
635.349	0.0009
635.5366	0.0033
635.7242	0.0006
635.9117	0.01
636.0993	0.0018
636.2868	0.0029
636.4743	-0.0014
636.6618	0.0135
636.8492	0.0055
637.0367	-0.0009
637.2241	-0.0047
637.4115	-0.006
637.5989	-0.0021
637.7863	-0.0054
637.9737	-0.0016
638.161	-0
638.3484	0.0007
638.5357	0.0012
638.723	-0.0006
638.9103	0.0068
639.0975	0.0031
639.2848	-0.0025
639.472	-0.0013
639.6592	0.0057
639.8464	0.0071
640.0336	0.0063
640.2208	-0.0026
640.4079	0.0044
640.595	-0.0016
640.7821	0.003
640.9692	0.0108
641.1563	0.0069
641.3434	0.0035
641.5304	0.005
641.7174	0.0034
641.9044	0.0028
642.0914	0.0114
642.2784	0.0094
642.4653	0.0115
642.6523	0.0111
642.8392	0.0049
643.0261	0.0084
643.213	0.0074
643.3999	0.0033
643.5867	-0.0035
643.7735	0.0046
643.9604	0.0011
644.1472	0.0018
644.3339	0.0097
644.5207	-0.0027
644.7075	-0.0003
644.8942	0.0075
645.0809	0.0048
645.2676	0.0122
645.4543	0.0021
645.6409	0.0095
645.8276	-0.0009
646.0142	0.0068
646.2008	-0.0074
646.3874	0.0023
646.574	0.0018
646.7605	-0.0091
646.9471	-0.0085
647.1336	0.0007
647.3201	0.0054
647.5066	-0.0008
647.6931	0.0018
647.8795	0.0044
648.0659	0.0094
648.2524	0.0053
648.4388	0.0017
648.6252	0.0001
648.8115	0.0032
648.9979	-0.0028
649.1842	0.0036
649.3705	0.0077
649.5568	0.0005
649.7431	0.0073
649.9294	-0.0014
650.1156	0.0113
650.3018	-0.0053
650.488	0.0061
650.6742	0.0048
650.8604	-0.0021
651.0466	-0.0076
651.2327	0.0027
651.4188	-0.0043
651.6049	-0.0007
651.791	0.0015
651.9771	0.0056
652.1632	0.0006
652.3492	0.0021
652.5352	-0.0012
652.7212	-0.0047
652.9072	0.0014
653.0932	-0.0046
653.2791	-0.004
653.465	0.0019
653.651	-0.0033
653.8369	-0.0005
654.0227	-0.0046
654.2086	0.0068
654.3944	0.0079
654.5803	0.0024
654.7661	0.0009
654.9519	0.005
655.1377	-0.0081
655.3234	0.0049
655.5092	-0.0042
655.6949	-0.0049
655.8806	-0.006
656.0663	-0.0015
656.2519	-0.0015
656.4376	0.0034
656.6232	0.002
656.8088	-0.0011
656.9945	0.0035
657.18	-0.0015
657.3656	0.0049
657.5511	-0.0052
657.7367	-0.0049
657.9222	0.0112
658.1077	0.001
658.2932	0.0002
658.4786	-0.0109
658.6641	-0.0064
658.8495	-0.0021
659.0349	-0.0006
659.2203	0.0027
659.4057	0.0072
659.591	-0.0038
659.7764	-0.0022
659.9617	0.0043
660.147	0.0086
660.3323	0.0039
660.5176	0.0087
660.7028	0.0017
660.888	0.0031
661.0733	0.0025
661.2585	-0.0019
661.4436	0.0036
661.6288	-0.0008
661.8139	0.0011
661.9991	0.0052
662.1842	-0.0027
662.3693	0.0079
662.5544	-0.0014
662.7394	0.0053
662.9245	-0.0026
663.1095	0.0029
663.2945	-0.004
663.4795	-0.001
663.6644	0.0076
663.8494	0.005
664.0343	0.0045
664.2193	-0.0124
664.4042	0.0024
664.589	-0.0088
664.7739	-0.0054
664.9587	-0.0036
665.1436	0.0022
665.3284	0.001
665.5132	-0.0033
665.698	-0.0054
665.8827	0.0017
666.0675	-0.0038
666.2522	-0.0086
666.4369	0.0059
666.6216	0.0074
666.8063	-0.0046
666.9909	0.0003
667.1756	-0.0025
667.3602	0.0014
667.5448	-0.0035
667.7294	0.0029
667.9139	0.0006
668.0985	0.0089
668.283	-0.0048
668.4675	0.0018
668.652	0.0024
668.8365	-0.0012
669.0209	0.0056
669.2054	0.0058
669.3898	-0.0059
669.5742	0.001
669.7586	0.0045
669.943	0.0109
670.1273	-0.0011
670.3117	0.0036
670.496	0.0014
670.6803	0.0093
670.8646	0.0082
671.0488	-0.001
671.2331	0.0086
671.4173	0.0068
671.6015	0.0136
671.7857	0.0007
671.9699	0.0034
672.1541	0.0052
672.3382	0.0036
672.5223	-0.0006
672.7064	0.007
672.8905	0.0043
673.0746	-0.001
673.2587	-0.002
673.4427	0.0121
673.6267	0.0038
673.8107	0.0066
673.9947	0.0058
674.1787	0.0075
674.3626	-0.0044
674.5465	0.0028
674.7304	0.0019
674.9143	-0.003
675.0982	0.0093
675.2821	-0.0011
675.4659	0.0019
675.6497	0.0033
675.8335	0.0036
676.0173	0.0083
676.2011	-0.004
676.3849	-0.0058
676.5686	-0.003
676.7523	-0.0009
676.936	-0.0002
677.1197	-0.0006
677.3034	-0.0012
677.487	0.0052
677.6706	0.0022
677.8542	0.0036
678.0378	0.0007
678.2214	-0.0042
678.405	-0.0016
678.5885	-0.0053
678.772	0.0037
678.9555	0.003
679.139	0.0031
679.3225	0.0027
679.5059	0.0024
679.6894	0.0043
679.8728	0.0046
680.0562	-0.0058
680.2395	-0.0064
680.4229	-0.0025
680.6062	0.0076
680.7896	0.002
680.9729	-0.0059
681.1562	0.011
681.3394	-0.0016
681.5227	-0.0091
681.7059	0.0035
681.8891	-0.0032
682.0723	0.0065
682.2555	0.0099
682.4387	-0.0037
682.6218	0.0016
682.805	0.0063
682.9881	0.003
683.1712	0.0012
683.3542	-0.0052
683.5373	0.0094
683.7203	-0.0039
683.9034	-0.0021
684.0864	-0.0143
684.2694	-0.0031
684.4523	-0.0002
684.6353	-0.0001
684.8182	0.0048
685.0011	-0.0095
685.184	0.0007
685.3669	0.0056
685.5498	-0.003
685.7326	-0.0029
685.9154	-0.0099
686.0982	0.0066
686.281	0.0075
686.4638	0.0068
686.6465	0.0042
686.8293	0.0032
687.012	0.0058
687.1947	-0.0082
687.3774	0.002
687.56	-0.0045
687.7427	0.0026
687.9253	-0.0159
688.1079	0.0027
688.2905	0.009
688.4731	0.0031
688.6556	-0.0063
688.8382	-0.0042
689.0207	-0.0061
689.2032	-0.0093
689.3857	0.0009
689.5681	-0.0017
689.7506	-0.0068
689.933	-0.0061
690.1154	-0.0084
690.2978	0.0018
690.4802	-0.0013
690.6626	-0.0072
690.8449	-0.0117
691.0272	0.0016
691.2095	-0.0047
691.3918	-0.005
691.5741	0.0064
691.7563	-0.0036
691.9386	0.0016
692.1208	-0.0019
692.303	-0.0003
692.4852	-0.0035
692.6673	0.0024
692.8495	-0.0041
693.0316	0.0012
693.2137	-0.0003
693.3958	0.0024
693.5778	-0.0058
693.7599	0.0036
693.9419	-0.0082
694.1239	0.0011
694.3059	-0.008
694.4879	0.0024
694.6699	0.0094
694.8518	0.0059
695.0337	0.0034
695.2157	0.0091
695.3975	0.0016
695.5794	0.0054
695.7613	0.0011
695.9431	-0.005
696.1249	0.0028
696.3067	-0.0017
696.4885	0.0021
696.6703	-0.0082
696.852	0.0008
697.0337	-0.0033
697.2154	0.0083
697.3971	0.0037
697.5788	0.0056
697.7605	-0.001
697.9421	0.0045
698.1237	0.0002
698.3053	0.0014
698.4869	-0.0023
698.6685	-0.0124
698.85	-0.0046
699.0315	0.0084
699.213	0.0003
699.3945	-0.0002
699.576	0.0043
699.7575	0.0046
699.9389	0.0106
700.1203	-0.0027
700.3017	-0.0114
700.4831	-0.0078
700.6645	-0.0055
700.8458	0.0024
701.0271	-0.0011
701.2084	0.0032
701.3897	0.0024
701.571	0.0105
701.7523	-0.0039
701.9335	0.0047
702.1147	-0.0019
702.2959	0.0008
702.4771	0.0085
702.6583	0.0069
702.8394	-0.0067
703.0205	-0.0006
703.2016	-0.0114
703.3827	-0.0014
703.5638	0.0126
703.7449	0.0025
703.9259	0.0089
704.1069	-0.0044
704.2879	0.0034
704.4689	-0.005
704.6499	0.0062
704.8308	-0.0011
705.0117	-0.0056
705.1927	0.0029
705.3735	-0.0055
705.5544	-0.0042
705.7353	-0.0058
705.9161	-0.0094
706.0969	-0.0034
706.2777	-0.0078
706.4585	-0.0068
706.6393	0.0028
706.82	0.0038
707.0007	0.0009
707.1815	0.0012
707.3621	0.0051
707.5428	0.0094
707.7235	-0.0054
707.9041	-0.0034
708.0847	-0.0116
708.2653	-0.0062
708.4459	-0.013
708.6265	-0.0022
708.807	-0.0034
708.9875	-0.0061
709.168	-0.007
709.3485	-0.0066
709.529	-0.0037
709.7095	-0.0166
709.8899	0.0017
710.0703	-0.0098
710.2507	-0.002
710.4311	0.0046
710.6115	-0.0129
710.7918	0.0021
710.9721	0.004
711.1524	-0.0062
711.3327	0.0004
711.513	0.002
711.6932	0.0027
711.8735	0.0124
712.0537	0.0047
712.2339	0.0047
712.4141	-0.0077
712.5942	-0.0073
712.7744	-0.0075
712.9545	-0.0056
713.1346	-0.009
713.3147	-0.0033
713.4947	-0.004
713.6748	-0.0026
713.8548	-0.0063
714.0348	-0.0038
714.2148	-0.0039
714.3948	0.0002
714.5748	-0.0015
714.7547	-0.0018
714.9346	0.0017
715.1145	-0.0016
715.2944	-0.0104
715.4743	-0.0027
715.6541	-0.0015
715.834	0.0029
716.0138	-0.0029
716.1936	-0.0173
716.3733	-0.006
716.5531	-0.0064
716.7328	-0.0116
716.9126	-0.0098
717.0923	0.0069
717.2719	0.0032
717.4516	0.0001
717.6312	0.0032
717.8109	0.0069
717.9905	-0.0037
718.1701	-0.0043
718.3496	-0.0104
718.5292	0.0003
718.7087	-0.0013
718.8882	-0.0041
719.0677	0.0051
719.2472	-0.0042
719.4267	-0.005
719.6061	-0.002
719.7856	-0.0013
719.965	0.0113
720.1443	0.005
720.3237	0.0161
720.5031	-0.0009
720.6824	0.0089
720.8617	-0.007
721.041	0.0054
721.2203	0.0132
721.3995	0.0048
721.5788	-0.0031
721.758	0.0076
721.9372	-0.0021
722.1164	-0.0026
722.2956	0.0011
722.4747	-0.0056
722.6538	-0.0074
722.8329	0.0133
723.012	0.002
723.1911	-0.0052
723.3702	0.0005
723.5492	0.0076
723.7282	0.0046
723.9072	-0.0085
724.0862	-0.0007
724.2652	-0.002
724.4441	0.0002
724.623	-0.0077
724.8019	-0.0023
724.9808	-0.0104
725.1597	-0.013
725.3385	-0.0074
725.5174	0.0048
725.6962	0.0021
725.875	0.0013
726.0538	0.0046
726.2325	-0.0002
726.4112	-0.0041
726.59	-0.0102
726.7687	-0.0008
726.9474	0.0005
727.126	-0.0014
727.3047	0.0046
727.4833	0.0026
727.6619	-0.0065
727.8405	-0.0087
728.0191	-0.0006
728.1976	0.0034
728.3762	0.0067
728.5547	0.0014
728.7332	-0.0149
728.9116	0.0031
729.0901	0.0061
729.2686	0.0023
729.447	-0.0108
729.6254	-0.006
729.8038	-0.0071
729.9821	-0.0096
730.1605	0.0049
730.3388	-0.0049
730.5171	-0.0016
730.6954	-0.0092
730.8737	0.0031
731.0519	-0.0041
731.2302	0.0028
731.4084	-0.001
731.5866	0.001
731.7648	-0.0044
731.9429	-0.0038
732.1211	-0.0106
732.2992	-0.0113
732.4773	-0.0013
732.6554	0.0039
732.8335	-0.0003
733.0115	0.0001
733.1896	-0.0027
733.3676	-0.01
733.5456	-0.0046
733.7235	0.0073
733.9015	-0.0016
734.0794	-0.0084
734.2574	-0.0075
734.4353	0.0033
734.6131	0.0055
734.791	0.0019
734.9689	-0.0059
735.1467	0.0052
735.3245	-0.0062
735.5023	-0.0034
735.68	-0.0029
735.8578	0.0023
736.0355	-0.0129
736.2132	-0.0114
736.3909	-0.0033
736.5686	-0.0114
736.7463	0.0054
736.9239	-0.0014
737.1015	-0.0022
737.2791	0.0026
737.4567	-0.0008
737.6343	-0.0042
737.8118	-0.0028
737.9894	0.0049
738.1669	-0.0051
738.3444	-0.0047
738.5218	0.005
738.6993	0.0066
738.8767	-0.0105
739.0541	0.0101
739.2315	-0.008
739.4089	-0.0053
739.5863	0.0038
739.7636	-0.0092
739.9409	-0.001
740.1182	0.0063
740.2955	0.0074
740.4728	-0.0022
740.65	-0.0028
740.8272	-0.0048
741.0044	-0.0064
741.1816	0.0063
741.3588	-0.0085
741.5359	-0.0059
741.7131	-0.0084
741.8902	-0.0072
742.0673	-0.0028
742.2444	-0.0154
742.4214	-0.0067
742.5985	-0.0034
742.7755	-0.0099
742.9525	-0.0195
743.1295	0.0019
743.3064	-0.0065
743.4834	0.0036
743.6603	-0.0098
743.8372	-0.0144
744.0141	0.0058
744.191	-0.0009
744.3678	-0.0024
744.5446	-0.0033
744.7215	-0.0033
744.8982	-0.0032
745.075	-0.0135
745.2518	0.0007
745.4285	0.0001
745.6052	-0.0044
745.7819	-0.0053
745.9586	-0.0093
746.1353	-0.0038
746.3119	-0.0061
746.4885	-0.0082
746.6651	0.0026
746.8417	-0.003
747.0183	-0.0033
747.1948	-0.0056
747.3714	0.0042
747.5479	0.0063
747.7244	-0.006
747.9008	0.0072
748.0773	-0.0048
748.2537	-0.0052
748.4301	-0.004
748.6065	0.0042
748.7829	0.007
748.9593	-0.0073
749.1356	-0.0048
749.3119	0.0089
749.4882	-0.011
749.6645	0.0032
749.8408	-0.0124
750.017	-0.011
750.1933	0.003
750.3695	-0.0099
750.5457	0.0142
750.7218	0.0023
750.898	0.0031
751.0741	-0.0022
751.2502	-0.0032
751.4263	-0.0005
751.6024	0.0009
751.7784	0.005
751.9545	-0.0062
752.1305	-0.0063
752.3065	-0.0117
752.4825	-0.0015
752.6584	-0.0107
752.8344	-0.0082
753.0103	-0.019
753.1862	-0.0153
753.3621	0.0008
753.5379	-0.0047
753.7138	0.0033
753.8896	-0.0003
754.0654	0.0064
754.2412	0.0081
754.417	0.0051
754.5927	-0.0085
754.7685	0.0005
754.9442	0.0009
755.1199	0.0121
755.2956	0.0048
755.4712	0.0133
755.6469	0.0037
755.8225	0.0061
755.9981	-0.0099
756.1736	0.0068
756.3492	0.0076
756.5248	-0.0046
756.7003	0.0052
756.8758	0.0064
757.0513	-0.0091
757.2267	-0.0045
757.4022	0.019
757.5776	-0.0084
757.753	0.0014
757.9284	0.0085
758.1038	0.0027
758.2791	-0.0022
758.4545	-0.0127
758.6298	-0.0094
758.8051	0.0024
758.9803	-0.0032
759.1556	-0.0005
759.3308	-0.0087
759.506	0.0167
759.6812	0.0097
759.8564	0.0091
760.0316	-0.0102
760.2067	0.0052
760.3819	0.0098
760.557	0.0181
760.732	0.0057
760.9071	-0.009
761.0821	0.0069
761.2572	0.0067
761.4322	0.0072
761.6072	-0.0003
761.7821	-0.0067
761.9571	0.0081
762.132	0.0043
762.3069	-0.0065
762.4818	-0.0077
762.6567	-0.004
762.8316	0.0028
763.0064	0.0017
763.1812	0.0062
763.356	-0.0018
763.5308	-0.0046
763.7055	0.0039
763.8803	-0.003
764.055	-0.0041
764.2297	0.0069
764.4044	-0.0075
764.579	-0.0147
764.7537	-0.0144
764.9283	-0.0011
765.1029	-0.0108
765.2775	-0.0065
765.4521	-0.0052
765.6266	-0.0121
765.8011	-0.0075
765.9756	-0.005
766.1501	0.0008
766.3246	0.0033
766.4991	0.0026
766.6735	0.0003
766.8479	-0.0079
767.0223	0.0085
767.1967	-0.0038
767.371	-0.0069
767.5454	-0.0059
767.7197	-0.0023
767.894	-0.0026
768.0683	-0.0056
768.2425	-0.004
768.4168	0.002
768.591	0.0064
768.7652	-0.0077
768.9394	-0.0028
769.1135	-0.0015
769.2877	0.0092
769.4618	0.0024
769.6359	0.0044
769.81	0.0029
769.984	-0.0015
770.1581	0.0032
770.3321	0.01
770.5061	-0.0035
770.6801	0.0029
770.8541	0.0049
771.028	0.0174
771.202	-0.0057
771.3759	0.0063
771.5498	0.0033
771.7236	-0.0006
771.8975	-0.0019
772.0713	0.0049
772.2451	0.0116
772.4189	0.0103
772.5927	0.0104
772.7665	-0.0023
772.9402	-0.0025
773.1139	-0.0049
773.2876	-0.007
773.4613	0.0103
773.635	0.0066
773.8086	-0.0104
773.9822	0.0056
774.1558	0.0042
774.3294	-0.0178
774.503	0.0017
774.6765	0.0085
774.8501	-0.002
775.0236	0.0131
775.1971	0.0007
775.3705	-0.0116
775.544	-0.0007
775.7174	-0.0055
775.8908	0.0009
776.0642	-0.0061
776.2376	-0.0096
776.4109	-0.0159
776.5843	-0.0094
776.7576	-0.0055
776.9309	0.0106
777.1041	-0.0003
777.2774	-0.0019
777.4506	0.0004
777.6238	-0.0054
777.797	0.0048
777.9702	0.0006
778.1434	0.0024
778.3165	-0.0116
778.4896	-0.0079
778.6627	0.0107
778.8358	0.0125
779.0089	-0.004
779.1819	0.0039
779.3549	0.003
779.5279	0.0122
779.7009	-0.0036
779.8739	0.0083
780.0468	-0.0036
780.2197	0.0023
780.3926	0.0095
780.5655	0.0009
780.7384	0.0028
780.9112	-0.004
781.0841	-0.0055
781.2569	0.003
781.4297	0.0118
781.6024	-0.0032
781.7752	-0.0034
781.9479	0.011
782.1206	-0.0064
782.2933	-0.0013
782.466	0.0053
782.6386	0.002
782.8113	-0.0014
782.9839	0.0079
783.1565	0.0121
783.329	0.0091
783.5016	0.0133
783.6741	0
783.8466	-0.0057
784.0191	0.0059
784.1916	-0.0101
784.3641	0.0113
784.5365	-0.0032
784.7089	-0.015
784.8813	-0.0103
785.0537	-0.0035
785.2261	-0.0092
785.3984	-0.0229
785.5707	0.0004
785.743	-0.0044
785.9153	-0.0176
786.0876	0.0068
786.2598	-0.0011
786.432	-0.0028
786.6042	0.0159
786.7764	-0.0057
786.9486	0.0041
787.1207	-0.0063
787.2928	-0.005
787.4649	-0.0071
787.637	0.0039
787.8091	-0.006
787.9811	-0.0005
788.1532	-0.0067
788.3252	0.0086
788.4972	0.0032
788.6691	-0.0024
788.8411	-0.0049
789.013	-0.0062
789.1849	0.0074
789.3568	0.0002
789.5287	-0.0094
789.7005	-0.0093
789.8723	-0.0052
790.0442	0.0202
790.2159	-0.0037
790.3877	0.0109
790.5595	-0.005
790.7312	-0.0082
790.9029	-0.0017
791.0746	-0.0067
791.2463	-0.0092
791.4179	-0.0067
791.5896	-0.0014
791.7612	-0.0011
791.9328	0.0031
792.1044	-0.0016
792.2759	-0.0186
792.4474	0.0008
792.619	-0.0008
792.7905	0.0019
792.9619	-0.0005
793.1334	-0.0008
793.3048	0.0059
793.4762	0.0054
793.6476	-0.0086
793.819	-0.0044
793.9904	0.0104
794.1617	-0.0073
794.333	-0.0051
794.5043	-0.0117
794.6756	-0.0055
794.8469	-0.0006
795.0181	-0.0089
795.1893	-0.018
795.3605	0.0047
795.5317	-0.0144
795.7029	-0.002
795.874	-0.0049
796.0452	-0.0161
796.2163	0.0027
796.3873	0.0248
796.5584	0.0053
796.7294	-0.006
796.9005	0.0226
797.0715	0.0009
797.2425	-0.0151
797.4134	-0.02
797.5844	-0.0073
797.7553	-0.0072
797.9262	0.0033
798.0971	-0.0093
798.2679	-0.0129
798.4388	-0.0122
798.6096	0.0002
798.7804	0.0128
798.9512	0.0036
799.122	-0.0032
799.2927	0.0062
799.4635	-0.0038
799.6342	-0.0219
799.8049	-0.0027
799.9755	-0.0229
800.1462	-0.0007
800.3168	0.0088
800.4874	0.0068
800.658	0.0202
800.8286	0.0026
800.9991	0.0086
801.1696	0.0093
801.3402	0.0031
801.5106	0.0006
801.6811	-0.0053
801.8516	0.0095
802.022	0.0002
802.1924	0.0129
802.3628	0.0132
802.5332	0.0123
802.7035	0.0112
802.8739	-0.0083
803.0442	-0.0053
803.2145	0.0122
803.3847	-0.0357
803.555	0.0022
803.7252	-0.0172
803.8954	-0.0152
804.0656	-0.0146
804.2358	0.0084
804.4059	-0.0093
804.5761	-0.0025
804.7462	0.0073
804.9163	-0.0103
805.0864	-0.0135
805.2564	-0.0078
805.4264	0.0107
805.5965	-0.0289
805.7665	0.0043
805.9364	0.0061
806.1064	0.0245
806.2763	0.0039
806.4462	0.0053
806.6161	0.0009
806.786	0.012
806.9559	0.0025
807.1257	-0.0002
807.2955	0.008
807.4653	-0.0076
807.6351	-0.0114
807.8048	0.0022
807.9746	-0.0004
808.1443	0.004
808.314	0.008
808.4837	-0.0077
808.6533	0.0084
808.8229	0.0242
808.9926	0.007
809.1622	0.0029
809.3317	-0.0051
809.5013	-0.0168
809.6708	0.0142
809.8403	0.005
810.0098	0.0026
810.1793	0.016
810.3488	-0.0172
810.5182	-0.0214
810.6876	0.0041
810.857	-0.0134
811.0264	0.0128
811.1958	0.0044
811.3651	-0.0219
811.5344	-0.0114
811.7037	0.0053
811.873	-0.0185
812.0422	-0.0119
812.2115	-0.0024
812.3807	-0.0151
812.5499	0.0049
812.7191	-0.0087
812.8882	-0.0131
813.0574	-0.0082
813.2265	-0.0046
813.3956	-0.0035
813.5646	-0.0138
813.7337	-0.014
813.9027	0.0163
814.0718	0.0057
814.2407	-0.0079
814.4097	-0.0071
814.5787	-0.0157
814.7476	0.0003
814.9165	-0.008
815.0854	-0.0193
815.2543	-0.0221
815.4232	0.001
815.592	0.0117
815.7608	0.0066
815.9296	-0.0101
816.0984	0.0143
816.2671	0.0036
816.4359	-0.0089
816.6046	0.0048
816.7733	-0.0155
816.942	-0.019
817.1106	-0.0077
817.2793	0.0004
817.4479	-0.0042
817.6165	-0.0126
817.785	-0.0115
817.9536	-0.0409
818.1221	-0.0277
818.2906	-0.0116
818.4591	-0.0318
818.6276	-0.0214
818.7961	-0.013
818.9645	-0.0039
819.1329	0.0081
819.3013	0.0121
819.4697	0.0233
819.638	-0.0094
819.8064	0.0097
819.9747	-0.0006
820.143	-0.0179
820.3113	-0.0104
820.4795	0.0029
820.6477	0.0042
820.816	0.0132
820.9842	-0.0103
821.1523	0.0132
821.3205	-0.0354
821.4886	-0.0071
821.6567	0.0239
821.8248	-0.0085
821.9929	0.0162
822.1609	-0.0325
822.329	0.0154
822.497	0.0068
822.665	-0.0219
822.833	0.0075
823.0009	-0.0107
823.1688	-0.0048
823.3367	0.0318
823.5046	-0.0102
823.6725	0.0208
823.8404	-0.0081
824.0082	0.0279
824.176	-0.0054
824.3438	0.0085
824.5116	0.0026
824.6793	-0.0101
824.847	-0.0225
825.0147	0.0048
825.1824	0.0138
825.3501	-0.0089
825.5177	-0.0169
825.6854	-0.0042
825.853	0.0047
826.0206	-0.0309
826.1881	0.0172
826.3557	-0.0234
826.5232	0.0066
826.6907	-0.032
826.8582	-0.0262
827.0257	-0.0193
827.1931	-0.0017
827.3605	0.0175
827.528	0.0043
827.6953	-0.0338
827.8627	-0.0023
828.03	0.0364
828.1974	0.0034
828.3647	-0.0436
828.532	-0.0169
828.6992	-0.0073
828.8665	-0.0112
829.0337	0.0026
829.2009	0.0143
829.3681	-0.0145
829.5352	0.0086
829.7024	-0.0219
829.8695	-0.0461
830.0366	0.0398
830.2037	0.0125
830.3707	0.0116
830.5378	-0.0203
830.7048	0.0056
830.8718	-0.0303
831.0388	-0.0056
831.2057	0.0022
831.3727	0.0203
831.5396	-0.0333
831.7065	-0.0028
831.8734	-0.009
832.0402	-0.0375
832.2071	0.0203
832.3739	-0.0334
832.5407	0.0079
832.7075	-0.0122
832.8742	-0.0126
833.041	-0.0448
833.2077	-0.0196
833.3744	-0.0034
833.541	-0.0023
833.7077	-0.0158
833.8743	-0.009
834.0409	-0.0048
834.2075	0.0365
834.3741	-0.0227
834.5407	-0.0043
834.7072	-0.0428
834.8737	-0.0511
835.0402	0.0001
835.2067	0.0045
835.3731	-0.0136
835.5395	0.0272
835.706	0.0152
835.8723	-0.0056
836.0387	0.0173
836.2051	-0.0156
836.3714	0.0022
836.5377	-0.0074
836.704	0.003
836.8703	0.0087
837.0365	-0.0064
837.2027	-0.027
837.3689	-0.0244
837.5351	-0.04
837.7013	0.0001
837.8674	-0.0439
838.0335	-0.0166
838.1997	-0.0039
838.3657	-0.0544
838.5318	-0.0085
838.6978	0.0125
838.8639	-0.0087
839.0299	-0.0258
839.1958	0.0009
839.3618	0.0105
839.5277	-0.0208
839.6937	-0.0378
839.8596	-0.0035
840.0254	0.0161
840.1913	0.0102
840.3571	0.0415
840.523	-0.0018
840.6888	-0.0594
840.8545	-0.0233
841.0203	-0.0016
841.186	-0.0158
841.3517	0.0212
841.5174	0.0144
841.6831	-0.029
841.8488	0.0139
842.0144	-0.0507
842.18	-0.0104
842.3456	-0.0218
842.5112	-0.0216
842.6767	-0.0366
842.8422	-0.0083
843.0077	-0.0199
843.1732	-0.0585
843.3387	-0.0251
843.5042	0.0049
843.6696	-0.0323
843.835	-0.0331
844.0004	0.0398
844.1657	-0.0088
844.3311	-0.0757
844.4964	-0.0874
844.6617	-0.0382
844.827	-0.0101
844.9923	-0.0515
845.1575	0.0172
845.3227	-0.0055
845.4879	-0.0065
845.6531	-0.0091
845.8183	-0.0543
845.9834	-0.0133
846.1485	0.0191
846.3136	-0.0421
846.4787	-0.0843
846.6438	0.0428
846.8088	-0.0197
846.9738	-0.1062
847.1388	-0.0324
847.3038	-0.0643
847.4687	-0.201
847.6337	-0.0382
847.7986	-0.0558
847.9635	-0.0652
848.1284	-0.0451
848.2932	0.058
848.458	-0.0789
848.6228	0.0693
848.7876	0.0384
848.9524	-0.0754
849.1172	-0.0736
849.2819	0.0016
849.4466	-0.1103
849.6113	-0.1801
849.7759	-0.0488
849.9406	0.0268
850.1052	0.0771
850.2698	0.0814
850.4344	-0.0263
850.599	-0.0987
850.7635	0.003
850.928	-0.0452
851.0925	-0.0148
851.257	-0.0387
851.4215	0.0079
851.5859	-0.074
851.7503	-0.0148
851.9147	0.0274
852.0791	-0.1106
852.2434	-0.1082
852.4078	0.0475
852.5721	-0.0233
852.7364	-0.046
852.9007	-0.2068
853.0649	-0.0132
853.2291	-0.1482
853.3934	0.0315
853.5575	0.0264
853.7217	-0.0158
853.8859	-0.0778
854.05	-0.1252
854.2141	-0.0579
854.3782	-0.019
854.5423	-0.0124
854.7063	0.1351
854.8703	0.0441
855.0343	-0.0299
855.1983	-0.1659
855.3623	0.1253
855.5262	0.0259
855.6901	-0.0796
855.854	0.0325
856.0179	0.0447
856.1818	0.0631
856.3456	-0.0476
856.5094	-0.1378
856.6732	0.0782
856.837	-0.07
857.0008	-0.0107
857.1645	-0.0994
857.3282	-0.235
857.4919	0.1255
857.6556	-0.0778
857.8192	-0.055
857.9828	0.164
858.1465	-0.1213
858.31	0.0874
858.4736	-0.0942
858.6372	-0.216
858.8007	-0.3151
858.9642	0.1034
859.1277	-0.0592
859.2911	-0.0714
859.4546	-0.0825
859.618	-0.4508
859.7814	-0.0957
859.9448	0.1086
860.1081	0.0758
860.2715	0.0108
860.4348	0.0015
860.5981	-0.1877
860.7614	0.2862
860.9246	-0.1198
861.0879	-0.046
861.2511	0.1123
861.4143	-0.3492
861.5774	0.0077
861.7406	-0.2469
861.9037	-0.0691
862.0668	-0.1816
862.2299	-0.0957
862.393	-0.5796
862.556	-0.064
862.7191	0.002
862.8821	-0.3651
863.0451	0.0473
863.208	-0.0197
863.371	0.0237
863.5339	-0.3821
863.6968	-0.1078
863.8597	0.2393
864.0225	-0.0947
864.1854	-0.0415
864.3482	0.2796
864.511	0.0279
864.6737	0.2409
864.8365	-0.1544
864.9992	-0.4466
865.1619	-0.4185
865.3246	0.0816
865.4873	-0.1116
865.65	-0.3828
865.8126	0.1082
865.9752	0.0119
866.1378	-0.1229
866.3004	-0.1084
866.4629	0.2751
866.6254	-0.256
866.7879	-0.1514
866.9504	1.2347
867.1129	-0
867.2753	-0.026
867.4377	0.2269
867.6001	-0.3368
867.7625	0.0454
867.9249	-0.264
868.0872	0.0377
868.2495	0.1025
868.4118	-0.1523
868.5741	-0.3128
868.7363	-0.291
868.8986	-0.2178
869.0608	-0.3236
869.223	0.1143
869.3851	0.1398
869.5473	-0
869.7094	0.1429
869.8715	0.3862
870.0336	-0
870.1957	-0.6363
870.3577	-0
870.5197	-0.1191
870.6817	-0.2871
870.8437	-0.2652
871.0057	-0.348
871.1676	0.1041
871.3295	-0.4889
871.4914	-0
871.6533	-0.1695
871.8151	-0.5473
871.977	-0
872.1388	-0
872.3006	-0
872.4623	-0
872.6241	0.5329
872.7858	0.6043
872.9475	0.5207
873.1092	0.1135
873.2709	-0.3085
873.4325	-0.126
873.5941	-0.1825
873.7557	0.3906
873.9173	-0
874.0789	-0.6053
874.2404	-0.4669
874.4019	0.3427
874.5634	-0.3052
874.7249	0.7194
874.8863	0.0131
875.0478	0.2127
875.2092	-0
875.3706	0.0323
875.5319	-0.7639
875.6933	-0
875.8546	0.3283
876.0159	-0
876.1772	-0.0453
876.3385	-0
876.4997	-0.1115
876.6609	-0.4947
876.8221	-0
876.9833	-0.0989
877.1445	-0
877.3056	-0.0333
877.4667	0.9337
877.6278	-0
877.7889	-0.8231
877.9499	-0
878.111	-0.667
878.272	-0
878.433	-0
878.5939	-0
878.7549	-0.2479
878.9158	-1.0427
879.0767	-0
879.2376	-0
879.3984	-0.0546
879.5593	-0
879.7201	0.1781
879.8809	-0.5369
880.0417	-0.4102
880.2024	-0.1614
880.3632	-0.5093
880.5239	1.1409
880.6846	-0.1476
880.8452	-2.1931
881.0059	-1.4014
881.1665	-0.0368
881.3271	0.8101
881.4877	-0.2233
881.6483	-0.7836
881.8088	-0.3276
881.9693	0.1982
882.1298	0.1982
882.2903	0.1982
