Data from MonoPyChalIsomerACN10uM410nmA_Absorbance_14-53-28-873.txt Node
Date: Fri Jul 05 14:53:28 BST 2024
User: LASERRRRR
Spectrometer: FLMT03099
Trigger mode: 0
Integration Time (sec): 1.000000E-1
Scans to average: 1
Electric dark correction enabled: true
Nonlinearity correction enabled: false
Boxcar width: 0
XAxis mode: Wavelengths
Number of Pixels in Spectrum: 3648
>>>>>Begin Spectral Data<<<<<
179.3399	0.0616
179.5586	0.0616
179.7771	0.0616
179.9957	0.0528
180.2143	-0.4873
180.4329	-0.3117
180.6514	-0
180.8699	-0
181.0885	-0
181.307	0.3856
181.5255	-0
181.744	-0.4754
181.9625	-0
182.181	-0.728
182.3994	0.7077
182.6179	0.8164
182.8363	0.0758
183.0547	0.0242
183.2732	0.0723
183.4916	0.4056
183.71	0.0889
183.9284	0.1839
184.1467	0.0742
184.3651	0.1173
184.5835	-0.0946
184.8018	0.2135
185.0201	-0.1164
185.2385	-0.022
185.4568	0.2963
185.6751	0.405
185.8934	0.1847
186.1117	-0.0016
186.3299	0.2938
186.5482	0.2835
186.7664	-0.1068
186.9847	0.1486
187.2029	0.0019
187.4211	0.056
187.6393	0.1114
187.8575	-0.1022
188.0757	0.3341
188.2939	0.1008
188.512	1.3216
188.7302	0.2114
188.9483	0.0235
189.1665	0.3563
189.3846	-0.1617
189.6027	0.2168
189.8208	0.1365
190.0389	0.1501
190.257	0.2427
190.475	0.1453
190.6931	0.6146
190.9111	0.4316
191.1292	0.1714
191.3472	0.4879
191.5652	0.1757
191.7832	0.3666
192.0012	0.5162
192.2192	0.5983
192.4371	0.4326
192.6551	0.3244
192.873	0.4675
193.091	0.2692
193.3089	0.478
193.5268	0.4568
193.7447	0.4641
193.9626	0.5253
194.1805	0.6254
194.3984	0.6546
194.6162	0.5258
194.8341	0.54
195.0519	0.7811
195.2697	0.5893
195.4875	0.7138
195.7054	0.6326
195.9231	0.5083
196.1409	0.5542
196.3587	0.6283
196.5765	0.6578
196.7942	0.5959
197.012	0.7344
197.2297	0.6169
197.4474	0.8087
197.6651	0.6429
197.8828	0.4752
198.1005	0.5357
198.3182	0.6762
198.5358	0.7907
198.7535	0.6611
198.9711	0.613
199.1888	0.6841
199.4064	0.7532
199.624	0.5595
199.8416	0.5893
200.0592	0.6212
200.2767	0.6102
200.4943	0.7403
200.7119	0.6991
200.9294	0.7578
201.1469	0.6887
201.3645	0.5883
201.582	0.6173
201.7995	0.7277
202.017	0.7767
202.2344	0.5699
202.4519	0.8177
202.6694	0.6275
202.8868	0.7439
203.1042	0.7329
203.3217	0.7791
203.5391	0.5825
203.7565	0.6338
203.9739	0.7463
204.1913	0.5865
204.4086	0.6669
204.626	0.6849
204.8433	0.7065
205.0607	0.6824
205.278	0.7717
205.4953	0.5787
205.7126	0.7139
205.9299	0.8587
206.1472	0.7188
206.3644	0.6211
206.5817	0.7763
206.7989	0.6751
207.0162	0.6812
207.2334	0.7119
207.4506	0.6871
207.6678	0.6571
207.885	0.7044
208.1022	0.7833
208.3194	0.6959
208.5365	0.6092
208.7537	0.6052
208.9708	0.6337
209.1879	0.6688
209.405	0.7113
209.6222	0.731
209.8392	0.6782
210.0563	0.595
210.2734	0.7757
210.4905	0.6027
210.7075	0.5827
210.9245	0.6566
211.1416	0.6899
211.3586	0.6302
211.5756	0.5426
211.7926	0.6327
212.0096	0.5859
212.2265	0.5375
212.4435	0.6143
212.6604	0.6217
212.8774	0.6003
213.0943	0.578
213.3112	0.5553
213.5281	0.5334
213.745	0.4829
213.9619	0.5414
214.1788	0.4857
214.3956	0.4362
214.6125	0.4849
214.8293	0.4234
215.0461	0.4684
215.2629	0.4237
215.4798	0.5294
215.6965	0.4504
215.9133	0.4557
216.1301	0.3747
216.3469	0.4198
216.5636	0.3899
216.7803	0.4111
216.9971	0.3932
217.2138	0.3739
217.4305	0.3854
217.6472	0.3651
217.8639	0.3752
218.0805	0.3229
218.2972	0.3083
218.5138	0.31
218.7305	0.3259
218.9471	0.298
219.1637	0.2782
219.3803	0.2544
219.5969	0.2978
219.8135	0.2434
220.0301	0.2692
220.2466	0.2664
220.4632	0.2373
220.6797	0.2363
220.8962	0.248
221.1127	0.2525
221.3292	0.2768
221.5457	0.2417
221.7622	0.2414
221.9787	0.2373
222.1951	0.2378
222.4116	0.2495
222.628	0.2461
222.8444	0.2396
223.0608	0.243
223.2772	0.2635
223.4936	0.2633
223.71	0.2251
223.9264	0.2701
224.1427	0.2388
224.3591	0.2346
224.5754	0.2617
224.7917	0.2736
225.008	0.2621
225.2243	0.2777
225.4406	0.2926
225.6569	0.2623
225.8732	0.262
226.0894	0.2567
226.3057	0.2466
226.5219	0.2819
226.7381	0.2577
226.9543	0.2778
227.1705	0.2883
227.3867	0.2736
227.6029	0.2943
227.8191	0.2843
228.0352	0.2903
228.2513	0.2989
228.4675	0.3093
228.6836	0.2926
228.8997	0.304
229.1158	0.2963
229.3319	0.3035
229.548	0.3175
229.764	0.314
229.9801	0.3088
230.1961	0.3248
230.4121	0.3192
230.6282	0.3124
230.8442	0.3196
231.0602	0.3515
231.2761	0.3343
231.4921	0.3533
231.7081	0.3455
231.924	0.3277
232.14	0.3792
232.3559	0.3461
232.5718	0.3595
232.7877	0.3597
233.0036	0.3463
233.2195	0.3711
233.4353	0.3611
233.6512	0.368
233.867	0.3479
234.0829	0.3553
234.2987	0.3534
234.5145	0.3722
234.7303	0.3848
234.9461	0.4099
235.1619	0.3897
235.3776	0.3696
235.5934	0.3812
235.8091	0.3496
236.0249	0.3724
236.2406	0.373
236.4563	0.3698
236.672	0.3779
236.8877	0.3803
237.1034	0.3919
237.319	0.3845
237.5347	0.4104
237.7503	0.4118
237.966	0.4034
238.1816	0.394
238.3972	0.384
238.6128	0.3918
238.8284	0.4083
239.0439	0.3995
239.2595	0.398
239.475	0.4019
239.6906	0.4103
239.9061	0.3897
240.1216	0.3974
240.3371	0.4113
240.5526	0.4035
240.7681	0.4061
240.9836	0.399
241.199	0.3996
241.4145	0.383
241.6299	0.3802
241.8453	0.3885
242.0607	0.3784
242.2761	0.3707
242.4915	0.3703
242.7069	0.3795
242.9223	0.3655
243.1376	0.3584
243.353	0.3609
243.5683	0.3718
243.7836	0.3348
243.9989	0.3281
244.2142	0.316
244.4295	0.3371
244.6448	0.3338
244.86	0.3196
245.0753	0.3071
245.2905	0.3033
245.5057	0.3014
245.721	0.2873
245.9362	0.2903
246.1514	0.2914
246.3665	0.2713
246.5817	0.2645
246.7969	0.2632
247.012	0.2624
247.2271	0.2421
247.4423	0.2599
247.6574	0.2489
247.8725	0.2409
248.0876	0.2236
248.3026	0.2314
248.5177	0.2312
248.7328	0.2203
248.9478	0.2163
249.1628	0.2306
249.3779	0.2269
249.5929	0.2136
249.8079	0.2243
250.0228	0.2021
250.2378	0.2128
250.4528	0.2028
250.6677	0.1988
250.8827	0.1968
251.0976	0.189
251.3125	0.1958
251.5274	0.174
251.7423	0.1728
251.9572	0.1889
252.172	0.173
252.3869	0.1783
252.6017	0.1925
252.8166	0.168
253.0314	0.1623
253.2462	0.1682
253.461	0.1777
253.6758	0.1739
253.8906	0.1902
254.1053	0.162
254.3201	0.1615
254.5348	0.1884
254.7496	0.1748
254.9643	0.1681
255.179	0.173
255.3937	0.1712
255.6083	0.1721
255.823	0.1751
256.0377	0.1601
256.2523	0.1581
256.467	0.1568
256.6816	0.1643
256.8962	0.1594
257.1108	0.1685
257.3254	0.1746
257.54	0.154
257.7545	0.1741
257.9691	0.1651
258.1836	0.1511
258.3981	0.1636
258.6127	0.1818
258.8272	0.1568
259.0417	0.1713
259.2561	0.1731
259.4706	0.1646
259.6851	0.154
259.8995	0.158
260.114	0.1695
260.3284	0.1564
260.5428	0.159
260.7572	0.1724
260.9716	0.172
261.186	0.1657
261.4003	0.1597
261.6147	0.1718
261.829	0.1655
262.0433	0.1742
262.2577	0.1557
262.472	0.1708
262.6863	0.1612
262.9005	0.162
263.1148	0.1571
263.3291	0.1465
263.5433	0.1624
263.7576	0.1781
263.9718	0.1626
264.186	0.1753
264.4002	0.1642
264.6144	0.1632
264.8286	0.1758
265.0427	0.1624
265.2569	0.1701
265.471	0.1571
265.6851	0.1613
265.8993	0.1641
266.1134	0.1631
266.3275	0.1629
266.5415	0.1608
266.7556	0.1725
266.9697	0.1596
267.1837	0.1758
267.3978	0.1572
267.6118	0.1762
267.8258	0.1766
268.0398	0.166
268.2538	0.1809
268.4677	0.1688
268.6817	0.1536
268.8957	0.166
269.1096	0.1724
269.3235	0.1784
269.5374	0.1508
269.7514	0.1532
269.9652	0.1637
270.1791	0.1589
270.393	0.1569
270.6068	0.1596
270.8207	0.1537
271.0345	0.157
271.2483	0.1659
271.4622	0.1579
271.676	0.1639
271.8897	0.1451
272.1035	0.1467
272.3173	0.1489
272.531	0.1623
272.7448	0.1511
272.9585	0.1485
273.1722	0.1568
273.3859	0.1644
273.5996	0.1338
273.8133	0.1549
274.0269	0.1612
274.2406	0.1556
274.4542	0.1624
274.6679	0.1485
274.8815	0.1563
275.0951	0.1627
275.3087	0.166
275.5223	0.1617
275.7358	0.1587
275.9494	0.1646
276.1629	0.1515
276.3765	0.1553
276.59	0.166
276.8035	0.1649
277.017	0.1527
277.2305	0.1494
277.444	0.1751
277.6574	0.1631
277.8709	0.1585
278.0843	0.1413
278.2978	0.1436
278.5112	0.1543
278.7246	0.1602
278.938	0.1481
279.1513	0.1612
279.3647	0.1664
279.5781	0.1572
279.7914	0.1567
280.0047	0.1692
280.2181	0.1539
280.4314	0.1699
280.6447	0.16
280.8579	0.1766
281.0712	0.1675
281.2845	0.1676
281.4977	0.1554
281.711	0.1622
281.9242	0.1496
282.1374	0.1634
282.3506	0.15
282.5638	0.172
282.7769	0.1708
282.9901	0.1593
283.2033	0.1746
283.4164	0.1785
283.6295	0.1591
283.8426	0.1562
284.0557	0.1682
284.2688	0.178
284.4819	0.1687
284.695	0.1616
284.908	0.1711
285.1211	0.1568
285.3341	0.1521
285.5471	0.1667
285.7601	0.1756
285.9731	0.1603
286.1861	0.1556
286.3991	0.1677
286.612	0.1495
286.825	0.1716
287.0379	0.1645
287.2508	0.1624
287.4637	0.1593
287.6766	0.1511
287.8895	0.1533
288.1024	0.1823
288.3152	0.1676
288.5281	0.1498
288.7409	0.1556
288.9538	0.1492
289.1666	0.1608
289.3794	0.1644
289.5922	0.1481
289.8049	0.1538
290.0177	0.164
290.2304	0.1478
290.4432	0.1626
290.6559	0.1598
290.8686	0.1655
291.0813	0.1459
291.294	0.1556
291.5067	0.1683
291.7194	0.1592
291.932	0.1619
292.1447	0.1631
292.3573	0.1454
292.5699	0.1557
292.7825	0.1593
292.9951	0.1467
293.2077	0.1481
293.4203	0.1529
293.6328	0.1362
293.8454	0.1623
294.0579	0.1546
294.2704	0.1596
294.4829	0.1501
294.6954	0.1613
294.9079	0.1447
295.1204	0.1526
295.3328	0.1421
295.5453	0.1538
295.7577	0.1531
295.9701	0.1448
296.1825	0.1541
296.3949	0.1483
296.6073	0.1457
296.8197	0.1452
297.0321	0.1585
297.2444	0.146
297.4567	0.1498
297.6691	0.1582
297.8814	0.1388
298.0937	0.1527
298.306	0.1462
298.5182	0.1442
298.7305	0.1625
298.9428	0.1479
299.155	0.1549
299.3672	0.1473
299.5794	0.1482
299.7916	0.1465
300.0038	0.1524
300.216	0.1528
300.4282	0.1436
300.6403	0.1463
300.8525	0.1572
301.0646	0.141
301.2767	0.1548
301.4888	0.1515
301.7009	0.1472
301.913	0.14
302.125	0.1597
302.3371	0.1571
302.5491	0.151
302.7612	0.1565
302.9732	0.1604
303.1852	0.1402
303.3972	0.1508
303.6092	0.1466
303.8211	0.1376
304.0331	0.1418
304.245	0.1522
304.457	0.139
304.6689	0.1371
304.8808	0.1512
305.0927	0.136
305.3046	0.1371
305.5164	0.1499
305.7283	0.1479
305.9401	0.1554
306.152	0.1401
306.3638	0.1423
306.5756	0.1359
306.7874	0.1353
306.9992	0.1407
307.2109	0.132
307.4227	0.1288
307.6344	0.1388
307.8462	0.1253
308.0579	0.1292
308.2696	0.1296
308.4813	0.1335
308.693	0.129
308.9046	0.1369
309.1163	0.1252
309.328	0.1192
309.5396	0.1262
309.7512	0.1245
309.9628	0.1238
310.1744	0.1274
310.386	0.1209
310.5976	0.1218
310.8091	0.1157
311.0207	0.1254
311.2322	0.116
311.4437	0.1123
311.6552	0.1019
311.8667	0.1158
312.0782	0.1063
312.2897	0.0915
312.5012	0.1083
312.7126	0.0971
312.924	0.1079
313.1355	0.1158
313.3469	0.1059
313.5583	0.1236
313.7696	0.1115
313.981	0.1119
314.1924	0.1026
314.4037	0.1023
314.6151	0.1183
314.8264	0.0968
315.0377	0.1101
315.249	0.1068
315.4603	0.114
315.6716	0.1083
315.8828	0.103
316.0941	0.1004
316.3053	0.1062
316.5165	0.0895
316.7277	0.0945
316.9389	0.1118
317.1501	0.1045
317.3613	0.1108
317.5724	0.0968
317.7836	0.1086
317.9947	0.1107
318.2058	0.1008
318.417	0.0904
318.6281	0.0949
318.8391	0.0962
319.0502	0.0952
319.2613	0.1184
319.4723	0.1089
319.6834	0.1122
319.8944	0.0968
320.1054	0.1029
320.3164	0.1112
320.5274	0.112
320.7383	0.1037
320.9493	0.107
321.1602	0.1154
321.3712	0.1008
321.5821	0.1063
321.793	0.1111
322.0039	0.1004
322.2148	0.1089
322.4257	0.1089
322.6365	0.1128
322.8474	0.1136
323.0582	0.1029
323.269	0.1155
323.4798	0.1123
323.6906	0.1085
323.9014	0.1145
324.1122	0.1094
324.3229	0.1087
324.5337	0.1081
324.7444	0.0994
324.9551	0.1196
325.1658	0.1193
325.3765	0.118
325.5872	0.1172
325.7979	0.1168
326.0085	0.1079
326.2192	0.128
326.4298	0.1106
326.6404	0.1066
326.851	0.1024
327.0616	0.0968
327.2722	0.1084
327.4828	0.1122
327.6933	0.1225
327.9039	0.1116
328.1144	0.125
328.3249	0.1067
328.5354	0.1025
328.7459	0.1113
328.9564	0.1044
329.1669	0.1147
329.3773	0.1023
329.5878	0.1214
329.7982	0.1033
330.0086	0.1091
330.219	0.1055
330.4294	0.1095
330.6398	0.108
330.8502	0.1205
331.0605	0.1173
331.2708	0.1159
331.4812	0.1186
331.6915	0.1178
331.9018	0.1082
332.1121	0.1006
332.3224	0.1113
332.5326	0.1204
332.7429	0.1144
332.9531	0.1211
333.1633	0.1236
333.3735	0.1186
333.5837	0.1145
333.7939	0.1063
334.0041	0.111
334.2143	0.1302
334.4244	0.1198
334.6346	0.0984
334.8447	0.131
335.0548	0.1197
335.2649	0.1018
335.475	0.126
335.685	0.1174
335.8951	0.1296
336.1051	0.1207
336.3152	0.142
336.5252	0.123
336.7352	0.1324
336.9452	0.1226
337.1552	0.1204
337.3652	0.102
337.5751	0.1209
337.7851	0.126
337.995	0.1172
338.2049	0.1143
338.4148	0.1227
338.6247	0.1166
338.8346	0.1161
339.0445	0.1129
339.2543	0.1144
339.4642	0.1153
339.674	0.1198
339.8838	0.1169
340.0936	0.121
340.3034	0.1281
340.5132	0.1245
340.7229	0.1167
340.9327	0.1227
341.1424	0.1106
341.3522	0.1398
341.5619	0.1325
341.7716	0.125
341.9813	0.1245
342.1909	0.1204
342.4006	0.1328
342.6102	0.1367
342.8199	0.1362
343.0295	0.14
343.2391	0.1274
343.4487	0.1402
343.6583	0.1231
343.8679	0.131
344.0774	0.1359
344.287	0.1354
344.4965	0.132
344.706	0.1345
344.9155	0.1344
345.125	0.1338
345.3345	0.1396
345.544	0.1329
345.7534	0.1366
345.9629	0.1391
346.1723	0.1338
346.3817	0.1295
346.5911	0.1378
346.8005	0.141
347.0099	0.1375
347.2193	0.1485
347.4286	0.1297
347.638	0.1512
347.8473	0.1501
348.0566	0.14
348.2659	0.1547
348.4752	0.137
348.6845	0.1369
348.8937	0.1404
349.103	0.1397
349.3122	0.1433
349.5214	0.1438
349.7306	0.1442
349.9398	0.1449
350.149	0.1503
350.3582	0.1462
350.5674	0.1544
350.7765	0.1324
350.9856	0.1378
351.1948	0.1432
351.4039	0.1304
351.613	0.1469
351.822	0.144
352.0311	0.1523
352.2402	0.1427
352.4492	0.1578
352.6582	0.1615
352.8672	0.1371
353.0762	0.157
353.2852	0.1357
353.4942	0.1519
353.7032	0.1374
353.9121	0.146
354.1211	0.1563
354.33	0.1535
354.5389	0.1531
354.7478	0.1453
354.9567	0.1685
355.1655	0.1485
355.3744	0.1552
355.5833	0.1553
355.7921	0.1721
356.0009	0.1615
356.2097	0.1587
356.4185	0.1643
356.6273	0.1588
356.8361	0.1572
357.0448	0.145
357.2536	0.1631
357.4623	0.1499
357.671	0.158
357.8797	0.1717
358.0884	0.1682
358.2971	0.1574
358.5057	0.1693
358.7144	0.1748
358.923	0.1566
359.1316	0.1716
359.3402	0.1765
359.5488	0.1626
359.7574	0.1522
359.966	0.1815
360.1746	0.1741
360.3831	0.1582
360.5916	0.1667
360.8002	0.1682
361.0087	0.1847
361.2172	0.1754
361.4256	0.1705
361.6341	0.1647
361.8426	0.1829
362.051	0.1734
362.2594	0.1726
362.4678	0.1719
362.6762	0.1917
362.8846	0.1779
363.093	0.1709
363.3014	0.1729
363.5097	0.169
363.718	0.1797
363.9264	0.1674
364.1347	0.1802
364.343	0.1949
364.5513	0.1903
364.7595	0.1956
364.9678	0.1859
365.176	0.1894
365.3842	0.1906
365.5925	0.1932
365.8007	0.181
366.0089	0.1842
366.217	0.1794
366.4252	0.186
366.6333	0.1957
366.8415	0.2016
367.0496	0.1967
367.2577	0.2062
367.4658	0.2096
367.6739	0.1939
367.882	0.2043
368.09	0.1846
368.2981	0.2108
368.5061	0.1827
368.7141	0.2074
368.9221	0.1883
369.1301	0.2003
369.3381	0.1981
369.5461	0.2056
369.754	0.1934
369.962	0.2034
370.1699	0.2145
370.3778	0.1991
370.5857	0.1861
370.7936	0.2058
371.0015	0.1827
371.2093	0.2144
371.4172	0.2177
371.625	0.1814
371.8328	0.1943
372.0406	0.2036
372.2484	0.1937
372.4562	0.215
372.664	0.1946
372.8717	0.2248
373.0795	0.1913
373.2872	0.2066
373.4949	0.2066
373.7026	0.2132
373.9103	0.2132
374.118	0.226
374.3256	0.2067
374.5333	0.1956
374.7409	0.1954
374.9485	0.2277
375.1561	0.208
375.3637	0.2058
375.5713	0.2064
375.7789	0.2104
375.9864	0.224
376.194	0.2106
376.4015	0.2142
376.609	0.2168
376.8165	0.2229
377.024	0.2044
377.2315	0.2033
377.4389	0.2157
377.6464	0.2134
377.8538	0.2084
378.0612	0.2073
378.2686	0.2217
378.476	0.224
378.6834	0.2196
378.8908	0.2086
379.0981	0.2256
379.3055	0.2287
379.5128	0.222
379.7201	0.2145
379.9274	0.2241
380.1347	0.2154
380.342	0.2314
380.5492	0.1978
380.7565	0.2119
380.9637	0.2271
381.1709	0.2197
381.3781	0.2092
381.5853	0.2264
381.7925	0.2344
381.9997	0.2154
382.2068	0.2386
382.4139	0.2234
382.6211	0.232
382.8282	0.2241
383.0353	0.2131
383.2424	0.2289
383.4494	0.2293
383.6565	0.2163
383.8635	0.2292
384.0706	0.2178
384.2776	0.226
384.4846	0.2076
384.6916	0.2315
384.8986	0.2341
385.1055	0.2351
385.3125	0.2336
385.5194	0.2233
385.7263	0.2282
385.9333	0.2066
386.1402	0.2254
386.347	0.23
386.5539	0.2076
386.7608	0.2163
386.9676	0.198
387.1744	0.22
387.3813	0.2105
387.5881	0.2178
387.7948	0.2235
388.0016	0.217
388.2084	0.2154
388.4151	0.2159
388.6219	0.2102
388.8286	0.2297
389.0353	0.233
389.242	0.2279
389.4487	0.2169
389.6553	0.2201
389.862	0.1942
390.0686	0.2087
390.2753	0.2277
390.4819	0.2231
390.6885	0.1944
390.8951	0.2194
391.1016	0.2178
391.3082	0.2084
391.5147	0.2033
391.7213	0.2159
391.9278	0.1975
392.1343	0.2017
392.3408	0.1969
392.5473	0.1968
392.7537	0.1882
392.9602	0.1917
393.1666	0.192
393.373	0.2059
393.5794	0.2018
393.7858	0.193
393.9922	0.1898
394.1986	0.2004
394.4049	0.2109
394.6113	0.1827
394.8176	0.1826
395.0239	0.1979
395.2302	0.1974
395.4365	0.1778
395.6428	0.1904
395.8491	0.1863
396.0553	0.1783
396.2615	0.1874
396.4678	0.1916
396.674	0.1814
396.8802	0.181
397.0863	0.1983
397.2925	0.1776
397.4987	0.1875
397.7048	0.1908
397.9109	0.1899
398.117	0.1748
398.3231	0.2001
398.5292	0.1861
398.7353	0.1967
398.9413	0.1929
399.1474	0.1791
399.3534	0.1886
399.5594	0.1678
399.7654	0.1937
399.9714	0.1925
400.1774	0.1843
400.3833	0.1732
400.5893	0.1864
400.7952	0.1978
401.0011	0.1804
401.207	0.1775
401.4129	0.1886
401.6188	0.1884
401.8247	0.1942
402.0305	0.1829
402.2364	0.168
402.4422	0.2039
402.648	0.1766
402.8538	0.191
403.0596	0.1724
403.2654	0.1696
403.4711	0.1729
403.6768	0.19
403.8826	0.1967
404.0883	0.1855
404.294	0.1925
404.4997	0.1974
404.7054	0.1846
404.911	0.175
405.1167	0.1734
405.3223	0.2009
405.5279	0.1942
405.7335	0.2007
405.9391	0.2002
406.1447	0.1744
406.3502	0.2038
406.5558	0.1651
406.7613	0.1916
406.9668	0.1805
407.1724	0.1739
407.3778	0.1814
407.5833	0.1703
407.7888	0.178
407.9942	0.1994
408.1997	0.1716
408.4051	0.1691
408.6105	0.1675
408.8159	0.1702
409.0213	0.165
409.2267	0.1903
409.432	0.1789
409.6374	0.1776
409.8427	0.157
410.048	0.174
410.2533	0.1829
410.4586	0.1891
410.6639	0.1608
410.8691	0.1644
411.0744	0.1778
411.2796	0.159
411.4848	0.174
411.69	0.1635
411.8952	0.1845
412.1004	0.1643
412.3056	0.1823
412.5107	0.1776
412.7158	0.1786
412.921	0.1783
413.1261	0.1949
413.3312	0.172
413.5362	0.1642
413.7413	0.1689
413.9464	0.1923
414.1514	0.1566
414.3564	0.1716
414.5614	0.1686
414.7664	0.1842
414.9714	0.1775
415.1764	0.179
415.3813	0.1763
415.5863	0.1914
415.7912	0.1835
415.9961	0.1777
416.201	0.173
416.4059	0.1646
416.6108	0.1646
416.8156	0.1737
417.0205	0.1545
417.2253	0.149
417.4301	0.1751
417.6349	0.1644
417.8397	0.1594
418.0445	0.1711
418.2492	0.1598
418.454	0.1816
418.6587	0.165
418.8634	0.1791
419.0681	0.1534
419.2728	0.155
419.4775	0.1589
419.6822	0.1565
419.8868	0.1516
420.0915	0.1539
420.2961	0.1609
420.5007	0.1554
420.7053	0.149
420.9099	0.1616
421.1144	0.1654
421.319	0.1477
421.5235	0.165
421.728	0.1697
421.9325	0.1655
422.137	0.1614
422.3415	0.158
422.546	0.1471
422.7504	0.1459
422.9549	0.1609
423.1593	0.1662
423.3637	0.1559
423.5681	0.156
423.7725	0.1385
423.9769	0.1553
424.1812	0.1333
424.3856	0.1313
424.5899	0.1398
424.7942	0.1489
424.9985	0.1256
425.2028	0.1589
425.4071	0.1655
425.6113	0.1199
425.8156	0.1542
426.0198	0.1487
426.224	0.1117
426.4282	0.1309
426.6324	0.1374
426.8366	0.1256
427.0407	0.1294
427.2449	0.1385
427.449	0.1327
427.6531	0.1097
427.8572	0.1328
428.0613	0.1397
428.2654	0.1218
428.4694	0.1208
428.6735	0.1265
428.8775	0.1498
429.0815	0.1263
429.2855	0.1149
429.4895	0.1338
429.6935	0.1367
429.8975	0.1272
430.1014	0.1296
430.3053	0.1021
430.5093	0.1332
430.7132	0.1124
430.9171	0.1112
431.1209	0.1278
431.3248	0.1148
431.5286	0.1184
431.7325	0.1215
431.9363	0.1112
432.1401	0.1096
432.3439	0.1054
432.5477	0.0938
432.7514	0.0803
432.9552	0.1013
433.1589	0.0962
433.3627	0.1015
433.5664	0.1213
433.7701	0.0867
433.9737	0.1014
434.1774	0.0994
434.3811	0.0972
434.5847	0.1007
434.7883	0.1024
434.9919	0.0934
435.1955	0.0802
435.3991	0.0912
435.6027	0.1009
435.8062	0.0845
436.0098	0.0829
436.2133	0.0916
436.4168	0.0798
436.6203	0.08
436.8238	0.0767
437.0272	0.0814
437.2307	0.0787
437.4341	0.086
437.6375	0.0888
437.841	0.0711
438.0443	0.0907
438.2477	0.0799
438.4511	0.0537
438.6545	0.0712
438.8578	0.0872
439.0611	0.0794
439.2644	0.0846
439.4677	0.0641
439.671	0.0634
439.8743	0.0611
440.0775	0.0748
440.2808	0.0517
440.484	0.0723
440.6872	0.0411
440.8904	0.0533
441.0936	0.0706
441.2967	0.051
441.4999	0.0625
441.703	0.0485
441.9062	0.0491
442.1093	0.0628
442.3124	0.063
442.5155	0.0325
442.7185	0.0439
442.9216	0.0266
443.1246	0.0657
443.3276	0.0462
443.5307	0.031
443.7337	0.0474
443.9366	0.0521
444.1396	0.0454
444.3426	0.0532
444.5455	0.0448
444.7484	0.0373
444.9513	0.0284
445.1542	0.0521
445.3571	0.0455
445.56	0.0317
445.7628	0.0224
445.9657	0.0321
446.1685	0.0422
446.3713	0.039
446.5741	0.0399
446.7769	0.0195
446.9797	0.0337
447.1824	0.0419
447.3852	0.0337
447.5879	0.0391
447.7906	0.032
447.9933	0.034
448.196	0.0203
448.3986	0.0224
448.6013	0.0297
448.8039	0.0143
449.0066	0.0164
449.2092	0.0397
449.4118	0.0319
449.6143	0.0176
449.8169	0.0349
450.0195	0.0257
450.222	0.0164
450.4245	0.0297
450.627	0.0246
450.8295	0.0312
451.032	0.0225
451.2345	0.0221
451.4369	0.0314
451.6394	0.021
451.8418	0.0027
452.0442	0.0143
452.2466	0.0289
452.449	0.0138
452.6513	0.0166
452.8537	0.0135
453.056	0.0088
453.2583	0.0229
453.4607	0.014
453.663	0.0251
453.8652	0.0264
454.0675	0.0097
454.2697	0.0263
454.472	-0.0088
454.6742	0.014
454.8764	0.013
455.0786	0.0116
455.2808	0.0095
455.4829	0.0236
455.6851	0.0136
455.8872	0.0144
456.0893	0.021
456.2915	-0.0046
456.4935	0.0193
456.6956	-0.0004
456.8977	0.0126
457.0997	-0.0128
457.3018	-0.0044
457.5038	0.0069
457.7058	0.0075
457.9078	-0.0024
458.1098	0.01
458.3117	0.0077
458.5137	0.0046
458.7156	-0.0002
458.9175	-0.008
459.1194	-0.0001
459.3213	0.0033
459.5232	-0.0121
459.725	-0.0046
459.9269	-0.0035
460.1287	-0.0013
460.3305	0.0051
460.5323	0.0101
460.7341	-0.0127
460.9359	-0.0074
461.1376	0.0014
461.3394	0.0086
461.5411	0.0088
461.7428	-0.0086
461.9445	0.0084
462.1462	0.0133
462.3479	0.0098
462.5495	0.0018
462.7512	-0.0006
462.9528	-0.0023
463.1544	-0.0147
463.356	0.007
463.5576	0.015
463.7592	-0.0004
463.9607	0.0026
464.1623	0.0077
464.3638	0.0163
464.5653	-0.0147
464.7668	-0.0138
464.9683	-0.0009
465.1697	0.0165
465.3712	-0.0164
465.5726	-0.023
465.7741	0.0015
465.9755	-0.0101
466.1769	-0.0089
466.3782	0.0017
466.5796	-0.0174
466.7809	0.0054
466.9823	-0.0102
467.1836	0.0018
467.3849	-0.01
467.5862	-0.0037
467.7875	-0.0054
467.9887	0.0189
468.19	-0.0109
468.3912	-0.013
468.5924	-0.0052
468.7936	0.0017
468.9948	0.0144
469.196	-0.0116
469.3972	-0.013
469.5983	0.0181
469.7994	-0.0259
470.0006	-0.0188
470.2017	-0.0147
470.4027	-0.0151
470.6038	0.0108
470.8049	-0.0251
471.0059	-0.0155
471.2069	-0.0181
471.408	0.0081
471.6089	0.0079
471.8099	-0.0074
472.0109	-0.004
472.2119	-0.0093
472.4128	-0.0214
472.6137	0.0042
472.8146	-0.0258
473.0155	-0.0028
473.2164	-0.0036
473.4173	-0.0004
473.6181	0.0113
473.819	0.0056
474.0198	-0.0083
474.2206	-0.0086
474.4214	-0.0068
474.6222	-0.0057
474.8229	-0.0075
475.0237	-0.0178
475.2244	-0.0094
475.4251	-0.0018
475.6258	0.0018
475.8265	-0.01
476.0272	-0.0023
476.2278	-0.0065
476.4285	-0.0084
476.6291	-0.016
476.8297	-0.0147
477.0303	0.0001
477.2309	0.0013
477.4315	-0.0215
477.632	-0.0181
477.8326	-0.0121
478.0331	-0.0025
478.2336	0.0068
478.4341	-0.0046
478.6346	-0.0112
478.8351	-0.0067
479.0355	-0.0139
479.236	-0.0138
479.4364	-0.0026
479.6368	-0.0103
479.8372	-0.0096
480.0376	-0.0027
480.2379	-0.0289
480.4383	-0.0022
480.6386	0.0047
480.8389	-0.009
481.0392	-0.0158
481.2395	-0.0108
481.4398	0.0067
481.6401	-0.0094
481.8403	-0.0099
482.0405	-0.0082
482.2408	-0.0036
482.441	0.012
482.6411	-0.007
482.8413	-0.0161
483.0415	-0.0106
483.2416	-0.0109
483.4417	-0.0116
483.6419	-0.0085
483.8419	-0.0198
484.042	-0.0033
484.2421	-0.0015
484.4422	0.0027
484.6422	-0.0061
484.8422	0.0013
485.0422	-0.0195
485.2422	-0.0037
485.4422	-0.0132
485.6422	-0.0116
485.8421	-0.0096
486.042	-0.0043
486.242	-0.0124
486.4419	-0.0125
486.6417	-0.0117
486.8416	-0.0051
487.0415	-0.0095
487.2413	-0.0114
487.4411	-0.0076
487.641	-0.0141
487.8408	-0.0005
488.0405	-0.0124
488.2403	-0.0075
488.4401	0.0011
488.6398	-0.0042
488.8395	-0.0086
489.0392	-0.007
489.2389	-0.0116
489.4386	-0.0066
489.6383	-0.0099
489.8379	0.0054
490.0376	-0.0097
490.2372	-0.0209
490.4368	-0.01
490.6364	-0.0155
490.836	-0.027
491.0355	-0.0139
491.2351	-0.0129
491.4346	-0.0078
491.6341	-0.0197
491.8336	-0.0099
492.0331	-0.0194
492.2326	-0.0175
492.432	-0.0056
492.6315	-0.0092
492.8309	-0.0145
493.0303	-0.0133
493.2297	-0.0171
493.4291	-0.0074
493.6284	-0.0051
493.8278	-0.0085
494.0271	-0.006
494.2264	0.0071
494.4257	-0.0263
494.625	-0.0116
494.8243	-0.0208
495.0236	-0.0104
495.2228	-0.0223
495.422	-0.0055
495.6213	-0.0183
495.8205	-0.0183
496.0196	-0.0026
496.2188	-0.0073
496.418	-0.0242
496.6171	-0.0136
496.8162	-0.0262
497.0153	-0.0125
497.2144	-0.0105
497.4135	-0.0142
497.6126	-0.0043
497.8116	-0.011
498.0107	0.0005
498.2097	-0.0172
498.4087	-0.0249
498.6077	-0.0109
498.8067	-0.0131
499.0056	0.0005
499.2046	-0.0204
499.4035	-0.024
499.6024	-0.0132
499.8013	-0.0119
500.0002	-0.0169
500.199	-0.0074
500.3979	-0.0104
500.5967	-0.0166
500.7956	-0.0009
500.9944	0.0004
501.1932	-0.0172
501.3919	-0.0091
501.5907	-0.0125
501.7895	-0.005
501.9882	-0.02
502.1869	-0.0112
502.3856	-0.0194
502.5843	-0.0207
502.783	-0.0105
502.9816	-0.0101
503.1803	-0.0114
503.3789	-0.0121
503.5775	-0.0045
503.7761	-0.0129
503.9747	0.0015
504.1732	-0.0094
504.3718	-0.0054
504.5703	-0.0101
504.7689	-0.0164
504.9674	-0.0187
505.1658	-0.0079
505.3643	-0.018
505.5628	-0.0106
505.7612	-0.0098
505.9597	0.0019
506.1581	-0.018
506.3565	0.0058
506.5549	-0.0076
506.7532	-0.0148
506.9516	-0.0068
507.1499	-0.0075
507.3482	-0.0196
507.5465	-0.0097
507.7448	-0.0044
507.9431	-0.0091
508.1414	-0.0065
508.3396	-0.0157
508.5379	-0.01
508.7361	-0.0161
508.9343	-0.0132
509.1325	-0.0082
509.3306	-0.0101
509.5288	-0.0063
509.7269	-0.0111
509.9251	-0.011
510.1232	-0.0059
510.3213	0.0029
510.5193	-0.0017
510.7174	-0.0204
510.9154	-0.0092
511.1135	-0.0166
511.3115	-0.0081
511.5095	-0.0123
511.7075	-0.0087
511.9055	-0.0229
512.1034	-0.0165
512.3014	-0.0119
512.4993	0.0045
512.6972	-0.0098
512.8951	-0.0279
513.093	-0.0012
513.2908	-0.0129
513.4887	-0.0087
513.6865	-0.011
513.8844	-0.022
514.0822	-0.0146
514.2799	-0.0111
514.4777	-0.0111
514.6755	-0.0176
514.8732	-0.0077
515.0709	-0.0116
515.2687	-0.0093
515.4664	-0.0081
515.664	0.0004
515.8617	-0.0112
516.0594	-0.0206
516.257	-0.0072
516.4546	-0.0216
516.6522	0.0056
516.8498	-0.0131
517.0474	-0.0043
517.2449	-0.0158
517.4425	-0.0179
517.64	-0.006
517.8375	-0.0019
518.035	-0.0054
518.2325	-0.0101
518.43	-0.0101
518.6274	-0.0096
518.8249	-0.0264
519.0223	-0.0063
519.2197	-0.0099
519.4171	-0.0159
519.6145	-0.009
519.8118	-0.0104
520.0092	-0.0152
520.2065	-0.0118
520.4038	-0.0162
520.6011	-0.0086
520.7984	-0.0137
520.9956	-0.0154
521.1929	-0.0072
521.3901	-0.0074
521.5874	-0.0219
521.7846	0.0026
521.9818	-0.0211
522.1789	-0.0142
522.3761	-0.0053
522.5732	-0.0049
522.7704	-0.0046
522.9675	-0.0077
523.1646	-0.0215
523.3617	-0.0047
523.5587	-0.0061
523.7558	-0.0186
523.9528	-0.0059
524.1498	-0.0076
524.3468	-0.0031
524.5438	-0.0093
524.7408	-0.0149
524.9378	-0.0058
525.1347	-0.0068
525.3316	-0.003
525.5285	-0.0148
525.7254	-0.0082
525.9223	-0.0046
526.1192	-0.0027
526.316	-0.0142
526.5129	-0.0048
526.7097	-0.0078
526.9065	-0.0154
527.1033	-0.0009
527.3	0.0027
527.4968	-0.0067
527.6935	-0.0139
527.8903	-0.0161
528.087	-0.0139
528.2837	-0.0112
528.4804	0.0016
528.677	-0.0063
528.8737	-0.0059
529.0703	-0.0099
529.2669	-0.0091
529.4635	-0.0102
529.6601	-0.0133
529.8567	-0.0081
530.0532	-0.0163
530.2498	0.0003
530.4463	-0.0039
530.6428	-0.0067
530.8393	-0.0044
531.0358	-0.0123
531.2322	-0.0016
531.4287	-0.0107
531.6251	-0.0166
531.8215	0.0053
532.0179	-0.0039
532.2143	0.0051
532.4107	-0.0091
532.607	-0.0182
532.8034	-0.0055
532.9997	0
533.196	-0.0043
533.3923	-0.0142
533.5886	-0.0147
533.7848	-0.0055
533.9811	-0.0063
534.1773	0.0008
534.3735	0.0037
534.5697	-0.016
534.7659	-0.0117
534.9621	-0.0059
535.1582	-0.0103
535.3544	-0.0135
535.5505	-0.0024
535.7466	-0.0092
535.9427	-0.0132
536.1387	-0.0044
536.3348	-0.0122
536.5308	-0.0014
536.7269	-0.0137
536.9229	-0.0041
537.1189	-0.0078
537.3148	-0.0031
537.5108	-0.0125
537.7068	-0.0055
537.9027	-0.0043
538.0986	-0.0157
538.2945	-0.0175
538.4904	-0.0076
538.6863	-0.0083
538.8821	-0.0099
539.078	-0.0088
539.2738	-0.0072
539.4696	-0.0046
539.6654	-0.0079
539.8611	0.012
540.0569	0.0009
540.2526	-0.0112
540.4484	-0.0005
540.6441	0.0035
540.8398	0.001
541.0355	-0.0014
541.2311	-0.0008
541.4268	-0.011
541.6224	-0.0028
541.818	-0.0013
542.0136	-0.0071
542.2092	-0.0093
542.4048	-0.0066
542.6003	-0.0018
542.7959	-0.0084
542.9914	0.011
543.1869	-0.011
543.3824	-0.0094
543.5779	-0.0123
543.7734	-0.0076
543.9688	-0.01
544.1642	0.0091
544.3596	-0.0013
544.555	-0.0072
544.7504	0.0017
544.9458	-0.0036
545.1411	-0.0035
545.3365	-0.0036
545.5318	-0.0091
545.7271	-0.0023
545.9224	-0.0081
546.1177	-0.0039
546.3129	-0.0082
546.5081	-0.0123
546.7034	-0.0051
546.8986	-0.0017
547.0938	-0.0121
547.289	-0.0045
547.4841	-0.002
547.6793	-0.0015
547.8744	-0.0084
548.0695	0.001
548.2646	-0.0089
548.4597	0.002
548.6548	-0.0113
548.8498	-0.0078
549.0448	0.0003
549.2399	-0.0065
549.4349	0.0019
549.6298	-0.0066
549.8248	-0.003
550.0198	0.0002
550.2147	-0.006
550.4096	-0.0112
550.6045	0.0003
550.7994	-0.0055
550.9943	-0.0022
551.1892	-0.0052
551.384	0.0087
551.5788	-0.0065
551.7737	-0.0068
551.9685	0.0022
552.1632	-0.0043
552.358	-0.0106
552.5528	0.0064
552.7475	-0.0012
552.9422	-0.001
553.1369	0.0017
553.3316	0.0064
553.5263	-0.0223
553.7209	0.0006
553.9156	-0.005
554.1102	-0.0105
554.3048	-0.0145
554.4994	0.0048
554.694	-0.0034
554.8885	0.0011
555.0831	-0.0198
555.2776	-0.0087
555.4721	-0.0024
555.6666	-0.0055
555.8611	0.0063
556.0555	-0.0029
556.25	-0.0028
556.4444	-0.0127
556.6388	-0.0023
556.8332	0.0053
557.0276	-0.0091
557.222	-0.0102
557.4163	-0.0075
557.6107	-0.0099
557.805	0.0047
557.9993	-0.0095
558.1936	0.0011
558.3879	0.001
558.5821	-0.0012
558.7764	-0.0085
558.9706	-0.0091
559.1648	-0.0005
559.359	-0.0027
559.5532	-0.0085
559.7473	-0.0024
559.9415	0.0009
560.1356	-0.0082
560.3297	-0.01
560.5238	-0.0092
560.7179	-0.0067
560.9119	-0.009
561.106	-0.0082
561.3	-0.0077
561.494	-0.0043
561.688	-0.0041
561.882	-0.0126
562.076	-0.0092
562.2699	-0.0004
562.4639	-0.0086
562.6578	-0.011
562.8517	0.0012
563.0456	-0.0061
563.2395	0.0018
563.4333	-0.0042
563.6272	0.012
563.821	-0.0005
564.0148	-0.0005
564.2086	-0.004
564.4024	-0.0079
564.5961	-0.0065
564.7899	-0.0014
564.9836	-0.0105
565.1773	-0.0059
565.371	0.0026
565.5647	0.0059
565.7584	-0.0002
565.952	-0.0102
566.1456	-0.0006
566.3393	-0.0018
566.5329	-0.0112
566.7264	0.0013
566.92	-0.0062
567.1136	0.0074
567.3071	-0.0029
567.5006	0.0019
567.6941	-0.0005
567.8876	-0.0034
568.0811	-0.009
568.2745	-0.0081
568.468	0.0045
568.6614	-0.0043
568.8548	-0.0001
569.0482	-0.0033
569.2416	0.0004
569.4349	-0.0036
569.6283	0.0033
569.8216	-0.006
570.0149	-0.0119
570.2082	0.0022
570.4015	0.0064
570.5947	0.0018
570.788	0.0085
570.9812	0.0047
571.1744	-0.0017
571.3676	-0.003
571.5608	0.0019
571.754	0.0013
571.9471	-0.0005
572.1402	0.0047
572.3333	0.0016
572.5264	-0.0047
572.7195	-0.0022
572.9126	-0.0038
573.1057	-0.0057
573.2987	0.003
573.4917	-0.002
573.6847	-0.0102
573.8777	0.0014
574.0707	0.0024
574.2636	-0.0046
574.4566	-0.0033
574.6495	-0.0005
574.8424	-0.0012
575.0353	-0.005
575.2281	0.0065
575.421	0.0006
575.6138	0.0028
575.8067	-0.0038
575.9995	-0.0049
576.1923	-0.0037
576.385	-0.0021
576.5778	-0.0062
576.7706	0.0004
576.9633	-0.0049
577.156	0.0044
577.3487	-0.0012
577.5414	0.0001
577.734	-0.0021
577.9267	0.005
578.1193	-0.0058
578.3119	-0.0059
578.5045	-0.0028
578.6971	-0.0014
578.8897	0.0024
579.0822	-0.0064
579.2747	-0.0046
579.4673	-0.0023
579.6598	-0.0044
579.8522	-0.0026
580.0447	-0.0048
580.2372	-0.0088
580.4296	0.0015
580.622	-0.0039
580.8144	-0.001
581.0068	-0.0026
581.1992	-0.0111
581.3915	-0.0066
581.5839	-0.0142
581.7762	-0.012
581.9685	-0.0049
582.1608	-0.0012
582.353	-0.0026
582.5453	0.0015
582.7375	0.0008
582.9298	0.0021
583.122	-0.0052
583.3142	0.0034
583.5063	-0.0031
583.6985	-0.0004
583.8906	-0.0023
584.0827	-0.0022
584.2749	-0.0024
584.4669	-0.003
584.659	-0.0028
584.8511	-0.0029
585.0431	-0.008
585.2352	0.0033
585.4272	-0.0031
585.6192	-0.0005
585.8111	-0.0037
586.0031	-0.0055
586.195	-0.002
586.387	-0.0051
586.5789	-0.0036
586.7708	0.0009
586.9627	0.0002
587.1545	-0.0106
587.3464	-0.0044
587.5382	0.0019
587.73	-0.0013
587.9218	0.0061
588.1136	-0.001
588.3053	0.0077
588.4971	-0.0013
588.6888	-0.0095
588.8805	-0.0001
589.0722	-0.0015
589.2639	0.0009
589.4556	0.0024
589.6472	-0.0047
589.8389	-0.0094
590.0305	-0.0088
590.2221	0.0007
590.4137	-0.0126
590.6052	0.0075
590.7968	0.0005
590.9883	-0.0046
591.1798	-0.0029
591.3713	0.0014
591.5628	-0.0013
591.7543	-0.0003
591.9458	-0.002
592.1372	0.0028
592.3286	0.0066
592.52	0.0058
592.7114	-0.0025
592.9028	-0.0038
593.0941	-0.0028
593.2855	0.0009
593.4768	-0.008
593.6681	-0.0121
593.8594	-0.0042
594.0506	-0.0034
594.2419	0.0053
594.4331	-0.0045
594.6244	0.0045
594.8156	-0.0015
595.0067	-0.0062
595.1979	-0.0001
595.3891	0.0078
595.5802	-0.0017
595.7713	-0.0042
595.9624	-0.0044
596.1535	0.0007
596.3446	-0.004
596.5357	0.002
596.7267	0.0017
596.9177	0.0022
597.1087	-0.0014
597.2997	-0.0076
597.4907	0.0027
597.6817	-0.0048
597.8726	0.0013
598.0635	-0.0022
598.2544	0.0008
598.4453	-0.0016
598.6362	-0.003
598.827	-0.0006
599.0179	0.003
599.2087	-0.0018
599.3995	0.0065
599.5903	-0.0001
599.7811	0.0022
599.9718	0.0042
600.1626	-0.0051
600.3533	-0.0082
600.544	0.003
600.7347	-0.0015
600.9254	0.0071
601.116	-0.0059
601.3067	-0.0032
601.4973	-0.0011
601.6879	-0.0051
601.8785	-0.0108
602.0691	-0.0007
602.2596	0.002
602.4502	-0.0047
602.6407	-0.0004
602.8312	-0.0039
603.0217	-0.015
603.2122	0.0003
603.4027	-0.0028
603.5931	-0.0039
603.7835	-0.0017
603.9739	-0.005
604.1643	-0.0014
604.3547	-0.0058
604.5451	0.0005
604.7354	0.0022
604.9257	-0.0063
605.116	-0.0043
605.3063	-0.0011
605.4966	0.0017
605.6869	-0.0041
605.8771	0.0031
606.0673	0.0027
606.2575	0.0082
606.4477	0.0032
606.6379	-0.0044
606.8281	0.0045
607.0182	-0.0049
607.2083	0.0093
607.3985	-0.005
607.5885	0.0002
607.7786	-0.0011
607.9687	-0.0074
608.1587	0.0031
608.3488	0.0006
608.5388	0.0006
608.7288	0.002
608.9187	-0.0055
609.1087	-0.0099
609.2986	-0.0066
609.4886	0.0024
609.6785	-0.0027
609.8684	0.0017
610.0582	0.0041
610.2481	-0.0031
610.4379	-0.0062
610.6278	-0.0038
610.8176	0.0006
611.0074	-0.0049
611.1971	-0.007
611.3869	0.0008
611.5766	-0.0089
611.7664	0.0045
611.9561	-0.0015
612.1458	0.0028
612.3354	-0.0156
612.5251	-0.0035
612.7147	0.0029
612.9044	0.0004
613.094	-0.016
613.2836	-0.0009
613.4731	-0.0076
613.6627	-0.0061
613.8522	0.0111
614.0417	0.004
614.2313	-0.0017
614.4207	-0.0032
614.6102	-0.0038
614.7997	0.0002
614.9891	-0.0035
615.1785	0.0054
615.3679	-0.0051
615.5573	0.0013
615.7467	-0.0016
615.9361	-0.0059
616.1254	0.005
616.3147	-0.0021
616.504	0.0042
616.6933	-0.0003
616.8826	0.0046
617.0718	0.0007
617.2611	0.003
617.4503	-0.0056
617.6395	-0.0022
617.8287	-0.003
618.0179	-0.0028
618.207	0.0087
618.3961	-0.0001
618.5853	-0.0026
618.7744	0.0093
618.9634	0.005
619.1525	-0.0028
619.3416	-0.006
619.5306	0.0016
619.7196	-0.006
619.9086	-0.0098
620.0976	-0.0055
620.2866	-0.0033
620.4755	-0.0015
620.6645	0.0048
620.8534	0.002
621.0423	0.0009
621.2312	0.0012
621.42	-0.0004
621.6089	0.0024
621.7977	0.005
621.9865	-0.0043
622.1753	0.0062
622.3641	-0.0034
622.5529	0.0088
622.7416	0.0072
622.9303	-0.002
623.1191	0.0064
623.3078	-0.0064
623.4964	-0.004
623.6851	0.0034
623.8737	-0.005
624.0624	0.0016
624.251	-0.0065
624.4396	-0.0073
624.6282	-0.0037
624.8167	-0.0001
625.0053	0.0035
625.1938	0.0011
625.3823	-0.0014
625.5708	-0.0036
625.7593	-0.0077
625.9477	-0.0071
626.1362	-0.0033
626.3246	-0.001
626.513	0.0039
626.7014	0.0063
626.8898	-0.0008
627.0781	-0.005
627.2665	-0.0081
627.4548	0.0029
627.6431	0.0047
627.8314	-0.011
628.0197	0.0018
628.2079	-0.0047
628.3962	-0.0086
628.5844	0.0088
628.7726	0.0036
628.9608	0.0068
629.1489	0.0013
629.3371	0.003
629.5252	-0.0053
629.7134	0.0115
629.9015	0.0012
630.0895	0.0008
630.2776	0.0025
630.4657	-0.0017
630.6537	0.0016
630.8417	-0.0058
631.0297	-0.0018
631.2177	0.0018
631.4057	-0.0084
631.5936	-0.002
631.7815	-0
631.9695	0.0033
632.1574	0.0032
632.3452	0.0087
632.5331	0.0013
632.7209	0.0027
632.9088	0.0151
633.0966	0.0081
633.2844	0.0009
633.4722	-0.0002
633.6599	0.0007
633.8477	-0.0004
634.0354	-0.0046
634.2231	-0.0032
634.4108	-0.0012
634.5985	0.0063
634.7861	0.0004
634.9738	0.0012
635.1614	0.0079
635.349	0.0014
635.5366	0.0028
635.7242	-0.0026
635.9117	0.0033
636.0993	-0.0024
636.2868	0.0055
636.4743	-0.0031
636.6618	0.006
636.8492	0.0022
637.0367	-0.0007
637.2241	-0.0012
637.4115	-0.0026
637.5989	-0.0032
637.7863	-0.0016
637.9737	0.0036
638.161	0.0021
638.3484	-0.0033
638.5357	0.0026
638.723	-0.0034
638.9103	0.0032
639.0975	0.012
639.2848	0.0039
639.472	0.0035
639.6592	0.0025
639.8464	0.0103
640.0336	0.0035
640.2208	-0.0036
640.4079	-0.005
640.595	-0.0025
640.7821	0.0052
640.9692	0.0007
641.1563	0.0004
641.3434	0.0079
641.5304	0.0092
641.7174	0.0085
641.9044	0.0061
642.0914	0.0083
642.2784	0.0084
642.4653	0.0151
642.6523	0.0036
642.8392	0.0019
643.0261	0.0079
643.213	0.0013
643.3999	0.0037
643.5867	-0.0033
643.7735	0.0026
643.9604	0.0015
644.1472	0.0029
644.3339	0.0048
644.5207	0.0015
644.7075	0.0025
644.8942	0.0064
645.0809	0.0049
645.2676	0.0136
645.4543	0.0004
645.6409	0.0078
645.8276	0.0031
646.0142	0.0111
646.2008	0.0005
646.3874	-0.0018
646.574	-0.001
646.7605	-0.0016
646.9471	-0.0038
647.1336	-0.0005
647.3201	0.002
647.5066	-0.003
647.6931	0.0089
647.8795	-0.0007
648.0659	0.0009
648.2524	0.0049
648.4388	0.0009
648.6252	-0.0037
648.8115	0.0054
648.9979	0.0026
649.1842	-0.0003
649.3705	0.0059
649.5568	0.0062
649.7431	0.0032
649.9294	0.0012
650.1156	-0.0013
650.3018	0.0011
650.488	0.0055
650.6742	0.0008
650.8604	0.0052
651.0466	-0.004
651.2327	-0.0012
651.4188	0.0026
651.6049	-0.003
651.791	-0.0041
651.9771	0.0004
652.1632	0.0037
652.3492	0.0005
652.5352	-0.0017
652.7212	0.0007
652.9072	0.0057
653.0932	-0.0036
653.2791	-0.0046
653.465	-0.0024
653.651	-0.0072
653.8369	-0.002
654.0227	-0.0041
654.2086	0.0056
654.3944	0.0029
654.5803	0.002
654.7661	-0.0038
654.9519	0.0014
655.1377	-0.007
655.3234	-0.0013
655.5092	-0.0031
655.6949	-0.0071
655.8806	-0.0086
656.0663	-0.0022
656.2519	-0.0046
656.4376	-0.0033
656.6232	0.0041
656.8088	0.0001
656.9945	-0.0009
657.18	0.0017
657.3656	0.0021
657.5511	-0.0033
657.7367	-0.002
657.9222	0.0076
658.1077	-0.0056
658.2932	0.0064
658.4786	-0.0066
658.6641	0.0024
658.8495	-0.0008
659.0349	-0.0019
659.2203	0.0053
659.4057	0.0016
659.591	0.0039
659.7764	-0.0011
659.9617	0.0052
660.147	-0.0009
660.3323	0.0049
660.5176	0.0099
660.7028	0.0055
660.888	0.0047
661.0733	-0.0005
661.2585	-0.0106
661.4436	-0.0015
661.6288	-0.0114
661.8139	-0.0047
661.9991	0.0115
662.1842	-0.0019
662.3693	-0.003
662.5544	-0.0019
662.7394	0.0052
662.9245	0.0027
663.1095	0.0037
663.2945	-0.0011
663.4795	0.0008
663.6644	0.0039
663.8494	0.0015
664.0343	0.0011
664.2193	-0.0087
664.4042	-0.0009
664.589	-0.0051
664.7739	-0.0055
664.9587	-0.0079
665.1436	-0.0028
665.3284	-0.0008
665.5132	-0.0038
665.698	0.0029
665.8827	0.0049
666.0675	-0.005
666.2522	-0.0053
666.4369	-0.0009
666.6216	0.0023
666.8063	0.0043
666.9909	-0.0019
667.1756	0.0042
667.3602	0.0032
667.5448	-0.0039
667.7294	0.0082
667.9139	-0.0004
668.0985	0.0072
668.283	-0.0005
668.4675	-0.0012
668.652	0.0005
668.8365	-0.005
669.0209	0.0053
669.2054	0.0047
669.3898	-0.0013
669.5742	-0.0014
669.7586	-0.0001
669.943	0.0063
670.1273	0.0084
670.3117	0.0013
670.496	0.0067
670.6803	0.0116
670.8646	0.0092
671.0488	-0.0048
671.2331	0.0007
671.4173	0.0038
671.6015	-0.0003
671.7857	-0.0001
671.9699	0.0057
672.1541	0.0056
672.3382	0.0012
672.5223	0.0111
672.7064	0.0067
672.8905	0.0032
673.0746	-0.0037
673.2587	-0.0018
673.4427	-0.0008
673.6267	0.0032
673.8107	0.01
673.9947	0.0068
674.1787	0.007
674.3626	-0.0061
674.5465	0.0095
674.7304	0.0066
674.9143	0.0019
675.0982	0.0071
675.2821	-0.006
675.4659	0.0066
675.6497	-0.0018
675.8335	-0.0037
676.0173	-0.004
676.2011	-0.0046
676.3849	-0.0022
676.5686	-0.0033
676.7523	0.0007
676.936	0.0006
677.1197	-0.0012
677.3034	-0.0042
677.487	0.008
677.6706	-0.0039
677.8542	0.0027
678.0378	-0.0005
678.2214	0.0027
678.405	-0.0056
678.5885	-0.0065
678.772	0.0047
678.9555	-0.0043
679.139	-0.0036
679.3225	-0.004
679.5059	-0.0002
679.6894	0.0016
679.8728	-0.0035
680.0562	-0.0152
680.2395	-0.0057
680.4229	0.002
680.6062	0.0024
680.7896	0.0007
680.9729	-0.0007
681.1562	0.0065
681.3394	-0.0014
681.5227	-0.0128
681.7059	-0.005
681.8891	0.0041
682.0723	0.0022
682.2555	-0.0018
682.4387	-0.0062
682.6218	-0.0007
682.805	0.0096
682.9881	0.0008
683.1712	0.0007
683.3542	0.0006
683.5373	0.0023
683.7203	-0.0018
683.9034	-0.0063
684.0864	-0.0149
684.2694	0.0033
684.4523	0.006
684.6353	-0.0042
684.8182	0.0009
685.0011	-0.0062
685.184	-0.0017
685.3669	0.0006
685.5498	-0.0011
685.7326	0.0002
685.9154	-0.0031
686.0982	0.003
686.281	0.0016
686.4638	0.0063
686.6465	0.0007
686.8293	-0.0069
687.012	-0.0003
687.1947	-0.0058
687.3774	0.0024
687.56	-0.005
687.7427	0.0054
687.9253	-0.0064
688.1079	-0.0044
688.2905	0.0027
688.4731	0.001
688.6556	-0.0076
688.8382	-0.0004
689.0207	0.0051
689.2032	-0.0112
689.3857	-0.0089
689.5681	-0.011
689.7506	-0.0097
689.933	-0.0043
690.1154	-0.0036
690.2978	-0.0047
690.4802	0.001
690.6626	-0.0069
690.8449	-0.018
691.0272	0.0065
691.2095	-0.0102
691.3918	-0.0006
691.5741	0.0025
691.7563	-0.0098
691.9386	-0.005
692.1208	-0.0079
692.303	-0.0009
692.4852	0.0012
692.6673	-0.0065
692.8495	-0.0003
693.0316	-0.0043
693.2137	-0.0036
693.3958	-0.0042
693.5778	-0.0039
693.7599	-0.0019
693.9419	-0.0049
694.1239	0.0022
694.3059	-0.0038
694.4879	0.0049
694.6699	0.0073
694.8518	0.0025
695.0337	0.0016
695.2157	0.0023
695.3975	-0.0014
695.5794	0.0002
695.7613	0.0016
695.9431	-0.004
696.1249	0
696.3067	0.0053
696.4885	0.0036
696.6703	-0.0009
696.852	0.0026
697.0337	0.0038
697.2154	0.0012
697.3971	0.0009
697.5788	-0.0023
697.7605	0.0006
697.9421	-0.0013
698.1237	-0.0016
698.3053	0.0022
698.4869	0.0008
698.6685	-0.012
698.85	0.0035
699.0315	0.0054
699.213	-0.0032
699.3945	0.0024
699.576	0.0058
699.7575	0.0032
699.9389	0.0054
700.1203	-0.0033
700.3017	-0.0119
700.4831	-0.006
700.6645	-0.0029
700.8458	0.0001
701.0271	-0.0048
701.2084	0.0066
701.3897	0.0009
701.571	0.0058
701.7523	-0.01
701.9335	0.0024
702.1147	-0.002
702.2959	0.0002
702.4771	0.0023
702.6583	-0.0025
702.8394	-0.0051
703.0205	0.0032
703.2016	-0.0116
703.3827	-0.0028
703.5638	0.0089
703.7449	-0.0007
703.9259	0.0096
704.1069	-0.0051
704.2879	0.0061
704.4689	-0.0033
704.6499	-0.0004
704.8308	-0.0023
705.0117	0.0054
705.1927	0.0014
705.3735	-0.0044
705.5544	-0.0086
705.7353	-0.0035
705.9161	0.0005
706.0969	-0.007
706.2777	0.0047
706.4585	-0.0067
706.6393	0.0019
706.82	-0.0047
707.0007	-0.003
707.1815	0.0101
707.3621	0.0047
707.5428	0.0055
707.7235	0.0019
707.9041	-0.0047
708.0847	-0.0109
708.2653	-0.0052
708.4459	-0.01
708.6265	-0.0008
708.807	0.0021
708.9875	-0.0068
709.168	-0.0038
709.3485	-0.0081
709.529	-0.0076
709.7095	-0.0165
709.8899	-0.0036
710.0703	-0.0039
710.2507	-0.0066
710.4311	-0.0029
710.6115	-0.0156
710.7918	-0.0106
710.9721	-0.0042
711.1524	-0.009
711.3327	-0.0048
711.513	0.0043
711.6932	0.005
711.8735	0.016
712.0537	0.0069
712.2339	0.0039
712.4141	-0.0109
712.5942	-0.0044
712.7744	-0.0031
712.9545	-0.0103
713.1346	-0.0081
713.3147	-0.0002
713.4947	-0.0045
713.6748	-0.003
713.8548	-0.0036
714.0348	-0.0082
714.2148	-0.0059
714.3948	0.0027
714.5748	-0.0052
714.7547	-0.0073
714.9346	0.0029
715.1145	-0.0001
715.2944	-0.0138
715.4743	0.0024
715.6541	0.0012
715.834	-0.0037
716.0138	-0.0041
716.1936	-0.0198
716.3733	-0.0064
716.5531	0.0074
716.7328	-0.0005
716.9126	-0.0052
717.0923	-0.0029
717.2719	0.0018
717.4516	0.0069
717.6312	0.0041
717.8109	-0.0138
717.9905	0.0057
718.1701	-0.0032
718.3496	-0.0068
718.5292	-0.0026
718.7087	-0.0068
718.8882	-0.0038
719.0677	0.0102
719.2472	0.0009
719.4267	-0.0005
719.6061	-0.0036
719.7856	0.0081
719.965	0.0009
720.1443	0
720.3237	0.019
720.5031	0.005
720.6824	0.0047
720.8617	-0.0005
721.041	0.0019
721.2203	0.0131
721.3995	0.0018
721.5788	-0.0016
721.758	0.0049
721.9372	-0.0036
722.1164	0.0034
722.2956	0.0072
722.4747	0.0015
722.6538	-0.0085
722.8329	0.0033
723.012	-0.0047
723.1911	-0.0028
723.3702	0.0027
723.5492	0.0064
723.7282	-0.0036
723.9072	0.004
724.0862	-0.0012
724.2652	-0.0031
724.4441	0.0043
724.623	-0.0034
724.8019	-0.0009
724.9808	-0.0023
725.1597	-0.0067
725.3385	0.0067
725.5174	-0.0021
725.6962	-0.0011
725.875	-0.0014
726.0538	0.0027
726.2325	-0.0026
726.4112	0.0016
726.59	-0.0064
726.7687	-0.0023
726.9474	0.0064
727.126	0.0008
727.3047	0.0028
727.4833	-0.0044
727.6619	-0.0056
727.8405	-0.0029
728.0191	-0.0035
728.1976	0.0037
728.3762	0.0009
728.5547	-0.0017
728.7332	-0.0125
728.9116	-0.0045
729.0901	0.0033
729.2686	-0.0033
729.447	-0.0034
729.6254	-0.0053
729.8038	0.0014
729.9821	-0.005
730.1605	0.001
730.3388	-0.0054
730.5171	0.0004
730.6954	-0.0086
730.8737	0.003
731.0519	0.006
731.2302	0.0005
731.4084	0.0028
731.5866	-0.0045
731.7648	-0.0033
731.9429	0.0031
732.1211	-0.0094
732.2992	-0.0029
732.4773	-0.0053
732.6554	-0.0076
732.8335	-0.0002
733.0115	0.0013
733.1896	0.0008
733.3676	-0.0119
733.5456	0.0036
733.7235	0.0011
733.9015	-0.0056
734.0794	-0.0019
734.2574	-0.0007
734.4353	-0.0022
734.6131	-0.0032
734.791	-0.003
734.9689	-0.0081
735.1467	-0.0018
735.3245	-0.0076
735.5023	-0.0106
735.68	-0.0012
735.8578	0.0025
736.0355	-0.0238
736.2132	-0.0049
736.3909	0.0049
736.5686	-0.0114
736.7463	0.0065
736.9239	-0.0035
737.1015	0
737.2791	-0.0007
737.4567	0.001
737.6343	-0.0016
737.8118	0.0015
737.9894	-0.0014
738.1669	-0.0059
738.3444	-0.0033
738.5218	0.0066
738.6993	0.0015
738.8767	-0.0078
739.0541	0.0153
739.2315	-0.0139
739.4089	0.0016
739.5863	0.0027
739.7636	-0.0141
739.9409	-0.0047
740.1182	0.003
740.2955	-0.0025
740.4728	-0.0047
740.65	-0.0059
740.8272	-0.0088
741.0044	-0.0029
741.1816	0.0018
741.3588	-0.0021
741.5359	-0.0021
741.7131	-0.0125
741.8902	-0.0041
742.0673	-0.0028
742.2444	-0.0053
742.4214	-0.0138
742.5985	-0.0018
742.7755	-0.0136
742.9525	-0.0179
743.1295	-0.0096
743.3064	-0.0108
743.4834	0.0003
743.6603	-0.008
743.8372	-0.0066
744.0141	0.001
744.191	-0.0021
744.3678	-0.0053
744.5446	-0.0018
744.7215	-0.002
744.8982	0.003
745.075	-0.0169
745.2518	-0.0009
745.4285	-0.0055
745.6052	-0.0071
745.7819	-0.0055
745.9586	-0.0038
746.1353	-0.0077
746.3119	-0.0126
746.4885	-0.0067
746.6651	-0.0031
746.8417	-0.0035
747.0183	-0.0004
747.1948	0.008
747.3714	0.0065
747.5479	0.0038
747.7244	-0.0041
747.9008	0.007
748.0773	0.0023
748.2537	-0.0007
748.4301	-0.0053
748.6065	0.0049
748.7829	0.002
748.9593	0.0017
749.1356	0.0047
749.3119	0.0046
749.4882	-0.0057
749.6645	0.0016
749.8408	-0.0071
750.017	-0.0031
750.1933	-0.0014
750.3695	-0.0021
750.5457	-0.002
750.7218	0.0075
750.898	0.0056
751.0741	-0.0043
751.2502	-0.001
751.4263	-0.0034
751.6024	-0.0115
751.7784	-0.0066
751.9545	-0.0105
752.1305	0.0027
752.3065	-0.0107
752.4825	-0.0026
752.6584	-0.0101
752.8344	-0.0056
753.0103	-0.0118
753.1862	-0.0085
753.3621	-0.0024
753.5379	-0.0081
753.7138	0.0009
753.8896	0.0053
754.0654	0.0055
754.2412	0.0079
754.417	0.005
754.5927	-0.0042
754.7685	-0.0008
754.9442	0.0035
755.1199	0.0153
755.2956	0.0021
755.4712	0.0138
755.6469	0.0022
755.8225	-0.0026
755.9981	0.0009
756.1736	0.0086
756.3492	0.0054
756.5248	-0.0081
756.7003	-0.0036
756.8758	0.0128
757.0513	-0.0102
757.2267	-0.0053
757.4022	0.0119
757.5776	-0.0048
757.753	0.0002
757.9284	-0.0041
758.1038	0.0035
758.2791	0.0008
758.4545	-0.0149
758.6298	-0.0031
758.8051	-0.0007
758.9803	-0.0096
759.1556	-0.0034
759.3308	0.0007
759.506	0.0117
759.6812	0.0063
759.8564	0.0062
760.0316	0.0072
760.2067	0.0072
760.3819	0.0088
760.557	0.0126
760.732	-0.0051
760.9071	-0.0048
761.0821	-0.0015
761.2572	0.0138
761.4322	0.0012
761.6072	0.0132
761.7821	0.0022
761.9571	0.0137
762.132	-0.0011
762.3069	-0.0042
762.4818	-0.0044
762.6567	0.0016
762.8316	-0.0047
763.0064	0.0012
763.1812	0.0046
763.356	-0.0088
763.5308	-0.0008
763.7055	0.0068
763.8803	-0.0006
764.055	-0.003
764.2297	-0.0003
764.4044	-0.0087
764.579	-0.0084
764.7537	-0.0113
764.9283	0.0084
765.1029	-0.0032
765.2775	-0.008
765.4521	-0.0111
765.6266	-0.0078
765.8011	-0.0039
765.9756	-0
766.1501	0.0126
766.3246	0.0017
766.4991	-0.002
766.6735	-0.0011
766.8479	-0.0084
767.0223	0.0012
767.1967	-0
767.371	0.0002
767.5454	-0.0019
767.7197	-0.0026
767.894	-0.0015
768.0683	-0.0125
768.2425	0.008
768.4168	-0.005
768.591	-0.0047
768.7652	-0.0055
768.9394	0.0048
769.1135	0.007
769.2877	0.0033
769.4618	-0.0019
769.6359	0.0068
769.81	0.0028
769.984	-0.0052
770.1581	-0.0035
770.3321	0.0077
770.5061	0.0004
770.6801	0.0044
770.8541	-0.002
771.028	0.0105
771.202	-0.0008
771.3759	0.0105
771.5498	0.0069
771.7236	0.0016
771.8975	-0.0039
772.0713	0.0042
772.2451	0.0058
772.4189	0.0096
772.5927	0.0139
772.7665	0.004
772.9402	0.0003
773.1139	0.0055
773.2876	-0.0064
773.4613	0.0043
773.635	0.0039
773.8086	-0.0008
773.9822	-0.0024
774.1558	0.0111
774.3294	-0.0091
774.503	-0.0009
774.6765	0.0031
774.8501	-0.0082
775.0236	0.0068
775.1971	0.0091
775.3705	-0.0117
775.544	0.0092
775.7174	-0.0169
775.8908	0.0093
776.0642	-0.0017
776.2376	0.0042
776.4109	-0.0094
776.5843	-0.0082
776.7576	0.0071
776.9309	0.0088
777.1041	0.0032
777.2774	0.0074
777.4506	-0.0068
777.6238	-0.0041
777.797	0.0067
777.9702	0.0051
778.1434	0.0002
778.3165	-0.0115
778.4896	-0.004
778.6627	0.0054
778.8358	0.0008
779.0089	-0.0054
779.1819	-0.0067
779.3549	-0.0004
779.5279	0.0053
779.7009	0.0042
779.8739	-0.0007
780.0468	0.0039
780.2197	0.0083
780.3926	-0.0005
780.5655	-0.0016
780.7384	-0.0118
780.9112	-0.0022
781.0841	-0.0162
781.2569	-0.0012
781.4297	0.0069
781.6024	0.0171
781.7752	0.0121
781.9479	0.0086
782.1206	0.0077
782.2933	-0.0059
782.466	0.0115
782.6386	0.0117
782.8113	0.0076
782.9839	0.0092
783.1565	0.0159
783.329	0.0001
783.5016	0.0083
783.6741	0.0094
783.8466	-0.0091
784.0191	0.0005
784.1916	0.0005
784.3641	0.0016
784.5365	0.0013
784.7089	0.0006
784.8813	0.0014
785.0537	-0.0075
785.2261	-0.013
785.3984	-0.0122
785.5707	-0.0001
785.743	0.0082
785.9153	-0.0024
786.0876	-0.0011
786.2598	-0.003
786.432	-0.0015
786.6042	0.0063
786.7764	-0.0005
786.9486	0.0049
787.1207	-0.013
787.2928	0.0042
787.4649	0.0094
787.637	-0.0014
787.8091	-0.0083
787.9811	-0.0136
788.1532	-0.015
788.3252	0.016
788.4972	0.0094
788.6691	-0.0132
788.8411	0.006
789.013	-0.0021
789.1849	-0.0036
789.3568	-0.0035
789.5287	-0.0111
789.7005	-0.0042
789.8723	0.0055
790.0442	0.0072
790.2159	-0.0019
790.3877	-0.0104
790.5595	-0.0043
790.7312	-0.0084
790.9029	-0.0038
791.0746	-0.0086
791.2463	-0.0064
791.4179	0.0049
791.5896	-0.0117
791.7612	-0.0084
791.9328	0.0115
792.1044	-0.0009
792.2759	-0.0108
792.4474	-0.0023
792.619	0.0017
792.7905	0.0143
792.9619	0.0039
793.1334	0.0117
793.3048	0.001
793.4762	0.0053
793.6476	-0.0008
793.819	-0.0026
793.9904	-0.0071
794.1617	-0.0088
794.333	-0.0015
794.5043	-0.0047
794.6756	0.0048
794.8469	-0.0036
795.0181	-0.004
795.1893	-0.0045
795.3605	0.0011
795.5317	-0.0137
795.7029	0.0025
795.874	-0.0082
796.0452	-0.015
796.2163	0.0005
796.3873	0.0146
796.5584	-0.0051
796.7294	-0.005
796.9005	0.0068
797.0715	0.0054
797.2425	-0.0146
797.4134	0.0056
797.5844	0.0014
797.7553	-0.0161
797.9262	-0.0157
798.0971	-0.0161
798.2679	-0.008
798.4388	-0.0242
798.6096	-0.0043
798.7804	-0.0068
798.9512	-0.0064
799.122	0.0037
799.2927	0.0141
799.4635	0.0023
799.6342	-0.0152
799.8049	-0.0064
799.9755	-0.0034
800.1462	-0.0089
800.3168	0.0113
800.4874	-0.0039
800.658	0.0193
800.8286	0.0092
800.9991	0.0034
801.1696	0.0213
801.3402	0.0038
801.5106	0.0038
801.6811	0.0073
801.8516	0.0054
802.022	-0.0036
802.1924	0.0069
802.3628	0.0083
802.5332	0.02
802.7035	0.0176
802.8739	-0.0095
803.0442	-0.0216
803.2145	0.0024
803.3847	-0.0136
803.555	-0.01
803.7252	-0.012
803.8954	-0.0177
804.0656	-0.0184
804.2358	-0.0134
804.4059	0.0012
804.5761	0.0051
804.7462	-0.0051
804.9163	-0.0029
805.0864	-0.0173
805.2564	0.0035
805.4264	0.0081
805.5965	-0.0045
805.7665	-0.0029
805.9364	0.0021
806.1064	0.0128
806.2763	0.0008
806.4462	0.0093
806.6161	0.0045
806.786	0.0248
806.9559	-0.0104
807.1257	-0.0036
807.2955	0.0004
807.4653	0.0017
807.6351	-0.0008
807.8048	0.0065
807.9746	0.0023
808.1443	-0.0176
808.314	-0.0061
808.4837	-0.0076
808.6533	0.0042
808.8229	0.0156
808.9926	-0.0142
809.1622	0.003
809.3317	-0.0003
809.5013	-0.0065
809.6708	-0.0054
809.8403	0.0216
810.0098	-0.0046
810.1793	0.0042
810.3488	-0.0004
810.5182	-0.0231
810.6876	0.0192
810.857	-0.0161
811.0264	0.0149
811.1958	0.0022
811.3651	-0.0107
811.5344	0.0125
811.7037	-0.0045
811.873	-0.0253
812.0422	-0.0084
812.2115	0.0161
812.3807	-0.0204
812.5499	-0.0073
812.7191	-0.0041
812.8882	-0.0119
813.0574	-0.0107
813.2265	-0.0138
813.3956	-0.0071
813.5646	0.0021
813.7337	-0.0208
813.9027	-0.0055
814.0718	0.0082
814.2407	-0.0004
814.4097	-0.0227
814.5787	-0.0231
814.7476	-0.0055
814.9165	-0.0043
815.0854	-0.0166
815.2543	-0.0064
815.4232	-0.0094
815.592	0.0098
815.7608	-0.0007
815.9296	-0.0108
816.0984	-0.0001
816.2671	-0.026
816.4359	-0.001
816.6046	-0.025
816.7733	-0.0195
816.942	-0.0213
817.1106	0.018
817.2793	0.0217
817.4479	-0.0119
817.6165	-0.0089
817.785	-0.0141
817.9536	-0.0345
818.1221	-0.0202
818.2906	-0.0134
818.4591	-0.0102
818.6276	-0.0045
818.7961	-0.0122
818.9645	0.0188
819.1329	-0.0018
819.3013	0.0235
819.4697	0.0204
819.638	0.0002
819.8064	0.0022
819.9747	0.003
820.143	-0.0222
820.3113	-0.012
820.4795	0.0184
820.6477	0.0016
820.816	0.0133
820.9842	-0.0009
821.1523	-0.0181
821.3205	-0.0226
821.4886	0.0027
821.6567	-0.0097
821.8248	0.0132
821.9929	0.0117
822.1609	0.014
822.329	-0.0016
822.497	0.0207
822.665	0.0022
822.833	-0.0097
823.0009	-0.0134
823.1688	0.0136
823.3367	0.0304
823.5046	-0.0009
823.6725	0.0198
823.8404	-0.0099
824.0082	-0.0037
824.176	0.0062
824.3438	0.0042
824.5116	-0.0166
824.6793	0.0119
824.847	0.0111
825.0147	-0.012
825.1824	0.03
825.3501	0.0205
825.5177	-0.0107
825.6854	0.0037
825.853	0.0234
826.0206	0.0126
826.1881	-0.0074
826.3557	-0.0132
826.5232	0.0211
826.6907	-0.0335
826.8582	0.0057
827.0257	-0.0034
827.1931	-0.006
827.3605	0.022
827.528	-0.0053
827.6953	-0.0307
827.8627	-0.0185
828.03	0.0232
828.1974	-0.0002
828.3647	-0.0424
828.532	-0.0162
828.6992	-0.0046
828.8665	0.0119
829.0337	-0.0337
829.2009	0.0023
829.3681	0.0212
829.5352	0.0304
829.7024	-0.0119
829.8695	-0.0258
830.0366	0.0405
830.2037	0.0392
830.3707	0.0033
830.5378	0.0073
830.7048	0.0432
830.8718	-0.0051
831.0388	-0.0193
831.2057	-0.005
831.3727	0.0277
831.5396	-0.0087
831.7065	-0.0242
831.8734	0.0352
832.0402	0.0161
832.2071	0.0106
832.3739	-0.0074
832.5407	0.018
832.7075	0.0275
832.8742	-0.0258
833.041	-0.0511
833.2077	0.0242
833.3744	0.0057
833.541	-0.008
833.7077	0.0111
833.8743	-0.0188
834.0409	0.0204
834.2075	0.0029
834.3741	-0.0118
834.5407	-0.0059
834.7072	0.0055
834.8737	-0.0285
835.0402	-0.0056
835.2067	0.0429
835.3731	0.0057
835.5395	-0.0141
835.706	-0.0073
835.8723	-0.0355
836.0387	0.0148
836.2051	-0.0246
836.3714	0.0129
836.5377	0.0165
836.704	-0.0319
836.8703	0.021
837.0365	-0.0104
837.2027	-0.0188
837.3689	0.0281
837.5351	0.0324
837.7013	-0.0029
837.8674	-0.0356
838.0335	-0.0196
838.1997	-0.0686
838.3657	-0.0082
838.5318	-0.0326
838.6978	0.007
838.8639	0.0652
839.0299	0.0119
839.1958	0.0246
839.3618	0.0207
839.5277	-0.0113
839.6937	0.0122
839.8596	-0.0402
840.0254	-0.0126
840.1913	0.0173
840.3571	0.0428
840.523	-0.0054
840.6888	-0.005
840.8545	-0.0546
841.0203	0.0049
841.186	0.0144
841.3517	0.0264
841.5174	0.022
841.6831	0.011
841.8488	0.0023
842.0144	0.0051
842.18	0.014
842.3456	-0.0078
842.5112	-0.0483
842.6767	-0.0425
842.8422	-0.0172
843.0077	-0.0331
843.1732	-0.0383
843.3387	-0.0149
843.5042	-0.0743
843.6696	-0.0363
843.835	-0.0286
844.0004	0.0445
844.1657	-0.0415
844.3311	0.0008
844.4964	-0.0837
844.6617	-0.0005
844.827	-0.0175
844.9923	-0.0005
845.1575	0.014
845.3227	0.0042
845.4879	-0.0381
845.6531	-0.0111
845.8183	-0.0939
845.9834	0.0696
846.1485	-0.0369
846.3136	-0.0439
846.4787	-0.1135
846.6438	0.0291
846.8088	-0.0038
846.9738	-0.0823
847.1388	-0.0498
847.3038	-0.0184
847.4687	-0.1607
847.6337	-0.0133
847.7986	0.0368
847.9635	-0.0079
848.1284	0.0008
848.2932	0.088
848.458	-0.035
848.6228	0.0477
848.7876	0.0239
848.9524	-0.0176
849.1172	-0.1219
849.2819	0.0357
849.4466	-0.0155
849.6113	-0.0652
849.7759	-0.0316
849.9406	-0.0075
850.1052	0.0777
850.2698	-0.0705
850.4344	-0.0143
850.599	-0.0108
850.7635	0.0704
850.928	-0.0823
851.0925	-0.0196
851.257	0.0893
851.4215	0.021
851.5859	-0.0563
851.7503	0.0445
851.9147	0.0026
852.0791	-0.0034
852.2434	-0.0027
852.4078	0.087
852.5721	0.0767
852.7364	-0.0129
852.9007	-0.098
853.0649	0.0213
853.2291	0.0546
853.3934	-0.092
853.5575	-0.0685
853.7217	-0.0147
853.8859	-0.1062
854.05	-0.0556
854.2141	-0.0088
854.3782	0.0132
854.5423	-0.0961
854.7063	0.1164
854.8703	0.0303
855.0343	-0.1305
855.1983	-0.0548
855.3623	0.134
855.5262	0.1142
855.6901	-0.0082
855.854	0.1448
856.0179	0.0789
856.1818	0.2413
856.3456	-0.1242
856.5094	-0.0881
856.6732	-0.0893
856.837	-0.0496
857.0008	0.1603
857.1645	-0.1008
857.3282	-0.0953
857.4919	0.0386
857.6556	-0.0695
857.8192	-0.036
857.9828	0.025
858.1465	-0.0666
858.31	-0.2341
858.4736	-0.1003
858.6372	-0.1752
858.8007	-0.1238
858.9642	0.0027
859.1277	-0.0024
859.2911	-0.011
859.4546	0.0939
859.618	-0.3408
859.7814	-0.046
859.9448	0.1709
860.1081	-0.0702
860.2715	0.1692
860.4348	-0.0304
860.5981	0.1478
860.7614	0.2011
860.9246	0.0124
861.0879	-0.1942
861.2511	0.0794
861.4143	-0.0537
861.5774	0.378
861.7406	-0.0622
861.9037	0.2147
862.0668	0.11
862.2299	0.2799
862.393	-0.3305
862.556	-0.0446
862.7191	-0.2122
862.8821	-0.1251
863.0451	-0.0727
863.208	0.0803
863.371	0.1267
863.5339	-0.3941
863.6968	0.2588
863.8597	0.0428
864.0225	-0.1948
864.1854	-0.0543
864.3482	0.2892
864.511	-0.0105
864.6737	-0.1412
864.8365	0.5196
864.9992	-0.6769
865.1619	-0.1733
865.3246	-0.1497
865.4873	0.1028
865.65	-0.0891
865.8126	-0.107
865.9752	0.3651
866.1378	-0.137
866.3004	0.1802
866.4629	0.4067
866.6254	-0.1418
866.7879	0.0155
866.9504	-0
867.1129	-0
867.2753	0.0645
867.4377	0.4789
867.6001	-0.2613
867.7625	0.9137
867.9249	-0.6855
868.0872	-0.096
868.2495	-0.0586
868.4118	-0.399
868.5741	-0.5541
868.7363	-0.0062
868.8986	0.4408
869.0608	-0.1528
869.223	1.0067
869.3851	0.5877
869.5473	-0
869.7094	0.2862
869.8715	0.5309
870.0336	-0.0813
870.1957	-0.3466
870.3577	-0.9777
870.5197	-0.1604
870.6817	0.133
870.8437	0.0537
871.0057	-0
871.1676	-0.6611
871.3295	-0.5575
871.4914	-0
871.6533	0.3568
871.8151	0.275
871.977	-0
872.1388	-0
872.3006	0.0508
872.4623	-0
872.6241	0.5163
872.7858	-0
872.9475	-0.1833
873.1092	-0
873.2709	0.0899
873.4325	-0
873.5941	-0.36
873.7557	-0
873.9173	-0.1636
874.0789	-0
874.2404	0.1941
874.4019	-0.0654
874.5634	0.1256
874.7249	-0.0472
874.8863	0.4003
875.0478	0.5683
875.2092	-0
875.3706	0.1321
875.5319	-0
875.6933	-0
875.8546	-0.1254
876.0159	0.0564
876.1772	-0
876.3385	-0
876.4997	0.4277
876.6609	-0.4631
876.8221	0.8835
876.9833	0.0571
877.1445	-0.17
877.3056	0.225
877.4667	-0.2508
877.6278	-0
877.7889	-0.3916
877.9499	-0
878.111	-0
878.272	-0
878.433	-0
878.5939	-0.2993
878.7549	0.4585
878.9158	-0.6774
879.0767	0.0211
879.2376	-0
879.3984	0.6645
879.5593	-0
879.7201	-0.0709
879.8809	-0.6321
880.0417	-0.2902
880.2024	-0
880.3632	-0
880.5239	-0.0269
880.6846	-0
880.8452	-2.499
881.0059	-1.3444
881.1665	-0.0629
881.3271	-0.2255
881.4877	-0.4489
881.6483	0.0556
881.8088	-0.4977
881.9693	-0
882.1298	-0
882.2903	-0
