Data from MonoPyChalIsomerACN10uM410nmA_Absorbance_14-53-26-973.txt Node
Date: Fri Jul 05 14:53:26 BST 2024
User: LASERRRRR
Spectrometer: FLMT03099
Trigger mode: 0
Integration Time (sec): 1.000000E-1
Scans to average: 1
Electric dark correction enabled: true
Nonlinearity correction enabled: false
Boxcar width: 0
XAxis mode: Wavelengths
Number of Pixels in Spectrum: 3648
>>>>>Begin Spectral Data<<<<<
179.3399	-0.0285
179.5586	-0.0285
179.7771	-0.0285
179.9957	-0.0248
180.2143	-0
180.4329	-0.2467
180.6514	-0
180.8699	-0.1345
181.0885	-0.0514
181.307	0.1363
181.5255	-0.85
181.744	-0
181.9625	-0
182.181	-0.1978
182.3994	-0.2186
182.6179	-0
182.8363	-0
183.0547	-0.0182
183.2732	0.1077
183.4916	0.1145
183.71	0.1353
183.9284	0.334
184.1467	-0.0275
184.3651	-0.0332
184.5835	-0.0273
184.8018	0.0728
185.0201	0.401
185.2385	0.0038
185.4568	0.5266
185.6751	0.1021
185.8934	0.2465
186.1117	-0.0156
186.3299	0.092
186.5482	0.1217
186.7664	0.0654
186.9847	-0.0361
187.2029	0.1493
187.4211	0.0788
187.6393	-0.0367
187.8575	0.0904
188.0757	0.2155
188.2939	0.1709
188.512	0.0226
188.7302	0.0479
188.9483	0.1486
189.1665	0.2213
189.3846	-0.0277
189.6027	0.0864
189.8208	0.1905
190.0389	0.1306
190.257	0.1762
190.475	0.1947
190.6931	0.3323
190.9111	0.5389
191.1292	0.2017
191.3472	0.8742
191.5652	0.4311
191.7832	0.2737
192.0012	0.5621
192.2192	0.4552
192.4371	0.5274
192.6551	0.4119
192.873	0.4996
193.091	0.4141
193.3089	0.7233
193.5268	0.6749
193.7447	0.4231
193.9626	0.4483
194.1805	0.7137
194.3984	0.6106
194.6162	0.5582
194.8341	0.7076
195.0519	0.5809
195.2697	0.894
195.4875	0.6361
195.7054	0.6112
195.9231	0.459
196.1409	0.6183
196.3587	0.695
196.5765	0.671
196.7942	0.5008
197.012	0.589
197.2297	0.5749
197.4474	0.6151
197.6651	0.5944
197.8828	0.534
198.1005	0.6744
198.3182	0.6932
198.5358	0.8666
198.7535	0.5924
198.9711	0.5368
199.1888	0.5703
199.4064	1.1293
199.624	0.6777
199.8416	0.6038
200.0592	0.7236
200.2767	0.6637
200.4943	0.6876
200.7119	1.0091
200.9294	0.6715
201.1469	0.5824
201.3645	0.5932
201.582	0.5803
201.7995	0.6511
202.017	0.5584
202.2344	0.668
202.4519	0.7041
202.6694	0.6131
202.8868	0.5351
203.1042	0.6265
203.3217	0.6559
203.5391	0.6822
203.7565	0.587
203.9739	0.6424
204.1913	0.6611
204.4086	0.7716
204.626	0.7108
204.8433	0.654
205.0607	0.5851
205.278	0.7664
205.4953	0.6541
205.7126	0.7073
205.9299	0.7207
206.1472	0.858
206.3644	0.5898
206.5817	0.7403
206.7989	0.6946
207.0162	0.6173
207.2334	0.7251
207.4506	0.5516
207.6678	0.6333
207.885	0.7006
208.1022	0.6875
208.3194	0.6418
208.5365	0.625
208.7537	0.6662
208.9708	0.646
209.1879	0.6933
209.405	0.7059
209.6222	0.7195
209.8392	0.6267
210.0563	0.6424
210.2734	0.6797
210.4905	0.6082
210.7075	0.6424
210.9245	0.6367
211.1416	0.7135
211.3586	0.6264
211.5756	0.6163
211.7926	0.6734
212.0096	0.6122
212.2265	0.6223
212.4435	0.541
212.6604	0.6687
212.8774	0.5892
213.0943	0.6836
213.3112	0.5745
213.5281	0.5569
213.745	0.5102
213.9619	0.4939
214.1788	0.4478
214.3956	0.4922
214.6125	0.4956
214.8293	0.4433
215.0461	0.4907
215.2629	0.4424
215.4798	0.4646
215.6965	0.4248
215.9133	0.4412
216.1301	0.4483
216.3469	0.4332
216.5636	0.4117
216.7803	0.4001
216.9971	0.458
217.2138	0.399
217.4305	0.4073
217.6472	0.3641
217.8639	0.3811
218.0805	0.3622
218.2972	0.3306
218.5138	0.3185
218.7305	0.3192
218.9471	0.3011
219.1637	0.2944
219.3803	0.2853
219.5969	0.2935
219.8135	0.2442
220.0301	0.2777
220.2466	0.2872
220.4632	0.245
220.6797	0.2411
220.8962	0.2439
221.1127	0.2634
221.3292	0.246
221.5457	0.2536
221.7622	0.2236
221.9787	0.2542
222.1951	0.2413
222.4116	0.2416
222.628	0.2557
222.8444	0.2526
223.0608	0.2491
223.2772	0.2364
223.4936	0.2594
223.71	0.2577
223.9264	0.2727
224.1427	0.2574
224.3591	0.259
224.5754	0.2614
224.7917	0.2535
225.008	0.2675
225.2243	0.2572
225.4406	0.2879
225.6569	0.2621
225.8732	0.2554
226.0894	0.2705
226.3057	0.2717
226.5219	0.2856
226.7381	0.2765
226.9543	0.2742
227.1705	0.2787
227.3867	0.2807
227.6029	0.303
227.8191	0.2922
228.0352	0.299
228.2513	0.2973
228.4675	0.3055
228.6836	0.313
228.8997	0.2815
229.1158	0.3198
229.3319	0.317
229.548	0.32
229.764	0.3326
229.9801	0.3224
230.1961	0.3173
230.4121	0.3312
230.6282	0.3485
230.8442	0.321
231.0602	0.3297
231.2761	0.3338
231.4921	0.3403
231.7081	0.3379
231.924	0.3374
232.14	0.3433
232.3559	0.3291
232.5718	0.379
232.7877	0.3471
233.0036	0.345
233.2195	0.3547
233.4353	0.3406
233.6512	0.3695
233.867	0.3638
234.0829	0.367
234.2987	0.3545
234.5145	0.3756
234.7303	0.3578
234.9461	0.3796
235.1619	0.3845
235.3776	0.4059
235.5934	0.3809
235.8091	0.3718
236.0249	0.3743
236.2406	0.3767
236.4563	0.3929
236.672	0.4042
236.8877	0.3876
237.1034	0.3742
237.319	0.3906
237.5347	0.408
237.7503	0.3948
237.966	0.4122
238.1816	0.4084
238.3972	0.3833
238.6128	0.3962
238.8284	0.4004
239.0439	0.4037
239.2595	0.4113
239.475	0.4198
239.6906	0.418
239.9061	0.3971
240.1216	0.3872
240.3371	0.425
240.5526	0.4033
240.7681	0.4026
240.9836	0.3955
241.199	0.404
241.4145	0.3913
241.6299	0.393
241.8453	0.36
242.0607	0.371
242.2761	0.3671
242.4915	0.3629
242.7069	0.3697
242.9223	0.3716
243.1376	0.3518
243.353	0.3589
243.5683	0.3506
243.7836	0.3239
243.9989	0.3283
244.2142	0.3146
244.4295	0.3284
244.6448	0.3137
244.86	0.2917
245.0753	0.3087
245.2905	0.2872
245.5057	0.2831
245.721	0.2765
245.9362	0.2748
246.1514	0.2677
246.3665	0.2664
246.5817	0.2609
246.7969	0.2427
247.012	0.249
247.2271	0.2374
247.4423	0.2503
247.6574	0.2468
247.8725	0.2231
248.0876	0.222
248.3026	0.2213
248.5177	0.2209
248.7328	0.2211
248.9478	0.2199
249.1628	0.2148
249.3779	0.2211
249.5929	0.2096
249.8079	0.221
250.0228	0.2014
250.2378	0.2074
250.4528	0.1984
250.6677	0.1784
250.8827	0.1958
251.0976	0.195
251.3125	0.1843
251.5274	0.1883
251.7423	0.1884
251.9572	0.1929
252.172	0.1797
252.3869	0.188
252.6017	0.1808
252.8166	0.1665
253.0314	0.1723
253.2462	0.1639
253.461	0.1832
253.6758	0.1643
253.8906	0.1822
254.1053	0.1672
254.3201	0.1671
254.5348	0.1832
254.7496	0.1724
254.9643	0.1718
255.179	0.1706
255.3937	0.1489
255.6083	0.1806
255.823	0.168
256.0377	0.1684
256.2523	0.1566
256.467	0.1502
256.6816	0.174
256.8962	0.1659
257.1108	0.1552
257.3254	0.1595
257.54	0.1595
257.7545	0.171
257.9691	0.173
258.1836	0.1645
258.3981	0.1746
258.6127	0.1661
258.8272	0.1576
259.0417	0.1712
259.2561	0.1671
259.4706	0.1647
259.6851	0.1649
259.8995	0.1567
260.114	0.1588
260.3284	0.1593
260.5428	0.1653
260.7572	0.1609
260.9716	0.1672
261.186	0.157
261.4003	0.1565
261.6147	0.165
261.829	0.1639
262.0433	0.1652
262.2577	0.1555
262.472	0.1674
262.6863	0.1501
262.9005	0.1679
263.1148	0.1642
263.3291	0.1513
263.5433	0.1657
263.7576	0.1676
263.9718	0.1708
264.186	0.155
264.4002	0.1479
264.6144	0.1659
264.8286	0.1688
265.0427	0.1637
265.2569	0.1578
265.471	0.1578
265.6851	0.1615
265.8993	0.1668
266.1134	0.1471
266.3275	0.1521
266.5415	0.1542
266.7556	0.166
266.9697	0.161
267.1837	0.1721
267.3978	0.1729
267.6118	0.1654
267.8258	0.1711
268.0398	0.1592
268.2538	0.1715
268.4677	0.1602
268.6817	0.1436
268.8957	0.1707
269.1096	0.1663
269.3235	0.1704
269.5374	0.1702
269.7514	0.1582
269.9652	0.1644
270.1791	0.1541
270.393	0.144
270.6068	0.1702
270.8207	0.1543
271.0345	0.14
271.2483	0.1596
271.4622	0.1556
271.676	0.1498
271.8897	0.1431
272.1035	0.1434
272.3173	0.1501
272.531	0.1493
272.7448	0.145
272.9585	0.1382
273.1722	0.148
273.3859	0.1546
273.5996	0.1397
273.8133	0.1423
274.0269	0.1455
274.2406	0.1413
274.4542	0.1536
274.6679	0.1282
274.8815	0.1461
275.0951	0.1547
275.3087	0.1582
275.5223	0.14
275.7358	0.146
275.9494	0.1501
276.1629	0.143
276.3765	0.1427
276.59	0.1469
276.8035	0.1545
277.017	0.1572
277.2305	0.1506
277.444	0.1499
277.6574	0.1497
277.8709	0.1614
278.0843	0.1434
278.2978	0.1534
278.5112	0.145
278.7246	0.1502
278.938	0.1551
279.1513	0.1574
279.3647	0.1617
279.5781	0.1586
279.7914	0.1619
280.0047	0.1705
280.2181	0.1599
280.4314	0.1569
280.6447	0.1536
280.8579	0.1543
281.0712	0.1517
281.2845	0.1583
281.4977	0.1516
281.711	0.1482
281.9242	0.1588
282.1374	0.1512
282.3506	0.1433
282.5638	0.1612
282.7769	0.1502
282.9901	0.1601
283.2033	0.1657
283.4164	0.1678
283.6295	0.1475
283.8426	0.152
284.0557	0.1643
284.2688	0.167
284.4819	0.1581
284.695	0.1503
284.908	0.1709
285.1211	0.1503
285.3341	0.1658
285.5471	0.1611
285.7601	0.1623
285.9731	0.1538
286.1861	0.1514
286.3991	0.1705
286.612	0.1748
286.825	0.1608
287.0379	0.1596
287.2508	0.1604
287.4637	0.1618
287.6766	0.1579
287.8895	0.1678
288.1024	0.1793
288.3152	0.1775
288.5281	0.1568
288.7409	0.1572
288.9538	0.1545
289.1666	0.1554
289.3794	0.1569
289.5922	0.1469
289.8049	0.1686
290.0177	0.1589
290.2304	0.1732
290.4432	0.1698
290.6559	0.1536
290.8686	0.1681
291.0813	0.1611
291.294	0.152
291.5067	0.1528
291.7194	0.1674
291.932	0.1607
292.1447	0.1592
292.3573	0.1551
292.5699	0.163
292.7825	0.153
292.9951	0.1574
293.2077	0.1655
293.4203	0.1641
293.6328	0.1583
293.8454	0.1583
294.0579	0.1622
294.2704	0.1553
294.4829	0.1551
294.6954	0.1596
294.9079	0.1587
295.1204	0.1707
295.3328	0.1585
295.5453	0.1627
295.7577	0.1648
295.9701	0.1523
296.1825	0.165
296.3949	0.1591
296.6073	0.1512
296.8197	0.1566
297.0321	0.1644
297.2444	0.1432
297.4567	0.1613
297.6691	0.1563
297.8814	0.1529
298.0937	0.1611
298.306	0.1671
298.5182	0.1599
298.7305	0.1604
298.9428	0.146
299.155	0.1596
299.3672	0.1477
299.5794	0.1553
299.7916	0.1489
300.0038	0.1634
300.216	0.1578
300.4282	0.1425
300.6403	0.1561
300.8525	0.1617
301.0646	0.1425
301.2767	0.164
301.4888	0.1424
301.7009	0.1513
301.913	0.1645
302.125	0.1616
302.3371	0.146
302.5491	0.1562
302.7612	0.1733
302.9732	0.1611
303.1852	0.164
303.3972	0.1583
303.6092	0.1443
303.8211	0.1554
304.0331	0.1511
304.245	0.1539
304.457	0.1546
304.6689	0.1451
304.8808	0.1576
305.0927	0.1421
305.3046	0.1528
305.5164	0.154
305.7283	0.1464
305.9401	0.1507
306.152	0.1459
306.3638	0.1577
306.5756	0.1454
306.7874	0.1425
306.9992	0.1447
307.2109	0.135
307.4227	0.1353
307.6344	0.1457
307.8462	0.1336
308.0579	0.1308
308.2696	0.1336
308.4813	0.1185
308.693	0.1306
308.9046	0.1278
309.1163	0.1191
309.328	0.1161
309.5396	0.1233
309.7512	0.1204
309.9628	0.1184
310.1744	0.1228
310.386	0.117
310.5976	0.1285
310.8091	0.1138
311.0207	0.1239
311.2322	0.1175
311.4437	0.1102
311.6552	0.1137
311.8667	0.1148
312.0782	0.0971
312.2897	0.1033
312.5012	0.1128
312.7126	0.0998
312.924	0.1025
313.1355	0.1148
313.3469	0.0963
313.5583	0.105
313.7696	0.1187
313.981	0.1059
314.1924	0.1023
314.4037	0.1065
314.6151	0.1175
314.8264	0.0996
315.0377	0.103
315.249	0.1008
315.4603	0.1096
315.6716	0.1084
315.8828	0.0923
316.0941	0.1026
316.3053	0.104
316.5165	0.096
316.7277	0.0966
316.9389	0.1003
317.1501	0.1006
317.3613	0.0932
317.5724	0.0853
317.7836	0.1036
317.9947	0.0963
318.2058	0.1029
318.417	0.0953
318.6281	0.0881
318.8391	0.0978
319.0502	0.099
319.2613	0.0968
319.4723	0.1069
319.6834	0.1095
319.8944	0.0895
320.1054	0.0988
320.3164	0.1039
320.5274	0.0924
320.7383	0.1045
320.9493	0.097
321.1602	0.1145
321.3712	0.1019
321.5821	0.1087
321.793	0.1128
322.0039	0.1026
322.2148	0.0993
322.4257	0.0988
322.6365	0.1158
322.8474	0.1024
323.0582	0.1127
323.269	0.1003
323.4798	0.1155
323.6906	0.1074
323.9014	0.1081
324.1122	0.11
324.3229	0.1004
324.5337	0.106
324.7444	0.0975
324.9551	0.1154
325.1658	0.1056
325.3765	0.1095
325.5872	0.1053
325.7979	0.0955
326.0085	0.1152
326.2192	0.1177
326.4298	0.112
326.6404	0.1012
326.851	0.0961
327.0616	0.096
327.2722	0.1018
327.4828	0.1067
327.6933	0.0998
327.9039	0.1195
328.1144	0.1189
328.3249	0.1138
328.5354	0.1062
328.7459	0.0988
328.9564	0.1019
329.1669	0.1009
329.3773	0.1193
329.5878	0.1068
329.7982	0.1042
330.0086	0.1101
330.219	0.1066
330.4294	0.1038
330.6398	0.1018
330.8502	0.093
331.0605	0.1183
331.2708	0.105
331.4812	0.1124
331.6915	0.1088
331.9018	0.1115
332.1121	0.1066
332.3224	0.111
332.5326	0.106
332.7429	0.1135
332.9531	0.1268
333.1633	0.1115
333.3735	0.1027
333.5837	0.1106
333.7939	0.1124
334.0041	0.1217
334.2143	0.1161
334.4244	0.1056
334.6346	0.0872
334.8447	0.1142
335.0548	0.1023
335.2649	0.1051
335.475	0.1189
335.685	0.1013
335.8951	0.1244
336.1051	0.1074
336.3152	0.1322
336.5252	0.1126
336.7352	0.1234
336.9452	0.1181
337.1552	0.1142
337.3652	0.1136
337.5751	0.1186
337.7851	0.1029
337.995	0.1006
338.2049	0.1213
338.4148	0.1126
338.6247	0.1116
338.8346	0.1111
339.0445	0.1153
339.2543	0.1108
339.4642	0.1097
339.674	0.1038
339.8838	0.122
340.0936	0.116
340.3034	0.1341
340.5132	0.1208
340.7229	0.1221
340.9327	0.11
341.1424	0.1156
341.3522	0.1198
341.5619	0.1326
341.7716	0.1253
341.9813	0.1196
342.1909	0.1253
342.4006	0.1245
342.6102	0.1387
342.8199	0.1254
343.0295	0.1376
343.2391	0.1303
343.4487	0.1321
343.6583	0.1275
343.8679	0.1198
344.0774	0.1262
344.287	0.1318
344.4965	0.1277
344.706	0.1342
344.9155	0.126
345.125	0.1264
345.3345	0.1271
345.544	0.131
345.7534	0.1341
345.9629	0.1316
346.1723	0.1315
346.3817	0.1194
346.5911	0.1221
346.8005	0.1442
347.0099	0.1463
347.2193	0.1407
347.4286	0.13
347.638	0.1413
347.8473	0.1395
348.0566	0.136
348.2659	0.1391
348.4752	0.1358
348.6845	0.1281
348.8937	0.1345
349.103	0.1503
349.3122	0.1404
349.5214	0.1304
349.7306	0.1449
349.9398	0.1466
350.149	0.1553
350.3582	0.1421
350.5674	0.1415
350.7765	0.1345
350.9856	0.1575
351.1948	0.1491
351.4039	0.1301
351.613	0.1384
351.822	0.1549
352.0311	0.155
352.2402	0.1451
352.4492	0.1367
352.6582	0.1521
352.8672	0.1448
353.0762	0.1595
353.2852	0.1585
353.4942	0.1488
353.7032	0.1588
353.9121	0.1506
354.1211	0.1506
354.33	0.1456
354.5389	0.1662
354.7478	0.1443
354.9567	0.1437
355.1655	0.1328
355.3744	0.1495
355.5833	0.1569
355.7921	0.1811
356.0009	0.1553
356.2097	0.1812
356.4185	0.1684
356.6273	0.1712
356.8361	0.1674
357.0448	0.1482
357.2536	0.16
357.4623	0.1621
357.671	0.1549
357.8797	0.1557
358.0884	0.1659
358.2971	0.159
358.5057	0.1728
358.7144	0.1699
358.923	0.1723
359.1316	0.1598
359.3402	0.1781
359.5488	0.1675
359.7574	0.1589
359.966	0.1746
360.1746	0.1771
360.3831	0.1669
360.5916	0.1681
360.8002	0.1649
361.0087	0.1787
361.2172	0.1772
361.4256	0.1635
361.6341	0.1777
361.8426	0.1752
362.051	0.169
362.2594	0.179
362.4678	0.1755
362.6762	0.1954
362.8846	0.1839
363.093	0.1923
363.3014	0.1853
363.5097	0.1771
363.718	0.1787
363.9264	0.1949
364.1347	0.17
364.343	0.1874
364.5513	0.2061
364.7595	0.202
364.9678	0.1928
365.176	0.1929
365.3842	0.195
365.5925	0.1917
365.8007	0.1798
366.0089	0.1897
366.217	0.1867
366.4252	0.2006
366.6333	0.2021
366.8415	0.2006
367.0496	0.1997
367.2577	0.2021
367.4658	0.2098
367.6739	0.1996
367.882	0.2147
368.09	0.1989
368.2981	0.2177
368.5061	0.1889
368.7141	0.1953
368.9221	0.2101
369.1301	0.2083
369.3381	0.1987
369.5461	0.1966
369.754	0.2048
369.962	0.2201
370.1699	0.2161
370.3778	0.2122
370.5857	0.2068
370.7936	0.217
371.0015	0.2069
371.2093	0.2181
371.4172	0.2169
371.625	0.1998
371.8328	0.2043
372.0406	0.2134
372.2484	0.2122
372.4562	0.2102
372.664	0.2037
372.8717	0.2303
373.0795	0.1955
373.2872	0.2165
373.4949	0.2111
373.7026	0.2259
373.9103	0.2216
374.118	0.2205
374.3256	0.2043
374.5333	0.2132
374.7409	0.2122
374.9485	0.2384
375.1561	0.2335
375.3637	0.2322
375.5713	0.2352
375.7789	0.2192
375.9864	0.2094
376.194	0.2203
376.4015	0.2351
376.609	0.22
376.8165	0.231
377.024	0.2226
377.2315	0.2141
377.4389	0.2289
377.6464	0.2424
377.8538	0.2402
378.0612	0.2265
378.2686	0.2417
378.476	0.2426
378.6834	0.2311
378.8908	0.2226
379.0981	0.235
379.3055	0.2441
379.5128	0.2304
379.7201	0.2235
379.9274	0.2225
380.1347	0.2463
380.342	0.2525
380.5492	0.2238
380.7565	0.2353
380.9637	0.2401
381.1709	0.2368
381.3781	0.2459
381.5853	0.2432
381.7925	0.2301
381.9997	0.2437
382.2068	0.2585
382.4139	0.2509
382.6211	0.2263
382.8282	0.2364
383.0353	0.2275
383.2424	0.2558
383.4494	0.2451
383.6565	0.2427
383.8635	0.2405
384.0706	0.2533
384.2776	0.2478
384.4846	0.236
384.6916	0.2355
384.8986	0.2285
385.1055	0.2622
385.3125	0.2385
385.5194	0.2218
385.7263	0.2526
385.9333	0.24
386.1402	0.2275
386.347	0.2323
386.5539	0.2307
386.7608	0.2533
386.9676	0.2243
387.1744	0.2656
387.3813	0.2306
387.5881	0.2327
387.7948	0.2362
388.0016	0.2264
388.2084	0.2312
388.4151	0.2348
388.6219	0.2418
388.8286	0.2513
389.0353	0.2543
389.242	0.2444
389.4487	0.2314
389.6553	0.2228
389.862	0.2211
390.0686	0.2267
390.2753	0.2282
390.4819	0.218
390.6885	0.2151
390.8951	0.2362
391.1016	0.2367
391.3082	0.24
391.5147	0.2293
391.7213	0.2299
391.9278	0.203
392.1343	0.2223
392.3408	0.2319
392.5473	0.2121
392.7537	0.2183
392.9602	0.2101
393.1666	0.2201
393.373	0.2174
393.5794	0.2287
393.7858	0.2271
393.9922	0.1926
394.1986	0.2132
394.4049	0.2091
394.6113	0.1944
394.8176	0.2192
395.0239	0.1988
395.2302	0.2117
395.4365	0.2076
395.6428	0.2196
395.8491	0.1975
396.0553	0.208
396.2615	0.1961
396.4678	0.2001
396.674	0.1902
396.8802	0.2046
397.0863	0.2094
397.2925	0.2061
397.4987	0.1873
397.7048	0.1968
397.9109	0.2192
398.117	0.1778
398.3231	0.1947
398.5292	0.2015
398.7353	0.2028
398.9413	0.1981
399.1474	0.2045
399.3534	0.2076
399.5594	0.1879
399.7654	0.2035
399.9714	0.2209
400.1774	0.1858
400.3833	0.1915
400.5893	0.2029
400.7952	0.199
401.0011	0.1963
401.207	0.2119
401.4129	0.1806
401.6188	0.2001
401.8247	0.1911
402.0305	0.2063
402.2364	0.177
402.4422	0.2026
402.648	0.2088
402.8538	0.2051
403.0596	0.1919
403.2654	0.2052
403.4711	0.1923
403.6768	0.218
403.8826	0.2
404.0883	0.1953
404.294	0.2011
404.4997	0.1871
404.7054	0.1918
404.911	0.1813
405.1167	0.1982
405.3223	0.2115
405.5279	0.2237
405.7335	0.1936
405.9391	0.2131
406.1447	0.1937
406.3502	0.203
406.5558	0.1989
406.7613	0.2253
406.9668	0.1999
407.1724	0.1913
407.3778	0.1819
407.5833	0.204
407.7888	0.2033
407.9942	0.199
408.1997	0.1965
408.4051	0.196
408.6105	0.2008
408.8159	0.1846
409.0213	0.1936
409.2267	0.2164
409.432	0.1915
409.6374	0.2109
409.8427	0.1955
410.048	0.1916
410.2533	0.205
410.4586	0.2001
410.6639	0.1915
410.8691	0.1905
411.0744	0.1894
411.2796	0.185
411.4848	0.1911
411.69	0.185
411.8952	0.2074
412.1004	0.1805
412.3056	0.2064
412.5107	0.1931
412.7158	0.2326
412.921	0.1978
413.1261	0.1927
413.3312	0.1983
413.5362	0.1921
413.7413	0.1968
413.9464	0.1726
414.1514	0.1727
414.3564	0.1844
414.5614	0.1762
414.7664	0.2049
414.9714	0.1976
415.1764	0.1901
415.3813	0.1921
415.5863	0.1982
415.7912	0.2048
415.9961	0.2074
416.201	0.1968
416.4059	0.1992
416.6108	0.2009
416.8156	0.2079
417.0205	0.1809
417.2253	0.173
417.4301	0.1898
417.6349	0.1704
417.8397	0.1883
418.0445	0.1978
418.2492	0.1898
418.454	0.1831
418.6587	0.1603
418.8634	0.173
419.0681	0.1658
419.2728	0.1831
419.4775	0.1928
419.6822	0.1734
419.8868	0.1614
420.0915	0.1758
420.2961	0.1596
420.5007	0.1784
420.7053	0.1864
420.9099	0.179
421.1144	0.1776
421.319	0.1772
421.5235	0.1842
421.728	0.1731
421.9325	0.182
422.137	0.1809
422.3415	0.1783
422.546	0.1719
422.7504	0.1751
422.9549	0.1762
423.1593	0.1896
423.3637	0.1726
423.5681	0.1882
423.7725	0.1558
423.9769	0.1562
424.1812	0.1517
424.3856	0.1794
424.5899	0.1857
424.7942	0.166
424.9985	0.1519
425.2028	0.1596
425.4071	0.1834
425.6113	0.1594
425.8156	0.1676
426.0198	0.1585
426.224	0.1394
426.4282	0.1707
426.6324	0.1564
426.8366	0.1581
427.0407	0.1477
427.2449	0.1473
427.449	0.1434
427.6531	0.13
427.8572	0.1504
428.0613	0.1474
428.2654	0.1594
428.4694	0.1234
428.6735	0.1455
428.8775	0.1593
429.0815	0.1387
429.2855	0.1332
429.4895	0.1407
429.6935	0.1332
429.8975	0.1402
430.1014	0.1323
430.3053	0.1282
430.5093	0.1332
430.7132	0.1063
430.9171	0.1338
431.1209	0.1348
431.3248	0.1373
431.5286	0.1361
431.7325	0.1285
431.9363	0.1204
432.1401	0.1452
432.3439	0.1151
432.5477	0.1066
432.7514	0.1236
432.9552	0.1296
433.1589	0.0904
433.3627	0.1182
433.5664	0.093
433.7701	0.1183
433.9737	0.1127
434.1774	0.0906
434.3811	0.1174
434.5847	0.1077
434.7883	0.1071
434.9919	0.0975
435.1955	0.1101
435.3991	0.1095
435.6027	0.1098
435.8062	0.0901
436.0098	0.096
436.2133	0.0916
436.4168	0.0881
436.6203	0.0979
436.8238	0.1029
437.0272	0.0898
437.2307	0.0967
437.4341	0.0919
437.6375	0.089
437.841	0.0783
438.0443	0.0961
438.2477	0.093
438.4511	0.085
438.6545	0.0747
438.8578	0.0918
439.0611	0.0805
439.2644	0.0895
439.4677	0.0816
439.671	0.0716
439.8743	0.07
440.0775	0.0743
440.2808	0.0731
440.484	0.0563
440.6872	0.0526
440.8904	0.0749
441.0936	0.0745
441.2967	0.0703
441.4999	0.0693
441.703	0.0507
441.9062	0.0656
442.1093	0.0644
442.3124	0.076
442.5155	0.0629
442.7185	0.0535
442.9216	0.0331
443.1246	0.0688
443.3276	0.0619
443.5307	0.062
443.7337	0.0515
443.9366	0.0462
444.1396	0.0596
444.3426	0.0402
444.5455	0.053
444.7484	0.0286
444.9513	0.0385
445.1542	0.057
445.3571	0.0497
445.56	0.0463
445.7628	0.0425
445.9657	0.0427
446.1685	0.0593
446.3713	0.0435
446.5741	0.0449
446.7769	0.0348
446.9797	0.0395
447.1824	0.05
447.3852	0.024
447.5879	0.047
447.7906	0.0465
447.9933	0.0267
448.196	0.0249
448.3986	0.0225
448.6013	0.0308
448.8039	0.0148
449.0066	0.0219
449.2092	0.0401
449.4118	0.0327
449.6143	0.0243
449.8169	0.0301
450.0195	0.0096
450.222	0.0139
450.4245	0.0103
450.627	0.0292
450.8295	0.0241
451.032	0.028
451.2345	0.0225
451.4369	0.0352
451.6394	0.0315
451.8418	-0.0053
452.0442	0.0117
452.2466	0.0462
452.449	0.0215
452.6513	0.0261
452.8537	0.0134
453.056	-0.0019
453.2583	0.0069
453.4607	0.005
453.663	0.0229
453.8652	0.0111
454.0675	0.0048
454.2697	0.0149
454.472	-0.0033
454.6742	0.0095
454.8764	0.0223
455.0786	0.0238
455.2808	0.0126
455.4829	0.0156
455.6851	0.0197
455.8872	0.0116
456.0893	0.0159
456.2915	-0.0035
456.4935	0.0123
456.6956	0.0103
456.8977	0.0152
457.0997	-0.0075
457.3018	0.0032
457.5038	0.0184
457.7058	0.0133
457.9078	0.0137
458.1098	0.011
458.3117	0.0177
458.5137	0.0106
458.7156	0.0112
458.9175	-0.0065
459.1194	0.0093
459.3213	0.015
459.5232	0.005
459.725	-0.0042
459.9269	-0.0188
460.1287	-0
460.3305	-0.0017
460.5323	0.0116
460.7341	0.0028
460.9359	-0.003
461.1376	0.0272
461.3394	0.0009
461.5411	0.0054
461.7428	0.007
461.9445	0.012
462.1462	0.0336
462.3479	-0.0015
462.5495	0.0061
462.7512	0.0005
462.9528	-0.0089
463.1544	-0.011
463.356	-0.0134
463.5576	-0.0071
463.7592	-0.0138
463.9607	0.0007
464.1623	0.023
464.3638	0.0272
464.5653	-0.0191
464.7668	0.0094
464.9683	0.0018
465.1697	0.0028
465.3712	-0.0085
465.5726	0.0113
465.7741	-0.0038
465.9755	-0.0045
466.1769	-0.0071
466.3782	-0.0083
466.5796	-0.0132
466.7809	-0.0003
466.9823	-0.0117
467.1836	0.0014
467.3849	-0.0112
467.5862	-0.0119
467.7875	-0.0122
467.9887	-0.0029
468.19	-0.0105
468.3912	-0.0109
468.5924	0.0096
468.7936	0.0018
468.9948	0.0055
469.196	-0.001
469.3972	-0.0173
469.5983	0.0016
469.7994	-0.0078
470.0006	0.0046
470.2017	-0.0118
470.4027	0.0011
470.6038	0.0026
470.8049	-0.018
471.0059	-0.0075
471.2069	-0.0302
471.408	0.0103
471.6089	0.0021
471.8099	-0.0132
472.0109	0.0161
472.2119	-0.0146
472.4128	-0.0284
472.6137	0.0055
472.8146	-0.006
473.0155	-0.0057
473.2164	-0.0082
473.4173	0.0055
473.6181	0.0057
473.819	0.003
474.0198	-0.0029
474.2206	-0.0074
474.4214	-0.0002
474.6222	0.0015
474.8229	-0.0095
475.0237	-0.0257
475.2244	-0.0073
475.4251	-0.0053
475.6258	-0.0117
475.8265	-0.0094
476.0272	-0.0035
476.2278	-0.0044
476.4285	-0.006
476.6291	-0.0067
476.8297	-0.0134
477.0303	-0.011
477.2309	-0.0077
477.4315	-0.0177
477.632	-0.0061
477.8326	0.001
478.0331	-0.0008
478.2336	-0.004
478.4341	-0.001
478.6346	-0.0084
478.8351	-0.0126
479.0355	-0.0047
479.236	-0.0048
479.4364	0.0045
479.6368	-0.0025
479.8372	-0.0141
480.0376	-0.0078
480.2379	-0.028
480.4383	-0.0235
480.6386	-0.0072
480.8389	-0.0004
481.0392	-0.011
481.2395	-0.0116
481.4398	0.0001
481.6401	0.0068
481.8403	-0.0088
482.0405	-0.0144
482.2408	-0.0038
482.441	0.0056
482.6411	-0.0118
482.8413	-0.018
483.0415	-0.0148
483.2416	-0.0155
483.4417	-0.0069
483.6419	-0.0018
483.8419	-0.0139
484.042	0.0031
484.2421	-0.006
484.4422	-0.0076
484.6422	-0.0138
484.8422	-0.0064
485.0422	-0.0081
485.2422	-0.0067
485.4422	-0.0149
485.6422	-0.0153
485.8421	-0.0059
486.042	0.0017
486.242	-0.0064
486.4419	-0.0164
486.6417	-0.0212
486.8416	0.0002
487.0415	-0.0074
487.2413	-0.0051
487.4411	0.008
487.641	-0.0189
487.8408	-0.0034
488.0405	-0.0143
488.2403	-0.0029
488.4401	-0.0083
488.6398	-0.0033
488.8395	-0.0123
489.0392	0.0044
489.2389	-0.0201
489.4386	-0.0212
489.6383	-0.0032
489.8379	-0.0016
490.0376	-0.0109
490.2372	-0.0195
490.4368	-0.0117
490.6364	-0.008
490.836	-0.0127
491.0355	-0.0177
491.2351	-0.0191
491.4346	-0.0196
491.6341	-0.0187
491.8336	-0.0053
492.0331	-0.0162
492.2326	-0.0127
492.432	-0.0146
492.6315	-0.0119
492.8309	-0.0167
493.0303	-0.008
493.2297	-0.0107
493.4291	-0.0025
493.6284	-0.0051
493.8278	-0.0062
494.0271	-0.0085
494.2264	-0.0069
494.4257	-0.0111
494.625	-0.0103
494.8243	-0.0166
495.0236	-0.0104
495.2228	-0.0178
495.422	-0.0062
495.6213	-0.0125
495.8205	-0.0141
496.0196	-0.0105
496.2188	-0.0023
496.418	-0.0145
496.6171	-0.0098
496.8162	-0.0141
497.0153	-0.0037
497.2144	-0.0088
497.4135	0.0016
497.6126	-0.0187
497.8116	-0.0068
498.0107	-0.0153
498.2097	-0.0167
498.4087	-0.0192
498.6077	-0.0076
498.8067	-0.0169
499.0056	0.0014
499.2046	-0.0047
499.4035	-0.0171
499.6024	-0.0101
499.8013	0.0023
500.0002	-0.0104
500.199	-0.0037
500.3979	-0.0123
500.5967	-0.0206
500.7956	0.0067
500.9944	-0.0094
501.1932	-0.0152
501.3919	-0.0193
501.5907	-0.0155
501.7895	-0.0064
501.9882	-0.0112
502.1869	-0.0122
502.3856	-0.0052
502.5843	-0.0059
502.783	-0.008
502.9816	-0.0107
503.1803	-0.0164
503.3789	-0.016
503.5775	-0.0027
503.7761	-0.0157
503.9747	-0.0128
504.1732	-0.0091
504.3718	-0.0041
504.5703	-0.0122
504.7689	-0.0092
504.9674	-0.0066
505.1658	-0.0056
505.3643	-0.0076
505.5628	-0.0172
505.7612	-0.0122
505.9597	-0.0068
506.1581	-0.0134
506.3565	-0.0016
506.5549	-0.0123
506.7532	-0.0196
506.9516	-0.0142
507.1499	-0.0095
507.3482	-0.0149
507.5465	-0.0057
507.7448	-0.0009
507.9431	-0.0032
508.1414	0.0034
508.3396	-0.0088
508.5379	-0.0153
508.7361	-0.0023
508.9343	-0.0074
509.1325	-0.011
509.3306	-0.0104
509.5288	-0.0086
509.7269	-0.0081
509.9251	-0.0127
510.1232	-0.0164
510.3213	-0.0054
510.5193	-0.0017
510.7174	-0.0141
510.9154	-0.0196
511.1135	-0.0167
511.3115	-0.001
511.5095	-0.0159
511.7075	-0.014
511.9055	-0.013
512.1034	-0.0157
512.3014	-0.0069
512.4993	0.0002
512.6972	-0.0073
512.8951	-0.0235
513.093	-0.0072
513.2908	0.0023
513.4887	-0.0076
513.6865	-0.0145
513.8844	-0.0131
514.0822	-0.0169
514.2799	-0.0183
514.4777	-0.01
514.6755	-0.0084
514.8732	-0.0157
515.0709	-0.0075
515.2687	-0.0129
515.4664	-0.0005
515.664	-0.006
515.8617	-0.0066
516.0594	-0.0165
516.257	-0.0101
516.4546	-0.0165
516.6522	-0.006
516.8498	-0.0085
517.0474	-0.0043
517.2449	0.0029
517.4425	-0.0147
517.64	-0.0157
517.8375	0.0017
518.035	-0.011
518.2325	-0.0235
518.43	-0.0112
518.6274	-0.0069
518.8249	-0.0245
519.0223	-0.0057
519.2197	-0.0144
519.4171	-0.0097
519.6145	-0.0062
519.8118	-0.0087
520.0092	-0.015
520.2065	-0.0156
520.4038	-0.017
520.6011	-0.009
520.7984	-0.0192
520.9956	-0.0114
521.1929	-0.0092
521.3901	-0.0097
521.5874	-0.0098
521.7846	-0.0139
521.9818	-0.0072
522.1789	-0.0043
522.3761	-0.0079
522.5732	-0.0147
522.7704	-0.011
522.9675	-0.0146
523.1646	-0.0037
523.3617	-0.0208
523.5587	-0.0024
523.7558	-0.0063
523.9528	-0.0116
524.1498	-0.0079
524.3468	-0.0125
524.5438	-0.0117
524.7408	-0.0083
524.9378	0.0036
525.1347	-0.0079
525.3316	-0.0051
525.5285	-0.0083
525.7254	-0.0103
525.9223	-0.0094
526.1192	-0.0077
526.316	-0.0075
526.5129	-0.011
526.7097	-0.007
526.9065	-0.0064
527.1033	-0.0168
527.3	-0.0024
527.4968	-0.0048
527.6935	0.0018
527.8903	-0.0232
528.087	-0.0035
528.2837	-0.0073
528.4804	-0.0057
528.677	-0.0104
528.8737	-0.0061
529.0703	-0.0064
529.2669	-0.0018
529.4635	-0.011
529.6601	-0.0139
529.8567	-0.0028
530.0532	-0.0091
530.2498	-0.0056
530.4463	-0.0017
530.6428	-0.0059
530.8393	0.0029
531.0358	-0.0176
531.2322	-0.015
531.4287	-0.0087
531.6251	-0.0156
531.8215	-0.0069
532.0179	-0.0113
532.2143	0.0069
532.4107	0.0002
532.607	-0.01
532.8034	0.0024
532.9997	0.0013
533.196	-0.0106
533.3923	-0.0098
533.5886	-0.0062
533.7848	-0.0078
533.9811	-0.0064
534.1773	0.0018
534.3735	0.003
534.5697	-0.0064
534.7659	-0.0062
534.9621	0.0097
535.1582	-0.0199
535.3544	-0.0053
535.5505	-0.0129
535.7466	-0.0082
535.9427	-0.0117
536.1387	-0.0128
536.3348	-0.0058
536.5308	-0.0018
536.7269	-0.0106
536.9229	-0.0028
537.1189	-0.0036
537.3148	-0.0112
537.5108	-0.0009
537.7068	-0.0058
537.9027	-0.0046
538.0986	-0.0145
538.2945	-0.0119
538.4904	-0.0065
538.6863	-0.0106
538.8821	-0.0057
539.078	0.0005
539.2738	-0.0068
539.4696	0.0009
539.6654	0.0075
539.8611	-0.0006
540.0569	-0.0035
540.2526	-0.0073
540.4484	-0.0056
540.6441	0.0012
540.8398	-0.0017
541.0355	-0.006
541.2311	-0.011
541.4268	-0.0114
541.6224	-0.0021
541.818	-0.0068
542.0136	-0.0135
542.2092	-0.0029
542.4048	-0.0023
542.6003	-0.0003
542.7959	-0.0117
542.9914	-0.006
543.1869	-0.0087
543.3824	-0.0052
543.5779	-0.0122
543.7734	-0.0035
543.9688	-0.0076
544.1642	-0.0069
544.3596	-0.0048
544.555	-0.003
544.7504	-0.0019
544.9458	-0.0081
545.1411	-0.0065
545.3365	-0.009
545.5318	-0.0026
545.7271	-0.0034
545.9224	-0.0072
546.1177	-0.0062
546.3129	0.007
546.5081	-0.0106
546.7034	-0.0065
546.8986	-0.0128
547.0938	-0.011
547.289	-0.0114
547.4841	-0.0077
547.6793	0.0063
547.8744	-0.0191
548.0695	0.0014
548.2646	-0.0083
548.4597	-0.0021
548.6548	-0.0011
548.8498	-0.0045
549.0448	-0.0042
549.2399	-0.0118
549.4349	-0.0007
549.6298	-0.0086
549.8248	-0.0027
550.0198	-0.0031
550.2147	-0.012
550.4096	-0.0144
550.6045	-0.0125
550.7994	0.003
550.9943	-0.0086
551.1892	-0.0016
551.384	0.0035
551.5788	-0.0179
551.7737	-0.0005
551.9685	-0.0032
552.1632	-0.004
552.358	-0.0054
552.5528	-0.0029
552.7475	-0.0057
552.9422	-0.0047
553.1369	-0.0069
553.3316	0.0044
553.5263	-0.0104
553.7209	0.0087
553.9156	-0.0054
554.1102	-0.0134
554.3048	-0.0034
554.4994	0.0093
554.694	-0.007
554.8885	0.0043
555.0831	-0.0121
555.2776	-0.0115
555.4721	-0.0064
555.6666	-0.0048
555.8611	0.0017
556.0555	-0.005
556.25	-0.0045
556.4444	-0.0051
556.6388	-0.0001
556.8332	-0.0018
557.0276	-0.0083
557.222	-0.0093
557.4163	-0.001
557.6107	-0.0067
557.805	0.0064
557.9993	-0.0071
558.1936	-0.0008
558.3879	0.0027
558.5821	0.0022
558.7764	-0.0041
558.9706	-0.0015
559.1648	-0.0022
559.359	-0.0025
559.5532	-0.0072
559.7473	0.0057
559.9415	0.001
560.1356	-0.004
560.3297	-0.0168
560.5238	-0.0048
560.7179	-0.0055
560.9119	-0.0038
561.106	-0.0118
561.3	-0.0089
561.494	-0.002
561.688	-0.0035
561.882	-0.0072
562.076	-0.0116
562.2699	0.0028
562.4639	-0.0089
562.6578	0.0026
562.8517	0.0031
563.0456	0.0023
563.2395	0.0004
563.4333	-0.0055
563.6272	0.0044
563.821	-0.0073
564.0148	-0.0093
564.2086	-0.0052
564.4024	-0.0084
564.5961	-0.0064
564.7899	0.006
564.9836	-0.0066
565.1773	-0.0031
565.371	0.0016
565.5647	0.0019
565.7584	-0.0037
565.952	0.0013
566.1456	0.0005
566.3393	0.0006
566.5329	-0.0005
566.7264	-0.0056
566.92	-0.0082
567.1136	0.0015
567.3071	-0.005
567.5006	-0.0004
567.6941	-0.008
567.8876	-0.0017
568.0811	-0.0064
568.2745	-0.0005
568.468	0.0059
568.6614	-0.0029
568.8548	-0.0032
569.0482	-0.0044
569.2416	-0.0036
569.4349	-0.006
569.6283	0.0037
569.8216	-0.0022
570.0149	-0.0012
570.2082	-0.0021
570.4015	0.0021
570.5947	0.0044
570.788	-0.0059
570.9812	0.0076
571.1744	0.0009
571.3676	-0.0121
571.5608	-0.0013
571.754	0.0008
571.9471	-0.0031
572.1402	-0.0026
572.3333	-0.0021
572.5264	-0.0003
572.7195	-0.0018
572.9126	-0.0039
573.1057	-0.0028
573.2987	-0.0028
573.4917	-0.0014
573.6847	-0.0013
573.8777	0.0028
574.0707	0.0006
574.2636	-0.0069
574.4566	-0.0035
574.6495	0.0039
574.8424	-0.0031
575.0353	-0.0006
575.2281	0.0038
575.421	0.0025
575.6138	0.009
575.8067	-0.0011
575.9995	-0.0021
576.1923	-0.002
576.385	0.0084
576.5778	0.0016
576.7706	-0.0011
576.9633	-0.0008
577.156	-0.0009
577.3487	-0.0052
577.5414	-0.0006
577.734	-0.0049
577.9267	-0.0022
578.1193	-0.0119
578.3119	-0.0061
578.5045	0.0006
578.6971	-0.0001
578.8897	0.0052
579.0822	-0.0037
579.2747	0.001
579.4673	-0.0007
579.6598	-0.0047
579.8522	0.0004
580.0447	-0.0118
580.2372	0.0015
580.4296	0.0027
580.622	-0.0053
580.8144	-0.002
581.0068	-0.0071
581.1992	-0.0122
581.3915	-0.0099
581.5839	-0.0041
581.7762	-0.0123
581.9685	-0.0037
582.1608	0.0002
582.353	-0.005
582.5453	-0.0004
582.7375	-0.0037
582.9298	0.0048
583.122	0.0037
583.3142	0.001
583.5063	0.0021
583.6985	-0.0037
583.8906	-0.0078
584.0827	-0.0007
584.2749	-0.0009
584.4669	0.0027
584.659	0
584.8511	-0.0041
585.0431	-0.0048
585.2352	-0.0043
585.4272	0.0013
585.6192	0.0017
585.8111	-0.0072
586.0031	-0.0056
586.195	-0.0001
586.387	0.002
586.5789	-0.0029
586.7708	0.0012
586.9627	-0.003
587.1545	-0.0061
587.3464	-0.0032
587.5382	0.0098
587.73	-0.001
587.9218	0.0084
588.1136	0.0004
588.3053	0.0038
588.4971	-0.0086
588.6888	-0.0092
588.8805	-0.0051
589.0722	0.0078
589.2639	0.003
589.4556	0.0011
589.6472	-0.0043
589.8389	-0.0039
590.0305	-0.0113
590.2221	-0.0003
590.4137	-0.0106
590.6052	0.004
590.7968	0.0049
590.9883	0.0023
591.1798	-0.0027
591.3713	-0.0027
591.5628	0.0025
591.7543	0.0069
591.9458	0.0018
592.1372	0.005
592.3286	0.0074
592.52	0.0066
592.7114	-0.0039
592.9028	-0.0036
593.0941	-0.0061
593.2855	-0.0042
593.4768	-0.0153
593.6681	-0.0105
593.8594	-0.0073
594.0506	-0.0034
594.2419	0.0048
594.4331	-0.002
594.6244	0.0055
594.8156	-0.004
595.0067	0.0049
595.1979	0.0004
595.3891	0.0018
595.5802	0.0014
595.7713	-0.0027
595.9624	0.0011
596.1535	0.0053
596.3446	0.0023
596.5357	0.0025
596.7267	0.0062
596.9177	-0.0074
597.1087	-0.0061
597.2997	-0.006
597.4907	0.0061
597.6817	-0.0037
597.8726	0.0012
598.0635	-0.0091
598.2544	0.0023
598.4453	0.0028
598.6362	-0.005
598.827	-0.0002
599.0179	0.0004
599.2087	-0.0008
599.3995	-0.0026
599.5903	0.0009
599.7811	0.0018
599.9718	0.0042
600.1626	-0.0013
600.3533	-0.0058
600.544	0.0047
600.7347	-0.006
600.9254	0.0015
601.116	-0.0078
601.3067	-0.003
601.4973	-0.0037
601.6879	0.0033
601.8785	-0.0041
602.0691	0.0044
602.2596	0.0082
602.4502	-0.0016
602.6407	0.003
602.8312	-0.0015
603.0217	-0.0024
603.2122	0.0046
603.4027	-0.0029
603.5931	-0.0001
603.7835	-0.0063
603.9739	0.0007
604.1643	-0.0029
604.3547	-0.0009
604.5451	0.0037
604.7354	-0.0101
604.9257	0.002
605.116	-0.0076
605.3063	0.0037
605.4966	-0.0007
605.6869	-0.0016
605.8771	0.0042
606.0673	-0.0032
606.2575	0.0038
606.4477	0.0044
606.6379	0.0008
606.8281	-0.0027
607.0182	-0.005
607.2083	0.0132
607.3985	-0.0037
607.5885	0.004
607.7786	-0.0026
607.9687	-0.0066
608.1587	0.0012
608.3488	-0.0007
608.5388	-0.0003
608.7288	-0.0052
608.9187	-0.01
609.1087	-0.0043
609.2986	-0.0068
609.4886	-0.0037
609.6785	0.0018
609.8684	0.0021
610.0582	-0.0043
610.2481	-0.0064
610.4379	-0.0024
610.6278	-0.0039
610.8176	-0.0067
611.0074	-0.0011
611.1971	-0.0038
611.3869	-0.0006
611.5766	-0.0069
611.7664	0.0072
611.9561	-0.0007
612.1458	0.0073
612.3354	-0.0101
612.5251	-0.0026
612.7147	0.0007
612.9044	0.0054
613.094	-0.0054
613.2836	0.0062
613.4731	-0.0062
613.6627	-0.0013
613.8522	-0.0007
614.0417	0.0069
614.2313	-0.001
614.4207	-0.004
614.6102	0.0009
614.7997	-0.0001
614.9891	-0.001
615.1785	-0.003
615.3679	-0.0041
615.5573	0.0095
615.7467	-0.001
615.9361	0.001
616.1254	0.0015
616.3147	0.0008
616.504	0.0095
616.6933	0.0126
616.8826	0.0008
617.0718	0.0046
617.2611	0.0036
617.4503	-0.002
617.6395	-0.0042
617.8287	-0.0025
618.0179	0.0016
618.207	0.0019
618.3961	-0.0054
618.5853	-0.0052
618.7744	0.0027
618.9634	0.0076
619.1525	0.0048
619.3416	-0.0028
619.5306	0.004
619.7196	-0.0037
619.9086	-0.0093
620.0976	0.0017
620.2866	0.0004
620.4755	0.0019
620.6645	0.0032
620.8534	0.0057
621.0423	0.0028
621.2312	-0.0019
621.42	0.0018
621.6089	0.002
621.7977	0.0044
621.9865	-0
622.1753	0.0051
622.3641	0.0005
622.5529	-0.0004
622.7416	0.0058
622.9303	-0.0043
623.1191	0.0019
623.3078	-0.0036
623.4964	0.0009
623.6851	-0.005
623.8737	-0.0061
624.0624	0.0059
624.251	-0.0065
624.4396	-0.0002
624.6282	-0.0104
624.8167	-0.0045
625.0053	-0.0012
625.1938	0.0039
625.3823	0.0014
625.5708	0.0008
625.7593	-0.0062
625.9477	-0.0078
626.1362	-0.005
626.3246	-0.0011
626.513	0.0008
626.7014	0.0019
626.8898	-0.0047
627.0781	0.0007
627.2665	-0.0043
627.4548	0.0077
627.6431	0.0016
627.8314	-0.0012
628.0197	-0.0027
628.2079	-0.0071
628.3962	-0.0053
628.5844	0.0018
628.7726	0.0055
628.9608	0.0059
629.1489	-0.0017
629.3371	0.0024
629.5252	0.0026
629.7134	0.0083
629.9015	-0.0009
630.0895	0.0061
630.2776	-0.001
630.4657	-0.0039
630.6537	0.0023
630.8417	-0.0058
631.0297	-0.0043
631.2177	0.005
631.4057	-0.0134
631.5936	-0.0037
631.7815	-0.0006
631.9695	0.0016
632.1574	0.0029
632.3452	0.0132
632.5331	0.0052
632.7209	-0.0033
632.9088	0.009
633.0966	0.0109
633.2844	-0.0019
633.4722	-0.0012
633.6599	0.0048
633.8477	0.0018
634.0354	0.0053
634.2231	-0.0058
634.4108	0.0071
634.5985	0.0069
634.7861	-0.0014
634.9738	0.0007
635.1614	-0.0005
635.349	-0.0017
635.5366	-0.001
635.7242	-0.0026
635.9117	0.0049
636.0993	-0.0004
636.2868	0.003
636.4743	0.0007
636.6618	0.0062
636.8492	0.0046
637.0367	0.0048
637.2241	-0.0004
637.4115	-0.0008
637.5989	0.0063
637.7863	0.0014
637.9737	-0.0006
638.161	-0.0018
638.3484	-0.0016
638.5357	0.0031
638.723	-0.0045
638.9103	0.0036
639.0975	0.0051
639.2848	0.0079
639.472	0.0066
639.6592	0.0066
639.8464	0.0089
640.0336	0.0071
640.2208	0.0013
640.4079	0.0067
640.595	-0.0003
640.7821	-0.0007
640.9692	-0.0033
641.1563	0.0055
641.3434	-0.0015
641.5304	0.0032
641.7174	0.0098
641.9044	0.0059
642.0914	0.0163
642.2784	0.0121
642.4653	0.0125
642.6523	0.0005
642.8392	0.0037
643.0261	0.006
643.213	0.0026
643.3999	0.001
643.5867	-0.0028
643.7735	0.0054
643.9604	-0.0041
644.1472	0.0015
644.3339	0.002
644.5207	0.0016
644.7075	-0.0018
644.8942	0.005
645.0809	0.0057
645.2676	0.0051
645.4543	0.0054
645.6409	0.002
645.8276	0.007
646.0142	0.0023
646.2008	-0.0057
646.3874	-0.0068
646.574	0.0077
646.7605	-0.0042
646.9471	-0.0117
647.1336	0.0022
647.3201	0.0016
647.5066	-0.0004
647.6931	0.0021
647.8795	-0.0041
648.0659	0.0076
648.2524	0.0043
648.4388	-0.0006
648.6252	-0.0028
648.8115	0.0022
648.9979	-0.0034
649.1842	-0.0068
649.3705	0.006
649.5568	0.0024
649.7431	0.008
649.9294	0.0027
650.1156	0.0052
650.3018	-0.0053
650.488	0.0042
650.6742	0.0074
650.8604	-0.0017
651.0466	-0.0067
651.2327	-0.0003
651.4188	-0.0002
651.6049	-0.0024
651.791	0.0022
651.9771	0.0036
652.1632	0.0004
652.3492	0.0093
652.5352	0.0023
652.7212	-0.0054
652.9072	0.0036
653.0932	0.0043
653.2791	-0.0105
653.465	0.0004
653.651	0.0033
653.8369	-0.001
654.0227	-0.0017
654.2086	0.0074
654.3944	0.0057
654.5803	-0.002
654.7661	-0.0001
654.9519	-0.0019
655.1377	-0.0048
655.3234	-0.0018
655.5092	-0.0047
655.6949	-0.0075
655.8806	-0.0081
656.0663	-0.0046
656.2519	-0.0025
656.4376	-0.0019
656.6232	0.0071
656.8088	-0.0008
656.9945	0.0019
657.18	0.0076
657.3656	0.0026
657.5511	0.0005
657.7367	-0.0048
657.9222	0.0022
658.1077	0.0008
658.2932	0.0022
658.4786	-0.0073
658.6641	-0.0043
658.8495	-0.0009
659.0349	0.0022
659.2203	0.0043
659.4057	0.0047
659.591	0.0045
659.7764	-0.0035
659.9617	-0.0019
660.147	-0.0012
660.3323	0.0087
660.5176	0.0016
660.7028	0.0079
660.888	0.0038
661.0733	0.0011
661.2585	-0.0024
661.4436	-0.0055
661.6288	-0.0019
661.8139	-0.0025
661.9991	0.0029
662.1842	0.0003
662.3693	0.0011
662.5544	-0.004
662.7394	0.001
662.9245	-0.0018
663.1095	-0.001
663.2945	0.0014
663.4795	0.0039
663.6644	0.0029
663.8494	-0.0026
664.0343	-0.0019
664.2193	-0.0038
664.4042	0.0012
664.589	-0.0021
664.7739	0.0003
664.9587	-0.0043
665.1436	0.0002
665.3284	0
665.5132	-0.0085
665.698	0.0051
665.8827	0.0033
666.0675	0.0048
666.2522	-0.0052
666.4369	0.001
666.6216	0.0102
666.8063	0.0013
666.9909	-0.0022
667.1756	0.0021
667.3602	0.0004
667.5448	-0.0021
667.7294	0.0079
667.9139	0.0086
668.0985	0.0092
668.283	-0.0027
668.4675	0.0028
668.652	0.0075
668.8365	-0.0019
669.0209	0.0018
669.2054	0.0059
669.3898	-0.0061
669.5742	0.0022
669.7586	0.0006
669.943	0.003
670.1273	0.0058
670.3117	0.0053
670.496	0.0036
670.6803	0.007
670.8646	0.0037
671.0488	-0.0046
671.2331	0.0076
671.4173	0.0006
671.6015	0.0073
671.7857	0.0052
671.9699	-0.0014
672.1541	0.0024
672.3382	0.0044
672.5223	0.0035
672.7064	0.0025
672.8905	0.0045
673.0746	-0.005
673.2587	-0.001
673.4427	0.0092
673.6267	-0.0002
673.8107	0.0083
673.9947	0.0052
674.1787	0.005
674.3626	-0.0021
674.5465	0.007
674.7304	0.0082
674.9143	0.0076
675.0982	0.0085
675.2821	-0.0103
675.4659	0.0038
675.6497	0.0045
675.8335	-0.0023
676.0173	0.0012
676.2011	-0.0008
676.3849	-0.0031
676.5686	-0.0048
676.7523	-0.0033
676.936	-0.0045
677.1197	0.0011
677.3034	-0.0069
677.487	0.0073
677.6706	-0.0016
677.8542	-0.0028
678.0378	-0.0069
678.2214	0.0015
678.405	0.0024
678.5885	-0.0036
678.772	0.0076
678.9555	-0.0058
679.139	-0.0015
679.3225	0.0011
679.5059	-0.0016
679.6894	0.0046
679.8728	0.0006
680.0562	-0.0008
680.2395	-0.0035
680.4229	-0.0024
680.6062	0.0057
680.7896	0.0023
680.9729	-0.0009
681.1562	0.0033
681.3394	-0.0013
681.5227	-0.0086
681.7059	-0
681.8891	0.0025
682.0723	0.007
682.2555	0.0035
682.4387	-0.0067
682.6218	-0.0054
682.805	0.0029
682.9881	0.0042
683.1712	-0.0039
683.3542	-0.0008
683.5373	0.0022
683.7203	-0.0049
683.9034	-0.0059
684.0864	-0.0049
684.2694	-0.0028
684.4523	0.0026
684.6353	-0.0019
684.8182	0.0028
685.0011	-0.0023
685.184	0.0001
685.3669	-0.0002
685.5498	0.0013
685.7326	-0.0017
685.9154	-0.0043
686.0982	0.0027
686.281	0.0097
686.4638	0.0076
686.6465	0.003
686.8293	-0.0005
687.012	0.0052
687.1947	-0.0114
687.3774	0.0001
687.56	-0.0042
687.7427	-0.0016
687.9253	-0.0025
688.1079	-0.0004
688.2905	0.0035
688.4731	-0.0035
688.6556	0.0033
688.8382	0.0018
689.0207	0.0026
689.2032	-0.0076
689.3857	-0.0151
689.5681	-0.0079
689.7506	-0.0128
689.933	-0.0058
690.1154	-0.0031
690.2978	-0.0067
690.4802	-0.0031
690.6626	-0.0086
690.8449	-0.0071
691.0272	-0.0006
691.2095	-0.0166
691.3918	-0.0029
691.5741	0.0044
691.7563	-0.005
691.9386	-0.0051
692.1208	-0.0017
692.303	-0.0009
692.4852	-0.0045
692.6673	-0.0011
692.8495	-0.0005
693.0316	-0.0007
693.2137	0.0047
693.3958	0.0028
693.5778	-0.0045
693.7599	-0.001
693.9419	0.0006
694.1239	0.0009
694.3059	-0.0058
694.4879	0.0013
694.6699	0.0097
694.8518	0.0066
695.0337	-0.0092
695.2157	0.0069
695.3975	-0.0006
695.5794	0.0003
695.7613	0.0003
695.9431	-0.0017
696.1249	0.0037
696.3067	0.0077
696.4885	0.0037
696.6703	-0.0098
696.852	0.0016
697.0337	0.0015
697.2154	-0.0015
697.3971	-0.0018
697.5788	0.0006
697.7605	0.0016
697.9421	-0.0004
698.1237	0.0078
698.3053	-0.001
698.4869	-0.0033
698.6685	-0.0042
698.85	-0.0045
699.0315	0.0091
699.213	-0.0062
699.3945	-0.0041
699.576	0.0081
699.7575	0.004
699.9389	0.0067
700.1203	-0.0042
700.3017	-0.0056
700.4831	-0.0145
700.6645	-0.0068
700.8458	-0.0024
701.0271	-0.0066
701.2084	-0.0007
701.3897	0.0018
701.571	0.0047
701.7523	-0.0111
701.9335	0.0004
702.1147	0.0083
702.2959	-0.0026
702.4771	0.0048
702.6583	0.0036
702.8394	-0.0032
703.0205	0.0026
703.2016	-0.0028
703.3827	0.0059
703.5638	0.0056
703.7449	0.0009
703.9259	0.004
704.1069	-0.0002
704.2879	0.001
704.4689	0.0111
704.6499	-0.0007
704.8308	-0.002
705.0117	0.003
705.1927	-0.0037
705.3735	-0.003
705.5544	-0.0061
705.7353	-0.0063
705.9161	-0.0059
706.0969	-0.0013
706.2777	-0.0007
706.4585	-0.0001
706.6393	0.0059
706.82	-0.0019
707.0007	0.0024
707.1815	0.0043
707.3621	0.0085
707.5428	0.0069
707.7235	0.0035
707.9041	0.0004
708.0847	-0.0072
708.2653	-0.0047
708.4459	-0.0151
708.6265	-0.0018
708.807	0.0045
708.9875	0.0007
709.168	-0.0043
709.3485	-0.0011
709.529	-0.0051
709.7095	-0.0082
709.8899	-0.002
710.0703	-0.0037
710.2507	-0.0002
710.4311	-0.0049
710.6115	-0.0103
710.7918	-0.0033
710.9721	-0.0079
711.1524	-0.0122
711.3327	-0.0019
711.513	0.0007
711.6932	0.0058
711.8735	0.0071
712.0537	0.001
712.2339	0.0014
712.4141	-0.0015
712.5942	-0.0004
712.7744	-0.005
712.9545	-0.0112
713.1346	-0.009
713.3147	-0.001
713.4947	-0.005
713.6748	0.002
713.8548	-0.0019
714.0348	-0.0077
714.2148	-0.0073
714.3948	0.0025
714.5748	-0.0084
714.7547	0.0002
714.9346	0.0009
715.1145	0.0047
715.2944	-0.0115
715.4743	0.0022
715.6541	-0.0024
715.834	0.0098
716.0138	-0.0095
716.1936	-0.0112
716.3733	-0.0108
716.5531	0.0028
716.7328	-0.0067
716.9126	-0.0026
717.0923	0.0081
717.2719	0.0034
717.4516	0.0087
717.6312	0.0053
717.8109	-0.0098
717.9905	-0.0012
718.1701	-0.01
718.3496	-0.0083
718.5292	-0.0048
718.7087	-0.0021
718.8882	-0.0054
719.0677	0.0007
719.2472	-0.0051
719.4267	-0.0004
719.6061	0.001
719.7856	0.01
719.965	0.0032
720.1443	-0.0046
720.3237	0.011
720.5031	0.0008
720.6824	0.0061
720.8617	-0.004
721.041	0.0048
721.2203	0.0022
721.3995	0.0066
721.5788	-0.0041
721.758	0.0064
721.9372	-0.0022
722.1164	-0.0068
722.2956	0.0004
722.4747	-0.0013
722.6538	-0.0009
722.8329	0.0121
723.012	-0.0009
723.1911	-0.0119
723.3702	0
723.5492	-0.0014
723.7282	0.0036
723.9072	0.0016
724.0862	0.0012
724.2652	-0.0088
724.4441	-0.0037
724.623	-0.0041
724.8019	-0.0031
724.9808	-0.0036
725.1597	-0.0156
725.3385	0.0094
725.5174	0.0043
725.6962	-0.0023
725.875	0.003
726.0538	0.0002
726.2325	-0.0032
726.4112	0.0091
726.59	-0.0026
726.7687	-0.0001
726.9474	0.0075
727.126	0.0037
727.3047	0.0022
727.4833	0.0051
727.6619	0.0013
727.8405	-0.0083
728.0191	-0.0008
728.1976	0.0017
728.3762	-0.0028
728.5547	-0.005
728.7332	-0.0098
728.9116	0.008
729.0901	0.0017
729.2686	-0.0008
729.447	-0.0049
729.6254	-0.0098
729.8038	-0.0068
729.9821	-0.0158
730.1605	-0.0056
730.3388	-0.0033
730.5171	-0.0042
730.6954	-0.0037
730.8737	0.0011
731.0519	-0.0032
731.2302	-0.002
731.4084	0.0078
731.5866	0.0019
731.7648	0.0014
731.9429	-0.0074
732.1211	-0.017
732.2992	-0.0012
732.4773	-0.0064
732.6554	0.0027
732.8335	-0.0023
733.0115	0.0005
733.1896	0.0031
733.3676	-0.0136
733.5456	0.0001
733.7235	0.0105
733.9015	-0.0007
734.0794	0.0029
734.2574	-0.0084
734.4353	0.0029
734.6131	0.0052
734.791	-0.0008
734.9689	0.0015
735.1467	0.0121
735.3245	-0.0074
735.5023	-0.008
735.68	0.0067
735.8578	0.0046
736.0355	-0.0211
736.2132	-0.0071
736.3909	-0.0067
736.5686	-0.0191
736.7463	0.0014
736.9239	-0.0109
737.1015	-0.0051
737.2791	0.0102
737.4567	0.001
737.6343	-0.0072
737.8118	0.0011
737.9894	0.004
738.1669	-0.0097
738.3444	-0.0035
738.5218	0.0044
738.6993	-0.0039
738.8767	0.0018
739.0541	0.0168
739.2315	-0.0118
739.4089	-0.0009
739.5863	0.0066
739.7636	-0.0013
739.9409	-0.001
740.1182	0.0029
740.2955	0.0031
740.4728	-0.0017
740.65	-0.002
740.8272	-0.0032
741.0044	-0.0067
741.1816	-0.0001
741.3588	-0.0025
741.5359	0.0027
741.7131	-0.0096
741.8902	-0.0015
742.0673	-0.0085
742.2444	-0.0087
742.4214	-0.0178
742.5985	-0.0061
742.7755	-0.0119
742.9525	-0.0187
743.1295	-0.0021
743.3064	-0.0125
743.4834	-0.0017
743.6603	-0.0043
743.8372	-0.0074
744.0141	-0.0068
744.191	-0.0023
744.3678	-0.0037
744.5446	0.004
744.7215	0.003
744.8982	-0.008
745.075	-0.0073
745.2518	-0.0009
745.4285	-0.0028
745.6052	-0.0071
745.7819	-0.0097
745.9586	-0.0099
746.1353	-0.0066
746.3119	-0.0062
746.4885	-0.0162
746.6651	-0.0041
746.8417	-0.0027
747.0183	-0.0021
747.1948	0.0012
747.3714	0.0018
747.5479	0.0014
747.7244	-0.0043
747.9008	0.0039
748.0773	-0.0031
748.2537	-0.001
748.4301	-0.0055
748.6065	0.0082
748.7829	-0
748.9593	0.0003
749.1356	-0.0006
749.3119	0.0069
749.4882	-0.008
749.6645	0.0015
749.8408	-0.0049
750.017	-0.0043
750.1933	0.003
750.3695	-0.0046
750.5457	0.0005
750.7218	-0.003
750.898	0.0028
751.0741	-0.0098
751.2502	0.0025
751.4263	-0.0086
751.6024	-0.001
751.7784	-0.0058
751.9545	-0.0047
752.1305	0.0061
752.3065	-0.0068
752.4825	-0.0032
752.6584	-0.0094
752.8344	0.0023
753.0103	-0.0128
753.1862	-0.0083
753.3621	-0.0016
753.5379	-0.0027
753.7138	-0.0016
753.8896	-0.0017
754.0654	0.0028
754.2412	0.0151
754.417	0.0076
754.5927	0.0001
754.7685	-0.0011
754.9442	0.002
755.1199	0.0133
755.2956	0.0085
755.4712	0.0112
755.6469	0.0064
755.8225	0.0061
755.9981	0.0074
756.1736	0.0096
756.3492	0.0084
756.5248	-0.0041
756.7003	0.0009
756.8758	0.0154
757.0513	-0.008
757.2267	-0.004
757.4022	0.0002
757.5776	0.0014
757.753	0.0023
757.9284	-0.0063
758.1038	0.0082
758.2791	0.0009
758.4545	-0.0115
758.6298	-0.0055
758.8051	-0.0056
758.9803	-0.0073
759.1556	-0.0106
759.3308	-0.0019
759.506	0.0013
759.6812	0.0079
759.8564	0.0024
760.0316	0.0058
760.2067	0.007
760.3819	0.0061
760.557	0.0077
760.732	-0.0051
760.9071	-0.0051
761.0821	0.0007
761.2572	0.0101
761.4322	0.0049
761.6072	0.0039
761.7821	0.0028
761.9571	0.0054
762.132	0.0114
762.3069	-0.0004
762.4818	-0.0049
762.6567	0.0028
762.8316	0.0098
763.0064	0.0007
763.1812	0.0002
763.356	-0.006
763.5308	0.0037
763.7055	0.0109
763.8803	-0.0036
764.055	-0.0032
764.2297	-0.0074
764.4044	-0.0095
764.579	-0.01
764.7537	-0.011
764.9283	-0.0019
765.1029	-0.002
765.2775	-0.0065
765.4521	-0.0109
765.6266	-0.0162
765.8011	-0.0075
765.9756	0.0011
766.1501	0.0111
766.3246	0.0011
766.4991	-0.0063
766.6735	0.0015
766.8479	-0.0103
767.0223	0.0121
767.1967	0.0022
767.371	-0.0024
767.5454	-0.0127
767.7197	0.0069
767.894	-0.0137
768.0683	-0.0087
768.2425	0.0032
768.4168	-0.0046
768.591	-0.0049
768.7652	-0.0063
768.9394	-0.004
769.1135	0.0002
769.2877	0.0075
769.4618	-0.0019
769.6359	0.0044
769.81	0.0047
769.984	0.0039
770.1581	-0.006
770.3321	0.0127
770.5061	-0.0005
770.6801	0.0019
770.8541	0.0051
771.028	0.0104
771.202	-0.0048
771.3759	0.01
771.5498	0.0039
771.7236	0.0057
771.8975	0.0014
772.0713	0.008
772.2451	0.0104
772.4189	-0.0017
772.5927	0.014
772.7665	0.0014
772.9402	-0.0073
773.1139	-0.0006
773.2876	-0.0127
773.4613	0.0212
773.635	0.0163
773.8086	-0.0144
773.9822	0.0066
774.1558	0.0033
774.3294	-0.0182
774.503	0.006
774.6765	0.0013
774.8501	0.0031
775.0236	0.0107
775.1971	0.0078
775.3705	-0.0082
775.544	-0.0026
775.7174	-0.0067
775.8908	-0.0006
776.0642	-0.0067
776.2376	-0.0023
776.4109	-0.0145
776.5843	-0.012
776.7576	-0.0075
776.9309	0.0043
777.1041	0.0049
777.2774	0.015
777.4506	0.002
777.6238	-0.0071
777.797	0.0033
777.9702	0.0034
778.1434	0.0094
778.3165	-0.0068
778.4896	-0.0044
778.6627	0.0027
778.8358	0.0015
779.0089	0.0062
779.1819	0.0032
779.3549	0.0132
779.5279	0.0126
779.7009	0.0093
779.8739	0.0078
780.0468	0.0013
780.2197	0.0015
780.3926	0.0034
780.5655	0.003
780.7384	-0.0065
780.9112	0.0006
781.0841	-0.0068
781.2569	0.0032
781.4297	0.0003
781.6024	0.0063
781.7752	0.0024
781.9479	0.0068
782.1206	-0.0018
782.2933	-0.0044
782.466	0.0011
782.6386	0.0023
782.8113	0.0061
782.9839	0.0058
783.1565	0.0137
783.329	0.0122
783.5016	0.0084
783.6741	-0.0021
783.8466	-0.0038
784.0191	0.0098
784.1916	-0.0007
784.3641	0.0045
784.5365	0.006
784.7089	-0.0089
784.8813	-0.0122
785.0537	0.0052
785.2261	-0.0019
785.3984	-0.0034
785.5707	-0.0077
785.743	0.0001
785.9153	-0.0034
786.0876	-0.0049
786.2598	-0.0063
786.432	-0.0128
786.6042	0.0051
786.7764	-0.0073
786.9486	0.007
787.1207	-0.0035
787.2928	0.0063
787.4649	0.0008
787.637	0.0043
787.8091	0.0031
787.9811	-0.0132
788.1532	-0.0057
788.3252	-0.0006
788.4972	-0.0037
788.6691	0.0005
788.8411	0.0005
789.013	-0.0084
789.1849	-0.0008
789.3568	-0.0018
789.5287	-0.002
789.7005	0.0016
789.8723	0.0043
790.0442	0.0185
790.2159	-0.0059
790.3877	-0.0008
790.5595	-0.013
790.7312	-0.006
790.9029	-0.0027
791.0746	-0
791.2463	-0.0184
791.4179	-0.0023
791.5896	-0.009
791.7612	0.0115
791.9328	0.0004
792.1044	-0.0178
792.2759	-0.0085
792.4474	-0.0079
792.619	-0.0054
792.7905	0.0007
792.9619	0.0033
793.1334	0.0003
793.3048	-0.0016
793.4762	-0.0022
793.6476	-0.0005
793.819	-0.013
793.9904	0.0064
794.1617	-0.009
794.333	0.0028
794.5043	0.0027
794.6756	-0.0113
794.8469	-0.001
795.0181	-0.0041
795.1893	-0.0043
795.3605	0.0063
795.5317	-0.0044
795.7029	-0.0065
795.874	0.0039
796.0452	-0.0004
796.2163	0.0129
796.3873	0.0027
796.5584	0.0049
796.7294	0.0142
796.9005	0.013
797.0715	0.0015
797.2425	-0.0124
797.4134	-0.0166
797.5844	0.0067
797.7553	-0.0116
797.9262	0.002
798.0971	-0.0094
798.2679	-0.0091
798.4388	-0.0138
798.6096	-0.002
798.7804	-0.0071
798.9512	-0.0114
799.122	-0.0021
799.2927	0.0063
799.4635	0.0107
799.6342	-0.019
799.8049	-0.0157
799.9755	-0.0081
800.1462	-0.0109
800.3168	0.0141
800.4874	-0.0035
800.658	0.014
800.8286	-0.0037
800.9991	0.0129
801.1696	0.0088
801.3402	0.0069
801.5106	-0.0003
801.6811	0.0007
801.8516	0.0263
802.022	-0.008
802.1924	0.0168
802.3628	0.0038
802.5332	0.0059
802.7035	0.028
802.8739	-0.0103
803.0442	0.0023
803.2145	0.0053
803.3847	-0.0169
803.555	-0.0011
803.7252	0.0006
803.8954	0.0015
804.0656	-0.0062
804.2358	-0.005
804.4059	0.0173
804.5761	-0.0016
804.7462	0.0048
804.9163	-0.014
805.0864	-0.0218
805.2564	-0.0122
805.4264	-0.0016
805.5965	-0.0141
805.7665	-0.014
805.9364	-0.0069
806.1064	0.015
806.2763	0.0029
806.4462	0.0253
806.6161	0.0096
806.786	0.0119
806.9559	-0.0099
807.1257	-0.0142
807.2955	0.0095
807.4653	-0.0026
807.6351	-0.0048
807.8048	-0.0073
807.9746	-0.008
808.1443	-0.0028
808.314	0.0055
808.4837	-0.0036
808.6533	-0.0095
808.8229	-0.0062
808.9926	0.0012
809.1622	0.016
809.3317	0.0002
809.5013	-0.0169
809.6708	0.0073
809.8403	0.0147
810.0098	-0.0135
810.1793	0.0035
810.3488	-0.0151
810.5182	-0.0079
810.6876	-0.0043
810.857	-0.0148
811.0264	0.0217
811.1958	0.0143
811.3651	0.0105
811.5344	-0.0061
811.7037	-0.0003
811.873	-0.0028
812.0422	-0.0006
812.2115	0.0195
812.3807	-0.0196
812.5499	-0.0099
812.7191	-0.0059
812.8882	-0.0124
813.0574	-0.0053
813.2265	-0.0006
813.3956	-0.006
813.5646	0.001
813.7337	-0.0333
813.9027	0.0059
814.0718	0.0348
814.2407	0.0158
814.4097	-0.0135
814.5787	-0.0044
814.7476	-0.0029
814.9165	0.0101
815.0854	-0.018
815.2543	-0.0095
815.4232	-0.0037
815.592	0.0057
815.7608	0.0128
815.9296	0.0112
816.0984	0.0124
816.2671	-0.0057
816.4359	-0.0204
816.6046	-0.0208
816.7733	-0.0103
816.942	-0.0298
817.1106	0.0048
817.2793	-0.0004
817.4479	0.0033
817.6165	-0.0043
817.785	0.0193
817.9536	-0.0024
818.1221	0.0022
818.2906	-0.0099
818.4591	-0.0111
818.6276	-0.0241
818.7961	-0.0108
818.9645	0.0213
819.1329	0.0046
819.3013	0.0279
819.4697	0.0161
819.638	0.0027
819.8064	-0.0028
819.9747	0.0162
820.143	0.0024
820.3113	-0.0214
820.4795	0.0196
820.6477	0.0128
820.816	0.0163
820.9842	0.0209
821.1523	0.0046
821.3205	-0.0182
821.4886	0.021
821.6567	0.0226
821.8248	-0.012
821.9929	0.0369
822.1609	0.0033
822.329	0.0086
822.497	0.0252
822.665	-0.0052
822.833	-0.002
823.0009	0.0048
823.1688	-0.0094
823.3367	0.0235
823.5046	0.0147
823.6725	0.0359
823.8404	-0.0021
824.0082	0.0054
824.176	0.0131
824.3438	0.0287
824.5116	0.0016
824.6793	0.0559
824.847	-0.0091
825.0147	-0.0102
825.1824	0.0149
825.3501	0.0357
825.5177	-0.0137
825.6854	-0.0035
825.853	0.0028
826.0206	-0.0303
826.1881	-0.0014
826.3557	-0.0416
826.5232	0.0171
826.6907	-0.0318
826.8582	-0.0187
827.0257	-0.0042
827.1931	-0.0251
827.3605	-0.0225
827.528	0.0031
827.6953	-0.0306
827.8627	-0.0224
828.03	0.0242
828.1974	-0.0076
828.3647	-0.0548
828.532	-0.007
828.6992	-0.0031
828.8665	-0.0049
829.0337	-0.0047
829.2009	0.0261
829.3681	-0.0011
829.5352	0.022
829.7024	-0.0302
829.8695	-0.033
830.0366	0.038
830.2037	0.0144
830.3707	-0.0089
830.5378	-0.0001
830.7048	0.0142
830.8718	0.0279
831.0388	-0.0064
831.2057	0.0139
831.3727	0.0261
831.5396	-0.0125
831.7065	0.0433
831.8734	0.0266
832.0402	0.0046
832.2071	0.0272
832.3739	-0.0235
832.5407	-0.009
832.7075	0.021
832.8742	-0.0338
833.041	-0.0197
833.2077	-0.0104
833.3744	0.0235
833.541	0.0029
833.7077	-0.0119
833.8743	-0.0256
834.0409	0.0054
834.2075	-0.0133
834.3741	-0.031
834.5407	0.0411
834.7072	0.0043
834.8737	-0.0221
835.0402	0.0226
835.2067	0.0017
835.3731	0.0328
835.5395	0.0242
835.706	-0.0002
835.8723	0.0034
836.0387	0.0291
836.2051	-0.0291
836.3714	0.0194
836.5377	-0.0104
836.704	-0.0298
836.8703	0.0236
837.0365	-0.0074
837.2027	-0.0427
837.3689	0.025
837.5351	-0.0257
837.7013	-0.0119
837.8674	-0.0106
838.0335	0.0015
838.1997	-0.0262
838.3657	-0.0357
838.5318	-0.0229
838.6978	0.0477
838.8639	0.0211
839.0299	0.0032
839.1958	0.0289
839.3618	0.0006
839.5277	0.0093
839.6937	0.0056
839.8596	-0.0223
840.0254	0.0227
840.1913	0.0332
840.3571	0.0363
840.523	-0.0597
840.6888	-0.0248
840.8545	0.0154
841.0203	0.0176
841.186	0.0006
841.3517	0.0381
841.5174	-0.0089
841.6831	0.0122
841.8488	0.0135
842.0144	-0.0146
842.18	0.0105
842.3456	-0.0002
842.5112	0.0038
842.6767	0.0302
842.8422	-0.042
843.0077	-0.0348
843.1732	-0.0476
843.3387	-0.0014
843.5042	-0.0339
843.6696	0.0322
843.835	0.0573
844.0004	0.0268
844.1657	0.0277
844.3311	-0.0375
844.4964	-0.0521
844.6617	-0.0113
844.827	0.031
844.9923	0.0101
845.1575	0.0776
845.3227	-0.0336
845.4879	-0.0157
845.6531	-0.0263
845.8183	-0.1
845.9834	0.0188
846.1485	0.0384
846.3136	-0.0573
846.4787	-0.0544
846.6438	0.1089
846.8088	-0.0464
846.9738	-0.1298
847.1388	-0.0394
847.3038	-0.0167
847.4687	-0.1384
847.6337	0.0744
847.7986	-0.0223
847.9635	-0.0529
848.1284	0.0381
848.2932	0.0573
848.458	-0.0038
848.6228	0.0358
848.7876	0.0933
848.9524	-0.0789
849.1172	-0.0546
849.2819	0.0562
849.4466	-0.1021
849.6113	-0.0704
849.7759	-0.0601
849.9406	0.0224
850.1052	0.0399
850.2698	0.0052
850.4344	0.0135
850.599	-0.0594
850.7635	0.0903
850.928	-0.0047
851.0925	-0.0528
851.257	-0.004
851.4215	0.0149
851.5859	0.0785
851.7503	0.0551
851.9147	0.0445
852.0791	-0.0828
852.2434	-0.0437
852.4078	0.0542
852.5721	0.0437
852.7364	-0.0853
852.9007	-0.1613
853.0649	0.0054
853.2291	-0.0056
853.3934	0.038
853.5575	0.0307
853.7217	-0.0196
853.8859	0.0464
854.05	-0.0734
854.2141	-0.0234
854.3782	0.0255
854.5423	0.0401
854.7063	0.1409
854.8703	-0.0326
855.0343	-0.007
855.1983	-0.0786
855.3623	0.1585
855.5262	0.1483
855.6901	-0.0865
855.854	0.0615
856.0179	0.0245
856.1818	0.055
856.3456	-0.0271
856.5094	-0.0544
856.6732	-0.0923
856.837	-0.1318
857.0008	0.066
857.1645	0.0274
857.3282	0.0387
857.4919	0.1366
857.6556	0.11
857.8192	0.137
857.9828	0.0938
858.1465	-0.1076
858.31	-0.1749
858.4736	-0.0679
858.6372	-0.3515
858.8007	-0.075
858.9642	0.2674
859.1277	0.2227
859.2911	0.0323
859.4546	-0.0229
859.618	-0.3642
859.7814	0.1746
859.9448	0.0077
860.1081	-0.0604
860.2715	0.1549
860.4348	0.3041
860.5981	0.0035
860.7614	0.2223
860.9246	-0.0096
861.0879	0.0063
861.2511	0.0411
861.4143	1.9948
861.5774	0.2553
861.7406	-0.0225
861.9037	0.003
862.0668	0.0783
862.2299	-0.231
862.393	-0.4574
862.556	-0.1331
862.7191	-0.211
862.8821	-0.4054
863.0451	0.3255
863.208	0.0567
863.371	0.0987
863.5339	0.0986
863.6968	0.3722
863.8597	0.4877
864.0225	0.1053
864.1854	0.2142
864.3482	-0
864.511	0.1365
864.6737	0.1731
864.8365	0.1916
864.9992	-0.1704
865.1619	-0.0535
865.3246	0.026
865.4873	0.3387
865.65	-0.1348
865.8126	0.1572
865.9752	0.4209
866.1378	0.1047
866.3004	-0.1338
866.4629	0.1571
866.6254	0.4499
866.7879	-0.1191
866.9504	-0
867.1129	-0
867.2753	0.5283
867.4377	-0.0496
867.6001	-0.2232
867.7625	-0.1225
867.9249	-0.4187
868.0872	0.2624
868.2495	0.1307
868.4118	-0
868.5741	0.215
868.7363	0.1767
868.8986	-0.2093
869.0608	-0.1743
869.223	0.1521
869.3851	-0.18
869.5473	-0
869.7094	0.4522
869.8715	-0.1301
870.0336	-1.0038
870.1957	-0.542
870.3577	-0.5552
870.5197	-0.2311
870.6817	-0
870.8437	-0.1746
871.0057	0.3537
871.1676	-0
871.3295	-0.0507
871.4914	-0
871.6533	-0.351
871.8151	-0.4086
871.977	-0
872.1388	1.3033
872.3006	-0
872.4623	-0.0696
872.6241	0.024
872.7858	0.3485
872.9475	-0.4108
873.1092	-0.102
873.2709	-0.2667
873.4325	0.1243
873.5941	-0.2403
873.7557	-0.6365
873.9173	-0.3257
874.0789	-0
874.2404	-0.4754
874.4019	0.1717
874.5634	-0.2887
874.7249	-0.0289
874.8863	-0.083
875.0478	0.4653
875.2092	-0.1956
875.3706	0.2071
875.5319	-1.0751
875.6933	-0.0821
875.8546	-0.3551
876.0159	-0.1106
876.1772	-0
876.3385	-0
876.4997	0.3987
876.6609	-0.4976
876.8221	-0.5945
876.9833	0.1636
877.1445	-0
877.3056	0.1793
877.4667	-0
877.6278	-0
877.7889	-0.7404
877.9499	-0.2089
878.111	-0.5968
878.272	-0
878.433	-0
878.5939	-0
878.7549	-0.2894
878.9158	-0
879.0767	-0
879.2376	-0
879.3984	0.9424
879.5593	-0
879.7201	0.2077
879.8809	-0.0504
880.0417	0.3736
880.2024	0.258
880.3632	-0
880.5239	0.2907
880.6846	0.1641
880.8452	-2.2753
881.0059	-0.8261
881.1665	0.0688
881.3271	-0.2067
881.4877	-0.0106
881.6483	0.0619
881.8088	-0.27
881.9693	-0
882.1298	-0
882.2903	-0
