Data from MonoPyChalIsomerACN10uM410nmA_Absorbance_14-53-31-973.txt Node
Date: Fri Jul 05 14:53:31 BST 2024
User: LASERRRRR
Spectrometer: FLMT03099
Trigger mode: 0
Integration Time (sec): 1.000000E-1
Scans to average: 1
Electric dark correction enabled: true
Nonlinearity correction enabled: false
Boxcar width: 0
XAxis mode: Wavelengths
Number of Pixels in Spectrum: 3648
>>>>>Begin Spectral Data<<<<<
179.3399	-0.3288
179.5586	-0.3288
179.7771	-0.3288
179.9957	0.093
180.2143	-0
180.4329	-0.178
180.6514	-0
180.8699	-0
181.0885	-0.2584
181.307	-0.0052
181.5255	-0
181.744	-0.0156
181.9625	-0
182.181	-1.2314
182.3994	-0
182.6179	0.1174
182.8363	-0.1956
183.0547	-0.2748
183.2732	0.0477
183.4916	0.0681
183.71	0.2832
183.9284	0.0821
184.1467	0.1412
184.3651	-0.0812
184.5835	-0.0252
184.8018	0.1923
185.0201	0.0934
185.2385	-0.0561
185.4568	0.2249
185.6751	-0.0921
185.8934	0.3535
186.1117	-0.0618
186.3299	-0.082
186.5482	0.2173
186.7664	-0.1227
186.9847	-0.0931
187.2029	0.0008
187.4211	0.1123
187.6393	0.3594
187.8575	0.0136
188.0757	0.1395
188.2939	0.165
188.512	0.0624
188.7302	0.0134
188.9483	0.0418
189.1665	0.1039
189.3846	-0.4617
189.6027	0.0801
189.8208	0.163
190.0389	0.3889
190.257	0.1238
190.475	0.1003
190.6931	0.3879
190.9111	0.2906
191.1292	0.5467
191.3472	0.4138
191.5652	0.3724
191.7832	0.3963
192.0012	0.574
192.2192	0.483
192.4371	0.6433
192.6551	0.3143
192.873	0.3665
193.091	0.5122
193.3089	0.5761
193.5268	0.786
193.7447	0.6446
193.9626	0.4169
194.1805	0.5513
194.3984	0.9095
194.6162	0.4379
194.8341	0.4912
195.0519	0.8844
195.2697	0.7193
195.4875	0.8308
195.7054	0.5094
195.9231	0.4943
196.1409	0.4776
196.3587	0.6269
196.5765	0.5449
196.7942	0.5321
197.012	0.4952
197.2297	0.5515
197.4474	0.7016
197.6651	0.7059
197.8828	0.6517
198.1005	0.7566
198.3182	0.7581
198.5358	0.8749
198.7535	0.5235
198.9711	0.5356
199.1888	0.6386
199.4064	0.7318
199.624	0.6115
199.8416	0.6771
200.0592	0.6817
200.2767	0.6913
200.4943	0.5884
200.7119	0.7489
200.9294	0.6408
201.1469	0.5788
201.3645	0.6274
201.582	0.5815
201.7995	0.7265
202.017	0.603
202.2344	0.6164
202.4519	0.5967
202.6694	0.718
202.8868	0.5647
203.1042	0.8258
203.3217	0.6371
203.5391	0.6192
203.7565	0.6715
203.9739	0.7163
204.1913	0.7335
204.4086	0.6923
204.626	0.7444
204.8433	0.7552
205.0607	0.6143
205.278	0.6414
205.4953	0.6199
205.7126	0.7061
205.9299	0.7573
206.1472	0.6273
206.3644	0.5757
206.5817	0.7035
206.7989	0.8233
207.0162	0.6263
207.2334	0.6155
207.4506	0.663
207.6678	0.7274
207.885	0.6555
208.1022	0.7149
208.3194	0.6832
208.5365	0.6419
208.7537	0.6494
208.9708	0.5791
209.1879	0.6616
209.405	0.7068
209.6222	0.7634
209.8392	0.5891
210.0563	0.6189
210.2734	0.5688
210.4905	0.5957
210.7075	0.6477
210.9245	0.5674
211.1416	0.6877
211.3586	0.5728
211.5756	0.5838
211.7926	0.569
212.0096	0.6043
212.2265	0.5893
212.4435	0.5723
212.6604	0.6159
212.8774	0.5787
213.0943	0.6498
213.3112	0.5193
213.5281	0.5584
213.745	0.4682
213.9619	0.4952
214.1788	0.5235
214.3956	0.4337
214.6125	0.4663
214.8293	0.4129
215.0461	0.4919
215.2629	0.4775
215.4798	0.4876
215.6965	0.42
215.9133	0.4457
216.1301	0.3867
216.3469	0.4393
216.5636	0.3908
216.7803	0.3788
216.9971	0.3959
217.2138	0.3893
217.4305	0.3528
217.6472	0.3414
217.8639	0.3583
218.0805	0.3437
218.2972	0.2827
218.5138	0.3002
218.7305	0.3067
218.9471	0.2936
219.1637	0.2852
219.3803	0.2762
219.5969	0.2679
219.8135	0.2322
220.0301	0.2827
220.2466	0.2633
220.4632	0.2358
220.6797	0.2501
220.8962	0.2404
221.1127	0.2569
221.3292	0.2523
221.5457	0.2099
221.7622	0.2387
221.9787	0.2419
222.1951	0.2307
222.4116	0.2427
222.628	0.2469
222.8444	0.2475
223.0608	0.2423
223.2772	0.2266
223.4936	0.2561
223.71	0.2364
223.9264	0.2919
224.1427	0.232
224.3591	0.2266
224.5754	0.2428
224.7917	0.2548
225.008	0.273
225.2243	0.2366
225.4406	0.2862
225.6569	0.2416
225.8732	0.2539
226.0894	0.2566
226.3057	0.2532
226.5219	0.2837
226.7381	0.2519
226.9543	0.2752
227.1705	0.3015
227.3867	0.2696
227.6029	0.2838
227.8191	0.294
228.0352	0.2955
228.2513	0.2954
228.4675	0.2969
228.6836	0.296
228.8997	0.2878
229.1158	0.3051
229.3319	0.3015
229.548	0.3064
229.764	0.3144
229.9801	0.3173
230.1961	0.3082
230.4121	0.313
230.6282	0.3118
230.8442	0.3208
231.0602	0.3476
231.2761	0.3589
231.4921	0.3558
231.7081	0.3485
231.924	0.3375
232.14	0.3543
232.3559	0.3339
232.5718	0.3555
232.7877	0.3465
233.0036	0.3472
233.2195	0.3532
233.4353	0.349
233.6512	0.3534
233.867	0.3408
234.0829	0.3578
234.2987	0.3797
234.5145	0.3545
234.7303	0.3603
234.9461	0.3733
235.1619	0.3767
235.3776	0.3558
235.5934	0.3753
235.8091	0.3632
236.0249	0.3718
236.2406	0.3654
236.4563	0.3809
236.672	0.377
236.8877	0.3998
237.1034	0.3894
237.319	0.3759
237.5347	0.3891
237.7503	0.3803
237.966	0.4014
238.1816	0.3984
238.3972	0.3757
238.6128	0.3745
238.8284	0.4119
239.0439	0.4127
239.2595	0.4048
239.475	0.4061
239.6906	0.3967
239.9061	0.4063
240.1216	0.3797
240.3371	0.4135
240.5526	0.3859
240.7681	0.4058
240.9836	0.3876
241.199	0.4172
241.4145	0.3862
241.6299	0.3881
241.8453	0.3822
242.0607	0.3943
242.2761	0.3729
242.4915	0.3871
242.7069	0.3703
242.9223	0.3665
243.1376	0.3663
243.353	0.3698
243.5683	0.3423
243.7836	0.3533
243.9989	0.3531
244.2142	0.3352
244.4295	0.3204
244.6448	0.3238
244.86	0.3031
245.0753	0.3189
245.2905	0.2985
245.5057	0.2849
245.721	0.2839
245.9362	0.2835
246.1514	0.2859
246.3665	0.2728
246.5817	0.269
246.7969	0.2686
247.012	0.2669
247.2271	0.2598
247.4423	0.25
247.6574	0.2514
247.8725	0.2438
248.0876	0.2313
248.3026	0.2538
248.5177	0.2392
248.7328	0.2402
248.9478	0.2293
249.1628	0.2307
249.3779	0.2289
249.5929	0.2166
249.8079	0.2327
250.0228	0.2074
250.2378	0.2147
250.4528	0.2216
250.6677	0.1828
250.8827	0.2089
251.0976	0.2088
251.3125	0.1913
251.5274	0.1769
251.7423	0.1915
251.9572	0.185
252.172	0.1773
252.3869	0.1913
252.6017	0.1764
252.8166	0.1664
253.0314	0.1718
253.2462	0.1736
253.461	0.1883
253.6758	0.1701
253.8906	0.1859
254.1053	0.1738
254.3201	0.1689
254.5348	0.1843
254.7496	0.1726
254.9643	0.1684
255.179	0.1712
255.3937	0.1728
255.6083	0.1872
255.823	0.158
256.0377	0.1704
256.2523	0.1709
256.467	0.1492
256.6816	0.1752
256.8962	0.1707
257.1108	0.1533
257.3254	0.1675
257.54	0.1596
257.7545	0.1644
257.9691	0.1702
258.1836	0.1523
258.3981	0.1654
258.6127	0.1802
258.8272	0.174
259.0417	0.1681
259.2561	0.1721
259.4706	0.1673
259.6851	0.1652
259.8995	0.1713
260.114	0.1536
260.3284	0.1652
260.5428	0.1656
260.7572	0.1674
260.9716	0.1695
261.186	0.159
261.4003	0.1574
261.6147	0.1537
261.829	0.1644
262.0433	0.154
262.2577	0.1618
262.472	0.1687
262.6863	0.1663
262.9005	0.1636
263.1148	0.1653
263.3291	0.1536
263.5433	0.1595
263.7576	0.1667
263.9718	0.1612
264.186	0.1655
264.4002	0.1537
264.6144	0.1584
264.8286	0.1687
265.0427	0.1608
265.2569	0.1577
265.471	0.157
265.6851	0.1644
265.8993	0.1712
266.1134	0.1576
266.3275	0.166
266.5415	0.1667
266.7556	0.1745
266.9697	0.161
267.1837	0.1648
267.3978	0.1787
267.6118	0.1716
267.8258	0.1768
268.0398	0.1566
268.2538	0.1728
268.4677	0.1713
268.6817	0.1548
268.8957	0.1685
269.1096	0.168
269.3235	0.1758
269.5374	0.1636
269.7514	0.1584
269.9652	0.1647
270.1791	0.1623
270.393	0.1649
270.6068	0.1669
270.8207	0.1704
271.0345	0.1533
271.2483	0.1708
271.4622	0.1651
271.676	0.1701
271.8897	0.1487
272.1035	0.1585
272.3173	0.156
272.531	0.1709
272.7448	0.1608
272.9585	0.1516
273.1722	0.1611
273.3859	0.1675
273.5996	0.1604
273.8133	0.1698
274.0269	0.1549
274.2406	0.166
274.4542	0.1551
274.6679	0.1481
274.8815	0.1581
275.0951	0.1565
275.3087	0.182
275.5223	0.1723
275.7358	0.1654
275.9494	0.1663
276.1629	0.1653
276.3765	0.1603
276.59	0.1619
276.8035	0.1625
277.017	0.1712
277.2305	0.1547
277.444	0.1689
277.6574	0.1626
277.8709	0.1725
278.0843	0.1524
278.2978	0.1563
278.5112	0.1659
278.7246	0.1667
278.938	0.1672
279.1513	0.1747
279.3647	0.1809
279.5781	0.1711
279.7914	0.1631
280.0047	0.184
280.2181	0.172
280.4314	0.1744
280.6447	0.1703
280.8579	0.1732
281.0712	0.165
281.2845	0.1781
281.4977	0.1684
281.711	0.157
281.9242	0.174
282.1374	0.1788
282.3506	0.1654
282.5638	0.1671
282.7769	0.1626
282.9901	0.168
283.2033	0.1856
283.4164	0.1767
283.6295	0.1582
283.8426	0.1592
284.0557	0.1823
284.2688	0.1763
284.4819	0.1621
284.695	0.1725
284.908	0.1732
285.1211	0.1558
285.3341	0.1667
285.5471	0.1816
285.7601	0.1559
285.9731	0.1623
286.1861	0.1561
286.3991	0.1663
286.612	0.1628
286.825	0.1701
287.0379	0.1702
287.2508	0.1534
287.4637	0.1664
287.6766	0.1408
287.8895	0.1687
288.1024	0.1776
288.3152	0.1665
288.5281	0.1465
288.7409	0.1552
288.9538	0.1533
289.1666	0.1455
289.3794	0.155
289.5922	0.1409
289.8049	0.1501
290.0177	0.1562
290.2304	0.154
290.4432	0.1505
290.6559	0.1512
290.8686	0.1643
291.0813	0.1474
291.294	0.1616
291.5067	0.1627
291.7194	0.1491
291.932	0.1651
292.1447	0.1473
292.3573	0.1473
292.5699	0.1541
292.7825	0.1502
292.9951	0.1458
293.2077	0.1415
293.4203	0.1434
293.6328	0.1398
293.8454	0.1571
294.0579	0.1426
294.2704	0.1473
294.4829	0.1452
294.6954	0.1593
294.9079	0.1498
295.1204	0.1492
295.3328	0.1439
295.5453	0.1384
295.7577	0.1415
295.9701	0.143
296.1825	0.1454
296.3949	0.1386
296.6073	0.1426
296.8197	0.1348
297.0321	0.1527
297.2444	0.1331
297.4567	0.1447
297.6691	0.1455
297.8814	0.1394
298.0937	0.1401
298.306	0.1476
298.5182	0.1452
298.7305	0.1495
298.9428	0.1413
299.155	0.1427
299.3672	0.1305
299.5794	0.1444
299.7916	0.1396
300.0038	0.1461
300.216	0.1477
300.4282	0.1501
300.6403	0.1281
300.8525	0.144
301.0646	0.146
301.2767	0.1383
301.4888	0.1445
301.7009	0.1403
301.913	0.1295
302.125	0.1481
302.3371	0.1344
302.5491	0.1436
302.7612	0.143
302.9732	0.1428
303.1852	0.1423
303.3972	0.1285
303.6092	0.1312
303.8211	0.1342
304.0331	0.1388
304.245	0.1341
304.457	0.1339
304.6689	0.1303
304.8808	0.1479
305.0927	0.1362
305.3046	0.1274
305.5164	0.1413
305.7283	0.1379
305.9401	0.1323
306.152	0.1425
306.3638	0.1442
306.5756	0.1302
306.7874	0.1326
306.9992	0.1414
307.2109	0.1327
307.4227	0.1156
307.6344	0.1307
307.8462	0.1247
308.0579	0.1241
308.2696	0.1209
308.4813	0.1195
308.693	0.1308
308.9046	0.1292
309.1163	0.1199
309.328	0.1179
309.5396	0.1218
309.7512	0.1171
309.9628	0.1183
310.1744	0.1212
310.386	0.117
310.5976	0.1119
310.8091	0.1175
311.0207	0.1134
311.2322	0.1296
311.4437	0.1143
311.6552	0.1176
311.8667	0.1246
312.0782	0.1064
312.2897	0.1092
312.5012	0.1112
312.7126	0.1056
312.924	0.1049
313.1355	0.1129
313.3469	0.1011
313.5583	0.1114
313.7696	0.1206
313.981	0.1124
314.1924	0.1106
314.4037	0.1022
314.6151	0.1091
314.8264	0.106
315.0377	0.1061
315.249	0.1181
315.4603	0.118
315.6716	0.1091
315.8828	0.1015
316.0941	0.115
316.3053	0.1175
316.5165	0.1022
316.7277	0.108
316.9389	0.1182
317.1501	0.1117
317.3613	0.1128
317.5724	0.1057
317.7836	0.1138
317.9947	0.1105
318.2058	0.112
318.417	0.0944
318.6281	0.1022
318.8391	0.1019
319.0502	0.1092
319.2613	0.1095
319.4723	0.1094
319.6834	0.1059
319.8944	0.1111
320.1054	0.1209
320.3164	0.1161
320.5274	0.1019
320.7383	0.1109
320.9493	0.1128
321.1602	0.121
321.3712	0.0991
321.5821	0.108
321.793	0.112
322.0039	0.1076
322.2148	0.1032
322.4257	0.1124
322.6365	0.126
322.8474	0.1243
323.0582	0.1208
323.269	0.1163
323.4798	0.1241
323.6906	0.1137
323.9014	0.1165
324.1122	0.1286
324.3229	0.1107
324.5337	0.115
324.7444	0.1197
324.9551	0.1241
325.1658	0.1262
325.3765	0.1211
325.5872	0.1235
325.7979	0.1238
326.0085	0.1123
326.2192	0.1225
326.4298	0.1189
326.6404	0.1184
326.851	0.1255
327.0616	0.1134
327.2722	0.1145
327.4828	0.1184
327.6933	0.1212
327.9039	0.1279
328.1144	0.1237
328.3249	0.1356
328.5354	0.1228
328.7459	0.1085
328.9564	0.1214
329.1669	0.1244
329.3773	0.1185
329.5878	0.116
329.7982	0.1184
330.0086	0.1135
330.219	0.1166
330.4294	0.1254
330.6398	0.1212
330.8502	0.1213
331.0605	0.1167
331.2708	0.1195
331.4812	0.131
331.6915	0.1203
331.9018	0.125
332.1121	0.1234
332.3224	0.119
332.5326	0.1192
332.7429	0.1232
332.9531	0.1356
333.1633	0.1168
333.3735	0.1263
333.5837	0.1148
333.7939	0.129
334.0041	0.1346
334.2143	0.1237
334.4244	0.1181
334.6346	0.1166
334.8447	0.132
335.0548	0.1076
335.2649	0.1203
335.475	0.1182
335.685	0.1135
335.8951	0.135
336.1051	0.1237
336.3152	0.1322
336.5252	0.1199
336.7352	0.1331
336.9452	0.1285
337.1552	0.1293
337.3652	0.1164
337.5751	0.1324
337.7851	0.1258
337.995	0.1151
338.2049	0.1355
338.4148	0.1189
338.6247	0.122
338.8346	0.1237
339.0445	0.1268
339.2543	0.1252
339.4642	0.1335
339.674	0.1229
339.8838	0.1306
340.0936	0.1305
340.3034	0.1424
340.5132	0.1336
340.7229	0.1355
340.9327	0.1273
341.1424	0.121
341.3522	0.1388
341.5619	0.1316
341.7716	0.1413
341.9813	0.1393
342.1909	0.1174
342.4006	0.1376
342.6102	0.1429
342.8199	0.146
343.0295	0.1412
343.2391	0.133
343.4487	0.1401
343.6583	0.1342
343.8679	0.1479
344.0774	0.1445
344.287	0.157
344.4965	0.1402
344.706	0.1442
344.9155	0.14
345.125	0.1347
345.3345	0.1368
345.544	0.1424
345.7534	0.1372
345.9629	0.1426
346.1723	0.1441
346.3817	0.1437
346.5911	0.1363
346.8005	0.1398
347.0099	0.1392
347.2193	0.1494
347.4286	0.1409
347.638	0.1408
347.8473	0.1429
348.0566	0.1393
348.2659	0.1576
348.4752	0.1526
348.6845	0.1355
348.8937	0.1446
349.103	0.1611
349.3122	0.1308
349.5214	0.1415
349.7306	0.1514
349.9398	0.1412
350.149	0.1457
350.3582	0.1391
350.5674	0.1581
350.7765	0.144
350.9856	0.147
351.1948	0.1435
351.4039	0.1297
351.613	0.1354
351.822	0.1489
352.0311	0.1645
352.2402	0.1514
352.4492	0.1565
352.6582	0.1568
352.8672	0.1388
353.0762	0.1523
353.2852	0.149
353.4942	0.1381
353.7032	0.155
353.9121	0.1614
354.1211	0.1594
354.33	0.1496
354.5389	0.1518
354.7478	0.1375
354.9567	0.1603
355.1655	0.1438
355.3744	0.1609
355.5833	0.1479
355.7921	0.1792
356.0009	0.148
356.2097	0.1579
356.4185	0.1671
356.6273	0.1691
356.8361	0.1645
357.0448	0.1578
357.2536	0.1545
357.4623	0.1448
357.671	0.1625
357.8797	0.1655
358.0884	0.1668
358.2971	0.1553
358.5057	0.1684
358.7144	0.1508
358.923	0.1668
359.1316	0.1705
359.3402	0.1691
359.5488	0.1712
359.7574	0.1605
359.966	0.1776
360.1746	0.1739
360.3831	0.1737
360.5916	0.1655
360.8002	0.1631
361.0087	0.1745
361.2172	0.1586
361.4256	0.1733
361.6341	0.1753
361.8426	0.1636
362.051	0.1698
362.2594	0.1607
362.4678	0.1601
362.6762	0.1981
362.8846	0.1773
363.093	0.1861
363.3014	0.1749
363.5097	0.1683
363.718	0.1687
363.9264	0.1755
364.1347	0.177
364.343	0.1705
364.5513	0.1959
364.7595	0.1749
364.9678	0.1834
365.176	0.177
365.3842	0.1805
365.5925	0.1793
365.8007	0.1828
366.0089	0.1716
366.217	0.1685
366.4252	0.1894
366.6333	0.1895
366.8415	0.193
367.0496	0.1869
367.2577	0.1876
367.4658	0.2022
367.6739	0.1793
367.882	0.1896
368.09	0.1733
368.2981	0.1904
368.5061	0.1724
368.7141	0.1797
368.9221	0.2003
369.1301	0.2045
369.3381	0.1821
369.5461	0.1927
369.754	0.184
369.962	0.1954
370.1699	0.1904
370.3778	0.1799
370.5857	0.1861
370.7936	0.1797
371.0015	0.1958
371.2093	0.2022
371.4172	0.1947
371.625	0.1802
371.8328	0.1888
372.0406	0.2013
372.2484	0.1871
372.4562	0.204
372.664	0.1911
372.8717	0.1958
373.0795	0.1757
373.2872	0.2004
373.4949	0.1869
373.7026	0.189
373.9103	0.1997
374.118	0.198
374.3256	0.1972
374.5333	0.1898
374.7409	0.1885
374.9485	0.2116
375.1561	0.1873
375.3637	0.2147
375.5713	0.1988
375.7789	0.1975
375.9864	0.1893
376.194	0.193
376.4015	0.2101
376.609	0.2021
376.8165	0.2106
377.024	0.1888
377.2315	0.182
377.4389	0.2197
377.6464	0.2069
377.8538	0.2104
378.0612	0.2076
378.2686	0.1875
378.476	0.216
378.6834	0.2022
378.8908	0.2072
379.0981	0.2053
379.3055	0.2071
379.5128	0.1949
379.7201	0.1974
379.9274	0.1865
380.1347	0.2033
380.342	0.2219
380.5492	0.1999
380.7565	0.193
380.9637	0.1961
381.1709	0.2059
381.3781	0.1876
381.5853	0.1994
381.7925	0.1958
381.9997	0.2003
382.2068	0.2215
382.4139	0.203
382.6211	0.1829
382.8282	0.2126
383.0353	0.2096
383.2424	0.1948
383.4494	0.2109
383.6565	0.1981
383.8635	0.1998
384.0706	0.2078
384.2776	0.207
384.4846	0.1893
384.6916	0.1946
384.8986	0.1939
385.1055	0.2179
385.3125	0.1958
385.5194	0.1818
385.7263	0.1922
385.9333	0.1864
386.1402	0.2036
386.347	0.1907
386.5539	0.1771
386.7608	0.2127
386.9676	0.1917
387.1744	0.1876
387.3813	0.1799
387.5881	0.1929
387.7948	0.1989
388.0016	0.1999
388.2084	0.1939
388.4151	0.1899
388.6219	0.2122
388.8286	0.1888
389.0353	0.2049
389.242	0.1952
389.4487	0.1955
389.6553	0.1727
389.862	0.1619
390.0686	0.1899
390.2753	0.1937
390.4819	0.188
390.6885	0.1922
390.8951	0.1789
391.1016	0.1848
391.3082	0.1822
391.5147	0.1828
391.7213	0.1781
391.9278	0.167
392.1343	0.1953
392.3408	0.1699
392.5473	0.1915
392.7537	0.1845
392.9602	0.1764
393.1666	0.1898
393.373	0.1815
393.5794	0.1854
393.7858	0.1792
393.9922	0.1693
394.1986	0.1683
394.4049	0.1757
394.6113	0.1709
394.8176	0.1657
395.0239	0.1669
395.2302	0.1628
395.4365	0.1555
395.6428	0.177
395.8491	0.1632
396.0553	0.1673
396.2615	0.1622
396.4678	0.1612
396.674	0.154
396.8802	0.175
397.0863	0.1697
397.2925	0.1457
397.4987	0.163
397.7048	0.1398
397.9109	0.1624
398.117	0.1623
398.3231	0.151
398.5292	0.1581
398.7353	0.1571
398.9413	0.1745
399.1474	0.1461
399.3534	0.1499
399.5594	0.1448
399.7654	0.1656
399.9714	0.1637
400.1774	0.1497
400.3833	0.1533
400.5893	0.1511
400.7952	0.1571
401.0011	0.1668
401.207	0.1742
401.4129	0.154
401.6188	0.1516
401.8247	0.1519
402.0305	0.1487
402.2364	0.148
402.4422	0.1641
402.648	0.1622
402.8538	0.187
403.0596	0.137
403.2654	0.1599
403.4711	0.1375
403.6768	0.1765
403.8826	0.1827
404.0883	0.1609
404.294	0.1532
404.4997	0.146
404.7054	0.1635
404.911	0.1412
405.1167	0.1577
405.3223	0.1598
405.5279	0.1606
405.7335	0.1608
405.9391	0.1687
406.1447	0.1531
406.3502	0.1637
406.5558	0.1397
406.7613	0.1581
406.9668	0.1576
407.1724	0.1569
407.3778	0.1493
407.5833	0.1546
407.7888	0.1473
407.9942	0.1636
408.1997	0.1501
408.4051	0.1364
408.6105	0.1468
408.8159	0.1366
409.0213	0.1336
409.2267	0.1536
409.432	0.1495
409.6374	0.1731
409.8427	0.1367
410.048	0.1655
410.2533	0.1431
410.4586	0.1642
410.6639	0.1334
410.8691	0.1497
411.0744	0.1408
411.2796	0.1314
411.4848	0.1608
411.69	0.1343
411.8952	0.1741
412.1004	0.1335
412.3056	0.152
412.5107	0.1497
412.7158	0.1613
412.921	0.1577
413.1261	0.1653
413.3312	0.1323
413.5362	0.1453
413.7413	0.1327
413.9464	0.1482
414.1514	0.1362
414.3564	0.1486
414.5614	0.1269
414.7664	0.1437
414.9714	0.1584
415.1764	0.1458
415.3813	0.1578
415.5863	0.1313
415.7912	0.1459
415.9961	0.1498
416.201	0.1412
416.4059	0.1565
416.6108	0.1316
416.8156	0.1518
417.0205	0.1427
417.2253	0.1359
417.4301	0.1536
417.6349	0.1353
417.8397	0.1413
418.0445	0.1509
418.2492	0.1445
418.454	0.1417
418.6587	0.1308
418.8634	0.143
419.0681	0.1271
419.2728	0.1434
419.4775	0.1373
419.6822	0.1383
419.8868	0.125
420.0915	0.1472
420.2961	0.1188
420.5007	0.1208
420.7053	0.1439
420.9099	0.1205
421.1144	0.133
421.319	0.1261
421.5235	0.1382
421.728	0.128
421.9325	0.1289
422.137	0.1523
422.3415	0.1408
422.546	0.1454
422.7504	0.1262
422.9549	0.1387
423.1593	0.1443
423.3637	0.1496
423.5681	0.1235
423.7725	0.1139
423.9769	0.1116
424.1812	0.1256
424.3856	0.1114
424.5899	0.1358
424.7942	0.1258
424.9985	0.1242
425.2028	0.1246
425.4071	0.1452
425.6113	0.1108
425.8156	0.1233
426.0198	0.1253
426.224	0.1083
426.4282	0.1236
426.6324	0.1065
426.8366	0.114
427.0407	0.1289
427.2449	0.1167
427.449	0.1072
427.6531	0.1082
427.8572	0.109
428.0613	0.1067
428.2654	0.1167
428.4694	0.1144
428.6735	0.0934
428.8775	0.1102
429.0815	0.1134
429.2855	0.0994
429.4895	0.1242
429.6935	0.1055
429.8975	0.112
430.1014	0.092
430.3053	0.0902
430.5093	0.1086
430.7132	0.0917
430.9171	0.0954
431.1209	0.1036
431.3248	0.106
431.5286	0.1024
431.7325	0.0961
431.9363	0.0779
432.1401	0.1066
432.3439	0.0925
432.5477	0.0756
432.7514	0.0783
432.9552	0.0858
433.1589	0.0744
433.3627	0.089
433.5664	0.0745
433.7701	0.077
433.9737	0.0801
434.1774	0.0733
434.3811	0.0886
434.5847	0.0831
434.7883	0.0803
434.9919	0.058
435.1955	0.0772
435.3991	0.0757
435.6027	0.0801
435.8062	0.0662
436.0098	0.0728
436.2133	0.073
436.4168	0.0774
436.6203	0.046
436.8238	0.0652
437.0272	0.0688
437.2307	0.0609
437.4341	0.0685
437.6375	0.0543
437.841	0.0744
438.0443	0.0503
438.2477	0.0722
438.4511	0.0588
438.6545	0.0589
438.8578	0.0667
439.0611	0.0542
439.2644	0.063
439.4677	0.0512
439.671	0.0437
439.8743	0.0554
440.0775	0.0553
440.2808	0.0577
440.484	0.0426
440.6872	0.0341
440.8904	0.0418
441.0936	0.0682
441.2967	0.0416
441.4999	0.0452
441.703	0.0362
441.9062	0.0521
442.1093	0.032
442.3124	0.0478
442.5155	0.0362
442.7185	0.0358
442.9216	0.0308
443.1246	0.0398
443.3276	0.0246
443.5307	0.0346
443.7337	0.0481
443.9366	0.0416
444.1396	0.0482
444.3426	0.0357
444.5455	0.0361
444.7484	0.0352
444.9513	0.0321
445.1542	0.0468
445.3571	0.0388
445.56	0.029
445.7628	0.0304
445.9657	0.0344
446.1685	0.0413
446.3713	0.0201
446.5741	0.0275
446.7769	0.0188
446.9797	0.023
447.1824	0.0404
447.3852	0.0212
447.5879	0.038
447.7906	0.0399
447.9933	0.0187
448.196	0.0112
448.3986	0.0185
448.6013	0.02
448.8039	0.0104
449.0066	0.0159
449.2092	0.0276
449.4118	0.0265
449.6143	0.0367
449.8169	0.0208
450.0195	0.0201
450.222	-0.0012
450.4245	0.001
450.627	0.0378
450.8295	0.007
451.032	0.0202
451.2345	0.0289
451.4369	0.0249
451.6394	0.0225
451.8418	0.0027
452.0442	0.0053
452.2466	0.0097
452.449	-0.0033
452.6513	0.0147
452.8537	0.018
453.056	-0.0129
453.2583	0.0092
453.4607	-0.0001
453.663	0.005
453.8652	0.0235
454.0675	0.0056
454.2697	0.0146
454.472	-0.017
454.6742	0.017
454.8764	0.0082
455.0786	0.0062
455.2808	0.004
455.4829	0.0105
455.6851	0.0117
455.8872	0.0117
456.0893	0.0182
456.2915	0.0002
456.4935	0.006
456.6956	0.0068
456.8977	0.0122
457.0997	-0.0035
457.3018	-0.0013
457.5038	0.0133
457.7058	0.0024
457.9078	0.0017
458.1098	0.0133
458.3117	0.0062
458.5137	0.0115
458.7156	0.0103
458.9175	-0.014
459.1194	-0.0097
459.3213	0.0141
459.5232	0.0079
459.725	-0.0228
459.9269	-0.0073
460.1287	-0.0023
460.3305	0.0041
460.5323	0.0052
460.7341	-0.0073
460.9359	0.0114
461.1376	0.0121
461.3394	0.0057
461.5411	0.0056
461.7428	-0.0114
461.9445	0.0164
462.1462	0.0152
462.3479	-0.0042
462.5495	-0.0053
462.7512	0.0149
462.9528	0.0041
463.1544	-0.0148
463.356	-0.0032
463.5576	-0.0026
463.7592	-0.0025
463.9607	0.0029
464.1623	0.0165
464.3638	0.0225
464.5653	-0.0108
464.7668	-0.0165
464.9683	0.0014
465.1697	0.008
465.3712	0.0007
465.5726	-0.0103
465.7741	-0.0079
465.9755	-0.0169
466.1769	-0.0079
466.3782	0.0064
466.5796	-0.0114
466.7809	0.0007
466.9823	-0.0074
467.1836	-0.0094
467.3849	-0.0011
467.5862	0.0024
467.7875	0.0061
467.9887	0.0059
468.19	0.0018
468.3912	-0.01
468.5924	-0.0027
468.7936	-0.0082
468.9948	-0.0097
469.196	0.012
469.3972	-0.0178
469.5983	0.0107
469.7994	-0.0159
470.0006	-0.0019
470.2017	-0.0183
470.4027	0.0025
470.6038	0.0114
470.8049	-0.0186
471.0059	-0.0113
471.2069	-0.0179
471.408	-0.0017
471.6089	-0.0076
471.8099	-0.0118
472.0109	-0.0029
472.2119	-0.0129
472.4128	-0.0061
472.6137	-0.0033
472.8146	-0.0105
473.0155	-0.0124
473.2164	0.0052
473.4173	0.0028
473.6181	0.0092
473.819	-0.0106
474.0198	-0.0089
474.2206	-0.0133
474.4214	-0.0047
474.6222	-0.0019
474.8229	-0.0161
475.0237	-0.0152
475.2244	-0.0258
475.4251	-0.001
475.6258	0.0019
475.8265	-0.0091
476.0272	0.0008
476.2278	-0.0033
476.4285	-0.0033
476.6291	-0.015
476.8297	-0.0084
477.0303	-0.0072
477.2309	0.0039
477.4315	-0.0238
477.632	-0.0035
477.8326	-0.0037
478.0331	0.0019
478.2336	-0.0017
478.4341	-0.0048
478.6346	-0.0171
478.8351	-0.0123
479.0355	0.0016
479.236	-0.0141
479.4364	0.0093
479.6368	0.0003
479.8372	-0.0204
480.0376	-0.016
480.2379	-0.0193
480.4383	-0.0157
480.6386	0.0057
480.8389	-0.0058
481.0392	-0.0131
481.2395	-0.0186
481.4398	-0.0012
481.6401	-0.0121
481.8403	-0.0012
482.0405	-0.0287
482.2408	-0.0115
482.441	0.0003
482.6411	-0.0082
482.8413	-0.0043
483.0415	-0.0199
483.2416	-0.0029
483.4417	-0.0101
483.6419	-0.0095
483.8419	-0.0111
484.042	0.0127
484.2421	-0.0102
484.4422	-0.0035
484.6422	-0.0086
484.8422	-0.0041
485.0422	-0.0174
485.2422	0.0038
485.4422	-0.0167
485.6422	-0.0156
485.8421	-0.0074
486.042	-0.0057
486.242	-0.0101
486.4419	-0.0094
486.6417	-0.0088
486.8416	-0.0001
487.0415	-0.0072
487.2413	-0.0117
487.4411	-0.0095
487.641	-0.0141
487.8408	-0.0057
488.0405	-0.0223
488.2403	-0.0079
488.4401	0.0086
488.6398	-0.0073
488.8395	-0.0153
489.0392	-0.0099
489.2389	-0.0173
489.4386	-0.0144
489.6383	-0.0056
489.8379	-0.0008
490.0376	-0.0066
490.2372	-0.0045
490.4368	-0.0275
490.6364	-0.0094
490.836	-0.0026
491.0355	-0.0048
491.2351	-0.0092
491.4346	-0.0127
491.6341	-0.01
491.8336	-0.0103
492.0331	-0.029
492.2326	-0.0187
492.432	-0.006
492.6315	-0.0144
492.8309	-0.0168
493.0303	-0.0103
493.2297	-0.003
493.4291	-0.0084
493.6284	-0.005
493.8278	-0.0045
494.0271	-0.0005
494.2264	0.0058
494.4257	-0.0127
494.625	-0.0081
494.8243	-0.0134
495.0236	-0.0107
495.2228	-0.0125
495.422	-0.0017
495.6213	-0.0214
495.8205	0.0047
496.0196	-0.0104
496.2188	-0.0028
496.418	-0.0114
496.6171	-0.0099
496.8162	-0.0179
497.0153	0.0043
497.2144	-0.0055
497.4135	-0.005
497.6126	-0.0225
497.8116	-0.0115
498.0107	-0.005
498.2097	-0.0184
498.4087	-0.0187
498.6077	0.0014
498.8067	-0.0124
499.0056	-0.0035
499.2046	-0.012
499.4035	-0.026
499.6024	-0.0033
499.8013	-0.0125
500.0002	-0.0105
500.199	-0.0042
500.3979	-0.0138
500.5967	-0.016
500.7956	0.002
500.9944	-0.0083
501.1932	-0.022
501.3919	-0.0158
501.5907	-0.0126
501.7895	-0.0059
501.9882	-0.0127
502.1869	-0.0135
502.3856	-0.0107
502.5843	-0.0163
502.783	-0.004
502.9816	-0.0124
503.1803	-0.0199
503.3789	-0.0117
503.5775	0.0021
503.7761	-0.0093
503.9747	-0.0063
504.1732	-0.0132
504.3718	-0.0139
504.5703	-0.018
504.7689	-0.0109
504.9674	-0.0071
505.1658	-0.0138
505.3643	-0.0092
505.5628	-0.0093
505.7612	-0.0118
505.9597	-0.0051
506.1581	-0.0121
506.3565	-0.002
506.5549	-0.0176
506.7532	-0.0152
506.9516	-0.0097
507.1499	-0.0059
507.3482	-0.0148
507.5465	-0.0089
507.7448	-0.0133
507.9431	-0.013
508.1414	-0.0021
508.3396	-0.0115
508.5379	-0.0021
508.7361	-0.005
508.9343	-0.0108
509.1325	0.0016
509.3306	-0.0071
509.5288	-0.0106
509.7269	-0.0075
509.9251	-0.0091
510.1232	-0.0106
510.3213	-0.0051
510.5193	-0.0008
510.7174	-0.0145
510.9154	-0.0086
511.1135	-0.017
511.3115	-0.0153
511.5095	-0.0133
511.7075	-0.0057
511.9055	-0.0099
512.1034	-0.0169
512.3014	-0.0035
512.4993	-0.0114
512.6972	-0.0135
512.8951	-0.0177
513.093	0.002
513.2908	0.0027
513.4887	-0.0022
513.6865	-0.0081
513.8844	-0.0097
514.0822	-0.0052
514.2799	-0.0124
514.4777	-0.0167
514.6755	-0.0109
514.8732	-0.0114
515.0709	-0.0095
515.2687	-0.0151
515.4664	-0.0011
515.664	-0.0085
515.8617	-0.0164
516.0594	-0.0184
516.257	0.0004
516.4546	-0.0253
516.6522	-0.0003
516.8498	-0.0038
517.0474	-0.004
517.2449	0.002
517.4425	-0.006
517.64	-0.0061
517.8375	0.0028
518.035	0.0005
518.2325	-0.0169
518.43	-0.0155
518.6274	-0.0141
518.8249	-0.026
519.0223	0.0018
519.2197	0.0021
519.4171	-0.0054
519.6145	-0.0178
519.8118	-0.0029
520.0092	-0.0133
520.2065	-0.0143
520.4038	-0.0109
520.6011	-0.0044
520.7984	-0.0147
520.9956	-0.0109
521.1929	-0.0193
521.3901	-0.0099
521.5874	-0.0035
521.7846	-0.0057
521.9818	-0.0133
522.1789	-0.0091
522.3761	-0.0132
522.5732	-0.0073
522.7704	-0.0091
522.9675	-0.0061
523.1646	-0.0177
523.3617	-0.0085
523.5587	-0.0095
523.7558	-0.0117
523.9528	-0.0084
524.1498	-0.0029
524.3468	-0.0117
524.5438	-0.0123
524.7408	-0.0092
524.9378	0.0096
525.1347	-0.0057
525.3316	0.0013
525.5285	-0.0071
525.7254	-0.0075
525.9223	-0.0043
526.1192	-0.0148
526.316	-0.0131
526.5129	-0.0022
526.7097	-0.0016
526.9065	0.0005
527.1033	-0.0151
527.3	-0.0042
527.4968	-0.0056
527.6935	-0.0007
527.8903	-0.0103
528.087	-0.0029
528.2837	-0.0098
528.4804	0.0009
528.677	-0.0128
528.8737	0.0028
529.0703	-0.0025
529.2669	-0.0144
529.4635	-0.0096
529.6601	-0.0057
529.8567	-0.0122
530.0532	-0.0143
530.2498	-0.0033
530.4463	0.0015
530.6428	-0.0124
530.8393	-0.0004
531.0358	-0.0032
531.2322	-0.0164
531.4287	-0.0013
531.6251	-0.0207
531.8215	-0.0009
532.0179	-0.0141
532.2143	0.002
532.4107	-0.0154
532.607	-0.0024
532.8034	0.0021
532.9997	-0.0039
533.196	0.0008
533.3923	-0.0132
533.5886	-0.0085
533.7848	0.0009
533.9811	-0.0046
534.1773	-0.0011
534.3735	0.0053
534.5697	-0.0036
534.7659	-0.0061
534.9621	0.0029
535.1582	-0.0135
535.3544	0.0018
535.5505	-0.0108
535.7466	-0.0057
535.9427	-0.0064
536.1387	-0.0094
536.3348	-0.0015
536.5308	0.0099
536.7269	-0.0135
536.9229	0.0034
537.1189	-0.0068
537.3148	-0.0165
537.5108	-0.0077
537.7068	-0.0074
537.9027	0.0015
538.0986	0.0007
538.2945	-0.0109
538.4904	-0.0115
538.6863	-0.0087
538.8821	-0.0059
539.078	-0.0064
539.2738	0.0008
539.4696	-0.0084
539.6654	-0.0005
539.8611	0.0067
540.0569	-0.0042
540.2526	-0.0013
540.4484	-0.0044
540.6441	0.0006
540.8398	0.0035
541.0355	0.0021
541.2311	-0.0069
541.4268	-0.0088
541.6224	0.0028
541.818	-0.0053
542.0136	-0.0036
542.2092	-0.0057
542.4048	-0.0066
542.6003	-0.003
542.7959	-0.0111
542.9914	-0.0063
543.1869	-0.0048
543.3824	-0.0023
543.5779	-0.0129
543.7734	-0.0103
543.9688	-0.0122
544.1642	-0.0078
544.3596	0.0023
544.555	-0.01
544.7504	0.0011
544.9458	-0.0101
545.1411	-0.0153
545.3365	-0.0055
545.5318	-0.0004
545.7271	0
545.9224	-0.0023
546.1177	0.0022
546.3129	-0.0023
546.5081	-0.0095
546.7034	-0.0072
546.8986	-0.0089
547.0938	-0.0021
547.289	-0.0073
547.4841	-0.0059
547.6793	0.003
547.8744	-0.0026
548.0695	-0.0075
548.2646	-0.0074
548.4597	0
548.6548	-0.0007
548.8498	0.0022
549.0448	-0.0063
549.2399	-0.0046
549.4349	-0.0031
549.6298	-0.0046
549.8248	-0.0001
550.0198	-0.0028
550.2147	-0.0035
550.4096	-0.0026
550.6045	-0.0029
550.7994	0.0028
550.9943	-0.0044
551.1892	-0.001
551.384	-0.0016
551.5788	0.0023
551.7737	0.0026
551.9685	-0.006
552.1632	-0.0055
552.358	0.0008
552.5528	-0.0022
552.7475	-0.0053
552.9422	-0.0057
553.1369	0.0012
553.3316	0.0082
553.5263	-0.009
553.7209	0.0006
553.9156	-0.0075
554.1102	-0.0017
554.3048	-0.0145
554.4994	0.0055
554.694	-0.0084
554.8885	0.0049
555.0831	-0.0101
555.2776	-0.0007
555.4721	-0.0019
555.6666	-0.0031
555.8611	0.0105
556.0555	-0.0006
556.25	-0.0026
556.4444	-0.0042
556.6388	-0.0011
556.8332	-0.002
557.0276	0.0017
557.222	0.0017
557.4163	-0.0023
557.6107	-0.0076
557.805	0.0018
557.9993	-0.0044
558.1936	0.001
558.3879	0.0034
558.5821	0.0009
558.7764	-0.0109
558.9706	-0.0049
559.1648	-0.001
559.359	-0.0126
559.5532	-0.013
559.7473	0.0014
559.9415	-0.0064
560.1356	-0.0045
560.3297	-0.0079
560.5238	-0.0069
560.7179	-0.0132
560.9119	-0.0059
561.106	-0.0039
561.3	-0.0084
561.494	-0.0076
561.688	-0.0061
561.882	-0.0119
562.076	-0.0077
562.2699	0.0038
562.4639	-0.0023
562.6578	0.0006
562.8517	0.0011
563.0456	-0.0003
563.2395	0.003
563.4333	0.0038
563.6272	0.0108
563.821	-0.0106
564.0148	0.0006
564.2086	-0.0072
564.4024	-0.0074
564.5961	-0.0128
564.7899	0.0031
564.9836	-0.0031
565.1773	-0.001
565.371	0.0087
565.5647	0.0031
565.7584	-0.0009
565.952	-0.0004
566.1456	-0.0046
566.3393	-0.0019
566.5329	-0.0055
566.7264	0.002
566.92	-0.0196
567.1136	0.0025
567.3071	-0.0038
567.5006	0.0024
567.6941	-0.0011
567.8876	-0.0029
568.0811	-0.0042
568.2745	-0.0021
568.468	0.0037
568.6614	-0.0027
568.8548	-0.0001
569.0482	-0.0058
569.2416	0.0025
569.4349	-0.0046
569.6283	-0.0057
569.8216	-0.0056
570.0149	-0.0096
570.2082	0.0015
570.4015	0.0034
570.5947	0.0041
570.788	0.0009
570.9812	0.0041
571.1744	-0.002
571.3676	-0.0056
571.5608	-0.0001
571.754	-0.0004
571.9471	0.0003
572.1402	-0.0015
572.3333	-0.0061
572.5264	-0.0042
572.7195	-0.0067
572.9126	-0.0039
573.1057	-0.006
573.2987	-0.0004
573.4917	0.0021
573.6847	-0.0125
573.8777	0.0007
574.0707	0.0078
574.2636	-0.0046
574.4566	-0.0078
574.6495	0.0047
574.8424	-0.0043
575.0353	-0.0023
575.2281	0.0034
575.421	0.0022
575.6138	-0.002
575.8067	0.0035
575.9995	0.0001
576.1923	0.0056
576.385	-0.0011
576.5778	-0.003
576.7706	-0.0073
576.9633	-0.0001
577.156	0.0074
577.3487	-0.0012
577.5414	-0.0019
577.734	0.0037
577.9267	0.0006
578.1193	-0.0035
578.3119	-0.0061
578.5045	-0.0024
578.6971	-0.0066
578.8897	0.0034
579.0822	-0.0021
579.2747	0.0017
579.4673	-0.0058
579.6598	-0.0015
579.8522	-0.0028
580.0447	-0.0054
580.2372	-0.0014
580.4296	-0.0003
580.622	-0.0056
580.8144	0.0003
581.0068	-0.0046
581.1992	-0.013
581.3915	-0.0085
581.5839	-0.0074
581.7762	-0.012
581.9685	-0.0021
582.1608	-0.0021
582.353	-0.006
582.5453	-0.0014
582.7375	-0.0028
582.9298	0.0004
583.122	-0.0006
583.3142	-0.0069
583.5063	-0.0066
583.6985	-0.0042
583.8906	-0.0038
584.0827	-0.0142
584.2749	0.0034
584.4669	-0.0042
584.659	-0.0017
584.8511	-0.0081
585.0431	-0.0077
585.2352	-0.0022
585.4272	-0.0087
585.6192	0.0032
585.8111	0.0012
586.0031	-0.0003
586.195	-0.0012
586.387	0.0001
586.5789	-0.0034
586.7708	0.0001
586.9627	0.0035
587.1545	-0.0019
587.3464	0.0045
587.5382	-0.0014
587.73	0.0006
587.9218	-0.0025
588.1136	-0.0054
588.3053	-0.0004
588.4971	-0.0043
588.6888	-0.0074
588.8805	0.0015
589.0722	0.0038
589.2639	0.001
589.4556	0.0057
589.6472	-0.0004
589.8389	-0.0098
590.0305	-0.0132
590.2221	0.0031
590.4137	-0.0022
590.6052	-0.0023
590.7968	-0.0028
590.9883	-0.0068
591.1798	-0.0097
591.3713	-0.0049
591.5628	0.0036
591.7543	0.0038
591.9458	-0.0035
592.1372	0.0022
592.3286	0.0034
592.52	0.0017
592.7114	-0.0072
592.9028	-0.0124
593.0941	-0.0034
593.2855	0.0024
593.4768	-0.0106
593.6681	-0.0118
593.8594	-0.0064
594.0506	-0.0079
594.2419	0.0064
594.4331	0.0014
594.6244	-0.004
594.8156	-0.0086
595.0067	0.005
595.1979	0.0026
595.3891	0
595.5802	-0.0077
595.7713	-0.0053
595.9624	-0.0097
596.1535	0.0014
596.3446	-0.0077
596.5357	-0.0073
596.7267	0.0062
596.9177	-0.0039
597.1087	-0.007
597.2997	0.0004
597.4907	-0.0019
597.6817	-0.0092
597.8726	0.0021
598.0635	-0.0064
598.2544	0.0012
598.4453	0.0001
598.6362	-0.0052
598.827	-0.0111
599.0179	0.0023
599.2087	0.0071
599.3995	0.0025
599.5903	0.0021
599.7811	0.0036
599.9718	0.0005
600.1626	-0.0064
600.3533	-0.005
600.544	-0.0039
600.7347	-0.0027
600.9254	-0.0068
601.116	-0.0045
601.3067	0.001
601.4973	-0.0035
601.6879	0.0062
601.8785	-0.0031
602.0691	-0.0001
602.2596	0.0013
602.4502	0.0081
602.6407	0.0039
602.8312	-0.003
603.0217	-0.0089
603.2122	-0.006
603.4027	-0.0035
603.5931	-0.0048
603.7835	-0.0038
603.9739	-0.0063
604.1643	-0.001
604.3547	-0.007
604.5451	-0
604.7354	0.0015
604.9257	0.0037
605.116	0.0021
605.3063	0.0099
605.4966	0.0017
605.6869	-0.0006
605.8771	-0.001
606.0673	0.0058
606.2575	0.0064
606.4477	0.0035
606.6379	0.0083
606.8281	-0.0048
607.0182	-0.0055
607.2083	0.0072
607.3985	-0.0003
607.5885	-0.0036
607.7786	-0.0041
607.9687	-0.0033
608.1587	-0.0049
608.3488	0.001
608.5388	0.0003
608.7288	-0.0079
608.9187	-0.0054
609.1087	-0.0041
609.2986	-0.0066
609.4886	-0.0006
609.6785	-0.0025
609.8684	0.0015
610.0582	-0.0001
610.2481	-0.0043
610.4379	-0
610.6278	-0.0078
610.8176	-0.0018
611.0074	-0.0021
611.1971	0
611.3869	-0.0117
611.5766	-0.0015
611.7664	0.0087
611.9561	0.0057
612.1458	-0.0007
612.3354	-0.0099
612.5251	0.0013
612.7147	0.0016
612.9044	0.0066
613.094	-0.0133
613.2836	0.0032
613.4731	-0.0055
613.6627	-0.0014
613.8522	0.0018
614.0417	-0.0014
614.2313	-0.0065
614.4207	-0.0108
614.6102	-0.0014
614.7997	-0.0057
614.9891	-0.0003
615.1785	0.0029
615.3679	-0.0049
615.5573	0.0083
615.7467	0.0006
615.9361	-0.0024
616.1254	0.0002
616.3147	0.0036
616.504	0.0061
616.6933	0.0018
616.8826	0.0017
617.0718	0.0011
617.2611	-0.0025
617.4503	-0.005
617.6395	-0.0016
617.8287	-0.0074
618.0179	-0.0023
618.207	0.0087
618.3961	-0.0048
618.5853	0.005
618.7744	0.0069
618.9634	0.0025
619.1525	-0.0008
619.3416	0.0048
619.5306	0.001
619.7196	0.0003
619.9086	-0.0065
620.0976	0.0045
620.2866	-0.0057
620.4755	-0.0039
620.6645	-0.0072
620.8534	0.007
621.0423	0.0016
621.2312	0.0043
621.42	0.0016
621.6089	0.0026
621.7977	0.0058
621.9865	-0.0138
622.1753	0.0045
622.3641	-0
622.5529	-0.0009
622.7416	0.0061
622.9303	-0.0083
623.1191	0.0021
623.3078	-0.0054
623.4964	-0.003
623.6851	-0.0054
623.8737	-0.0012
624.0624	-0.0035
624.251	-0.0063
624.4396	-0.0093
624.6282	-0.0108
624.8167	-0.0041
625.0053	0.0008
625.1938	0.0027
625.3823	0.0001
625.5708	-0.0023
625.7593	-0.0069
625.9477	-0.016
626.1362	-0.007
626.3246	-0.0015
626.513	0.0038
626.7014	0.0019
626.8898	0.0017
627.0781	-0.0024
627.2665	-0.001
627.4548	0.0018
627.6431	0.0052
627.8314	-0.0074
628.0197	0.0009
628.2079	-0.0068
628.3962	-0.0075
628.5844	-0.0044
628.7726	0.0005
628.9608	0.0039
629.1489	-0.0019
629.3371	0.0028
629.5252	-0.0057
629.7134	0.0093
629.9015	0.0002
630.0895	0.0021
630.2776	0.0025
630.4657	-0.0056
630.6537	0.0012
630.8417	-0.0033
631.0297	-0.0043
631.2177	-0.0006
631.4057	-0.0066
631.5936	0.0028
631.7815	0.0004
631.9695	-0.0001
632.1574	0.0053
632.3452	0.0125
632.5331	0.0015
632.7209	-0.0085
632.9088	0.009
633.0966	0.0057
633.2844	-0.0053
633.4722	0.0039
633.6599	0.0066
633.8477	-0.0003
634.0354	-0.0062
634.2231	-0.0035
634.4108	-0.0072
634.5985	0.0036
634.7861	-0.0063
634.9738	-0.0006
635.1614	0.0009
635.349	0.0036
635.5366	-0.0004
635.7242	0.0014
635.9117	0.004
636.0993	-0.0033
636.2868	0.0044
636.4743	-0.0086
636.6618	0.0029
636.8492	-0.0022
637.0367	0.0023
637.2241	-0.0053
637.4115	-0.008
637.5989	-0.0039
637.7863	-0.0016
637.9737	-0.0035
638.161	-0.0042
638.3484	0.0023
638.5357	0.0078
638.723	-0.0042
638.9103	0.0014
639.0975	0.0042
639.2848	0.0055
639.472	0.0007
639.6592	0.0069
639.8464	0.002
640.0336	0.0091
640.2208	0.0033
640.4079	0.0002
640.595	0.0031
640.7821	0.0032
640.9692	0.0012
641.1563	0.0061
641.3434	0.0068
641.5304	0.0035
641.7174	0.0021
641.9044	0.0043
642.0914	0.0051
642.2784	0.0061
642.4653	0.005
642.6523	0.0068
642.8392	0.0018
643.0261	0.001
643.213	0.0079
643.3999	-0.0007
643.5867	-0.0021
643.7735	-0.001
643.9604	-0.0025
644.1472	-0.0005
644.3339	0.0027
644.5207	-0.0047
644.7075	0.0013
644.8942	0.0036
645.0809	0.0082
645.2676	0.0063
645.4543	0.0059
645.6409	0.01
645.8276	0.0055
646.0142	0.007
646.2008	-0.0003
646.3874	-0.0024
646.574	0.0029
646.7605	-0.0026
646.9471	-0.0109
647.1336	-0.0031
647.3201	0.0028
647.5066	0.0012
647.6931	0.0047
647.8795	-0.0054
648.0659	-0.0029
648.2524	0.003
648.4388	0.0004
648.6252	0.005
648.8115	-0.0025
648.9979	0.0023
649.1842	0.0032
649.3705	0.0027
649.5568	-0.0078
649.7431	0.0005
649.9294	-0.0069
650.1156	0.0013
650.3018	0.0035
650.488	0.0052
650.6742	0.0022
650.8604	0.0018
651.0466	-0.0051
651.2327	-0.0023
651.4188	-0.0068
651.6049	-0.0072
651.791	-0.0037
651.9771	-0.0005
652.1632	0.0068
652.3492	-0.0031
652.5352	0.0012
652.7212	-0.0067
652.9072	0.0071
653.0932	-0.0016
653.2791	-0.005
653.465	0.0027
653.651	0.001
653.8369	-0.0053
654.0227	-0.0019
654.2086	0.0013
654.3944	0.0056
654.5803	-0.006
654.7661	0.002
654.9519	-0.0002
655.1377	-0.0078
655.3234	0.0002
655.5092	-0.005
655.6949	-0.0069
655.8806	-0.0027
656.0663	0.0041
656.2519	-0.0025
656.4376	-0.0067
656.6232	0.0058
656.8088	-0.0004
656.9945	0.0007
657.18	-0.0007
657.3656	-0.0009
657.5511	-0.0071
657.7367	-0.0067
657.9222	0.0026
658.1077	0.0035
658.2932	0.0001
658.4786	-0.0084
658.6641	0.0085
658.8495	0.004
659.0349	0.0009
659.2203	0.007
659.4057	0.0048
659.591	-0.0061
659.7764	-0.0018
659.9617	0.0039
660.147	0.0026
660.3323	0.0065
660.5176	0.0092
660.7028	-0.0067
660.888	0.0027
661.0733	-0.0007
661.2585	-0.0076
661.4436	-0.0056
661.6288	0.0023
661.8139	-0.0029
661.9991	0.0079
662.1842	-0.0039
662.3693	0.0027
662.5544	-0.0018
662.7394	0.0049
662.9245	0.0027
663.1095	0.0019
663.2945	-0.0008
663.4795	-0.003
663.6644	-0.0013
663.8494	0.0038
664.0343	0.0048
664.2193	-0.0043
664.4042	-0.0032
664.589	-0.0031
664.7739	-0.0039
664.9587	-0.0063
665.1436	-0.008
665.3284	-0.0015
665.5132	-0.0038
665.698	-0.0078
665.8827	-0.0042
666.0675	-0.0045
666.2522	-0.0082
666.4369	0.0054
666.6216	0.0008
666.8063	0.0035
666.9909	0.0035
667.1756	-0.0002
667.3602	0.0059
667.5448	-0.0008
667.7294	0.0024
667.9139	0.0011
668.0985	0.0068
668.283	-0.0085
668.4675	0.003
668.652	0.0002
668.8365	-0.002
669.0209	0.0018
669.2054	0.0017
669.3898	0.0001
669.5742	0.0055
669.7586	0.0017
669.943	0.0117
670.1273	0
670.3117	0.0011
670.496	0.0014
670.6803	0.0079
670.8646	0.0043
671.0488	-0.0096
671.2331	0.0096
671.4173	0.0041
671.6015	-0.0056
671.7857	0.0035
671.9699	0.0054
672.1541	0.0015
672.3382	0.0003
672.5223	0.0072
672.7064	0.0013
672.8905	0.0093
673.0746	0.0028
673.2587	-0.0075
673.4427	0.0004
673.6267	0.0065
673.8107	0.011
673.9947	0.0046
674.1787	0.0051
674.3626	-0.0088
674.5465	0.0046
674.7304	0.0054
674.9143	0.0069
675.0982	0.0084
675.2821	-0.0008
675.4659	0.0055
675.6497	0.0024
675.8335	-0.0058
676.0173	-0.0036
676.2011	0.0006
676.3849	0.0021
676.5686	-0.0044
676.7523	0.0022
676.936	-0.0011
677.1197	-0.0036
677.3034	-0.0065
677.487	-0.0007
677.6706	-0.0008
677.8542	-0.0012
678.0378	-0.0018
678.2214	-0.0071
678.405	0.0007
678.5885	-0.0049
678.772	0.0013
678.9555	-0.0048
679.139	0.0028
679.3225	0.0013
679.5059	0.0004
679.6894	0.0006
679.8728	0.0001
680.0562	-0.0053
680.2395	-0.006
680.4229	-0.0031
680.6062	0.0061
680.7896	0.0086
680.9729	-0.0115
681.1562	0.001
681.3394	0.0015
681.5227	-0.0096
681.7059	-0.0021
681.8891	-0.0014
682.0723	0.0071
682.2555	-0.0004
682.4387	-0.0013
682.6218	-0.0046
682.805	0.0074
682.9881	0.0018
683.1712	-0.0008
683.3542	-0.0009
683.5373	0.0038
683.7203	-0.0073
683.9034	0.0015
684.0864	-0.0136
684.2694	-0.0068
684.4523	0
684.6353	-0.0092
684.8182	0.0055
685.0011	-0.0056
685.184	0.0046
685.3669	-0.0005
685.5498	-0.0013
685.7326	-0.0018
685.9154	-0.0063
686.0982	0.0043
686.281	0.0065
686.4638	0.0036
686.6465	0.0003
686.8293	-0.0058
687.012	0.0008
687.1947	-0.0035
687.3774	-0.0056
687.56	-0.0067
687.7427	0.0047
687.9253	-0.0073
688.1079	-0.0071
688.2905	0.0088
688.4731	-0.0031
688.6556	-0.0018
688.8382	-0.002
689.0207	-0.0063
689.2032	-0.0128
689.3857	-0.0121
689.5681	-0.0005
689.7506	-0.0048
689.933	-0.0071
690.1154	-0.0046
690.2978	-0.0001
690.4802	-0.0004
690.6626	-0.015
690.8449	-0.0055
691.0272	0.0027
691.2095	-0.0045
691.3918	-0.0083
691.5741	0.0041
691.7563	-0.0079
691.9386	0
692.1208	-0.0079
692.303	-0.0032
692.4852	-0.0055
692.6673	0.0012
692.8495	0.0071
693.0316	-0.0023
693.2137	0.0031
693.3958	-0.0001
693.5778	-0
693.7599	-0.0042
693.9419	-0.0004
694.1239	0.0018
694.3059	-0.0091
694.4879	0.0052
694.6699	0.0069
694.8518	0.0036
695.0337	-0.0056
695.2157	0.0034
695.3975	-0.0008
695.5794	0.0043
695.7613	-0.0006
695.9431	-0.0088
696.1249	0.0006
696.3067	-0.004
696.4885	0.0063
696.6703	-0.0102
696.852	0.002
697.0337	0.0034
697.2154	-0.0042
697.3971	0.0103
697.5788	-0.0014
697.7605	0.0002
697.9421	0.0062
698.1237	0.0067
698.3053	0.0021
698.4869	-0.0053
698.6685	-0.009
698.85	-0.0008
699.0315	0.0071
699.213	-0.0114
699.3945	-0.0029
699.576	0.007
699.7575	0.0018
699.9389	0.0053
700.1203	-0.0012
700.3017	-0.0087
700.4831	-0.0039
700.6645	-0.0018
700.8458	-0.009
701.0271	-0.0019
701.2084	0.0066
701.3897	-0.0035
701.571	0.0034
701.7523	-0.004
701.9335	-0.0014
702.1147	0.0006
702.2959	0.0049
702.4771	-0.0015
702.6583	-0.0047
702.8394	-0.0042
703.0205	-0.0061
703.2016	-0.0046
703.3827	-0.001
703.5638	0.0058
703.7449	0.0083
703.9259	0.0099
704.1069	-0.0012
704.2879	-0.0019
704.4689	0.0013
704.6499	-0.0032
704.8308	0.0051
705.0117	-0.0031
705.1927	0
705.3735	-0.0033
705.5544	-0.0077
705.7353	0
705.9161	-0.0091
706.0969	-0.0143
706.2777	-0.0038
706.4585	0.0011
706.6393	0.0009
706.82	-0.003
707.0007	0.0063
707.1815	0.0017
707.3621	0.0062
707.5428	0.0092
707.7235	-0.0024
707.9041	0.0033
708.0847	-0.0194
708.2653	-0.0067
708.4459	-0.011
708.6265	-0.0011
708.807	-0.0026
708.9875	-0.0075
709.168	-0.0108
709.3485	-0.0004
709.529	-0.0013
709.7095	-0.0096
709.8899	0.0017
710.0703	-0.0055
710.2507	0.0006
710.4311	-0.0061
710.6115	-0.0107
710.7918	-0.0093
710.9721	-0.0024
711.1524	0.0007
711.3327	-0.0105
711.513	0.0071
711.6932	-0.0051
711.8735	0.0043
712.0537	0.005
712.2339	0.0024
712.4141	-0.0015
712.5942	-0.0084
712.7744	-0.006
712.9545	-0.0091
713.1346	-0.0049
713.3147	-0.0025
713.4947	-0.0118
713.6748	-0.0024
713.8548	-0.0066
714.0348	-0.0056
714.2148	-0.0027
714.3948	0.005
714.5748	-0.01
714.7547	-0.0088
714.9346	-0.0014
715.1145	-0.0046
715.2944	-0.0113
715.4743	-0.0034
715.6541	0.0021
715.834	-0.0014
716.0138	0.0033
716.1936	-0.0153
716.3733	-0.0154
716.5531	-0.004
716.7328	-0.0056
716.9126	-0.0069
717.0923	0.0056
717.2719	0.0019
717.4516	0.0019
717.6312	0.0082
717.8109	-0.0116
717.9905	0.0022
718.1701	-0.0011
718.3496	-0.0094
718.5292	-0.0123
718.7087	0.0044
718.8882	-0.0007
719.0677	0.0027
719.2472	0.0039
719.4267	-0.0064
719.6061	0.002
719.7856	0.0045
719.965	0.0074
720.1443	-0.0032
720.3237	0.0061
720.5031	0.0043
720.6824	0.0031
720.8617	-0.0081
721.041	-0.0016
721.2203	0.0005
721.3995	0.0036
721.5788	-0.003
721.758	0.0003
721.9372	-0.0071
722.1164	-0.0079
722.2956	-0.0008
722.4747	-0.0031
722.6538	-0.0034
722.8329	0.0098
723.012	-0.0018
723.1911	-0.0029
723.3702	0.0007
723.5492	0.0039
723.7282	-0.0033
723.9072	-0.0006
724.0862	-0.0079
724.2652	-0.0009
724.4441	-0.0013
724.623	-0.0055
724.8019	-0.0004
724.9808	-0.0032
725.1597	-0.0117
725.3385	-0.0038
725.5174	-0.0023
725.6962	-0.0116
725.875	-0.0002
726.0538	-0.0004
726.2325	0.0037
726.4112	-0.0005
726.59	-0.0024
726.7687	0.0018
726.9474	0.0023
727.126	-0.0078
727.3047	0.0054
727.4833	-0.0038
727.6619	-0.0075
727.8405	-0.0051
728.0191	-0.0063
728.1976	0.0105
728.3762	-0.001
728.5547	-0.0029
728.7332	-0.0132
728.9116	-0.0013
729.0901	0.0087
729.2686	-0.0032
729.447	-0.0025
729.6254	-0.0092
729.8038	0.001
729.9821	-0.0002
730.1605	-0.0073
730.3388	0.0017
730.5171	-0.0018
730.6954	-0.0065
730.8737	0.0047
731.0519	0.0048
731.2302	-0.0019
731.4084	0.0062
731.5866	-0.001
731.7648	-0.0047
731.9429	0.0036
732.1211	-0.0086
732.2992	-0.0121
732.4773	-0.0106
732.6554	-0.0076
732.8335	-0.0013
733.0115	0.0004
733.1896	-0.0036
733.3676	-0.0098
733.5456	-0.0006
733.7235	0.0018
733.9015	-0.0074
734.0794	-0.0042
734.2574	-0.0038
734.4353	-0.0014
734.6131	0.0058
734.791	0.0036
734.9689	0.0051
735.1467	0.0004
735.3245	-0.0053
735.5023	-0.0113
735.68	-0.0067
735.8578	0.0056
736.0355	-0.0166
736.2132	-0.012
736.3909	-0.0044
736.5686	-0.0044
736.7463	0.0012
736.9239	-0.0069
737.1015	-0.0073
737.2791	0.0002
737.4567	-0.0016
737.6343	-0.0041
737.8118	0.0045
737.9894	-0.0053
738.1669	-0.0048
738.3444	-0.0082
738.5218	0.0028
738.6993	-0.0058
738.8767	-0.0042
739.0541	0.0084
739.2315	0.0039
739.4089	-0.002
739.5863	0.001
739.7636	-0.0067
739.9409	-0.0026
740.1182	0.0026
740.2955	0.005
740.4728	-0.0036
740.65	-0.0087
740.8272	-0.0014
741.0044	-0.0046
741.1816	-0.0015
741.3588	0.0016
741.5359	-0.0014
741.7131	-0.0138
741.8902	-0.0047
742.0673	-0.0025
742.2444	-0.001
742.4214	-0.0113
742.5985	-0.0081
742.7755	-0.0118
742.9525	-0.0209
743.1295	-0.014
743.3064	-0.0046
743.4834	-0.0013
743.6603	-0.0039
743.8372	-0.0092
744.0141	0.0008
744.191	-0.0163
744.3678	-0.0046
744.5446	-0.0099
744.7215	0.0017
744.8982	-0.0087
745.075	-0.009
745.2518	-0.0003
745.4285	-0.0112
745.6052	-0.006
745.7819	-0.0047
745.9586	-0.008
746.1353	-0.0079
746.3119	-0.0139
746.4885	-0.0081
746.6651	-0.0018
746.8417	0.0022
747.0183	-0.0008
747.1948	-0.0024
747.3714	-0.0046
747.5479	0.0032
747.7244	-0.0102
747.9008	0.0099
748.0773	0.0023
748.2537	-0.0034
748.4301	-0.0072
748.6065	0.0043
748.7829	0.0036
748.9593	-0.0055
749.1356	-0.0061
749.3119	0
749.4882	-0.0157
749.6645	0.0094
749.8408	-0.0068
750.017	-0.0042
750.1933	-0.0021
750.3695	-0.0079
750.5457	0.0096
750.7218	-0.0026
750.898	0.0066
751.0741	-0.005
751.2502	-0.0018
751.4263	-0.0096
751.6024	-0.0106
751.7784	-0.0055
751.9545	-0.0042
752.1305	-0.0096
752.3065	-0.0153
752.4825	0.0048
752.6584	-0.0038
752.8344	-0.0043
753.0103	-0.005
753.1862	-0.0093
753.3621	-0.0048
753.5379	-0.005
753.7138	-0.0045
753.8896	0.0018
754.0654	0.0062
754.2412	0.0159
754.417	0.0077
754.5927	-0.0047
754.7685	0.0012
754.9442	0.0011
755.1199	0.0116
755.2956	0.0059
755.4712	0.0127
755.6469	0.0006
755.8225	-0.0057
755.9981	-0.0044
756.1736	0.0089
756.3492	0.0029
756.5248	0.0018
756.7003	0.0015
756.8758	0.0088
757.0513	-0.0169
757.2267	-0.0022
757.4022	-0.0064
757.5776	-0.0105
757.753	-0.0035
757.9284	-0.0048
758.1038	0.0083
758.2791	-0.002
758.4545	-0.0026
758.6298	-0.0042
758.8051	-0.0037
758.9803	-0.0076
759.1556	-0.0031
759.3308	-0.0101
759.506	0.0097
759.6812	0.0021
759.8564	0.0079
760.0316	0.0006
760.2067	0.0059
760.3819	0.0074
760.557	0.016
760.732	0.0075
760.9071	-0.001
761.0821	0.0069
761.2572	0.0069
761.4322	-0.0061
761.6072	-0.0039
761.7821	-0.0029
761.9571	0.0045
762.132	0.0083
762.3069	-0.0034
762.4818	-0.003
762.6567	0.002
762.8316	-0.0032
763.0064	0.0079
763.1812	0.005
763.356	-0.0088
763.5308	0.0059
763.7055	-0.0054
763.8803	-0.0121
764.055	-0.0057
764.2297	0.0047
764.4044	-0.0037
764.579	-0.0082
764.7537	-0.0088
764.9283	-0.0012
765.1029	-0.0071
765.2775	-0.0077
765.4521	-0.0082
765.6266	-0.0076
765.8011	-0.0114
765.9756	0.0005
766.1501	0.0039
766.3246	-0.0037
766.4991	0.0007
766.6735	-0.0041
766.8479	-0.0078
767.0223	0.0048
767.1967	-0.0063
767.371	-0.0034
767.5454	0.0018
767.7197	0.0022
767.894	-0.0079
768.0683	-0.0054
768.2425	-0.0074
768.4168	-0.005
768.591	0.0048
768.7652	-0.005
768.9394	0.0016
769.1135	-0.0088
769.2877	0.0101
769.4618	0.0055
769.6359	0.0032
769.81	0.0029
769.984	0.0082
770.1581	-0.0065
770.3321	0.0022
770.5061	-0.0066
770.6801	-0.0012
770.8541	0.0002
771.028	0.009
771.202	-0.0099
771.3759	-0.0002
771.5498	-0.0077
771.7236	-0.0061
771.8975	0.0058
772.0713	0.0092
772.2451	0.0025
772.4189	0.0128
772.5927	0.0085
772.7665	0.0043
772.9402	-0.0036
773.1139	0.0016
773.2876	-0.0009
773.4613	0.0058
773.635	0.0035
773.8086	-0.0093
773.9822	0.0023
774.1558	0.0043
774.3294	-0.0052
774.503	-0.0029
774.6765	0.0074
774.8501	0.0076
775.0236	-0.0022
775.1971	0.0056
775.3705	0.004
775.544	0.005
775.7174	-0.0132
775.8908	0.0008
776.0642	-0.0016
776.2376	-0.0002
776.4109	-0.0098
776.5843	-0.0152
776.7576	0.0039
776.9309	0.0095
777.1041	0.01
777.2774	0.0135
777.4506	0.0059
777.6238	0.0009
777.797	-0.0002
777.9702	-0.0014
778.1434	0.0012
778.3165	-0.0056
778.4896	0.0035
778.6627	0.0071
778.8358	-0.0039
779.0089	-0.0021
779.1819	0.0005
779.3549	0.0021
779.5279	0.008
779.7009	0.0016
779.8739	0.004
780.0468	0.0033
780.2197	-0.0098
780.3926	0.0016
780.5655	-0.009
780.7384	-0.0041
780.9112	0.0041
781.0841	0.003
781.2569	0.0012
781.4297	0.004
781.6024	0.0146
781.7752	0.0098
781.9479	0.0114
782.1206	0.0008
782.2933	-0.0112
782.466	0.0076
782.6386	0.0049
782.8113	0.0061
782.9839	0.0094
783.1565	0.0145
783.329	0.0038
783.5016	0.0064
783.6741	-0.002
783.8466	-0.0098
784.0191	0.0128
784.1916	-0.0091
784.3641	0.0003
784.5365	0.0034
784.7089	-0.0092
784.8813	0.0061
785.0537	-0.0062
785.2261	-0.0244
785.3984	-0.0157
785.5707	-0.0081
785.743	-0.005
785.9153	-0.0108
786.0876	0.001
786.2598	-0.0096
786.432	-0.0015
786.6042	0.0118
786.7764	-0.0005
786.9486	0.0032
787.1207	-0.004
787.2928	0.007
787.4649	-0.0059
787.637	-0.0004
787.8091	-0.0106
787.9811	-0.0081
788.1532	-0.0002
788.3252	0.0163
788.4972	-0.0041
788.6691	-0.0102
788.8411	0.008
789.013	-0.0017
789.1849	-0.0006
789.3568	-0.0081
789.5287	0.0012
789.7005	0.0043
789.8723	-0.0031
790.0442	0.016
790.2159	0.0049
790.3877	-0.0109
790.5595	-0.0085
790.7312	0.0078
790.9029	-0.0015
791.0746	-0.002
791.2463	-0.002
791.4179	-0.0163
791.5896	-0.0061
791.7612	0.0035
791.9328	0.0074
792.1044	-0.0064
792.2759	-0.0163
792.4474	-0.0216
792.619	0.0004
792.7905	0.0036
792.9619	0.004
793.1334	0.0046
793.3048	0.0151
793.4762	-0.0045
793.6476	0.0044
793.819	-0.0026
793.9904	-0.0009
794.1617	-0.021
794.333	-0.0093
794.5043	-0.0039
794.6756	-0.0069
794.8469	0.0063
795.0181	-0.0026
795.1893	-0.0084
795.3605	0.001
795.5317	-0.017
795.7029	-0.0141
795.874	0.0036
796.0452	-0.0089
796.2163	0.0057
796.3873	0.0149
796.5584	0.0041
796.7294	-0.0042
796.9005	0.0087
797.0715	0.0048
797.2425	-0.0145
797.4134	-0.0123
797.5844	-0.0023
797.7553	0.0065
797.9262	0.0104
798.0971	-0.0108
798.2679	-0.0042
798.4388	-0.0142
798.6096	-0.009
798.7804	-0.0016
798.9512	-0.0073
799.122	-0.0123
799.2927	-0.0096
799.4635	-0.0005
799.6342	-0.0202
799.8049	-0.0025
799.9755	0.0044
800.1462	0.008
800.3168	0.0041
800.4874	-0.0049
800.658	0.0296
800.8286	0.0127
800.9991	0.0096
801.1696	0.0127
801.3402	0.0078
801.5106	-0.0082
801.6811	-0.0045
801.8516	-0.0008
802.022	0.0073
802.1924	0.0106
802.3628	0.0068
802.5332	0.005
802.7035	0.0149
802.8739	-0.0157
803.0442	-0.0089
803.2145	0.0052
803.3847	-0.0206
803.555	0.0013
803.7252	-0.0063
803.8954	-0.0061
804.0656	0.0009
804.2358	-0.009
804.4059	0.0038
804.5761	0.0046
804.7462	0.0034
804.9163	0.0016
805.0864	-0.0189
805.2564	0.0073
805.4264	-0.0071
805.5965	0.0014
805.7665	-0.0008
805.9364	-0.0075
806.1064	0.0117
806.2763	-0.0023
806.4462	0.0168
806.6161	-0.0049
806.786	0.0062
806.9559	-0.0102
807.1257	0.0054
807.2955	0.0237
807.4653	-0.0072
807.6351	-0.0137
807.8048	0.0001
807.9746	-0.0123
808.1443	-0.0063
808.314	-0.0011
808.4837	-0.0104
808.6533	0.0017
808.8229	0.0267
808.9926	-0.0114
809.1622	0.0207
809.3317	-0.0063
809.5013	0.0127
809.6708	-0.0007
809.8403	0.0053
810.0098	-0.0027
810.1793	-0.0114
810.3488	-0.0094
810.5182	-0.0059
810.6876	0.0223
810.857	-0.0187
811.0264	0.005
811.1958	0.0032
811.3651	0.0016
811.5344	-0.0083
811.7037	-0.0059
811.873	-0.0274
812.0422	-0.0157
812.2115	-0.023
812.3807	-0.023
812.5499	-0.0042
812.7191	-0.0095
812.8882	-0.0047
813.0574	-0.0046
813.2265	-0.0077
813.3956	0.0069
813.5646	-0.0046
813.7337	-0.0162
813.9027	0.0069
814.0718	0.0081
814.2407	0.006
814.4097	-0.0038
814.5787	-0.0193
814.7476	0.0038
814.9165	-0.0109
815.0854	-0.0162
815.2543	-0.0107
815.4232	-0.0026
815.592	-0.0008
815.7608	0.0105
815.9296	0.0111
816.0984	0.0192
816.2671	-0.017
816.4359	-0.0077
816.6046	-0.0055
816.7733	-0.014
816.942	-0.0181
817.1106	0.0013
817.2793	-0.0086
817.4479	-0.006
817.6165	-0.0084
817.785	-0.0081
817.9536	-0.022
818.1221	-0.0203
818.2906	0.0101
818.4591	-0.0074
818.6276	-0.004
818.7961	-0.0187
818.9645	0.0044
819.1329	-0.0095
819.3013	-0.0009
819.4697	-0.0015
819.638	-0.0114
819.8064	-0.0097
819.9747	0.0106
820.143	0.0041
820.3113	-0.0086
820.4795	-0.0143
820.6477	0.0166
820.816	-0.0123
820.9842	-0.0039
821.1523	-0.0053
821.3205	-0.0241
821.4886	-0.0113
821.6567	0.0026
821.8248	-0.0165
821.9929	-0.0178
822.1609	0.0077
822.329	0.0378
822.497	0.014
822.665	0.0025
822.833	-0.0072
823.0009	-0.001
823.1688	0.0077
823.3367	0.0177
823.5046	0.0133
823.6725	0.0139
823.8404	0.0021
824.0082	0.0238
824.176	0.0153
824.3438	0.0147
824.5116	-0.0172
824.6793	0.0173
824.847	-0.0161
825.0147	-0.015
825.1824	0.0365
825.3501	0.0442
825.5177	-0.0203
825.6854	-0.0254
825.853	0.0211
826.0206	-0.0082
826.1881	0.0277
826.3557	-0.0414
826.5232	-0.0051
826.6907	-0.0419
826.8582	-0.0035
827.0257	-0.0232
827.1931	-0.0163
827.3605	0.0033
827.528	0.0133
827.6953	0.0097
827.8627	-0.0204
828.03	-0.0093
828.1974	-0.0415
828.3647	-0.0454
828.532	-0.0331
828.6992	-0.0285
828.8665	-0.033
829.0337	-0.0059
829.2009	0.018
829.3681	-0.007
829.5352	0.0429
829.7024	-0.0548
829.8695	-0.0158
830.0366	0.0541
830.2037	-0.0099
830.3707	0.0255
830.5378	0.012
830.7048	-0.0053
830.8718	0.0029
831.0388	-0.0471
831.2057	0.0012
831.3727	-0.0102
831.5396	-0.0369
831.7065	0.0007
831.8734	0.0056
832.0402	-0.0046
832.2071	0.0251
832.3739	-0.0064
832.5407	0.0019
832.7075	0.0154
832.8742	0.0057
833.041	-0.0104
833.2077	-0.0242
833.3744	0.0244
833.541	0.0155
833.7077	0.0052
833.8743	-0.0417
834.0409	0.0057
834.2075	-0.0203
834.3741	-0.0023
834.5407	0.0046
834.7072	0.0297
834.8737	-0.0318
835.0402	0.0049
835.2067	0.0291
835.3731	0.0543
835.5395	0.0105
835.706	0.0254
835.8723	-0.0167
836.0387	0.048
836.2051	-0.0142
836.3714	-0.0073
836.5377	0.0057
836.704	-0.0104
836.8703	0.057
837.0365	-0.0274
837.2027	0.0406
837.3689	0.0118
837.5351	-0.0253
837.7013	-0.0213
837.8674	-0.0375
838.0335	0.0097
838.1997	0.034
838.3657	-0.0271
838.5318	-0.0113
838.6978	0.0269
838.8639	0.0153
839.0299	0.0151
839.1958	-0.0249
839.3618	-0.0256
839.5277	0.0133
839.6937	-0.0262
839.8596	-0.0321
840.0254	-0.0104
840.1913	0.0519
840.3571	0.0582
840.523	-0.0487
840.6888	-0.0418
840.8545	-0.0349
841.0203	0.0055
841.186	0.0359
841.3517	0.0406
841.5174	0.0162
841.6831	-0.0271
841.8488	-0.0174
842.0144	-0.0238
842.18	-0.0024
842.3456	0.0097
842.5112	0.0023
842.6767	-0.0695
842.8422	-0.0752
843.0077	-0.0602
843.1732	0.0193
843.3387	0.0382
843.5042	-0.0586
843.6696	-0.0069
843.835	0.0068
844.0004	0.0595
844.1657	0.0197
844.3311	-0.0948
844.4964	-0.0374
844.6617	-0.0257
844.827	-0.0673
844.9923	-0.0463
845.1575	0.0273
845.3227	0.0289
845.4879	-0.0291
845.6531	-0.0538
845.8183	-0.046
845.9834	0.026
846.1485	-0.0302
846.3136	-0.0147
846.4787	-0.0829
846.6438	0.0287
846.8088	-0.0513
846.9738	-0.1217
847.1388	0.0341
847.3038	-0.0289
847.4687	-0.1674
847.6337	-0.001
847.7986	0.0097
847.9635	-0.0776
848.1284	-0.0249
848.2932	0.0689
848.458	0.049
848.6228	0.0365
848.7876	0.0804
848.9524	-0.1101
849.1172	-0.0645
849.2819	0.0277
849.4466	-0.0608
849.6113	-0.125
849.7759	-0.0191
849.9406	-0.0374
850.1052	-0.0035
850.2698	0.0402
850.4344	-0.0992
850.599	-0.069
850.7635	0.0495
850.928	-0.0413
851.0925	-0.052
851.257	0.0779
851.4215	0.0204
851.5859	-0.0569
851.7503	-0.0087
851.9147	0.0004
852.0791	-0.1691
852.2434	-0.0108
852.4078	0.0589
852.5721	0.11
852.7364	-0.0927
852.9007	-0.2712
853.0649	-0.0111
853.2291	-0.0165
853.3934	0.0123
853.5575	0.0161
853.7217	-0.0465
853.8859	-0.2042
854.05	-0.0899
854.2141	0.0193
854.3782	-0.0214
854.5423	0.0275
854.7063	0.1489
854.8703	0.0599
855.0343	0.0071
855.1983	-0.0366
855.3623	0.0574
855.5262	-0.0021
855.6901	0.0283
855.854	-0.0502
856.0179	0.0548
856.1818	0.0278
856.3456	-0.071
856.5094	-0.034
856.6732	-0.033
856.837	-0.085
857.0008	-0.0213
857.1645	-0.082
857.3282	0.0069
857.4919	0.0813
857.6556	-0.0943
857.8192	-0.1167
857.9828	0.0956
858.1465	0.0251
858.31	-0.0192
858.4736	-0.0616
858.6372	-0.2719
858.8007	-0.1979
858.9642	-0.0743
859.1277	-0.0788
859.2911	0.2111
859.4546	-0.053
859.618	-0.5319
859.7814	0.0508
859.9448	-0.052
860.1081	-0.0343
860.2715	0.1282
860.4348	0.2601
860.5981	0.0107
860.7614	0.1145
860.9246	-0.0761
861.0879	-0.3276
861.2511	0.3242
861.4143	-0.0181
861.5774	0.1367
861.7406	-0.0123
861.9037	-0.055
862.0668	-0.1251
862.2299	-0.1745
862.393	-0.4607
862.556	0.0114
862.7191	-0.4207
862.8821	-0.0985
863.0451	0.0014
863.208	0.0991
863.371	-0.0333
863.5339	-0.1886
863.6968	0.0946
863.8597	0.0643
864.0225	-0.131
864.1854	-0.1918
864.3482	-0.1653
864.511	-0.0245
864.6737	-0.0177
864.8365	0.0664
864.9992	-0.1789
865.1619	-0.4177
865.3246	0.4034
865.4873	0.0593
865.65	-0.2027
865.8126	0.0181
865.9752	0.1804
866.1378	-0.2863
866.3004	-0
866.4629	0.2907
866.6254	-0.0479
866.7879	0.1937
866.9504	-0
867.1129	-0
867.2753	0.2383
867.4377	0.2897
867.6001	-0.2977
867.7625	-0.051
867.9249	-0.1641
868.0872	-0.0471
868.2495	0.0393
868.4118	-0.4583
868.5741	-0.7777
868.7363	-0.1363
868.8986	0.006
869.0608	-0.2425
869.223	0.1084
869.3851	-0
869.5473	-0.3244
869.7094	0.2285
869.8715	-0.376
870.0336	-0
870.1957	-0.6911
870.3577	-1.0174
870.5197	-0.2022
870.6817	-0.317
870.8437	-0.2231
871.0057	0.0598
871.1676	-0.3336
871.3295	-0.2166
871.4914	-0
871.6533	-0.3239
871.8151	-0.0906
871.977	-0
872.1388	0.7967
872.3006	-0
872.4623	-0
872.6241	0.5071
872.7858	0.0615
872.9475	0.5705
873.1092	0.5435
873.2709	-0
873.4325	0.47
873.5941	-0.5074
873.7557	-0
873.9173	1.9731
874.0789	0.2758
874.2404	-0.3979
874.4019	0.0786
874.5634	-0.1559
874.7249	-0.2397
874.8863	-0.019
875.0478	0.753
875.2092	-0
875.3706	0.1692
875.5319	-0
875.6933	-0
875.8546	-0.4157
876.0159	-0
876.1772	0.136
876.3385	-0
876.4997	0.6504
876.6609	-0.3478
876.8221	-0.6562
876.9833	-0
877.1445	-0
877.3056	0.1326
877.4667	0.1585
877.6278	-0
877.7889	0.012
877.9499	-0
878.111	-0.777
878.272	-0
878.433	-0
878.5939	0.0406
878.7549	0.4148
878.9158	-0
879.0767	0.5671
879.2376	-0
879.3984	-0
879.5593	-0
879.7201	-0
879.8809	-0.1947
880.0417	-0.5174
880.2024	0.2054
880.3632	-0
880.5239	-0
880.6846	-0
880.8452	-2.5484
881.0059	-0
881.1665	0.1549
881.3271	0.0489
881.4877	-0
881.6483	-0.57
881.8088	-0.5824
881.9693	-0
882.1298	-0
882.2903	-0
