Data from MonoPyChalIsomerACN10uM410nmA_Absorbance_14-53-27-073.txt Node
Date: Fri Jul 05 14:53:27 BST 2024
User: LASERRRRR
Spectrometer: FLMT03099
Trigger mode: 0
Integration Time (sec): 1.000000E-1
Scans to average: 1
Electric dark correction enabled: true
Nonlinearity correction enabled: false
Boxcar width: 0
XAxis mode: Wavelengths
Number of Pixels in Spectrum: 3648
>>>>>Begin Spectral Data<<<<<
179.3399	-0.0324
179.5586	-0.0324
179.7771	-0.0324
179.9957	0
180.2143	-0
180.4329	-0.1693
180.6514	-0
180.8699	0.0912
181.0885	-0.0546
181.307	0.2006
181.5255	-0
181.744	-0.6253
181.9625	-0.404
182.181	-1.4289
182.3994	0.5431
182.6179	-0
182.8363	-0.0369
183.0547	-0.0934
183.2732	-0.0234
183.4916	0.0181
183.71	0.3286
183.9284	-0.0568
184.1467	0.0641
184.3651	0.0668
184.5835	-0.1039
184.8018	0.3116
185.0201	0.2007
185.2385	0.0103
185.4568	0.2472
185.6751	0.2722
185.8934	0.3432
186.1117	-0.0968
186.3299	-0.0827
186.5482	0.1604
186.7664	-0.0861
186.9847	-0.0434
187.2029	0.0446
187.4211	0.0684
187.6393	0.2411
187.8575	-0.076
188.0757	0.4349
188.2939	0.164
188.512	-0
188.7302	0.0241
188.9483	0.3129
189.1665	0.1698
189.3846	0.0541
189.6027	0.5193
189.8208	0.5052
190.0389	0.0903
190.257	0.0815
190.475	0.1661
190.6931	0.6202
190.9111	0.1547
191.1292	0.2072
191.3472	0.3508
191.5652	0.4637
191.7832	0.1852
192.0012	0.6509
192.2192	0.4187
192.4371	0.5415
192.6551	0.5085
192.873	0.577
193.091	0.3257
193.3089	0.4435
193.5268	0.5787
193.7447	0.66
193.9626	0.6311
194.1805	0.6596
194.3984	0.6339
194.6162	0.4664
194.8341	0.703
195.0519	0.622
195.2697	0.7822
195.4875	0.7102
195.7054	0.709
195.9231	0.4871
196.1409	0.5181
196.3587	0.7505
196.5765	0.5636
196.7942	0.6572
197.012	0.6849
197.2297	0.7572
197.4474	0.6901
197.6651	0.5575
197.8828	0.5617
198.1005	0.6154
198.3182	0.6984
198.5358	0.7015
198.7535	0.6626
198.9711	0.5469
199.1888	0.6923
199.4064	0.727
199.624	0.8085
199.8416	0.5481
200.0592	0.6571
200.2767	0.6583
200.4943	0.7454
200.7119	0.6377
200.9294	0.6155
201.1469	0.6227
201.3645	0.6123
201.582	0.5761
201.7995	0.7292
202.017	0.6312
202.2344	0.6254
202.4519	0.6907
202.6694	0.6137
202.8868	0.5412
203.1042	0.8138
203.3217	0.6749
203.5391	0.6096
203.7565	0.5973
203.9739	0.5715
204.1913	0.6958
204.4086	0.6702
204.626	0.7162
204.8433	0.6206
205.0607	0.681
205.278	0.594
205.4953	0.67
205.7126	0.6555
205.9299	0.7755
206.1472	0.6287
206.3644	0.7528
206.5817	0.5955
206.7989	0.8306
207.0162	0.6745
207.2334	0.6483
207.4506	0.6273
207.6678	0.6271
207.885	0.6116
208.1022	0.7125
208.3194	0.6532
208.5365	0.6399
208.7537	0.6682
208.9708	0.5622
209.1879	0.6498
209.405	0.6987
209.6222	0.655
209.8392	0.5768
210.0563	0.5818
210.2734	0.6933
210.4905	0.664
210.7075	0.5741
210.9245	0.5865
211.1416	0.7243
211.3586	0.5894
211.5756	0.5495
211.7926	0.5927
212.0096	0.6113
212.2265	0.5389
212.4435	0.5765
212.6604	0.5752
212.8774	0.6077
213.0943	0.5921
213.3112	0.5626
213.5281	0.5207
213.745	0.5156
213.9619	0.4845
214.1788	0.4611
214.3956	0.438
214.6125	0.4897
214.8293	0.4493
215.0461	0.4703
215.2629	0.4628
215.4798	0.4698
215.6965	0.4043
215.9133	0.4689
216.1301	0.4183
216.3469	0.4206
216.5636	0.4149
216.7803	0.3917
216.9971	0.3993
217.2138	0.3956
217.4305	0.3632
217.6472	0.3403
217.8639	0.3856
218.0805	0.3139
218.2972	0.3125
218.5138	0.311
218.7305	0.3118
218.9471	0.3139
219.1637	0.2821
219.3803	0.2737
219.5969	0.2846
219.8135	0.2724
220.0301	0.2586
220.2466	0.2853
220.4632	0.2619
220.6797	0.2236
220.8962	0.2343
221.1127	0.2333
221.3292	0.2788
221.5457	0.2342
221.7622	0.2324
221.9787	0.2559
222.1951	0.238
222.4116	0.2543
222.628	0.2583
222.8444	0.2468
223.0608	0.2377
223.2772	0.2574
223.4936	0.2422
223.71	0.2358
223.9264	0.2563
224.1427	0.2401
224.3591	0.2397
224.5754	0.2621
224.7917	0.2496
225.008	0.2575
225.2243	0.2439
225.4406	0.2753
225.6569	0.2543
225.8732	0.2644
226.0894	0.2385
226.3057	0.2576
226.5219	0.2784
226.7381	0.2617
226.9543	0.2824
227.1705	0.2715
227.3867	0.2783
227.6029	0.2916
227.8191	0.2915
228.0352	0.3021
228.2513	0.2916
228.4675	0.313
228.6836	0.2946
228.8997	0.2899
229.1158	0.3025
229.3319	0.3097
229.548	0.3031
229.764	0.3385
229.9801	0.3397
230.1961	0.3057
230.4121	0.328
230.6282	0.3274
230.8442	0.3235
231.0602	0.3162
231.2761	0.3449
231.4921	0.3502
231.7081	0.3353
231.924	0.3446
232.14	0.3655
232.3559	0.3306
232.5718	0.3494
232.7877	0.3694
233.0036	0.3387
233.2195	0.3462
233.4353	0.3668
233.6512	0.3427
233.867	0.3716
234.0829	0.3629
234.2987	0.346
234.5145	0.3715
234.7303	0.3548
234.9461	0.3854
235.1619	0.3731
235.3776	0.3815
235.5934	0.3695
235.8091	0.3721
236.0249	0.3808
236.2406	0.3977
236.4563	0.3719
236.672	0.3804
236.8877	0.4025
237.1034	0.3921
237.319	0.3795
237.5347	0.3979
237.7503	0.3978
237.966	0.4029
238.1816	0.4042
238.3972	0.408
238.6128	0.3886
238.8284	0.3991
239.0439	0.391
239.2595	0.395
239.475	0.4018
239.6906	0.4044
239.9061	0.4095
240.1216	0.3988
240.3371	0.403
240.5526	0.4153
240.7681	0.4093
240.9836	0.3896
241.199	0.4124
241.4145	0.3799
241.6299	0.3893
241.8453	0.3742
242.0607	0.3891
242.2761	0.3715
242.4915	0.3704
242.7069	0.3671
242.9223	0.366
243.1376	0.3567
243.353	0.3479
243.5683	0.3338
243.7836	0.3291
243.9989	0.3443
244.2142	0.3126
244.4295	0.3249
244.6448	0.3082
244.86	0.3171
245.0753	0.2814
245.2905	0.2977
245.5057	0.2806
245.721	0.2814
245.9362	0.2788
246.1514	0.2729
246.3665	0.2769
246.5817	0.2512
246.7969	0.2591
247.012	0.2524
247.2271	0.2476
247.4423	0.2495
247.6574	0.2444
247.8725	0.237
248.0876	0.2212
248.3026	0.2347
248.5177	0.2279
248.7328	0.2237
248.9478	0.199
249.1628	0.206
249.3779	0.2197
249.5929	0.2027
249.8079	0.2215
250.0228	0.2048
250.2378	0.1977
250.4528	0.2018
250.6677	0.1879
250.8827	0.1985
251.0976	0.1959
251.3125	0.1912
251.5274	0.1672
251.7423	0.1915
251.9572	0.1898
252.172	0.1937
252.3869	0.1827
252.6017	0.1766
252.8166	0.1763
253.0314	0.1718
253.2462	0.1641
253.461	0.1786
253.6758	0.1759
253.8906	0.1782
254.1053	0.1715
254.3201	0.1709
254.5348	0.1923
254.7496	0.175
254.9643	0.1638
255.179	0.1694
255.3937	0.1722
255.6083	0.1861
255.823	0.1804
256.0377	0.1628
256.2523	0.1792
256.467	0.1477
256.6816	0.1637
256.8962	0.1655
257.1108	0.1607
257.3254	0.1731
257.54	0.1622
257.7545	0.1642
257.9691	0.1752
258.1836	0.1553
258.3981	0.1813
258.6127	0.162
258.8272	0.1513
259.0417	0.1616
259.2561	0.1474
259.4706	0.1726
259.6851	0.1762
259.8995	0.1648
260.114	0.1526
260.3284	0.1658
260.5428	0.1554
260.7572	0.1666
260.9716	0.1677
261.186	0.1649
261.4003	0.1573
261.6147	0.1598
261.829	0.1621
262.0433	0.1611
262.2577	0.1744
262.472	0.1694
262.6863	0.1647
262.9005	0.1637
263.1148	0.1657
263.3291	0.1488
263.5433	0.1656
263.7576	0.1646
263.9718	0.1541
264.186	0.1655
264.4002	0.1603
264.6144	0.1719
264.8286	0.1779
265.0427	0.1647
265.2569	0.1549
265.471	0.1512
265.6851	0.1555
265.8993	0.1562
266.1134	0.1595
266.3275	0.1638
266.5415	0.1555
266.7556	0.1653
266.9697	0.1635
267.1837	0.1631
267.3978	0.155
267.6118	0.1685
267.8258	0.1755
268.0398	0.1533
268.2538	0.1594
268.4677	0.1669
268.6817	0.1606
268.8957	0.1706
269.1096	0.169
269.3235	0.1707
269.5374	0.1673
269.7514	0.1573
269.9652	0.1512
270.1791	0.1447
270.393	0.1541
270.6068	0.1528
270.8207	0.1405
271.0345	0.1443
271.2483	0.1545
271.4622	0.1452
271.676	0.153
271.8897	0.1413
272.1035	0.1538
272.3173	0.1486
272.531	0.1468
272.7448	0.1459
272.9585	0.1449
273.1722	0.1487
273.3859	0.1634
273.5996	0.1465
273.8133	0.1594
274.0269	0.1366
274.2406	0.1374
274.4542	0.1376
274.6679	0.1491
274.8815	0.1497
275.0951	0.1488
275.3087	0.1553
275.5223	0.1576
275.7358	0.1542
275.9494	0.1631
276.1629	0.1377
276.3765	0.1503
276.59	0.147
276.8035	0.15
277.017	0.1461
277.2305	0.1471
277.444	0.1508
277.6574	0.1524
277.8709	0.1458
278.0843	0.1397
278.2978	0.1413
278.5112	0.1554
278.7246	0.1384
278.938	0.1389
279.1513	0.1519
279.3647	0.1536
279.5781	0.1482
279.7914	0.1468
280.0047	0.1626
280.2181	0.162
280.4314	0.1467
280.6447	0.1533
280.8579	0.1462
281.0712	0.1644
281.2845	0.1554
281.4977	0.1467
281.711	0.1374
281.9242	0.1513
282.1374	0.1513
282.3506	0.1528
282.5638	0.1514
282.7769	0.1626
282.9901	0.1566
283.2033	0.1634
283.4164	0.1661
283.6295	0.1516
283.8426	0.1535
284.0557	0.1449
284.2688	0.1676
284.4819	0.1723
284.695	0.1571
284.908	0.1695
285.1211	0.1539
285.3341	0.163
285.5471	0.1529
285.7601	0.1525
285.9731	0.1499
286.1861	0.1558
286.3991	0.1735
286.612	0.1644
286.825	0.1563
287.0379	0.1542
287.2508	0.1579
287.4637	0.1607
287.6766	0.1441
287.8895	0.1641
288.1024	0.1829
288.3152	0.1644
288.5281	0.166
288.7409	0.1649
288.9538	0.1641
289.1666	0.1624
289.3794	0.1568
289.5922	0.1517
289.8049	0.162
290.0177	0.1586
290.2304	0.1626
290.4432	0.1582
290.6559	0.1584
290.8686	0.1636
291.0813	0.1625
291.294	0.1562
291.5067	0.1692
291.7194	0.1549
291.932	0.1738
292.1447	0.1653
292.3573	0.1566
292.5699	0.16
292.7825	0.1617
292.9951	0.162
293.2077	0.1577
293.4203	0.162
293.6328	0.1491
293.8454	0.1678
294.0579	0.1517
294.2704	0.1504
294.4829	0.1477
294.6954	0.1578
294.9079	0.1661
295.1204	0.1565
295.3328	0.1593
295.5453	0.1555
295.7577	0.1676
295.9701	0.144
296.1825	0.1595
296.3949	0.1674
296.6073	0.1693
296.8197	0.1533
297.0321	0.1677
297.2444	0.1452
297.4567	0.1581
297.6691	0.1524
297.8814	0.1476
298.0937	0.1526
298.306	0.158
298.5182	0.1524
298.7305	0.1663
298.9428	0.1549
299.155	0.1606
299.3672	0.1526
299.5794	0.1499
299.7916	0.1554
300.0038	0.1559
300.216	0.1581
300.4282	0.1628
300.6403	0.1508
300.8525	0.1644
301.0646	0.146
301.2767	0.1528
301.4888	0.153
301.7009	0.1553
301.913	0.1594
302.125	0.1533
302.3371	0.1495
302.5491	0.1659
302.7612	0.1554
302.9732	0.1589
303.1852	0.1586
303.3972	0.1549
303.6092	0.1481
303.8211	0.1473
304.0331	0.1434
304.245	0.1471
304.457	0.1426
304.6689	0.147
304.8808	0.1614
305.0927	0.1473
305.3046	0.1475
305.5164	0.1584
305.7283	0.1457
305.9401	0.1454
306.152	0.144
306.3638	0.1458
306.5756	0.1397
306.7874	0.144
306.9992	0.1464
307.2109	0.1403
307.4227	0.123
307.6344	0.1359
307.8462	0.1377
308.0579	0.131
308.2696	0.1342
308.4813	0.13
308.693	0.1265
308.9046	0.1441
309.1163	0.1223
309.328	0.1263
309.5396	0.1273
309.7512	0.1229
309.9628	0.1134
310.1744	0.1213
310.386	0.1144
310.5976	0.1135
310.8091	0.1167
311.0207	0.1163
311.2322	0.1206
311.4437	0.1154
311.6552	0.1046
311.8667	0.1145
312.0782	0.1056
312.2897	0.1013
312.5012	0.1044
312.7126	0.1054
312.924	0.1052
313.1355	0.1133
313.3469	0.114
313.5583	0.1027
313.7696	0.1173
313.981	0.106
314.1924	0.1068
314.4037	0.1127
314.6151	0.1065
314.8264	0.1084
315.0377	0.1019
315.249	0.1058
315.4603	0.1139
315.6716	0.1013
315.8828	0.0936
316.0941	0.1102
316.3053	0.1
316.5165	0.087
316.7277	0.0921
316.9389	0.1096
317.1501	0.104
317.3613	0.1041
317.5724	0.0928
317.7836	0.0969
317.9947	0.1058
318.2058	0.0968
318.417	0.0908
318.6281	0.0855
318.8391	0.0964
319.0502	0.1094
319.2613	0.0994
319.4723	0.0948
319.6834	0.1086
319.8944	0.1053
320.1054	0.1
320.3164	0.1071
320.5274	0.0843
320.7383	0.0996
320.9493	0.092
321.1602	0.1041
321.3712	0.0874
321.5821	0.1107
321.793	0.1078
322.0039	0.0962
322.2148	0.0942
322.4257	0.1064
322.6365	0.1149
322.8474	0.1033
323.0582	0.0812
323.269	0.1093
323.4798	0.1154
323.6906	0.105
323.9014	0.1083
324.1122	0.1011
324.3229	0.1001
324.5337	0.0991
324.7444	0.0961
324.9551	0.1099
325.1658	0.1052
325.3765	0.1191
325.5872	0.1153
325.7979	0.1129
326.0085	0.1098
326.2192	0.1107
326.4298	0.1078
326.6404	0.1052
326.851	0.1019
327.0616	0.1094
327.2722	0.1106
327.4828	0.1083
327.6933	0.1036
327.9039	0.1114
328.1144	0.1251
328.3249	0.1198
328.5354	0.0948
328.7459	0.1058
328.9564	0.0941
329.1669	0.1045
329.3773	0.108
329.5878	0.1109
329.7982	0.1028
330.0086	0.1071
330.219	0.1047
330.4294	0.1097
330.6398	0.1028
330.8502	0.0995
331.0605	0.1021
331.2708	0.1125
331.4812	0.1108
331.6915	0.1096
331.9018	0.1186
332.1121	0.1034
332.3224	0.1066
332.5326	0.114
332.7429	0.1032
332.9531	0.1253
333.1633	0.1111
333.3735	0.1114
333.5837	0.1137
333.7939	0.1114
334.0041	0.1199
334.2143	0.1261
334.4244	0.1223
334.6346	0.0837
334.8447	0.1104
335.0548	0.1157
335.2649	0.1021
335.475	0.1173
335.685	0.1036
335.8951	0.1233
336.1051	0.1163
336.3152	0.1217
336.5252	0.1111
336.7352	0.1172
336.9452	0.1206
337.1552	0.1239
337.3652	0.1055
337.5751	0.1296
337.7851	0.1187
337.995	0.1113
338.2049	0.1278
338.4148	0.1091
338.6247	0.1157
338.8346	0.116
339.0445	0.1019
339.2543	0.1229
339.4642	0.1321
339.674	0.0995
339.8838	0.1207
340.0936	0.1187
340.3034	0.1244
340.5132	0.129
340.7229	0.12
340.9327	0.1194
341.1424	0.1309
341.3522	0.1337
341.5619	0.1276
341.7716	0.1206
341.9813	0.1276
342.1909	0.1254
342.4006	0.1307
342.6102	0.1367
342.8199	0.1289
343.0295	0.1317
343.2391	0.133
343.4487	0.1333
343.6583	0.1196
343.8679	0.1238
344.0774	0.1268
344.287	0.1376
344.4965	0.1338
344.706	0.1312
344.9155	0.1195
345.125	0.1255
345.3345	0.144
345.544	0.1184
345.7534	0.1299
345.9629	0.1258
346.1723	0.1421
346.3817	0.1301
346.5911	0.127
346.8005	0.1361
347.0099	0.1308
347.2193	0.1315
347.4286	0.1353
347.638	0.1411
347.8473	0.1386
348.0566	0.1405
348.2659	0.1382
348.4752	0.1402
348.6845	0.1379
348.8937	0.1324
349.103	0.1378
349.3122	0.134
349.5214	0.1354
349.7306	0.1441
349.9398	0.1328
350.149	0.1367
350.3582	0.1374
350.5674	0.155
350.7765	0.1293
350.9856	0.1335
351.1948	0.1442
351.4039	0.1283
351.613	0.1313
351.822	0.1462
352.0311	0.1552
352.2402	0.1409
352.4492	0.1428
352.6582	0.1518
352.8672	0.1488
353.0762	0.143
353.2852	0.1425
353.4942	0.1374
353.7032	0.1497
353.9121	0.15
354.1211	0.1396
354.33	0.1526
354.5389	0.1554
354.7478	0.1615
354.9567	0.1575
355.1655	0.1457
355.3744	0.1669
355.5833	0.1494
355.7921	0.167
356.0009	0.1494
356.2097	0.1686
356.4185	0.1721
356.6273	0.1567
356.8361	0.1545
357.0448	0.1579
357.2536	0.1625
357.4623	0.1408
357.671	0.1689
357.8797	0.1562
358.0884	0.1714
358.2971	0.1691
358.5057	0.1558
358.7144	0.1618
358.923	0.1627
359.1316	0.1744
359.3402	0.1644
359.5488	0.1658
359.7574	0.1748
359.966	0.1762
360.1746	0.1603
360.3831	0.171
360.5916	0.1729
360.8002	0.1695
361.0087	0.1835
361.2172	0.17
361.4256	0.1741
361.6341	0.195
361.8426	0.1738
362.051	0.1905
362.2594	0.1679
362.4678	0.1991
362.6762	0.1968
362.8846	0.1827
363.093	0.1726
363.3014	0.1918
363.5097	0.1632
363.718	0.187
363.9264	0.1774
364.1347	0.1744
364.343	0.1927
364.5513	0.181
364.7595	0.1908
364.9678	0.1987
365.176	0.1931
365.3842	0.1997
365.5925	0.1805
365.8007	0.1974
366.0089	0.1996
366.217	0.1806
366.4252	0.1994
366.6333	0.1967
366.8415	0.1929
367.0496	0.1891
367.2577	0.202
367.4658	0.2237
367.6739	0.2113
367.882	0.1996
368.09	0.1939
368.2981	0.2084
368.5061	0.2073
368.7141	0.1946
368.9221	0.2129
369.1301	0.2123
369.3381	0.1986
369.5461	0.2106
369.754	0.2035
369.962	0.2078
370.1699	0.214
370.3778	0.2263
370.5857	0.1856
370.7936	0.2077
371.0015	0.205
371.2093	0.2078
371.4172	0.223
371.625	0.1964
371.8328	0.2001
372.0406	0.2089
372.2484	0.2047
372.4562	0.2198
372.664	0.2091
372.8717	0.228
373.0795	0.2069
373.2872	0.2021
373.4949	0.2169
373.7026	0.2218
373.9103	0.2072
374.118	0.2318
374.3256	0.2209
374.5333	0.1967
374.7409	0.2266
374.9485	0.2255
375.1561	0.2205
375.3637	0.2217
375.5713	0.2185
375.7789	0.2184
375.9864	0.2295
376.194	0.2188
376.4015	0.2291
376.609	0.2473
376.8165	0.2292
377.024	0.2189
377.2315	0.2214
377.4389	0.2351
377.6464	0.2285
377.8538	0.2359
378.0612	0.2278
378.2686	0.2358
378.476	0.2342
378.6834	0.2297
378.8908	0.2371
379.0981	0.2417
379.3055	0.2336
379.5128	0.2361
379.7201	0.2444
379.9274	0.2203
380.1347	0.2413
380.342	0.2452
380.5492	0.2389
380.7565	0.2207
380.9637	0.2352
381.1709	0.2375
381.3781	0.2358
381.5853	0.2354
381.7925	0.2413
381.9997	0.2481
382.2068	0.2575
382.4139	0.2327
382.6211	0.2209
382.8282	0.2192
383.0353	0.2273
383.2424	0.2349
383.4494	0.2507
383.6565	0.2385
383.8635	0.2461
384.0706	0.2494
384.2776	0.251
384.4846	0.2299
384.6916	0.2367
384.8986	0.234
385.1055	0.2381
385.3125	0.2362
385.5194	0.2266
385.7263	0.2487
385.9333	0.2611
386.1402	0.2592
386.347	0.2346
386.5539	0.2289
386.7608	0.2585
386.9676	0.2324
387.1744	0.238
387.3813	0.239
387.5881	0.2492
387.7948	0.231
388.0016	0.2457
388.2084	0.2352
388.4151	0.2093
388.6219	0.2322
388.8286	0.2395
389.0353	0.2502
389.242	0.2392
389.4487	0.2177
389.6553	0.2129
389.862	0.2014
390.0686	0.224
390.2753	0.2494
390.4819	0.2354
390.6885	0.2281
390.8951	0.2184
391.1016	0.2185
391.3082	0.2231
391.5147	0.2184
391.7213	0.2402
391.9278	0.2277
392.1343	0.21
392.3408	0.217
392.5473	0.2097
392.7537	0.2081
392.9602	0.222
393.1666	0.2218
393.373	0.221
393.5794	0.2234
393.7858	0.2151
393.9922	0.2036
394.1986	0.2204
394.4049	0.2152
394.6113	0.2093
394.8176	0.197
395.0239	0.1993
395.2302	0.1946
395.4365	0.2142
395.6428	0.2101
395.8491	0.1953
396.0553	0.1942
396.2615	0.2069
396.4678	0.1962
396.674	0.1838
396.8802	0.2059
397.0863	0.2109
397.2925	0.202
397.4987	0.2053
397.7048	0.1989
397.9109	0.2012
398.117	0.1878
398.3231	0.1951
398.5292	0.2095
398.7353	0.2098
398.9413	0.1992
399.1474	0.181
399.3534	0.1919
399.5594	0.1788
399.7654	0.2089
399.9714	0.2137
400.1774	0.1834
400.3833	0.1918
400.5893	0.1989
400.7952	0.1959
401.0011	0.1866
401.207	0.199
401.4129	0.211
401.6188	0.2035
401.8247	0.1979
402.0305	0.1819
402.2364	0.1909
402.4422	0.2145
402.648	0.1879
402.8538	0.2119
403.0596	0.2015
403.2654	0.199
403.4711	0.1854
403.6768	0.1957
403.8826	0.2
404.0883	0.2106
404.294	0.2154
404.4997	0.1933
404.7054	0.1942
404.911	0.1829
405.1167	0.1896
405.3223	0.2072
405.5279	0.2036
405.7335	0.1993
405.9391	0.2007
406.1447	0.188
406.3502	0.2298
406.5558	0.205
406.7613	0.1988
406.9668	0.2067
407.1724	0.1849
407.3778	0.1903
407.5833	0.208
407.7888	0.187
407.9942	0.2367
408.1997	0.1839
408.4051	0.1909
408.6105	0.2151
408.8159	0.1933
409.0213	0.1877
409.2267	0.1961
409.432	0.1855
409.6374	0.1947
409.8427	0.1944
410.048	0.193
410.2533	0.1895
410.4586	0.2055
410.6639	0.199
410.8691	0.1913
411.0744	0.1982
411.2796	0.1951
411.4848	0.1811
411.69	0.187
411.8952	0.2086
412.1004	0.1981
412.3056	0.1939
412.5107	0.1937
412.7158	0.2106
412.921	0.1941
413.1261	0.19
413.3312	0.1941
413.5362	0.1797
413.7413	0.1832
413.9464	0.183
414.1514	0.1906
414.3564	0.1738
414.5614	0.1888
414.7664	0.1893
414.9714	0.191
415.1764	0.1868
415.3813	0.1887
415.5863	0.1954
415.7912	0.1887
415.9961	0.1932
416.201	0.187
416.4059	0.2048
416.6108	0.1749
416.8156	0.204
417.0205	0.186
417.2253	0.181
417.4301	0.1628
417.6349	0.1761
417.8397	0.1823
418.0445	0.1834
418.2492	0.1829
418.454	0.1755
418.6587	0.1901
418.8634	0.1783
419.0681	0.153
419.2728	0.2008
419.4775	0.1733
419.6822	0.1786
419.8868	0.1523
420.0915	0.1797
420.2961	0.1665
420.5007	0.1635
420.7053	0.1718
420.9099	0.178
421.1144	0.1761
421.319	0.163
421.5235	0.1691
421.728	0.1863
421.9325	0.1688
422.137	0.1862
422.3415	0.1628
422.546	0.1766
422.7504	0.1696
422.9549	0.1689
423.1593	0.1629
423.3637	0.1626
423.5681	0.18
423.7725	0.1493
423.9769	0.162
424.1812	0.1486
424.3856	0.1447
424.5899	0.1662
424.7942	0.1521
424.9985	0.1694
425.2028	0.1457
425.4071	0.1767
425.6113	0.1503
425.8156	0.1672
426.0198	0.1547
426.224	0.1523
426.4282	0.1441
426.6324	0.1538
426.8366	0.1433
427.0407	0.15
427.2449	0.1357
427.449	0.155
427.6531	0.1307
427.8572	0.1417
428.0613	0.1439
428.2654	0.1431
428.4694	0.1449
428.6735	0.1466
428.8775	0.153
429.0815	0.1586
429.2855	0.1499
429.4895	0.1447
429.6935	0.1313
429.8975	0.1429
430.1014	0.132
430.3053	0.1295
430.5093	0.1478
430.7132	0.1329
430.9171	0.1214
431.1209	0.1393
431.3248	0.1301
431.5286	0.1378
431.7325	0.1326
431.9363	0.1185
432.1401	0.1292
432.3439	0.1233
432.5477	0.0933
432.7514	0.1178
432.9552	0.103
433.1589	0.1063
433.3627	0.1079
433.5664	0.1138
433.7701	0.098
433.9737	0.1134
434.1774	0.1071
434.3811	0.105
434.5847	0.1352
434.7883	0.089
434.9919	0.1068
435.1955	0.0987
435.3991	0.0911
435.6027	0.1075
435.8062	0.094
436.0098	0.0817
436.2133	0.0954
436.4168	0.075
436.6203	0.0921
436.8238	0.1073
437.0272	0.0877
437.2307	0.0861
437.4341	0.1054
437.6375	0.0963
437.841	0.0855
438.0443	0.0867
438.2477	0.0817
438.4511	0.0751
438.6545	0.0915
438.8578	0.0858
439.0611	0.0815
439.2644	0.0709
439.4677	0.0703
439.671	0.0754
439.8743	0.0777
440.0775	0.0835
440.2808	0.0641
440.484	0.0554
440.6872	0.0725
440.8904	0.0545
441.0936	0.0736
441.2967	0.0634
441.4999	0.0608
441.703	0.0672
441.9062	0.0453
442.1093	0.0588
442.3124	0.0467
442.5155	0.0499
442.7185	0.0506
442.9216	0.0411
443.1246	0.0656
443.3276	0.0552
443.5307	0.0554
443.7337	0.0759
443.9366	0.0518
444.1396	0.0506
444.3426	0.0526
444.5455	0.0468
444.7484	0.0351
444.9513	0.0427
445.1542	0.066
445.3571	0.0287
445.56	0.0554
445.7628	0.0274
445.9657	0.0385
446.1685	0.0497
446.3713	0.0434
446.5741	0.0329
446.7769	0.0273
446.9797	0.043
447.1824	0.0372
447.3852	0.0362
447.5879	0.0285
447.7906	0.0446
447.9933	0.0379
448.196	0.0222
448.3986	0.0325
448.6013	0.0059
448.8039	0.02
449.0066	0.0404
449.2092	0.0306
449.4118	0.0309
449.6143	0.0385
449.8169	0.0359
450.0195	0.0053
450.222	0.011
450.4245	0.0299
450.627	0.0449
450.8295	0.0132
451.032	0.0199
451.2345	0.0229
451.4369	0.0266
451.6394	0.0238
451.8418	0.0186
452.0442	0.0115
452.2466	0.0248
452.449	-0.0066
452.6513	0.0202
452.8537	0.0124
453.056	0.0142
453.2583	0.0159
453.4607	0.0291
453.663	0.0079
453.8652	0.0389
454.0675	0.0112
454.2697	0.0176
454.472	0.0045
454.6742	0.0232
454.8764	0.0074
455.0786	0.0091
455.2808	0.0089
455.4829	0.0182
455.6851	0.0158
455.8872	0.0132
456.0893	0.0223
456.2915	0.0044
456.4935	0.0193
456.6956	0.0049
456.8977	0.0125
457.0997	0.0027
457.3018	-0.0039
457.5038	0.0135
457.7058	0.0053
457.9078	-0.0003
458.1098	0.0053
458.3117	0.0145
458.5137	0.0064
458.7156	0.0136
458.9175	-0.0123
459.1194	0.0006
459.3213	0.0043
459.5232	-0.0002
459.725	-0.0012
459.9269	-0.0025
460.1287	-0.0137
460.3305	0.0096
460.5323	-0.0034
460.7341	-0.0037
460.9359	0.0065
461.1376	0.0171
461.3394	-0.0112
461.5411	0.0114
461.7428	-0.009
461.9445	0.0051
462.1462	0.0129
462.3479	-0.0097
462.5495	-0.0108
462.7512	-0.0055
462.9528	0.0044
463.1544	-0.0152
463.356	0.0017
463.5576	0.0065
463.7592	-0.006
463.9607	-0.0031
464.1623	0.0104
464.3638	0.0204
464.5653	-0.0157
464.7668	0.015
464.9683	0.0101
465.1697	0.015
465.3712	-0.0099
465.5726	-0.0065
465.7741	-0.0148
465.9755	0.0028
466.1769	-0.0075
466.3782	0.012
466.5796	-0.02
466.7809	0.0026
466.9823	-0.0011
467.1836	-0.0021
467.3849	-0.0065
467.5862	0.0043
467.7875	-0.001
467.9887	0.0231
468.19	-0.0067
468.3912	-0.0061
468.5924	0.0003
468.7936	0.0142
468.9948	-0.0034
469.196	-0.0085
469.3972	-0.0078
469.5983	-0.0027
469.7994	-0.0229
470.0006	-0.0068
470.2017	-0.005
470.4027	-0.0086
470.6038	-0.0058
470.8049	-0.0143
471.0059	-0.0099
471.2069	-0.019
471.408	0.0139
471.6089	0.0008
471.8099	-0.0012
472.0109	0.0033
472.2119	-0.0045
472.4128	-0.0169
472.6137	0.0041
472.8146	-0.0148
473.0155	-0.0067
473.2164	-0.0058
473.4173	-0.0038
473.6181	0.0051
473.819	-0.009
474.0198	-0.0048
474.2206	-0.007
474.4214	0.0011
474.6222	-0.0068
474.8229	-0.0185
475.0237	-0.0082
475.2244	-0.015
475.4251	-0.0037
475.6258	-0.0011
475.8265	0.0035
476.0272	0.0039
476.2278	-0.0019
476.4285	-0.0059
476.6291	-0.0006
476.8297	-0.0068
477.0303	-0.009
477.2309	-0.0167
477.4315	-0.0048
477.632	0.0011
477.8326	-0.0051
478.0331	0.0051
478.2336	0.0004
478.4341	-0.0135
478.6346	-0.0187
478.8351	-0.0135
479.0355	-0.0026
479.236	-0.0082
479.4364	-0.0109
479.6368	-0.0045
479.8372	-0.0171
480.0376	-0.0072
480.2379	-0.0241
480.4383	-0.0168
480.6386	0.0002
480.8389	-0.0097
481.0392	-0.0146
481.2395	-0.011
481.4398	0.0006
481.6401	-0.007
481.8403	-0.0098
482.0405	-0.0049
482.2408	-0.0076
482.441	-0.0031
482.6411	-0.0073
482.8413	-0.0041
483.0415	-0.017
483.2416	-0.0147
483.4417	-0.0071
483.6419	-0.011
483.8419	-0.0063
484.042	-0.0128
484.2421	0.0085
484.4422	-0.0004
484.6422	-0.0189
484.8422	-0.0134
485.0422	-0.0161
485.2422	0.0004
485.4422	-0.0124
485.6422	-0.0051
485.8421	-0.012
486.042	0.0025
486.242	-0.0054
486.4419	-0.0135
486.6417	-0.0143
486.8416	-0.0105
487.0415	-0.0066
487.2413	-0.0103
487.4411	-0.0117
487.641	-0.0128
487.8408	-0.0027
488.0405	-0.0132
488.2403	-0.0052
488.4401	0.0053
488.6398	0.0006
488.8395	-0.0133
489.0392	-0.0011
489.2389	-0.0108
489.4386	-0.0195
489.6383	-0.0058
489.8379	-0.0015
490.0376	-0.011
490.2372	-0.012
490.4368	-0.0102
490.6364	-0.0084
490.836	-0.0165
491.0355	-0.0104
491.2351	-0.0146
491.4346	-0.0063
491.6341	-0.0226
491.8336	-0.006
492.0331	-0.0177
492.2326	-0.0155
492.432	-0.0085
492.6315	-0.017
492.8309	-0.0229
493.0303	-0.0237
493.2297	-0.0102
493.4291	-0.0061
493.6284	-0.0094
493.8278	-0.0078
494.0271	-0.0012
494.2264	-0.0091
494.4257	-0.0175
494.625	-0.0057
494.8243	-0.0177
495.0236	-0.0076
495.2228	-0.0112
495.422	0.0026
495.6213	-0.0042
495.8205	-0.0112
496.0196	-0.0024
496.2188	-0.005
496.418	-0.0152
496.6171	-0.0186
496.8162	-0.0099
497.0153	-0.0024
497.2144	-0.0113
497.4135	-0.0101
497.6126	-0.0185
497.8116	-0.018
498.0107	-0.0048
498.2097	-0.0196
498.4087	-0.0058
498.6077	-0.0026
498.8067	-0.0083
499.0056	-0.0055
499.2046	-0.0153
499.4035	-0.0219
499.6024	-0.0126
499.8013	-0.0045
500.0002	-0.0123
500.199	-0.0113
500.3979	-0.0166
500.5967	-0.0224
500.7956	-0.0007
500.9944	-0.0021
501.1932	-0.0157
501.3919	-0.0088
501.5907	-0.0169
501.7895	-0.015
501.9882	-0.0081
502.1869	-0.0208
502.3856	-0.0133
502.5843	-0.0112
502.783	-0.0074
502.9816	-0.0065
503.1803	-0.0149
503.3789	-0.0079
503.5775	-0.0074
503.7761	-0.0074
503.9747	-0.0206
504.1732	-0.0115
504.3718	-0.0009
504.5703	-0.008
504.7689	-0.0183
504.9674	-0.0054
505.1658	-0.0188
505.3643	-0.0104
505.5628	-0.0102
505.7612	-0.0165
505.9597	-0.0054
506.1581	-0.0168
506.3565	-0.0066
506.5549	-0.0181
506.7532	-0.0198
506.9516	-0.0126
507.1499	-0.0021
507.3482	-0.0188
507.5465	-0.0142
507.7448	-0.0112
507.9431	-0.009
508.1414	-0.015
508.3396	-0.0084
508.5379	-0.0076
508.7361	-0.0072
508.9343	-0.008
509.1325	-0.0033
509.3306	-0.0077
509.5288	-0.0141
509.7269	-0.0096
509.9251	-0.0043
510.1232	-0.0123
510.3213	-0.0175
510.5193	-0.0015
510.7174	-0.02
510.9154	-0.0138
511.1135	-0.0048
511.3115	-0.0125
511.5095	-0.0098
511.7075	-0.0208
511.9055	-0.0096
512.1034	-0.0158
512.3014	-0.0132
512.4993	-0.0026
512.6972	-0.0048
512.8951	-0.0279
513.093	-0.006
513.2908	-0.0024
513.4887	-0.0081
513.6865	-0.0035
513.8844	-0.0138
514.0822	-0.0142
514.2799	-0.0156
514.4777	-0.0033
514.6755	-0.0083
514.8732	-0.0125
515.0709	-0.008
515.2687	-0.0116
515.4664	-0.0082
515.664	-0.0087
515.8617	-0.0116
516.0594	-0.016
516.257	-0.0108
516.4546	-0.0203
516.6522	-0.0011
516.8498	-0.0054
517.0474	-0.0052
517.2449	-0.0026
517.4425	-0.0135
517.64	-0.0092
517.8375	-0.0073
518.035	-0.0062
518.2325	-0.0175
518.43	-0.0116
518.6274	-0.0129
518.8249	-0.0227
519.0223	-0.0005
519.2197	-0.0149
519.4171	-0.0044
519.6145	-0.015
519.8118	-0.009
520.0092	-0.0141
520.2065	-0.0124
520.4038	-0.0187
520.6011	-0.0106
520.7984	-0.0097
520.9956	-0.0112
521.1929	-0.011
521.3901	-0.0007
521.5874	-0.0064
521.7846	-0.0132
521.9818	-0.0126
522.1789	-0.0119
522.3761	-0.0074
522.5732	-0.0027
522.7704	-0.0124
522.9675	-0.0124
523.1646	-0.0223
523.3617	-0.0038
523.5587	-0.0044
523.7558	-0.004
523.9528	-0.0048
524.1498	-0.0125
524.3468	-0.0094
524.5438	-0.008
524.7408	-0.0118
524.9378	-0.0089
525.1347	-0.0152
525.3316	-0.0082
525.5285	-0.0138
525.7254	-0.0101
525.9223	-0.0058
526.1192	-0.0075
526.316	-0.0152
526.5129	-0.0111
526.7097	-0.0059
526.9065	-0.0057
527.1033	-0.0155
527.3	-0.0005
527.4968	-0.0066
527.6935	-0.0093
527.8903	-0.016
528.087	-0.0035
528.2837	-0.009
528.4804	-0.0004
528.677	-0.0068
528.8737	-0.0039
529.0703	-0.0038
529.2669	-0.0057
529.4635	-0.0004
529.6601	-0.0114
529.8567	-0.0115
530.0532	-0.0022
530.2498	-0.0055
530.4463	-0.0063
530.6428	-0.011
530.8393	0.0017
531.0358	-0.0096
531.2322	-0.0031
531.4287	-0.0027
531.6251	-0.0118
531.8215	-0.0079
532.0179	-0.0091
532.2143	-0.0034
532.4107	-0.0125
532.607	-0.0081
532.8034	-0.0023
532.9997	0.0074
533.196	0.0003
533.3923	0.0004
533.5886	-0.0016
533.7848	-0.0145
533.9811	0.0004
534.1773	-0.0107
534.3735	0.0004
534.5697	0.0022
534.7659	-0.0118
534.9621	-0.0011
535.1582	-0.0074
535.3544	-0.0099
535.5505	-0.0183
535.7466	-0.0089
535.9427	-0.0097
536.1387	-0.0088
536.3348	-0.011
536.5308	0.011
536.7269	-0.0132
536.9229	-0.0055
537.1189	-0.0054
537.3148	-0.0091
537.5108	-0.0149
537.7068	-0.0106
537.9027	-0.0067
538.0986	-0.0151
538.2945	-0.0217
538.4904	-0.007
538.6863	-0.0139
538.8821	-0.0075
539.078	-0.0076
539.2738	-0.004
539.4696	-0.0135
539.6654	-0.0016
539.8611	0.0036
540.0569	-0
540.2526	-0.0087
540.4484	0.0002
540.6441	0.0016
540.8398	0.0002
541.0355	-0.0069
541.2311	-0.0029
541.4268	-0.0094
541.6224	0.0031
541.818	-0.0088
542.0136	-0.0103
542.2092	-0.0149
542.4048	-0.0076
542.6003	-0.0107
542.7959	-0.0011
542.9914	-0.0109
543.1869	-0.0009
543.3824	-0.0044
543.5779	-0.005
543.7734	-0.0033
543.9688	-0.0115
544.1642	-0.0011
544.3596	0.0031
544.555	-0.0115
544.7504	-0.0009
544.9458	-0.0125
545.1411	-0.0051
545.3365	-0.0119
545.5318	-0.0047
545.7271	0.0043
545.9224	-0.0003
546.1177	0.0022
546.3129	-0.0005
546.5081	-0.0108
546.7034	-0.0047
546.8986	-0.0083
547.0938	-0.0112
547.289	0.0004
547.4841	-0.0028
547.6793	0.0001
547.8744	-0.0128
548.0695	-0.0017
548.2646	-0.0099
548.4597	0.0093
548.6548	-0.0066
548.8498	0.0045
549.0448	0.0002
549.2399	-0.008
549.4349	0.0079
549.6298	-0.0005
549.8248	0.0021
550.0198	-0.0008
550.2147	-0.0079
550.4096	-0.0108
550.6045	-0.0137
550.7994	0.0026
550.9943	-0.0053
551.1892	-0.0032
551.384	0.0007
551.5788	-0.0117
551.7737	-0.0014
551.9685	0.0049
552.1632	0.0066
552.358	-0.0052
552.5528	-0.0022
552.7475	-0.0085
552.9422	0.0014
553.1369	-0.0006
553.3316	0.0042
553.5263	-0.0091
553.7209	-0.0032
553.9156	-0.0155
554.1102	-0.0198
554.3048	-0.0065
554.4994	0.0077
554.694	-0.008
554.8885	-0.0035
555.0831	-0.0089
555.2776	-0.0035
555.4721	-0.0008
555.6666	-0.0096
555.8611	0.0044
556.0555	-0.0064
556.25	-0.0019
556.4444	-0.0122
556.6388	0.0039
556.8332	-0.0014
557.0276	0.0018
557.222	-0.001
557.4163	0.0036
557.6107	-0.0154
557.805	0.0059
557.9993	-0.0071
558.1936	0.0002
558.3879	-0.0028
558.5821	-0.0082
558.7764	-0.0133
558.9706	-0.0024
559.1648	-0.0078
559.359	-0.0159
559.5532	-0.0016
559.7473	-0.0044
559.9415	-0.0047
560.1356	-0.0063
560.3297	-0.0142
560.5238	-0.0079
560.7179	-0.0054
560.9119	-0.0119
561.106	-0.0046
561.3	-0.0102
561.494	-0.0059
561.688	-0.0133
561.882	-0.0124
562.076	-0.0138
562.2699	0.0041
562.4639	-0.0066
562.6578	-0.0036
562.8517	-0.005
563.0456	-0.0055
563.2395	-0.0021
563.4333	-0.0079
563.6272	-0.0011
563.821	-0.0033
564.0148	-0.002
564.2086	-0.0084
564.4024	-0.0004
564.5961	0.0008
564.7899	0.0071
564.9836	0.0051
565.1773	-0.0086
565.371	0.009
565.5647	-0.0004
565.7584	-0.0014
565.952	-0.0053
566.1456	-0.005
566.3393	-0.0015
566.5329	-0.0089
566.7264	-0.003
566.92	-0.0087
567.1136	0.0103
567.3071	-0.0046
567.5006	0.0091
567.6941	0.0032
567.8876	-0.0066
568.0811	-0.0049
568.2745	0.0006
568.468	-0.0034
568.6614	0.0005
568.8548	-0.0055
569.0482	-0.0125
569.2416	-0.0024
569.4349	-0.007
569.6283	-0.0034
569.8216	0.0003
570.0149	-0.0158
570.2082	0.0006
570.4015	0.0026
570.5947	0.0021
570.788	0.011
570.9812	0.0093
571.1744	0.0027
571.3676	-0.0088
571.5608	-0.0002
571.754	0.0007
571.9471	-0.0055
572.1402	0.0005
572.3333	-0.0043
572.5264	-0.0114
572.7195	-0.0016
572.9126	-0.0058
573.1057	0.004
573.2987	-0.0089
573.4917	-0.0005
573.6847	-0.0112
573.8777	-0.0014
574.0707	0.0053
574.2636	-0.0051
574.4566	-0.0018
574.6495	0.008
574.8424	-0.0047
575.0353	-0.0045
575.2281	0.0013
575.421	0.0021
575.6138	-0.0027
575.8067	-0.0023
575.9995	0.0005
576.1923	0.0004
576.385	0.0011
576.5778	-0.0031
576.7706	-0.005
576.9633	-0.004
577.156	0.0048
577.3487	-0.0011
577.5414	0.0041
577.734	-0.0029
577.9267	0.0056
578.1193	-0.0103
578.3119	-0.0049
578.5045	-0.0054
578.6971	-0.0001
578.8897	0.0013
579.0822	-0.0022
579.2747	-0.0004
579.4673	-0.0045
579.6598	-0.0055
579.8522	-0.0043
580.0447	-0.0032
580.2372	-0.0017
580.4296	0.0004
580.622	-0.001
580.8144	-0.0052
581.0068	-0.0067
581.1992	-0.011
581.3915	-0.0012
581.5839	-0.0108
581.7762	-0.0147
581.9685	-0.0024
582.1608	0.0005
582.353	-0.0047
582.5453	0.0047
582.7375	-0.0024
582.9298	-0.0038
583.122	-0.0055
583.3142	-0.0024
583.5063	-0.0005
583.6985	-0.0071
583.8906	-0.0035
584.0827	-0.0103
584.2749	-0.0044
584.4669	0.0028
584.659	-0.0002
584.8511	-0.0086
585.0431	-0.0078
585.2352	0.0053
585.4272	-0.0011
585.6192	0.0035
585.8111	-0.0013
586.0031	-0.0048
586.195	-0.0077
586.387	0.0031
586.5789	-0.0001
586.7708	0.0003
586.9627	-0.0053
587.1545	-0.0049
587.3464	0.0033
587.5382	-0.0025
587.73	0.0045
587.9218	0.0048
588.1136	-0.0056
588.3053	0.0062
588.4971	-0.0021
588.6888	-0.0055
588.8805	0.0022
589.0722	0.007
589.2639	0.0002
589.4556	-0.0003
589.6472	-0.0019
589.8389	-0.0038
590.0305	-0.0071
590.2221	0.0045
590.4137	-0.0024
590.6052	0.0072
590.7968	0.0077
590.9883	-0.0015
591.1798	-0.0008
591.3713	-0.0029
591.5628	0.0085
591.7543	0.0056
591.9458	0.0003
592.1372	-0.0002
592.3286	0.0032
592.52	0.0063
592.7114	-0.0067
592.9028	0.0018
593.0941	-0.0048
593.2855	0
593.4768	-0.0045
593.6681	-0.0065
593.8594	-0.0035
594.0506	0.0006
594.2419	0.0063
594.4331	0.0024
594.6244	0.0018
594.8156	-0.0021
595.0067	0.0009
595.1979	-0.0006
595.3891	-0.005
595.5802	-0.0047
595.7713	-0.0046
595.9624	-0.0088
596.1535	0.0045
596.3446	0.0053
596.5357	-0
596.7267	-0.0003
596.9177	-0.0036
597.1087	-0.0036
597.2997	0.0015
597.4907	0.0049
597.6817	-0.0035
597.8726	-0.0023
598.0635	-0.0048
598.2544	-0.0007
598.4453	-0.0046
598.6362	-0.0066
598.827	-0.0006
599.0179	0.0007
599.2087	0.0025
599.3995	0.0016
599.5903	0.0056
599.7811	-0.0027
599.9718	-0.003
600.1626	-0.0034
600.3533	-0.0078
600.544	-0.002
600.7347	-0.0001
600.9254	0.0055
601.116	-0.0101
601.3067	-0.0003
601.4973	-0.0041
601.6879	0.0002
601.8785	-0.0077
602.0691	0.0034
602.2596	-0.005
602.4502	0.003
602.6407	0.0032
602.8312	0.0011
603.0217	-0.0065
603.2122	0.0017
603.4027	-0.0006
603.5931	-0.0046
603.7835	-0.0047
603.9739	0.0007
604.1643	-0.0046
604.3547	-0.0069
604.5451	0.0016
604.7354	-0.0031
604.9257	0.0014
605.116	-0.008
605.3063	0.0018
605.4966	-0.0041
605.6869	-0.0014
605.8771	0.003
606.0673	-0.0004
606.2575	0.0071
606.4477	0.0081
606.6379	-0.0007
606.8281	-0.0031
607.0182	-0.0064
607.2083	0.0094
607.3985	-0.0065
607.5885	-0.0006
607.7786	0.0015
607.9687	-0.0022
608.1587	0.0015
608.3488	0.002
608.5388	0.0012
608.7288	-0.0021
608.9187	-0.0052
609.1087	-0.0081
609.2986	-0.0047
609.4886	0.005
609.6785	-0.0054
609.8684	-0.002
610.0582	0.0057
610.2481	0.0008
610.4379	-0.0008
610.6278	-0.0036
610.8176	0.0001
611.0074	0.0011
611.1971	-0.0014
611.3869	-0.0006
611.5766	0.0002
611.7664	0.01
611.9561	0.0094
612.1458	-0.0057
612.3354	-0.0118
612.5251	-0.0054
612.7147	0.0034
612.9044	0.0046
613.094	-0.0062
613.2836	0.0049
613.4731	-0.0029
613.6627	-0.0071
613.8522	0.0006
614.0417	0.0029
614.2313	-0.01
614.4207	-0.0099
614.6102	-0.0007
614.7997	0.003
614.9891	-0.01
615.1785	0.0025
615.3679	-0.01
615.5573	0.0038
615.7467	-0.0058
615.9361	0.0023
616.1254	0.0012
616.3147	0.0024
616.504	0.0012
616.6933	0.0013
616.8826	0.0046
617.0718	0.0043
617.2611	-0.0017
617.4503	-0.0081
617.6395	-0.0086
617.8287	-0.0017
618.0179	-0.0007
618.207	0.0103
618.3961	-0.0032
618.5853	-0.0028
618.7744	0.0001
618.9634	0.0009
619.1525	0.0035
619.3416	0.0018
619.5306	0.0038
619.7196	0.0001
619.9086	-0.0041
620.0976	-0.0066
620.2866	-0.0041
620.4755	-0.0034
620.6645	0.0013
620.8534	0.0018
621.0423	0.0018
621.2312	-0.0069
621.42	0.0086
621.6089	-0.0022
621.7977	0.0064
621.9865	-0.0052
622.1753	0.0001
622.3641	-0.0031
622.5529	0.0055
622.7416	0.0061
622.9303	-0.0063
623.1191	0.0028
623.3078	0.0027
623.4964	0.002
623.6851	-0.0069
623.8737	-0.0047
624.0624	0.0006
624.251	-0.0041
624.4396	-0.0015
624.6282	-0.0105
624.8167	0.0021
625.0053	0.0015
625.1938	0.0025
625.3823	0.0059
625.5708	0.0004
625.7593	-0.0051
625.9477	-0.0063
626.1362	-0.0041
626.3246	-0.0081
626.513	0.0018
626.7014	0.0098
626.8898	-0.0012
627.0781	-0.0036
627.2665	-0.0093
627.4548	0.0013
627.6431	0.0014
627.8314	0.0015
628.0197	0.0039
628.2079	-0.0061
628.3962	-0.012
628.5844	0.0083
628.7726	0.0064
628.9608	0.004
629.1489	-0.0018
629.3371	0.0018
629.5252	-0.0032
629.7134	0.0135
629.9015	0.0016
630.0895	-0.0001
630.2776	0.0087
630.4657	-0.0002
630.6537	0.0007
630.8417	-0.0076
631.0297	-0.0022
631.2177	0.006
631.4057	-0.0047
631.5936	0.006
631.7815	0.0021
631.9695	0.0048
632.1574	0.0084
632.3452	0.0073
632.5331	0.0026
632.7209	-0.0014
632.9088	0.0023
633.0966	0.0114
633.2844	-0.0047
633.4722	0.0067
633.6599	0.0052
633.8477	0.0048
634.0354	-0.0035
634.2231	-0.0003
634.4108	0.0026
634.5985	0.0014
634.7861	0.0012
634.9738	-0.0018
635.1614	0.0061
635.349	0.0029
635.5366	0.0016
635.7242	0.0011
635.9117	0.0029
636.0993	-0.0003
636.2868	0.0022
636.4743	-0.0025
636.6618	0.0079
636.8492	0.0034
637.0367	-0.0026
637.2241	-0.0005
637.4115	-0.0048
637.5989	-0.0008
637.7863	-0.0018
637.9737	-0.0036
638.161	0.0028
638.3484	-0.0021
638.5357	0.0037
638.723	-0.0014
638.9103	0.0054
639.0975	0.0036
639.2848	0.0046
639.472	0.0027
639.6592	0.0026
639.8464	0.0076
640.0336	0.0078
640.2208	0.0019
640.4079	0.0037
640.595	0.0035
640.7821	0.0013
640.9692	0.0024
641.1563	0.0034
641.3434	0.006
641.5304	0.0051
641.7174	0.0039
641.9044	0.0017
642.0914	0.0062
642.2784	0.0066
642.4653	0.0125
642.6523	0.0026
642.8392	0.0029
643.0261	0.0141
643.213	0.0045
643.3999	-0.0031
643.5867	0.0014
643.7735	0.0025
643.9604	-0.0015
644.1472	-0.0027
644.3339	0.0091
644.5207	0.0048
644.7075	0.002
644.8942	0.0086
645.0809	0.0088
645.2676	0.0125
645.4543	0.0004
645.6409	0.0088
645.8276	0.0068
646.0142	0.0052
646.2008	-0.0021
646.3874	-0.003
646.574	-0.0006
646.7605	-0.0019
646.9471	-0.0128
647.1336	0.004
647.3201	0.0045
647.5066	0.0014
647.6931	0.007
647.8795	0.0005
648.0659	0.0053
648.2524	0.0063
648.4388	-0.0001
648.6252	-0.004
648.8115	-0.0005
648.9979	0.0024
649.1842	0.0027
649.3705	0.0026
649.5568	-0.0001
649.7431	-0.0002
649.9294	-0.006
650.1156	-0.0007
650.3018	-0.0023
650.488	-0.0046
650.6742	0.0003
650.8604	-0.0071
651.0466	-0.0028
651.2327	0.0022
651.4188	0.0026
651.6049	-0.0046
651.791	-0.0035
651.9771	0.0071
652.1632	0.0044
652.3492	0.0038
652.5352	-0.0021
652.7212	-0.0052
652.9072	0.0149
653.0932	0.0003
653.2791	-0.0052
653.465	0.0008
653.651	-0.0056
653.8369	0.0004
654.0227	0.0058
654.2086	0.0051
654.3944	0.006
654.5803	0.0035
654.7661	-0.0025
654.9519	0.0033
655.1377	-0.0062
655.3234	0.0015
655.5092	-0.0007
655.6949	-0.0057
655.8806	-0.0049
656.0663	-0.0027
656.2519	-0.0022
656.4376	-0.0086
656.6232	0.0054
656.8088	-0.0009
656.9945	-0.0012
657.18	-0.0003
657.3656	0.0005
657.5511	-0.0028
657.7367	0.0019
657.9222	0.0071
658.1077	-0.0031
658.2932	0.0098
658.4786	-0.0077
658.6641	-0.002
658.8495	-0.0001
659.0349	-0.0007
659.2203	0.0102
659.4057	0.0021
659.591	-0.0025
659.7764	-0.0058
659.9617	-0.0008
660.147	0.0004
660.3323	0.0003
660.5176	0.012
660.7028	0.0044
660.888	0.0064
661.0733	-0.0029
661.2585	-0.0089
661.4436	0.0035
661.6288	0.0003
661.8139	-0.0024
661.9991	0.0097
662.1842	0.0001
662.3693	0.0046
662.5544	-0.0037
662.7394	-0.0037
662.9245	-0.0024
663.1095	-0.0009
663.2945	0.006
663.4795	-0.0061
663.6644	0.0015
663.8494	-0.0015
664.0343	0.009
664.2193	-0.0095
664.4042	-0.0037
664.589	-0.0092
664.7739	-0.0034
664.9587	-0.0141
665.1436	-0.0048
665.3284	-0.0036
665.5132	-0.0042
665.698	0.0021
665.8827	0.0043
666.0675	-0.0037
666.2522	-0.0133
666.4369	0.0015
666.6216	0.0076
666.8063	0.0077
666.9909	0.0046
667.1756	0.0008
667.3602	0.0017
667.5448	-0.0016
667.7294	0.0043
667.9139	0.0005
668.0985	0.0116
668.283	-0.0002
668.4675	-0.0058
668.652	-0.0038
668.8365	0.001
669.0209	0.0103
669.2054	0.0092
669.3898	-0.0005
669.5742	-0.005
669.7586	0.0083
669.943	0.0098
670.1273	-0.0051
670.3117	0.0053
670.496	0.0074
670.6803	0.0094
670.8646	-0.0011
671.0488	-0.004
671.2331	0.0018
671.4173	0.0079
671.6015	-0.0002
671.7857	0.0086
671.9699	0.0006
672.1541	0.0092
672.3382	0.0024
672.5223	-0.0014
672.7064	0.0063
672.8905	0.0058
673.0746	0.0021
673.2587	-0.0046
673.4427	-0.0005
673.6267	-0.0008
673.8107	0.0088
673.9947	0.0035
674.1787	0.0005
674.3626	0.0011
674.5465	0.0012
674.7304	0.0049
674.9143	0.0045
675.0982	0.0043
675.2821	-0.0038
675.4659	-0.0002
675.6497	0.0076
675.8335	-0.0019
676.0173	0.0017
676.2011	-0.0036
676.3849	-0.0019
676.5686	-0.0054
676.7523	-0.0026
676.936	-0.0021
677.1197	-0.0074
677.3034	-0.006
677.487	0.0054
677.6706	-0.0027
677.8542	-0.0001
678.0378	-0.004
678.2214	-0.0015
678.405	0.003
678.5885	-0.008
678.772	-0.0014
678.9555	-0.0043
679.139	-0.0058
679.3225	-0.0049
679.5059	-0.0048
679.6894	-0.002
679.8728	0.001
680.0562	-0.002
680.2395	-0.0054
680.4229	0.0045
680.6062	0.0032
680.7896	-0.002
680.9729	-0.0026
681.1562	0.0011
681.3394	-0.0004
681.5227	-0.0022
681.7059	0.0011
681.8891	0.0011
682.0723	0.0093
682.2555	0.0002
682.4387	-0.0066
682.6218	-0.0045
682.805	0.0064
682.9881	0.0019
683.1712	-0.0031
683.3542	-0.0019
683.5373	0.0063
683.7203	-0.0073
683.9034	-0.0011
684.0864	-0.0092
684.2694	0.0037
684.4523	0.0057
684.6353	-0.0062
684.8182	-0.0045
685.0011	-0.009
685.184	-0.0018
685.3669	0.0025
685.5498	0.004
685.7326	0.0073
685.9154	-0.0039
686.0982	0.0043
686.281	0.0026
686.4638	0.0044
686.6465	-0.0024
686.8293	-0.0068
687.012	0.0006
687.1947	-0.0114
687.3774	0.006
687.56	-0.0056
687.7427	0.004
687.9253	-0.0053
688.1079	0.0004
688.2905	0.0027
688.4731	-0.002
688.6556	-0.0072
688.8382	-0.0014
689.0207	-0.0012
689.2032	-0.0131
689.3857	-0.0065
689.5681	0.0028
689.7506	-0.0046
689.933	-0.0053
690.1154	0.0018
690.2978	-0.0071
690.4802	-0.0064
690.6626	-0.0115
690.8449	-0.0091
691.0272	0.0026
691.2095	-0.0063
691.3918	-0.0066
691.5741	0.001
691.7563	-0.0012
691.9386	0.0062
692.1208	-0.0047
692.303	0.0057
692.4852	-0.0004
692.6673	-0.0015
692.8495	-0.0039
693.0316	-0.0004
693.2137	-0.0041
693.3958	0.0001
693.5778	0.0034
693.7599	-0.0011
693.9419	-0.0027
694.1239	-0.0014
694.3059	-0.0061
694.4879	0.0009
694.6699	0.0082
694.8518	0.0102
695.0337	-0.0042
695.2157	0.0048
695.3975	0.0061
695.5794	-0.0043
695.7613	0.0089
695.9431	-0.0004
696.1249	0.0056
696.3067	0.0043
696.4885	0.006
696.6703	-0.0121
696.852	0.002
697.0337	-0.0006
697.2154	-0.0056
697.3971	0.006
697.5788	-0.0005
697.7605	0.0002
697.9421	-0.0011
698.1237	0.0024
698.3053	0.0019
698.4869	-0.0017
698.6685	-0.0045
698.85	-0.0049
699.0315	0.0012
699.213	0.0037
699.3945	0.0019
699.576	0.002
699.7575	0.0102
699.9389	0.0023
700.1203	-0.0037
700.3017	-0.0063
700.4831	-0.011
700.6645	-0.0086
700.8458	-0.0025
701.0271	-0.0154
701.2084	0.0091
701.3897	-0.0094
701.571	0.0085
701.7523	-0.0077
701.9335	0.0004
702.1147	0.0015
702.2959	-0.0003
702.4771	0.0014
702.6583	-0.0055
702.8394	-0.0058
703.0205	-0.0041
703.2016	0.0032
703.3827	0.0013
703.5638	0.0021
703.7449	0.0048
703.9259	0.0077
704.1069	-0.0035
704.2879	0.0037
704.4689	0.0012
704.6499	-0.0023
704.8308	0.0024
705.0117	-0
705.1927	0.0046
705.3735	-0.0096
705.5544	0.0008
705.7353	-0.0002
705.9161	-0.0079
706.0969	-0.0102
706.2777	-0.0015
706.4585	-0.0005
706.6393	0.0024
706.82	-0.0038
707.0007	0.0019
707.1815	0.0073
707.3621	0.0061
707.5428	0.0009
707.7235	-0.001
707.9041	-0.0014
708.0847	-0.0106
708.2653	-0.0082
708.4459	-0.0082
708.6265	-0.001
708.807	-0.006
708.9875	-0.0052
709.168	-0.0028
709.3485	-0.0024
709.529	-0.0001
709.7095	-0.0131
709.8899	0.0044
710.0703	-0.0058
710.2507	-0.0001
710.4311	0.0008
710.6115	-0.0106
710.7918	-0.0106
710.9721	0.0003
711.1524	-0.0081
711.3327	-0.0024
711.513	0.0032
711.6932	0.0047
711.8735	0.0134
712.0537	0.0065
712.2339	-0.0008
712.4141	-0.0032
712.5942	-0.0042
712.7744	-0.0056
712.9545	-0.0119
713.1346	-0.0068
713.3147	-0.0104
713.4947	-0.0026
713.6748	-0.0074
713.8548	0.0014
714.0348	-0.0064
714.2148	-0.0049
714.3948	0.0095
714.5748	0.0023
714.7547	-0.0036
714.9346	-0.0001
715.1145	-0.006
715.2944	-0.0082
715.4743	0.0008
715.6541	-0.0016
715.834	0.0018
716.0138	-0.0043
716.1936	-0.012
716.3733	-0.0024
716.5531	0.0001
716.7328	-0.0029
716.9126	-0.0053
717.0923	0.0016
717.2719	0.002
717.4516	0.0043
717.6312	0.0019
717.8109	-0
717.9905	0.0056
718.1701	-0.008
718.3496	-0.0092
718.5292	0.0039
718.7087	0.0026
718.8882	-0.0024
719.0677	0.0011
719.2472	0.0049
719.4267	-0.0042
719.6061	-0.0002
719.7856	0.0016
719.965	0.0033
720.1443	-0.0021
720.3237	0.0059
720.5031	-0.0012
720.6824	0.0122
720.8617	-0.0024
721.041	-0.0013
721.2203	0.0021
721.3995	-0.0028
721.5788	-0.0023
721.758	0.0067
721.9372	-0.0064
722.1164	-0.0043
722.2956	0.0044
722.4747	-0.0041
722.6538	0.0008
722.8329	0.0078
723.012	-0.0008
723.1911	0.0037
723.3702	-0.0018
723.5492	-0.0008
723.7282	0.0015
723.9072	0.0082
724.0862	-0.004
724.2652	-0.0042
724.4441	-0.0027
724.623	-0.0018
724.8019	-0.0023
724.9808	-0.0017
725.1597	-0.0147
725.3385	-0.0019
725.5174	-0.0029
725.6962	-0.0062
725.875	-0.0035
726.0538	0.0058
726.2325	-0.0044
726.4112	0.0012
726.59	-0.0096
726.7687	-0.0104
726.9474	0.0029
727.126	0.004
727.3047	-0.0052
727.4833	0.0056
727.6619	-0.004
727.8405	-0.0026
728.0191	-0.0074
728.1976	0.0041
728.3762	0.0023
728.5547	0.0057
728.7332	-0.014
728.9116	-0.0028
729.0901	-0.0021
729.2686	-0.0088
729.447	-0.0028
729.6254	-0.0015
729.8038	-0.0001
729.9821	-0.0126
730.1605	-0.0011
730.3388	0.0007
730.5171	0.0086
730.6954	-0.0012
730.8737	0.0033
731.0519	0.0034
731.2302	-0
731.4084	0.0009
731.5866	-0.0077
731.7648	-0.0064
731.9429	-0.0076
732.1211	-0.0116
732.2992	-0.0005
732.4773	-0.0099
732.6554	-0.0057
732.8335	0.0022
733.0115	-0.0051
733.1896	0.004
733.3676	-0.01
733.5456	-0.0031
733.7235	0.0023
733.9015	-0.0021
734.0794	-0.0048
734.2574	-0.0031
734.4353	-0.001
734.6131	0.0042
734.791	0.0012
734.9689	0.0033
735.1467	0.0059
735.3245	-0.0062
735.5023	-0.0023
735.68	-0.0102
735.8578	0.0039
736.0355	-0.0103
736.2132	-0.0076
736.3909	0.004
736.5686	-0.0176
736.7463	0.0034
736.9239	-0.0088
737.1015	-0.0052
737.2791	-0.0017
737.4567	-0.001
737.6343	-0.0059
737.8118	0.001
737.9894	0.0003
738.1669	-0.0047
738.3444	-0.0015
738.5218	0.0014
738.6993	-0.0136
738.8767	-0.0108
739.0541	0.0162
739.2315	-0.0131
739.4089	-0.0004
739.5863	0.0012
739.7636	0.0017
739.9409	-0.0037
740.1182	0.0028
740.2955	0.0038
740.4728	-0.0117
740.65	-0.0014
740.8272	0.0053
741.0044	-0.0122
741.1816	-0.0048
741.3588	0.0013
741.5359	-0.0013
741.7131	-0.0091
741.8902	-0.0036
742.0673	-0.0097
742.2444	-0.0067
742.4214	-0.0121
742.5985	-0.0212
742.7755	-0.0111
742.9525	-0.0203
743.1295	-0.0109
743.3064	0.0014
743.4834	-0.0034
743.6603	-0.0071
743.8372	-0.0087
744.0141	-0.0018
744.191	-0.0019
744.3678	-0.0019
744.5446	-0.0044
744.7215	0.0061
744.8982	-0.0112
745.075	-0.0141
745.2518	-0.0005
745.4285	-0.0046
745.6052	-0.0091
745.7819	-0.0028
745.9586	-0.0061
746.1353	0.0052
746.3119	-0.0123
746.4885	-0.011
746.6651	-0.0034
746.8417	-0.0057
747.0183	0.0043
747.1948	-0.0037
747.3714	0.0033
747.5479	0.0029
747.7244	0.0012
747.9008	0.0011
748.0773	0.011
748.2537	-0.0011
748.4301	-0.0086
748.6065	0.0036
748.7829	0.0032
748.9593	-0.0035
749.1356	-0.0053
749.3119	0.0115
749.4882	-0.01
749.6645	0.0066
749.8408	-0.0101
750.017	-0.0109
750.1933	-0.0045
750.3695	-0.0083
750.5457	0.0073
750.7218	-0.0053
750.898	0.0092
751.0741	-0.0095
751.2502	-0.0145
751.4263	0.0013
751.6024	-0.0004
751.7784	-0.008
751.9545	-0.0091
752.1305	-0.0013
752.3065	-0.0109
752.4825	-0.0002
752.6584	-0.0078
752.8344	-0.0069
753.0103	-0.0104
753.1862	-0.0079
753.3621	0.0019
753.5379	-0.0053
753.7138	0.0011
753.8896	-0.0102
754.0654	0.011
754.2412	0.0063
754.417	0.0107
754.5927	-0.0097
754.7685	0.0054
754.9442	0.0026
755.1199	0.0058
755.2956	-0.0052
755.4712	0.0096
755.6469	0.0023
755.8225	0.0036
755.9981	0.0003
756.1736	0.0065
756.3492	0.004
756.5248	-0.0007
756.7003	-0.0012
756.8758	0.0094
757.0513	-0.01
757.2267	0.0001
757.4022	0.0045
757.5776	-0.0143
757.753	0.0022
757.9284	-0.0038
758.1038	0.0015
758.2791	-0.0041
758.4545	-0.0125
758.6298	-0.0076
758.8051	-0.0018
758.9803	0.0008
759.1556	0.001
759.3308	-0.0122
759.506	0.0045
759.6812	-0.0065
759.8564	0.0093
760.0316	-0.003
760.2067	0.0021
760.3819	0.0021
760.557	0.0106
760.732	0.0013
760.9071	-0.0032
761.0821	0.005
761.2572	0.0045
761.4322	-0.0014
761.6072	0.0018
761.7821	-0.01
761.9571	0.0097
762.132	0.001
762.3069	-0.0071
762.4818	-0.0003
762.6567	0.0005
762.8316	0.0021
763.0064	0.0003
763.1812	0.0043
763.356	-0.0003
763.5308	0.0035
763.7055	0.0005
763.8803	-0.004
764.055	-0.0109
764.2297	0.001
764.4044	-0.0096
764.579	-0.0151
764.7537	-0.0133
764.9283	0.0038
765.1029	-0.0053
765.2775	-0.0133
765.4521	-0.0118
765.6266	-0.0097
765.8011	-0.0137
765.9756	-0.002
766.1501	-0.0004
766.3246	-0.003
766.4991	-0.008
766.6735	-0.0026
766.8479	-0.0049
767.0223	0.0059
767.1967	0.0049
767.371	0.0084
767.5454	-0.0087
767.7197	-0.0048
767.894	-0.0007
768.0683	-0.019
768.2425	-0.0052
768.4168	-0.0095
768.591	-0.0055
768.7652	-0.0049
768.9394	-0.0107
769.1135	0.002
769.2877	0.0105
769.4618	0.0071
769.6359	0.0071
769.81	0.0014
769.984	0.0012
770.1581	0.011
770.3321	0.0008
770.5061	-0.0028
770.6801	0.0009
770.8541	0.0043
771.028	0.0067
771.202	-0.0106
771.3759	0.0118
771.5498	-0.0041
771.7236	-0.0034
771.8975	0.0027
772.0713	0.002
772.2451	-0
772.4189	0.0072
772.5927	0.0033
772.7665	-0.0011
772.9402	0.0051
773.1139	0.0034
773.2876	-0.0052
773.4613	0.0119
773.635	0.0161
773.8086	-0.0096
773.9822	0.0013
774.1558	0.0037
774.3294	-0.0104
774.503	-0.0023
774.6765	0.0047
774.8501	0.0049
775.0236	-0.0003
775.1971	0.0078
775.3705	-0.0181
775.544	0.0058
775.7174	-0.0124
775.8908	-0.0054
776.0642	-0.0006
776.2376	0.0014
776.4109	-0.0192
776.5843	-0.0091
776.7576	-0.0035
776.9309	0.0083
777.1041	0.0074
777.2774	0.0139
777.4506	-0.0086
777.6238	-0.0034
777.797	0.0072
777.9702	0.0042
778.1434	0.0048
778.3165	-0.0105
778.4896	-0.009
778.6627	0.0042
778.8358	0.0081
779.0089	-0.0113
779.1819	-0.0076
779.3549	0.008
779.5279	0.0115
779.7009	0.0015
779.8739	0.0064
780.0468	-0.0041
780.2197	-0.001
780.3926	-0.0039
780.5655	0.0012
780.7384	0.0043
780.9112	0.0087
781.0841	-0.0182
781.2569	0.0046
781.4297	0.0089
781.6024	0.0092
781.7752	-0.0002
781.9479	0.0144
782.1206	-0.0036
782.2933	-0.0015
782.466	0.0035
782.6386	-0.0001
782.8113	0.0052
782.9839	0.0056
783.1565	0.0061
783.329	0.0105
783.5016	0.0157
783.6741	-0.001
783.8466	-0.0051
784.0191	0.0126
784.1916	0.0043
784.3641	0.0005
784.5365	0.0027
784.7089	-0.0084
784.8813	-0.0106
785.0537	-0.0045
785.2261	-0.0092
785.3984	-0.009
785.5707	-0.0129
785.743	0.0005
785.9153	-0.0106
786.0876	0.0035
786.2598	0.0001
786.432	-0.0151
786.6042	0.0089
786.7764	-0.004
786.9486	-0.0052
787.1207	0.0017
787.2928	0.0028
787.4649	0.0011
787.637	0.0064
787.8091	-0.0106
787.9811	0.0011
788.1532	-0.0042
788.3252	0.0085
788.4972	-0.003
788.6691	-0
788.8411	0.011
789.013	0.0058
789.1849	0.0044
789.3568	-0.0091
789.5287	-0.0006
789.7005	-0.012
789.8723	-0.005
790.0442	0.0019
790.2159	0.0029
790.3877	-0.0117
790.5595	-0.0207
790.7312	-0.0067
790.9029	-0.0043
791.0746	-0
791.2463	-0.0139
791.4179	-0.004
791.5896	-0.0138
791.7612	0.0082
791.9328	0.0138
792.1044	-0.0121
792.2759	-0.0127
792.4474	0.0048
792.619	-0.0066
792.7905	-0.0074
792.9619	-0.0079
793.1334	0.005
793.3048	0.0136
793.4762	-0.0077
793.6476	-0.0019
793.819	-0.0236
793.9904	-0.0021
794.1617	-0.0038
794.333	0.0038
794.5043	-0.0207
794.6756	0.0102
794.8469	-0.0111
795.0181	-0.0173
795.1893	0.005
795.3605	0.0078
795.5317	0.0012
795.7029	-0.0031
795.874	0.0146
796.0452	-0.0005
796.2163	0.0124
796.3873	0.0268
796.5584	0.0091
796.7294	-0.0105
796.9005	0.0095
797.0715	-0.0033
797.2425	-0.012
797.4134	0.0022
797.5844	-0.0036
797.7553	-0.008
797.9262	0.0044
798.0971	-0.0141
798.2679	-0.0063
798.4388	-0.0163
798.6096	-0.0196
798.7804	-0.0104
798.9512	0.0007
799.122	0.0048
799.2927	0.0033
799.4635	0.0156
799.6342	-0.0171
799.8049	-0.0031
799.9755	0.008
800.1462	-0.0035
800.3168	0.0094
800.4874	-0.008
800.658	0.018
800.8286	0.0102
800.9991	0.0088
801.1696	-0.0058
801.3402	0.0178
801.5106	-0.0081
801.6811	0.0096
801.8516	0.0322
802.022	0.0002
802.1924	-0.0037
802.3628	0.009
802.5332	0.012
802.7035	0.0126
802.8739	0.0051
803.0442	-0.0071
803.2145	0.0092
803.3847	-0.0185
803.555	0.0154
803.7252	-0.0189
803.8954	-0.0152
804.0656	-0.0044
804.2358	0.0022
804.4059	0.0141
804.5761	0.0122
804.7462	0.0118
804.9163	-0.015
805.0864	-0.0105
805.2564	-0.0082
805.4264	0.0004
805.5965	-0.008
805.7665	0.0067
805.9364	-0.0013
806.1064	0.0044
806.2763	0.0041
806.4462	0.0287
806.6161	0.0123
806.786	0.0126
806.9559	0.005
807.1257	-0.0067
807.2955	-0.0107
807.4653	0.0037
807.6351	-0.0012
807.8048	-0.0086
807.9746	0.012
808.1443	-0
808.314	0.0087
808.4837	0.0074
808.6533	0.0019
808.8229	0.0079
808.9926	-0.0198
809.1622	0.0186
809.3317	-0.0138
809.5013	0.0025
809.6708	0.0089
809.8403	0.0087
810.0098	0.0036
810.1793	-0.0065
810.3488	0.0089
810.5182	-0.0062
810.6876	-0.0015
810.857	-0.0144
811.0264	0.0309
811.1958	-0.0146
811.3651	-0.0047
811.5344	0.0247
811.7037	-0.0318
811.873	-0.0234
812.0422	0.0008
812.2115	-0.0234
812.3807	-0.0146
812.5499	-0.0135
812.7191	0.0111
812.8882	-0.037
813.0574	0.0011
813.2265	-0.0171
813.3956	-0
813.5646	-0.0033
813.7337	-0.027
813.9027	0.0038
814.0718	0.0031
814.2407	0.007
814.4097	-0.0175
814.5787	-0.0035
814.7476	-0.0147
814.9165	-0.0055
815.0854	-0.0137
815.2543	-0.0164
815.4232	-0.0024
815.592	-0.0183
815.7608	-0.0024
815.9296	-0.013
816.0984	-0.0003
816.2671	-0.0012
816.4359	-0.0036
816.6046	0.0076
816.7733	-0.0003
816.942	-0.0102
817.1106	-0.0154
817.2793	0.0013
817.4479	-0.0227
817.6165	0.0006
817.785	-0
817.9536	-0.0273
818.1221	-0.0158
818.2906	0.0064
818.4591	-0.0176
818.6276	-0.0027
818.7961	0.0023
818.9645	0.0152
819.1329	-0.0208
819.3013	0.0244
819.4697	0.0269
819.638	-0.0171
819.8064	-0.0154
819.9747	0.0362
820.143	-0.0096
820.3113	-0.0182
820.4795	0.016
820.6477	0.0003
820.816	-0.0244
820.9842	0.0047
821.1523	-0.0152
821.3205	-0.0215
821.4886	-0.0128
821.6567	-0.005
821.8248	0.0014
821.9929	0.0241
822.1609	0.0118
822.329	0.0065
822.497	0.0234
822.665	0.0112
822.833	-0.0015
823.0009	-0.0026
823.1688	0.0196
823.3367	0.0273
823.5046	0.014
823.6725	0.0037
823.8404	0.0016
824.0082	0.002
824.176	0.006
824.3438	0.0105
824.5116	-0.012
824.6793	0.0066
824.847	0.0186
825.0147	-0.0009
825.1824	0.0146
825.3501	0.0315
825.5177	-0.0166
825.6854	-0.0235
825.853	0.0114
826.0206	-0.0191
826.1881	0.0048
826.3557	-0.0135
826.5232	0.0371
826.6907	-0.0453
826.8582	-0.0129
827.0257	-0.0212
827.1931	-0.0216
827.3605	-0.0215
827.528	-0.0087
827.6953	-0.0233
827.8627	-0.0005
828.03	0.039
828.1974	-0.0317
828.3647	-0.0304
828.532	-0.0351
828.6992	0.0045
828.8665	0.0053
829.0337	-0.0345
829.2009	0.0121
829.3681	-0.0165
829.5352	0.0047
829.7024	-0.0351
829.8695	-0.0138
830.0366	0.0366
830.2037	-0.0199
830.3707	-0.0025
830.5378	0.0086
830.7048	-0.033
830.8718	-0.038
831.0388	-0.0102
831.2057	-0
831.3727	0.0257
831.5396	-0.0145
831.7065	-0.0174
831.8734	0.0227
832.0402	-0.0419
832.2071	0.0023
832.3739	-0.0054
832.5407	-0.0118
832.7075	-0.0237
832.8742	-0.0492
833.041	-0.0455
833.2077	-0.0173
833.3744	-0.0024
833.541	0.0036
833.7077	-0.0219
833.8743	0.0079
834.0409	-0.0295
834.2075	-0.0186
834.3741	-0.0163
834.5407	-0.0162
834.7072	0.033
834.8737	-0.002
835.0402	-0.0342
835.2067	0.0126
835.3731	0.0168
835.5395	-0.0095
835.706	0.0294
835.8723	0.0184
836.0387	0.0082
836.2051	-0.0334
836.3714	0.0232
836.5377	0.0183
836.704	-0.0356
836.8703	0.0353
837.0365	0.0279
837.2027	-0.0363
837.3689	0.0326
837.5351	-0.0318
837.7013	0.0173
837.8674	-0.0417
838.0335	0.0009
838.1997	-0.0222
838.3657	-0.0592
838.5318	-0.0087
838.6978	0.026
838.8639	0.0292
839.0299	-0.0395
839.1958	0.0127
839.3618	-0.0266
839.5277	-0
839.6937	0.0025
839.8596	-0.0398
840.0254	0.0134
840.1913	0.0255
840.3571	0.0053
840.523	-0.0603
840.6888	-0.0028
840.8545	-0.0387
841.0203	-0.0312
841.186	0.0166
841.3517	0.0594
841.5174	0.0133
841.6831	-0.0157
841.8488	-0
842.0144	-0.0126
842.18	0.0009
842.3456	-0.0299
842.5112	-0.0552
842.6767	0.0079
842.8422	-0.0589
843.0077	-0.0336
843.1732	-0.0607
843.3387	-0.07
843.5042	0.0071
843.6696	-0.0586
843.835	-0.048
844.0004	0.0407
844.1657	0.0153
844.3311	-0.0408
844.4964	-0.0304
844.6617	-0.0217
844.827	-0.0248
844.9923	0.0046
845.1575	0.017
845.3227	0.0141
845.4879	-0.0155
845.6531	-0.0347
845.8183	-0.0987
845.9834	-0.0159
846.1485	-0.0086
846.3136	0.0064
846.4787	-0.0689
846.6438	-0
846.8088	-0.0585
846.9738	-0.0571
847.1388	-0.0326
847.3038	-0.0404
847.4687	-0.0773
847.6337	0.024
847.7986	-0.0369
847.9635	-0.0603
848.1284	0.0224
848.2932	-0.0137
848.458	0.0373
848.6228	-0.0055
848.7876	0.0143
848.9524	-0.0299
849.1172	-0.1079
849.2819	-0.0257
849.4466	-0.0629
849.6113	0.0155
849.7759	0.0398
849.9406	-0.0532
850.1052	0.0117
850.2698	-0.0634
850.4344	-0.0705
850.599	-0.0423
850.7635	-0.0054
850.928	-0.0083
851.0925	-0.0641
851.257	-0.0035
851.4215	-0.0361
851.5859	-0.0907
851.7503	0.0031
851.9147	0.0066
852.0791	-0.0559
852.2434	-0
852.4078	0.0547
852.5721	0.0531
852.7364	-0.0643
852.9007	-0.0393
853.0649	-0.0483
853.2291	-0.0219
853.3934	0.0141
853.5575	0.1455
853.7217	-0.0851
853.8859	-0.1113
854.05	-0.0499
854.2141	-0.0514
854.3782	0.0877
854.5423	-0.056
854.7063	0.1238
854.8703	0.0286
855.0343	0.0226
855.1983	-0.1687
855.3623	0.1026
855.5262	0.0682
855.6901	-0.086
855.854	-0.0041
856.0179	0.0158
856.1818	0.0059
856.3456	-0.0571
856.5094	-0.0821
856.6732	-0.0985
856.837	0.0421
857.0008	-0.0246
857.1645	-0.095
857.3282	-0.216
857.4919	0.1122
857.6556	-0.1049
857.8192	-0.0224
857.9828	0.0982
858.1465	0.1007
858.31	0.0738
858.4736	-0.079
858.6372	-0.2479
858.8007	-0.1656
858.9642	-0.0596
859.1277	-0.0228
859.2911	0.1467
859.4546	-0.0382
859.618	-0.3897
859.7814	-0.0229
859.9448	-0.1333
860.1081	0.0748
860.2715	0.0517
860.4348	0.369
860.5981	0.066
860.7614	0.0822
860.9246	0.0321
861.0879	-0.1409
861.2511	0.1038
861.4143	-0.2615
861.5774	0.0368
861.7406	-0.1229
861.9037	0.1287
862.0668	-0.1111
862.2299	-0.0211
862.393	-0.5282
862.556	-0.1056
862.7191	-0.2164
862.8821	-0.3492
863.0451	0.0463
863.208	0.1475
863.371	0.1001
863.5339	-0.2256
863.6968	0.0254
863.8597	2.3598
864.0225	-0.2366
864.1854	-0.1246
864.3482	-0.1507
864.511	0.2626
864.6737	-0.0437
864.8365	0.0819
864.9992	-0.6176
865.1619	-0.6853
865.3246	-0.4245
865.4873	0.0751
865.65	-0
865.8126	0.1167
865.9752	-0.0745
866.1378	0.0376
866.3004	0.4085
866.4629	0.0767
866.6254	-0.0965
866.7879	-0.1173
866.9504	-0.0699
867.1129	-0
867.2753	0.0364
867.4377	0.1528
867.6001	-0.0734
867.7625	0.5589
867.9249	-0
868.0872	-0.1926
868.2495	0.2654
868.4118	-0.044
868.5741	0.123
868.7363	-0.585
868.8986	-0.0864
869.0608	0.1111
869.223	0.276
869.3851	-0
869.5473	0.5045
869.7094	0.156
869.8715	-0.1234
870.0336	-0
870.1957	-0.3936
870.3577	-0
870.5197	-0.2195
870.6817	-0
870.8437	-0.1779
871.0057	-0
871.1676	-0.2754
871.3295	-0.3858
871.4914	0.1007
871.6533	-0.2866
871.8151	0.8728
871.977	-0
872.1388	-0
872.3006	-0.0629
872.4623	-0
872.6241	-0
872.7858	-0
872.9475	-0.1244
873.1092	-0
873.2709	0.1974
873.4325	-0.0788
873.5941	-0
873.7557	-0
873.9173	-0
874.0789	-0.5222
874.2404	-0
874.4019	0.2066
874.5634	-0.2311
874.7249	-0.1199
874.8863	0.0855
875.0478	-0.0422
875.2092	-0.487
875.3706	-0
875.5319	-0.8907
875.6933	-0.1834
875.8546	-0
876.0159	-0.0214
876.1772	-0.0564
876.3385	-0
876.4997	0.3586
876.6609	-0.4448
876.8221	-0.5431
876.9833	-0.302
877.1445	-0
877.3056	0.2942
877.4667	-0.3799
877.6278	-0
877.7889	-0.6079
877.9499	-0
878.111	-0
878.272	-0
878.433	-0
878.5939	-0
878.7549	0.0376
878.9158	-0.5461
879.0767	-0.1769
879.2376	-0
879.3984	-0
879.5593	-0
879.7201	-0.1591
879.8809	-0.7722
880.0417	-0.3265
880.2024	0.4982
880.3632	-0
880.5239	0.5142
880.6846	-0
880.8452	-2.5647
881.0059	-1.891
881.1665	0.2794
881.3271	1.1489
881.4877	-0.4269
881.6483	-0.2062
881.8088	-0.2673
881.9693	-0
882.1298	-0
882.2903	-0
