Data from MonoPyChalIsomerACN10uM380nmA_Absorbance_13-38-33-048.txt Node
Date: Fri Jul 05 13:38:33 BST 2024
User: LASERRRRR
Spectrometer: FLMT03099
Trigger mode: 0
Integration Time (sec): 1.000000E-1
Scans to average: 1
Electric dark correction enabled: true
Nonlinearity correction enabled: false
Boxcar width: 0
XAxis mode: Wavelengths
Number of Pixels in Spectrum: 3648
>>>>>Begin Spectral Data<<<<<
179.3399	-0
179.5586	-0
179.7771	-0
179.9957	-0
180.2143	-0
180.4329	-0.2241
180.6514	-0
180.8699	-0
181.0885	-0.0416
181.307	0.1485
181.5255	0.4337
181.744	-0.2001
181.9625	-0.1519
182.181	0
182.3994	0.9943
182.6179	0.0586
182.8363	0.013
183.0547	-0.2608
183.2732	-0.0493
183.4916	0.0989
183.71	0.0675
183.9284	0.0913
184.1467	-0.2204
184.3651	0.1392
184.5835	-0.063
184.8018	0.2466
185.0201	-0
185.2385	0.0485
185.4568	-0
185.6751	0.1039
185.8934	0.0228
186.1117	0.0114
186.3299	0.1116
186.5482	-0.0545
186.7664	-0.0662
186.9847	-0.1774
187.2029	0.0132
187.4211	0.2555
187.6393	0.1282
187.8575	-0.1232
188.0757	0.1004
188.2939	0.0727
188.512	0.0163
188.7302	-0
188.9483	0.1246
189.1665	0.0093
189.3846	0.0839
189.6027	0.127
189.8208	0.0261
190.0389	0.0118
190.257	0.2295
190.475	0.275
190.6931	0.1974
190.9111	0.2027
191.1292	0.1378
191.3472	0.5287
191.5652	0.2118
191.7832	0.2189
192.0012	0.2756
192.2192	0.3292
192.4371	0.9573
192.6551	0.2727
192.873	0.3265
193.091	0.3641
193.3089	1.2599
193.5268	0.3573
193.7447	0.5498
193.9626	0.6082
194.1805	0.61
194.3984	0.5712
194.6162	0.5062
194.8341	0.5093
195.0519	0.6661
195.2697	0.9388
195.4875	0.6807
195.7054	0.6122
195.9231	0.5894
196.1409	0.6428
196.3587	0.648
196.5765	0.5944
196.7942	0.7317
197.012	0.608
197.2297	0.6227
197.4474	1.1914
197.6651	0.6406
197.8828	0.5347
198.1005	0.8045
198.3182	0.7569
198.5358	0.8312
198.7535	0.853
198.9711	0.7216
199.1888	0.8369
199.4064	0.9497
199.624	0.7235
199.8416	0.6343
200.0592	0.6949
200.2767	0.8086
200.4943	0.947
200.7119	1.052
200.9294	0.7861
201.1469	0.684
201.3645	0.6367
201.582	0.6862
201.7995	0.7546
202.017	0.6985
202.2344	0.7542
202.4519	0.875
202.6694	0.7908
202.8868	0.7304
203.1042	0.8212
203.3217	0.8051
203.5391	0.7711
203.7565	0.7182
203.9739	0.7614
204.1913	0.7103
204.4086	0.8531
204.626	0.897
204.8433	0.678
205.0607	0.7116
205.278	0.7339
205.4953	0.7049
205.7126	0.8757
205.9299	0.7951
206.1472	0.7711
206.3644	0.7061
206.5817	0.8089
206.7989	0.9804
207.0162	0.6991
207.2334	0.786
207.4506	0.8017
207.6678	0.7105
207.885	0.7835
208.1022	0.8817
208.3194	0.7775
208.5365	0.7577
208.7537	0.8634
208.9708	0.6829
209.1879	0.7779
209.405	0.7885
209.6222	0.8352
209.8392	0.8582
210.0563	0.7346
210.2734	0.8471
210.4905	0.8001
210.7075	0.8203
210.9245	0.7079
211.1416	0.8225
211.3586	0.7934
211.5756	0.6854
211.7926	0.7788
212.0096	0.7794
212.2265	0.8853
212.4435	0.6689
212.6604	0.6796
212.8774	0.742
213.0943	0.811
213.3112	0.7533
213.5281	0.6761
213.745	0.6842
213.9619	0.7294
214.1788	0.6563
214.3956	0.6219
214.6125	0.6557
214.8293	0.6282
215.0461	0.7597
215.2629	0.6335
215.4798	0.666
215.6965	0.6237
215.9133	0.7093
216.1301	0.6007
216.3469	0.6162
216.5636	0.6693
216.7803	0.6171
216.9971	0.6406
217.2138	0.5902
217.4305	0.6408
217.6472	0.5675
217.8639	0.628
218.0805	0.6334
218.2972	0.5487
218.5138	0.5462
218.7305	0.5675
218.9471	0.5573
219.1637	0.5446
219.3803	0.5521
219.5969	0.5151
219.8135	0.5293
220.0301	0.5409
220.2466	0.5874
220.4632	0.5185
220.6797	0.4993
220.8962	0.5222
221.1127	0.507
221.3292	0.5263
221.5457	0.5058
221.7622	0.5049
221.9787	0.4807
222.1951	0.5173
222.4116	0.5321
222.628	0.473
222.8444	0.5286
223.0608	0.5258
223.2772	0.5025
223.4936	0.5399
223.71	0.5035
223.9264	0.5241
224.1427	0.5202
224.3591	0.5238
224.5754	0.5347
224.7917	0.5354
225.008	0.5259
225.2243	0.5005
225.4406	0.5542
225.6569	0.5326
225.8732	0.495
226.0894	0.5046
226.3057	0.519
226.5219	0.5538
226.7381	0.5057
226.9543	0.5391
227.1705	0.545
227.3867	0.5454
227.6029	0.5601
227.8191	0.5613
228.0352	0.5046
228.2513	0.5594
228.4675	0.5903
228.6836	0.5691
228.8997	0.5285
229.1158	0.5494
229.3319	0.5287
229.548	0.5552
229.764	0.5397
229.9801	0.548
230.1961	0.5442
230.4121	0.5613
230.6282	0.545
230.8442	0.5336
231.0602	0.568
231.2761	0.5521
231.4921	0.5626
231.7081	0.5425
231.924	0.5579
232.14	0.5709
232.3559	0.5186
232.5718	0.5677
232.7877	0.5243
233.0036	0.5136
233.2195	0.5438
233.4353	0.5398
233.6512	0.5668
233.867	0.57
234.0829	0.5462
234.2987	0.551
234.5145	0.5586
234.7303	0.5515
234.9461	0.557
235.1619	0.5505
235.3776	0.5359
235.5934	0.5361
235.8091	0.4951
236.0249	0.5483
236.2406	0.5255
236.4563	0.5418
236.672	0.5372
236.8877	0.5346
237.1034	0.5363
237.319	0.531
237.5347	0.5505
237.7503	0.5256
237.966	0.5382
238.1816	0.5439
238.3972	0.5279
238.6128	0.523
238.8284	0.5213
239.0439	0.5473
239.2595	0.5093
239.475	0.5278
239.6906	0.5293
239.9061	0.4979
240.1216	0.5047
240.3371	0.5229
240.5526	0.501
240.7681	0.5433
240.9836	0.4993
241.199	0.5036
241.4145	0.4949
241.6299	0.4781
241.8453	0.4846
242.0607	0.4759
242.2761	0.4543
242.4915	0.4587
242.7069	0.4741
242.9223	0.441
243.1376	0.434
243.353	0.4384
243.5683	0.423
243.7836	0.4247
243.9989	0.4277
244.2142	0.378
244.4295	0.3948
244.6448	0.4028
244.86	0.3712
245.0753	0.3801
245.2905	0.3604
245.5057	0.3641
245.721	0.3573
245.9362	0.3443
246.1514	0.3489
246.3665	0.3199
246.5817	0.3252
246.7969	0.333
247.012	0.3182
247.2271	0.2877
247.4423	0.3119
247.6574	0.3038
247.8725	0.2893
248.0876	0.28
248.3026	0.2754
248.5177	0.2795
248.7328	0.273
248.9478	0.2694
249.1628	0.2686
249.3779	0.2816
249.5929	0.2677
249.8079	0.2668
250.0228	0.2566
250.2378	0.2558
250.4528	0.2329
250.6677	0.2353
250.8827	0.241
251.0976	0.2369
251.3125	0.2326
251.5274	0.2202
251.7423	0.2169
251.9572	0.2207
252.172	0.2144
252.3869	0.2261
252.6017	0.225
252.8166	0.2077
253.0314	0.1975
253.2462	0.1966
253.461	0.2075
253.6758	0.2097
253.8906	0.2053
254.1053	0.2015
254.3201	0.2022
254.5348	0.2144
254.7496	0.2086
254.9643	0.1967
255.179	0.1995
255.3937	0.1879
255.6083	0.1935
255.823	0.2164
256.0377	0.1962
256.2523	0.1854
256.467	0.1697
256.6816	0.1846
256.8962	0.1833
257.1108	0.1773
257.3254	0.1941
257.54	0.1846
257.7545	0.1762
257.9691	0.2033
258.1836	0.191
258.3981	0.2028
258.6127	0.1959
258.8272	0.1759
259.0417	0.1769
259.2561	0.1825
259.4706	0.1867
259.6851	0.1743
259.8995	0.1818
260.114	0.1825
260.3284	0.1864
260.5428	0.1677
260.7572	0.1934
260.9716	0.1842
261.186	0.1821
261.4003	0.1851
261.6147	0.1896
261.829	0.1758
262.0433	0.1822
262.2577	0.1733
262.472	0.1901
262.6863	0.1689
262.9005	0.1941
263.1148	0.1897
263.3291	0.175
263.5433	0.1844
263.7576	0.1912
263.9718	0.1848
264.186	0.1765
264.4002	0.1739
264.6144	0.1781
264.8286	0.1872
265.0427	0.18
265.2569	0.1965
265.471	0.1821
265.6851	0.1804
265.8993	0.177
266.1134	0.1846
266.3275	0.1816
266.5415	0.1781
266.7556	0.185
266.9697	0.1833
267.1837	0.2
267.3978	0.1901
267.6118	0.1991
267.8258	0.206
268.0398	0.1745
268.2538	0.1911
268.4677	0.1841
268.6817	0.1665
268.8957	0.1907
269.1096	0.1771
269.3235	0.1839
269.5374	0.1738
269.7514	0.1759
269.9652	0.1707
270.1791	0.1784
270.393	0.1727
270.6068	0.1779
270.8207	0.1613
271.0345	0.1672
271.2483	0.1908
271.4622	0.1636
271.676	0.1875
271.8897	0.1608
272.1035	0.1769
272.3173	0.1603
272.531	0.1738
272.7448	0.1813
272.9585	0.1616
273.1722	0.1718
273.3859	0.1786
273.5996	0.1533
273.8133	0.1795
274.0269	0.1651
274.2406	0.1578
274.4542	0.1695
274.6679	0.1536
274.8815	0.1706
275.0951	0.1796
275.3087	0.1832
275.5223	0.1758
275.7358	0.172
275.9494	0.1748
276.1629	0.1751
276.3765	0.1747
276.59	0.1767
276.8035	0.171
277.017	0.174
277.2305	0.168
277.444	0.1881
277.6574	0.1717
277.8709	0.1676
278.0843	0.1688
278.2978	0.1732
278.5112	0.1631
278.7246	0.1705
278.938	0.177
279.1513	0.1796
279.3647	0.1895
279.5781	0.1737
279.7914	0.1761
280.0047	0.1901
280.2181	0.1793
280.4314	0.1808
280.6447	0.1834
280.8579	0.1749
281.0712	0.1898
281.2845	0.1878
281.4977	0.1845
281.711	0.1825
281.9242	0.1722
282.1374	0.1901
282.3506	0.1812
282.5638	0.1793
282.7769	0.1745
282.9901	0.1817
283.2033	0.1877
283.4164	0.1888
283.6295	0.1815
283.8426	0.1745
284.0557	0.1762
284.2688	0.1909
284.4819	0.1831
284.695	0.1773
284.908	0.1753
285.1211	0.1674
285.3341	0.1746
285.5471	0.1781
285.7601	0.1814
285.9731	0.1695
286.1861	0.1757
286.3991	0.1894
286.612	0.1807
286.825	0.1682
287.0379	0.177
287.2508	0.1757
287.4637	0.1753
287.6766	0.1716
287.8895	0.1742
288.1024	0.1908
288.3152	0.1655
288.5281	0.1642
288.7409	0.1754
288.9538	0.1661
289.1666	0.1744
289.3794	0.17
289.5922	0.1785
289.8049	0.1728
290.0177	0.1671
290.2304	0.1789
290.4432	0.1716
290.6559	0.1791
290.8686	0.183
291.0813	0.176
291.294	0.1816
291.5067	0.1751
291.7194	0.1759
291.932	0.19
292.1447	0.1733
292.3573	0.17
292.5699	0.1762
292.7825	0.1752
292.9951	0.1587
293.2077	0.1719
293.4203	0.172
293.6328	0.1574
293.8454	0.1759
294.0579	0.1715
294.2704	0.1608
294.4829	0.1688
294.6954	0.1682
294.9079	0.1698
295.1204	0.1706
295.3328	0.1662
295.5453	0.1577
295.7577	0.1765
295.9701	0.1685
296.1825	0.1644
296.3949	0.1667
296.6073	0.1626
296.8197	0.1626
297.0321	0.1704
297.2444	0.1482
297.4567	0.1703
297.6691	0.1702
297.8814	0.1545
298.0937	0.1659
298.306	0.1829
298.5182	0.1587
298.7305	0.1708
298.9428	0.161
299.155	0.1709
299.3672	0.1603
299.5794	0.1568
299.7916	0.1551
300.0038	0.1666
300.216	0.1704
300.4282	0.1704
300.6403	0.1647
300.8525	0.1664
301.0646	0.1601
301.2767	0.1744
301.4888	0.1646
301.7009	0.1637
301.913	0.1618
302.125	0.154
302.3371	0.1602
302.5491	0.165
302.7612	0.1734
302.9732	0.1574
303.1852	0.1685
303.3972	0.1698
303.6092	0.161
303.8211	0.161
304.0331	0.158
304.245	0.1563
304.457	0.1612
304.6689	0.1528
304.8808	0.1742
305.0927	0.1444
305.3046	0.1596
305.5164	0.1523
305.7283	0.1441
305.9401	0.1464
306.152	0.1491
306.3638	0.1502
306.5756	0.146
306.7874	0.1412
306.9992	0.1483
307.2109	0.1478
307.4227	0.1246
307.6344	0.144
307.8462	0.1415
308.0579	0.1359
308.2696	0.135
308.4813	0.1428
308.693	0.1284
308.9046	0.1363
309.1163	0.1327
309.328	0.1373
309.5396	0.1264
309.7512	0.1229
309.9628	0.1234
310.1744	0.1328
310.386	0.1106
310.5976	0.1255
310.8091	0.1246
311.0207	0.1279
311.2322	0.119
311.4437	0.1136
311.6552	0.1153
311.8667	0.1187
312.0782	0.0914
312.2897	0.1119
312.5012	0.1171
312.7126	0.1056
312.924	0.1024
313.1355	0.1261
313.3469	0.1115
313.5583	0.1157
313.7696	0.1057
313.981	0.1079
314.1924	0.1167
314.4037	0.0996
314.6151	0.1102
314.8264	0.1006
315.0377	0.1067
315.249	0.1086
315.4603	0.112
315.6716	0.1109
315.8828	0.0937
316.0941	0.1131
316.3053	0.0986
316.5165	0.1154
316.7277	0.1014
316.9389	0.112
317.1501	0.0994
317.3613	0.1087
317.5724	0.0975
317.7836	0.114
317.9947	0.1079
318.2058	0.1019
318.417	0.0963
318.6281	0.0925
318.8391	0.1093
319.0502	0.1002
319.2613	0.1119
319.4723	0.1077
319.6834	0.1054
319.8944	0.0962
320.1054	0.1004
320.3164	0.1162
320.5274	0.1066
320.7383	0.1027
320.9493	0.099
321.1602	0.1126
321.3712	0.0995
321.5821	0.1064
321.793	0.1048
322.0039	0.1021
322.2148	0.1043
322.4257	0.1138
322.6365	0.1137
322.8474	0.108
323.0582	0.1051
323.269	0.1076
323.4798	0.1089
323.6906	0.1151
323.9014	0.1054
324.1122	0.0992
324.3229	0.1077
324.5337	0.1053
324.7444	0.1017
324.9551	0.1147
325.1658	0.1104
325.3765	0.1117
325.5872	0.1036
325.7979	0.1058
326.0085	0.1042
326.2192	0.1166
326.4298	0.1152
326.6404	0.0958
326.851	0.1151
327.0616	0.1022
327.2722	0.1092
327.4828	0.115
327.6933	0.1146
327.9039	0.1212
328.1144	0.1067
328.3249	0.1106
328.5354	0.1096
328.7459	0.1049
328.9564	0.1013
329.1669	0.1133
329.3773	0.1041
329.5878	0.1131
329.7982	0.1138
330.0086	0.1152
330.219	0.1139
330.4294	0.1129
330.6398	0.1141
330.8502	0.0946
331.0605	0.1175
331.2708	0.1055
331.4812	0.1163
331.6915	0.108
331.9018	0.1171
332.1121	0.1125
332.3224	0.1085
332.5326	0.1119
332.7429	0.1133
332.9531	0.1169
333.1633	0.1138
333.3735	0.1132
333.5837	0.1159
333.7939	0.1046
334.0041	0.1165
334.2143	0.1221
334.4244	0.1055
334.6346	0.0994
334.8447	0.1056
335.0548	0.1045
335.2649	0.1027
335.475	0.1218
335.685	0.1011
335.8951	0.121
336.1051	0.1145
336.3152	0.1249
336.5252	0.1157
336.7352	0.1246
336.9452	0.1175
337.1552	0.1249
337.3652	0.1121
337.5751	0.1129
337.7851	0.1189
337.995	0.096
338.2049	0.1164
338.4148	0.1142
338.6247	0.1188
338.8346	0.116
339.0445	0.1137
339.2543	0.112
339.4642	0.1272
339.674	0.1145
339.8838	0.1269
340.0936	0.1273
340.3034	0.133
340.5132	0.1148
340.7229	0.1291
340.9327	0.121
341.1424	0.1175
341.3522	0.1282
341.5619	0.1277
341.7716	0.1293
341.9813	0.1236
342.1909	0.1255
342.4006	0.1201
342.6102	0.133
342.8199	0.1172
343.0295	0.1269
343.2391	0.1201
343.4487	0.1307
343.6583	0.1365
343.8679	0.1311
344.0774	0.1333
344.287	0.1312
344.4965	0.1217
344.706	0.137
344.9155	0.1352
345.125	0.1255
345.3345	0.1294
345.544	0.1165
345.7534	0.1363
345.9629	0.1283
346.1723	0.1333
346.3817	0.1262
346.5911	0.1287
346.8005	0.1315
347.0099	0.1287
347.2193	0.1239
347.4286	0.1272
347.638	0.143
347.8473	0.1376
348.0566	0.1415
348.2659	0.1347
348.4752	0.1392
348.6845	0.1301
348.8937	0.1333
349.103	0.1457
349.3122	0.1343
349.5214	0.1425
349.7306	0.1422
349.9398	0.1377
350.149	0.1456
350.3582	0.1438
350.5674	0.1421
350.7765	0.1426
350.9856	0.1444
351.1948	0.1364
351.4039	0.1318
351.613	0.1253
351.822	0.1328
352.0311	0.1513
352.2402	0.1441
352.4492	0.1385
352.6582	0.1512
352.8672	0.1562
353.0762	0.1412
353.2852	0.145
353.4942	0.1388
353.7032	0.1553
353.9121	0.1492
354.1211	0.1508
354.33	0.1494
354.5389	0.155
354.7478	0.1527
354.9567	0.1534
355.1655	0.1377
355.3744	0.1495
355.5833	0.1521
355.7921	0.1664
356.0009	0.1519
356.2097	0.1792
356.4185	0.1732
356.6273	0.156
356.8361	0.1588
357.0448	0.1555
357.2536	0.1584
357.4623	0.155
357.671	0.1832
357.8797	0.1605
358.0884	0.1533
358.2971	0.1639
358.5057	0.1675
358.7144	0.1701
358.923	0.1504
359.1316	0.163
359.3402	0.1571
359.5488	0.1668
359.7574	0.1553
359.966	0.179
360.1746	0.1735
360.3831	0.1681
360.5916	0.1558
360.8002	0.1534
361.0087	0.1758
361.2172	0.1732
361.4256	0.1714
361.6341	0.1772
361.8426	0.1619
362.051	0.1606
362.2594	0.1574
362.4678	0.1692
362.6762	0.1949
362.8846	0.1834
363.093	0.1796
363.3014	0.1813
363.5097	0.1776
363.718	0.1826
363.9264	0.1797
364.1347	0.1863
364.343	0.1738
364.5513	0.1801
364.7595	0.2019
364.9678	0.1815
365.176	0.1866
365.3842	0.192
365.5925	0.1819
365.8007	0.2008
366.0089	0.1979
366.217	0.1738
366.4252	0.1852
366.6333	0.2024
366.8415	0.1962
367.0496	0.1913
367.2577	0.2139
367.4658	0.1939
367.6739	0.1978
367.882	0.1961
368.09	0.1799
368.2981	0.1973
368.5061	0.1825
368.7141	0.2016
368.9221	0.2199
369.1301	0.1896
369.3381	0.2143
369.5461	0.1868
369.754	0.2134
369.962	0.1936
370.1699	0.2096
370.3778	0.2188
370.5857	0.1854
370.7936	0.1863
371.0015	0.1958
371.2093	0.2026
371.4172	0.2004
371.625	0.1931
371.8328	0.2149
372.0406	0.1902
372.2484	0.213
372.4562	0.2181
372.664	0.2152
372.8717	0.2116
373.0795	0.184
373.2872	0.2021
373.4949	0.2057
373.7026	0.2125
373.9103	0.2136
374.118	0.2313
374.3256	0.2031
374.5333	0.21
374.7409	0.2081
374.9485	0.2224
375.1561	0.2117
375.3637	0.2067
375.5713	0.2249
375.7789	0.2199
375.9864	0.214
376.194	0.2023
376.4015	0.2397
376.609	0.2256
376.8165	0.2289
377.024	0.2073
377.2315	0.2064
377.4389	0.2226
377.6464	0.2243
377.8538	0.2167
378.0612	0.2191
378.2686	0.2204
378.476	0.2457
378.6834	0.2312
378.8908	0.2273
379.0981	0.2298
379.3055	0.2256
379.5128	0.2197
379.7201	0.2309
379.9274	0.225
380.1347	0.21
380.342	0.2512
380.5492	0.2067
380.7565	0.2261
380.9637	0.2287
381.1709	0.2351
381.3781	0.223
381.5853	0.2354
381.7925	0.2347
381.9997	0.2507
382.2068	0.2462
382.4139	0.2285
382.6211	0.2268
382.8282	0.2353
383.0353	0.2337
383.2424	0.2278
383.4494	0.2368
383.6565	0.224
383.8635	0.234
384.0706	0.2336
384.2776	0.2456
384.4846	0.2323
384.6916	0.2292
384.8986	0.2368
385.1055	0.2506
385.3125	0.2241
385.5194	0.2053
385.7263	0.2423
385.9333	0.23
386.1402	0.2331
386.347	0.2303
386.5539	0.2268
386.7608	0.2364
386.9676	0.2278
387.1744	0.2192
387.3813	0.2111
387.5881	0.2246
387.7948	0.2323
388.0016	0.2244
388.2084	0.2367
388.4151	0.2153
388.6219	0.2473
388.8286	0.2254
389.0353	0.2406
389.242	0.2292
389.4487	0.2126
389.6553	0.2009
389.862	0.199
390.0686	0.2003
390.2753	0.2194
390.4819	0.2154
390.6885	0.2229
390.8951	0.2304
391.1016	0.2209
391.3082	0.2128
391.5147	0.2142
391.7213	0.2253
391.9278	0.2037
392.1343	0.1962
392.3408	0.1953
392.5473	0.2053
392.7537	0.2121
392.9602	0.2107
393.1666	0.2111
393.373	0.2095
393.5794	0.22
393.7858	0.2073
393.9922	0.1981
394.1986	0.2099
394.4049	0.2077
394.6113	0.2155
394.8176	0.1831
395.0239	0.1928
395.2302	0.2076
395.4365	0.1959
395.6428	0.2158
395.8491	0.1814
396.0553	0.1998
396.2615	0.1938
396.4678	0.193
396.674	0.1784
396.8802	0.1916
397.0863	0.2252
397.2925	0.1756
397.4987	0.1864
397.7048	0.1707
397.9109	0.1931
398.117	0.1905
398.3231	0.1902
398.5292	0.1825
398.7353	0.2035
398.9413	0.1902
399.1474	0.1999
399.3534	0.1985
399.5594	0.178
399.7654	0.199
399.9714	0.2003
400.1774	0.1966
400.3833	0.1821
400.5893	0.1855
400.7952	0.1962
401.0011	0.183
401.207	0.1945
401.4129	0.2049
401.6188	0.2087
401.8247	0.1905
402.0305	0.1752
402.2364	0.192
402.4422	0.2064
402.648	0.1909
402.8538	0.2063
403.0596	0.1816
403.2654	0.19
403.4711	0.1851
403.6768	0.2072
403.8826	0.2159
404.0883	0.1895
404.294	0.1895
404.4997	0.2018
404.7054	0.1994
404.911	0.1801
405.1167	0.1828
405.3223	0.195
405.5279	0.1762
405.7335	0.2004
405.9391	0.1922
406.1447	0.1916
406.3502	0.2128
406.5558	0.1804
406.7613	0.1965
406.9668	0.2104
407.1724	0.1774
407.3778	0.2024
407.5833	0.1844
407.7888	0.197
407.9942	0.197
408.1997	0.1984
408.4051	0.1966
408.6105	0.1959
408.8159	0.1654
409.0213	0.1781
409.2267	0.1845
409.432	0.1857
409.6374	0.1996
409.8427	0.1674
410.048	0.1985
410.2533	0.1775
410.4586	0.1822
410.6639	0.1822
410.8691	0.1787
411.0744	0.1741
411.2796	0.1786
411.4848	0.194
411.69	0.1797
411.8952	0.193
412.1004	0.1956
412.3056	0.1869
412.5107	0.1816
412.7158	0.2014
412.921	0.1878
413.1261	0.1932
413.3312	0.1827
413.5362	0.1799
413.7413	0.1774
413.9464	0.1846
414.1514	0.1838
414.3564	0.1724
414.5614	0.1622
414.7664	0.1693
414.9714	0.1788
415.1764	0.1885
415.3813	0.1834
415.5863	0.1795
415.7912	0.1853
415.9961	0.1965
416.201	0.1979
416.4059	0.1821
416.6108	0.1667
416.8156	0.1895
417.0205	0.188
417.2253	0.1671
417.4301	0.1759
417.6349	0.1705
417.8397	0.1639
418.0445	0.1794
418.2492	0.1812
418.454	0.1716
418.6587	0.1666
418.8634	0.1785
419.0681	0.1607
419.2728	0.1551
419.4775	0.1769
419.6822	0.1884
419.8868	0.1517
420.0915	0.1783
420.2961	0.157
420.5007	0.1614
420.7053	0.1691
420.9099	0.1714
421.1144	0.1749
421.319	0.1709
421.5235	0.1808
421.728	0.1709
421.9325	0.1631
422.137	0.1866
422.3415	0.1638
422.546	0.1784
422.7504	0.1605
422.9549	0.1623
423.1593	0.1692
423.3637	0.163
423.5681	0.1514
423.7725	0.1563
423.9769	0.1493
424.1812	0.1519
424.3856	0.1561
424.5899	0.1701
424.7942	0.1397
424.9985	0.1713
425.2028	0.1609
425.4071	0.1594
425.6113	0.1472
425.8156	0.1587
426.0198	0.1634
426.224	0.1257
426.4282	0.1548
426.6324	0.1394
426.8366	0.1511
427.0407	0.1336
427.2449	0.1532
427.449	0.1581
427.6531	0.1282
427.8572	0.1291
428.0613	0.1378
428.2654	0.1276
428.4694	0.1301
428.6735	0.1484
428.8775	0.1562
429.0815	0.144
429.2855	0.1423
429.4895	0.1323
429.6935	0.1519
429.8975	0.1298
430.1014	0.1398
430.3053	0.1273
430.5093	0.1301
430.7132	0.1119
430.9171	0.1243
431.1209	0.1296
431.3248	0.1237
431.5286	0.1269
431.7325	0.1204
431.9363	0.1213
432.1401	0.1133
432.3439	0.117
432.5477	0.1082
432.7514	0.1049
432.9552	0.111
433.1589	0.1043
433.3627	0.0953
433.5664	0.1096
433.7701	0.1022
433.9737	0.0995
434.1774	0.098
434.3811	0.101
434.5847	0.1024
434.7883	0.096
434.9919	0.099
435.1955	0.0932
435.3991	0.0915
435.6027	0.0988
435.8062	0.0898
436.0098	0.0745
436.2133	0.0881
436.4168	0.0832
436.6203	0.0903
436.8238	0.0824
437.0272	0.0937
437.2307	0.0844
437.4341	0.0892
437.6375	0.0984
437.841	0.0806
438.0443	0.0809
438.2477	0.0825
438.4511	0.0816
438.6545	0.0908
438.8578	0.0692
439.0611	0.0828
439.2644	0.0781
439.4677	0.0631
439.671	0.0659
439.8743	0.0869
440.0775	0.0627
440.2808	0.0593
440.484	0.0597
440.6872	0.0554
440.8904	0.0625
441.0936	0.069
441.2967	0.0641
441.4999	0.0635
441.703	0.0651
441.9062	0.0693
442.1093	0.0543
442.3124	0.0548
442.5155	0.0466
442.7185	0.0534
442.9216	0.0297
443.1246	0.0607
443.3276	0.0461
443.5307	0.0504
443.7337	0.0368
443.9366	0.0448
444.1396	0.0532
444.3426	0.0478
444.5455	0.0519
444.7484	0.0441
444.9513	0.0486
445.1542	0.0501
445.3571	0.0336
445.56	0.0415
445.7628	0.033
445.9657	0.0341
446.1685	0.0525
446.3713	0.0338
446.5741	0.0487
446.7769	0.0281
446.9797	0.0382
447.1824	0.0277
447.3852	0.0349
447.5879	0.0309
447.7906	0.038
447.9933	0.0465
448.196	0.0278
448.3986	0.025
448.6013	0.0288
448.8039	0.0223
449.0066	0.0184
449.2092	0.0292
449.4118	0.0375
449.6143	0.0347
449.8169	0.0362
450.0195	0.0129
450.222	0.0096
450.4245	0.0246
450.627	0.0479
450.8295	0.0221
451.032	0.0219
451.2345	0.0298
451.4369	0.017
451.6394	0.0241
451.8418	0.0007
452.0442	0.0141
452.2466	0.015
452.449	0.0069
452.6513	0.0082
452.8537	0.0083
453.056	-0.001
453.2583	0.0119
453.4607	0.0072
453.663	0.0167
453.8652	0.0238
454.0675	0.0014
454.2697	0.0249
454.472	-0.0023
454.6742	0.0185
454.8764	-0.0014
455.0786	0.0093
455.2808	0.0098
455.4829	0.0124
455.6851	0.012
455.8872	0.0335
456.0893	0.0215
456.2915	-0.0114
456.4935	0.0147
456.6956	-0.0118
456.8977	0.0061
457.0997	-0.0017
457.3018	-0.0161
457.5038	-0.0017
457.7058	-0.0092
457.9078	-0.0109
458.1098	0.0116
458.3117	-0.0023
458.5137	-0.0029
458.7156	0.0163
458.9175	-0.0042
459.1194	-0.0045
459.3213	0.0163
459.5232	-0.0003
459.725	-0.0027
459.9269	-0
460.1287	0.0027
460.3305	0.0045
460.5323	0.0075
460.7341	0.0002
460.9359	0.0101
461.1376	-0.0008
461.3394	0.004
461.5411	-0.0027
461.7428	-0.0007
461.9445	0.0102
462.1462	0.0017
462.3479	0.003
462.5495	-0.0098
462.7512	0.003
462.9528	-0.0023
463.1544	-0.0178
463.356	-0.0107
463.5576	0.0042
463.7592	-0.0184
463.9607	0.0003
464.1623	0.016
464.3638	0.0151
464.5653	-0.013
464.7668	0.0133
464.9683	0.0017
465.1697	0.0208
465.3712	-0.0198
465.5726	-0.0209
465.7741	-0.0139
465.9755	-0.0108
466.1769	-0.0005
466.3782	-0.0009
466.5796	-0.0134
466.7809	0.003
466.9823	-0.0115
467.1836	0.0124
467.3849	-0.0091
467.5862	-0.002
467.7875	0.0029
467.9887	0.0064
468.19	-0.0076
468.3912	0.0008
468.5924	-0.0103
468.7936	0.0026
468.9948	0.0021
469.196	-0.0037
469.3972	-0.0124
469.5983	0.0009
469.7994	-0.0111
470.0006	-0.012
470.2017	-0.0126
470.4027	-0.0068
470.6038	0.0061
470.8049	-0.0233
471.0059	-0.0055
471.2069	-0.0085
471.408	-0.0011
471.6089	-0.0021
471.8099	-0.0044
472.0109	0.0027
472.2119	-0.0143
472.4128	-0.0243
472.6137	0.0053
472.8146	-0.0164
473.0155	-0.0161
473.2164	-0.0213
473.4173	0.0006
473.6181	-0.0061
473.819	0.0064
474.0198	-0.013
474.2206	-0.0071
474.4214	-0.004
474.6222	-0.0148
474.8229	-0.0008
475.0237	-0.0097
475.2244	-0.0188
475.4251	-0.0085
475.6258	-0.0083
475.8265	-0.0102
476.0272	0.0065
476.2278	-0.0045
476.4285	-0.0052
476.6291	-0.0066
476.8297	-0.0125
477.0303	-0.0223
477.2309	-0.0122
477.4315	-0.0164
477.632	-0.0101
477.8326	-0.0078
478.0331	-0.0018
478.2336	-0.0039
478.4341	-0.0103
478.6346	-0.0077
478.8351	-0.0118
479.0355	-0.0031
479.236	-0.0131
479.4364	-0.0099
479.6368	-0.0141
479.8372	-0.0218
480.0376	-0.0132
480.2379	-0.022
480.4383	-0.0102
480.6386	-0.0046
480.8389	-0.0046
481.0392	-0.0145
481.2395	-0.0147
481.4398	0.003
481.6401	-0.0096
481.8403	-0.0074
482.0405	-0.0052
482.2408	-0.004
482.441	-0.0053
482.6411	-0.0155
482.8413	-0.0129
483.0415	-0.0188
483.2416	-0.0094
483.4417	-0.0023
483.6419	-0.0087
483.8419	-0.0159
484.042	-0.0019
484.2421	-0.0037
484.4422	-0.0085
484.6422	-0.0103
484.8422	-0.0047
485.0422	-0.0173
485.2422	-0.0001
485.4422	-0.0176
485.6422	-0.0117
485.8421	-0.0021
486.042	-0.0049
486.242	-0.0152
486.4419	-0.0156
486.6417	-0.0149
486.8416	-0.0103
487.0415	-0.0156
487.2413	-0.0103
487.4411	-0.0095
487.641	-0.0185
487.8408	-0.0033
488.0405	-0.0149
488.2403	-0.0159
488.4401	-0.0012
488.6398	-0.0053
488.8395	-0.0096
489.0392	-0.002
489.2389	-0.0061
489.4386	-0.0174
489.6383	-0.0125
489.8379	-0.0037
490.0376	-0.0092
490.2372	-0.0227
490.4368	-0.0176
490.6364	-0.011
490.836	-0.0136
491.0355	-0.0104
491.2351	-0.0144
491.4346	-0.0122
491.6341	-0.0226
491.8336	-0.0142
492.0331	-0.0256
492.2326	-0.0219
492.432	-0.0105
492.6315	-0.0072
492.8309	-0.0173
493.0303	-0.0074
493.2297	-0.0154
493.4291	-0.009
493.6284	-0.0162
493.8278	0.0005
494.0271	-0.0007
494.2264	0.0004
494.4257	-0.0126
494.625	-0.0122
494.8243	-0.0164
495.0236	-0.0246
495.2228	-0.0148
495.422	-0.0044
495.6213	-0.0096
495.8205	-0.0104
496.0196	-0.0015
496.2188	-0.0028
496.418	-0.0198
496.6171	-0.0138
496.8162	-0.0141
497.0153	-0.0058
497.2144	-0.0141
497.4135	-0.0089
497.6126	-0.0162
497.8116	-0.0102
498.0107	-0.004
498.2097	-0.0152
498.4087	-0.0157
498.6077	-0.0082
498.8067	-0.0171
499.0056	-0.0049
499.2046	-0.0089
499.4035	-0.0212
499.6024	-0.0126
499.8013	-0.0139
500.0002	-0.0254
500.199	-0.013
500.3979	-0.0099
500.5967	-0.0249
500.7956	-0.0035
500.9944	-0.0118
501.1932	-0.015
501.3919	-0.0071
501.5907	-0.0142
501.7895	-0.0124
501.9882	-0.0216
502.1869	-0.0155
502.3856	-0.0033
502.5843	-0.0123
502.783	-0.0047
502.9816	-0.0118
503.1803	-0.0237
503.3789	-0.0137
503.5775	-0.0098
503.7761	-0.013
503.9747	-0.0103
504.1732	-0.0152
504.3718	-0.0057
504.5703	-0.0147
504.7689	-0.0194
504.9674	-0.0077
505.1658	-0.0155
505.3643	-0.0149
505.5628	-0.011
505.7612	-0.0148
505.9597	-0.0005
506.1581	-0.0138
506.3565	0.0007
506.5549	-0.0115
506.7532	-0.0054
506.9516	-0.0101
507.1499	-0.0113
507.3482	-0.03
507.5465	-0.0108
507.7448	0.0025
507.9431	-0.0111
508.1414	-0.009
508.3396	-0.0057
508.5379	-0.0061
508.7361	-0.0199
508.9343	-0.0133
509.1325	-0.0092
509.3306	-0.0206
509.5288	-0.0129
509.7269	-0.0108
509.9251	-0.0087
510.1232	-0.0254
510.3213	-0.012
510.5193	-0.007
510.7174	-0.0238
510.9154	-0.0198
511.1135	-0.014
511.3115	-0.0164
511.5095	-0.005
511.7075	-0.017
511.9055	-0.0161
512.1034	-0.0183
512.3014	-0.011
512.4993	-0.0013
512.6972	-0.013
512.8951	-0.0278
513.093	-0.0104
513.2908	-0.0018
513.4887	-0.0079
513.6865	-0.0151
513.8844	-0.0063
514.0822	-0.0071
514.2799	-0.0248
514.4777	-0.0181
514.6755	-0.0182
514.8732	-0.0186
515.0709	-0.0135
515.2687	-0.0223
515.4664	0.0002
515.664	-0.0097
515.8617	-0.0215
516.0594	-0.0169
516.257	-0.0081
516.4546	-0.0229
516.6522	-0.0126
516.8498	-0.0133
517.0474	-0.0011
517.2449	-0.0067
517.4425	-0.0259
517.64	-0.0101
517.8375	0.0022
518.035	-0.0058
518.2325	-0.0168
518.43	-0.0182
518.6274	-0.0109
518.8249	-0.0175
519.0223	-0.0038
519.2197	-0.0116
519.4171	-0.0187
519.6145	-0.0102
519.8118	-0.0045
520.0092	-0.0021
520.2065	-0.0201
520.4038	-0.0142
520.6011	-0.003
520.7984	-0.0135
520.9956	-0.0156
521.1929	-0.0118
521.3901	-0.0098
521.5874	-0.0083
521.7846	-0.005
521.9818	-0.0115
522.1789	-0.0139
522.3761	-0.011
522.5732	-0.0186
522.7704	-0.0163
522.9675	-0.0105
523.1646	-0.0161
523.3617	-0.0096
523.5587	-0.012
523.7558	-0.0119
523.9528	-0.0162
524.1498	-0.014
524.3468	-0.0123
524.5438	-0.0203
524.7408	-0.0126
524.9378	-0.0004
525.1347	-0.0107
525.3316	-0.0035
525.5285	-0.0147
525.7254	-0.0128
525.9223	-0.0043
526.1192	-0.0068
526.316	-0.0219
526.5129	-0.0057
526.7097	-0.0049
526.9065	-0.0078
527.1033	-0.0134
527.3	-0.0053
527.4968	-0.0156
527.6935	-0.0041
527.8903	-0.0175
528.087	-0.0129
528.2837	-0.0138
528.4804	-0.0039
528.677	-0.015
528.8737	-0.006
529.0703	-0.0071
529.2669	-0.0103
529.4635	-0.0109
529.6601	0.0022
529.8567	-0.0058
530.0532	-0.0052
530.2498	-0.0095
530.4463	-0.0046
530.6428	-0.0079
530.8393	-0.0005
531.0358	-0.0105
531.2322	-0.014
531.4287	-0.0118
531.6251	-0.0159
531.8215	-0.0046
532.0179	-0.0056
532.2143	-0.0066
532.4107	-0.0011
532.607	-0.0029
532.8034	0.0013
532.9997	-0.008
533.196	-0.0068
533.3923	-0.012
533.5886	-0.0091
533.7848	-0.0088
533.9811	-0.0002
534.1773	-0.0061
534.3735	-0.0053
534.5697	-0.0078
534.7659	-0.0163
534.9621	0.0008
535.1582	-0.0086
535.3544	-0.0099
535.5505	-0.0168
535.7466	-0.0116
535.9427	-0.0029
536.1387	-0.0089
536.3348	-0.0113
536.5308	-0.0041
536.7269	-0.0194
536.9229	-0.0073
537.1189	-0.0036
537.3148	-0.0085
537.5108	-0.0064
537.7068	-0.0025
537.9027	-0.002
538.0986	-0.0098
538.2945	-0.018
538.4904	-0.0125
538.6863	-0.0077
538.8821	-0.0124
539.078	-0.0037
539.2738	-0.0109
539.4696	-0.0072
539.6654	-0.0024
539.8611	0.0025
540.0569	-0.0126
540.2526	-0.0109
540.4484	-0.0122
540.6441	-0.0041
540.8398	-0.0106
541.0355	0.0049
541.2311	-0.0102
541.4268	-0.0149
541.6224	-0.0024
541.818	-0.0015
542.0136	-0.0109
542.2092	-0.0034
542.4048	-0.0023
542.6003	-0.0071
542.7959	-0.0008
542.9914	-0.0076
543.1869	-0.003
543.3824	-0.0061
543.5779	-0.0086
543.7734	-0.0104
543.9688	-0.0096
544.1642	-0.0042
544.3596	-0.0095
544.555	-0.0103
544.7504	-0.0124
544.9458	-0.0071
545.1411	-0.0041
545.3365	0.0008
545.5318	-0.0127
545.7271	-0.0096
545.9224	0.001
546.1177	-0.0088
546.3129	0.0007
546.5081	-0.007
546.7034	-0.0065
546.8986	-0.0058
547.0938	-0.0093
547.289	-0.0128
547.4841	-0.0082
547.6793	-0.0033
547.8744	-0.0105
548.0695	-0.0069
548.2646	-0.0084
548.4597	0.0053
548.6548	-0.0031
548.8498	-0.004
549.0448	0.004
549.2399	-0.0144
549.4349	-0.0011
549.6298	-0.0086
549.8248	0.0003
550.0198	-0.0036
550.2147	-0.0063
550.4096	-0.013
550.6045	-0.0146
550.7994	0.0022
550.9943	0.0033
551.1892	-0.0076
551.384	-0.0055
551.5788	-0.0086
551.7737	-0.0087
551.9685	0.0023
552.1632	0.001
552.358	-0.0062
552.5528	-0.0011
552.7475	-0.0064
552.9422	-0.0089
553.1369	0.0009
553.3316	0.0024
553.5263	-0.0046
553.7209	0.004
553.9156	-0.0033
554.1102	-0.0082
554.3048	-0.0025
554.4994	0.0138
554.694	-0.0101
554.8885	0.0031
555.0831	-0.0012
555.2776	-0.0105
555.4721	-0.0016
555.6666	-0.0062
555.8611	0.0006
556.0555	-0.0124
556.25	-0.0043
556.4444	-0.0163
556.6388	-0.0034
556.8332	0.0015
557.0276	-0.0082
557.222	-0.0045
557.4163	-0.006
557.6107	-0.0179
557.805	0.0004
557.9993	-0.0115
558.1936	0.0058
558.3879	0.0006
558.5821	-0.0033
558.7764	-0.0066
558.9706	0.0071
559.1648	0.0018
559.359	-0.0101
559.5532	-0.018
559.7473	-0.0121
559.9415	0.0013
560.1356	-0.0089
560.3297	-0.0052
560.5238	-0.0061
560.7179	-0.0006
560.9119	-0.001
561.106	-0.0066
561.3	-0.0053
561.494	-0.01
561.688	-0.0055
561.882	-0.0081
562.076	-0.0077
562.2699	0.0026
562.4639	-0.0107
562.6578	-0.0016
562.8517	-0.0037
563.0456	0.0011
563.2395	0.0047
563.4333	0.0031
563.6272	0.0088
563.821	-0.0135
564.0148	-0.004
564.2086	-0.0111
564.4024	-0.0042
564.5961	-0.0059
564.7899	0.0001
564.9836	-0.0088
565.1773	0.0024
565.371	0.0084
565.5647	0.0015
565.7584	-0.0026
565.952	0.0021
566.1456	-0.009
566.3393	-0.0017
566.5329	0.0003
566.7264	-0.0034
566.92	-0.0099
567.1136	0.0013
567.3071	-0.0036
567.5006	-0.0023
567.6941	-0.0089
567.8876	-0.0058
568.0811	0.0013
568.2745	0.0046
568.468	-0.0001
568.6614	-0.0103
568.8548	-0.0047
569.0482	-0.0009
569.2416	-0.0069
569.4349	0.0001
569.6283	-0.0003
569.8216	0.0034
570.0149	-0.0023
570.2082	-0.0004
570.4015	0.005
570.5947	0.0026
570.788	0.0021
570.9812	-0.0074
571.1744	-0.0027
571.3676	-0.0103
571.5608	-0.0043
571.754	0.0019
571.9471	0.0042
572.1402	0.002
572.3333	-0.0036
572.5264	-0.0029
572.7195	-0.0044
572.9126	-0.0052
573.1057	0.0059
573.2987	-0.0057
573.4917	0.0031
573.6847	-0.0098
573.8777	0.0064
574.0707	-0.001
574.2636	-0.0041
574.4566	-0.0082
574.6495	0.0034
574.8424	0.0002
575.0353	-0.0027
575.2281	0.0076
575.421	0.0021
575.6138	0.0011
575.8067	-0.0007
575.9995	0.005
576.1923	0.0045
576.385	-0.0036
576.5778	-0.0034
576.7706	-0.0058
576.9633	-0.0032
577.156	0.0067
577.3487	-0.0023
577.5414	0.0004
577.734	-0.0031
577.9267	0.0043
578.1193	-0.0064
578.3119	-0.0028
578.5045	-0.0004
578.6971	-0.003
578.8897	0.0039
579.0822	0.0043
579.2747	-0.0016
579.4673	-0.0042
579.6598	-0.0026
579.8522	-0.0073
580.0447	-0.0077
580.2372	-0.0046
580.4296	0.0046
580.622	0.0007
580.8144	0.0009
581.0068	-0.0015
581.1992	-0.0121
581.3915	-0.0058
581.5839	-0.0088
581.7762	-0.0106
581.9685	-0.0066
582.1608	0.0003
582.353	-0
582.5453	0.0036
582.7375	0.0036
582.9298	0.0024
583.122	0.0052
583.3142	-0.0037
583.5063	0.001
583.6985	-0.0007
583.8906	-0.0041
584.0827	-0.0092
584.2749	0.0095
584.4669	0.0009
584.659	-0.001
584.8511	0.0028
585.0431	-0.0017
585.2352	0.0015
585.4272	-0.0054
585.6192	0.0031
585.8111	0.0003
586.0031	-0.0046
586.195	-0.0025
586.387	0.0084
586.5789	-0.0026
586.7708	0.0043
586.9627	-0.0009
587.1545	0.0006
587.3464	0.0001
587.5382	0.0078
587.73	0.0035
587.9218	0.0081
588.1136	0.0021
588.3053	0.0007
588.4971	-0.0067
588.6888	-0.0057
588.8805	0.0012
589.0722	0.0031
589.2639	0.0055
589.4556	0.0019
589.6472	-0.002
589.8389	-0.0119
590.0305	-0.0152
590.2221	0.0027
590.4137	-0.0095
590.6052	0.0013
590.7968	-0.0041
590.9883	0.0008
591.1798	-0.0038
591.3713	0.0013
591.5628	0.0018
591.7543	0.002
591.9458	0.0026
592.1372	0.0052
592.3286	0.0064
592.52	0.0045
592.7114	-0.0058
592.9028	-0.0012
593.0941	-0.0037
593.2855	0.0021
593.4768	-0.0031
593.6681	-0.0048
593.8594	0.0038
594.0506	0.0026
594.2419	0.0029
594.4331	0.0028
594.6244	0.0007
594.8156	-0.0077
595.0067	0.0058
595.1979	0.0019
595.3891	0.0002
595.5802	-0.0042
595.7713	-0.0003
595.9624	-0.0029
596.1535	0.0032
596.3446	-0.0027
596.5357	0.0001
596.7267	-0.0012
596.9177	0.0012
597.1087	-0.0037
597.2997	0.0013
597.4907	0.0038
597.6817	-0.0008
597.8726	-0.0058
598.0635	-0.0014
598.2544	-0.0016
598.4453	-0.0022
598.6362	-0.0087
598.827	-0.0098
599.0179	-0.0043
599.2087	-0.0006
599.3995	-0.0009
599.5903	0.001
599.7811	0.0078
599.9718	-0.0037
600.1626	-0.0083
600.3533	-0.0059
600.544	0.0035
600.7347	0.0002
600.9254	0.0025
601.116	-0.0063
601.3067	-0.0056
601.4973	-0.0052
601.6879	0.005
601.8785	-0.0033
602.0691	-0.0025
602.2596	-0.0015
602.4502	-0.004
602.6407	0.0024
602.8312	-0.0001
603.0217	-0.0034
603.2122	-0.0032
603.4027	-0.0003
603.5931	-0.0038
603.7835	-0.0066
603.9739	-0.0023
604.1643	-0.0033
604.3547	-0.0117
604.5451	-0.0022
604.7354	-0.0016
604.9257	-0.0002
605.116	-0.0024
605.3063	0.0019
605.4966	-0.0021
605.6869	-0.001
605.8771	0.0055
606.0673	0.001
606.2575	0.0015
606.4477	0.0049
606.6379	0.0004
606.8281	-0.0018
607.0182	-0.0001
607.2083	0.009
607.3985	-0.0049
607.5885	-0
607.7786	0.0015
607.9687	-0.0023
608.1587	0.0044
608.3488	0.0068
608.5388	-0.0013
608.7288	0.0013
608.9187	-0.0078
609.1087	-0.0012
609.2986	-0.0024
609.4886	-0.0043
609.6785	0.0052
609.8684	0.0055
610.0582	0.0028
610.2481	-0.0001
610.4379	0.0037
610.6278	-0.0081
610.8176	0.0024
611.0074	-0.0054
611.1971	-0.0043
611.3869	-0.0036
611.5766	-0.0108
611.7664	0.0031
611.9561	0.0026
612.1458	-0.0025
612.3354	-0.0016
612.5251	0.0008
612.7147	0.0036
612.9044	0.0026
613.094	-0.0076
613.2836	-0.0007
613.4731	0.0035
613.6627	-0.0061
613.8522	0.0008
614.0417	-0.0005
614.2313	-0.0041
614.4207	-0.01
614.6102	-0.0006
614.7997	-0.002
614.9891	-0.0012
615.1785	0.0004
615.3679	-0.005
615.5573	0.0058
615.7467	-0.0015
615.9361	-0.0037
616.1254	-0.0059
616.3147	0.0015
616.504	0.0032
616.6933	0.0037
616.8826	0.0037
617.0718	0.0034
617.2611	0.0068
617.4503	-0.0065
617.6395	-0.0025
617.8287	0.0067
618.0179	0.0054
618.207	0.0098
618.3961	0.0013
618.5853	-0.0028
618.7744	0.0059
618.9634	0.0022
619.1525	0.0034
619.3416	0.0012
619.5306	0.0015
619.7196	0.0054
619.9086	-0.0021
620.0976	0.0077
620.2866	-0.0012
620.4755	0.0091
620.6645	0.0068
620.8534	0.0102
621.0423	0.0074
621.2312	0.0086
621.42	0.0021
621.6089	-0.0036
621.7977	0.0049
621.9865	-0.0069
622.1753	0.0024
622.3641	-0.003
622.5529	0.003
622.7416	-0.0001
622.9303	0.0048
623.1191	0.009
623.3078	0.0031
623.4964	0.0063
623.6851	-0.0043
623.8737	-0.002
624.0624	0.0034
624.251	-0.0037
624.4396	0.0019
624.6282	-0.0035
624.8167	-0.0003
625.0053	0.0066
625.1938	0.0044
625.3823	0.0003
625.5708	-0.0041
625.7593	-0.0117
625.9477	-0.0029
626.1362	0.003
626.3246	-0.0046
626.513	0.0007
626.7014	0.0035
626.8898	-0.0015
627.0781	0.0019
627.2665	-0.0024
627.4548	-0.0007
627.6431	0.0015
627.8314	-0.0009
628.0197	0.0092
628.2079	-0.0044
628.3962	-0.0049
628.5844	0.0036
628.7726	0.0109
628.9608	0.0043
629.1489	0.0044
629.3371	0.0049
629.5252	-0.0033
629.7134	0.0083
629.9015	-0.0005
630.0895	0.0021
630.2776	-0.0021
630.4657	-0.0037
630.6537	-0.0036
630.8417	0.0063
631.0297	0.0036
631.2177	-0.0003
631.4057	-0.006
631.5936	0.0027
631.7815	0.0051
631.9695	0.0036
632.1574	-0.0011
632.3452	0.0093
632.5331	0.0031
632.7209	0.0006
632.9088	0.0093
633.0966	0.011
633.2844	-0.0064
633.4722	-0.0013
633.6599	0.007
633.8477	0.0031
634.0354	-0.0016
634.2231	-0.0056
634.4108	0.0046
634.5985	0.0044
634.7861	-0.0041
634.9738	-0.0051
635.1614	-0.0011
635.349	-0.0041
635.5366	-0.0016
635.7242	0.0015
635.9117	0.0036
636.0993	-0.0034
636.2868	0
636.4743	-0.0018
636.6618	0.0109
636.8492	0.0045
637.0367	0.003
637.2241	-0.0104
637.4115	-0.0081
637.5989	-0.0028
637.7863	0
637.9737	-0.0087
638.161	0.0037
638.3484	-0.0028
638.5357	0.0079
638.723	-0.0048
638.9103	-0.0001
639.0975	0.0046
639.2848	0.0028
639.472	-0.0059
639.6592	0.0083
639.8464	0.0086
640.0336	0.0053
640.2208	-0.0008
640.4079	-0.0026
640.595	0.0007
640.7821	-0.0043
640.9692	-0.0056
641.1563	0.0021
641.3434	-0.0011
641.5304	-0.0075
641.7174	-0.0044
641.9044	-0.0056
642.0914	-0.0055
642.2784	0.0042
642.4653	0.0046
642.6523	0.001
642.8392	0.0024
643.0261	-0.0028
643.213	0.0013
643.3999	-0.0042
643.5867	-0.0032
643.7735	-0.0052
643.9604	-0.0157
644.1472	-0.004
644.3339	-0.0001
644.5207	-0.0032
644.7075	-0.0014
644.8942	0.0022
645.0809	0.0026
645.2676	0.014
645.4543	-0.0009
645.6409	0.0009
645.8276	-0.0073
646.0142	-0.0004
646.2008	-0.0042
646.3874	-0.0097
646.574	-0.0012
646.7605	-0.0072
646.9471	-0.005
647.1336	0.0004
647.3201	0.0042
647.5066	-0.0052
647.6931	-0.0032
647.8795	0.0001
648.0659	-0.0015
648.2524	0.0006
648.4388	-0.0053
648.6252	-0.0038
648.8115	-0.0102
648.9979	-0.0072
649.1842	-0.0063
649.3705	-0.0008
649.5568	0.0059
649.7431	0.0023
649.9294	-0.0006
650.1156	0.0078
650.3018	-0.0095
650.488	0.0085
650.6742	0.0029
650.8604	0
651.0466	-0.0097
651.2327	0.0002
651.4188	-0.0067
651.6049	-0.0104
651.791	-0.0054
651.9771	-0
652.1632	0.003
652.3492	-0.0036
652.5352	-0.0034
652.7212	-0.0072
652.9072	0
653.0932	-0.0079
653.2791	-0.0098
653.465	0.0011
653.651	-0.0025
653.8369	-0.0126
654.0227	-0.0123
654.2086	-0.0004
654.3944	0.0001
654.5803	-0.0088
654.7661	-0.0124
654.9519	0.0008
655.1377	-0.0054
655.3234	-0.0072
655.5092	-0.0039
655.6949	-0.0059
655.8806	-0.0057
656.0663	-0.003
656.2519	-0.0076
656.4376	-0.0076
656.6232	-0.001
656.8088	-0.0092
656.9945	-0.001
657.18	-0.004
657.3656	-0.0009
657.5511	-0.0062
657.7367	-0.0075
657.9222	-0.0016
658.1077	-0.0033
658.2932	-0.0017
658.4786	-0.0113
658.6641	-0.0034
658.8495	-0.007
659.0349	-0.0068
659.2203	0.0028
659.4057	-0.0059
659.591	-0
659.7764	-0.0069
659.9617	-0.0032
660.147	-0.0068
660.3323	-0.0057
660.5176	0.0058
660.7028	-0.0046
660.888	-0.0049
661.0733	0.0011
661.2585	-0.0079
661.4436	-0.0062
661.6288	-0.0126
661.8139	-0.0081
661.9991	0.0011
662.1842	-0.0044
662.3693	-0.0005
662.5544	-0.0054
662.7394	0.0003
662.9245	-0.0066
663.1095	-0.0082
663.2945	-0.0018
663.4795	-0.0084
663.6644	-0.0048
663.8494	-0.0043
664.0343	-0.0051
664.2193	-0.0046
664.4042	-0.0026
664.589	-0.0032
664.7739	-0.0028
664.9587	-0.005
665.1436	-0.003
665.3284	0.0024
665.5132	-0.0025
665.698	0.0002
665.8827	0.0035
666.0675	0.0015
666.2522	-0.0027
666.4369	0.0078
666.6216	0.0021
666.8063	0.0018
666.9909	-0.001
667.1756	-0.0046
667.3602	-0.0022
667.5448	-0.0062
667.7294	0.0058
667.9139	-0.0009
668.0985	0.015
668.283	0.0022
668.4675	-0.0026
668.652	0.0008
668.8365	0.0013
669.0209	0.0034
669.2054	0.0061
669.3898	-0.0005
669.5742	0.0077
669.7586	0.0018
669.943	0.0022
670.1273	0.0059
670.3117	0.0031
670.496	0.003
670.6803	0.0117
670.8646	0.0059
671.0488	0.001
671.2331	0.0044
671.4173	0.007
671.6015	0.0022
671.7857	0.0112
671.9699	0.0052
672.1541	0.0039
672.3382	0.0063
672.5223	0.0071
672.7064	0.002
672.8905	0.004
673.0746	0.0076
673.2587	-0.0027
673.4427	0.0066
673.6267	0.0044
673.8107	0.0125
673.9947	0.0059
674.1787	-0.0015
674.3626	-0.0111
674.5465	0.0022
674.7304	0.0038
674.9143	-0.0054
675.0982	0.0037
675.2821	-0.0084
675.4659	0.0023
675.6497	0.0044
675.8335	0.0033
676.0173	0.0009
676.2011	-0.0093
676.3849	-0.0023
676.5686	-0.001
676.7523	-0.0011
676.936	-0.0032
677.1197	-0.0057
677.3034	-0.0017
677.487	0.0036
677.6706	0.0006
677.8542	-0.0001
678.0378	-0.0026
678.2214	0.0006
678.405	-0.0077
678.5885	-0.0045
678.772	-0.0027
678.9555	-0.0037
679.139	-0.0004
679.3225	0.0005
679.5059	-0.0044
679.6894	0.0012
679.8728	-0.0013
680.0562	-0.0143
680.2395	-0.0044
680.4229	-0.0002
680.6062	0.0027
680.7896	-0.0023
680.9729	-0.004
681.1562	-0.0013
681.3394	0.0011
681.5227	-0.0031
681.7059	-0.0071
681.8891	-0.0028
682.0723	0.0009
682.2555	0.0063
682.4387	-0.0111
682.6218	-0.0006
682.805	0.0006
682.9881	-0.001
683.1712	0.0003
683.3542	-0.0042
683.5373	0.0041
683.7203	-0.0101
683.9034	0.0004
684.0864	-0.0093
684.2694	-0.004
684.4523	-0.0011
684.6353	-0.0123
684.8182	-0.005
685.0011	-0.0109
685.184	-0.0011
685.3669	-0.0039
685.5498	0.0044
685.7326	0.0013
685.9154	-0.007
686.0982	0.0049
686.281	0.0087
686.4638	0.0071
686.6465	0.0036
686.8293	-0.0045
687.012	-0.002
687.1947	-0.0097
687.3774	0.0049
687.56	-0.009
687.7427	0.0003
687.9253	0.0012
688.1079	-0.0053
688.2905	0.0048
688.4731	-0.0056
688.6556	-0.0034
688.8382	-0.0031
689.0207	0.0029
689.2032	-0.0064
689.3857	-0.0106
689.5681	0.0055
689.7506	-0.0012
689.933	-0.0011
690.1154	-0.0015
690.2978	0.0015
690.4802	-0.0018
690.6626	-0.0138
690.8449	-0.0079
691.0272	0.0006
691.2095	-0.0066
691.3918	-0.0091
691.5741	-0.0051
691.7563	0.0013
691.9386	0.0026
692.1208	0.0034
692.303	0.0004
692.4852	-0.005
692.6673	-0.0035
692.8495	-0.0012
693.0316	0.0002
693.2137	0.0011
693.3958	0.003
693.5778	-0.0023
693.7599	0.004
693.9419	0.0034
694.1239	0.0054
694.3059	-0.0096
694.4879	0.003
694.6699	0.0008
694.8518	0.0019
695.0337	-0.0035
695.2157	0.0073
695.3975	-0.0041
695.5794	0.0099
695.7613	0.0041
695.9431	0.0004
696.1249	0.003
696.3067	0.0021
696.4885	0.0066
696.6703	-0.0131
696.852	0.0026
697.0337	-0.0052
697.2154	-0.0009
697.3971	-0.0025
697.5788	-0.0047
697.7605	-0.006
697.9421	-0
698.1237	-0.004
698.3053	0.0027
698.4869	-0.0097
698.6685	-0.0069
698.85	-0.0025
699.0315	-0.0017
699.213	-0.005
699.3945	0.0004
699.576	0.0057
699.7575	-0.0008
699.9389	0.0066
700.1203	0.004
700.3017	0.0002
700.4831	-0.0023
700.6645	-0.0033
700.8458	0.011
701.0271	-0.002
701.2084	0.003
701.3897	-0.0032
701.571	0.003
701.7523	-0.007
701.9335	-0.005
702.1147	-0.0007
702.2959	-0.0028
702.4771	0.0023
702.6583	-0.0055
702.8394	-0.0093
703.0205	-0
703.2016	-0.0031
703.3827	-0.0031
703.5638	0.0133
703.7449	-0.0024
703.9259	0.0118
704.1069	0.0001
704.2879	0.003
704.4689	0.0043
704.6499	-0.0001
704.8308	0.0072
705.0117	0.0064
705.1927	0.0017
705.3735	-0.0008
705.5544	-0.0078
705.7353	0.0043
705.9161	-0.0002
706.0969	-0.0027
706.2777	0.0009
706.4585	0.0001
706.6393	-0.002
706.82	-0.012
707.0007	0.0015
707.1815	0.0019
707.3621	0.0142
707.5428	0.002
707.7235	0.003
707.9041	-0.0037
708.0847	-0.0013
708.2653	-0.0109
708.4459	-0.016
708.6265	0.0054
708.807	0.0008
708.9875	-0.0086
709.168	-0.0035
709.3485	-0.0012
709.529	-0.0089
709.7095	-0.0186
709.8899	0.0034
710.0703	-0.0077
710.2507	-0.0025
710.4311	-0.0022
710.6115	-0.0093
710.7918	-0.0076
710.9721	0.001
711.1524	-0.0097
711.3327	-0.0077
711.513	-0.003
711.6932	-0.0028
711.8735	0.0126
712.0537	0.0045
712.2339	-0.008
712.4141	-0.0065
712.5942	-0.0129
712.7744	-0.0005
712.9545	-0.0094
713.1346	-0.0068
713.3147	-0.0129
713.4947	-0.0114
713.6748	-0.0019
713.8548	-0.0012
714.0348	-0.0105
714.2148	-0.0017
714.3948	0.0041
714.5748	-0.0013
714.7547	-0.0009
714.9346	0.0023
715.1145	-0.0042
715.2944	-0.0049
715.4743	-0.0051
715.6541	-0.0085
715.834	-0.002
716.0138	0.001
716.1936	-0.016
716.3733	-0.0064
716.5531	0.0017
716.7328	-0.0056
716.9126	-0.002
717.0923	0.0011
717.2719	-0.0011
717.4516	-0.0015
717.6312	0.0027
717.8109	-0.0025
717.9905	-0.0014
718.1701	-0.0043
718.3496	-0.0065
718.5292	0.0038
718.7087	-0.007
718.8882	-0.0013
719.0677	0.0011
719.2472	-0.0052
719.4267	-0.0009
719.6061	-0.0062
719.7856	0.002
719.965	0.0014
720.1443	-0.0157
720.3237	0.0076
720.5031	0.0034
720.6824	0.0087
720.8617	0.0047
721.041	0.0056
721.2203	0.0052
721.3995	0.0105
721.5788	0.0063
721.758	0.0091
721.9372	0.0027
722.1164	-0.0013
722.2956	0.0087
722.4747	0.0001
722.6538	0.002
722.8329	0.0121
723.012	0.0018
723.1911	-0.0011
723.3702	0.0039
723.5492	0.0043
723.7282	-0.0041
723.9072	0.0043
724.0862	-0.0045
724.2652	-0.0003
724.4441	-0.0007
724.623	-0.0041
724.8019	-0.007
724.9808	-0.0001
725.1597	0.0007
725.3385	0.0026
725.5174	0.0012
725.6962	0.0035
725.875	-0.0004
726.0538	0.008
726.2325	0.001
726.4112	0.0012
726.59	-0.0088
726.7687	0.0016
726.9474	0.0072
727.126	-0.0052
727.3047	-0.0013
727.4833	-0.0067
727.6619	-0.0125
727.8405	-0.0081
728.0191	-0.0039
728.1976	0.0011
728.3762	-0.0018
728.5547	-0.0014
728.7332	-0.0065
728.9116	-0.0022
729.0901	0.0037
729.2686	-0.0047
729.447	-0.0045
729.6254	-0.0051
729.8038	-0.0048
729.9821	-0.0132
730.1605	-0.0049
730.3388	-0.0087
730.5171	-0.0029
730.6954	-0.0098
730.8737	-0.0015
731.0519	0.0021
731.2302	0.002
731.4084	0.0007
731.5866	0.0078
731.7648	-0.0057
731.9429	0.001
732.1211	-0.0083
732.2992	0.0077
732.4773	-0.0106
732.6554	-0.0014
732.8335	0.0068
733.0115	0.0039
733.1896	0.0104
733.3676	0.0018
733.5456	0.0019
733.7235	0.0008
733.9015	0.0011
734.0794	0.0001
734.2574	-0.0053
734.4353	-0.0033
734.6131	0.0112
734.791	0.0013
734.9689	-0.0021
735.1467	0.0094
735.3245	-0.0063
735.5023	-0.0118
735.68	-0.0112
735.8578	-0.0007
736.0355	-0.0197
736.2132	-0.0078
736.3909	-0.006
736.5686	-0.0099
736.7463	-0.0036
736.9239	-0.0137
737.1015	-0.0115
737.2791	-0.0035
737.4567	-0.0039
737.6343	-0.0081
737.8118	-0.0053
737.9894	0.0012
738.1669	-0.0144
738.3444	-0.0119
738.5218	-0.007
738.6993	-0.0021
738.8767	-0.0085
739.0541	-0.0005
739.2315	-0.0127
739.4089	-0.0054
739.5863	0.0029
739.7636	-0.0087
739.9409	-0.0068
740.1182	0.0043
740.2955	-0.0021
740.4728	-0.004
740.65	-0.003
740.8272	-0.0067
741.0044	-0.0116
741.1816	0.0029
741.3588	-0.004
741.5359	0.0033
741.7131	-0.0101
741.8902	-0.0113
742.0673	-0.0072
742.2444	-0.0081
742.4214	-0.0102
742.5985	-0.0119
742.7755	-0.0151
742.9525	-0.0189
743.1295	-0.0012
743.3064	-0.005
743.4834	-0.0043
743.6603	-0.0009
743.8372	-0.0031
744.0141	-0.0017
744.191	-0.0034
744.3678	-0.0059
744.5446	0.0037
744.7215	0.0071
744.8982	-0.003
745.075	-0.008
745.2518	0.0021
745.4285	-0.0031
745.6052	0.0007
745.7819	-0.002
745.9586	0.0035
746.1353	0.0025
746.3119	-0.0079
746.4885	-0.0009
746.6651	-0.0025
746.8417	0.0115
747.0183	-0.0071
747.1948	-0.0031
747.3714	0.0037
747.5479	0.0104
747.7244	0.0023
747.9008	0.0156
748.0773	0.0013
748.2537	0.0026
748.4301	-0.0105
748.6065	0.0024
748.7829	-0.0021
748.9593	-0.0091
749.1356	-0.0016
749.3119	0.0107
749.4882	-0.0015
749.6645	0.0036
749.8408	-0.0026
750.017	-0.0057
750.1933	0.0015
750.3695	-0.0013
750.5457	0.0089
750.7218	-0.0031
750.898	0.0059
751.0741	0.0028
751.2502	-0.0025
751.4263	0.0021
751.6024	0.0003
751.7784	-0.0116
751.9545	-0.0095
752.1305	0.0031
752.3065	-0.0029
752.4825	-0.0042
752.6584	-0.0149
752.8344	-0.0017
753.0103	-0.0065
753.1862	-0.0128
753.3621	-0.0046
753.5379	-0.0169
753.7138	-0.0106
753.8896	-0.0059
754.0654	0.0061
754.2412	0.0061
754.417	0.0026
754.5927	-0.0058
754.7685	-0.0127
754.9442	-0.0016
755.1199	0.0086
755.2956	-0.0077
755.4712	0.0014
755.6469	0.0046
755.8225	-0.0118
755.9981	-0.0042
756.1736	-0.0029
756.3492	-0.0011
756.5248	-0.0087
756.7003	-0.0087
756.8758	0.0109
757.0513	0.0022
757.2267	-0.0052
757.4022	0.007
757.5776	-0.0117
757.753	-0.0099
757.9284	-0.003
758.1038	0.0049
758.2791	0.012
758.4545	-0.0091
758.6298	-0.0023
758.8051	0.0077
758.9803	0.0009
759.1556	-0.0005
759.3308	0.0022
759.506	0.0138
759.6812	0.003
759.8564	0.0088
760.0316	-0.002
760.2067	0.009
760.3819	0.0148
760.557	0.0058
760.732	0.0021
760.9071	-0.016
761.0821	-0.0085
761.2572	0.0081
761.4322	-0.0057
761.6072	-0.0062
761.7821	-0.0115
761.9571	0.0012
762.132	-0.0065
762.3069	-0.0104
762.4818	-0.0075
762.6567	-0.0113
762.8316	-0.0027
763.0064	-0.0016
763.1812	-0.0025
763.356	-0.0023
763.5308	-0.0036
763.7055	0.0004
763.8803	-0.0023
764.055	0.0102
764.2297	-0.01
764.4044	-0.0089
764.579	-0.0156
764.7537	-0.0097
764.9283	-0.0026
765.1029	-0.0154
765.2775	-0.0118
765.4521	-0.0048
765.6266	-0.0102
765.8011	-0.0037
765.9756	-0.0096
766.1501	-0.0014
766.3246	-0.009
766.4991	-0.01
766.6735	0.0079
766.8479	-0.0154
767.0223	-0.0021
767.1967	-0.002
767.371	-0.0032
767.5454	-0.0129
767.7197	0.0086
767.894	0.0019
768.0683	-0.0144
768.2425	0.0006
768.4168	0.0035
768.591	0.0162
768.7652	0.0081
768.9394	-0.0058
769.1135	-0.0012
769.2877	-0.001
769.4618	0.0046
769.6359	0.0028
769.81	0.0009
769.984	-0.0036
770.1581	-0.0097
770.3321	-0.0065
770.5061	-0.008
770.6801	-0.0091
770.8541	0.0022
771.028	0.0063
771.202	-0.0168
771.3759	-0.0001
771.5498	0.0011
771.7236	0.0008
771.8975	0.0083
772.0713	0.0041
772.2451	0.0012
772.4189	0.0072
772.5927	0.0127
772.7665	-0.002
772.9402	-0.0045
773.1139	0.0012
773.2876	-0.003
773.4613	-0.0026
773.635	0.0037
773.8086	-0.0128
773.9822	0.006
774.1558	0.0055
774.3294	-0.0239
774.503	0.0026
774.6765	-0.0081
774.8501	0.0043
775.0236	0.0076
775.1971	-0.0014
775.3705	-0.0102
775.544	0.0091
775.7174	-0.0014
775.8908	-0.0131
776.0642	-0.0039
776.2376	0.0089
776.4109	-0.0091
776.5843	0.0107
776.7576	0.0174
776.9309	0.0118
777.1041	0.0104
777.2774	0.0025
777.4506	-0.0033
777.6238	-0.0112
777.797	-0.0075
777.9702	-0.0016
778.1434	-0.0043
778.3165	-0.0107
778.4896	-0.0061
778.6627	0.0089
778.8358	-0.0017
779.0089	-0.0004
779.1819	0.0048
779.3549	0.0092
779.5279	0.0008
779.7009	0.0071
779.8739	0.0015
780.0468	0.0045
780.2197	0.0059
780.3926	-0.0119
780.5655	-0.0015
780.7384	0.0066
780.9112	0.0056
781.0841	-0.0106
781.2569	-0.0033
781.4297	0.005
781.6024	0.0097
781.7752	0.0024
781.9479	0.0022
782.1206	0.0014
782.2933	-0.0044
782.466	0.0115
782.6386	0.0041
782.8113	-0.0094
782.9839	-0.0031
783.1565	0.0166
783.329	-0.001
783.5016	0.0047
783.6741	0.0067
783.8466	0.0038
784.0191	0.0116
784.1916	-0.0081
784.3641	-0.0054
784.5365	0.0007
784.7089	-0.0023
784.8813	-0.0113
785.0537	0.0099
785.2261	-0.0219
785.3984	-0.0184
785.5707	-0.0163
785.743	-0.0004
785.9153	-0.0098
786.0876	-0.0116
786.2598	-0.0074
786.432	-0.0017
786.6042	-0.0021
786.7764	-0.0165
786.9486	-0.0004
787.1207	-0.0086
787.2928	-0.0018
787.4649	0.0006
787.637	0.0036
787.8091	-0.012
787.9811	-0.0013
788.1532	-0.0049
788.3252	0.0118
788.4972	0.008
788.6691	0.0106
788.8411	-0.0164
789.013	-0.0082
789.1849	-0.0009
789.3568	-0.0147
789.5287	-0.0081
789.7005	-0.0112
789.8723	0.0034
790.0442	0.0173
790.2159	0.0023
790.3877	0.0018
790.5595	-0.0113
790.7312	0.0023
790.9029	0.0054
791.0746	-0.0056
791.2463	0.0045
791.4179	-0.0067
791.5896	-0.0137
791.7612	0.015
791.9328	0.002
792.1044	-0.0151
792.2759	-0.0165
792.4474	0.0053
792.619	-0.0021
792.7905	0.0009
792.9619	0.001
793.1334	0.0281
793.3048	0.0252
793.4762	0.0092
793.6476	0.0162
793.819	-0.0044
793.9904	-0.0147
794.1617	-0.0053
794.333	0.0008
794.5043	-0.0179
794.6756	0.0084
794.8469	-0.0084
795.0181	-0.0016
795.1893	0.0042
795.3605	0.0055
795.5317	0.003
795.7029	0.0012
795.874	0.0096
796.0452	-0.0058
796.2163	-0.0003
796.3873	0.0152
796.5584	0.0127
796.7294	0.011
796.9005	0.0063
797.0715	0.0149
797.2425	-0.0052
797.4134	0.0027
797.5844	0.0113
797.7553	-0.0157
797.9262	-0.0009
798.0971	-0.002
798.2679	0.0002
798.4388	-0.0237
798.6096	-0.0036
798.7804	0.0157
798.9512	-0.0004
799.122	0.01
799.2927	0.012
799.4635	0.0126
799.6342	-0.0155
799.8049	-0.0035
799.9755	0.0006
800.1462	0.0102
800.3168	-0.0017
800.4874	0.0088
800.658	0.0285
800.8286	0.0065
800.9991	0.0147
801.1696	0.0181
801.3402	-0.0053
801.5106	0.0109
801.6811	0.0096
801.8516	0.0113
802.022	0.0016
802.1924	0.0047
802.3628	0.0012
802.5332	0.0114
802.7035	0.0259
802.8739	-0.0069
803.0442	-0.0039
803.2145	-0.0016
803.3847	-0.0116
803.555	-0.013
803.7252	-0.0128
803.8954	-0.0187
804.0656	-0.019
804.2358	0.0035
804.4059	0.0255
804.5761	0.0275
804.7462	0.0097
804.9163	0.0198
805.0864	0.0002
805.2564	-0.0018
805.4264	-0.0037
805.5965	-0.0047
805.7665	0.0209
805.9364	0.0079
806.1064	0.0391
806.2763	0.0194
806.4462	0.0236
806.6161	0.0033
806.786	0.018
806.9559	-0.0009
807.1257	0.0082
807.2955	0.0014
807.4653	-0.0025
807.6351	-0.0235
807.8048	0.0083
807.9746	0.0181
808.1443	0.0211
808.314	0.0017
808.4837	0.0071
808.6533	-0.0073
808.8229	0.0232
808.9926	-0.0025
809.1622	0.0141
809.3317	-0.0188
809.5013	0.0053
809.6708	0.0215
809.8403	0.0233
810.0098	0.0015
810.1793	0.0051
810.3488	0.0102
810.5182	-0.0052
810.6876	0.0289
810.857	-0.0027
811.0264	0.0362
811.1958	0.0186
811.3651	0.0323
811.5344	0.004
811.7037	0.0177
811.873	0.0027
812.0422	0.0085
812.2115	0.014
812.3807	-0.0088
812.5499	0.0227
812.7191	0.0387
812.8882	0.0054
813.0574	-0.0008
813.2265	0.0146
813.3956	-0.0016
813.5646	0.0123
813.7337	-0.0003
813.9027	0.0408
814.0718	0.0462
814.2407	0.0335
814.4097	0.007
814.5787	-0.0104
814.7476	-0.0098
814.9165	0.0182
815.0854	-0.0038
815.2543	0.0046
815.4232	0.0101
815.592	0.0198
815.7608	-0.0003
815.9296	0.0294
816.0984	-0.0009
816.2671	0.0108
816.4359	0.022
816.6046	0.0095
816.7733	0.0028
816.942	0.0144
817.1106	0.0137
817.2793	0.0308
817.4479	0.022
817.6165	0.0214
817.785	0.0274
817.9536	-0.0113
818.1221	-0.008
818.2906	0.0196
818.4591	0.0225
818.6276	0.0127
818.7961	0.0186
818.9645	0.0159
819.1329	0.0125
819.3013	0.0075
819.4697	0.0488
819.638	-0.0041
819.8064	0.0089
819.9747	0.0497
820.143	-0.0036
820.3113	0.0011
820.4795	0.0445
820.6477	0.0097
820.816	0.0039
820.9842	0.0146
821.1523	-0.0201
821.3205	0.0163
821.4886	-0.0082
821.6567	-0.0004
821.8248	0.0223
821.9929	0.0352
822.1609	-0.0089
822.329	0.0273
822.497	0.0362
822.665	-0.0253
822.833	-0.0038
823.0009	0.0259
823.1688	0.0216
823.3367	0.0338
823.5046	0.0148
823.6725	0.0376
823.8404	0.0177
824.0082	0.0212
824.176	0.0136
824.3438	-0.0063
824.5116	-0.0058
824.6793	0.0197
824.847	-0.0012
825.0147	0.0086
825.1824	0.0163
825.3501	0.0414
825.5177	0.0045
825.6854	-0.0021
825.853	0.0175
826.0206	-0.0267
826.1881	0.0127
826.3557	-0.0149
826.5232	0.0096
826.6907	-0.0346
826.8582	0
827.0257	-0.0176
827.1931	0.0208
827.3605	0.0054
827.528	0.0404
827.6953	-0.0401
827.8627	0.0047
828.03	0.0195
828.1974	-0.0051
828.3647	-0.0036
828.532	-0.0131
828.6992	0.0285
828.8665	0.0058
829.0337	-0.0288
829.2009	0.0204
829.3681	0.0145
829.5352	0.0196
829.7024	-0.0296
829.8695	-0.0447
830.0366	0.0371
830.2037	-0.0066
830.3707	0.0291
830.5378	-0.0178
830.7048	0.0038
830.8718	0.0093
831.0388	-0.0213
831.2057	-0.0105
831.3727	0.0105
831.5396	-0.0286
831.7065	-0.0063
831.8734	0.0098
832.0402	-0.0041
832.2071	0.0132
832.3739	0.0215
832.5407	0.003
832.7075	-0.0037
832.8742	-0.0109
833.041	-0.0271
833.2077	-0.0484
833.3744	0.0363
833.541	0.0185
833.7077	-0.0183
833.8743	0.0093
834.0409	0.0018
834.2075	0.0019
834.3741	0.0189
834.5407	0.0208
834.7072	-0.0113
834.8737	-0.0201
835.0402	0.013
835.2067	0.0126
835.3731	0.0238
835.5395	0.0374
835.706	0.0085
835.8723	0.0029
836.0387	0.0116
836.2051	-0.019
836.3714	0.0217
836.5377	-0.0312
836.704	0.0242
836.8703	0.0387
837.0365	-0.0108
837.2027	-0.0134
837.3689	0.0252
837.5351	0.0053
837.7013	-0.0413
837.8674	-0.0488
838.0335	-0.0679
838.1997	-0.0008
838.3657	-0.0331
838.5318	0.0007
838.6978	0.0109
838.8639	0.0339
839.0299	-0
839.1958	0.0418
839.3618	-0.0493
839.5277	-0.0353
839.6937	0.0109
839.8596	0.0082
840.0254	0.0499
840.1913	-0.0209
840.3571	0.0151
840.523	0.0111
840.6888	-0.0219
840.8545	-0.0161
841.0203	-0.0017
841.186	0.0413
841.3517	0.0772
841.5174	-0.0312
841.6831	-0.0157
841.8488	-0.0345
842.0144	0.0168
842.18	0.0153
842.3456	-0.0074
842.5112	0.0051
842.6767	-0.0239
842.8422	-0.0269
843.0077	-0.0514
843.1732	-0.0282
843.3387	-0.0112
843.5042	-0.0115
843.6696	-0.0166
843.835	0.0011
844.0004	0.0219
844.1657	-0.0138
844.3311	-0.0153
844.4964	-0.094
844.6617	-0.0164
844.827	-0.0441
844.9923	0.0407
845.1575	0.0308
845.3227	-0.0552
845.4879	-0.0209
845.6531	-0.0517
845.8183	-0.1172
845.9834	-0.0219
846.1485	0.0099
846.3136	0.0155
846.4787	-0.0636
846.6438	0.0245
846.8088	-0.0332
846.9738	-0.1274
847.1388	0.0492
847.3038	-0.0472
847.4687	-0.1315
847.6337	-0.0026
847.7986	-0.0332
847.9635	0.0015
848.1284	0.0975
848.2932	-0.0077
848.458	-0.0034
848.6228	0.0924
848.7876	-0
848.9524	-0.1104
849.1172	-0.0869
849.2819	-0.0349
849.4466	-0.1828
849.6113	-0.0737
849.7759	0.0554
849.9406	0.0139
850.1052	-0.0051
850.2698	0.0057
850.4344	0.0866
850.599	-0.103
850.7635	0.0824
850.928	-0.0493
851.0925	-0.0625
851.257	0.129
851.4215	-0.0045
851.5859	0
851.7503	-0.0121
851.9147	-0.0177
852.0791	-0.0723
852.2434	-0.0258
852.4078	-0.0082
852.5721	-0.0699
852.7364	-0.0482
852.9007	-0.2001
853.0649	0.0242
853.2291	0.0821
853.3934	-0.0642
853.5575	0.0508
853.7217	-0.1464
853.8859	-0.1592
854.05	-0.0729
854.2141	-0.0804
854.3782	-0.1269
854.5423	-0.0994
854.7063	0.0924
854.8703	0.0466
855.0343	0.0063
855.1983	-0.2617
855.3623	0.0907
855.5262	0.0225
855.6901	-0.0697
855.854	0.0434
856.0179	-0.0258
856.1818	-0.0171
856.3456	-0.0995
856.5094	-0.1134
856.6732	-0.1578
856.837	-0.0108
857.0008	0.0231
857.1645	-0.0149
857.3282	-0.2226
857.4919	-0.0218
857.6556	0.1166
857.8192	-0.0807
857.9828	-0.0608
858.1465	-0.0191
858.31	-0.2012
858.4736	-0.0627
858.6372	-0.1782
858.8007	-0.1858
858.9642	-0.1426
859.1277	0.0241
859.2911	0.0189
859.4546	-0.046
859.618	-0.2912
859.7814	-0.0988
859.9448	0.0913
860.1081	-0.0053
860.2715	0.0755
860.4348	-0.1129
860.5981	-0.1042
860.7614	0.1743
860.9246	-0.1652
861.0879	-0.192
861.2511	-0.0121
861.4143	-0.3818
861.5774	0.0941
861.7406	-0.3507
861.9037	0.0162
862.0668	-0.2658
862.2299	-0.1757
862.393	-0.3525
862.556	-0.1095
862.7191	-0.1126
862.8821	-0.1292
863.0451	-0.1233
863.208	-0.0321
863.371	-0.1203
863.5339	-0.2119
863.6968	0.093
863.8597	-0.2256
864.0225	0.006
864.1854	-0.0177
864.3482	-0.2138
864.511	0.087
864.6737	0.0712
864.8365	-0.1707
864.9992	-0.507
865.1619	-0.347
865.3246	-0.27
865.4873	-0.1625
865.65	-0.4025
865.8126	-0.1569
865.9752	0.2688
866.1378	-0.2753
866.3004	-0
866.4629	0.2253
866.6254	-0.2182
866.7879	-0.1525
866.9504	-0.3903
867.1129	-0
867.2753	0.007
867.4377	0.0405
867.6001	-0.2303
867.7625	0.0364
867.9249	-0.2688
868.0872	-0.209
868.2495	0.5126
868.4118	-0.3508
868.5741	-0.8887
868.7363	-0.4053
868.8986	-0.4051
869.0608	-0.1143
869.223	-0.1708
869.3851	0.4489
869.5473	-0
869.7094	0.0368
869.8715	-0.3157
870.0336	-0.656
870.1957	-0.3936
870.3577	-1.2115
870.5197	-0.017
870.6817	-0.2993
870.8437	-0.1995
871.0057	-0
871.1676	-0.6845
871.3295	0.4692
871.4914	-0
871.6533	-0.629
871.8151	-0.5331
871.977	-0
872.1388	-0
872.3006	-0
872.4623	1.2788
872.6241	-0.0915
872.7858	0.1425
872.9475	-0.3065
873.1092	-0.2067
873.2709	0.1313
873.4325	-0.1182
873.5941	-0
873.7557	-0
873.9173	-0
874.0789	-0.0716
874.2404	-0.6096
874.4019	0.4041
874.5634	-0.3811
874.7249	-0.0835
874.8863	0.1589
875.0478	0.4734
875.2092	-0
875.3706	0.0522
875.5319	-0.4677
875.6933	-0.0186
875.8546	0.7819
876.0159	-0
876.1772	1.1967
876.3385	-0
876.4997	0.5476
876.6609	-0.5939
876.8221	-0.4543
876.9833	-0
877.1445	-0
877.3056	0.1306
877.4667	-0.1302
877.6278	-0
877.7889	-0.8383
877.9499	-0
878.111	0
878.272	-0
878.433	-0
878.5939	-0
878.7549	-0.2282
878.9158	1.4914
879.0767	-0.1255
879.2376	-0.0298
879.3984	-0.3387
879.5593	-0
879.7201	-0.0234
879.8809	-0.2521
880.0417	-0
880.2024	0.1813
880.3632	-0
880.5239	0.1482
880.6846	0.0129
880.8452	-2.4698
881.0059	-0
881.1665	0.0123
881.3271	1.4914
881.4877	-0.5135
881.6483	-0.0891
881.8088	-0.3833
881.9693	-0
882.1298	-0
882.2903	-0
