Data from MonoPyChalIsomerACN10uM380nmA_Absorbance_13-38-29-549.txt Node
Date: Fri Jul 05 13:38:29 BST 2024
User: LASERRRRR
Spectrometer: FLMT03099
Trigger mode: 0
Integration Time (sec): 1.000000E-1
Scans to average: 1
Electric dark correction enabled: true
Nonlinearity correction enabled: false
Boxcar width: 0
XAxis mode: Wavelengths
Number of Pixels in Spectrum: 3648
>>>>>Begin Spectral Data<<<<<
179.3399	-0.3328
179.5586	-0.3328
179.7771	-0.3328
179.9957	0.0186
180.2143	-0
180.4329	-0.2467
180.6514	-0
180.8699	-0
181.0885	-0.1935
181.307	0.2828
181.5255	-0
181.744	-0.4573
181.9625	0.3217
182.181	-0.7582
182.3994	-0
182.6179	-0.0696
182.8363	0.1952
183.0547	-0.211
183.2732	0.0323
183.4916	0.0976
183.71	0.1516
183.9284	0.1656
184.1467	-0.0935
184.3651	-0.1315
184.5835	0.1416
184.8018	0.0595
185.0201	-0.0155
185.2385	0.0645
185.4568	0.2707
185.6751	0.2695
185.8934	0.6469
186.1117	0.022
186.3299	0.0177
186.5482	0.2518
186.7664	0.1247
186.9847	0.0841
187.2029	0.1098
187.4211	0.1311
187.6393	0.2036
187.8575	0.1448
188.0757	0.41
188.2939	0.2213
188.512	-0.0885
188.7302	-0.0186
188.9483	-0.0929
189.1665	0.151
189.3846	-0
189.6027	0.2919
189.8208	0.1776
190.0389	0.1114
190.257	0.1218
190.475	0.1601
190.6931	0.6445
190.9111	0.4408
191.1292	0.1294
191.3472	0.5545
191.5652	0.6086
191.7832	0.427
192.0012	0.434
192.2192	0.4266
192.4371	0.6236
192.6551	0.5712
192.873	0.5043
193.091	0.4278
193.3089	0.4079
193.5268	0.5963
193.7447	0.6586
193.9626	0.5334
194.1805	0.7953
194.3984	0.7623
194.6162	0.5629
194.8341	0.7463
195.0519	0.6208
195.2697	0.9042
195.4875	0.5355
195.7054	0.6425
195.9231	0.6761
196.1409	0.9703
196.3587	0.7212
196.5765	0.7204
196.7942	0.8134
197.012	0.6927
197.2297	0.7614
197.4474	1.3845
197.6651	0.699
197.8828	0.6674
198.1005	0.7242
198.3182	0.6497
198.5358	0.9189
198.7535	0.7149
198.9711	0.6929
199.1888	0.7779
199.4064	1.0029
199.624	0.8178
199.8416	0.8044
200.0592	0.9184
200.2767	0.9762
200.4943	0.9513
200.7119	0.9962
200.9294	0.9867
201.1469	0.7509
201.3645	0.6361
201.582	0.7337
201.7995	0.9308
202.017	0.748
202.2344	0.719
202.4519	0.9899
202.6694	0.9254
202.8868	0.7595
203.1042	1.0362
203.3217	0.9239
203.5391	0.7543
203.7565	0.6774
203.9739	0.8552
204.1913	0.7453
204.4086	0.6862
204.626	0.9425
204.8433	0.7808
205.0607	0.8119
205.278	0.744
205.4953	0.7723
205.7126	0.8549
205.9299	0.9316
206.1472	0.855
206.3644	0.7498
206.5817	0.96
206.7989	0.9794
207.0162	0.7458
207.2334	0.7854
207.4506	0.8208
207.6678	0.8033
207.885	0.8432
208.1022	0.7614
208.3194	0.8122
208.5365	0.8448
208.7537	0.8097
208.9708	0.7784
209.1879	0.8735
209.405	1.095
209.6222	0.9467
209.8392	0.8862
210.0563	0.8074
210.2734	0.8587
210.4905	0.7488
210.7075	0.7931
210.9245	0.6865
211.1416	0.9857
211.3586	0.9072
211.5756	0.8163
211.7926	0.8339
212.0096	0.8126
212.2265	0.7029
212.4435	0.8583
212.6604	0.9812
212.8774	0.7595
213.0943	0.7949
213.3112	0.7392
213.5281	0.7548
213.745	0.7012
213.9619	0.7508
214.1788	0.6865
214.3956	0.7653
214.6125	0.6735
214.8293	0.6859
215.0461	0.6861
215.2629	0.6895
215.4798	0.6985
215.6965	0.5792
215.9133	0.7027
216.1301	0.6346
216.3469	0.6712
216.5636	0.6157
216.7803	0.6549
216.9971	0.6363
217.2138	0.607
217.4305	0.6103
217.6472	0.5934
217.8639	0.6614
218.0805	0.6272
218.2972	0.5682
218.5138	0.5898
218.7305	0.6052
218.9471	0.5843
219.1637	0.5931
219.3803	0.5792
219.5969	0.538
219.8135	0.5291
220.0301	0.5623
220.2466	0.5951
220.4632	0.5277
220.6797	0.4688
220.8962	0.515
221.1127	0.5347
221.3292	0.5615
221.5457	0.5291
221.7622	0.5387
221.9787	0.5346
222.1951	0.5032
222.4116	0.518
222.628	0.522
222.8444	0.5517
223.0608	0.5321
223.2772	0.5225
223.4936	0.5311
223.71	0.5304
223.9264	0.5141
224.1427	0.509
224.3591	0.4819
224.5754	0.557
224.7917	0.5403
225.008	0.572
225.2243	0.495
225.4406	0.5541
225.6569	0.5098
225.8732	0.5302
226.0894	0.5151
226.3057	0.5495
226.5219	0.5459
226.7381	0.5264
226.9543	0.5048
227.1705	0.5485
227.3867	0.5163
227.6029	0.5626
227.8191	0.5521
228.0352	0.5621
228.2513	0.5525
228.4675	0.5585
228.6836	0.5343
228.8997	0.5062
229.1158	0.5473
229.3319	0.5912
229.548	0.5668
229.764	0.5523
229.9801	0.5888
230.1961	0.5651
230.4121	0.5612
230.6282	0.5538
230.8442	0.5563
231.0602	0.5919
231.2761	0.5794
231.4921	0.557
231.7081	0.5738
231.924	0.5664
232.14	0.562
232.3559	0.546
232.5718	0.5841
232.7877	0.5755
233.0036	0.5443
233.2195	0.5577
233.4353	0.5439
233.6512	0.5593
233.867	0.5549
234.0829	0.5394
234.2987	0.553
234.5145	0.5469
234.7303	0.5401
234.9461	0.5788
235.1619	0.5619
235.3776	0.5633
235.5934	0.5476
235.8091	0.5173
236.0249	0.5238
236.2406	0.5457
236.4563	0.53
236.672	0.5529
236.8877	0.5584
237.1034	0.5217
237.319	0.5427
237.5347	0.5707
237.7503	0.5422
237.966	0.5557
238.1816	0.5585
238.3972	0.5313
238.6128	0.5261
238.8284	0.5488
239.0439	0.5454
239.2595	0.5233
239.475	0.5135
239.6906	0.5403
239.9061	0.5084
240.1216	0.5266
240.3371	0.5286
240.5526	0.497
240.7681	0.5218
240.9836	0.4963
241.199	0.4936
241.4145	0.4951
241.6299	0.4833
241.8453	0.4789
242.0607	0.4843
242.2761	0.454
242.4915	0.4555
242.7069	0.4547
242.9223	0.4384
243.1376	0.4208
243.353	0.4196
243.5683	0.4216
243.7836	0.3983
243.9989	0.3983
244.2142	0.3806
244.4295	0.3898
244.6448	0.3877
244.86	0.3742
245.0753	0.3701
245.2905	0.3492
245.5057	0.3392
245.721	0.3426
245.9362	0.3311
246.1514	0.3409
246.3665	0.3213
246.5817	0.3149
246.7969	0.3154
247.012	0.3031
247.2271	0.2961
247.4423	0.2938
247.6574	0.298
247.8725	0.2951
248.0876	0.2868
248.3026	0.2818
248.5177	0.2827
248.7328	0.2619
248.9478	0.2557
249.1628	0.2513
249.3779	0.265
249.5929	0.2448
249.8079	0.2646
250.0228	0.2322
250.2378	0.2357
250.4528	0.2573
250.6677	0.2283
250.8827	0.2349
251.0976	0.2254
251.3125	0.2358
251.5274	0.2186
251.7423	0.2189
251.9572	0.216
252.172	0.2268
252.3869	0.2116
252.6017	0.2178
252.8166	0.2099
253.0314	0.1952
253.2462	0.2041
253.461	0.2099
253.6758	0.2057
253.8906	0.208
254.1053	0.1975
254.3201	0.2039
254.5348	0.2081
254.7496	0.2018
254.9643	0.1888
255.179	0.1927
255.3937	0.1903
255.6083	0.1934
255.823	0.2095
256.0377	0.1953
256.2523	0.1976
256.467	0.1732
256.6816	0.2039
256.8962	0.1932
257.1108	0.185
257.3254	0.191
257.54	0.1774
257.7545	0.2001
257.9691	0.1949
258.1836	0.1872
258.3981	0.2035
258.6127	0.2111
258.8272	0.1962
259.0417	0.1888
259.2561	0.1826
259.4706	0.1702
259.6851	0.1912
259.8995	0.1865
260.114	0.1854
260.3284	0.1859
260.5428	0.1714
260.7572	0.1863
260.9716	0.1921
261.186	0.1807
261.4003	0.1847
261.6147	0.1932
261.829	0.1808
262.0433	0.1949
262.2577	0.1839
262.472	0.188
262.6863	0.1836
262.9005	0.1849
263.1148	0.1906
263.3291	0.1697
263.5433	0.1865
263.7576	0.1755
263.9718	0.1832
264.186	0.177
264.4002	0.1719
264.6144	0.1724
264.8286	0.1907
265.0427	0.1855
265.2569	0.1915
265.471	0.1735
265.6851	0.18
265.8993	0.1865
266.1134	0.1761
266.3275	0.174
266.5415	0.1799
266.7556	0.1829
266.9697	0.1893
267.1837	0.1742
267.3978	0.1866
267.6118	0.1826
267.8258	0.189
268.0398	0.1784
268.2538	0.184
268.4677	0.1847
268.6817	0.1731
268.8957	0.1769
269.1096	0.1876
269.3235	0.1917
269.5374	0.17
269.7514	0.1766
269.9652	0.1678
270.1791	0.1754
270.393	0.1637
270.6068	0.1751
270.8207	0.1704
271.0345	0.1634
271.2483	0.1656
271.4622	0.1651
271.676	0.1626
271.8897	0.1554
272.1035	0.1552
272.3173	0.1596
272.531	0.1639
272.7448	0.1734
272.9585	0.1446
273.1722	0.1699
273.3859	0.1692
273.5996	0.1479
273.8133	0.1672
274.0269	0.1574
274.2406	0.1639
274.4542	0.1605
274.6679	0.1607
274.8815	0.1622
275.0951	0.1688
275.3087	0.1652
275.5223	0.1721
275.7358	0.1752
275.9494	0.1601
276.1629	0.1524
276.3765	0.1539
276.59	0.1702
276.8035	0.1651
277.017	0.1728
277.2305	0.1529
277.444	0.159
277.6574	0.1547
277.8709	0.1673
278.0843	0.1583
278.2978	0.1637
278.5112	0.1622
278.7246	0.1782
278.938	0.1709
279.1513	0.1622
279.3647	0.1712
279.5781	0.1604
279.7914	0.1604
280.0047	0.1792
280.2181	0.1646
280.4314	0.1718
280.6447	0.1696
280.8579	0.1668
281.0712	0.1716
281.2845	0.175
281.4977	0.1744
281.711	0.1602
281.9242	0.1698
282.1374	0.1785
282.3506	0.1613
282.5638	0.1674
282.7769	0.1726
282.9901	0.1634
283.2033	0.1828
283.4164	0.1785
283.6295	0.1624
283.8426	0.1697
284.0557	0.1745
284.2688	0.1811
284.4819	0.1773
284.695	0.1687
284.908	0.179
285.1211	0.1756
285.3341	0.1737
285.5471	0.1815
285.7601	0.1759
285.9731	0.1683
286.1861	0.1701
286.3991	0.1827
286.612	0.1807
286.825	0.1816
287.0379	0.1837
287.2508	0.168
287.4637	0.1884
287.6766	0.1686
287.8895	0.1834
288.1024	0.1812
288.3152	0.1916
288.5281	0.1618
288.7409	0.1866
288.9538	0.1775
289.1666	0.1768
289.3794	0.1763
289.5922	0.189
289.8049	0.1804
290.0177	0.1737
290.2304	0.1848
290.4432	0.1935
290.6559	0.1864
290.8686	0.1936
291.0813	0.1842
291.294	0.1834
291.5067	0.1981
291.7194	0.1823
291.932	0.1887
292.1447	0.19
292.3573	0.1723
292.5699	0.1867
292.7825	0.1803
292.9951	0.1783
293.2077	0.1875
293.4203	0.1775
293.6328	0.1677
293.8454	0.1937
294.0579	0.1847
294.2704	0.1981
294.4829	0.1697
294.6954	0.1816
294.9079	0.1868
295.1204	0.1754
295.3328	0.1655
295.5453	0.1759
295.7577	0.1813
295.9701	0.1723
296.1825	0.1757
296.3949	0.1767
296.6073	0.1799
296.8197	0.1645
297.0321	0.1976
297.2444	0.1575
297.4567	0.1834
297.6691	0.1872
297.8814	0.166
298.0937	0.1794
298.306	0.1841
298.5182	0.1727
298.7305	0.1931
298.9428	0.1794
299.155	0.1753
299.3672	0.1799
299.5794	0.173
299.7916	0.1722
300.0038	0.1807
300.216	0.1784
300.4282	0.1822
300.6403	0.1709
300.8525	0.1664
301.0646	0.172
301.2767	0.1755
301.4888	0.1762
301.7009	0.1742
301.913	0.1704
302.125	0.1869
302.3371	0.1722
302.5491	0.1651
302.7612	0.1718
302.9732	0.1719
303.1852	0.1807
303.3972	0.1698
303.6092	0.172
303.8211	0.1624
304.0331	0.1673
304.245	0.1604
304.457	0.154
304.6689	0.1588
304.8808	0.1718
305.0927	0.1616
305.3046	0.1622
305.5164	0.1709
305.7283	0.1536
305.9401	0.1624
306.152	0.1562
306.3638	0.1577
306.5756	0.1594
306.7874	0.1598
306.9992	0.1619
307.2109	0.1555
307.4227	0.1372
307.6344	0.1433
307.8462	0.1435
308.0579	0.1466
308.2696	0.1416
308.4813	0.1366
308.693	0.1329
308.9046	0.1516
309.1163	0.1332
309.328	0.1346
309.5396	0.1229
309.7512	0.1218
309.9628	0.1238
310.1744	0.1235
310.386	0.1275
310.5976	0.1211
310.8091	0.128
311.0207	0.1189
311.2322	0.1268
311.4437	0.117
311.6552	0.1077
311.8667	0.1248
312.0782	0.0957
312.2897	0.1078
312.5012	0.1202
312.7126	0.1114
312.924	0.1038
313.1355	0.1193
313.3469	0.1187
313.5583	0.116
313.7696	0.1077
313.981	0.1128
314.1924	0.105
314.4037	0.1045
314.6151	0.1135
314.8264	0.1032
315.0377	0.0952
315.249	0.1108
315.4603	0.1156
315.6716	0.1076
315.8828	0.0897
316.0941	0.1039
316.3053	0.0998
316.5165	0.0982
316.7277	0.0901
316.9389	0.1082
317.1501	0.0987
317.3613	0.0979
317.5724	0.0848
317.7836	0.1148
317.9947	0.1036
318.2058	0.0932
318.417	0.0925
318.6281	0.0852
318.8391	0.0919
319.0502	0.0936
319.2613	0.0958
319.4723	0.1049
319.6834	0.1004
319.8944	0.0965
320.1054	0.1014
320.3164	0.0968
320.5274	0.0965
320.7383	0.0952
320.9493	0.0866
321.1602	0.1015
321.3712	0.0845
321.5821	0.0986
321.793	0.0921
322.0039	0.0922
322.2148	0.0984
322.4257	0.1045
322.6365	0.1097
322.8474	0.1016
323.0582	0.0964
323.269	0.1004
323.4798	0.095
323.6906	0.0997
323.9014	0.0955
324.1122	0.1098
324.3229	0.0945
324.5337	0.0977
324.7444	0.0911
324.9551	0.1182
325.1658	0.1061
325.3765	0.1034
325.5872	0.1027
325.7979	0.085
326.0085	0.1006
326.2192	0.1086
326.4298	0.1013
326.6404	0.0838
326.851	0.1066
327.0616	0.1011
327.2722	0.0991
327.4828	0.1088
327.6933	0.1115
327.9039	0.1071
328.1144	0.1043
328.3249	0.1014
328.5354	0.0975
328.7459	0.1033
328.9564	0.1008
329.1669	0.0999
329.3773	0.0985
329.5878	0.1013
329.7982	0.1027
330.0086	0.1054
330.219	0.0984
330.4294	0.1082
330.6398	0.1093
330.8502	0.0924
331.0605	0.1064
331.2708	0.1084
331.4812	0.1128
331.6915	0.1071
331.9018	0.1112
332.1121	0.0974
332.3224	0.103
332.5326	0.0999
332.7429	0.0941
332.9531	0.1197
333.1633	0.1025
333.3735	0.1042
333.5837	0.1017
333.7939	0.1029
334.0041	0.12
334.2143	0.1179
334.4244	0.102
334.6346	0.0941
334.8447	0.1273
335.0548	0.1022
335.2649	0.0989
335.475	0.1097
335.685	0.0955
335.8951	0.1276
336.1051	0.1049
336.3152	0.1019
336.5252	0.0983
336.7352	0.1134
336.9452	0.1159
337.1552	0.1222
337.3652	0.0952
337.5751	0.1028
337.7851	0.1036
337.995	0.1044
338.2049	0.1043
338.4148	0.1203
338.6247	0.1258
338.8346	0.113
339.0445	0.114
339.2543	0.1087
339.4642	0.1074
339.674	0.0976
339.8838	0.1172
340.0936	0.111
340.3034	0.1136
340.5132	0.1125
340.7229	0.1205
340.9327	0.1103
341.1424	0.1018
341.3522	0.1299
341.5619	0.1206
341.7716	0.1202
341.9813	0.112
342.1909	0.1171
342.4006	0.1263
342.6102	0.1158
342.8199	0.1175
343.0295	0.1223
343.2391	0.1199
343.4487	0.1198
343.6583	0.1131
343.8679	0.1249
344.0774	0.1307
344.287	0.1215
344.4965	0.1147
344.706	0.1313
344.9155	0.122
345.125	0.1191
345.3345	0.1321
345.544	0.125
345.7534	0.1307
345.9629	0.1145
346.1723	0.1301
346.3817	0.1247
346.5911	0.1361
346.8005	0.1279
347.0099	0.1138
347.2193	0.1281
347.4286	0.1194
347.638	0.1413
347.8473	0.1289
348.0566	0.1457
348.2659	0.1407
348.4752	0.127
348.6845	0.1195
348.8937	0.1322
349.103	0.1506
349.3122	0.1299
349.5214	0.1302
349.7306	0.1389
349.9398	0.1286
350.149	0.1415
350.3582	0.1375
350.5674	0.1564
350.7765	0.1319
350.9856	0.136
351.1948	0.146
351.4039	0.119
351.613	0.1361
351.822	0.1474
352.0311	0.1408
352.2402	0.142
352.4492	0.1596
352.6582	0.1398
352.8672	0.1435
353.0762	0.1325
353.2852	0.1466
353.4942	0.1308
353.7032	0.1527
353.9121	0.1357
354.1211	0.1537
354.33	0.149
354.5389	0.1563
354.7478	0.1495
354.9567	0.1312
355.1655	0.1502
355.3744	0.1552
355.5833	0.1535
355.7921	0.17
356.0009	0.147
356.2097	0.1732
356.4185	0.1662
356.6273	0.1542
356.8361	0.1652
357.0448	0.1422
357.2536	0.1523
357.4623	0.1542
357.671	0.1658
357.8797	0.1675
358.0884	0.1432
358.2971	0.1556
358.5057	0.155
358.7144	0.153
358.923	0.165
359.1316	0.1642
359.3402	0.1618
359.5488	0.1785
359.7574	0.1574
359.966	0.1729
360.1746	0.1803
360.3831	0.174
360.5916	0.1736
360.8002	0.1632
361.0087	0.1901
361.2172	0.1775
361.4256	0.17
361.6341	0.1761
361.8426	0.1805
362.051	0.168
362.2594	0.1705
362.4678	0.1734
362.6762	0.1968
362.8846	0.2038
363.093	0.1851
363.3014	0.1902
363.5097	0.1803
363.718	0.1796
363.9264	0.1828
364.1347	0.1851
364.343	0.2055
364.5513	0.2027
364.7595	0.1999
364.9678	0.1879
365.176	0.1912
365.3842	0.1973
365.5925	0.1945
365.8007	0.1825
366.0089	0.1986
366.217	0.192
366.4252	0.2111
366.6333	0.2104
366.8415	0.2028
367.0496	0.1932
367.2577	0.2127
367.4658	0.218
367.6739	0.2033
367.882	0.2219
368.09	0.2018
368.2981	0.2064
368.5061	0.205
368.7141	0.2062
368.9221	0.2163
369.1301	0.204
369.3381	0.2137
369.5461	0.2068
369.754	0.2131
369.962	0.23
370.1699	0.2229
370.3778	0.2375
370.5857	0.2094
370.7936	0.2242
371.0015	0.2234
371.2093	0.2279
371.4172	0.2309
371.625	0.2174
371.8328	0.2202
372.0406	0.2186
372.2484	0.2142
372.4562	0.2228
372.664	0.2255
372.8717	0.2429
373.0795	0.213
373.2872	0.2355
373.4949	0.2359
373.7026	0.2248
373.9103	0.2412
374.118	0.246
374.3256	0.2342
374.5333	0.2262
374.7409	0.2231
374.9485	0.2557
375.1561	0.2361
375.3637	0.2406
375.5713	0.2388
375.7789	0.249
375.9864	0.2478
376.194	0.2251
376.4015	0.2381
376.609	0.2605
376.8165	0.2293
377.024	0.2398
377.2315	0.2366
377.4389	0.242
377.6464	0.253
377.8538	0.2552
378.0612	0.2548
378.2686	0.255
378.476	0.2687
378.6834	0.2469
378.8908	0.2764
379.0981	0.2518
379.3055	0.2455
379.5128	0.2594
379.7201	0.2567
379.9274	0.2507
380.1347	0.2502
380.342	0.28
380.5492	0.2499
380.7565	0.2541
380.9637	0.2578
381.1709	0.2497
381.3781	0.256
381.5853	0.2673
381.7925	0.2573
381.9997	0.2853
382.2068	0.2603
382.4139	0.2688
382.6211	0.2421
382.8282	0.2628
383.0353	0.2555
383.2424	0.2555
383.4494	0.2929
383.6565	0.2565
383.8635	0.261
384.0706	0.2545
384.2776	0.2915
384.4846	0.2477
384.6916	0.2597
384.8986	0.2712
385.1055	0.2693
385.3125	0.2657
385.5194	0.2502
385.7263	0.278
385.9333	0.2709
386.1402	0.272
386.347	0.2659
386.5539	0.2623
386.7608	0.2865
386.9676	0.2414
387.1744	0.2462
387.3813	0.2506
387.5881	0.2698
387.7948	0.2638
388.0016	0.2608
388.2084	0.2681
388.4151	0.2581
388.6219	0.2752
388.8286	0.2501
389.0353	0.2619
389.242	0.2651
389.4487	0.2539
389.6553	0.2718
389.862	0.2582
390.0686	0.2396
390.2753	0.2611
390.4819	0.2598
390.6885	0.2562
390.8951	0.2576
391.1016	0.2503
391.3082	0.2476
391.5147	0.255
391.7213	0.2418
391.9278	0.2408
392.1343	0.2523
392.3408	0.2473
392.5473	0.2462
392.7537	0.2461
392.9602	0.25
393.1666	0.2435
393.373	0.2374
393.5794	0.2533
393.7858	0.2304
393.9922	0.2224
394.1986	0.2494
394.4049	0.2494
394.6113	0.2194
394.8176	0.2264
395.0239	0.2229
395.2302	0.2212
395.4365	0.2279
395.6428	0.2274
395.8491	0.2338
396.0553	0.2089
396.2615	0.2166
396.4678	0.2287
396.674	0.2069
396.8802	0.2167
397.0863	0.2194
397.2925	0.2237
397.4987	0.2115
397.7048	0.2351
397.9109	0.2259
398.117	0.2301
398.3231	0.2167
398.5292	0.2396
398.7353	0.2288
398.9413	0.2219
399.1474	0.2236
399.3534	0.2301
399.5594	0.2229
399.7654	0.2265
399.9714	0.2358
400.1774	0.2276
400.3833	0.2165
400.5893	0.2171
400.7952	0.2378
401.0011	0.2228
401.207	0.2201
401.4129	0.2267
401.6188	0.2396
401.8247	0.2331
402.0305	0.2181
402.2364	0.2057
402.4422	0.2258
402.648	0.2351
402.8538	0.235
403.0596	0.2125
403.2654	0.2475
403.4711	0.2166
403.6768	0.2214
403.8826	0.2277
404.0883	0.2275
404.294	0.2334
404.4997	0.2101
404.7054	0.2134
404.911	0.2118
405.1167	0.214
405.3223	0.257
405.5279	0.226
405.7335	0.2375
405.9391	0.2336
406.1447	0.2332
406.3502	0.2452
406.5558	0.2345
406.7613	0.2263
406.9668	0.2344
407.1724	0.2173
407.3778	0.2146
407.5833	0.2174
407.7888	0.2277
407.9942	0.218
408.1997	0.221
408.4051	0.2147
408.6105	0.2334
408.8159	0.2001
409.0213	0.2173
409.2267	0.2388
409.432	0.2121
409.6374	0.2223
409.8427	0.2171
410.048	0.2317
410.2533	0.2266
410.4586	0.2131
410.6639	0.2046
410.8691	0.1982
411.0744	0.2338
411.2796	0.2053
411.4848	0.2151
411.69	0.2235
411.8952	0.2353
412.1004	0.2355
412.3056	0.2322
412.5107	0.2077
412.7158	0.2287
412.921	0.2218
413.1261	0.2185
413.3312	0.2101
413.5362	0.2293
413.7413	0.2051
413.9464	0.2229
414.1514	0.2074
414.3564	0.2179
414.5614	0.2014
414.7664	0.2312
414.9714	0.2084
415.1764	0.2127
415.3813	0.2193
415.5863	0.2353
415.7912	0.2106
415.9961	0.226
416.201	0.2084
416.4059	0.2207
416.6108	0.2083
416.8156	0.2185
417.0205	0.1726
417.2253	0.2143
417.4301	0.2087
417.6349	0.2156
417.8397	0.2054
418.0445	0.2152
418.2492	0.209
418.454	0.2124
418.6587	0.2009
418.8634	0.2165
419.0681	0.2012
419.2728	0.2229
419.4775	0.1995
419.6822	0.206
419.8868	0.1722
420.0915	0.2143
420.2961	0.1912
420.5007	0.195
420.7053	0.2115
420.9099	0.2114
421.1144	0.202
421.319	0.1919
421.5235	0.1854
421.728	0.1957
421.9325	0.2113
422.137	0.2168
422.3415	0.192
422.546	0.2034
422.7504	0.1833
422.9549	0.2014
423.1593	0.1975
423.3637	0.2025
423.5681	0.1949
423.7725	0.1685
423.9769	0.1824
424.1812	0.2005
424.3856	0.1759
424.5899	0.1937
424.7942	0.1858
424.9985	0.1802
425.2028	0.1724
425.4071	0.1984
425.6113	0.1723
425.8156	0.2016
426.0198	0.191
426.224	0.1812
426.4282	0.1858
426.6324	0.177
426.8366	0.1893
427.0407	0.1817
427.2449	0.1604
427.449	0.1699
427.6531	0.1589
427.8572	0.1589
428.0613	0.1577
428.2654	0.1733
428.4694	0.167
428.6735	0.1616
428.8775	0.18
429.0815	0.1893
429.2855	0.1564
429.4895	0.1748
429.6935	0.1628
429.8975	0.1554
430.1014	0.1454
430.3053	0.1396
430.5093	0.1495
430.7132	0.1389
430.9171	0.1552
431.1209	0.1497
431.3248	0.1549
431.5286	0.1398
431.7325	0.1509
431.9363	0.1376
432.1401	0.1514
432.3439	0.1329
432.5477	0.1151
432.7514	0.1288
432.9552	0.1435
433.1589	0.1297
433.3627	0.1171
433.5664	0.1215
433.7701	0.1181
433.9737	0.1093
434.1774	0.1082
434.3811	0.1253
434.5847	0.1105
434.7883	0.1144
434.9919	0.1173
435.1955	0.111
435.3991	0.1112
435.6027	0.1086
435.8062	0.1095
436.0098	0.1253
436.2133	0.1162
436.4168	0.0986
436.6203	0.0844
436.8238	0.1038
437.0272	0.1064
437.2307	0.0984
437.4341	0.0969
437.6375	0.1074
437.841	0.0918
438.0443	0.0973
438.2477	0.0965
438.4511	0.085
438.6545	0.0973
438.8578	0.0983
439.0611	0.0774
439.2644	0.1047
439.4677	0.0823
439.671	0.0925
439.8743	0.0971
440.0775	0.0897
440.2808	0.0812
440.484	0.0637
440.6872	0.0599
440.8904	0.0808
441.0936	0.088
441.2967	0.0771
441.4999	0.0978
441.703	0.0693
441.9062	0.0595
442.1093	0.0695
442.3124	0.0661
442.5155	0.0438
442.7185	0.0606
442.9216	0.0409
443.1246	0.0603
443.3276	0.0506
443.5307	0.0445
443.7337	0.0705
443.9366	0.0583
444.1396	0.0502
444.3426	0.0571
444.5455	0.0584
444.7484	0.0543
444.9513	0.0541
445.1542	0.0664
445.3571	0.0561
445.56	0.0572
445.7628	0.0428
445.9657	0.04
446.1685	0.0655
446.3713	0.0523
446.5741	0.0349
446.7769	0.0361
446.9797	0.0438
447.1824	0.0429
447.3852	0.0463
447.5879	0.0423
447.7906	0.0418
447.9933	0.0337
448.196	0.0316
448.3986	0.0375
448.6013	0.0242
448.8039	0.0336
449.0066	0.0313
449.2092	0.0363
449.4118	0.0398
449.6143	0.033
449.8169	0.0259
450.0195	0.0261
450.222	0.0115
450.4245	0.0341
450.627	0.0237
450.8295	0.0172
451.032	0.036
451.2345	0.0343
451.4369	0.0277
451.6394	0.0234
451.8418	0.0011
452.0442	0.0153
452.2466	0.0328
452.449	0.0117
452.6513	0.0247
452.8537	0.0079
453.056	0.0159
453.2583	0.0297
453.4607	0.0108
453.663	0.0113
453.8652	0.0366
454.0675	-0.0035
454.2697	0.0243
454.472	0.0131
454.6742	0.0201
454.8764	0.0261
455.0786	0.022
455.2808	0.0149
455.4829	0.0144
455.6851	0.0128
455.8872	0.0219
456.0893	0.0239
456.2915	-0.008
456.4935	0.0269
456.6956	-0.0017
456.8977	0.0128
457.0997	0.0044
457.3018	-0.0064
457.5038	0.011
457.7058	0.0171
457.9078	0.0114
458.1098	0.0173
458.3117	0.0174
458.5137	0.007
458.7156	0.0036
458.9175	0.0022
459.1194	0.0042
459.3213	0.003
459.5232	0.0036
459.725	-0.0201
459.9269	0.0039
460.1287	0.014
460.3305	0.0068
460.5323	0.0053
460.7341	0.0015
460.9359	0.0193
461.1376	0.0097
461.3394	-0.0059
461.5411	0.0064
461.7428	0.0083
461.9445	0.0055
462.1462	0.0182
462.3479	0.0008
462.5495	0.007
462.7512	-0.0009
462.9528	0.0056
463.1544	-0.0134
463.356	-0.0038
463.5576	-0.003
463.7592	-0.0059
463.9607	-0.0064
464.1623	0.0093
464.3638	0.0078
464.5653	-0.0165
464.7668	-0.0069
464.9683	0.0076
465.1697	0.0176
465.3712	-0.0027
465.5726	-0.0124
465.7741	-0.0111
465.9755	-0.0023
466.1769	-0.0129
466.3782	0.0076
466.5796	-0.0018
466.7809	0.0133
466.9823	-0.0026
467.1836	0.0152
467.3849	-0.0069
467.5862	0.0066
467.7875	0.0045
467.9887	0.0364
468.19	0.0011
468.3912	-0.0093
468.5924	-0.0066
468.7936	0.0008
468.9948	-0.0106
469.196	0.0067
469.3972	-0.0253
469.5983	0.003
469.7994	-0.0199
470.0006	0.001
470.2017	-0.0145
470.4027	-0.012
470.6038	0.0087
470.8049	-0.0212
471.0059	-0.0035
471.2069	-0.0318
471.408	-0.0005
471.6089	0.0119
471.8099	-0.0014
472.0109	0.0044
472.2119	-0.0165
472.4128	-0.0209
472.6137	0.0042
472.8146	-0.0192
473.0155	0.0044
473.2164	-0.0052
473.4173	0.0063
473.6181	0.0054
473.819	-0.0005
474.0198	-0.0139
474.2206	-0
474.4214	-0.0196
474.6222	0.0086
474.8229	-0.0081
475.0237	-0.0089
475.2244	-0.0182
475.4251	-0.0102
475.6258	-0.0065
475.8265	-0.0019
476.0272	0.0165
476.2278	-0.0061
476.4285	-0.0198
476.6291	-0.0113
476.8297	-0.0029
477.0303	-0.0025
477.2309	0.0014
477.4315	-0.015
477.632	-0.0172
477.8326	-0.0109
478.0331	-0.0162
478.2336	-0.0007
478.4341	-0.0124
478.6346	-0.0179
478.8351	-0.011
479.0355	-0.0041
479.236	-0.0092
479.4364	0.008
479.6368	-0.0071
479.8372	-0.012
480.0376	-0.0121
480.2379	-0.0163
480.4383	-0.0092
480.6386	-0.0042
480.8389	-0.0201
481.0392	-0.013
481.2395	-0.0047
481.4398	-0
481.6401	-0.0016
481.8403	-0.0092
482.0405	-0.0046
482.2408	-0.0064
482.441	0.0042
482.6411	-0.0028
482.8413	-0.0117
483.0415	-0.0202
483.2416	-0.0135
483.4417	0.0009
483.6419	-0.0045
483.8419	-0.0006
484.042	-0.0025
484.2421	0.0006
484.4422	-0.002
484.6422	0.0009
484.8422	-0.0088
485.0422	-0.0227
485.2422	0.0034
485.4422	-0.0105
485.6422	-0.0176
485.8421	-0.0099
486.042	0.0007
486.242	-0.0111
486.4419	-0.009
486.6417	-0.0155
486.8416	-0.0111
487.0415	-0.0002
487.2413	-0.0159
487.4411	-0.0064
487.641	-0.0184
487.8408	-0.0029
488.0405	-0.0113
488.2403	-0.0035
488.4401	0.0013
488.6398	-0.0106
488.8395	-0.0162
489.0392	0.0018
489.2389	-0.016
489.4386	-0.0125
489.6383	-0.013
489.8379	-0.0054
490.0376	-0.0105
490.2372	-0.0218
490.4368	-0.0048
490.6364	-0.0107
490.836	-0.0087
491.0355	-0.0098
491.2351	-0.0111
491.4346	-0.0179
491.6341	-0.0293
491.8336	-0.0022
492.0331	-0.0225
492.2326	-0.0119
492.432	-0.0074
492.6315	-0.0221
492.8309	-0.0219
493.0303	-0.0119
493.2297	-0.0113
493.4291	-0.0023
493.6284	-0.008
493.8278	-0.0076
494.0271	-0.0106
494.2264	-0.0015
494.4257	-0.0182
494.625	-0.0071
494.8243	-0.0314
495.0236	-0.0204
495.2228	-0.0129
495.422	-0.0067
495.6213	-0.0119
495.8205	-0.0035
496.0196	-0.0084
496.2188	-0.0109
496.418	-0.0097
496.6171	-0.01
496.8162	-0.0235
497.0153	-0.0064
497.2144	-0.0117
497.4135	-0.0036
497.6126	-0.0208
497.8116	-0.0107
498.0107	-0.0064
498.2097	-0.0168
498.4087	-0.0106
498.6077	0.0025
498.8067	-0.0127
499.0056	-0.0029
499.2046	-0.0076
499.4035	-0.032
499.6024	-0.0144
499.8013	-0.01
500.0002	-0.0151
500.199	-0.0013
500.3979	-0.0107
500.5967	-0.0258
500.7956	-0.0038
500.9944	-0.0076
501.1932	-0.0144
501.3919	-0.0138
501.5907	-0.019
501.7895	-0.0037
501.9882	-0.0177
502.1869	-0.0123
502.3856	-0.0162
502.5843	-0.0175
502.783	-0.0097
502.9816	-0.0118
503.1803	-0.0189
503.3789	-0.0149
503.5775	-0.0003
503.7761	-0.0128
503.9747	-0.0144
504.1732	-0.0125
504.3718	-0.0177
504.5703	-0.0078
504.7689	-0.0114
504.9674	-0.0067
505.1658	-0.0221
505.3643	-0.0015
505.5628	-0.0074
505.7612	-0.0109
505.9597	-0.0036
506.1581	-0.0179
506.3565	0.0039
506.5549	-0.0094
506.7532	-0.0169
506.9516	-0.0057
507.1499	-0.0067
507.3482	-0.0239
507.5465	-0.0068
507.7448	-0.011
507.9431	-0.0113
508.1414	-0.0021
508.3396	0.0002
508.5379	-0.0126
508.7361	-0.0119
508.9343	-0.0035
509.1325	-0.0071
509.3306	-0.0088
509.5288	-0.0138
509.7269	-0.0177
509.9251	-0.0076
510.1232	-0.0162
510.3213	-0.0107
510.5193	-0.011
510.7174	-0.0224
510.9154	-0.0199
511.1135	-0.0117
511.3115	-0.0102
511.5095	-0.0043
511.7075	-0.0125
511.9055	-0.0116
512.1034	-0.014
512.3014	-0.0105
512.4993	-0.0039
512.6972	-0.0126
512.8951	-0.0168
513.093	-0.0083
513.2908	-0.0051
513.4887	-0.0061
513.6865	-0.0106
513.8844	-0.0104
514.0822	-0.004
514.2799	-0.0112
514.4777	-0.0128
514.6755	-0.0084
514.8732	-0.0108
515.0709	-0
515.2687	-0.0018
515.4664	-0.0084
515.664	-0.0017
515.8617	-0.0099
516.0594	-0.0308
516.257	-0.0157
516.4546	-0.015
516.6522	-0.0058
516.8498	-0.0157
517.0474	-0.0055
517.2449	-0.0095
517.4425	-0.0177
517.64	-0.0017
517.8375	-0.0107
518.035	-0.0106
518.2325	-0.0098
518.43	-0.0098
518.6274	-0.0113
518.8249	-0.0231
519.0223	-0.0079
519.2197	-0.0047
519.4171	-0.015
519.6145	-0.017
519.8118	-0.0102
520.0092	-0.011
520.2065	-0.0124
520.4038	-0.0175
520.6011	-0.0064
520.7984	-0.016
520.9956	-0.0146
521.1929	-0.0095
521.3901	0.0046
521.5874	-0.0134
521.7846	-0.0074
521.9818	-0.0132
522.1789	-0.0135
522.3761	-0.0097
522.5732	-0.0176
522.7704	-0.0111
522.9675	-0.0059
523.1646	-0.0153
523.3617	-0.0052
523.5587	-0.0147
523.7558	-0.0133
523.9528	-0.0034
524.1498	-0.012
524.3468	-0.0104
524.5438	-0.0208
524.7408	-0.0031
524.9378	0.0025
525.1347	-0.0124
525.3316	-0.0072
525.5285	-0.01
525.7254	-0.018
525.9223	-0.0099
526.1192	-0.0079
526.316	-0.0146
526.5129	-0.01
526.7097	-0.0034
526.9065	-0.0084
527.1033	-0.0156
527.3	-0.0139
527.4968	-0.0133
527.6935	0.0017
527.8903	-0.0179
528.087	-0.0143
528.2837	-0.0096
528.4804	-0.0086
528.677	-0.0107
528.8737	0.0022
529.0703	-0.0007
529.2669	-0.0055
529.4635	-0.0147
529.6601	-0.0116
529.8567	-0.0097
530.0532	-0.0173
530.2498	-0.006
530.4463	-0.0055
530.6428	-0.0136
530.8393	-0.0041
531.0358	-0.0067
531.2322	-0.0039
531.4287	-0.0144
531.6251	-0.0142
531.8215	0.0091
532.0179	-0.0072
532.2143	0.0007
532.4107	-0.0068
532.607	-0.0066
532.8034	-0.0074
532.9997	-0.0046
533.196	-0.0109
533.3923	-0.0077
533.5886	-0.0024
533.7848	-0.0073
533.9811	-0.0047
534.1773	-0.0009
534.3735	0.0035
534.5697	-0.0047
534.7659	-0.0118
534.9621	0.0004
535.1582	-0.0101
535.3544	-0.0216
535.5505	-0.0182
535.7466	0.0029
535.9427	-0.0118
536.1387	-0.0095
536.3348	-0.0152
536.5308	-0.0031
536.7269	-0.018
536.9229	-0.0087
537.1189	-0.0071
537.3148	-0.0075
537.5108	-0.0207
537.7068	-0.0052
537.9027	-0.0027
538.0986	-0.0069
538.2945	-0.015
538.4904	-0.0075
538.6863	-0.0123
538.8821	-0.0027
539.078	-0.0173
539.2738	-0.0037
539.4696	-0.0132
539.6654	0.0027
539.8611	0.0038
540.0569	-0.0175
540.2526	-0.009
540.4484	-0.0074
540.6441	0.0006
540.8398	-0.0032
541.0355	-0.0138
541.2311	-0.0066
541.4268	-0.0157
541.6224	-0.0023
541.818	-0.0075
542.0136	-0.0098
542.2092	-0.0059
542.4048	0.0056
542.6003	-0.0015
542.7959	0.0008
542.9914	-0.0024
543.1869	-0.002
543.3824	-0.012
543.5779	-0.0091
543.7734	-0.0126
543.9688	-0.0096
544.1642	-0.0055
544.3596	-0.0046
544.555	-0.0054
544.7504	0.003
544.9458	-0.0046
545.1411	0.003
545.3365	-0.0053
545.5318	-0.0075
545.7271	-0.0103
545.9224	-0.0098
546.1177	-0.001
546.3129	0.0019
546.5081	-0.0123
546.7034	-0.0095
546.8986	-0.0122
547.0938	-0.007
547.289	-0.0111
547.4841	-0.0017
547.6793	0.0024
547.8744	-0.0062
548.0695	-0.0086
548.2646	-0.0155
548.4597	-0.0037
548.6548	-0.0056
548.8498	0.0014
549.0448	0.0066
549.2399	-0.0111
549.4349	0.0028
549.6298	0.0015
549.8248	-0.0013
550.0198	-0.0056
550.2147	-0.0052
550.4096	-0.009
550.6045	-0.005
550.7994	-0.0012
550.9943	-0.0006
551.1892	-0.0039
551.384	-0.0037
551.5788	-0.0008
551.7737	-0.0051
551.9685	-0.0102
552.1632	0.0023
552.358	-0.0047
552.5528	-0.0107
552.7475	-0.0041
552.9422	-0.0032
553.1369	-0.0058
553.3316	0.0088
553.5263	-0.013
553.7209	0.0026
553.9156	-0.0074
554.1102	-0.0069
554.3048	0.0006
554.4994	-0.0014
554.694	-0.0068
554.8885	0.0045
555.0831	-0.0099
555.2776	-0.0084
555.4721	-0.0044
555.6666	-0.0044
555.8611	0.0044
556.0555	0.0002
556.25	0.0051
556.4444	-0.0082
556.6388	0.0072
556.8332	-0.0078
557.0276	0.0011
557.222	0.0049
557.4163	0.0016
557.6107	-0.0103
557.805	0.0103
557.9993	-0.0024
558.1936	-0.0004
558.3879	-0.0029
558.5821	-0.0049
558.7764	-0.0121
558.9706	-0.0093
559.1648	0.0031
559.359	-0.0038
559.5532	-0.0108
559.7473	-0.0017
559.9415	0.0024
560.1356	-0.0147
560.3297	-0.0053
560.5238	-0.0012
560.7179	-0.0003
560.9119	-0.0044
561.106	-0.0062
561.3	-0.0058
561.494	-0.002
561.688	-0.01
561.882	-0.0161
562.076	-0.0058
562.2699	0.0055
562.4639	-0.0006
562.6578	-0.0014
562.8517	0.0017
563.0456	0.006
563.2395	0.0061
563.4333	0.0005
563.6272	0.0089
563.821	-0.0113
564.0148	-0.0054
564.2086	-0.0094
564.4024	0.0017
564.5961	-0.0092
564.7899	0.0064
564.9836	-0.0007
565.1773	0.0039
565.371	0.0074
565.5647	0.0004
565.7584	-0.004
565.952	-0.0081
566.1456	0.0073
566.3393	0.0032
566.5329	-0.0045
566.7264	-0.0009
566.92	-0.0056
567.1136	0.0044
567.3071	-0.0097
567.5006	-0.0005
567.6941	0.0052
567.8876	-0.0014
568.0811	-0.0006
568.2745	0.0022
568.468	-0.0018
568.6614	0.0033
568.8548	0.0007
569.0482	-0.0088
569.2416	-0.0035
569.4349	-0.0058
569.6283	-0.0002
569.8216	0.0053
570.0149	0.0003
570.2082	-0.0006
570.4015	0.004
570.5947	0.002
570.788	0.0027
570.9812	0.0071
571.1744	0.0001
571.3676	-0.0099
571.5608	-0.0047
571.754	0.002
571.9471	0.0003
572.1402	-0.0006
572.3333	-0.0006
572.5264	-0.0031
572.7195	0.0051
572.9126	-0.0041
573.1057	0.001
573.2987	0.002
573.4917	-0.0019
573.6847	-0.0106
573.8777	0.0032
574.0707	0.007
574.2636	-0.0084
574.4566	0.0006
574.6495	0.0038
574.8424	-0.0035
575.0353	-0.003
575.2281	0.0094
575.421	-0.0025
575.6138	0.0015
575.8067	0.0021
575.9995	0.0039
576.1923	0.0052
576.385	-0.0057
576.5778	-0.0013
576.7706	0.0008
576.9633	-0.0045
577.156	0.0016
577.3487	-0.0041
577.5414	0.0028
577.734	-0.0036
577.9267	-0.0009
578.1193	-0.0062
578.3119	-0.0023
578.5045	0.0018
578.6971	0.0023
578.8897	0.0042
579.0822	0.0022
579.2747	-0.0052
579.4673	-0.0052
579.6598	-0.0033
579.8522	0.0039
580.0447	-0.0064
580.2372	0.0038
580.4296	0.0027
580.622	-0.0004
580.8144	0.001
581.0068	-0.006
581.1992	-0.0125
581.3915	-0.0032
581.5839	-0.0026
581.7762	-0.0091
581.9685	-0.0021
582.1608	0.0021
582.353	-0.0004
582.5453	0.0046
582.7375	-0.0017
582.9298	-0.0021
583.122	-0.001
583.3142	0.0038
583.5063	0.0046
583.6985	-0.0039
583.8906	-0.0023
584.0827	-0.0001
584.2749	0.0005
584.4669	0.0012
584.659	-0.0005
584.8511	0.0035
585.0431	-0.0015
585.2352	0.0058
585.4272	0.0009
585.6192	0.0074
585.8111	0.0043
586.0031	0.0013
586.195	-0.007
586.387	0.0011
586.5789	-0.0001
586.7708	0.0019
586.9627	0.0069
587.1545	-0.0101
587.3464	0.0048
587.5382	0.0032
587.73	0.0004
587.9218	0.0043
588.1136	0.0046
588.3053	0.0091
588.4971	-0.0072
588.6888	-0.0104
588.8805	-0.0001
589.0722	-0
589.2639	0.0043
589.4556	0.0029
589.6472	-0.0033
589.8389	-0.003
590.0305	-0.0075
590.2221	-0.0067
590.4137	0.0002
590.6052	0.0027
590.7968	0.0011
590.9883	-0.0071
591.1798	0.0022
591.3713	-0.0035
591.5628	0.0035
591.7543	0.0036
591.9458	-0.0003
592.1372	0.0039
592.3286	0.0092
592.52	0.0106
592.7114	0.0004
592.9028	-0.0025
593.0941	0.0014
593.2855	-0.0047
593.4768	-0.0033
593.6681	-0.0009
593.8594	-0.0042
594.0506	0.0023
594.2419	0.0085
594.4331	0.0047
594.6244	0.0016
594.8156	-0.0041
595.0067	0.0026
595.1979	0.0082
595.3891	0.0066
595.5802	-0.0016
595.7713	0.0048
595.9624	-0.0086
596.1535	0.0086
596.3446	-0.0024
596.5357	-0.0044
596.7267	0.006
596.9177	-0.0048
597.1087	-0.0039
597.2997	-0.0046
597.4907	0.005
597.6817	-0.0036
597.8726	0.0022
598.0635	0.001
598.2544	0.0046
598.4453	-0.0001
598.6362	-0.0053
598.827	-0.0008
599.0179	0.0001
599.2087	0.0042
599.3995	-0.0003
599.5903	-0.003
599.7811	-0.0028
599.9718	-0.003
600.1626	-0.0022
600.3533	-0.0039
600.544	0.0004
600.7347	0.0022
600.9254	0.0006
601.116	-0.0046
601.3067	-0.0002
601.4973	-0.0061
601.6879	0.0064
601.8785	-0.0046
602.0691	0.0004
602.2596	0.0038
602.4502	0.003
602.6407	-0.0005
602.8312	0.0041
603.0217	-0.0119
603.2122	0.003
603.4027	-0.003
603.5931	-0.0026
603.7835	-0.0029
603.9739	-0.0026
604.1643	-0.0041
604.3547	-0.0051
604.5451	0.0072
604.7354	-0.0043
604.9257	0.0002
605.116	0.002
605.3063	0.0078
605.4966	-0.0008
605.6869	0.0028
605.8771	0.0023
606.0673	0.0065
606.2575	0.0098
606.4477	0.0097
606.6379	0.0032
606.8281	0.0013
607.0182	0.0024
607.2083	0.0087
607.3985	0.0003
607.5885	-0.0011
607.7786	0.0052
607.9687	-0.0076
608.1587	0.0056
608.3488	0.0048
608.5388	0.0044
608.7288	0.0009
608.9187	-0.0072
609.1087	-0.002
609.2986	0.0054
609.4886	0.0034
609.6785	0.0058
609.8684	0.0039
610.0582	0.0044
610.2481	-0.0009
610.4379	0.0052
610.6278	-0.0053
610.8176	0.0048
611.0074	0.0039
611.1971	-0.0086
611.3869	0.0021
611.5766	-0.0042
611.7664	0.008
611.9561	0.0041
612.1458	-0.0025
612.3354	-0.0054
612.5251	0.0007
612.7147	0.0041
612.9044	0.0033
613.094	-0.0111
613.2836	0.0012
613.4731	0.0037
613.6627	-0.0038
613.8522	0.0058
614.0417	0.0013
614.2313	-0.0087
614.4207	-0.0063
614.6102	-0.0007
614.7997	-0.0018
614.9891	-0.0004
615.1785	0.0005
615.3679	-0.0055
615.5573	0.0087
615.7467	-0.0042
615.9361	-0.0008
616.1254	-0.0067
616.3147	-0.0039
616.504	0.0034
616.6933	0.0104
616.8826	0.0063
617.0718	0.003
617.2611	0.0019
617.4503	-0.0028
617.6395	-0.0008
617.8287	-0.0014
618.0179	0.0095
618.207	0.0134
618.3961	0.0014
618.5853	0.0009
618.7744	0.0107
618.9634	0.0052
619.1525	-0.0014
619.3416	0.0013
619.5306	0.0041
619.7196	0.0061
619.9086	0.0002
620.0976	0.0098
620.2866	0.0025
620.4755	0.0034
620.6645	0.0059
620.8534	0.0034
621.0423	0.01
621.2312	0.0053
621.42	-0.0011
621.6089	-0.0017
621.7977	0.0003
621.9865	-0.0035
622.1753	0.002
622.3641	-0.0047
622.5529	0.0083
622.7416	-0.0013
622.9303	0.0039
623.1191	0.006
623.3078	-0.0069
623.4964	0.0018
623.6851	0.0009
623.8737	0.0052
624.0624	0.003
624.251	0.0007
624.4396	0.0052
624.6282	0.0016
624.8167	0.0051
625.0053	0.004
625.1938	0.0026
625.3823	0.0003
625.5708	-0.0001
625.7593	-0.0054
625.9477	-0.0028
626.1362	0.0016
626.3246	-0.0024
626.513	0.0013
626.7014	0.0076
626.8898	0.0072
627.0781	0.0001
627.2665	-0.0002
627.4548	0.0034
627.6431	0.0024
627.8314	0.0033
628.0197	0.0147
628.2079	-0.0098
628.3962	0.0008
628.5844	0.0073
628.7726	0.0051
628.9608	0.0047
629.1489	0.0047
629.3371	0.0019
629.5252	-0.0021
629.7134	0.0115
629.9015	0.0019
630.0895	0.0032
630.2776	0.0102
630.4657	-0.0051
630.6537	0.002
630.8417	0.0011
631.0297	-0.0043
631.2177	0.0039
631.4057	-0.0073
631.5936	0.0017
631.7815	-0.0085
631.9695	-0.0026
632.1574	0.0031
632.3452	0.0073
632.5331	0.0059
632.7209	0.0013
632.9088	0.008
633.0966	0.0081
633.2844	-0.0033
633.4722	0.0098
633.6599	0.0046
633.8477	0.0022
634.0354	0.0004
634.2231	-0.0005
634.4108	-0.0017
634.5985	-0.0012
634.7861	0.0018
634.9738	-0.0013
635.1614	0
635.349	0.0057
635.5366	0.0041
635.7242	-0.0016
635.9117	0.0128
636.0993	0.0034
636.2868	0.0065
636.4743	0.0025
636.6618	0.0045
636.8492	-0.0017
637.0367	0.0079
637.2241	-0.0038
637.4115	-0.0069
637.5989	-0.0009
637.7863	0.0033
637.9737	-0.0061
638.161	-0.0004
638.3484	-0.0019
638.5357	0.0055
638.723	0.0028
638.9103	-0.0001
639.0975	0.002
639.2848	-0.0013
639.472	0.0003
639.6592	0.0001
639.8464	0.0069
640.0336	0.0057
640.2208	-0.0002
640.4079	-0.0015
640.595	-0.0036
640.7821	0.0023
640.9692	-0.0002
641.1563	-0.0039
641.3434	-0.0009
641.5304	-0.0006
641.7174	-0.0044
641.9044	-0.01
642.0914	0.0029
642.2784	-0.0029
642.4653	0.0152
642.6523	0.0001
642.8392	-0.002
643.0261	0.0023
643.213	0.0102
643.3999	-0.0005
643.5867	-0.0011
643.7735	0.0018
643.9604	-0.006
644.1472	0.0036
644.3339	-0.001
644.5207	-0.0033
644.7075	-0.008
644.8942	0.0009
645.0809	0.0048
645.2676	0.0041
645.4543	0.0028
645.6409	0.0021
645.8276	0.0011
646.0142	0.0025
646.2008	-0.006
646.3874	-0.0071
646.574	0.0011
646.7605	-0.0059
646.9471	-0.0099
647.1336	0.0024
647.3201	0.0014
647.5066	0.0011
647.6931	-0.0004
647.8795	0.003
648.0659	0.0107
648.2524	0.0054
648.4388	-0.0033
648.6252	0.0056
648.8115	0.0022
648.9979	0.001
649.1842	0.0051
649.3705	0.0049
649.5568	0.0093
649.7431	0.0008
649.9294	-0.0048
650.1156	-0.0006
650.3018	-0.0092
650.488	-0.0023
650.6742	0.0069
650.8604	0.0064
651.0466	-0.0016
651.2327	-0.0013
651.4188	0.0068
651.6049	-0.0012
651.791	-0
651.9771	0.0029
652.1632	0.0019
652.3492	-0.0071
652.5352	0.0005
652.7212	-0.005
652.9072	0.0035
653.0932	-0.0087
653.2791	-0.0053
653.465	0.0014
653.651	-0.002
653.8369	-0.0068
654.0227	-0.0031
654.2086	-0.0009
654.3944	0.0014
654.5803	-0.004
654.7661	-0.0019
654.9519	-0.0001
655.1377	-0.0084
655.3234	-0.0028
655.5092	-0.0043
655.6949	-0.0051
655.8806	-0.0058
656.0663	-0.0037
656.2519	-0.0008
656.4376	-0.0028
656.6232	-0.0045
656.8088	-0.0008
656.9945	-0.0018
657.18	-0.0003
657.3656	0.0032
657.5511	-0.0041
657.7367	-0.007
657.9222	0.0038
658.1077	-0.0025
658.2932	-0.0021
658.4786	-0.0119
658.6641	-0.0009
658.8495	-0.0011
659.0349	-0.0031
659.2203	0.0005
659.4057	-0.0002
659.591	0.0051
659.7764	0.0001
659.9617	0.0012
660.147	-0.0015
660.3323	0.009
660.5176	0.0082
660.7028	-0.006
660.888	0.0004
661.0733	-0.0014
661.2585	-0.0114
661.4436	-0.0003
661.6288	-0.0081
661.8139	-0.0068
661.9991	-0.001
662.1842	-0.006
662.3693	0.0065
662.5544	-0.0027
662.7394	-0.0006
662.9245	-0.0007
663.1095	-0.0008
663.2945	0.0046
663.4795	-0.0065
663.6644	0.0055
663.8494	0.003
664.0343	0.0026
664.2193	-0.0043
664.4042	-0.0016
664.589	0.001
664.7739	0.0024
664.9587	-0.0006
665.1436	-0.0022
665.3284	0.0096
665.5132	-0.0014
665.698	0.0027
665.8827	0.0052
666.0675	0.006
666.2522	0.0003
666.4369	0.0031
666.6216	0.0027
666.8063	0.0096
666.9909	-0.0001
667.1756	0.0021
667.3602	-0.0002
667.5448	0.0077
667.7294	0.0083
667.9139	0.0013
668.0985	0.0115
668.283	-0.0018
668.4675	-0.0003
668.652	0.0035
668.8365	-0.001
669.0209	0.0005
669.2054	0.0148
669.3898	0.0022
669.5742	0.0067
669.7586	0.0028
669.943	0.0079
670.1273	0.0065
670.3117	0.0025
670.496	0.0121
670.6803	0.0142
670.8646	0.0009
671.0488	-0.001
671.2331	0.0125
671.4173	0.011
671.6015	0.0049
671.7857	0.0024
671.9699	0.0104
672.1541	0.0056
672.3382	0.0002
672.5223	0.0061
672.7064	0.0049
672.8905	0.0118
673.0746	0.0026
673.2587	0.0004
673.4427	0.0069
673.6267	0.0087
673.8107	0.0042
673.9947	0.0006
674.1787	-0.0001
674.3626	-0.0087
674.5465	0.0056
674.7304	0.0024
674.9143	0.0076
675.0982	0.0092
675.2821	-0.0073
675.4659	0.0148
675.6497	0.0047
675.8335	0.0007
676.0173	0.0032
676.2011	-0.0001
676.3849	0.0038
676.5686	-0.0076
676.7523	-0.0023
676.936	0.0003
677.1197	0.0005
677.3034	-0.0054
677.487	0.0009
677.6706	0.0041
677.8542	0.007
678.0378	0.0065
678.2214	0.0058
678.405	-0.0033
678.5885	-0.0055
678.772	0.002
678.9555	-0.0068
679.139	-0.004
679.3225	0.004
679.5059	0.0002
679.6894	0.0002
679.8728	-0.0034
680.0562	-0.0013
680.2395	-0.0122
680.4229	-0.0017
680.6062	0.0037
680.7896	0.0028
680.9729	-0.0063
681.1562	0.0015
681.3394	0.0064
681.5227	-0.0044
681.7059	-0.0035
681.8891	-0.0024
682.0723	0.012
682.2555	0.0031
682.4387	-0.0059
682.6218	-0.0019
682.805	-0.0049
682.9881	-0.0027
683.1712	-0.0067
683.3542	-0.0052
683.5373	0.0028
683.7203	-0.0027
683.9034	0.0007
684.0864	-0.0052
684.2694	0.0003
684.4523	0.0062
684.6353	-0.0063
684.8182	0.0045
685.0011	-0.0016
685.184	0.0007
685.3669	0.002
685.5498	0.0074
685.7326	0.0031
685.9154	-0.0066
686.0982	0.0067
686.281	0.0071
686.4638	0.0043
686.6465	-0.0024
686.8293	0.001
687.012	0.0035
687.1947	-0.0057
687.3774	0.0043
687.56	-0.0052
687.7427	0.0029
687.9253	-0.0051
688.1079	0.0005
688.2905	0.0048
688.4731	-0.0002
688.6556	-0.006
688.8382	0.0003
689.0207	0.003
689.2032	-0.0033
689.3857	-0.0035
689.5681	0.0063
689.7506	-0.006
689.933	-0.0058
690.1154	-0.0002
690.2978	-0.0001
690.4802	0.006
690.6626	-0.0127
690.8449	-0.0018
691.0272	0.004
691.2095	0.0002
691.3918	-0.0049
691.5741	0.007
691.7563	0.0003
691.9386	0.0049
692.1208	-0.0059
692.303	-0.003
692.4852	-0.0069
692.6673	0.0027
692.8495	-0.0004
693.0316	0.0029
693.2137	0.0027
693.3958	0.0079
693.5778	0.0018
693.7599	0.0032
693.9419	-0.0031
694.1239	-0.0043
694.3059	0.0028
694.4879	0.0062
694.6699	0.0059
694.8518	0.0035
695.0337	-0.0044
695.2157	0.0127
695.3975	0.0023
695.5794	0.0032
695.7613	0.0066
695.9431	-0.0091
696.1249	0.0109
696.3067	0.0011
696.4885	0.0136
696.6703	-0.0022
696.852	-0.0048
697.0337	0.0008
697.2154	-0.0023
697.3971	-0.0024
697.5788	0.0006
697.7605	-0.0044
697.9421	-0.0002
698.1237	-0.0001
698.3053	-0.0043
698.4869	-0.0036
698.6685	-0.0105
698.85	-0.0084
699.0315	0.0106
699.213	-0.0044
699.3945	0.0026
699.576	0.0038
699.7575	0.0064
699.9389	0.0188
700.1203	-0.0011
700.3017	-0.0007
700.4831	-0.0034
700.6645	0.0033
700.8458	0.0068
701.0271	0.005
701.2084	0.0106
701.3897	0.0062
701.571	0.0027
701.7523	-0.0021
701.9335	-0.0062
702.1147	0.0067
702.2959	0.004
702.4771	0
702.6583	-0.0044
702.8394	-0.004
703.0205	0.0063
703.2016	-0.0049
703.3827	0.0018
703.5638	0.0083
703.7449	0.0014
703.9259	0.0101
704.1069	-0.0052
704.2879	-0.0003
704.4689	0.0069
704.6499	0.0054
704.8308	0.0014
705.0117	0.0029
705.1927	0.0057
705.3735	0.0047
705.5544	0.0025
705.7353	0.0019
705.9161	-0.0025
706.0969	0.0033
706.2777	0.004
706.4585	-0.0053
706.6393	0.0019
706.82	0.0021
707.0007	-0.0003
707.1815	-0.0018
707.3621	0.0047
707.5428	0.006
707.7235	0.0032
707.9041	0.0014
708.0847	-0.0024
708.2653	-0.01
708.4459	-0.0067
708.6265	0.0117
708.807	0.0025
708.9875	0.0055
709.168	-0.0056
709.3485	-0.0061
709.529	-0.0018
709.7095	-0.0128
709.8899	-0.0005
710.0703	-0.0055
710.2507	0.0027
710.4311	-0.0004
710.6115	-0.0148
710.7918	-0.007
710.9721	-0.002
711.1524	-0.0123
711.3327	-0.0116
711.513	-0.0004
711.6932	0.0005
711.8735	0.0033
712.0537	-0.0004
712.2339	0.0033
712.4141	-0.0116
712.5942	-0.0093
712.7744	-0.0031
712.9545	-0.0026
713.1346	-0.0131
713.3147	-0.0063
713.4947	-0.0081
713.6748	-0.0089
713.8548	0.0012
714.0348	-0.004
714.2148	-0.0038
714.3948	0.0093
714.5748	-0.003
714.7547	-0.0046
714.9346	-0
715.1145	-0.0073
715.2944	-0.0051
715.4743	0.006
715.6541	-0.0079
715.834	-0.0006
716.0138	-0.0001
716.1936	-0.0079
716.3733	-0.0019
716.5531	0.0058
716.7328	-0.001
716.9126	0.0007
717.0923	0.004
717.2719	-0.0027
717.4516	-0.0004
717.6312	-0.0077
717.8109	-0.0076
717.9905	0.0003
718.1701	-0.0046
718.3496	-0.009
718.5292	0.0021
718.7087	0.0075
718.8882	-0.0023
719.0677	0.0124
719.2472	-0.0005
719.4267	0.0001
719.6061	-0.005
719.7856	0.0006
719.965	0.0095
720.1443	-0.0061
720.3237	0.0059
720.5031	0.0024
720.6824	0.0063
720.8617	0.0009
721.041	0.0042
721.2203	0.0174
721.3995	0.0105
721.5788	0.0006
721.758	0.0118
721.9372	-0.0021
722.1164	0.0048
722.2956	0.0062
722.4747	0.0044
722.6538	0.001
722.8329	0.0081
723.012	0.0082
723.1911	-0.004
723.3702	0.0063
723.5492	0.0016
723.7282	0.0029
723.9072	-0.0042
724.0862	0.0062
724.2652	-0.0021
724.4441	-0.0027
724.623	0.0002
724.8019	-0.0001
724.9808	0.0063
725.1597	-0.0098
725.3385	0.005
725.5174	0.0102
725.6962	0.0072
725.875	-0.0005
726.0538	0.0049
726.2325	-0.0023
726.4112	0.0003
726.59	-0.0022
726.7687	-0.0029
726.9474	-0.0024
727.126	-0.0057
727.3047	-0.0006
727.4833	-0.0046
727.6619	-0.0036
727.8405	-0.0118
728.0191	-0.0074
728.1976	-0.0016
728.3762	0.0025
728.5547	0.0011
728.7332	-0.0162
728.9116	-0.002
729.0901	0.0008
729.2686	-0.005
729.447	0.0034
729.6254	-0.0047
729.8038	-0.0078
729.9821	-0.0081
730.1605	0.0024
730.3388	-0.004
730.5171	0.0058
730.6954	-0.0019
730.8737	-0.0016
731.0519	0.0059
731.2302	-0.0028
731.4084	0.0103
731.5866	-0.0022
731.7648	0.0009
731.9429	-0.007
732.1211	-0.003
732.2992	-0.0019
732.4773	0.0037
732.6554	0.0052
732.8335	-0.0002
733.0115	0.0046
733.1896	0.0095
733.3676	-0.0024
733.5456	0.0114
733.7235	0.0103
733.9015	0.0039
734.0794	0.0067
734.2574	0.0075
734.4353	0.0094
734.6131	0.0042
734.791	0.0043
734.9689	-0.0002
735.1467	0.004
735.3245	-0.0132
735.5023	-0.0047
735.68	-0.0053
735.8578	-0.0015
736.0355	-0.0097
736.2132	-0.0124
736.3909	-0.0044
736.5686	-0.0041
736.7463	-0.0017
736.9239	-0.0089
737.1015	-0.0118
737.2791	0.0064
737.4567	-0.0017
737.6343	-0.0138
737.8118	-0.0045
737.9894	0.0049
738.1669	-0.002
738.3444	-0.0031
738.5218	-0.0025
738.6993	-0.0098
738.8767	-0.0041
739.0541	-0.0008
739.2315	-0.0059
739.4089	-0.0027
739.5863	0.0079
739.7636	-0.0037
739.9409	0.0052
740.1182	0.011
740.2955	0.0011
740.4728	0.004
740.65	-0.0027
740.8272	-0.0055
741.0044	-0.008
741.1816	-0.0032
741.3588	-0.0065
741.5359	-0.0089
741.7131	-0.017
741.8902	-0.0102
742.0673	-0.0007
742.2444	-0.0067
742.4214	-0.0087
742.5985	-0.0053
742.7755	-0.0075
742.9525	-0.0224
743.1295	0.0018
743.3064	-0.0059
743.4834	0.0077
743.6603	-0.0074
743.8372	-0.01
744.0141	0.005
744.191	-0.0072
744.3678	-0.0053
744.5446	-0.0002
744.7215	0.0016
744.8982	-0.0063
745.075	-0.0031
745.2518	0.0073
745.4285	0.0051
745.6052	-0.0007
745.7819	-0.0034
745.9586	-0.0066
746.1353	0.0096
746.3119	0.0042
746.4885	0.0014
746.6651	0.0026
746.8417	0.0086
747.0183	0.0042
747.1948	0.0063
747.3714	0.0094
747.5479	0.0109
747.7244	0.0037
747.9008	0.0079
748.0773	0.0021
748.2537	0.0037
748.4301	-0.0082
748.6065	0.0093
748.7829	0.0096
748.9593	-0.0041
749.1356	0.0005
749.3119	0.0127
749.4882	-0.0061
749.6645	0.0095
749.8408	-0.0043
750.017	-0.0004
750.1933	0.006
750.3695	-0.0087
750.5457	0.0165
750.7218	0.011
750.898	0.0101
751.0741	-0.0007
751.2502	0.0094
751.4263	0.0027
751.6024	0.0005
751.7784	0.0004
751.9545	-0.0053
752.1305	0.0002
752.3065	-0.0017
752.4825	0.0033
752.6584	-0.0106
752.8344	-0.0089
753.0103	-0.0087
753.1862	-0.0097
753.3621	-0.0026
753.5379	-0.0107
753.7138	0.005
753.8896	-0.0052
754.0654	-0.0029
754.2412	0.0115
754.417	-0.0006
754.5927	-0.0035
754.7685	-0.0125
754.9442	-0.0009
755.1199	0.0068
755.2956	-0.0025
755.4712	0.0053
755.6469	-0.0031
755.8225	-0.0052
755.9981	-0.0081
756.1736	0.0002
756.3492	-0.0001
756.5248	-0.0033
756.7003	-0.0031
756.8758	0.0084
757.0513	-0.008
757.2267	0.0015
757.4022	0.0029
757.5776	-0.0037
757.753	0.0138
757.9284	0.0045
758.1038	0.0136
758.2791	0.0087
758.4545	-0.0101
758.6298	0.0065
758.8051	0.003
758.9803	-0.0002
759.1556	0.0078
759.3308	-0.0018
759.506	0.0112
759.6812	0.0015
759.8564	0.0163
760.0316	0.0037
760.2067	0.0129
760.3819	0.0127
760.557	0.0105
760.732	-0.0065
760.9071	-0.0199
761.0821	0.0012
761.2572	0.0034
761.4322	-0.0066
761.6072	-0.001
761.7821	0.0031
761.9571	0.0096
762.132	-0.0095
762.3069	-0.0117
762.4818	-0.0047
762.6567	-0.0047
762.8316	-0.0044
763.0064	-0.0072
763.1812	-0.0043
763.356	-0.0138
763.5308	0.0013
763.7055	-0
763.8803	-0.0018
764.055	0.0069
764.2297	-0.0008
764.4044	-0.0019
764.579	-0.0128
764.7537	-0.0093
764.9283	0.0004
765.1029	-0.0108
765.2775	-0.0078
765.4521	-0.0025
765.6266	0.0071
765.8011	0.0003
765.9756	0.0065
766.1501	0.0078
766.3246	-0.0002
766.4991	0.0013
766.6735	-0.0015
766.8479	-0.006
767.0223	0.01
767.1967	0.0034
767.371	0.0018
767.5454	-0.0047
767.7197	-0.0002
767.894	-0.0024
768.0683	-0.003
768.2425	-0.004
768.4168	0.0132
768.591	0.0032
768.7652	0.0064
768.9394	0.0076
769.1135	-0.0053
769.2877	0.0052
769.4618	0.003
769.6359	0.0078
769.81	0.0018
769.984	-0.0064
770.1581	-0.0009
770.3321	0.0056
770.5061	-0.0001
770.6801	-0.0096
770.8541	0.0016
771.028	0.0088
771.202	-0.0031
771.3759	0.0084
771.5498	0.0063
771.7236	0.0036
771.8975	0.0048
772.0713	0.0119
772.2451	0.0134
772.4189	0.0051
772.5927	0.0235
772.7665	0.0173
772.9402	-0.0047
773.1139	0.0053
773.2876	-0.0018
773.4613	0.01
773.635	0.0046
773.8086	-0.0085
773.9822	-0.0053
774.1558	0.0044
774.3294	-0.0095
774.503	0.0074
774.6765	0.0058
774.8501	0.0005
775.0236	0.015
775.1971	0.0116
775.3705	-0.0066
775.544	0.0045
775.7174	-0.0066
775.8908	0.0112
776.0642	-0.0045
776.2376	-0.0006
776.4109	-0.0104
776.5843	-0.0071
776.7576	-0.0041
776.9309	0.0078
777.1041	0.0146
777.2774	0.0017
777.4506	0.0127
777.6238	-0.0062
777.797	-0.0015
777.9702	0.003
778.1434	-0.0025
778.3165	-0.0074
778.4896	-0.0088
778.6627	0.0087
778.8358	-0.0029
779.0089	0.0078
779.1819	0.0015
779.3549	0.0027
779.5279	0.0065
779.7009	0.0029
779.8739	0.0059
780.0468	-0.0022
780.2197	-0.0069
780.3926	0.0011
780.5655	-0.0052
780.7384	-0.0085
780.9112	0.003
781.0841	-0.0073
781.2569	0.0007
781.4297	0.0058
781.6024	-0.0022
781.7752	0.0014
781.9479	0.0085
782.1206	-0.0025
782.2933	-0.0025
782.466	0.0142
782.6386	0.0055
782.8113	0.0059
782.9839	0.0099
783.1565	0.0088
783.329	0.0053
783.5016	0.0036
783.6741	0.0038
783.8466	-0
784.0191	0.0148
784.1916	0.0059
784.3641	0.007
784.5365	0.011
784.7089	0.002
784.8813	-0.0113
785.0537	-0
785.2261	-0.0006
785.3984	-0.009
785.5707	-0.0045
785.743	-0.0052
785.9153	-0.0106
786.0876	0.0011
786.2598	-0.001
786.432	-0.0158
786.6042	0.0069
786.7764	-0.0073
786.9486	0.0107
787.1207	-0.0052
787.2928	0.0141
787.4649	0.0001
787.637	0.007
787.8091	0.0007
787.9811	-0.0027
788.1532	-0.0044
788.3252	0.0076
788.4972	-0.0085
788.6691	-0.0003
788.8411	0.0097
789.013	-0.0012
789.1849	-0.0053
789.3568	-0.0056
789.5287	-0.0021
789.7005	0.0006
789.8723	0.0063
790.0442	0.0196
790.2159	0.0146
790.3877	0.0115
790.5595	0.0023
790.7312	0.0096
790.9029	0.0054
791.0746	0.0082
791.2463	0.0108
791.4179	-0.0041
791.5896	-0.0149
791.7612	0.0124
791.9328	0.0046
792.1044	-0.01
792.2759	-0.001
792.4474	-0.0117
792.619	0.0081
792.7905	0.0067
792.9619	0.0131
793.1334	0.0115
793.3048	0.0155
793.4762	0.0203
793.6476	0.008
793.819	0.0047
793.9904	0.0064
794.1617	-0.0052
794.333	-0.0071
794.5043	-0.0047
794.6756	0.0044
794.8469	0.008
795.0181	0.0107
795.1893	-0.0143
795.3605	0.0196
795.5317	0.0097
795.7029	0.0083
795.874	-0.0048
796.0452	-0.0062
796.2163	0.0005
796.3873	0.0123
796.5584	0.0212
796.7294	0.0021
796.9005	0.0194
797.0715	0.0065
797.2425	-0.0021
797.4134	0.0001
797.5844	0.0028
797.7553	-0.0159
797.9262	0.0081
798.0971	-0.0186
798.2679	-0.0129
798.4388	-0.0047
798.6096	-0.0029
798.7804	0.0154
798.9512	-0.008
799.122	0.0148
799.2927	0.0013
799.4635	0.0286
799.6342	-0.0067
799.8049	-0.01
799.9755	0.0007
800.1462	0.0095
800.3168	0.0163
800.4874	-0
800.658	0.0184
800.8286	0.0231
800.9991	0.0081
801.1696	-0.0018
801.3402	0.0314
801.5106	0.0049
801.6811	0.0104
801.8516	0.0235
802.022	0.0055
802.1924	0.0207
802.3628	0.0119
802.5332	0.0352
802.7035	0.0254
802.8739	0.0066
803.0442	0.001
803.2145	0.0281
803.3847	-0.0027
803.555	-0.0034
803.7252	0.001
803.8954	-0.0071
804.0656	-0.0058
804.2358	-0.0055
804.4059	0.0206
804.5761	0.0189
804.7462	0.0055
804.9163	0.011
805.0864	0.0002
805.2564	0.0214
805.4264	0.0088
805.5965	0.0035
805.7665	0.0183
805.9364	0.0126
806.1064	0.0329
806.2763	0.0108
806.4462	0.026
806.6161	0.0158
806.786	0.0182
806.9559	-0.0012
807.1257	-0.0014
807.2955	0.0018
807.4653	0.0036
807.6351	-0.0078
807.8048	0.0228
807.9746	0.0305
808.1443	0.008
808.314	0.0094
808.4837	0.0049
808.6533	0.0328
808.8229	0.0174
808.9926	0.0097
809.1622	0.0346
809.3317	0.0104
809.5013	0.0147
809.6708	0.0217
809.8403	0.0173
810.0098	0.0141
810.1793	0.0141
810.3488	0.0229
810.5182	0.0206
810.6876	0.0195
810.857	0.0099
811.0264	0.0188
811.1958	0.0242
811.3651	0.0365
811.5344	-0.0006
811.7037	0.0138
811.873	0.0084
812.0422	0.0157
812.2115	0.0084
812.3807	-0.0021
812.5499	0.0086
812.7191	0.0395
812.8882	-0.0032
813.0574	0.003
813.2265	0.0217
813.3956	0.0128
813.5646	0.0174
813.7337	0.007
813.9027	0.0196
814.0718	0.0251
814.2407	0.0337
814.4097	0.0205
814.5787	0.0091
814.7476	0.0152
814.9165	0.0161
815.0854	0.0156
815.2543	0.0164
815.4232	0.0112
815.592	0.0158
815.7608	0.0193
815.9296	0.0197
816.0984	0.0243
816.2671	0.0101
816.4359	0.015
816.6046	0.0347
816.7733	-0.0019
816.942	0.0127
817.1106	-0.001
817.2793	0.027
817.4479	0.0235
817.6165	0.053
817.785	0.0293
817.9536	0.0112
818.1221	0.0143
818.2906	0.0165
818.4591	0.0088
818.6276	0.015
818.7961	0.0265
818.9645	0.021
819.1329	0.02
819.3013	0.0253
819.4697	0.0625
819.638	-0.0035
819.8064	0.0109
819.9747	0.0373
820.143	0.0213
820.3113	0.0061
820.4795	0.0109
820.6477	0.024
820.816	0.0306
820.9842	0.0075
821.1523	0.0198
821.3205	0.0017
821.4886	0.0127
821.6567	0.0326
821.8248	0.0175
821.9929	0.024
822.1609	0.016
822.329	0.0345
822.497	0.0505
822.665	0.0071
822.833	0.027
823.0009	0.031
823.1688	0.0551
823.3367	0.0425
823.5046	0.0163
823.6725	0.0299
823.8404	-0.0114
824.0082	0.0323
824.176	0.0238
824.3438	0.0342
824.5116	-0.0137
824.6793	0.0053
824.847	0.0155
825.0147	-0.0106
825.1824	0.0205
825.3501	0.034
825.5177	0.0116
825.6854	0.006
825.853	0.0324
826.0206	-0.0102
826.1881	0.0334
826.3557	-0.0316
826.5232	0.0573
826.6907	-0.0138
826.8582	0.0104
827.0257	0.005
827.1931	0.0293
827.3605	0.0395
827.528	0.0141
827.6953	-0.0113
827.8627	0.0032
828.03	0.043
828.1974	0.0037
828.3647	-0.0237
828.532	0.0083
828.6992	-0.0045
828.8665	-0.0082
829.0337	-0.0213
829.2009	0.0363
829.3681	0.005
829.5352	0.0185
829.7024	-0.0196
829.8695	-0.0315
830.0366	0.0188
830.2037	0.0086
830.3707	0.0104
830.5378	-0.0195
830.7048	0.0188
830.8718	-0.0018
831.0388	-0.0092
831.2057	0.0285
831.3727	0.043
831.5396	-0.0001
831.7065	-0.0024
831.8734	0.0254
832.0402	0.0077
832.2071	0.0119
832.3739	0.0023
832.5407	0.0077
832.7075	0.0017
832.8742	0.011
833.041	-0.0335
833.2077	0.0256
833.3744	0.0155
833.541	0.0436
833.7077	0.0017
833.8743	-0.0047
834.0409	0.0135
834.2075	0.0253
834.3741	0.0174
834.5407	-0.0231
834.7072	0.0206
834.8737	-0.0048
835.0402	-0.0127
835.2067	0.0275
835.3731	0.032
835.5395	0.0195
835.706	0.0376
835.8723	-0.0073
836.0387	0.0101
836.2051	0.0019
836.3714	0.0288
836.5377	0.0275
836.704	-0.0128
836.8703	0.0427
837.0365	0.002
837.2027	-0.0151
837.3689	0.0006
837.5351	0.0151
837.7013	-0.0019
837.8674	-0.0249
838.0335	0.0119
838.1997	-0.013
838.3657	0.0051
838.5318	-0.0045
838.6978	0.0212
838.8639	0.0028
839.0299	0.0219
839.1958	0.0029
839.3618	-0.0002
839.5277	0.005
839.6937	0.0341
839.8596	-0.04
840.0254	0.0031
840.1913	-0.001
840.3571	0.0557
840.523	-0.0168
840.6888	-0.0086
840.8545	0.0065
841.0203	0.0278
841.186	0.0467
841.3517	0.0362
841.5174	0.0448
841.6831	0.0026
841.8488	-0.0065
842.0144	-0.0021
842.18	0.0281
842.3456	0.0473
842.5112	-0.0013
842.6767	-0.0232
842.8422	-0.0129
843.0077	0.0008
843.1732	0.0044
843.3387	0.0054
843.5042	0.0127
843.6696	0.0207
843.835	-0.0046
844.0004	0.0166
844.1657	0.0575
844.3311	-0.0315
844.4964	-0.0704
844.6617	-0.0188
844.827	-0.0506
844.9923	0.0078
845.1575	0.0009
845.3227	0.002
845.4879	0.024
845.6531	-0.0109
845.8183	-0.0958
845.9834	-0.0222
846.1485	-0.0131
846.3136	0.0099
846.4787	-0.0679
846.6438	0.0409
846.8088	0.0107
846.9738	0.0297
847.1388	-0.0263
847.3038	0.0612
847.4687	-0.103
847.6337	0.001
847.7986	0.005
847.9635	-0.0632
848.1284	0.0771
848.2932	0.1077
848.458	0.0424
848.6228	0.008
848.7876	0.0125
848.9524	-0.0717
849.1172	-0.0986
849.2819	0.0723
849.4466	-0.0365
849.6113	-0.0299
849.7759	0.0436
849.9406	0.0171
850.1052	0.0343
850.2698	0.0189
850.4344	0.0074
850.599	-0.0396
850.7635	0.0755
850.928	0.0387
851.0925	0.0132
851.257	-0.0426
851.4215	0.049
851.5859	0.048
851.7503	-0.03
851.9147	0.0012
852.0791	-0.0605
852.2434	-0.0208
852.4078	0.0029
852.5721	0.0473
852.7364	-0.0281
852.9007	-0.1509
853.0649	-0.0522
853.2291	-0.0153
853.3934	0.0087
853.5575	0.1043
853.7217	0.0308
853.8859	-0.157
854.05	-0.0434
854.2141	0.0125
854.3782	-0.0489
854.5423	-0.0184
854.7063	0.078
854.8703	0.0552
855.0343	-0.0483
855.1983	-0.0635
855.3623	0.0607
855.5262	0.1148
855.6901	0.027
855.854	0.012
856.0179	0.0175
856.1818	0.055
856.3456	0.0418
856.5094	-0.1409
856.6732	-0.0703
856.837	0.0253
857.0008	0.0693
857.1645	-0.03
857.3282	-0.1405
857.4919	0.1366
857.6556	-0.0131
857.8192	-0.0106
857.9828	0.0503
858.1465	0.0709
858.31	-0.103
858.4736	-0.0012
858.6372	-0.0451
858.8007	-0.1866
858.9642	0.1247
859.1277	0.2857
859.2911	0.0424
859.4546	-0.031
859.618	-0.3979
859.7814	-0.069
859.9448	0.1233
860.1081	0.3534
860.2715	0.0717
860.4348	-0.1551
860.5981	-0.1268
860.7614	0.0738
860.9246	-0.2256
861.0879	0.0415
861.2511	0.0727
861.4143	-0.2512
861.5774	0.2307
861.7406	-0.0358
861.9037	-0.0603
862.0668	0.1568
862.2299	0.0128
862.393	-0.5405
862.556	0.0459
862.7191	-0.1324
862.8821	-0.0714
863.0451	-0.0227
863.208	0.0761
863.371	0.056
863.5339	-0.1294
863.6968	-0.0061
863.8597	-0.056
864.0225	0.0105
864.1854	0.2292
864.3482	0.0897
864.511	0.0804
864.6737	-0.1404
864.8365	0.3596
864.9992	-0.5465
865.1619	-0.153
865.3246	-0.168
865.4873	0.2017
865.65	0.0992
865.8126	0.014
865.9752	0.3427
866.1378	-0
866.3004	-0
866.4629	-0.0163
866.6254	-0.1776
866.7879	-0.0302
866.9504	0.3095
867.1129	-0
867.2753	0.5526
867.4377	0.3112
867.6001	-0.2771
867.7625	0.2828
867.9249	-0
868.0872	-0.0353
868.2495	0.1733
868.4118	0.0802
868.5741	-0.3834
868.7363	-0.3703
868.8986	-0.302
869.0608	-0.2847
869.223	0.0088
869.3851	0.2024
869.5473	-0
869.7094	0.1763
869.8715	0.9339
870.0336	-0.8818
870.1957	-0.65
870.3577	-0.9294
870.5197	-0.2927
870.6817	0.4005
870.8437	-0.0804
871.0057	-0.2156
871.1676	-0.1808
871.3295	-0.2775
871.4914	-0.9241
871.6533	-0.4811
871.8151	-0.4486
871.977	-0
872.1388	-0
872.3006	0.1747
872.4623	-0
872.6241	0.1024
872.7858	0.7001
872.9475	-0.0285
873.1092	0.0251
873.2709	-0.0056
873.4325	0.3308
873.5941	-0
873.7557	-0
873.9173	-0
874.0789	0.1777
874.2404	-0.2387
874.4019	0.0547
874.5634	0.2029
874.7249	-0.0289
874.8863	0.5354
875.0478	0.1098
875.2092	-0.4488
875.3706	0.6274
875.5319	-0.9807
875.6933	0.5401
875.8546	-0.0482
876.0159	-0.0367
876.1772	0.4353
876.3385	-0
876.4997	0.4304
876.6609	-0.6611
876.8221	-0
876.9833	0.1136
877.1445	0.7874
877.3056	0.0355
877.4667	-0.0535
877.6278	1.4853
877.7889	-0.5746
877.9499	-0
878.111	-0
878.272	-0
878.433	0.2266
878.5939	-0
878.7549	0.1532
878.9158	-1.0225
879.0767	-0
879.2376	-0
879.3984	-0
879.5593	-0
879.7201	0.3703
879.8809	-0.8872
880.0417	-0.0601
880.2024	0.1584
880.3632	-0
880.5239	0.5091
880.6846	0.6085
880.8452	-2.5593
881.0059	-0
881.1665	0.0154
881.3271	-0
881.4877	-0
881.6483	-0.3491
881.8088	-0.5797
881.9693	-0
882.1298	-0
882.2903	-0
