Data from MonoPyChalIsomerACN10uM380nmA_Absorbance_13-38-29-449.txt Node
Date: Fri Jul 05 13:38:29 BST 2024
User: LASERRRRR
Spectrometer: FLMT03099
Trigger mode: 0
Integration Time (sec): 1.000000E-1
Scans to average: 1
Electric dark correction enabled: true
Nonlinearity correction enabled: false
Boxcar width: 0
XAxis mode: Wavelengths
Number of Pixels in Spectrum: 3648
>>>>>Begin Spectral Data<<<<<
179.3399	-0.1085
179.5586	-0.1085
179.7771	-0.1085
179.9957	1.4078
180.2143	-0
180.4329	-0.437
180.6514	-0
180.8699	-0
181.0885	-0
181.307	0.2157
181.5255	-0.9281
181.744	-0
181.9625	-0
182.181	-0.1165
182.3994	0.2732
182.6179	-0.334
182.8363	-0.4209
183.0547	0.324
183.2732	0.0178
183.4916	0.0634
183.71	0.0052
183.9284	0.4005
184.1467	-0.0089
184.3651	-0.0307
184.5835	-0.077
184.8018	-0.0364
185.0201	0.0535
185.2385	-0.0084
185.4568	0.1022
185.6751	0.1138
185.8934	0.1559
186.1117	-0.0135
186.3299	0.2321
186.5482	0.2646
186.7664	-0.1732
186.9847	-0.074
187.2029	0.1039
187.4211	0.138
187.6393	0.0769
187.8575	0.0661
188.0757	0.3924
188.2939	0.0802
188.512	0.102
188.7302	0.072
188.9483	0.1025
189.1665	0.2242
189.3846	0.4605
189.6027	0.0602
189.8208	0.2443
190.0389	0.1212
190.257	0.1527
190.475	0.2897
190.6931	0.3655
190.9111	0.8375
191.1292	0.2705
191.3472	0.4987
191.5652	0.3472
191.7832	0.5007
192.0012	0.8458
192.2192	0.434
192.4371	0.6521
192.6551	0.4259
192.873	0.5571
193.091	0.4213
193.3089	0.6563
193.5268	0.5445
193.7447	0.7506
193.9626	0.567
194.1805	1.4071
194.3984	0.9794
194.6162	1.1468
194.8341	0.556
195.0519	0.7862
195.2697	-0
195.4875	0.6942
195.7054	0.9712
195.9231	0.7477
196.1409	0.8283
196.3587	0.6731
196.5765	0.9345
196.7942	0.6822
197.012	0.5668
197.2297	0.7883
197.4474	1.4542
197.6651	0.7875
197.8828	0.6952
198.1005	0.6518
198.3182	0.9651
198.5358	0.9615
198.7535	0.7877
198.9711	0.5959
199.1888	0.756
199.4064	1.7037
199.624	0.8544
199.8416	0.7513
200.0592	0.8549
200.2767	0.9931
200.4943	0.8518
200.7119	1.1895
200.9294	0.8558
201.1469	0.716
201.3645	0.7858
201.582	0.8855
201.7995	0.7634
202.017	0.9072
202.2344	0.6537
202.4519	0.8764
202.6694	0.954
202.8868	0.7583
203.1042	0.8612
203.3217	1.0166
203.5391	0.9095
203.7565	0.7634
203.9739	0.7738
204.1913	0.8069
204.4086	0.9496
204.626	0.8397
204.8433	0.9226
205.0607	0.8592
205.278	0.965
205.4953	0.8688
205.7126	0.9808
205.9299	1.067
206.1472	0.8448
206.3644	0.9701
206.5817	0.9042
206.7989	0.7572
207.0162	0.7449
207.2334	0.7329
207.4506	0.8172
207.6678	0.7782
207.885	0.8392
208.1022	0.8943
208.3194	0.8228
208.5365	0.8208
208.7537	0.8088
208.9708	0.6672
209.1879	0.9116
209.405	0.8385
209.6222	0.9168
209.8392	0.9742
210.0563	0.8371
210.2734	0.8156
210.4905	0.8243
210.7075	0.7534
210.9245	0.7932
211.1416	0.8436
211.3586	0.9061
211.5756	0.777
211.7926	0.7617
212.0096	0.7676
212.2265	0.7398
212.4435	0.8267
212.6604	0.7665
212.8774	0.7878
213.0943	0.7942
213.3112	0.6919
213.5281	0.7065
213.745	0.7019
213.9619	0.7253
214.1788	0.6641
214.3956	0.6727
214.6125	0.698
214.8293	0.649
215.0461	0.7227
215.2629	0.7
215.4798	0.6968
215.6965	0.6588
215.9133	0.701
216.1301	0.6666
216.3469	0.673
216.5636	0.6201
216.7803	0.6174
216.9971	0.6535
217.2138	0.6304
217.4305	0.6381
217.6472	0.593
217.8639	0.6756
218.0805	0.6152
218.2972	0.6119
218.5138	0.598
218.7305	0.5765
218.9471	0.5758
219.1637	0.5834
219.3803	0.5631
219.5969	0.5461
219.8135	0.5274
220.0301	0.5699
220.2466	0.5792
220.4632	0.5096
220.6797	0.5058
220.8962	0.5097
221.1127	0.5109
221.3292	0.5705
221.5457	0.5148
221.7622	0.5118
221.9787	0.5091
222.1951	0.5139
222.4116	0.5511
222.628	0.5328
222.8444	0.5526
223.0608	0.522
223.2772	0.5598
223.4936	0.5291
223.71	0.4866
223.9264	0.5238
224.1427	0.5701
224.3591	0.5246
224.5754	0.5772
224.7917	0.5161
225.008	0.5546
225.2243	0.5179
225.4406	0.5392
225.6569	0.5161
225.8732	0.5284
226.0894	0.5205
226.3057	0.5176
226.5219	0.5355
226.7381	0.5524
226.9543	0.5337
227.1705	0.5724
227.3867	0.5704
227.6029	0.554
227.8191	0.5599
228.0352	0.5553
228.2513	0.5448
228.4675	0.5452
228.6836	0.5446
228.8997	0.551
229.1158	0.5676
229.3319	0.5716
229.548	0.5735
229.764	0.5652
229.9801	0.5543
230.1961	0.56
230.4121	0.5306
230.6282	0.565
230.8442	0.5382
231.0602	0.5514
231.2761	0.5898
231.4921	0.5814
231.7081	0.5617
231.924	0.5508
232.14	0.5855
232.3559	0.5498
232.5718	0.5849
232.7877	0.5587
233.0036	0.5412
233.2195	0.5654
233.4353	0.5662
233.6512	0.5505
233.867	0.5394
234.0829	0.5434
234.2987	0.5454
234.5145	0.5588
234.7303	0.5624
234.9461	0.5632
235.1619	0.5621
235.3776	0.555
235.5934	0.5516
235.8091	0.5297
236.0249	0.5332
236.2406	0.5532
236.4563	0.5358
236.672	0.5635
236.8877	0.5606
237.1034	0.559
237.319	0.5614
237.5347	0.5536
237.7503	0.5298
237.966	0.5448
238.1816	0.5549
238.3972	0.5543
238.6128	0.5446
238.8284	0.541
239.0439	0.5785
239.2595	0.5332
239.475	0.5557
239.6906	0.5314
239.9061	0.5223
240.1216	0.5237
240.3371	0.5278
240.5526	0.4965
240.7681	0.5131
240.9836	0.4921
241.199	0.498
241.4145	0.4979
241.6299	0.4754
241.8453	0.4697
242.0607	0.4784
242.2761	0.4519
242.4915	0.4652
242.7069	0.4505
242.9223	0.45
243.1376	0.4227
243.353	0.4216
243.5683	0.4477
243.7836	0.423
243.9989	0.4152
244.2142	0.3922
244.4295	0.3963
244.6448	0.3775
244.86	0.3699
245.0753	0.3584
245.2905	0.3662
245.5057	0.3503
245.721	0.3401
245.9362	0.339
246.1514	0.3441
246.3665	0.3258
246.5817	0.3252
246.7969	0.3246
247.012	0.2956
247.2271	0.2968
247.4423	0.3086
247.6574	0.3084
247.8725	0.2766
248.0876	0.2683
248.3026	0.269
248.5177	0.269
248.7328	0.2648
248.9478	0.2502
249.1628	0.2673
249.3779	0.2608
249.5929	0.2431
249.8079	0.2626
250.0228	0.2487
250.2378	0.2412
250.4528	0.24
250.6677	0.2279
250.8827	0.2294
251.0976	0.2271
251.3125	0.2386
251.5274	0.2195
251.7423	0.2289
251.9572	0.2274
252.172	0.224
252.3869	0.2309
252.6017	0.2077
252.8166	0.2129
253.0314	0.1941
253.2462	0.1937
253.461	0.2166
253.6758	0.2105
253.8906	0.2025
254.1053	0.2045
254.3201	0.2006
254.5348	0.2185
254.7496	0.2127
254.9643	0.1908
255.179	0.1846
255.3937	0.2004
255.6083	0.1931
255.823	0.1883
256.0377	0.1999
256.2523	0.1886
256.467	0.1759
256.6816	0.1999
256.8962	0.203
257.1108	0.1821
257.3254	0.1974
257.54	0.1798
257.7545	0.1861
257.9691	0.2028
258.1836	0.1811
258.3981	0.1943
258.6127	0.1984
258.8272	0.1883
259.0417	0.1806
259.2561	0.18
259.4706	0.1866
259.6851	0.1889
259.8995	0.1839
260.114	0.1777
260.3284	0.1821
260.5428	0.1833
260.7572	0.1895
260.9716	0.19
261.186	0.1813
261.4003	0.1837
261.6147	0.1744
261.829	0.1741
262.0433	0.1789
262.2577	0.1829
262.472	0.1929
262.6863	0.1823
262.9005	0.1857
263.1148	0.1813
263.3291	0.1614
263.5433	0.1813
263.7576	0.1831
263.9718	0.1829
264.186	0.1889
264.4002	0.196
264.6144	0.1879
264.8286	0.188
265.0427	0.1758
265.2569	0.1871
265.471	0.1892
265.6851	0.1791
265.8993	0.1754
266.1134	0.1744
266.3275	0.1792
266.5415	0.1776
266.7556	0.178
266.9697	0.1834
267.1837	0.186
267.3978	0.1747
267.6118	0.1897
267.8258	0.1906
268.0398	0.1758
268.2538	0.1939
268.4677	0.1687
268.6817	0.1804
268.8957	0.1693
269.1096	0.1714
269.3235	0.1747
269.5374	0.1662
269.7514	0.1723
269.9652	0.1658
270.1791	0.1708
270.393	0.166
270.6068	0.179
270.8207	0.1666
271.0345	0.159
271.2483	0.1809
271.4622	0.1622
271.676	0.173
271.8897	0.1598
272.1035	0.1634
272.3173	0.1639
272.531	0.1646
272.7448	0.1608
272.9585	0.1603
273.1722	0.1575
273.3859	0.1611
273.5996	0.1523
273.8133	0.1607
274.0269	0.1629
274.2406	0.1566
274.4542	0.1552
274.6679	0.1493
274.8815	0.159
275.0951	0.1723
275.3087	0.1677
275.5223	0.1739
275.7358	0.1556
275.9494	0.1638
276.1629	0.1594
276.3765	0.1601
276.59	0.172
276.8035	0.1579
277.017	0.1599
277.2305	0.1585
277.444	0.1722
277.6574	0.1571
277.8709	0.1703
278.0843	0.1638
278.2978	0.1575
278.5112	0.1487
278.7246	0.1638
278.938	0.1608
279.1513	0.1702
279.3647	0.1745
279.5781	0.1549
279.7914	0.1732
280.0047	0.1627
280.2181	0.1782
280.4314	0.1666
280.6447	0.1673
280.8579	0.1698
281.0712	0.1658
281.2845	0.1836
281.4977	0.1577
281.711	0.1639
281.9242	0.1635
282.1374	0.1733
282.3506	0.1605
282.5638	0.1693
282.7769	0.1798
282.9901	0.1791
283.2033	0.1813
283.4164	0.175
283.6295	0.1637
283.8426	0.1674
284.0557	0.1809
284.2688	0.187
284.4819	0.1796
284.695	0.178
284.908	0.1836
285.1211	0.1628
285.3341	0.1841
285.5471	0.192
285.7601	0.1809
285.9731	0.1628
286.1861	0.1678
286.3991	0.1818
286.612	0.183
286.825	0.1843
287.0379	0.1784
287.2508	0.1776
287.4637	0.1818
287.6766	0.1661
287.8895	0.1884
288.1024	0.1995
288.3152	0.1901
288.5281	0.1746
288.7409	0.17
288.9538	0.1718
289.1666	0.1804
289.3794	0.1825
289.5922	0.1738
289.8049	0.18
290.0177	0.1864
290.2304	0.1894
290.4432	0.1933
290.6559	0.1852
290.8686	0.1954
291.0813	0.1919
291.294	0.1823
291.5067	0.1818
291.7194	0.1724
291.932	0.1963
292.1447	0.1788
292.3573	0.1714
292.5699	0.1828
292.7825	0.1878
292.9951	0.1836
293.2077	0.1771
293.4203	0.1811
293.6328	0.1795
293.8454	0.1841
294.0579	0.1858
294.2704	0.1806
294.4829	0.1747
294.6954	0.1878
294.9079	0.1749
295.1204	0.189
295.3328	0.1708
295.5453	0.1757
295.7577	0.1756
295.9701	0.1753
296.1825	0.1843
296.3949	0.1788
296.6073	0.1795
296.8197	0.1687
297.0321	0.1811
297.2444	0.1708
297.4567	0.1812
297.6691	0.1825
297.8814	0.1616
298.0937	0.1756
298.306	0.1854
298.5182	0.1774
298.7305	0.1788
298.9428	0.1729
299.155	0.1731
299.3672	0.1747
299.5794	0.1656
299.7916	0.1742
300.0038	0.1834
300.216	0.1768
300.4282	0.1792
300.6403	0.1686
300.8525	0.1661
301.0646	0.1678
301.2767	0.1796
301.4888	0.1732
301.7009	0.1779
301.913	0.1693
302.125	0.1779
302.3371	0.1732
302.5491	0.1814
302.7612	0.1794
302.9732	0.1813
303.1852	0.1693
303.3972	0.183
303.6092	0.1655
303.8211	0.1704
304.0331	0.163
304.245	0.1716
304.457	0.1602
304.6689	0.1652
304.8808	0.18
305.0927	0.1582
305.3046	0.1656
305.5164	0.1762
305.7283	0.1559
305.9401	0.162
306.152	0.1573
306.3638	0.1564
306.5756	0.1499
306.7874	0.1461
306.9992	0.1525
307.2109	0.1558
307.4227	0.1452
307.6344	0.1529
307.8462	0.1482
308.0579	0.149
308.2696	0.1396
308.4813	0.142
308.693	0.1438
308.9046	0.1381
309.1163	0.1379
309.328	0.1307
309.5396	0.1295
309.7512	0.1341
309.9628	0.135
310.1744	0.1266
310.386	0.1265
310.5976	0.1347
310.8091	0.1266
311.0207	0.1298
311.2322	0.1143
311.4437	0.1134
311.6552	0.1217
311.8667	0.1196
312.0782	0.1089
312.2897	0.1086
312.5012	0.1121
312.7126	0.1028
312.924	0.1014
313.1355	0.1091
313.3469	0.1122
313.5583	0.1083
313.7696	0.1192
313.981	0.1124
314.1924	0.1054
314.4037	0.0986
314.6151	0.1108
314.8264	0.0977
315.0377	0.1023
315.249	0.0995
315.4603	0.1129
315.6716	0.1019
315.8828	0.0981
316.0941	0.0958
316.3053	0.0918
316.5165	0.1004
316.7277	0.0975
316.9389	0.1105
317.1501	0.1025
317.3613	0.0962
317.5724	0.0885
317.7836	0.1042
317.9947	0.0885
318.2058	0.1045
318.417	0.0871
318.6281	0.09
318.8391	0.0968
319.0502	0.1024
319.2613	0.1077
319.4723	0.1056
319.6834	0.1083
319.8944	0.0859
320.1054	0.1002
320.3164	0.0971
320.5274	0.0955
320.7383	0.1057
320.9493	0.0919
321.1602	0.1008
321.3712	0.0955
321.5821	0.0982
321.793	0.0965
322.0039	0.1079
322.2148	0.0954
322.4257	0.1011
322.6365	0.1127
322.8474	0.1138
323.0582	0.095
323.269	0.0904
323.4798	0.1113
323.6906	0.1075
323.9014	0.0955
324.1122	0.0986
324.3229	0.0938
324.5337	0.1017
324.7444	0.0861
324.9551	0.117
325.1658	0.1027
325.3765	0.1004
325.5872	0.0961
325.7979	0.0986
326.0085	0.1036
326.2192	0.1022
326.4298	0.1005
326.6404	0.0948
326.851	0.0924
327.0616	0.105
327.2722	0.1054
327.4828	0.1097
327.6933	0.1045
327.9039	0.1134
328.1144	0.1196
328.3249	0.1053
328.5354	0.0871
328.7459	0.1024
328.9564	0.0885
329.1669	0.1028
329.3773	0.0986
329.5878	0.1081
329.7982	0.0992
330.0086	0.0976
330.219	0.1042
330.4294	0.1011
330.6398	0.1139
330.8502	0.1028
331.0605	0.1047
331.2708	0.099
331.4812	0.1096
331.6915	0.0999
331.9018	0.1015
332.1121	0.1031
332.3224	0.1049
332.5326	0.1139
332.7429	0.097
332.9531	0.1191
333.1633	0.1179
333.3735	0.1024
333.5837	0.1001
333.7939	0.1019
334.0041	0.1145
334.2143	0.1144
334.4244	0.0991
334.6346	0.0854
334.8447	0.1218
335.0548	0.0982
335.2649	0.1059
335.475	0.1094
335.685	0.0999
335.8951	0.1139
336.1051	0.1082
336.3152	0.1172
336.5252	0.1083
336.7352	0.1247
336.9452	0.1124
337.1552	0.1106
337.3652	0.1092
337.5751	0.1084
337.7851	0.1158
337.995	0.0879
338.2049	0.1109
338.4148	0.1087
338.6247	0.1083
338.8346	0.1144
339.0445	0.1028
339.2543	0.1143
339.4642	0.1146
339.674	0.1102
339.8838	0.1084
340.0936	0.1111
340.3034	0.1258
340.5132	0.13
340.7229	0.1075
340.9327	0.1052
341.1424	0.1034
341.3522	0.1296
341.5619	0.1133
341.7716	0.1141
341.9813	0.1196
342.1909	0.11
342.4006	0.113
342.6102	0.1282
342.8199	0.132
343.0295	0.1165
343.2391	0.1284
343.4487	0.125
343.6583	0.1239
343.8679	0.1186
344.0774	0.124
344.287	0.1348
344.4965	0.1207
344.706	0.1221
344.9155	0.1094
345.125	0.114
345.3345	0.132
345.544	0.1225
345.7534	0.1265
345.9629	0.1086
346.1723	0.1144
346.3817	0.119
346.5911	0.121
346.8005	0.1292
347.0099	0.1275
347.2193	0.134
347.4286	0.1234
347.638	0.1396
347.8473	0.1241
348.0566	0.1178
348.2659	0.1357
348.4752	0.1373
348.6845	0.1286
348.8937	0.1198
349.103	0.1343
349.3122	0.134
349.5214	0.1286
349.7306	0.1361
349.9398	0.1444
350.149	0.1245
350.3582	0.1294
350.5674	0.1453
350.7765	0.1489
350.9856	0.1366
351.1948	0.1398
351.4039	0.1237
351.613	0.1262
351.822	0.1428
352.0311	0.1629
352.2402	0.1474
352.4492	0.1487
352.6582	0.1432
352.8672	0.1468
353.0762	0.1391
353.2852	0.1472
353.4942	0.1384
353.7032	0.1601
353.9121	0.1472
354.1211	0.153
354.33	0.1502
354.5389	0.146
354.7478	0.1365
354.9567	0.1481
355.1655	0.1346
355.3744	0.1449
355.5833	0.1646
355.7921	0.1668
356.0009	0.1409
356.2097	0.1801
356.4185	0.172
356.6273	0.1751
356.8361	0.1622
357.0448	0.1644
357.2536	0.1539
357.4623	0.1591
357.671	0.156
357.8797	0.1665
358.0884	0.1712
358.2971	0.1689
358.5057	0.1686
358.7144	0.1758
358.923	0.1607
359.1316	0.1654
359.3402	0.1681
359.5488	0.1609
359.7574	0.155
359.966	0.1902
360.1746	0.1761
360.3831	0.1899
360.5916	0.1635
360.8002	0.1703
361.0087	0.1843
361.2172	0.1668
361.4256	0.1795
361.6341	0.183
361.8426	0.1807
362.051	0.1911
362.2594	0.1716
362.4678	0.1837
362.6762	0.195
362.8846	0.1963
363.093	0.1913
363.3014	0.1793
363.5097	0.1686
363.718	0.1958
363.9264	0.1869
364.1347	0.184
364.343	0.1915
364.5513	0.1901
364.7595	0.216
364.9678	0.1903
365.176	0.1779
365.3842	0.1961
365.5925	0.1827
365.8007	0.2121
366.0089	0.2011
366.217	0.2059
366.4252	0.2045
366.6333	0.2156
366.8415	0.2147
367.0496	0.2077
367.2577	0.2153
367.4658	0.2155
367.6739	0.2188
367.882	0.2131
368.09	0.1995
368.2981	0.2239
368.5061	0.2116
368.7141	0.2228
368.9221	0.2127
369.1301	0.2145
369.3381	0.2161
369.5461	0.2034
369.754	0.2175
369.962	0.2178
370.1699	0.2192
370.3778	0.2197
370.5857	0.2067
370.7936	0.2205
371.0015	0.2167
371.2093	0.2327
371.4172	0.2289
371.625	0.2289
371.8328	0.2254
372.0406	0.2376
372.2484	0.2283
372.4562	0.243
372.664	0.2352
372.8717	0.2341
373.0795	0.2177
373.2872	0.238
373.4949	0.2296
373.7026	0.2314
373.9103	0.2416
374.118	0.24
374.3256	0.2337
374.5333	0.2392
374.7409	0.2234
374.9485	0.2459
375.1561	0.2468
375.3637	0.2463
375.5713	0.2503
375.7789	0.2347
375.9864	0.2484
376.194	0.2398
376.4015	0.2514
376.609	0.2526
376.8165	0.2439
377.024	0.2456
377.2315	0.2454
377.4389	0.2481
377.6464	0.2538
377.8538	0.2629
378.0612	0.2426
378.2686	0.2663
378.476	0.2502
378.6834	0.2593
378.8908	0.2656
379.0981	0.266
379.3055	0.2763
379.5128	0.2513
379.7201	0.2525
379.9274	0.2367
380.1347	0.2593
380.342	0.2634
380.5492	0.2414
380.7565	0.2606
380.9637	0.2552
381.1709	0.2547
381.3781	0.2531
381.5853	0.2712
381.7925	0.2724
381.9997	0.2585
382.2068	0.2666
382.4139	0.2731
382.6211	0.2568
382.8282	0.2513
383.0353	0.2572
383.2424	0.2654
383.4494	0.2762
383.6565	0.2527
383.8635	0.2587
384.0706	0.2584
384.2776	0.2747
384.4846	0.2566
384.6916	0.2774
384.8986	0.2623
385.1055	0.2726
385.3125	0.2668
385.5194	0.2469
385.7263	0.2771
385.9333	0.2766
386.1402	0.2546
386.347	0.2535
386.5539	0.2624
386.7608	0.2822
386.9676	0.2802
387.1744	0.2623
387.3813	0.2541
387.5881	0.2722
387.7948	0.2689
388.0016	0.265
388.2084	0.2635
388.4151	0.2452
388.6219	0.291
388.8286	0.2561
389.0353	0.3034
389.242	0.2715
389.4487	0.2543
389.6553	0.2608
389.862	0.2298
390.0686	0.2581
390.2753	0.2605
390.4819	0.2474
390.6885	0.2588
390.8951	0.2482
391.1016	0.241
391.3082	0.2499
391.5147	0.2453
391.7213	0.2628
391.9278	0.2403
392.1343	0.2337
392.3408	0.2451
392.5473	0.2299
392.7537	0.2421
392.9602	0.2443
393.1666	0.2551
393.373	0.2424
393.5794	0.2398
393.7858	0.2433
393.9922	0.2293
394.1986	0.2465
394.4049	0.2463
394.6113	0.2331
394.8176	0.2294
395.0239	0.2196
395.2302	0.2295
395.4365	0.2485
395.6428	0.2361
395.8491	0.2265
396.0553	0.235
396.2615	0.239
396.4678	0.2283
396.674	0.2
396.8802	0.217
397.0863	0.2327
397.2925	0.2152
397.4987	0.2133
397.7048	0.2246
397.9109	0.2331
398.117	0.2224
398.3231	0.212
398.5292	0.225
398.7353	0.2239
398.9413	0.2222
399.1474	0.2288
399.3534	0.2143
399.5594	0.2083
399.7654	0.2357
399.9714	0.2486
400.1774	0.2152
400.3833	0.2159
400.5893	0.2292
400.7952	0.2159
401.0011	0.2168
401.207	0.2283
401.4129	0.2261
401.6188	0.2244
401.8247	0.2426
402.0305	0.2203
402.2364	0.2209
402.4422	0.2461
402.648	0.2056
402.8538	0.2261
403.0596	0.2132
403.2654	0.2311
403.4711	0.2276
403.6768	0.2435
403.8826	0.22
404.0883	0.229
404.294	0.2291
404.4997	0.2235
404.7054	0.2239
404.911	0.2196
405.1167	0.2249
405.3223	0.2487
405.5279	0.2331
405.7335	0.243
405.9391	0.2416
406.1447	0.2321
406.3502	0.2469
406.5558	0.2179
406.7613	0.2294
406.9668	0.2197
407.1724	0.2194
407.3778	0.2184
407.5833	0.2178
407.7888	0.224
407.9942	0.216
408.1997	0.2271
408.4051	0.2178
408.6105	0.204
408.8159	0.1975
409.0213	0.202
409.2267	0.2274
409.432	0.2115
409.6374	0.2236
409.8427	0.2233
410.048	0.2087
410.2533	0.2205
410.4586	0.2265
410.6639	0.2034
410.8691	0.2235
411.0744	0.2104
411.2796	0.2232
411.4848	0.2252
411.69	0.2139
411.8952	0.25
412.1004	0.2201
412.3056	0.2281
412.5107	0.2229
412.7158	0.2298
412.921	0.2173
413.1261	0.2124
413.3312	0.2115
413.5362	0.2182
413.7413	0.2124
413.9464	0.2142
414.1514	0.2036
414.3564	0.2063
414.5614	0.2187
414.7664	0.2068
414.9714	0.2339
415.1764	0.2207
415.3813	0.2227
415.5863	0.2221
415.7912	0.219
415.9961	0.2178
416.201	0.2073
416.4059	0.2296
416.6108	0.2066
416.8156	0.2039
417.0205	0.2174
417.2253	0.1927
417.4301	0.2232
417.6349	0.2064
417.8397	0.2226
418.0445	0.2158
418.2492	0.213
418.454	0.2067
418.6587	0.2023
418.8634	0.2177
419.0681	0.1897
419.2728	0.2162
419.4775	0.219
419.6822	0.2169
419.8868	0.203
420.0915	0.2013
420.2961	0.1831
420.5007	0.2023
420.7053	0.2016
420.9099	0.1998
421.1144	0.2143
421.319	0.1911
421.5235	0.215
421.728	0.2015
421.9325	0.2034
422.137	0.2124
422.3415	0.1928
422.546	0.1986
422.7504	0.2009
422.9549	0.1898
423.1593	0.2067
423.3637	0.2135
423.5681	0.1905
423.7725	0.1825
423.9769	0.1803
424.1812	0.1664
424.3856	0.1831
424.5899	0.1885
424.7942	0.1875
424.9985	0.1874
425.2028	0.1824
425.4071	0.2139
425.6113	0.1717
425.8156	0.191
426.0198	0.1928
426.224	0.1719
426.4282	0.1768
426.6324	0.1743
426.8366	0.1683
427.0407	0.1605
427.2449	0.1707
427.449	0.1746
427.6531	0.1551
427.8572	0.1828
428.0613	0.1729
428.2654	0.1746
428.4694	0.1617
428.6735	0.1724
428.8775	0.1827
429.0815	0.1718
429.2855	0.1535
429.4895	0.1741
429.6935	0.1726
429.8975	0.1713
430.1014	0.1559
430.3053	0.1626
430.5093	0.1599
430.7132	0.1417
430.9171	0.1365
431.1209	0.1524
431.3248	0.1536
431.5286	0.1448
431.7325	0.1402
431.9363	0.1399
432.1401	0.1371
432.3439	0.1341
432.5477	0.1159
432.7514	0.1349
432.9552	0.1352
433.1589	0.1206
433.3627	0.1201
433.5664	0.1222
433.7701	0.1139
433.9737	0.1229
434.1774	0.1153
434.3811	0.1352
434.5847	0.1376
434.7883	0.132
434.9919	0.1106
435.1955	0.1092
435.3991	0.116
435.6027	0.125
435.8062	0.1238
436.0098	0.1026
436.2133	0.1068
436.4168	0.1025
436.6203	0.0912
436.8238	0.1081
437.0272	0.1082
437.2307	0.0974
437.4341	0.1024
437.6375	0.1099
437.841	0.0871
438.0443	0.1071
438.2477	0.0962
438.4511	0.0977
438.6545	0.0954
438.8578	0.1029
439.0611	0.1007
439.2644	0.0889
439.4677	0.0836
439.671	0.081
439.8743	0.0978
440.0775	0.0763
440.2808	0.0917
440.484	0.0722
440.6872	0.0778
440.8904	0.0713
441.0936	0.0812
441.2967	0.0802
441.4999	0.0797
441.703	0.0662
441.9062	0.0779
442.1093	0.0684
442.3124	0.0589
442.5155	0.0597
442.7185	0.0566
442.9216	0.0522
443.1246	0.0545
443.3276	0.0693
443.5307	0.0594
443.7337	0.0705
443.9366	0.0677
444.1396	0.0547
444.3426	0.054
444.5455	0.0481
444.7484	0.0622
444.9513	0.054
445.1542	0.0701
445.3571	0.0474
445.56	0.0507
445.7628	0.0411
445.9657	0.0481
446.1685	0.054
446.3713	0.0524
446.5741	0.046
446.7769	0.0415
446.9797	0.0563
447.1824	0.0509
447.3852	0.0375
447.5879	0.0384
447.7906	0.0404
447.9933	0.0486
448.196	0.0371
448.3986	0.02
448.6013	0.0301
448.8039	0.0276
449.0066	0.0339
449.2092	0.0418
449.4118	0.0355
449.6143	0.0373
449.8169	0.0347
450.0195	0.0104
450.222	0.0289
450.4245	0.0346
450.627	0.0366
450.8295	0.0297
451.032	0.0261
451.2345	0.0241
451.4369	0.0252
451.6394	0.0172
451.8418	0.0125
452.0442	0.0205
452.2466	0.0249
452.449	0.0188
452.6513	0.034
452.8537	0.0099
453.056	0.0113
453.2583	0.0282
453.4607	0.0253
453.663	0.0267
453.8652	0.0259
454.0675	0.0102
454.2697	0.0185
454.472	0.0029
454.6742	0.0233
454.8764	0.0105
455.0786	0.0242
455.2808	0.0217
455.4829	0.0255
455.6851	0.0153
455.8872	0.0318
456.0893	0.0355
456.2915	-0.0006
456.4935	0.0095
456.6956	0.0165
456.8977	0.0057
457.0997	0.0037
457.3018	0.0046
457.5038	0.0155
457.7058	0.0119
457.9078	0.0031
458.1098	0.0048
458.3117	0.0128
458.5137	0.0188
458.7156	0.0068
458.9175	0.003
459.1194	0.0009
459.3213	0.0073
459.5232	-0.0012
459.725	-0.0113
459.9269	0.0232
460.1287	0.005
460.3305	0.0013
460.5323	0.0054
460.7341	0.0092
460.9359	0.0012
461.1376	0.0042
461.3394	-0.0047
461.5411	0.0202
461.7428	0.0022
461.9445	0.0055
462.1462	0.0082
462.3479	0.0011
462.5495	-0.0001
462.7512	0.0106
462.9528	-0.0074
463.1544	-0.0086
463.356	0.003
463.5576	0.0041
463.7592	0.0019
463.9607	0.0018
464.1623	0.0137
464.3638	0.0166
464.5653	-0.0103
464.7668	0.0052
464.9683	0.0104
465.1697	0.0103
465.3712	-0.0165
465.5726	-0.0107
465.7741	-0.004
465.9755	-0.0105
466.1769	-0.0025
466.3782	-0.0021
466.5796	-0.0062
466.7809	-0.0013
466.9823	-0.0181
467.1836	-0.0119
467.3849	-0.0094
467.5862	0.0114
467.7875	-0.0054
467.9887	0.0142
468.19	-0.0071
468.3912	0.0064
468.5924	-0.0095
468.7936	-0.0043
468.9948	-0.0012
469.196	0.0063
469.3972	-0.0072
469.5983	0.0031
469.7994	-0.0213
470.0006	-0.0092
470.2017	-0.0122
470.4027	-0.015
470.6038	-0.0014
470.8049	-0.0148
471.0059	-0.0061
471.2069	-0.0172
471.408	0.0035
471.6089	-0.0032
471.8099	0.0054
472.0109	0.0001
472.2119	-0.0168
472.4128	-0.0179
472.6137	-0.0124
472.8146	-0.0059
473.0155	-0.0025
473.2164	-0.0001
473.4173	0.0151
473.6181	0.002
473.819	0.0065
474.0198	-0.0109
474.2206	-0.0025
474.4214	-0.0105
474.6222	-0.0099
474.8229	-0.0085
475.0237	-0.0226
475.2244	-0.0205
475.4251	-0.0023
475.6258	-0.0103
475.8265	-0.0055
476.0272	0.0041
476.2278	0.0084
476.4285	-0.0008
476.6291	-0.0134
476.8297	-0.0008
477.0303	-0.0101
477.2309	-0.0026
477.4315	-0.0082
477.632	-0.0093
477.8326	-0.0033
478.0331	0.0076
478.2336	0.0029
478.4341	-0.0138
478.6346	-0.0106
478.8351	0.0096
479.0355	0.0048
479.236	-0.0127
479.4364	-0.0018
479.6368	-0.0006
479.8372	-0.0133
480.0376	-0.0049
480.2379	-0.0309
480.4383	-0.0083
480.6386	-0.0023
480.8389	-0.0101
481.0392	-0.0115
481.2395	-0.007
481.4398	0.0066
481.6401	-0.0037
481.8403	-0.0105
482.0405	-0.0103
482.2408	-0.002
482.441	0.0055
482.6411	-0.0039
482.8413	-0.008
483.0415	-0.0177
483.2416	-0.0129
483.4417	0.0035
483.6419	-0.0134
483.8419	-0.0034
484.042	-0.0004
484.2421	-0.0042
484.4422	-0.0073
484.6422	-0.0132
484.8422	-0.0028
485.0422	-0.0199
485.2422	-0.0099
485.4422	-0.0108
485.6422	-0.0088
485.8421	-0.0027
486.042	-0.002
486.242	-0.017
486.4419	-0.0057
486.6417	-0.0127
486.8416	-0.01
487.0415	-0.0107
487.2413	-0.0081
487.4411	-0.0164
487.641	-0.0171
487.8408	-0.0014
488.0405	-0.009
488.2403	-0.0052
488.4401	-0.0063
488.6398	-0.0079
488.8395	-0.0138
489.0392	-0.0042
489.2389	-0.0132
489.4386	-0.0174
489.6383	-0.0188
489.8379	-0.0085
490.0376	-0.0101
490.2372	-0.0227
490.4368	-0.0206
490.6364	-0.011
490.836	-0.0134
491.0355	-0.0097
491.2351	-0.0191
491.4346	-0.0149
491.6341	-0.027
491.8336	-0.0115
492.0331	-0.0253
492.2326	-0.0136
492.432	-0.0035
492.6315	-0.0086
492.8309	-0.0148
493.0303	-0.0199
493.2297	-0.0119
493.4291	-0.0171
493.6284	-0.002
493.8278	-0.0039
494.0271	-0.002
494.2264	-0.0066
494.4257	-0.0158
494.625	-0.0117
494.8243	-0.0247
495.0236	-0.0106
495.2228	-0.018
495.422	-0.0082
495.6213	-0.0135
495.8205	-0.0145
496.0196	-0.016
496.2188	-0.0068
496.418	-0.0112
496.6171	-0.0172
496.8162	-0.0049
497.0153	0.0017
497.2144	-0.0096
497.4135	-0.0024
497.6126	-0.0205
497.8116	-0.0102
498.0107	-0.0028
498.2097	-0.0132
498.4087	-0.0135
498.6077	-0.008
498.8067	-0.006
499.0056	-0.0069
499.2046	-0.018
499.4035	-0.0261
499.6024	-0.0113
499.8013	-0.0011
500.0002	-0.0183
500.199	-0.0105
500.3979	-0.0084
500.5967	-0.0233
500.7956	-0.0092
500.9944	-0.0134
501.1932	-0.0095
501.3919	-0.0127
501.5907	-0.0121
501.7895	-0.0155
501.9882	-0.0123
502.1869	-0.0186
502.3856	-0.0093
502.5843	-0.0104
502.783	-0.0039
502.9816	-0.0146
503.1803	-0.0138
503.3789	-0.0118
503.5775	0.0039
503.7761	-0.0157
503.9747	-0.0082
504.1732	-0.0099
504.3718	-0.0124
504.5703	-0.0047
504.7689	-0.0218
504.9674	-0.012
505.1658	-0.0226
505.3643	-0.002
505.5628	-0.0144
505.7612	-0.02
505.9597	0.0023
506.1581	-0.0057
506.3565	0.0038
506.5549	0.0005
506.7532	-0.0227
506.9516	-0.0051
507.1499	-0.0069
507.3482	-0.013
507.5465	-0.0098
507.7448	-0.01
507.9431	-0.0134
508.1414	0.0005
508.3396	-0.0132
508.5379	-0.0096
508.7361	-0.0116
508.9343	-0.0069
509.1325	-0.0068
509.3306	-0.0185
509.5288	-0.0139
509.7269	-0.0073
509.9251	-0.0087
510.1232	-0.0062
510.3213	-0.0073
510.5193	-0.0045
510.7174	-0.0229
510.9154	-0.0109
511.1135	-0.0196
511.3115	-0.015
511.5095	-0.008
511.7075	-0.0126
511.9055	-0.0021
512.1034	-0.017
512.3014	-0.0127
512.4993	-0.0118
512.6972	-0.0104
512.8951	-0.0191
513.093	-0.0021
513.2908	0.0053
513.4887	-0.0071
513.6865	-0.0045
513.8844	-0.0091
514.0822	-0.0068
514.2799	-0.012
514.4777	-0.0149
514.6755	-0.0163
514.8732	-0.0129
515.0709	-0.0177
515.2687	-0.0145
515.4664	-0.0106
515.664	-0.0079
515.8617	-0.0108
516.0594	-0.0202
516.257	-0.0073
516.4546	-0.0189
516.6522	-0.0077
516.8498	-0.0109
517.0474	-0.0139
517.2449	-0.0048
517.4425	-0.0175
517.64	-0.0105
517.8375	0.0044
518.035	-0.0037
518.2325	-0.0119
518.43	-0.0072
518.6274	-0.0098
518.8249	-0.0212
519.0223	0.002
519.2197	-0.0209
519.4171	-0.016
519.6145	-0.0219
519.8118	-0.0119
520.0092	-0.0122
520.2065	-0.0215
520.4038	-0.0182
520.6011	-0.0058
520.7984	-0.0136
520.9956	-0.0162
521.1929	-0.0124
521.3901	-0.0157
521.5874	-0.0109
521.7846	-0.0099
521.9818	-0.0165
522.1789	-0.0183
522.3761	-0.013
522.5732	-0.0113
522.7704	-0.018
522.9675	-0.0125
523.1646	-0.0133
523.3617	-0.0081
523.5587	-0.0066
523.7558	-0.0127
523.9528	0.0066
524.1498	-0.0091
524.3468	-0.0144
524.5438	-0.0128
524.7408	-0.0107
524.9378	0.006
525.1347	-0.0048
525.3316	0.0048
525.5285	-0.0133
525.7254	-0.0043
525.9223	-0.0143
526.1192	-0.0073
526.316	0.0009
526.5129	-0.0023
526.7097	-0.0047
526.9065	-0.0143
527.1033	-0.0083
527.3	-0.0035
527.4968	-0.016
527.6935	0.0008
527.8903	-0.0119
528.087	-0.0152
528.2837	-0.0148
528.4804	-0.0125
528.677	-0.0129
528.8737	-0.0025
529.0703	-0.0031
529.2669	-0.0096
529.4635	-0.0092
529.6601	-0.0061
529.8567	-0.0033
530.0532	-0.0145
530.2498	-0.0032
530.4463	-0.0055
530.6428	-0.0154
530.8393	0.0037
531.0358	-0.0117
531.2322	-0.0029
531.4287	-0.0118
531.6251	-0.0168
531.8215	0.0037
532.0179	-0.0043
532.2143	-0.0113
532.4107	-0.005
532.607	-0.0124
532.8034	0.0037
532.9997	-0.0015
533.196	-0.0111
533.3923	-0.0183
533.5886	-0.0086
533.7848	-0.0101
533.9811	-0.001
534.1773	0.0013
534.3735	-0.0019
534.5697	-0.01
534.7659	-0.0008
534.9621	-0.0129
535.1582	-0.0078
535.3544	-0.0199
535.5505	-0.0087
535.7466	-0.0115
535.9427	-0.0038
536.1387	-0.0102
536.3348	-0.0143
536.5308	-0.0121
536.7269	-0.02
536.9229	-0.0069
537.1189	-0.0097
537.3148	-0.0115
537.5108	-0.0115
537.7068	-0.0078
537.9027	-0.0062
538.0986	-0.009
538.2945	-0.0146
538.4904	-0.0111
538.6863	-0.0021
538.8821	-0.014
539.078	-0.0127
539.2738	0.0007
539.4696	-0.0109
539.6654	0.0066
539.8611	0.001
540.0569	0.0013
540.2526	-0.0087
540.4484	-0.0033
540.6441	0.0025
540.8398	-0.0037
541.0355	-0.0024
541.2311	-0.0127
541.4268	-0.0063
541.6224	-0.0028
541.818	-0.0087
542.0136	-0.0106
542.2092	-0.0024
542.4048	-0.0058
542.6003	-0.0089
542.7959	-0.0136
542.9914	-0.0097
543.1869	-0.0093
543.3824	-0.013
543.5779	-0.0101
543.7734	-0.0001
543.9688	-0.0065
544.1642	-0.0009
544.3596	-0.0024
544.555	-0.0087
544.7504	0.002
544.9458	-0.0056
545.1411	-0.0001
545.3365	-0.0072
545.5318	-0.0099
545.7271	0.0055
545.9224	-0.0031
546.1177	0.0025
546.3129	-0.0049
546.5081	-0.0102
546.7034	-0.0023
546.8986	-0.006
547.0938	-0.016
547.289	-0.0072
547.4841	-0.0042
547.6793	-0.0002
547.8744	-0.0034
548.0695	0.0034
548.2646	-0.0069
548.4597	-0.0014
548.6548	-0.0062
548.8498	-0.0002
549.0448	0.0128
549.2399	-0.0074
549.4349	0.0048
549.6298	-0.0011
549.8248	0.0003
550.0198	0.0009
550.2147	-0.0097
550.4096	-0.0103
550.6045	-0.0001
550.7994	0.0039
550.9943	-0.0026
551.1892	-0.0037
551.384	0.0037
551.5788	-0.0114
551.7737	-0.0001
551.9685	-0.0027
552.1632	-0.0004
552.358	-0.0059
552.5528	-0.0093
552.7475	-0.0039
552.9422	0.0008
553.1369	-0.0061
553.3316	-0.002
553.5263	-0.01
553.7209	0.0072
553.9156	0.0008
554.1102	-0.0054
554.3048	-0.012
554.4994	0.001
554.694	-0.0096
554.8885	-0.0024
555.0831	-0.008
555.2776	-0.0067
555.4721	-0.0039
555.6666	-0.0023
555.8611	0.0086
556.0555	-0.0038
556.25	-0.0082
556.4444	-0.0079
556.6388	-0.0144
556.8332	-0.0078
557.0276	-0.0036
557.222	-0.0095
557.4163	-0.0017
557.6107	-0.0119
557.805	0.0043
557.9993	-0.0029
558.1936	-0.0014
558.3879	-0.0075
558.5821	-0.0021
558.7764	-0.0009
558.9706	-0.0049
559.1648	0.0013
559.359	-0.0033
559.5532	-0.0071
559.7473	-0.0073
559.9415	-0.0006
560.1356	-0.0053
560.3297	-0.0135
560.5238	-0.0065
560.7179	0.0032
560.9119	-0.0031
561.106	-0.0056
561.3	-0.0057
561.494	-0.0047
561.688	-0.0031
561.882	-0.0108
562.076	-0.0097
562.2699	0.005
562.4639	-0.0026
562.6578	-0.0031
562.8517	0.0072
563.0456	0.0043
563.2395	0.0075
563.4333	-0
563.6272	0.008
563.821	-0.0111
564.0148	-0.0019
564.2086	-0.0185
564.4024	-0.0041
564.5961	-0.0031
564.7899	-0.0015
564.9836	-0.0065
565.1773	-0.0003
565.371	0.0028
565.5647	0.0046
565.7584	-0.0077
565.952	0.0037
566.1456	0.0033
566.3393	-0.0064
566.5329	-0.0088
566.7264	-0.0078
566.92	-0.0062
567.1136	0.0013
567.3071	-0.0008
567.5006	0.0005
567.6941	-0.0073
567.8876	-0.0005
568.0811	-0.0056
568.2745	0.0011
568.468	-0.0036
568.6614	-0.0056
568.8548	-0.0022
569.0482	-0.0054
569.2416	-0.0028
569.4349	0.0022
569.6283	0.0018
569.8216	-0.0003
570.0149	-0.0081
570.2082	0.0044
570.4015	0.0026
570.5947	0.002
570.788	0.0017
570.9812	0.004
571.1744	-0.0008
571.3676	-0.0106
571.5608	0.0014
571.754	-0.0006
571.9471	0.0019
572.1402	-0.0008
572.3333	0.0012
572.5264	-0.0035
572.7195	0.0014
572.9126	0.0017
573.1057	-0.0017
573.2987	0.0001
573.4917	0.0001
573.6847	-0.0037
573.8777	0.0111
574.0707	0.004
574.2636	-0.0063
574.4566	-0.0011
574.6495	0.0035
574.8424	-0.0033
575.0353	0.0015
575.2281	0.0056
575.421	0.001
575.6138	0.0058
575.8067	-0.0038
575.9995	0.0023
576.1923	0.0013
576.385	0.0054
576.5778	-0.0011
576.7706	-0.0033
576.9633	-0.002
577.156	-0.0016
577.3487	0.0024
577.5414	0.0037
577.734	-0.0013
577.9267	0.0031
578.1193	-0.0105
578.3119	-0.0084
578.5045	-0.0028
578.6971	-0.0003
578.8897	0.0078
579.0822	0.0002
579.2747	0.0033
579.4673	-0.0036
579.6598	0.0031
579.8522	-0.0048
580.0447	0.0006
580.2372	-0.0028
580.4296	0.0094
580.622	-0.0001
580.8144	-0.0005
581.0068	-0.0048
581.1992	-0.0056
581.3915	-0.0099
581.5839	-0.0064
581.7762	-0.0108
581.9685	0.0001
582.1608	0.0025
582.353	-0.008
582.5453	0.0052
582.7375	-0.0037
582.9298	0.0039
583.122	0.0026
583.3142	0.0016
583.5063	-0.0057
583.6985	-0.0024
583.8906	0.0018
584.0827	-0.0061
584.2749	-0.0012
584.4669	-0.0002
584.659	-0.0029
584.8511	-0.0075
585.0431	0.0022
585.2352	0.0073
585.4272	0.0031
585.6192	0.0031
585.8111	0.0002
586.0031	-0.0028
586.195	-0.0025
586.387	0.0078
586.5789	0.003
586.7708	0.0051
586.9627	-0.001
587.1545	-0.0061
587.3464	0.0008
587.5382	0.0049
587.73	0.0039
587.9218	0.008
588.1136	-0.0034
588.3053	0.0039
588.4971	-0.0053
588.6888	-0.0064
588.8805	0.0025
589.0722	0.0066
589.2639	-0.002
589.4556	0.0019
589.6472	-0.0026
589.8389	-0.0091
590.0305	-0.0106
590.2221	0.0005
590.4137	-0.0076
590.6052	0.0002
590.7968	0.0008
590.9883	0.0017
591.1798	0.0022
591.3713	0.0007
591.5628	0.0037
591.7543	0.0067
591.9458	0.0011
592.1372	0.004
592.3286	0.0122
592.52	0.0122
592.7114	-0.0026
592.9028	0.0007
593.0941	0.0018
593.2855	0.0028
593.4768	-0.0065
593.6681	-0.0022
593.8594	-0.0029
594.0506	-0.0009
594.2419	0.0103
594.4331	0.0062
594.6244	0.0012
594.8156	-0.0045
595.0067	0.0058
595.1979	0.0029
595.3891	0.002
595.5802	-0.0008
595.7713	-0.0056
595.9624	0.0019
596.1535	0.0056
596.3446	-0.0029
596.5357	0.0022
596.7267	-0.0008
596.9177	-0.0017
597.1087	-0.0093
597.2997	-0.0046
597.4907	0.0063
597.6817	-0.0012
597.8726	0.0017
598.0635	-0.0037
598.2544	0.0038
598.4453	0.0007
598.6362	0.0018
598.827	-0.0063
599.0179	-0.0023
599.2087	-0.0047
599.3995	0.002
599.5903	-0.0032
599.7811	0.002
599.9718	-0
600.1626	-0.0018
600.3533	-0.0152
600.544	0.0047
600.7347	-0.0059
600.9254	0.0012
601.116	-0.0094
601.3067	0.0002
601.4973	-0.0015
601.6879	0.0016
601.8785	-0.0024
602.0691	-0.0004
602.2596	0.0005
602.4502	0.0013
602.6407	-0.0012
602.8312	0.0032
603.0217	-0.0124
603.2122	0.0008
603.4027	0.0008
603.5931	-0.0013
603.7835	-0.0045
603.9739	0.0015
604.1643	-0.0016
604.3547	-0.0044
604.5451	-0.0018
604.7354	0.0056
604.9257	0.0021
605.116	-0.0068
605.3063	0.0033
605.4966	0.0103
605.6869	0.0018
605.8771	0.0046
606.0673	0.0021
606.2575	0.0072
606.4477	0.0056
606.6379	0.0059
606.8281	0.006
607.0182	0.0029
607.2083	0.0077
607.3985	0.0003
607.5885	-0.0004
607.7786	0.0037
607.9687	0.0019
608.1587	0.0055
608.3488	-0.0029
608.5388	-0.0007
608.7288	0.0026
608.9187	0.0007
609.1087	-0.0038
609.2986	-0.0075
609.4886	-0.0049
609.6785	-0.0014
609.8684	0.0075
610.0582	0.0029
610.2481	-0.0039
610.4379	0.0009
610.6278	0.0026
610.8176	0.0028
611.0074	-0.0038
611.1971	0.0021
611.3869	-0.0015
611.5766	-0.0085
611.7664	-0.0032
611.9561	0.0017
612.1458	-0.0011
612.3354	-0.0025
612.5251	-0.0027
612.7147	0.0044
612.9044	0.0074
613.094	-0.0042
613.2836	0.0047
613.4731	-0.0031
613.6627	-0.0095
613.8522	0.0031
614.0417	0.0001
614.2313	-0.0073
614.4207	-0.0087
614.6102	0.0002
614.7997	-0.0056
614.9891	-0.0045
615.1785	0.0055
615.3679	-0.0067
615.5573	0.0082
615.7467	0.003
615.9361	-0.0024
616.1254	0.0031
616.3147	0.0044
616.504	0.0053
616.6933	0.0024
616.8826	0.0085
617.0718	0.0076
617.2611	0.0062
617.4503	-0.0004
617.6395	0.002
617.8287	0.0003
618.0179	0.0054
618.207	0.01
618.3961	0.0069
618.5853	0.0029
618.7744	0.0103
618.9634	0.0075
619.1525	-0.0037
619.3416	0.006
619.5306	0.0044
619.7196	0.0043
619.9086	0.0008
620.0976	0.002
620.2866	0.0025
620.4755	0.0033
620.6645	0.0042
620.8534	0.0139
621.0423	0.0073
621.2312	0.0078
621.42	0.0044
621.6089	0.0008
621.7977	0.0111
621.9865	-0.004
622.1753	0.0001
622.3641	-0.0063
622.5529	0.0086
622.7416	0.0086
622.9303	0.0012
623.1191	0.0071
623.3078	-0.0004
623.4964	0.0018
623.6851	-0.0028
623.8737	0.0036
624.0624	0.0037
624.251	0.0021
624.4396	0.0014
624.6282	-0.0075
624.8167	0.0055
625.0053	0.0058
625.1938	0.0093
625.3823	0.006
625.5708	0.0017
625.7593	-0.0024
625.9477	-0.0007
626.1362	0.0013
626.3246	0.0019
626.513	-0.0052
626.7014	0.0113
626.8898	-0.0031
627.0781	0.0038
627.2665	-0.0044
627.4548	0.0027
627.6431	0.0044
627.8314	0.0044
628.0197	0.009
628.2079	0.0059
628.3962	0.0035
628.5844	0.0121
628.7726	0.0065
628.9608	0.0105
629.1489	0.007
629.3371	0.0105
629.5252	-0.0023
629.7134	0.008
629.9015	0.0063
630.0895	0.0021
630.2776	0.0086
630.4657	0.0027
630.6537	0.001
630.8417	0.0036
631.0297	-0.0019
631.2177	0.004
631.4057	-0.0065
631.5936	0.0021
631.7815	0.007
631.9695	0.0027
632.1574	0.007
632.3452	0.0058
632.5331	0.0013
632.7209	0.0051
632.9088	0.0098
633.0966	0.0087
633.2844	0.0014
633.4722	0.0059
633.6599	0.0094
633.8477	-0.0003
634.0354	0.001
634.2231	-0.0072
634.4108	-0.0001
634.5985	0.0032
634.7861	-0.0021
634.9738	-0.0003
635.1614	-0.001
635.349	0.0052
635.5366	0.0009
635.7242	0.0044
635.9117	0.0005
636.0993	0.0046
636.2868	0.0076
636.4743	0.0021
636.6618	0.0119
636.8492	-0.0001
637.0367	0.0002
637.2241	0.0041
637.4115	-0.0033
637.5989	-0.0025
637.7863	-0.0066
637.9737	-0.0031
638.161	0.0022
638.3484	0.0001
638.5357	0.0025
638.723	-0.0032
638.9103	0.0057
639.0975	-0.001
639.2848	0.0035
639.472	-0.0045
639.6592	0.007
639.8464	0.0034
640.0336	0.011
640.2208	0.0023
640.4079	0.0049
640.595	-0.0003
640.7821	0.0024
640.9692	-0.0007
641.1563	0.004
641.3434	-0
641.5304	-0.0025
641.7174	-0.0035
641.9044	0.0031
642.0914	-0
642.2784	0
642.4653	0.004
642.6523	0.0015
642.8392	-0.0052
643.0261	0.0014
643.213	-0.0043
643.3999	-0
643.5867	-0.0033
643.7735	-0.0087
643.9604	-0.0074
644.1472	-0.0001
644.3339	-0.0018
644.5207	0.0026
644.7075	-0.0031
644.8942	-0.0053
645.0809	0.0044
645.2676	0.0044
645.4543	0.0023
645.6409	0.0047
645.8276	-0.001
646.0142	0.0008
646.2008	-0.0061
646.3874	-0.0047
646.574	-0.0024
646.7605	-0.0033
646.9471	-0.0068
647.1336	0.0003
647.3201	0.0085
647.5066	-0.0035
647.6931	0.0072
647.8795	-0.0001
648.0659	0.0046
648.2524	0.0095
648.4388	-0.005
648.6252	0.0004
648.8115	0.0012
648.9979	0.0008
649.1842	-0.0034
649.3705	0.008
649.5568	0.0013
649.7431	0.0057
649.9294	-0.0057
650.1156	0.0063
650.3018	-0.0054
650.488	0.0038
650.6742	0.0049
650.8604	-0.0007
651.0466	-0.0069
651.2327	0.0007
651.4188	0.0053
651.6049	-0.0016
651.791	-0.0015
651.9771	0.0006
652.1632	0.0057
652.3492	0.0054
652.5352	-0.0025
652.7212	-0.0039
652.9072	0.0161
653.0932	-0.0054
653.2791	-0.0047
653.465	0.0011
653.651	-0.0039
653.8369	-0.0047
654.0227	-0.005
654.2086	-0.0036
654.3944	0.0067
654.5803	-0.0074
654.7661	-0.005
654.9519	-0.0001
655.1377	-0.0052
655.3234	-0.0022
655.5092	-0.004
655.6949	-0.0056
655.8806	-0.0077
656.0663	-0.0019
656.2519	-0.006
656.4376	-0.0033
656.6232	0.0057
656.8088	-0.0052
656.9945	-0.0025
657.18	0.0001
657.3656	0.0007
657.5511	-0.0031
657.7367	-0.0091
657.9222	0.0012
658.1077	0.0013
658.2932	0.0054
658.4786	-0.0044
658.6641	-0.0029
658.8495	0.0073
659.0349	-0.0003
659.2203	-0.0012
659.4057	0.007
659.591	0.0007
659.7764	-0.0015
659.9617	-0.0067
660.147	-0.0019
660.3323	0.0009
660.5176	0.0031
660.7028	0.001
660.888	-0.0008
661.0733	-0.0018
661.2585	-0.0052
661.4436	-0.0051
661.6288	-0.0063
661.8139	0.0027
661.9991	-0.0008
662.1842	-0.0101
662.3693	-0.0094
662.5544	-0.0013
662.7394	-0.0002
662.9245	-0.0082
663.1095	-0.0053
663.2945	-0.0033
663.4795	-0.0023
663.6644	-0.0018
663.8494	-0.0021
664.0343	-0.0044
664.2193	-0.0042
664.4042	0.0009
664.589	-0.001
664.7739	-0.0034
664.9587	-0.0088
665.1436	0.0056
665.3284	0.0033
665.5132	0.0018
665.698	0.0042
665.8827	0.0049
666.0675	0.0005
666.2522	0.0054
666.4369	0.0059
666.6216	0.0069
666.8063	0.0069
666.9909	0.0001
667.1756	-0.0016
667.3602	-0.0016
667.5448	-0.0017
667.7294	0.0042
667.9139	0.0039
668.0985	0.0071
668.283	-0.0074
668.4675	0.0073
668.652	0.0018
668.8365	-0.0052
669.0209	0.008
669.2054	0.0112
669.3898	-0.002
669.5742	0.0008
669.7586	0.0161
669.943	0.0064
670.1273	0.0028
670.3117	0.0042
670.496	0.0014
670.6803	0.0158
670.8646	0.0054
671.0488	-0.0017
671.2331	0.0062
671.4173	0.0033
671.6015	0.0047
671.7857	0.009
671.9699	0.0057
672.1541	0.0183
672.3382	-0.0021
672.5223	0.013
672.7064	0.0103
672.8905	0.0056
673.0746	0.0063
673.2587	0.003
673.4427	-0.0025
673.6267	0.004
673.8107	0.0077
673.9947	0.004
674.1787	0.0022
674.3626	-0.0006
674.5465	0.0102
674.7304	0.0055
674.9143	0.0046
675.0982	0.0074
675.2821	-0.0045
675.4659	0.0036
675.6497	0.001
675.8335	-0.0025
676.0173	-0.0024
676.2011	-0.0055
676.3849	0.0029
676.5686	-0.0018
676.7523	0.0075
676.936	0.0017
677.1197	-0.0038
677.3034	-0.0022
677.487	0.0058
677.6706	0.0087
677.8542	0.0094
678.0378	-0.0038
678.2214	0.0027
678.405	-0.0006
678.5885	-0.0075
678.772	0.0077
678.9555	-0.0015
679.139	0.0024
679.3225	0.0038
679.5059	-0.0015
679.6894	0.0068
679.8728	0.0001
680.0562	-0.0043
680.2395	-0.009
680.4229	-0.0065
680.6062	0.003
680.7896	-0.0028
680.9729	-0.0037
681.1562	0.0038
681.3394	-0.0003
681.5227	-0.0084
681.7059	-0.0092
681.8891	0.0029
682.0723	0.0049
682.2555	0.0022
682.4387	-0.0055
682.6218	-0.0068
682.805	0.0037
682.9881	0.0062
683.1712	-0.005
683.3542	-0.0003
683.5373	-0.0014
683.7203	-0.0097
683.9034	-0.0037
684.0864	-0.007
684.2694	0.0009
684.4523	-0.0002
684.6353	0.0018
684.8182	0.003
685.0011	-0.0129
685.184	0.0016
685.3669	0.0005
685.5498	0.0039
685.7326	0.0053
685.9154	0.0059
686.0982	0.009
686.281	0.0087
686.4638	0.0057
686.6465	0.003
686.8293	0.0021
687.012	0.0057
687.1947	-0.0022
687.3774	0.0025
687.56	-0.0059
687.7427	0.0033
687.9253	-0.0043
688.1079	-0.0026
688.2905	0.0041
688.4731	-0.0006
688.6556	-0.0007
688.8382	-0.0024
689.0207	-0.0016
689.2032	-0.0028
689.3857	-0.0058
689.5681	-0.0009
689.7506	-0.0068
689.933	-0.0063
690.1154	0.0007
690.2978	0.0046
690.4802	0.0087
690.6626	-0.0078
690.8449	-0.0049
691.0272	0.0076
691.2095	-0.0067
691.3918	-0.001
691.5741	0.0035
691.7563	-0.002
691.9386	0.0007
692.1208	-0.0036
692.303	-0.005
692.4852	-0.0067
692.6673	-0.0053
692.8495	0.0022
693.0316	0.0088
693.2137	0.0007
693.3958	0.0071
693.5778	0.0018
693.7599	0.0059
693.9419	0.0062
694.1239	0.0048
694.3059	-0.0027
694.4879	0.0123
694.6699	0.007
694.8518	0.0062
695.0337	-0.0007
695.2157	0.0085
695.3975	0.008
695.5794	0.0119
695.7613	0.0011
695.9431	0.001
696.1249	-0.0015
696.3067	0.0043
696.4885	-0.0008
696.6703	0.0008
696.852	-0.0016
697.0337	0.0017
697.2154	-0.0071
697.3971	-0.0116
697.5788	0.0037
697.7605	-0.0018
697.9421	0.0085
698.1237	-0.0029
698.3053	-0.0067
698.4869	-0.0073
698.6685	-0.0027
698.85	-0.0003
699.0315	0.0054
699.213	0.0027
699.3945	0.0044
699.576	0.0038
699.7575	0.0098
699.9389	0.0092
700.1203	-0.001
700.3017	-0.004
700.4831	-0.004
700.6645	-0.0027
700.8458	0.0085
701.0271	-0.0046
701.2084	0.0063
701.3897	0.0025
701.571	0.009
701.7523	-0.004
701.9335	-0.0002
702.1147	-0.0006
702.2959	-0.0049
702.4771	0.0051
702.6583	-0.0037
702.8394	-0.0068
703.0205	-0.0021
703.2016	-0.0103
703.3827	0.0001
703.5638	0.0139
703.7449	-0.0003
703.9259	0.0103
704.1069	-0.0066
704.2879	0.0089
704.4689	0.0062
704.6499	0.0034
704.8308	-0.0037
705.0117	0.0027
705.1927	0.009
705.3735	-0.0031
705.5544	0.0017
705.7353	0.0043
705.9161	-0.0019
706.0969	-0.0049
706.2777	0.0002
706.4585	0.0007
706.6393	0.0023
706.82	-0.0082
707.0007	-0.0004
707.1815	-0.0017
707.3621	0.0089
707.5428	-0.0014
707.7235	0.0119
707.9041	0.0084
708.0847	-0.0067
708.2653	-0.0007
708.4459	-0.0112
708.6265	0.0012
708.807	0.0048
708.9875	-0.0029
709.168	0.0008
709.3485	0.0017
709.529	0.001
709.7095	-0.0057
709.8899	-0.0033
710.0703	-0.0102
710.2507	-0.0021
710.4311	0.0028
710.6115	-0.0047
710.7918	-0.0077
710.9721	-0.0051
711.1524	-0.0071
711.3327	0.0003
711.513	0.002
711.6932	0.0061
711.8735	0.0027
712.0537	-0.001
712.2339	-0.0071
712.4141	-0.0078
712.5942	-0.0093
712.7744	-0.0074
712.9545	-0.015
713.1346	-0.0095
713.3147	0.0022
713.4947	-0.0148
713.6748	-0.0039
713.8548	-0.0044
714.0348	-0.0032
714.2148	-0.0117
714.3948	0.0087
714.5748	-0.0074
714.7547	-0.0006
714.9346	0.0014
715.1145	-0.0061
715.2944	-0.0044
715.4743	-0.0044
715.6541	-0.0056
715.834	0.0002
716.0138	0.0015
716.1936	-0.0102
716.3733	0.0003
716.5531	-0.0032
716.7328	-0.0115
716.9126	-0.0036
717.0923	0.0006
717.2719	0.0021
717.4516	0.0051
717.6312	0.0037
717.8109	-0.0019
717.9905	0.0057
718.1701	-0.0047
718.3496	-0.0078
718.5292	0.0031
718.7087	-0.0028
718.8882	0.0019
719.0677	0.0086
719.2472	-0.0019
719.4267	-0.0013
719.6061	-0.0012
719.7856	0.0012
719.965	0.0055
720.1443	-0.0089
720.3237	0.0092
720.5031	0.0006
720.6824	0.0129
720.8617	-0.0008
721.041	0.0133
721.2203	0.016
721.3995	0.0055
721.5788	0.0068
721.758	0.0117
721.9372	0.0029
722.1164	0.0002
722.2956	0.0126
722.4747	0.0024
722.6538	0.0011
722.8329	0.0095
723.012	0.0059
723.1911	0.0057
723.3702	-0.0015
723.5492	0.0044
723.7282	0.001
723.9072	-0.0017
724.0862	0.0023
724.2652	0.0024
724.4441	-0.0025
724.623	0.0029
724.8019	0.0005
724.9808	0.0011
725.1597	-0.0078
725.3385	0.0057
725.5174	0.0023
725.6962	0.0025
725.875	0.0018
726.0538	0.0066
726.2325	-0.0028
726.4112	0.0048
726.59	-0.0116
726.7687	-0.0054
726.9474	0.0023
727.126	0.0014
727.3047	-0.0082
727.4833	-0.0069
727.6619	-0.0124
727.8405	-0.0036
728.0191	-0.0092
728.1976	0.0039
728.3762	-0.0062
728.5547	0.0028
728.7332	-0.012
728.9116	0.0059
729.0901	-0.0036
729.2686	-0.004
729.447	-0.0042
729.6254	-0.0013
729.8038	-0.0014
729.9821	-0.004
730.1605	0.0027
730.3388	0.0056
730.5171	0.0006
730.6954	0.0015
730.8737	0.0084
731.0519	0.0117
731.2302	0.0073
731.4084	0.0077
731.5866	-0.0019
731.7648	0.0046
731.9429	0.0051
732.1211	-0.0093
732.2992	-0.0066
732.4773	0.0018
732.6554	0.0044
732.8335	0.0015
733.0115	0.0063
733.1896	0.0086
733.3676	-0.0006
733.5456	0.0049
733.7235	0.0067
733.9015	0.0017
734.0794	0.0073
734.2574	-0.0025
734.4353	0.0073
734.6131	0.0079
734.791	0.0038
734.9689	0.0001
735.1467	0.0007
735.3245	-0.0027
735.5023	-0.0123
735.68	-0.0087
735.8578	0.0022
736.0355	-0.014
736.2132	-0.0119
736.3909	-0.0062
736.5686	-0.012
736.7463	0.004
736.9239	-0.0078
737.1015	-0.0045
737.2791	0.0039
737.4567	-0.0039
737.6343	-0.0029
737.8118	0.0033
737.9894	-0.0007
738.1669	-0.0102
738.3444	-0.0046
738.5218	-0.0031
738.6993	0.0017
738.8767	-0.0016
739.0541	0.0169
739.2315	-0.0102
739.4089	0.0059
739.5863	-0.0014
739.7636	-0.0055
739.9409	-0.0071
740.1182	0.0079
740.2955	0.0009
740.4728	0.0013
740.65	-0.002
740.8272	-0.0099
741.0044	-0.011
741.1816	0.0013
741.3588	-0.0034
741.5359	-0.0049
741.7131	-0.0165
741.8902	-0.0053
742.0673	-0.0112
742.2444	-0.0012
742.4214	-0.0122
742.5985	-0.0042
742.7755	-0.0014
742.9525	-0.0145
743.1295	-0.0052
743.3064	-0.007
743.4834	0.0036
743.6603	-0.0039
743.8372	-0.0128
744.0141	0.0059
744.191	0.0013
744.3678	-0.0105
744.5446	0.0013
744.7215	0.0046
744.8982	-0.0062
745.075	-0.0137
745.2518	-0.002
745.4285	0.0102
745.6052	-0.004
745.7819	-0.0003
745.9586	-0.0034
746.1353	0.0097
746.3119	-0.0064
746.4885	0.0022
746.6651	0.0002
746.8417	0.0049
747.0183	0.0002
747.1948	0.0014
747.3714	-0.0027
747.5479	0.0084
747.7244	-0.0006
747.9008	0.01
748.0773	0.0018
748.2537	0.0015
748.4301	-0.0056
748.6065	0.0026
748.7829	0.0024
748.9593	-0.0016
749.1356	0.0092
749.3119	0.012
749.4882	-0.0042
749.6645	0.0105
749.8408	-0.0015
750.017	0.003
750.1933	0.0051
750.3695	0.0015
750.5457	0.0082
750.7218	0.0081
750.898	0.011
751.0741	-0.0002
751.2502	0.0066
751.4263	-0.0008
751.6024	0.0069
751.7784	-0.0078
751.9545	-0.0078
752.1305	-0.0002
752.3065	-0.0011
752.4825	0.0049
752.6584	-0.0061
752.8344	0.0012
753.0103	-0.0035
753.1862	-0.0059
753.3621	-0.001
753.5379	-0.001
753.7138	-0.0037
753.8896	-0.0096
754.0654	0.008
754.2412	-0.0004
754.417	0.0051
754.5927	-0.0007
754.7685	-0.0064
754.9442	0.0004
755.1199	0.0096
755.2956	-0.002
755.4712	0.0047
755.6469	-0.0026
755.8225	0.0033
755.9981	-0.0071
756.1736	0.0061
756.3492	0.0021
756.5248	-0.0029
756.7003	0.0025
756.8758	0.0102
757.0513	-0.0137
757.2267	-0.005
757.4022	0.0031
757.5776	-0.0089
757.753	-0.0015
757.9284	0.0058
758.1038	0.0128
758.2791	0.001
758.4545	-0.0062
758.6298	0.0003
758.8051	0.0058
758.9803	0.0054
759.1556	-0.0003
759.3308	0.0063
759.506	0.0128
759.6812	0.0068
759.8564	0.0143
760.0316	0.0055
760.2067	0.0148
760.3819	0.0043
760.557	0.0077
760.732	0.0044
760.9071	-0.0112
761.0821	-0.006
761.2572	0.0066
761.4322	-0.0064
761.6072	-0.0028
761.7821	-0.0039
761.9571	0.0028
762.132	-0.0144
762.3069	-0.0103
762.4818	-0.0094
762.6567	-0.0034
762.8316	-0.0001
763.0064	-0.0059
763.1812	0.0027
763.356	-0.0033
763.5308	-0.0018
763.7055	0.0007
763.8803	-0.0012
764.055	-0.0082
764.2297	-0.0014
764.4044	-0.005
764.579	-0.0143
764.7537	-0.0062
764.9283	0.0091
765.1029	-0.0103
765.2775	-0.0019
765.4521	-0.0013
765.6266	-0.0076
765.8011	-0.0077
765.9756	0.0051
766.1501	-0.0014
766.3246	0.0051
766.4991	-0.0055
766.6735	-0.0033
766.8479	-0.0125
767.0223	0.0121
767.1967	0.0087
767.371	0.005
767.5454	-0.0003
767.7197	0.0091
767.894	-0.0025
768.0683	-0.002
768.2425	0.0101
768.4168	0.0027
768.591	0.0095
768.7652	0.0072
768.9394	-0.0061
769.1135	0.0077
769.2877	0.0126
769.4618	0.0011
769.6359	-0.0067
769.81	0.0032
769.984	-0.0037
770.1581	-0.012
770.3321	-0.0027
770.5061	-0.0028
770.6801	-0.0038
770.8541	0.0087
771.028	0.0052
771.202	-0.0108
771.3759	0.01
771.5498	-0.0103
771.7236	0.0038
771.8975	0.0018
772.0713	0.0028
772.2451	0.0055
772.4189	0.0167
772.5927	0.0106
772.7665	-0.0001
772.9402	0.0034
773.1139	-0.0009
773.2876	-0.0104
773.4613	0.0125
773.635	0.0002
773.8086	-0.0036
773.9822	0.0063
774.1558	-0.0033
774.3294	-0.0144
774.503	-0.0027
774.6765	0.0063
774.8501	0.0014
775.0236	0.0104
775.1971	0.0069
775.3705	-0.0084
775.544	0.0047
775.7174	-0.0041
775.8908	0.0033
776.0642	-0.0049
776.2376	0.0003
776.4109	-0.007
776.5843	-0.0061
776.7576	0.0048
776.9309	0.005
777.1041	0.0073
777.2774	0.0046
777.4506	0.0026
777.6238	-0.0006
777.797	0.0036
777.9702	-0.0053
778.1434	-0.0097
778.3165	-0.0022
778.4896	-0.0061
778.6627	0.0086
778.8358	0.0085
779.0089	-0.0022
779.1819	0.0006
779.3549	0.0091
779.5279	0.003
779.7009	0.0035
779.8739	-0.0023
780.0468	0.0136
780.2197	0.0014
780.3926	0.0063
780.5655	0.0013
780.7384	-0.0037
780.9112	0.012
781.0841	-0.0049
781.2569	0.0032
781.4297	0.0045
781.6024	0.0091
781.7752	0.0157
781.9479	0.0248
782.1206	0.0059
782.2933	-0.0149
782.466	0.0074
782.6386	0.0063
782.8113	0.006
782.9839	0.0059
783.1565	0.0024
783.329	0.0117
783.5016	0.0128
783.6741	0.0196
783.8466	-0.0083
784.0191	0.0167
784.1916	-0.0017
784.3641	-0.0084
784.5365	0.0163
784.7089	0.0004
784.8813	0.0018
785.0537	-0.016
785.2261	-0.0042
785.3984	-0.0174
785.5707	-0.0013
785.743	-0.0001
785.9153	-0.0009
786.0876	0.0015
786.2598	-0.0106
786.432	-0.0147
786.6042	-0.0098
786.7764	-0.0044
786.9486	-0.0016
787.1207	-0.0014
787.2928	-0.0018
787.4649	0.0016
787.637	0.0063
787.8091	-0.0068
787.9811	-0.0035
788.1532	0.0029
788.3252	0.0125
788.4972	-0.0104
788.6691	0.0089
788.8411	-0.0023
789.013	-0.0089
789.1849	0.0048
789.3568	-0.0083
789.5287	-0.0061
789.7005	-0.0017
789.8723	0
790.0442	0.0238
790.2159	0.0049
790.3877	-0.0015
790.5595	-0.0012
790.7312	0.0075
790.9029	0.0173
791.0746	0.0086
791.2463	0.012
791.4179	0.0147
791.5896	-0.0036
791.7612	-0.0004
791.9328	0.0088
792.1044	-0.0025
792.2759	-0.0203
792.4474	0.0047
792.619	0.0002
792.7905	0.0055
792.9619	0.0031
793.1334	0.0057
793.3048	0.0059
793.4762	0.015
793.6476	0.0089
793.819	0.0185
793.9904	0.014
794.1617	-0.0059
794.333	0.0018
794.5043	-0.0009
794.6756	-0.0025
794.8469	-0.0006
795.0181	0.001
795.1893	-0.0065
795.3605	0.0157
795.5317	-0.0076
795.7029	0.0092
795.874	0.0139
796.0452	0.0168
796.2163	0.006
796.3873	0.0106
796.5584	0.0131
796.7294	0.0006
796.9005	0.0222
797.0715	0.0133
797.2425	0.0082
797.4134	0.0013
797.5844	-0.0032
797.7553	-0.0001
797.9262	0.0048
798.0971	0.0015
798.2679	-0.0114
798.4388	-0.0103
798.6096	0.0066
798.7804	0.009
798.9512	0.0066
799.122	0.0054
799.2927	0.0033
799.4635	0.0019
799.6342	-0.0109
799.8049	0.0024
799.9755	0.0024
800.1462	0.016
800.3168	0.0022
800.4874	-0.0011
800.658	0.0215
800.8286	0.0149
800.9991	0.0184
801.1696	0.0032
801.3402	0.0117
801.5106	0.0068
801.6811	-0.0027
801.8516	0.0181
802.022	0.0088
802.1924	0.0036
802.3628	-0.0001
802.5332	0.0231
802.7035	0.0406
802.8739	-0.0014
803.0442	0.0025
803.2145	0.026
803.3847	-0.0109
803.555	-0.0033
803.7252	0.0038
803.8954	-0.019
804.0656	-0.0061
804.2358	0.0042
804.4059	0.0343
804.5761	0.0215
804.7462	0.0152
804.9163	0.0107
805.0864	0.001
805.2564	0.0168
805.4264	0.0092
805.5965	0.0041
805.7665	0.0349
805.9364	0.016
806.1064	0.047
806.2763	0.0151
806.4462	0.0203
806.6161	-0.007
806.786	0.0023
806.9559	0.016
807.1257	0.0164
807.2955	0.0101
807.4653	0.0121
807.6351	0.0029
807.8048	0.0017
807.9746	0.0271
808.1443	0.0084
808.314	0.0157
808.4837	0.012
808.6533	0.0126
808.8229	0.0077
808.9926	0.0183
809.1622	0.0162
809.3317	0.0195
809.5013	0.0011
809.6708	0.0378
809.8403	0.0136
810.0098	0.0156
810.1793	0.0264
810.3488	0.009
810.5182	0.0027
810.6876	0.0223
810.857	0.0074
811.0264	0.0395
811.1958	0.0211
811.3651	0.0156
811.5344	0.024
811.7037	-0.0041
811.873	-0.0082
812.0422	0.0107
812.2115	0.0127
812.3807	0.0119
812.5499	0.0135
812.7191	0.0107
812.8882	0.0131
813.0574	0.0153
813.2265	0.0119
813.3956	-0.0029
813.5646	0.0358
813.7337	0.0243
813.9027	0.0212
814.0718	0.0406
814.2407	0.0275
814.4097	0.0074
814.5787	0.0098
814.7476	0.0257
814.9165	0.0209
815.0854	0.0001
815.2543	0.0088
815.4232	0.0083
815.592	0.0306
815.7608	0.0323
815.9296	0.0117
816.0984	0.0208
816.2671	0.0097
816.4359	0.0136
816.6046	0.0042
816.7733	0.0056
816.942	-0.0156
817.1106	0.0226
817.2793	0.0302
817.4479	0.011
817.6165	0.0339
817.785	0.0231
817.9536	0.0051
818.1221	0.0283
818.2906	0.0105
818.4591	0.0074
818.6276	-0.0093
818.7961	0.0074
818.9645	0.043
819.1329	0.0301
819.3013	0.0576
819.4697	0.0217
819.638	0.0332
819.8064	0.016
819.9747	0.0057
820.143	0.02
820.3113	0.0005
820.4795	0.0516
820.6477	0.0106
820.816	0.0446
820.9842	0.0208
821.1523	0.0234
821.3205	0.0257
821.4886	-0.0002
821.6567	0.024
821.8248	0.0546
821.9929	0.0459
822.1609	0.0186
822.329	0.0081
822.497	0.0162
822.665	0.0245
822.833	0.0087
823.0009	0.0264
823.1688	0.0329
823.3367	0.0365
823.5046	0.0173
823.6725	0.0341
823.8404	-0.003
824.0082	0.021
824.176	0.0154
824.3438	0.0126
824.5116	-0.0094
824.6793	0.016
824.847	-0.0032
825.0147	0.0019
825.1824	0.0186
825.3501	0.0191
825.5177	-0.0047
825.6854	0.0045
825.853	0.0358
826.0206	0.0197
826.1881	0.0305
826.3557	0.0006
826.5232	0.034
826.6907	0.0011
826.8582	0.0042
827.0257	-0.0135
827.1931	0.0125
827.3605	-0.0132
827.528	-0.0054
827.6953	-0.0092
827.8627	0.0212
828.03	0.04
828.1974	-0.011
828.3647	-0.0065
828.532	-0.0096
828.6992	0.0183
828.8665	0.0064
829.0337	0.0002
829.2009	0.0344
829.3681	0.0089
829.5352	0.0404
829.7024	-0.0364
829.8695	-0.043
830.0366	0.0493
830.2037	0.0058
830.3707	0.0168
830.5378	-0.0057
830.7048	0.0306
830.8718	0.0146
831.0388	-0.0055
831.2057	0.0468
831.3727	0.0264
831.5396	0.0146
831.7065	0.0342
831.8734	0.0315
832.0402	-0.0069
832.2071	0.0008
832.3739	-0.0226
832.5407	-0.0028
832.7075	0.0084
832.8742	0.0184
833.041	-0.007
833.2077	0.0082
833.3744	0.0257
833.541	-0.0099
833.7077	-0.0029
833.8743	0.0156
834.0409	0.0145
834.2075	0.0277
834.3741	0.0388
834.5407	0.0158
834.7072	0.05
834.8737	0.011
835.0402	0.0016
835.2067	0.0232
835.3731	0.0157
835.5395	0.0054
835.706	0.0015
835.8723	0.0246
836.0387	0.0029
836.2051	-0.028
836.3714	0.0092
836.5377	0.0383
836.704	-0.0227
836.8703	0.0331
837.0365	-0.0084
837.2027	0.0056
837.3689	0.0412
837.5351	0.0063
837.7013	-0.0285
837.8674	-0.0252
838.0335	-0.0115
838.1997	-0.003
838.3657	-0.0161
838.5318	-0.0077
838.6978	0.0662
838.8639	0.0161
839.0299	0.002
839.1958	0.037
839.3618	-0.014
839.5277	-0.014
839.6937	0.0078
839.8596	0.0104
840.0254	0.0112
840.1913	0.0473
840.3571	0.0003
840.523	0.0218
840.6888	-0.0163
840.8545	0.017
841.0203	0.0359
841.186	0.0351
841.3517	0.0649
841.5174	0.033
841.6831	0.0051
841.8488	0.0224
842.0144	0.0058
842.18	-0.0015
842.3456	0.0458
842.5112	0.0624
842.6767	-0.0282
842.8422	-0.0195
843.0077	0.0076
843.1732	-0.0042
843.3387	-0.0207
843.5042	-0.0123
843.6696	-0.015
843.835	0.0388
844.0004	0.0585
844.1657	0.0348
844.3311	-0.0009
844.4964	-0.0697
844.6617	-0.0095
844.827	-0.0374
844.9923	-0.0563
845.1575	0.01
845.3227	0.0229
845.4879	-0.0216
845.6531	0.0267
845.8183	-0.0541
845.9834	0.0275
846.1485	0.0092
846.3136	-0.0773
846.4787	-0.1017
846.6438	0.055
846.8088	0.0314
846.9738	-0.0317
847.1388	0.0593
847.3038	0.0553
847.4687	-0.1732
847.6337	0.0527
847.7986	0.0265
847.9635	0.0034
848.1284	0.07
848.2932	0.0309
848.458	0.0398
848.6228	0.0663
848.7876	0.0448
848.9524	-0.013
849.1172	-0.0674
849.2819	0.0384
849.4466	-0.0783
849.6113	-0.0821
849.7759	0.1145
849.9406	-0.0388
850.1052	0.0851
850.2698	-0.0031
850.4344	0.0756
850.599	-0.0324
850.7635	0.0481
850.928	0.0355
851.0925	0.0367
851.257	0.0954
851.4215	0.0907
851.5859	-0.0101
851.7503	-0.0515
851.9147	0.0898
852.0791	-0.0156
852.2434	-0.0726
852.4078	-0.0093
852.5721	0.0087
852.7364	-0.0134
852.9007	-0.2829
853.0649	0.0354
853.2291	-0.107
853.3934	-0.0239
853.5575	-0.0401
853.7217	-0.1086
853.8859	0.0583
854.05	-0.0982
854.2141	0.0141
854.3782	-0.1045
854.5423	-0.0436
854.7063	0.118
854.8703	-0.0207
855.0343	-0.0205
855.1983	-0.1631
855.3623	0.1573
855.5262	0.0177
855.6901	-0.0206
855.854	0.0951
856.0179	0.033
856.1818	0.1409
856.3456	-0.1751
856.5094	0.0071
856.6732	0.1296
856.837	-0.0936
857.0008	-0.0074
857.1645	0.0102
857.3282	-0.1872
857.4919	0.0448
857.6556	-0.1258
857.8192	0.0844
857.9828	0.1565
858.1465	-0.0026
858.31	-0.1439
858.4736	0.1048
858.6372	-0.1052
858.8007	-0.0639
858.9642	0.1535
859.1277	0.8775
859.2911	0.471
859.4546	0.2241
859.618	-0.3697
859.7814	-0.0282
859.9448	0.0102
860.1081	0.1306
860.2715	0.1083
860.4348	0.2137
860.5981	-0.1067
860.7614	0.1272
860.9246	-0.1991
861.0879	-0.3113
861.2511	0.0534
861.4143	-0.007
861.5774	0.2049
861.7406	-0.1995
861.9037	-0.0949
862.0668	-0.0483
862.2299	0.0647
862.393	-0.4601
862.556	-0.1272
862.7191	-0.091
862.8821	-0.0586
863.0451	0.3822
863.208	0.2708
863.371	-0.0246
863.5339	0.107
863.6968	-0.1071
863.8597	0.0397
864.0225	0.1668
864.1854	0.4315
864.3482	1.6375
864.511	0.4301
864.6737	0.0437
864.8365	0.4256
864.9992	0.3407
865.1619	-0
865.3246	0.2534
865.4873	-0.0033
865.65	-0.1165
865.8126	0.1202
865.9752	0.6066
866.1378	-0.0527
866.3004	-0
866.4629	0.0338
866.6254	-0.1036
866.7879	0.0438
866.9504	0.4001
867.1129	-0
867.2753	0.4544
867.4377	0.5451
867.6001	-0.2721
867.7625	0.349
867.9249	-0
868.0872	-0.1046
868.2495	0.2266
868.4118	-0.3415
868.5741	0.0925
868.7363	0.1258
868.8986	-0.2154
869.0608	-0.0928
869.223	0.6654
869.3851	-0
869.5473	-0.2426
869.7094	0.3691
869.8715	-0.1144
870.0336	-0
870.1957	-0.5591
870.3577	-0
870.5197	-0.1619
870.6817	1.0624
870.8437	0.2597
871.0057	-0
871.1676	-0.5931
871.3295	-0
871.4914	-0.5504
871.6533	-0.3356
871.8151	0.2159
871.977	-0
872.1388	0.2203
872.3006	-0.1963
872.4623	-0
872.6241	0.4828
872.7858	-0
872.9475	-0.2022
873.1092	1.0414
873.2709	-0
873.4325	-0.2235
873.5941	-0.1233
873.7557	-0
873.9173	-0.6644
874.0789	-0.4814
874.2404	-0.0386
874.4019	0.119
874.5634	-0.236
874.7249	-0.2231
874.8863	-0
875.0478	0.9087
875.2092	-0
875.3706	0.572
875.5319	-0.538
875.6933	-0
875.8546	-0.0362
876.0159	2.0755
876.1772	-0.1753
876.3385	-0.2133
876.4997	0.6261
876.6609	-0.1844
876.8221	-0.6657
876.9833	-0
877.1445	-0
877.3056	0.1253
877.4667	0.4688
877.6278	-0
877.7889	-0.0305
877.9499	-0
878.111	-0
878.272	-0
878.433	-0
878.5939	0.0241
878.7549	0.2395
878.9158	-0
879.0767	-0
879.2376	-0
879.3984	-0.149
879.5593	-0
879.7201	-0
879.8809	-0.4527
880.0417	-0
880.2024	-0.1244
880.3632	-0
880.5239	-0.0342
880.6846	-0
880.8452	-2.5403
881.0059	-0
881.1665	-0.11
881.3271	1.0764
881.4877	-0.3319
881.6483	-0
881.8088	-0.3805
881.9693	-0
882.1298	-0
882.2903	-0
