Data from MonoPyChalIsomerACN10uM380nmA_Absorbance_13-38-33-949.txt Node
Date: Fri Jul 05 13:38:33 BST 2024
User: LASERRRRR
Spectrometer: FLMT03099
Trigger mode: 0
Integration Time (sec): 1.000000E-1
Scans to average: 1
Electric dark correction enabled: true
Nonlinearity correction enabled: false
Boxcar width: 0
XAxis mode: Wavelengths
Number of Pixels in Spectrum: 3648
>>>>>Begin Spectral Data<<<<<
179.3399	0.0505
179.5586	0.0505
179.7771	0.0505
179.9957	0.1323
180.2143	-0
180.4329	-0.3845
180.6514	0.5247
180.8699	-0
181.0885	-0.0935
181.307	0.0946
181.5255	-0.5408
181.744	0.1357
181.9625	-0
182.181	-0.5673
182.3994	0.0464
182.6179	-0
182.8363	0.1144
183.0547	-0.291
183.2732	-0.0341
183.4916	-0.0333
183.71	0.0207
183.9284	0.2448
184.1467	0.0911
184.3651	-0.0269
184.5835	0.1257
184.8018	-0.0477
185.0201	0.0417
185.2385	0.0669
185.4568	0.1257
185.6751	0.1771
185.8934	0.7071
186.1117	0.0874
186.3299	0.0633
186.5482	-0.0168
186.7664	0.0906
186.9847	-0.0707
187.2029	0.0172
187.4211	0.0959
187.6393	0.1588
187.8575	-0.222
188.0757	0.1943
188.2939	0.031
188.512	0.1539
188.7302	0.1143
188.9483	0.0854
189.1665	0.1358
189.3846	-0.2146
189.6027	0.0966
189.8208	0.1837
190.0389	0.2599
190.257	0.0821
190.475	0.2073
190.6931	0.2526
190.9111	0.4057
191.1292	0.2168
191.3472	0.4451
191.5652	0.3032
191.7832	0.2067
192.0012	0.3234
192.2192	0.4723
192.4371	0.53
192.6551	0.3448
192.873	0.417
193.091	0.3854
193.3089	0.5085
193.5268	0.3933
193.7447	0.5418
193.9626	0.4225
194.1805	0.611
194.3984	0.9651
194.6162	0.5327
194.8341	0.5868
195.0519	0.5538
195.2697	0.8505
195.4875	0.7563
195.7054	0.6001
195.9231	0.5668
196.1409	0.9077
196.3587	0.6627
196.5765	0.5447
196.7942	0.7114
197.012	0.5834
197.2297	0.7933
197.4474	0.8931
197.6651	0.5419
197.8828	0.585
198.1005	0.8676
198.3182	0.6785
198.5358	1.5113
198.7535	0.7869
198.9711	0.708
199.1888	0.7068
199.4064	1.3297
199.624	0.9803
199.8416	0.6257
200.0592	0.661
200.2767	0.8318
200.4943	0.8331
200.7119	1.0118
200.9294	0.7712
201.1469	0.6997
201.3645	0.6848
201.582	0.6746
201.7995	1.0488
202.017	0.6928
202.2344	0.7817
202.4519	0.798
202.6694	0.7878
202.8868	0.7608
203.1042	0.9761
203.3217	0.9454
203.5391	0.6625
203.7565	0.6528
203.9739	0.7161
204.1913	0.7181
204.4086	0.7817
204.626	0.7546
204.8433	0.7549
205.0607	0.6724
205.278	0.8821
205.4953	0.9089
205.7126	0.8434
205.9299	0.9101
206.1472	0.8159
206.3644	0.7974
206.5817	0.8405
206.7989	0.8311
207.0162	0.7925
207.2334	0.8069
207.4506	0.7973
207.6678	0.7251
207.885	0.7694
208.1022	0.8736
208.3194	0.7715
208.5365	0.9142
208.7537	0.7737
208.9708	0.7035
209.1879	0.6994
209.405	0.8227
209.6222	0.958
209.8392	0.7638
210.0563	0.7588
210.2734	0.8197
210.4905	0.7422
210.7075	0.8276
210.9245	0.6857
211.1416	0.9383
211.3586	0.7763
211.5756	0.7087
211.7926	0.7395
212.0096	0.7518
212.2265	0.763
212.4435	0.7201
212.6604	0.7853
212.8774	0.7685
213.0943	0.7854
213.3112	0.7505
213.5281	0.7431
213.745	0.6741
213.9619	0.7176
214.1788	0.6766
214.3956	0.692
214.6125	0.6893
214.8293	0.6594
215.0461	0.6523
215.2629	0.6455
215.4798	0.6918
215.6965	0.5851
215.9133	0.7317
216.1301	0.6488
216.3469	0.6807
216.5636	0.6219
216.7803	0.6053
216.9971	0.6109
217.2138	0.6103
217.4305	0.5618
217.6472	0.5801
217.8639	0.6369
218.0805	0.6581
218.2972	0.6154
218.5138	0.5157
218.7305	0.5364
218.9471	0.5797
219.1637	0.5652
219.3803	0.6019
219.5969	0.5496
219.8135	0.5056
220.0301	0.5363
220.2466	0.5573
220.4632	0.5416
220.6797	0.4828
220.8962	0.5223
221.1127	0.4855
221.3292	0.5689
221.5457	0.5072
221.7622	0.4644
221.9787	0.5196
222.1951	0.5086
222.4116	0.5205
222.628	0.5021
222.8444	0.5329
223.0608	0.4727
223.2772	0.5262
223.4936	0.5182
223.71	0.5086
223.9264	0.5607
224.1427	0.5225
224.3591	0.5326
224.5754	0.5543
224.7917	0.5139
225.008	0.5159
225.2243	0.5056
225.4406	0.5472
225.6569	0.5217
225.8732	0.5232
226.0894	0.5347
226.3057	0.5196
226.5219	0.545
226.7381	0.5034
226.9543	0.5232
227.1705	0.5374
227.3867	0.5615
227.6029	0.5867
227.8191	0.5371
228.0352	0.5423
228.2513	0.548
228.4675	0.5451
228.6836	0.5426
228.8997	0.5454
229.1158	0.5539
229.3319	0.5315
229.548	0.5694
229.764	0.5612
229.9801	0.561
230.1961	0.5623
230.4121	0.5489
230.6282	0.5469
230.8442	0.5463
231.0602	0.5721
231.2761	0.5562
231.4921	0.5721
231.7081	0.5612
231.924	0.5407
232.14	0.5604
232.3559	0.5136
232.5718	0.5557
232.7877	0.5459
233.0036	0.5264
233.2195	0.5804
233.4353	0.5496
233.6512	0.5522
233.867	0.57
234.0829	0.5576
234.2987	0.5498
234.5145	0.537
234.7303	0.5573
234.9461	0.5562
235.1619	0.5375
235.3776	0.5517
235.5934	0.5437
235.8091	0.5197
236.0249	0.5468
236.2406	0.5325
236.4563	0.5194
236.672	0.5683
236.8877	0.5455
237.1034	0.5096
237.319	0.5532
237.5347	0.535
237.7503	0.5253
237.966	0.5325
238.1816	0.5298
238.3972	0.5558
238.6128	0.5124
238.8284	0.5295
239.0439	0.5153
239.2595	0.5221
239.475	0.5258
239.6906	0.5214
239.9061	0.5222
240.1216	0.4936
240.3371	0.5202
240.5526	0.5195
240.7681	0.5382
240.9836	0.5094
241.199	0.4884
241.4145	0.4886
241.6299	0.4822
241.8453	0.4828
242.0607	0.489
242.2761	0.4617
242.4915	0.462
242.7069	0.4719
242.9223	0.4528
243.1376	0.4258
243.353	0.414
243.5683	0.4306
243.7836	0.4512
243.9989	0.4088
244.2142	0.3947
244.4295	0.4079
244.6448	0.3747
244.86	0.3784
245.0753	0.3757
245.2905	0.3673
245.5057	0.3604
245.721	0.3509
245.9362	0.3517
246.1514	0.3582
246.3665	0.3339
246.5817	0.339
246.7969	0.3226
247.012	0.3138
247.2271	0.318
247.4423	0.3151
247.6574	0.2889
247.8725	0.2968
248.0876	0.2788
248.3026	0.2761
248.5177	0.2915
248.7328	0.2722
248.9478	0.2594
249.1628	0.2738
249.3779	0.2698
249.5929	0.2484
249.8079	0.267
250.0228	0.2614
250.2378	0.2432
250.4528	0.2476
250.6677	0.2407
250.8827	0.2465
251.0976	0.2414
251.3125	0.2327
251.5274	0.2331
251.7423	0.2145
251.9572	0.2373
252.172	0.2227
252.3869	0.2189
252.6017	0.206
252.8166	0.2035
253.0314	0.2005
253.2462	0.2008
253.461	0.2169
253.6758	0.1917
253.8906	0.2169
254.1053	0.1993
254.3201	0.186
254.5348	0.2171
254.7496	0.2011
254.9643	0.1906
255.179	0.1958
255.3937	0.1959
255.6083	0.1957
255.823	0.1982
256.0377	0.1892
256.2523	0.193
256.467	0.1812
256.6816	0.1878
256.8962	0.1998
257.1108	0.1842
257.3254	0.2035
257.54	0.1898
257.7545	0.1961
257.9691	0.1941
258.1836	0.1936
258.3981	0.1936
258.6127	0.1917
258.8272	0.1747
259.0417	0.173
259.2561	0.186
259.4706	0.1848
259.6851	0.1873
259.8995	0.1892
260.114	0.1898
260.3284	0.1873
260.5428	0.1795
260.7572	0.186
260.9716	0.1817
261.186	0.194
261.4003	0.1969
261.6147	0.1871
261.829	0.1786
262.0433	0.1779
262.2577	0.1829
262.472	0.1931
262.6863	0.1861
262.9005	0.1787
263.1148	0.1829
263.3291	0.1702
263.5433	0.187
263.7576	0.1815
263.9718	0.1799
264.186	0.1909
264.4002	0.1819
264.6144	0.1753
264.8286	0.1914
265.0427	0.178
265.2569	0.1666
265.471	0.19
265.6851	0.1741
265.8993	0.1724
266.1134	0.18
266.3275	0.1797
266.5415	0.1805
266.7556	0.196
266.9697	0.1891
267.1837	0.1868
267.3978	0.1903
267.6118	0.1995
267.8258	0.1932
268.0398	0.1734
268.2538	0.1787
268.4677	0.1896
268.6817	0.1814
268.8957	0.1929
269.1096	0.1972
269.3235	0.1915
269.5374	0.1786
269.7514	0.1771
269.9652	0.1851
270.1791	0.1787
270.393	0.173
270.6068	0.1833
270.8207	0.1738
271.0345	0.1622
271.2483	0.1753
271.4622	0.1695
271.676	0.1742
271.8897	0.1597
272.1035	0.1669
272.3173	0.1845
272.531	0.1752
272.7448	0.1794
272.9585	0.1778
273.1722	0.1764
273.3859	0.1745
273.5996	0.1624
273.8133	0.1793
274.0269	0.1679
274.2406	0.1625
274.4542	0.1781
274.6679	0.1737
274.8815	0.176
275.0951	0.1775
275.3087	0.1815
275.5223	0.176
275.7358	0.177
275.9494	0.177
276.1629	0.1669
276.3765	0.1781
276.59	0.1881
276.8035	0.1787
277.017	0.1802
277.2305	0.1733
277.444	0.1747
277.6574	0.1571
277.8709	0.1795
278.0843	0.1629
278.2978	0.172
278.5112	0.1653
278.7246	0.1772
278.938	0.1887
279.1513	0.1801
279.3647	0.1992
279.5781	0.1672
279.7914	0.1819
280.0047	0.1876
280.2181	0.1777
280.4314	0.1773
280.6447	0.1748
280.8579	0.1752
281.0712	0.18
281.2845	0.1913
281.4977	0.1973
281.711	0.1686
281.9242	0.1782
282.1374	0.1737
282.3506	0.1803
282.5638	0.1673
282.7769	0.1828
282.9901	0.1756
283.2033	0.1953
283.4164	0.1848
283.6295	0.1781
283.8426	0.1662
284.0557	0.191
284.2688	0.188
284.4819	0.1856
284.695	0.1805
284.908	0.1773
285.1211	0.1896
285.3341	0.1765
285.5471	0.1886
285.7601	0.1772
285.9731	0.1782
286.1861	0.1741
286.3991	0.1805
286.612	0.1796
286.825	0.1796
287.0379	0.1795
287.2508	0.1734
287.4637	0.1678
287.6766	0.1686
287.8895	0.1848
288.1024	0.1996
288.3152	0.1809
288.5281	0.167
288.7409	0.1741
288.9538	0.1747
289.1666	0.1787
289.3794	0.1769
289.5922	0.1796
289.8049	0.1758
290.0177	0.1625
290.2304	0.1868
290.4432	0.1735
290.6559	0.1715
290.8686	0.1816
291.0813	0.1739
291.294	0.1786
291.5067	0.18
291.7194	0.1702
291.932	0.1835
292.1447	0.1666
292.3573	0.1724
292.5699	0.1755
292.7825	0.1769
292.9951	0.1723
293.2077	0.1717
293.4203	0.168
293.6328	0.1581
293.8454	0.1685
294.0579	0.167
294.2704	0.1641
294.4829	0.1657
294.6954	0.1757
294.9079	0.1702
295.1204	0.1657
295.3328	0.172
295.5453	0.1676
295.7577	0.164
295.9701	0.1626
296.1825	0.1653
296.3949	0.1593
296.6073	0.1655
296.8197	0.1572
297.0321	0.164
297.2444	0.1471
297.4567	0.1787
297.6691	0.1639
297.8814	0.1576
298.0937	0.1738
298.306	0.1657
298.5182	0.1644
298.7305	0.1718
298.9428	0.1593
299.155	0.1708
299.3672	0.1616
299.5794	0.1543
299.7916	0.1657
300.0038	0.1674
300.216	0.1733
300.4282	0.1622
300.6403	0.15
300.8525	0.1602
301.0646	0.1548
301.2767	0.1626
301.4888	0.1732
301.7009	0.1502
301.913	0.1551
302.125	0.1663
302.3371	0.1564
302.5491	0.1613
302.7612	0.1707
302.9732	0.1625
303.1852	0.1628
303.3972	0.1597
303.6092	0.1507
303.8211	0.1412
304.0331	0.1551
304.245	0.158
304.457	0.1502
304.6689	0.154
304.8808	0.1604
305.0927	0.1404
305.3046	0.1467
305.5164	0.1577
305.7283	0.1406
305.9401	0.1502
306.152	0.1457
306.3638	0.145
306.5756	0.1384
306.7874	0.1496
306.9992	0.1532
307.2109	0.1425
307.4227	0.1275
307.6344	0.1394
307.8462	0.141
308.0579	0.1404
308.2696	0.1319
308.4813	0.1379
308.693	0.1363
308.9046	0.1454
309.1163	0.1343
309.328	0.1285
309.5396	0.1187
309.7512	0.1277
309.9628	0.1226
310.1744	0.1246
310.386	0.1233
310.5976	0.1172
310.8091	0.1184
311.0207	0.1176
311.2322	0.1215
311.4437	0.1076
311.6552	0.1146
311.8667	0.1128
312.0782	0.1058
312.2897	0.1065
312.5012	0.1176
312.7126	0.1082
312.924	0.1046
313.1355	0.1237
313.3469	0.1224
313.5583	0.1135
313.7696	0.113
313.981	0.1145
314.1924	0.1058
314.4037	0.1163
314.6151	0.1224
314.8264	0.1062
315.0377	0.1102
315.249	0.1031
315.4603	0.1162
315.6716	0.1139
315.8828	0.0977
316.0941	0.1041
316.3053	0.1057
316.5165	0.098
316.7277	0.1129
316.9389	0.1126
317.1501	0.1037
317.3613	0.1107
317.5724	0.108
317.7836	0.1128
317.9947	0.1003
318.2058	0.0997
318.417	0.0876
318.6281	0.1031
318.8391	0.1041
319.0502	0.1037
319.2613	0.1014
319.4723	0.108
319.6834	0.111
319.8944	0.1024
320.1054	0.1075
320.3164	0.1015
320.5274	0.1053
320.7383	0.1083
320.9493	0.1021
321.1602	0.113
321.3712	0.0918
321.5821	0.112
321.793	0.0993
322.0039	0.0975
322.2148	0.1092
322.4257	0.1168
322.6365	0.1167
322.8474	0.1141
323.0582	0.113
323.269	0.1105
323.4798	0.1071
323.6906	0.1133
323.9014	0.1066
324.1122	0.1069
324.3229	0.0942
324.5337	0.1094
324.7444	0.1058
324.9551	0.1277
325.1658	0.1115
325.3765	0.1228
325.5872	0.1025
325.7979	0.1025
326.0085	0.1037
326.2192	0.1174
326.4298	0.1133
326.6404	0.101
326.851	0.1067
327.0616	0.1005
327.2722	0.1141
327.4828	0.1156
327.6933	0.1061
327.9039	0.1152
328.1144	0.1184
328.3249	0.1184
328.5354	0.0995
328.7459	0.1109
328.9564	0.1042
329.1669	0.1094
329.3773	0.1095
329.5878	0.1136
329.7982	0.1082
330.0086	0.1258
330.219	0.1233
330.4294	0.1199
330.6398	0.1111
330.8502	0.103
331.0605	0.1124
331.2708	0.1084
331.4812	0.1226
331.6915	0.1225
331.9018	0.1184
332.1121	0.1074
332.3224	0.1285
332.5326	0.1206
332.7429	0.1125
332.9531	0.1264
333.1633	0.1146
333.3735	0.1131
333.5837	0.1139
333.7939	0.1169
334.0041	0.1179
334.2143	0.1285
334.4244	0.1096
334.6346	0.1003
334.8447	0.1223
335.0548	0.1022
335.2649	0.1163
335.475	0.1221
335.685	0.1145
335.8951	0.1246
336.1051	0.121
336.3152	0.1209
336.5252	0.1095
336.7352	0.1205
336.9452	0.1184
337.1552	0.1188
337.3652	0.109
337.5751	0.1127
337.7851	0.1196
337.995	0.1129
338.2049	0.1325
338.4148	0.1185
338.6247	0.1272
338.8346	0.1119
339.0445	0.1114
339.2543	0.1103
339.4642	0.1283
339.674	0.1171
339.8838	0.1162
340.0936	0.1258
340.3034	0.1356
340.5132	0.1146
340.7229	0.1268
340.9327	0.1192
341.1424	0.1162
341.3522	0.145
341.5619	0.1253
341.7716	0.1263
341.9813	0.124
342.1909	0.1223
342.4006	0.1298
342.6102	0.1428
342.8199	0.1205
343.0295	0.1391
343.2391	0.1284
343.4487	0.1304
343.6583	0.1234
343.8679	0.1293
344.0774	0.1345
344.287	0.1413
344.4965	0.1327
344.706	0.1368
344.9155	0.1255
345.125	0.1378
345.3345	0.1381
345.544	0.1284
345.7534	0.1298
345.9629	0.1203
346.1723	0.1324
346.3817	0.1273
346.5911	0.1424
346.8005	0.1367
347.0099	0.1359
347.2193	0.1352
347.4286	0.1214
347.638	0.1391
347.8473	0.1433
348.0566	0.1396
348.2659	0.1515
348.4752	0.1428
348.6845	0.1292
348.8937	0.1415
349.103	0.1411
349.3122	0.1276
349.5214	0.147
349.7306	0.1387
349.9398	0.136
350.149	0.1322
350.3582	0.1432
350.5674	0.153
350.7765	0.144
350.9856	0.1293
351.1948	0.1504
351.4039	0.1252
351.613	0.14
351.822	0.1417
352.0311	0.1594
352.2402	0.1367
352.4492	0.15
352.6582	0.1579
352.8672	0.1388
353.0762	0.136
353.2852	0.1444
353.4942	0.1382
353.7032	0.1476
353.9121	0.1435
354.1211	0.1496
354.33	0.1572
354.5389	0.1549
354.7478	0.1376
354.9567	0.1478
355.1655	0.1323
355.3744	0.1606
355.5833	0.1601
355.7921	0.1692
356.0009	0.1532
356.2097	0.1679
356.4185	0.1619
356.6273	0.1602
356.8361	0.1732
357.0448	0.165
357.2536	0.1542
357.4623	0.157
357.671	0.1664
357.8797	0.1582
358.0884	0.1655
358.2971	0.1636
358.5057	0.1537
358.7144	0.1675
358.923	0.1637
359.1316	0.1622
359.3402	0.1614
359.5488	0.1735
359.7574	0.1644
359.966	0.1738
360.1746	0.161
360.3831	0.1742
360.5916	0.1648
360.8002	0.1661
361.0087	0.1745
361.2172	0.1642
361.4256	0.1786
361.6341	0.1873
361.8426	0.1818
362.051	0.1713
362.2594	0.1734
362.4678	0.1704
362.6762	0.1925
362.8846	0.1896
363.093	0.1687
363.3014	0.1759
363.5097	0.1793
363.718	0.1837
363.9264	0.1861
364.1347	0.1775
364.343	0.1823
364.5513	0.1931
364.7595	0.1925
364.9678	0.1936
365.176	0.197
365.3842	0.177
365.5925	0.1785
365.8007	0.2022
366.0089	0.192
366.217	0.1728
366.4252	0.1785
366.6333	0.1954
366.8415	0.1884
367.0496	0.1909
367.2577	0.2002
367.4658	0.2075
367.6739	0.2066
367.882	0.1924
368.09	0.1883
368.2981	0.185
368.5061	0.1951
368.7141	0.2018
368.9221	0.2069
369.1301	0.2045
369.3381	0.2034
369.5461	0.2039
369.754	0.2037
369.962	0.2068
370.1699	0.1896
370.3778	0.206
370.5857	0.182
370.7936	0.2067
371.0015	0.205
371.2093	0.2133
371.4172	0.2157
371.625	0.2018
371.8328	0.1919
372.0406	0.2039
372.2484	0.2188
372.4562	0.2087
372.664	0.1997
372.8717	0.1999
373.0795	0.1861
373.2872	0.2059
373.4949	0.1946
373.7026	0.2007
373.9103	0.2277
374.118	0.2117
374.3256	0.1994
374.5333	0.204
374.7409	0.2065
374.9485	0.2274
375.1561	0.2237
375.3637	0.2182
375.5713	0.2201
375.7789	0.2207
375.9864	0.2113
376.194	0.2081
376.4015	0.2216
376.609	0.2278
376.8165	0.2116
377.024	0.2079
377.2315	0.2087
377.4389	0.2178
377.6464	0.2185
377.8538	0.212
378.0612	0.204
378.2686	0.2309
378.476	0.2429
378.6834	0.2375
378.8908	0.2211
379.0981	0.2322
379.3055	0.2172
379.5128	0.2309
379.7201	0.2101
379.9274	0.2045
380.1347	0.2281
380.342	0.2242
380.5492	0.2104
380.7565	0.2196
380.9637	0.2424
381.1709	0.2239
381.3781	0.2413
381.5853	0.2291
381.7925	0.2231
381.9997	0.2346
382.2068	0.2372
382.4139	0.2279
382.6211	0.2301
382.8282	0.2367
383.0353	0.2211
383.2424	0.2165
383.4494	0.2339
383.6565	0.2264
383.8635	0.2054
384.0706	0.2374
384.2776	0.2346
384.4846	0.2251
384.6916	0.2361
384.8986	0.2204
385.1055	0.2336
385.3125	0.2221
385.5194	0.2065
385.7263	0.2193
385.9333	0.2303
386.1402	0.2226
386.347	0.2328
386.5539	0.2146
386.7608	0.2296
386.9676	0.2264
387.1744	0.2312
387.3813	0.2135
387.5881	0.2224
387.7948	0.2299
388.0016	0.2331
388.2084	0.2212
388.4151	0.2134
388.6219	0.2189
388.8286	0.2273
389.0353	0.2372
389.242	0.2149
389.4487	0.208
389.6553	0.2187
389.862	0.2076
390.0686	0.2084
390.2753	0.2203
390.4819	0.2346
390.6885	0.2073
390.8951	0.2184
391.1016	0.2174
391.3082	0.2018
391.5147	0.2213
391.7213	0.204
391.9278	0.2033
392.1343	0.213
392.3408	0.208
392.5473	0.2036
392.7537	0.2028
392.9602	0.207
393.1666	0.2006
393.373	0.211
393.5794	0.2152
393.7858	0.2007
393.9922	0.1951
394.1986	0.1999
394.4049	0.2071
394.6113	0.1907
394.8176	0.1834
395.0239	0.2
395.2302	0.1901
395.4365	0.2029
395.6428	0.186
395.8491	0.1958
396.0553	0.1938
396.2615	0.1945
396.4678	0.1849
396.674	0.1749
396.8802	0.2137
397.0863	0.2093
397.2925	0.1779
397.4987	0.1971
397.7048	0.1853
397.9109	0.1918
398.117	0.1849
398.3231	0.1904
398.5292	0.2018
398.7353	0.195
398.9413	0.1832
399.1474	0.1978
399.3534	0.1851
399.5594	0.1652
399.7654	0.1966
399.9714	0.2024
400.1774	0.1876
400.3833	0.1623
400.5893	0.1869
400.7952	0.1997
401.0011	0.1926
401.207	0.2042
401.4129	0.1883
401.6188	0.1863
401.8247	0.1857
402.0305	0.1815
402.2364	0.1677
402.4422	0.1945
402.648	0.1995
402.8538	0.2019
403.0596	0.1798
403.2654	0.1936
403.4711	0.1733
403.6768	0.1859
403.8826	0.191
404.0883	0.1957
404.294	0.1929
404.4997	0.1914
404.7054	0.1913
404.911	0.1712
405.1167	0.1792
405.3223	0.2029
405.5279	0.204
405.7335	0.1916
405.9391	0.1882
406.1447	0.191
406.3502	0.1976
406.5558	0.1745
406.7613	0.1804
406.9668	0.2
407.1724	0.1801
407.3778	0.186
407.5833	0.1761
407.7888	0.1712
407.9942	0.1986
408.1997	0.1901
408.4051	0.1817
408.6105	0.1905
408.8159	0.1785
409.0213	0.1671
409.2267	0.1884
409.432	0.172
409.6374	0.2057
409.8427	0.178
410.048	0.1646
410.2533	0.1742
410.4586	0.1737
410.6639	0.1549
410.8691	0.1684
411.0744	0.1666
411.2796	0.1616
411.4848	0.1744
411.69	0.1897
411.8952	0.1857
412.1004	0.1673
412.3056	0.184
412.5107	0.1886
412.7158	0.1912
412.921	0.1712
413.1261	0.1789
413.3312	0.1748
413.5362	0.1781
413.7413	0.1627
413.9464	0.165
414.1514	0.1683
414.3564	0.1822
414.5614	0.1765
414.7664	0.176
414.9714	0.1802
415.1764	0.1729
415.3813	0.1954
415.5863	0.1692
415.7912	0.1777
415.9961	0.1838
416.201	0.1666
416.4059	0.1919
416.6108	0.1747
416.8156	0.1838
417.0205	0.1564
417.2253	0.1538
417.4301	0.1648
417.6349	0.17
417.8397	0.1644
418.0445	0.1865
418.2492	0.1644
418.454	0.18
418.6587	0.1512
418.8634	0.1734
419.0681	0.1556
419.2728	0.1538
419.4775	0.1743
419.6822	0.148
419.8868	0.1434
420.0915	0.1852
420.2961	0.1668
420.5007	0.1584
420.7053	0.1657
420.9099	0.1858
421.1144	0.1734
421.319	0.155
421.5235	0.1675
421.728	0.1682
421.9325	0.1455
422.137	0.1733
422.3415	0.1648
422.546	0.1604
422.7504	0.1503
422.9549	0.1626
423.1593	0.171
423.3637	0.161
423.5681	0.1644
423.7725	0.1563
423.9769	0.1506
424.1812	0.1466
424.3856	0.1418
424.5899	0.1492
424.7942	0.1547
424.9985	0.145
425.2028	0.1521
425.4071	0.1734
425.6113	0.1366
425.8156	0.1579
426.0198	0.1482
426.224	0.1404
426.4282	0.1496
426.6324	0.1612
426.8366	0.1503
427.0407	0.1352
427.2449	0.1458
427.449	0.1353
427.6531	0.1125
427.8572	0.1391
428.0613	0.1324
428.2654	0.1442
428.4694	0.1243
428.6735	0.136
428.8775	0.1384
429.0815	0.1323
429.2855	0.1254
429.4895	0.1314
429.6935	0.1218
429.8975	0.1373
430.1014	0.1254
430.3053	0.1191
430.5093	0.1267
430.7132	0.1175
430.9171	0.1074
431.1209	0.1193
431.3248	0.1326
431.5286	0.1258
431.7325	0.1317
431.9363	0.1101
432.1401	0.1183
432.3439	0.1039
432.5477	0.0835
432.7514	0.0766
432.9552	0.0937
433.1589	0.0988
433.3627	0.1069
433.5664	0.0989
433.7701	0.0874
433.9737	0.1104
434.1774	0.1057
434.3811	0.0881
434.5847	0.1041
434.7883	0.0994
434.9919	0.0895
435.1955	0.1005
435.3991	0.0911
435.6027	0.0895
435.8062	0.0851
436.0098	0.0945
436.2133	0.0874
436.4168	0.0741
436.6203	0.0759
436.8238	0.08
437.0272	0.0815
437.2307	0.0934
437.4341	0.089
437.6375	0.0833
437.841	0.0763
438.0443	0.0884
438.2477	0.0777
438.4511	0.0579
438.6545	0.078
438.8578	0.0843
439.0611	0.0862
439.2644	0.0763
439.4677	0.063
439.671	0.052
439.8743	0.068
440.0775	0.0729
440.2808	0.0713
440.484	0.0578
440.6872	0.0389
440.8904	0.0601
441.0936	0.073
441.2967	0.0471
441.4999	0.0635
441.703	0.0644
441.9062	0.0494
442.1093	0.058
442.3124	0.0672
442.5155	0.0251
442.7185	0.0484
442.9216	0.0408
443.1246	0.06
443.3276	0.0422
443.5307	0.0423
443.7337	0.067
443.9366	0.0425
444.1396	0.0484
444.3426	0.0388
444.5455	0.0449
444.7484	0.0443
444.9513	0.0423
445.1542	0.0418
445.3571	0.0425
445.56	0.0417
445.7628	0.0299
445.9657	0.0383
446.1685	0.0372
446.3713	0.0381
446.5741	0.0305
446.7769	0.0291
446.9797	0.0351
447.1824	0.0387
447.3852	0.0301
447.5879	0.0203
447.7906	0.0359
447.9933	0.0209
448.196	0.0315
448.3986	0.0305
448.6013	0.0224
448.8039	0.0075
449.0066	0.0206
449.2092	0.0364
449.4118	0.0252
449.6143	0.0342
449.8169	0.0384
450.0195	0.0147
450.222	0.0063
450.4245	0.011
450.627	0.0351
450.8295	0.0159
451.032	0.0078
451.2345	0.0156
451.4369	0.0113
451.6394	0.0157
451.8418	0.0007
452.0442	0.009
452.2466	0.0157
452.449	0.0075
452.6513	0.019
452.8537	0.0085
453.056	0.0034
453.2583	0.0221
453.4607	0.0105
453.663	0.0088
453.8652	0.0235
454.0675	0.0182
454.2697	0.005
454.472	-0.0032
454.6742	0.0124
454.8764	0.0149
455.0786	0.0101
455.2808	-0.0012
455.4829	0.0227
455.6851	0.0192
455.8872	0.0093
456.0893	0.0057
456.2915	0.0009
456.4935	0.0078
456.6956	-0.0062
456.8977	0.0154
457.0997	0.0093
457.3018	0.0026
457.5038	0.0285
457.7058	-0.0057
457.9078	0.0148
458.1098	0.0101
458.3117	0.0153
458.5137	0.0126
458.7156	0.0053
458.9175	0.0004
459.1194	-0.0037
459.3213	-0.0058
459.5232	0.0051
459.725	-0.0153
459.9269	-0.0115
460.1287	-0.0144
460.3305	0.0005
460.5323	-0.0038
460.7341	0.0147
460.9359	0.0156
461.1376	0.0126
461.3394	-0.0075
461.5411	0.0041
461.7428	-0.0088
461.9445	0.0059
462.1462	0.0313
462.3479	-0.004
462.5495	-0.0086
462.7512	0.009
462.9528	0.0028
463.1544	-0.0064
463.356	0.0023
463.5576	0.0064
463.7592	-0.0235
463.9607	0.0007
464.1623	0.0005
464.3638	0.0106
464.5653	-0.0135
464.7668	-0.0022
464.9683	0.0073
465.1697	0.0164
465.3712	-0.0035
465.5726	-0.0155
465.7741	-0.0073
465.9755	-0.0199
466.1769	-0.0051
466.3782	0.0022
466.5796	-0.0003
466.7809	0.0134
466.9823	-0.0135
467.1836	-0.0118
467.3849	-0.0161
467.5862	-0.0033
467.7875	0.0044
467.9887	0.0082
468.19	-0.0005
468.3912	-0.0199
468.5924	-0.013
468.7936	-0.01
468.9948	-0.0109
469.196	-0.0027
469.3972	-0.0045
469.5983	-0.001
469.7994	-0.021
470.0006	-0.0098
470.2017	-0.0218
470.4027	-0.002
470.6038	0.0064
470.8049	-0.0235
471.0059	-0.0133
471.2069	-0.0313
471.408	0.0025
471.6089	-0.0032
471.8099	-0.0155
472.0109	-0.0069
472.2119	-0.0067
472.4128	-0.0137
472.6137	0.0091
472.8146	-0.0129
473.0155	-0.018
473.2164	-0.0053
473.4173	0.0002
473.6181	-0.0138
473.819	0.0011
474.0198	-0.0175
474.2206	0.0007
474.4214	-0.0062
474.6222	-0.0127
474.8229	-0.0114
475.0237	-0.0146
475.2244	-0.0139
475.4251	-0.0103
475.6258	-0.0044
475.8265	-0.0032
476.0272	0.0079
476.2278	-0.0023
476.4285	-0.005
476.6291	-0.0099
476.8297	-0.0023
477.0303	-0.0164
477.2309	-0.0052
477.4315	-0.0175
477.632	-0.0147
477.8326	-0.0034
478.0331	-0.0052
478.2336	-0.0036
478.4341	-0.0014
478.6346	-0.0085
478.8351	-0.0098
479.0355	-0.0112
479.236	-0.0186
479.4364	-0.0055
479.6368	-0.0052
479.8372	-0.0174
480.0376	0.0057
480.2379	-0.0392
480.4383	-0.0127
480.6386	0.0001
480.8389	-0.0008
481.0392	-0.0037
481.2395	-0.0132
481.4398	-0.0017
481.6401	-0.0058
481.8403	-0.0079
482.0405	-0.0095
482.2408	-0.0088
482.441	-0.0013
482.6411	-0.0169
482.8413	-0.0137
483.0415	-0.0149
483.2416	-0.007
483.4417	-0.0097
483.6419	-0.0129
483.8419	-0.0086
484.042	0.0064
484.2421	-0.0064
484.4422	-0.0048
484.6422	0.0015
484.8422	-0.0077
485.0422	-0.0163
485.2422	-0.0091
485.4422	-0.0225
485.6422	-0.0099
485.8421	-0.0103
486.042	-0.0107
486.242	-0.0165
486.4419	-0.0161
486.6417	-0.0117
486.8416	-0.015
487.0415	-0.0081
487.2413	-0.009
487.4411	-0.013
487.641	-0.0088
487.8408	-0.0073
488.0405	-0.0055
488.2403	-0.0089
488.4401	0.0005
488.6398	-0.0065
488.8395	-0.0225
489.0392	-0.0004
489.2389	-0.0163
489.4386	-0.0098
489.6383	-0.0044
489.8379	0.0001
490.0376	-0.0065
490.2372	-0.015
490.4368	-0.0105
490.6364	-0.0055
490.836	-0.0214
491.0355	-0.012
491.2351	-0.0251
491.4346	-0.0136
491.6341	-0.0215
491.8336	-0.0016
492.0331	-0.0161
492.2326	-0.0247
492.432	-0.0136
492.6315	-0.0201
492.8309	-0.0192
493.0303	-0.0129
493.2297	-0.0113
493.4291	-0.0078
493.6284	-0.012
493.8278	-0.0157
494.0271	-0.0039
494.2264	0
494.4257	-0.0196
494.625	-0.0002
494.8243	-0.0293
495.0236	-0.0117
495.2228	-0.0038
495.422	-0.0016
495.6213	-0.0145
495.8205	-0.0008
496.0196	-0.0116
496.2188	-0.0087
496.418	-0.0184
496.6171	-0.0088
496.8162	-0.011
497.0153	-0.0061
497.2144	-0.0094
497.4135	-0.0106
497.6126	-0.0205
497.8116	-0.0108
498.0107	-0.0053
498.2097	-0.0185
498.4087	-0.0096
498.6077	-0.0093
498.8067	-0.0142
499.0056	0.0016
499.2046	-0.0079
499.4035	-0.0194
499.6024	-0.016
499.8013	-0.0005
500.0002	-0.0259
500.199	-0.0088
500.3979	-0.0196
500.5967	-0.0279
500.7956	0.0011
500.9944	-0.0186
501.1932	-0.0082
501.3919	-0.0221
501.5907	-0.026
501.7895	-0.0142
501.9882	-0.0108
502.1869	-0.0186
502.3856	-0.0129
502.5843	-0.0184
502.783	-0.012
502.9816	-0.009
503.1803	-0.0226
503.3789	-0.013
503.5775	-0.0112
503.7761	-0.0154
503.9747	-0.0128
504.1732	-0.0068
504.3718	-0.0011
504.5703	-0.0066
504.7689	-0.0194
504.9674	-0.0056
505.1658	-0.0175
505.3643	-0.0179
505.5628	-0.0092
505.7612	-0.0157
505.9597	-0.0031
506.1581	-0.0145
506.3565	0.001
506.5549	-0.0054
506.7532	-0.0291
506.9516	-0.009
507.1499	-0.0099
507.3482	-0.0156
507.5465	-0.0202
507.7448	-0.0112
507.9431	-0.0101
508.1414	-0.0096
508.3396	-0.0137
508.5379	-0.0145
508.7361	-0.0201
508.9343	-0.0099
509.1325	-0.0086
509.3306	-0.0139
509.5288	-0.0141
509.7269	-0.023
509.9251	-0.0139
510.1232	-0.0104
510.3213	-0.0057
510.5193	-0.001
510.7174	-0.0148
510.9154	-0.0134
511.1135	-0.0099
511.3115	-0.0126
511.5095	-0.0065
511.7075	-0.0047
511.9055	-0.0089
512.1034	-0.0194
512.3014	-0.0041
512.4993	-0.007
512.6972	-0.0107
512.8951	-0.0129
513.093	-0.0098
513.2908	-0.0086
513.4887	-0.011
513.6865	0.0004
513.8844	-0.0145
514.0822	-0.0125
514.2799	-0.0175
514.4777	-0.0159
514.6755	-0.0215
514.8732	-0.0132
515.0709	-0.0076
515.2687	-0.0172
515.4664	0.0053
515.664	-0.0078
515.8617	-0.0143
516.0594	-0.0171
516.257	-0.0096
516.4546	-0.0209
516.6522	-0.0104
516.8498	-0.0106
517.0474	-0.0069
517.2449	-0.0079
517.4425	-0.0108
517.64	-0.0108
517.8375	-0.0002
518.035	-0.0139
518.2325	-0.0149
518.43	-0.022
518.6274	-0.0129
518.8249	-0.0162
519.0223	-0.0093
519.2197	-0.01
519.4171	-0.0129
519.6145	-0.0117
519.8118	-0.0153
520.0092	-0.0163
520.2065	-0.0101
520.4038	-0.021
520.6011	-0.0087
520.7984	-0.0139
520.9956	-0.0102
521.1929	-0.0191
521.3901	-0.0071
521.5874	-0.0162
521.7846	-0.015
521.9818	-0.0193
522.1789	-0.0105
522.3761	-0.01
522.5732	-0.0158
522.7704	-0.0102
522.9675	-0.008
523.1646	-0.0135
523.3617	-0.0049
523.5587	-0.0057
523.7558	-0.0054
523.9528	-0.0078
524.1498	-0.0055
524.3468	-0.0136
524.5438	-0.0157
524.7408	-0.0132
524.9378	-0.0011
525.1347	-0.0084
525.3316	0.0005
525.5285	-0.0188
525.7254	-0.0139
525.9223	-0.0136
526.1192	-0.0095
526.316	-0.0161
526.5129	-0.0003
526.7097	-0.004
526.9065	-0.0104
527.1033	-0.0048
527.3	-0.0097
527.4968	-0.006
527.6935	-0.0092
527.8903	-0.0199
528.087	-0.0091
528.2837	-0.0137
528.4804	-0.0015
528.677	-0.0173
528.8737	0.001
529.0703	-0.0055
529.2669	-0.0133
529.4635	-0.0165
529.6601	-0.0175
529.8567	-0.0075
530.0532	-0.0152
530.2498	-0.0006
530.4463	-0.0041
530.6428	-0.0119
530.8393	-0.0017
531.0358	-0.0108
531.2322	-0.0062
531.4287	-0.0055
531.6251	-0.0188
531.8215	0.0052
532.0179	-0.0012
532.2143	0.0018
532.4107	-0.0133
532.607	-0.013
532.8034	0.0004
532.9997	-0.0111
533.196	-0.0111
533.3923	-0.0138
533.5886	-0.0035
533.7848	-0.0085
533.9811	-0.0133
534.1773	-0.0054
534.3735	-0.0065
534.5697	-0.0133
534.7659	-0.0028
534.9621	-0.0021
535.1582	-0.0191
535.3544	-0.0159
535.5505	-0.0154
535.7466	-0.0097
535.9427	-0.0062
536.1387	-0.0105
536.3348	-0.0063
536.5308	-0.0032
536.7269	-0.0175
536.9229	0.0025
537.1189	-0.0132
537.3148	-0.0058
537.5108	-0.0093
537.7068	-0.0114
537.9027	0.0048
538.0986	-0.0037
538.2945	-0.0106
538.4904	-0.0098
538.6863	-0.0073
538.8821	-0.0082
539.078	-0.0141
539.2738	-0.0046
539.4696	-0.0066
539.6654	-0.0053
539.8611	0.0032
540.0569	-0.0086
540.2526	-0.0111
540.4484	-0.011
540.6441	-0.0035
540.8398	-0.0104
541.0355	-0.0013
541.2311	-0.0076
541.4268	-0.0126
541.6224	0.0068
541.818	-0.0129
542.0136	-0.0073
542.2092	-0.003
542.4048	-0.0048
542.6003	-0.0163
542.7959	-0.0059
542.9914	-0.0127
543.1869	-0.0098
543.3824	0.0021
543.5779	-0.0102
543.7734	-0.0011
543.9688	-0.0084
544.1642	-0.0064
544.3596	-0.002
544.555	-0.0042
544.7504	-0.0045
544.9458	-0.0053
545.1411	-0.0062
545.3365	-0.0112
545.5318	-0.0062
545.7271	-0.0135
545.9224	-0.0009
546.1177	-0.0077
546.3129	0.0012
546.5081	-0.008
546.7034	-0.0028
546.8986	-0.0102
547.0938	-0.0135
547.289	-0.0052
547.4841	-0.0011
547.6793	0.0022
547.8744	-0.0115
548.0695	0.001
548.2646	-0.0072
548.4597	-0.005
548.6548	-0.0058
548.8498	0.0104
549.0448	0.0079
549.2399	-0.0145
549.4349	0.0064
549.6298	-0.0004
549.8248	0.0018
550.0198	0
550.2147	-0.0025
550.4096	-0.0065
550.6045	0.0015
550.7994	0.0056
550.9943	-0.0089
551.1892	-0.0031
551.384	-0.0072
551.5788	-0.019
551.7737	-0.0028
551.9685	-0.0053
552.1632	-0.0024
552.358	-0.0034
552.5528	-0.0108
552.7475	0.0028
552.9422	-0.0009
553.1369	-0.0055
553.3316	0.0029
553.5263	-0.0122
553.7209	-0.0003
553.9156	-0.0082
554.1102	-0.0032
554.3048	-0.0168
554.4994	-0.0001
554.694	-0.0007
554.8885	0.0007
555.0831	-0.0067
555.2776	-0.0037
555.4721	-0.0067
555.6666	-0.0034
555.8611	0.0084
556.0555	-0.0013
556.25	-0.0033
556.4444	-0.0098
556.6388	0.0001
556.8332	-0.0028
557.0276	-0.0055
557.222	-0.0085
557.4163	-0.0016
557.6107	-0.0001
557.805	-0.0014
557.9993	-0.0078
558.1936	-0.0048
558.3879	-0.0089
558.5821	-0.0039
558.7764	-0.0088
558.9706	-0.0046
559.1648	0.0005
559.359	-0.0045
559.5532	-0.0116
559.7473	-0.0025
559.9415	0.003
560.1356	-0.0066
560.3297	-0.015
560.5238	-0.0026
560.7179	-0.003
560.9119	-0.0135
561.106	0.001
561.3	-0.005
561.494	-0.0086
561.688	-0.0125
561.882	-0.0186
562.076	-0.0097
562.2699	-0.0001
562.4639	-0.0085
562.6578	-0.0054
562.8517	-0.0046
563.0456	0.0019
563.2395	-0.0004
563.4333	0.0075
563.6272	0.0039
563.821	-0.0058
564.0148	-0.0048
564.2086	-0.0052
564.4024	-0.0084
564.5961	-0.0088
564.7899	0.0048
564.9836	-0.0027
565.1773	-0.0073
565.371	0.0052
565.5647	0.0107
565.7584	-0.0044
565.952	0.0041
566.1456	-0.0007
566.3393	-0.0062
566.5329	-0.0049
566.7264	-0.0061
566.92	-0.0009
567.1136	-0.0012
567.3071	0.0021
567.5006	-0.0012
567.6941	0.0006
567.8876	0.0003
568.0811	-0.009
568.2745	-0.0088
568.468	0.0024
568.6614	-0.002
568.8548	-0.008
569.0482	-0.0026
569.2416	0.0009
569.4349	0.0008
569.6283	0.0008
569.8216	-0.006
570.0149	-0.0043
570.2082	-0.0009
570.4015	0.005
570.5947	0.0001
570.788	0.0043
570.9812	0.0023
571.1744	-0.0026
571.3676	-0.0085
571.5608	-0.0056
571.754	-0.0077
571.9471	0.0016
572.1402	0.0001
572.3333	-0.0027
572.5264	-0.0037
572.7195	-0.0029
572.9126	0.0056
573.1057	0.0025
573.2987	0.0042
573.4917	0.0015
573.6847	-0.0027
573.8777	0.0003
574.0707	0.0066
574.2636	-0.0013
574.4566	0.0006
574.6495	0.0067
574.8424	-0.0021
575.0353	-0.0028
575.2281	0.0085
575.421	0.0078
575.6138	0.0065
575.8067	-0.0049
575.9995	0.0063
576.1923	0.006
576.385	-0.0033
576.5778	-0.0014
576.7706	-0.0034
576.9633	-0.0016
577.156	0.0015
577.3487	-0.0027
577.5414	-0.001
577.734	-0.0034
577.9267	0.0048
578.1193	-0.0054
578.3119	-0.0103
578.5045	-0.0035
578.6971	-0.0035
578.8897	0.004
579.0822	-0.0053
579.2747	-0.0038
579.4673	-0.0054
579.6598	-0.0001
579.8522	-0.0027
580.0447	-0.0085
580.2372	-0.0015
580.4296	0.0058
580.622	-0.003
580.8144	0.0001
581.0068	-0.0003
581.1992	-0.0105
581.3915	-0.0047
581.5839	-0.0086
581.7762	-0.0115
581.9685	0.0007
582.1608	0.0003
582.353	-0.0027
582.5453	0.0019
582.7375	-0.0013
582.9298	0.0057
583.122	-0.0025
583.3142	0.0009
583.5063	0.0003
583.6985	-0.005
583.8906	0.0001
584.0827	-0.0059
584.2749	0.0024
584.4669	0.0009
584.659	0.0024
584.8511	-0.0024
585.0431	-0.0062
585.2352	0.0014
585.4272	0.0039
585.6192	0.008
585.8111	-0.0032
586.0031	0.006
586.195	0.0015
586.387	0.0067
586.5789	0.0024
586.7708	0.0054
586.9627	-0.001
587.1545	-0.01
587.3464	0.0005
587.5382	0.0066
587.73	0.0017
587.9218	0.0096
588.1136	0.0022
588.3053	-0.0008
588.4971	-0.0023
588.6888	-0.0152
588.8805	0.0032
589.0722	0.0019
589.2639	0.0014
589.4556	-0.0052
589.6472	-0.0014
589.8389	-0.0065
590.0305	-0.0159
590.2221	0.0026
590.4137	-0.0084
590.6052	0.001
590.7968	-0.0064
590.9883	-0.0073
591.1798	-0.0006
591.3713	0.0027
591.5628	0.007
591.7543	0.0042
591.9458	-0.0001
592.1372	0.0072
592.3286	0.0069
592.52	0.0089
592.7114	0.0008
592.9028	-0.0005
593.0941	0.0007
593.2855	0.0028
593.4768	-0.009
593.6681	-0.0023
593.8594	-0.0007
594.0506	0.0021
594.2419	0.0121
594.4331	0.0025
594.6244	0.0007
594.8156	-0.0018
595.0067	0.0041
595.1979	-0.0032
595.3891	-0.0024
595.5802	0.0025
595.7713	-0.0031
595.9624	0.0039
596.1535	0.0079
596.3446	0.0005
596.5357	0.0003
596.7267	0.0083
596.9177	-0.0033
597.1087	-0.0039
597.2997	-0.0043
597.4907	-0.002
597.6817	-0.0032
597.8726	0.0001
598.0635	-0.0079
598.2544	-0.0051
598.4453	-0.001
598.6362	-0.0068
598.827	-0.0074
599.0179	0.003
599.2087	0.0002
599.3995	-0.0048
599.5903	-0.001
599.7811	0.0024
599.9718	-0.0009
600.1626	-0.0081
600.3533	-0.0119
600.544	-0.0014
600.7347	-0.0068
600.9254	-0.0002
601.116	-0.0058
601.3067	-0
601.4973	-0.0018
601.6879	0.0013
601.8785	-0.0065
602.0691	-0.0005
602.2596	-0.0033
602.4502	-0.0018
602.6407	-0.0033
602.8312	0.0008
603.0217	-0.0054
603.2122	-0.0038
603.4027	0.0027
603.5931	-0.0015
603.7835	-0.0043
603.9739	-0.0052
604.1643	-0.0032
604.3547	-0.0072
604.5451	0.0028
604.7354	-0.0051
604.9257	0.0025
605.116	-0.0019
605.3063	-0.0004
605.4966	0.0022
605.6869	0.0021
605.8771	0.0002
606.0673	0.0054
606.2575	0.0004
606.4477	0.0065
606.6379	0
606.8281	-0.0038
607.0182	-0.0081
607.2083	0.0119
607.3985	0.0016
607.5885	0.0008
607.7786	0.0029
607.9687	0.0008
608.1587	0.0028
608.3488	0.0051
608.5388	0.008
608.7288	0.0021
608.9187	-0.0069
609.1087	-0.0016
609.2986	-0.005
609.4886	-0.0028
609.6785	0.0038
609.8684	0.003
610.0582	0.0032
610.2481	0.0001
610.4379	-0.0022
610.6278	-0.0072
610.8176	-0.0046
611.0074	-0.0043
611.1971	-0.006
611.3869	-0.001
611.5766	-0.0048
611.7664	0.0024
611.9561	0.0074
612.1458	-0.0015
612.3354	-0.0047
612.5251	-0.0011
612.7147	-0.0014
612.9044	0.007
613.094	-0.0129
613.2836	-0.0012
613.4731	0.0024
613.6627	-0.0078
613.8522	-0.0003
614.0417	-0.0064
614.2313	-0.0081
614.4207	-0.0117
614.6102	0.002
614.7997	-0.0028
614.9891	-0.0015
615.1785	0.0017
615.3679	-0.0095
615.5573	0.0038
615.7467	0.0055
615.9361	-0.0019
616.1254	-0.0061
616.3147	0.005
616.504	0.0022
616.6933	-0.0018
616.8826	0.0018
617.0718	0.0046
617.2611	-0.0009
617.4503	-0.0002
617.6395	-0.0029
617.8287	-0.0069
618.0179	0.0021
618.207	0.002
618.3961	0.0041
618.5853	0.0012
618.7744	0.0043
618.9634	0.0017
619.1525	0.0029
619.3416	0.005
619.5306	-0.004
619.7196	0.0033
619.9086	0.0017
620.0976	0.0075
620.2866	0.0007
620.4755	0.0021
620.6645	0.0066
620.8534	0.0056
621.0423	0.0059
621.2312	0.0049
621.42	-0.0008
621.6089	-0.0001
621.7977	0.0015
621.9865	-0.0084
622.1753	0.0078
622.3641	-0.003
622.5529	0.0092
622.7416	0.0055
622.9303	-0.0003
623.1191	0.0017
623.3078	-0.0007
623.4964	0.0019
623.6851	-0.0003
623.8737	-0.0003
624.0624	0.0043
624.251	-0.004
624.4396	0.0017
624.6282	-0.0048
624.8167	0.0039
625.0053	0.0029
625.1938	0.0076
625.3823	0.0018
625.5708	0.0086
625.7593	-0.0009
625.9477	-0.0046
626.1362	-0.0003
626.3246	0.0023
626.513	-0.0067
626.7014	0.0102
626.8898	0.0049
627.0781	0.0025
627.2665	0.0048
627.4548	0.0054
627.6431	0.0039
627.8314	0.006
628.0197	0.0099
628.2079	-0.001
628.3962	0.0024
628.5844	0.0031
628.7726	0.0017
628.9608	0.0117
629.1489	-0.0013
629.3371	0.0025
629.5252	-0.005
629.7134	0.0106
629.9015	0.0009
630.0895	-0.0012
630.2776	0.0019
630.4657	0.0032
630.6537	0.004
630.8417	-0.0036
631.0297	-0.0054
631.2177	-0.0037
631.4057	-0.0085
631.5936	0.0028
631.7815	0.006
631.9695	-0.0024
632.1574	0.0039
632.3452	0.0147
632.5331	0.0078
632.7209	-0.0074
632.9088	0.0126
633.0966	0.0114
633.2844	0.0009
633.4722	0.0011
633.6599	0.0035
633.8477	0.0045
634.0354	-0.0017
634.2231	0.0033
634.4108	-0.0001
634.5985	-0.001
634.7861	-0.0005
634.9738	-0.0085
635.1614	-0.0011
635.349	0.0006
635.5366	-0.0014
635.7242	-0.0016
635.9117	0.0062
636.0993	-0.0041
636.2868	0.006
636.4743	0.0029
636.6618	0.01
636.8492	0.0032
637.0367	-0.0004
637.2241	0.0013
637.4115	-0.0012
637.5989	0.0039
637.7863	0.0024
637.9737	0.0013
638.161	-0.0046
638.3484	-0.0026
638.5357	-0.0009
638.723	-0.001
638.9103	0.002
639.0975	-0.0031
639.2848	-0.0038
639.472	0.0036
639.6592	0.0034
639.8464	0.0041
640.0336	0.0006
640.2208	0.0017
640.4079	-0.0018
640.595	-0.0015
640.7821	-0.0023
640.9692	-0.002
641.1563	0
641.3434	0.0008
641.5304	-0.0049
641.7174	-0.0022
641.9044	-0.0082
642.0914	0.0066
642.2784	0.0012
642.4653	0.0027
642.6523	0.003
642.8392	-0.0005
643.0261	0.0002
643.213	-0.0016
643.3999	-0.0053
643.5867	-0.0049
643.7735	-0.0037
643.9604	-0.0122
644.1472	-0.0019
644.3339	-0.0017
644.5207	-0.0075
644.7075	-0.0022
644.8942	0.0027
645.0809	0.0048
645.2676	0.0093
645.4543	0.0025
645.6409	0.0138
645.8276	0.0023
646.0142	0.0021
646.2008	-0.0024
646.3874	-0.0014
646.574	-0.0002
646.7605	-0.0067
646.9471	-0.0151
647.1336	-0.0005
647.3201	0.0016
647.5066	-0.0054
647.6931	-0.0024
647.8795	0.0024
648.0659	0.0026
648.2524	0.0037
648.4388	-0.0059
648.6252	-0.0011
648.8115	-0.0038
648.9979	-0.0027
649.1842	-0.0043
649.3705	0.0037
649.5568	0.009
649.7431	0.0044
649.9294	0.0012
650.1156	0.0042
650.3018	-0.0055
650.488	0.003
650.6742	0.0045
650.8604	0.0031
651.0466	-0.0014
651.2327	0.0018
651.4188	-0.0002
651.6049	0.0012
651.791	0.0017
651.9771	0.0025
652.1632	0.0023
652.3492	-0.0007
652.5352	-0.0057
652.7212	0.0018
652.9072	0.0004
653.0932	-0.004
653.2791	-0.0041
653.465	-0.0018
653.651	-0.0059
653.8369	-0.007
654.0227	-0.004
654.2086	-0.0014
654.3944	0.0047
654.5803	-0.0056
654.7661	-0.0096
654.9519	-0.0036
655.1377	-0.0089
655.3234	-0.0066
655.5092	-0.007
655.6949	-0.0033
655.8806	-0.0042
656.0663	-0.0039
656.2519	-0.0068
656.4376	-0.0051
656.6232	-0.002
656.8088	-0.0057
656.9945	-0.0024
657.18	-0.0017
657.3656	-0.0081
657.5511	-0.007
657.7367	-0.0045
657.9222	0.0022
658.1077	-0.003
658.2932	0.0025
658.4786	-0.0085
658.6641	-0.0059
658.8495	-0.0017
659.0349	-0.0032
659.2203	0.0052
659.4057	-0.0053
659.591	-0.0034
659.7764	-0.0033
659.9617	-0.0023
660.147	-0.0037
660.3323	0.0007
660.5176	-0
660.7028	-0.0007
660.888	0.0052
661.0733	0.0011
661.2585	-0.0109
661.4436	-0.003
661.6288	-0.0057
661.8139	-0.0044
661.9991	0.0036
662.1842	-0.0042
662.3693	-0.004
662.5544	-0.0041
662.7394	-0.0002
662.9245	0.0005
663.1095	-0.0047
663.2945	0.0029
663.4795	-0.0057
663.6644	0.0052
663.8494	0.0024
664.0343	0.0024
664.2193	-0.0114
664.4042	0.0015
664.589	-0.0054
664.7739	0.0035
664.9587	-0.0061
665.1436	-0.0023
665.3284	0.0003
665.5132	-0.0009
665.698	0.0004
665.8827	0.0069
666.0675	0.0039
666.2522	-0.0045
666.4369	-0.0045
666.6216	0.0035
666.8063	-0.0037
666.9909	0.0021
667.1756	-0.0009
667.3602	0.0095
667.5448	-0.0036
667.7294	0.0069
667.9139	0.0043
668.0985	0.0139
668.283	0.0002
668.4675	0.0027
668.652	0.0041
668.8365	0.006
669.0209	0.006
669.2054	0.0044
669.3898	-0.0036
669.5742	0.0006
669.7586	0.0051
669.943	0.0054
670.1273	0.0045
670.3117	-0.0027
670.496	0.0064
670.6803	0.0099
670.8646	0.0043
671.0488	0.0031
671.2331	0.0086
671.4173	0.0075
671.6015	0.0033
671.7857	0.0053
671.9699	0.0025
672.1541	0.0071
672.3382	0.0057
672.5223	0.0001
672.7064	0.0044
672.8905	0.0086
673.0746	0.0041
673.2587	-0.0065
673.4427	0.0093
673.6267	0.0041
673.8107	0.0048
673.9947	0.0065
674.1787	-0.0016
674.3626	-0.0031
674.5465	0.0013
674.7304	-0.0045
674.9143	0.0031
675.0982	0.0046
675.2821	-0.0087
675.4659	-0.0007
675.6497	0.0069
675.8335	0.0007
676.0173	0.0025
676.2011	-0.0014
676.3849	0.0002
676.5686	-0.0005
676.7523	0.0007
676.936	-0.0007
677.1197	-0.0014
677.3034	-0.0022
677.487	0.002
677.6706	-0.0004
677.8542	0.0008
678.0378	0.0074
678.2214	-0.0022
678.405	-0.001
678.5885	-0.0029
678.772	0.0018
678.9555	-0.0057
679.139	-0.0052
679.3225	0.0031
679.5059	0.0017
679.6894	0.0053
679.8728	-0.0018
680.0562	-0.011
680.2395	-0.0063
680.4229	-0.0065
680.6062	0.0071
680.7896	0.0074
680.9729	-0.0047
681.1562	-0.0034
681.3394	-0.0013
681.5227	-0.0105
681.7059	-0.0023
681.8891	-0.0063
682.0723	0.0064
682.2555	-0.0013
682.4387	-0.0058
682.6218	-0.0053
682.805	0.002
682.9881	-0.0021
683.1712	-0.0007
683.3542	-0.0013
683.5373	0.0047
683.7203	-0.0043
683.9034	-0.001
684.0864	-0.0051
684.2694	-0.0052
684.4523	0.005
684.6353	-0.0052
684.8182	-0.002
685.0011	-0.0082
685.184	0.0009
685.3669	-0.0034
685.5498	0.0026
685.7326	-0.0026
685.9154	-0.0013
686.0982	0.0021
686.281	-0.0001
686.4638	0.0049
686.6465	0.002
686.8293	0.006
687.012	0.0067
687.1947	-0.0027
687.3774	0.0028
687.56	-0.0056
687.7427	0.0006
687.9253	-0.0067
688.1079	-0.0068
688.2905	0.0039
688.4731	0.0021
688.6556	-0.0072
688.8382	-0.0024
689.0207	-0.0009
689.2032	-0.008
689.3857	-0.0116
689.5681	-0.0001
689.7506	-0.0018
689.933	0.0014
690.1154	0.0006
690.2978	-0.0013
690.4802	-0.0006
690.6626	-0.012
690.8449	-0.009
691.0272	0.0061
691.2095	-0.0024
691.3918	-0.0019
691.5741	-0.0026
691.7563	-0.0098
691.9386	0.0021
692.1208	-0.0047
692.303	-0.0036
692.4852	0.0005
692.6673	-0.0023
692.8495	-0.0068
693.0316	0.005
693.2137	0.0008
693.3958	0.0079
693.5778	-0.0008
693.7599	0.0053
693.9419	0.0021
694.1239	0.0026
694.3059	-0.0004
694.4879	0.0048
694.6699	0.0104
694.8518	0.0066
695.0337	-0.0088
695.2157	-0.0008
695.3975	0.0049
695.5794	0.0063
695.7613	0.0084
695.9431	0.0048
696.1249	0.0098
696.3067	-0.0012
696.4885	0.0041
696.6703	-0.0113
696.852	0.0041
697.0337	0
697.2154	-0.0021
697.3971	-0.0016
697.5788	-0.0073
697.7605	0.0061
697.9421	-0.0013
698.1237	-0.0061
698.3053	-0.0052
698.4869	-0.0058
698.6685	-0.0096
698.85	-0.0051
699.0315	0.0037
699.213	0.0041
699.3945	-0.0022
699.576	0.0027
699.7575	0.0038
699.9389	0.0084
700.1203	-0.0064
700.3017	-0.0079
700.4831	-0.0048
700.6645	0.0024
700.8458	0.0152
701.0271	0.0016
701.2084	0.0086
701.3897	-0.0003
701.571	0.0028
701.7523	-0.0063
701.9335	0.0025
702.1147	-0.0024
702.2959	0.0016
702.4771	-0.0002
702.6583	0.002
702.8394	-0.0101
703.0205	-0.0019
703.2016	-0.0066
703.3827	-0.0043
703.5638	0.0095
703.7449	0.0052
703.9259	0.0102
704.1069	-0.0015
704.2879	0.0019
704.4689	0.0032
704.6499	0.0027
704.8308	0.0065
705.0117	0.0009
705.1927	0.0112
705.3735	-0.0001
705.5544	-0.0042
705.7353	-0.0006
705.9161	-0.001
706.0969	-0.0042
706.2777	-0.0051
706.4585	-0.003
706.6393	0.008
706.82	-0.0085
707.0007	-0.0065
707.1815	0.0021
707.3621	0.0088
707.5428	0.0003
707.7235	0.01
707.9041	0.0046
708.0847	-0.0132
708.2653	-0.0031
708.4459	-0.0133
708.6265	0.0023
708.807	0.0063
708.9875	-0.0003
709.168	-0.0008
709.3485	0.0001
709.529	-0.0016
709.7095	-0.0082
709.8899	-0.0006
710.0703	-0.0082
710.2507	-0.0068
710.4311	-0.0075
710.6115	-0.0036
710.7918	-0.0106
710.9721	-0.0085
711.1524	-0.0103
711.3327	0.0007
711.513	0.0087
711.6932	-0.0077
711.8735	-0.0023
712.0537	-0.0005
712.2339	-0.0026
712.4141	-0.002
712.5942	-0.0102
712.7744	-0.0083
712.9545	-0.0097
713.1346	-0.0104
713.3147	-0.0146
713.4947	-0.0103
713.6748	0.0021
713.8548	-0.0079
714.0348	-0.0026
714.2148	-0.0017
714.3948	0.0097
714.5748	-0.0044
714.7547	-0.0036
714.9346	0.0051
715.1145	-0.0078
715.2944	-0.0006
715.4743	-0.0039
715.6541	-0.0064
715.834	0.0068
716.0138	-0.0072
716.1936	-0.0156
716.3733	-0.0089
716.5531	-0.0005
716.7328	-0.0094
716.9126	-0.0052
717.0923	0.005
717.2719	-0.0058
717.4516	0.0015
717.6312	-0.0004
717.8109	-0.0052
717.9905	0.0031
718.1701	-0.0049
718.3496	-0.0053
718.5292	-0.002
718.7087	-0.0059
718.8882	-0.0008
719.0677	-0.001
719.2472	-0.0071
719.4267	0.0001
719.6061	0.0024
719.7856	0.0001
719.965	0.0041
720.1443	-0.0004
720.3237	0.0029
720.5031	-0.0006
720.6824	0.0129
720.8617	-0.0004
721.041	0.0119
721.2203	0.0135
721.3995	0.0057
721.5788	0.0097
721.758	0.0066
721.9372	-0.0017
722.1164	0.0116
722.2956	0.013
722.4747	0.0014
722.6538	0.0016
722.8329	0.0132
723.012	0.0006
723.1911	0.0046
723.3702	-0.0012
723.5492	0.0041
723.7282	-0.0027
723.9072	-0.0023
724.0862	-0.0117
724.2652	-0.004
724.4441	-0.0015
724.623	-0.003
724.8019	-0.0012
724.9808	0.0077
725.1597	-0.0103
725.3385	0.004
725.5174	0.0002
725.6962	-0.0008
725.875	-0.0072
726.0538	0.0091
726.2325	-0.0019
726.4112	-0.0004
726.59	-0.0015
726.7687	-0.0112
726.9474	-0.0036
727.126	-0.0012
727.3047	-0.0076
727.4833	-0.0001
727.6619	-0.0057
727.8405	-0.0122
728.0191	-0.0071
728.1976	-0.0007
728.3762	-0.0035
728.5547	0.006
728.7332	-0.0124
728.9116	-0.0076
729.0901	0.0022
729.2686	-0.0088
729.447	-0.0057
729.6254	-0.0046
729.8038	-0.007
729.9821	-0.0148
730.1605	0.0045
730.3388	-0.0016
730.5171	-0.0045
730.6954	-0.0092
730.8737	0.0016
731.0519	0.006
731.2302	-0.0029
731.4084	0.0039
731.5866	0.0088
731.7648	0.0028
731.9429	-0.0046
732.1211	-0.0042
732.2992	-0.0048
732.4773	-0.0036
732.6554	0.0002
732.8335	0.0012
733.0115	0.0064
733.1896	0.0062
733.3676	-0.0024
733.5456	0.0012
733.7235	-0.0003
733.9015	-0.0005
734.0794	-0.0005
734.2574	-0.0022
734.4353	0.0013
734.6131	0
734.791	-0.0003
734.9689	-0.0034
735.1467	0.0021
735.3245	-0.0082
735.5023	-0.0155
735.68	-0.0015
735.8578	0.0013
736.0355	-0.0144
736.2132	-0.0088
736.3909	-0.0135
736.5686	-0.0114
736.7463	0.0028
736.9239	-0.0116
737.1015	-0.0095
737.2791	0.0009
737.4567	-0.0015
737.6343	-0.0112
737.8118	-0.0049
737.9894	0.0074
738.1669	-0.008
738.3444	-0.01
738.5218	0.0006
738.6993	0.0003
738.8767	-0.0085
739.0541	-0.0039
739.2315	-0.0149
739.4089	0.007
739.5863	0.0024
739.7636	-0.0124
739.9409	-0.0023
740.1182	0.0043
740.2955	-0.0004
740.4728	-0.0108
740.65	0.001
740.8272	-0.003
741.0044	-0.0014
741.1816	-0.0043
741.3588	-0.0031
741.5359	0.0038
741.7131	-0.0126
741.8902	-0.0026
742.0673	-0.006
742.2444	-0.0142
742.4214	-0.0059
742.5985	-0.0161
742.7755	-0.0073
742.9525	-0.018
743.1295	-0.0052
743.3064	-0.0031
743.4834	-0.0018
743.6603	-0.0076
743.8372	-0.0122
744.0141	-0.0034
744.191	-0.0027
744.3678	-0.0013
744.5446	-0.0102
744.7215	-0.0008
744.8982	-0.0104
745.075	-0.006
745.2518	0.0009
745.4285	-0.0008
745.6052	-0.005
745.7819	0.0023
745.9586	-0.0029
746.1353	0.0054
746.3119	0.0002
746.4885	-0.0041
746.6651	0.0043
746.8417	-0.0054
747.0183	0.0029
747.1948	0.0015
747.3714	0.0114
747.5479	0.0064
747.7244	-0.0087
747.9008	0.01
748.0773	0.005
748.2537	-0.0042
748.4301	0.0002
748.6065	0.0061
748.7829	0.0166
748.9593	-0.0046
749.1356	0.0043
749.3119	0.0033
749.4882	-0.0052
749.6645	0.0066
749.8408	0.001
750.017	-0.0018
750.1933	-0.0019
750.3695	-0.0121
750.5457	0.0043
750.7218	-0.0006
750.898	-0.0003
751.0741	-0.0029
751.2502	0.005
751.4263	0.0037
751.6024	-0.0034
751.7784	-0.0034
751.9545	-0.0017
752.1305	0.0033
752.3065	0.0015
752.4825	0.0048
752.6584	-0.0041
752.8344	-0.0047
753.0103	-0.0145
753.1862	-0.0149
753.3621	-0.0045
753.5379	-0.0061
753.7138	-0.0068
753.8896	0.0086
754.0654	0.0103
754.2412	-0.0049
754.417	0.0098
754.5927	-0.0068
754.7685	-0.0058
754.9442	0.0002
755.1199	0.0016
755.2956	-0.0027
755.4712	0.0042
755.6469	0.0014
755.8225	-0.0053
755.9981	0.0002
756.1736	-0.0001
756.3492	0.0039
756.5248	-0.0024
756.7003	0.0051
756.8758	0.0003
757.0513	-0.0095
757.2267	-0.0068
757.4022	-0.0044
757.5776	-0.0085
757.753	0.0003
757.9284	-0.0012
758.1038	0.0038
758.2791	0.0048
758.4545	-0.0092
758.6298	0.0027
758.8051	0.0034
758.9803	0.0009
759.1556	0.0042
759.3308	-0.0034
759.506	0.0166
759.6812	0.0133
759.8564	0.014
760.0316	0.0045
760.2067	0.0182
760.3819	0.0107
760.557	0.0074
760.732	0.0075
760.9071	-0.0144
761.0821	-0.0031
761.2572	0.0041
761.4322	-0.0069
761.6072	0.0045
761.7821	-0.0043
761.9571	-0.0079
762.132	-0.0087
762.3069	-0.0193
762.4818	-0.0113
762.6567	-0.0077
762.8316	-0.0044
763.0064	-0.0075
763.1812	-0.0032
763.356	-0.0151
763.5308	-0.0003
763.7055	0.0021
763.8803	-0.0055
764.055	-0.0038
764.2297	0.0007
764.4044	-0.0023
764.579	0.001
764.7537	-0.0108
764.9283	-0.0064
765.1029	-0.0102
765.2775	0.0018
765.4521	-0.0041
765.6266	-0.0019
765.8011	-0.0149
765.9756	0.0007
766.1501	0.0107
766.3246	-0.0066
766.4991	-0.0017
766.6735	-0.0034
766.8479	-0.0139
767.0223	0.0098
767.1967	-0.0089
767.371	0.0013
767.5454	-0.003
767.7197	0.0047
767.894	-0.0062
768.0683	-0.01
768.2425	-0.0082
768.4168	0.0012
768.591	-0.0042
768.7652	0.0035
768.9394	0.0042
769.1135	0.0002
769.2877	0.004
769.4618	0.0083
769.6359	-0.0028
769.81	0.0096
769.984	-0.0016
770.1581	-0.0065
770.3321	0.0024
770.5061	-0.0061
770.6801	-0.007
770.8541	0.0004
771.028	0.003
771.202	-0.0172
771.3759	0.0042
771.5498	-0.005
771.7236	-0.0049
771.8975	0.0075
772.0713	0.005
772.2451	-0.0064
772.4189	0.0093
772.5927	0.0138
772.7665	0.0057
772.9402	-0.003
773.1139	-0.0028
773.2876	0.0004
773.4613	-0.0017
773.635	0.0053
773.8086	-0.0174
773.9822	0.0071
774.1558	0.0019
774.3294	-0.0134
774.503	0.007
774.6765	0.0102
774.8501	0.0054
775.0236	0.0095
775.1971	0.0143
775.3705	-0.0037
775.544	0.0142
775.7174	-0.0071
775.8908	-0.0073
776.0642	-0.005
776.2376	-0.0046
776.4109	-0.0075
776.5843	-0.002
776.7576	0.004
776.9309	0.0077
777.1041	0.0058
777.2774	0.0092
777.4506	-0.0047
777.6238	-0.0102
777.797	-0.0049
777.9702	-0.0086
778.1434	-0.0022
778.3165	0.0014
778.4896	0.0013
778.6627	0.0066
778.8358	0.0037
779.0089	-0.0008
779.1819	-0.0062
779.3549	0.0071
779.5279	-0.002
779.7009	-0.0019
779.8739	-0.0042
780.0468	0.0083
780.2197	0.0139
780.3926	-0.0031
780.5655	-0.0091
780.7384	-0.0037
780.9112	-0.0067
781.0841	-0.0072
781.2569	0.0024
781.4297	0.0058
781.6024	0.0136
781.7752	0.005
781.9479	0.0149
782.1206	0
782.2933	-0.0113
782.466	-0.0012
782.6386	0.0022
782.8113	-0.0022
782.9839	0.0088
783.1565	0.0195
783.329	0.0125
783.5016	0.003
783.6741	0.0141
783.8466	-0.002
784.0191	0.0285
784.1916	0.0025
784.3641	-0.0053
784.5365	0.0056
784.7089	-0.0123
784.8813	-0.0155
785.0537	-0.0074
785.2261	-0.0235
785.3984	-0.0088
785.5707	-0.003
785.743	0.0141
785.9153	-0.0129
786.0876	-0.0043
786.2598	-0.0003
786.432	-0.0142
786.6042	0.0006
786.7764	-0.0093
786.9486	0.0124
787.1207	-0.0112
787.2928	0.005
787.4649	-0.0018
787.637	0.0032
787.8091	-0.01
787.9811	-0.0086
788.1532	-0.0095
788.3252	0.0085
788.4972	-0.0112
788.6691	0.005
788.8411	0.0101
789.013	-0.0046
789.1849	0.0033
789.3568	-0.0133
789.5287	0.0006
789.7005	0.0015
789.8723	0.002
790.0442	0.0283
790.2159	0.0005
790.3877	-0.0001
790.5595	-0.0048
790.7312	0.0078
790.9029	-0.0018
791.0746	-0.0009
791.2463	-0.0046
791.4179	-0.0013
791.5896	-0.0119
791.7612	0.0002
791.9328	0.001
792.1044	-0.0098
792.2759	-0.0147
792.4474	-0.0022
792.619	0.0151
792.7905	0.0156
792.9619	0.0169
793.1334	0.0188
793.3048	0.0105
793.4762	0.0112
793.6476	0.0147
793.819	-0.0028
793.9904	0.0077
794.1617	0.0064
794.333	0.0062
794.5043	-0.0118
794.6756	0.0039
794.8469	-0.0061
795.0181	0.0123
795.1893	0.001
795.3605	0.0087
795.5317	0.0007
795.7029	-0.0128
795.874	0.0028
796.0452	0.0141
796.2163	0.0225
796.3873	0.0161
796.5584	0.0098
796.7294	0.0117
796.9005	0.0117
797.0715	0.0079
797.2425	0.0015
797.4134	-0.009
797.5844	0.0093
797.7553	-0.0071
797.9262	-0.0045
798.0971	-0.021
798.2679	-0.0114
798.4388	-0.0266
798.6096	-0.0172
798.7804	0.0165
798.9512	0.0055
799.122	-0.0075
799.2927	0.0099
799.4635	0.0065
799.6342	-0.0151
799.8049	-0.0002
799.9755	0.0088
800.1462	0.0024
800.3168	0.0094
800.4874	-0.0036
800.658	0.0184
800.8286	0.0173
800.9991	0.0202
801.1696	0.0113
801.3402	0.0171
801.5106	0.0027
801.6811	0.0113
801.8516	0.0234
802.022	0.0187
802.1924	0.0125
802.3628	0.0011
802.5332	0.0135
802.7035	0.0247
802.8739	-0.0027
803.0442	-0.0077
803.2145	-0.0018
803.3847	-0.0206
803.555	0.0002
803.7252	0.0031
803.8954	-0.0243
804.0656	-0.007
804.2358	0.0057
804.4059	0.0015
804.5761	0.0167
804.7462	0.0198
804.9163	0.0156
805.0864	-0.0024
805.2564	0.0231
805.4264	0.0208
805.5965	0.0036
805.7665	0.0213
805.9364	0.0052
806.1064	0.0136
806.2763	0.0276
806.4462	0.0249
806.6161	0.0166
806.786	0.0233
806.9559	0.0064
807.1257	-0.0162
807.2955	0.0032
807.4653	-0.0094
807.6351	-0.0128
807.8048	0.0043
807.9746	0.0055
808.1443	-0.0016
808.314	0.008
808.4837	-0.0104
808.6533	0.0097
808.8229	0.0255
808.9926	0.0043
809.1622	0.01
809.3317	0.006
809.5013	0.0036
809.6708	0.003
809.8403	0.0098
810.0098	0.0064
810.1793	0.0253
810.3488	0.0021
810.5182	-0.0083
810.6876	0.0113
810.857	-0.0108
811.0264	0.0417
811.1958	0.0241
811.3651	-0.0007
811.5344	0.004
811.7037	0.0188
811.873	-0.0072
812.0422	0.0006
812.2115	0.0101
812.3807	0.0081
812.5499	0.0087
812.7191	0.0379
812.8882	-0.0084
813.0574	0.0271
813.2265	0.0083
813.3956	0.0049
813.5646	0.0012
813.7337	0.0036
813.9027	0.0433
814.0718	0.0288
814.2407	0.0104
814.4097	-0.0011
814.5787	-0.0132
814.7476	0.0109
814.9165	0.0235
815.0854	0.0105
815.2543	0.0091
815.4232	0.0025
815.592	0.0339
815.7608	0.0188
815.9296	0.0119
816.0984	0.0024
816.2671	0.0185
816.4359	0.0108
816.6046	0.0054
816.7733	0.0112
816.942	0.0026
817.1106	0.0113
817.2793	0.0064
817.4479	0.0335
817.6165	0.023
817.785	0.0171
817.9536	-0.0093
818.1221	-0.0016
818.2906	0.024
818.4591	-0.0009
818.6276	-0.0188
818.7961	0.0238
818.9645	0.0389
819.1329	0.0037
819.3013	0.0233
819.4697	0.0401
819.638	0.0193
819.8064	0.0318
819.9747	0.0348
820.143	0.0162
820.3113	0.0081
820.4795	-0.002
820.6477	0.0056
820.816	0.0117
820.9842	0.0211
821.1523	0.0051
821.3205	-0.0177
821.4886	0.0148
821.6567	0.037
821.8248	0.0357
821.9929	0.0304
822.1609	-0.0003
822.329	0.0331
822.497	0.0246
822.665	0.0064
822.833	-0.0042
823.0009	0.0107
823.1688	0.0284
823.3367	0.0389
823.5046	0.0157
823.6725	0.0317
823.8404	-0.0015
824.0082	0.0164
824.176	0.0165
824.3438	0.0077
824.5116	-0.0322
824.6793	0.0126
824.847	0.0013
825.0147	-0.0029
825.1824	0.0325
825.3501	0.027
825.5177	0.0122
825.6854	-0.0127
825.853	0.0263
826.0206	0.0015
826.1881	0.0096
826.3557	-0.0139
826.5232	0.004
826.6907	-0.0057
826.8582	-0.0124
827.0257	-0.0193
827.1931	-0.0075
827.3605	0.0106
827.528	0.0259
827.6953	-0.0106
827.8627	0.0052
828.03	0.04
828.1974	0.002
828.3647	-0.0081
828.532	-0.0318
828.6992	0.0203
828.8665	0.0142
829.0337	-0.0119
829.2009	0.02
829.3681	-0.0035
829.5352	0.0153
829.7024	-0.0121
829.8695	-0.006
830.0366	0.0439
830.2037	0.0099
830.3707	0.0276
830.5378	-0.0273
830.7048	-0.0101
830.8718	-0.008
831.0388	-0.0157
831.2057	0.0001
831.3727	0.0236
831.5396	-0.0258
831.7065	-0.005
831.8734	0.045
832.0402	-0.0128
832.2071	0.0245
832.3739	-0.0158
832.5407	0.0159
832.7075	-0.0182
832.8742	-0.012
833.041	-0.0375
833.2077	0.035
833.3744	0.0683
833.541	-0.0112
833.7077	0.002
833.8743	-0.0083
834.0409	-0.0011
834.2075	0.0091
834.3741	-0.0005
834.5407	-0.0012
834.7072	0.0169
834.8737	0.0081
835.0402	0.0222
835.2067	0.0351
835.3731	0.0232
835.5395	-0.0075
835.706	0.0159
835.8723	-0.0331
836.0387	0.0389
836.2051	-0.0142
836.3714	-0.0206
836.5377	0.017
836.704	-0.0288
836.8703	0.0685
837.0365	0.012
837.2027	0.0132
837.3689	0.0294
837.5351	-0.008
837.7013	-0.0511
837.8674	-0.0153
838.0335	-0.0058
838.1997	-0.0087
838.3657	-0.0394
838.5318	0.0165
838.6978	0.0067
838.8639	0.0269
839.0299	0.0465
839.1958	-0.0069
839.3618	0.0462
839.5277	-0.0142
839.6937	-0.0224
839.8596	-0.0106
840.0254	0.0566
840.1913	0.0836
840.3571	-0.022
840.523	0.0227
840.6888	-0.0262
840.8545	-0.0187
841.0203	0.0054
841.186	0.023
841.3517	0.0129
841.5174	0.0272
841.6831	-0.0316
841.8488	0.0377
842.0144	0.0207
842.18	0.0055
842.3456	-0.0064
842.5112	-0.0505
842.6767	-0.0191
842.8422	0.0255
843.0077	-0.019
843.1732	-0.0302
843.3387	-0.0043
843.5042	0.0367
843.6696	0.038
843.835	0.0327
844.0004	0.0846
844.1657	0.0615
844.3311	-0.0346
844.4964	-0.0505
844.6617	-0.0205
844.827	-0.0158
844.9923	-0.0144
845.1575	-0.0057
845.3227	0.0439
845.4879	-0.0076
845.6531	-0.0345
845.8183	0.0055
845.9834	0.018
846.1485	0.0202
846.3136	-0.049
846.4787	-0.1056
846.6438	0.0235
846.8088	0.0261
846.9738	-0.0911
847.1388	-0.0054
847.3038	-0.0484
847.4687	-0.1426
847.6337	-0.0488
847.7986	-0.0305
847.9635	-0.0802
848.1284	0.0927
848.2932	0.1567
848.458	-0.0245
848.6228	0.0808
848.7876	0.0923
848.9524	-0.0408
849.1172	-0.1171
849.2819	-0.0229
849.4466	-0.0642
849.6113	-0.1
849.7759	-0.0268
849.9406	-0.0296
850.1052	0.0349
850.2698	0.0158
850.4344	-0.0189
850.599	-0.0543
850.7635	0.0255
850.928	-0.026
851.0925	0.0644
851.257	0.0202
851.4215	0.014
851.5859	-0.0062
851.7503	0.0736
851.9147	0.0381
852.0791	-0.1124
852.2434	-0.0272
852.4078	0.1197
852.5721	0.0534
852.7364	-0.033
852.9007	-0.2338
853.0649	-0.0769
853.2291	0.0423
853.3934	-0.0559
853.5575	-0.0046
853.7217	-0.1175
853.8859	-0.1293
854.05	0.0306
854.2141	-0.0369
854.3782	-0.1159
854.5423	-0.1093
854.7063	0.1651
854.8703	-0.0467
855.0343	-0.0149
855.1983	-0.2119
855.3623	0.1764
855.5262	0.0592
855.6901	-0.0994
855.854	0.0438
856.0179	-0.0084
856.1818	0.0699
856.3456	-0.1303
856.5094	-0.1529
856.6732	-0.1253
856.837	-0.1028
857.0008	0.0808
857.1645	-0.0872
857.3282	0.3303
857.4919	0.0849
857.6556	-0.0232
857.8192	-0.0156
857.9828	0.0091
858.1465	-0.0296
858.31	-0.1407
858.4736	-0.1168
858.6372	-0.1293
858.8007	-0.1438
858.9642	0.044
859.1277	0.001
859.2911	0.2415
859.4546	0.021
859.618	-0.304
859.7814	0.0542
859.9448	-0.1065
860.1081	-0.0491
860.2715	0.0215
860.4348	-0.1524
860.5981	0.0008
860.7614	0.0068
860.9246	0.1584
861.0879	-0.32
861.2511	-0.0026
861.4143	-0.1097
861.5774	0.1929
861.7406	-0.2047
861.9037	0.0253
862.0668	0.2955
862.2299	-0.2335
862.393	-0.4925
862.556	0.0539
862.7191	-0.3643
862.8821	-0.2107
863.0451	0.2173
863.208	-0.0757
863.371	0.2022
863.5339	-0.4095
863.6968	0.1258
863.8597	-0.4095
864.0225	-0.0278
864.1854	0.0295
864.3482	-0.166
864.511	0.0096
864.6737	0.0425
864.8365	0.9865
864.9992	-0.3094
865.1619	-0.4729
865.3246	0.0171
865.4873	0.146
865.65	-0.1413
865.8126	-0.0908
865.9752	0.0467
866.1378	0.0398
866.3004	-0
866.4629	0.4662
866.6254	0.0602
866.7879	-0.0695
866.9504	0.0586
867.1129	-0
867.2753	-0.0815
867.4377	-0.0036
867.6001	-0.5616
867.7625	0.0612
867.9249	-0.7507
868.0872	-0.1058
868.2495	-0.1055
868.4118	-0.0274
868.5741	-0.1936
868.7363	-0.1584
868.8986	-0.364
869.0608	-0.2038
869.223	0.1015
869.3851	-0
869.5473	-0
869.7094	0.136
869.8715	-0.3462
870.0336	-0
870.1957	-0.5949
870.3577	-0
870.5197	0.1441
870.6817	-0.4939
870.8437	-0.2615
871.0057	-0
871.1676	-0.1068
871.3295	-0.4567
871.4914	-0
871.6533	-0.4793
871.8151	-0.5473
871.977	-0
872.1388	-0
872.3006	-0
872.4623	0.7225
872.6241	0.4302
872.7858	0.0303
872.9475	-0.2786
873.1092	-0.2223
873.2709	-0
873.4325	-0.0973
873.5941	0.7469
873.7557	-0
873.9173	-0
874.0789	0.0479
874.2404	-0.8523
874.4019	0.2458
874.5634	-0.4441
874.7249	-0.0076
874.8863	0.0878
875.0478	-0.0091
875.2092	-0
875.3706	-0.1473
875.5319	-0.9203
875.6933	-0
875.8546	-0.3085
876.0159	-0
876.1772	-0
876.3385	-0
876.4997	0.5735
876.6609	-0.4278
876.8221	-0.5215
876.9833	0.299
877.1445	-0
877.3056	0.1831
877.4667	-0.2567
877.6278	-0
877.7889	-0
877.9499	-0
878.111	-0
878.272	-0
878.433	1.2512
878.5939	-0.0673
878.7549	0.0398
878.9158	-0.8779
879.0767	0.2706
879.2376	0.5466
879.3984	0.0704
879.5593	-0
879.7201	-0.0215
879.8809	-0.8502
880.0417	-0.0496
880.2024	0.0548
880.3632	0.3358
880.5239	-0.1046
880.6846	0.3295
880.8452	-2.549
881.0059	-1.8854
881.1665	-0
881.3271	-0
881.4877	-0.5839
881.6483	-0.2955
881.8088	-0.4302
881.9693	0.7297
882.1298	0.7297
882.2903	0.7297
