Data from MonoPyChalIsomerACN10uM380nmA_Absorbance_13-38-34-451.txt Node
Date: Fri Jul 05 13:38:34 BST 2024
User: LASERRRRR
Spectrometer: FLMT03099
Trigger mode: 0
Integration Time (sec): 1.000000E-1
Scans to average: 1
Electric dark correction enabled: true
Nonlinearity correction enabled: false
Boxcar width: 0
XAxis mode: Wavelengths
Number of Pixels in Spectrum: 3648
>>>>>Begin Spectral Data<<<<<
179.3399	-0.0721
179.5586	-0.0721
179.7771	-0.0721
179.9957	0.0354
180.2143	-0
180.4329	0.0117
180.6514	-0
180.8699	-0
181.0885	0.0199
181.307	0.0818
181.5255	-0.9059
181.744	-0.4084
181.9625	-0
182.181	-0.8545
182.3994	0.123
182.6179	-0
182.8363	-0.0085
183.0547	-0.047
183.2732	0.2596
183.4916	0.4669
183.71	0.3258
183.9284	0.2643
184.1467	-0.1067
184.3651	0.1305
184.5835	-0.0104
184.8018	0.0929
185.0201	0.1082
185.2385	0.2628
185.4568	0.0534
185.6751	0.2686
185.8934	0.2592
186.1117	0.1593
186.3299	-0.0653
186.5482	0.3201
186.7664	-0.0913
186.9847	-0.0765
187.2029	0.1677
187.4211	0.0599
187.6393	0.6717
187.8575	0.4095
188.0757	0.3044
188.2939	0.0412
188.512	0.2087
188.7302	-0.0767
188.9483	0.2261
189.1665	0.1421
189.3846	0.2906
189.6027	0.0421
189.8208	0.3717
190.0389	0.1587
190.257	0.1023
190.475	0.2729
190.6931	0.3114
190.9111	1.2472
191.1292	0.288
191.3472	0.5682
191.5652	0.1989
191.7832	0.2218
192.0012	0.8664
192.2192	0.3826
192.4371	1.3144
192.6551	0.238
192.873	0.5536
193.091	0.3432
193.3089	0.4242
193.5268	0.5523
193.7447	0.5144
193.9626	0.4936
194.1805	0.5745
194.3984	0.7468
194.6162	0.7568
194.8341	0.6233
195.0519	0.9238
195.2697	0.9939
195.4875	0.6962
195.7054	1.0507
195.9231	0.5612
196.1409	0.6659
196.3587	0.7662
196.5765	0.6623
196.7942	0.6936
197.012	0.6105
197.2297	0.7076
197.4474	1.2189
197.6651	0.6637
197.8828	0.8034
198.1005	0.9441
198.3182	0.9024
198.5358	1.1591
198.7535	0.7942
198.9711	0.7776
199.1888	0.8122
199.4064	0.8348
199.624	0.6773
199.8416	0.9237
200.0592	0.7157
200.2767	0.8435
200.4943	0.7974
200.7119	0.977
200.9294	0.8481
201.1469	0.7012
201.3645	0.7369
201.582	0.784
201.7995	0.9777
202.017	0.9246
202.2344	0.78
202.4519	0.7687
202.6694	0.8479
202.8868	0.8118
203.1042	1.0418
203.3217	1.1485
203.5391	0.7238
203.7565	0.7557
203.9739	0.7493
204.1913	0.7614
204.4086	0.8346
204.626	0.9717
204.8433	0.721
205.0607	0.741
205.278	0.9192
205.4953	0.9109
205.7126	0.7997
205.9299	1.2303
206.1472	1.0438
206.3644	0.8605
206.5817	0.9262
206.7989	0.9324
207.0162	0.856
207.2334	0.8983
207.4506	0.8915
207.6678	0.7909
207.885	0.8572
208.1022	0.8694
208.3194	0.8553
208.5365	0.779
208.7537	0.7142
208.9708	0.6629
209.1879	0.7992
209.405	1.0213
209.6222	0.8713
209.8392	0.743
210.0563	0.7639
210.2734	1.0279
210.4905	0.8317
210.7075	0.8526
210.9245	0.7613
211.1416	1.0051
211.3586	0.8968
211.5756	0.7595
211.7926	0.7571
212.0096	0.777
212.2265	0.7355
212.4435	0.7497
212.6604	0.7766
212.8774	0.7431
213.0943	0.8398
213.3112	0.7244
213.5281	0.7531
213.745	0.7148
213.9619	0.7304
214.1788	0.7024
214.3956	0.6783
214.6125	0.6242
214.8293	0.6721
215.0461	0.6809
215.2629	0.6548
215.4798	0.6634
215.6965	0.6274
215.9133	0.6989
216.1301	0.676
216.3469	0.6835
216.5636	0.7041
216.7803	0.6385
216.9971	0.6331
217.2138	0.6118
217.4305	0.5973
217.6472	0.5873
217.8639	0.69
218.0805	0.5745
218.2972	0.5804
218.5138	0.5598
218.7305	0.5648
218.9471	0.5817
219.1637	0.5242
219.3803	0.5572
219.5969	0.5373
219.8135	0.4697
220.0301	0.5759
220.2466	0.5505
220.4632	0.5597
220.6797	0.4861
220.8962	0.4951
221.1127	0.5353
221.3292	0.534
221.5457	0.4725
221.7622	0.5169
221.9787	0.5247
222.1951	0.526
222.4116	0.5134
222.628	0.4847
222.8444	0.5184
223.0608	0.5015
223.2772	0.5156
223.4936	0.5798
223.71	0.5386
223.9264	0.5273
224.1427	0.5447
224.3591	0.5393
224.5754	0.5441
224.7917	0.5396
225.008	0.5209
225.2243	0.5014
225.4406	0.5709
225.6569	0.5072
225.8732	0.5286
226.0894	0.5186
226.3057	0.5478
226.5219	0.5352
226.7381	0.5244
226.9543	0.5162
227.1705	0.5433
227.3867	0.5684
227.6029	0.5887
227.8191	0.5756
228.0352	0.5401
228.2513	0.5725
228.4675	0.5487
228.6836	0.5674
228.8997	0.5355
229.1158	0.5829
229.3319	0.5513
229.548	0.5345
229.764	0.5629
229.9801	0.5593
230.1961	0.5539
230.4121	0.5432
230.6282	0.574
230.8442	0.568
231.0602	0.5434
231.2761	0.5717
231.4921	0.5989
231.7081	0.5351
231.924	0.5505
232.14	0.5761
232.3559	0.5337
232.5718	0.5621
232.7877	0.558
233.0036	0.521
233.2195	0.5726
233.4353	0.5541
233.6512	0.5515
233.867	0.5392
234.0829	0.5604
234.2987	0.5558
234.5145	0.5619
234.7303	0.5302
234.9461	0.5625
235.1619	0.574
235.3776	0.5555
235.5934	0.5634
235.8091	0.5321
236.0249	0.5306
236.2406	0.5525
236.4563	0.5386
236.672	0.5509
236.8877	0.5487
237.1034	0.5516
237.319	0.5226
237.5347	0.5492
237.7503	0.5133
237.966	0.5417
238.1816	0.5509
238.3972	0.5548
238.6128	0.515
238.8284	0.5307
239.0439	0.5125
239.2595	0.5323
239.475	0.5502
239.6906	0.5355
239.9061	0.5325
240.1216	0.4937
240.3371	0.5248
240.5526	0.5015
240.7681	0.5349
240.9836	0.5053
241.199	0.5084
241.4145	0.4993
241.6299	0.5002
241.8453	0.492
242.0607	0.4892
242.2761	0.4632
242.4915	0.4948
242.7069	0.4468
242.9223	0.4703
243.1376	0.4581
243.353	0.4515
243.5683	0.4432
243.7836	0.4231
243.9989	0.4158
244.2142	0.4093
244.4295	0.4153
244.6448	0.3937
244.86	0.3844
245.0753	0.3726
245.2905	0.3734
245.5057	0.3616
245.721	0.3424
245.9362	0.3596
246.1514	0.3524
246.3665	0.3307
246.5817	0.3298
246.7969	0.3352
247.012	0.3058
247.2271	0.3157
247.4423	0.3128
247.6574	0.3164
247.8725	0.3021
248.0876	0.2902
248.3026	0.2835
248.5177	0.2884
248.7328	0.2789
248.9478	0.2579
249.1628	0.2722
249.3779	0.2752
249.5929	0.2637
249.8079	0.2663
250.0228	0.2526
250.2378	0.2517
250.4528	0.2448
250.6677	0.2304
250.8827	0.2496
251.0976	0.2478
251.3125	0.2447
251.5274	0.2314
251.7423	0.2175
251.9572	0.2248
252.172	0.2111
252.3869	0.2223
252.6017	0.212
252.8166	0.2096
253.0314	0.2022
253.2462	0.2044
253.461	0.2192
253.6758	0.1973
253.8906	0.2148
254.1053	0.1906
254.3201	0.2055
254.5348	0.205
254.7496	0.2224
254.9643	0.2002
255.179	0.1944
255.3937	0.1977
255.6083	0.2032
255.823	0.1943
256.0377	0.1923
256.2523	0.1976
256.467	0.1856
256.6816	0.1993
256.8962	0.1834
257.1108	0.1779
257.3254	0.2001
257.54	0.1896
257.7545	0.1921
257.9691	0.2061
258.1836	0.1859
258.3981	0.1945
258.6127	0.1967
258.8272	0.1767
259.0417	0.1865
259.2561	0.1973
259.4706	0.1824
259.6851	0.1824
259.8995	0.1808
260.114	0.1682
260.3284	0.1816
260.5428	0.191
260.7572	0.1916
260.9716	0.1859
261.186	0.1911
261.4003	0.1898
261.6147	0.1906
261.829	0.1843
262.0433	0.1886
262.2577	0.1872
262.472	0.1905
262.6863	0.1836
262.9005	0.1922
263.1148	0.1878
263.3291	0.1672
263.5433	0.1847
263.7576	0.1901
263.9718	0.1783
264.186	0.1857
264.4002	0.1782
264.6144	0.1894
264.8286	0.202
265.0427	0.1812
265.2569	0.1919
265.471	0.1785
265.6851	0.1849
265.8993	0.1915
266.1134	0.185
266.3275	0.1895
266.5415	0.1782
266.7556	0.1819
266.9697	0.1779
267.1837	0.1947
267.3978	0.1787
267.6118	0.1903
267.8258	0.2103
268.0398	0.1782
268.2538	0.2
268.4677	0.1956
268.6817	0.1786
268.8957	0.1886
269.1096	0.1754
269.3235	0.19
269.5374	0.1764
269.7514	0.1824
269.9652	0.1689
270.1791	0.1697
270.393	0.179
270.6068	0.1789
270.8207	0.1803
271.0345	0.1785
271.2483	0.1801
271.4622	0.1803
271.676	0.167
271.8897	0.1643
272.1035	0.1761
272.3173	0.1674
272.531	0.177
272.7448	0.1719
272.9585	0.1814
273.1722	0.1806
273.3859	0.1888
273.5996	0.1691
273.8133	0.1812
274.0269	0.164
274.2406	0.1598
274.4542	0.1767
274.6679	0.1698
274.8815	0.1697
275.0951	0.1871
275.3087	0.1845
275.5223	0.1959
275.7358	0.183
275.9494	0.1776
276.1629	0.1731
276.3765	0.1763
276.59	0.1771
276.8035	0.1801
277.017	0.189
277.2305	0.1766
277.444	0.1814
277.6574	0.1692
277.8709	0.1912
278.0843	0.1772
278.2978	0.1866
278.5112	0.1741
278.7246	0.1746
278.938	0.1766
279.1513	0.1824
279.3647	0.1882
279.5781	0.1805
279.7914	0.1757
280.0047	0.19
280.2181	0.1868
280.4314	0.1929
280.6447	0.1749
280.8579	0.1714
281.0712	0.1945
281.2845	0.1814
281.4977	0.1834
281.711	0.1749
281.9242	0.1802
282.1374	0.1894
282.3506	0.1822
282.5638	0.185
282.7769	0.1859
282.9901	0.1752
283.2033	0.2159
283.4164	0.1907
283.6295	0.166
283.8426	0.1702
284.0557	0.1878
284.2688	0.1943
284.4819	0.1751
284.695	0.1779
284.908	0.1961
285.1211	0.1766
285.3341	0.1801
285.5471	0.1862
285.7601	0.1723
285.9731	0.1702
286.1861	0.1744
286.3991	0.1889
286.612	0.1847
286.825	0.1787
287.0379	0.1743
287.2508	0.1696
287.4637	0.178
287.6766	0.1748
287.8895	0.1857
288.1024	0.1974
288.3152	0.1919
288.5281	0.1706
288.7409	0.1731
288.9538	0.1699
289.1666	0.1732
289.3794	0.1766
289.5922	0.1707
289.8049	0.1859
290.0177	0.1631
290.2304	0.1767
290.4432	0.18
290.6559	0.1735
290.8686	0.1785
291.0813	0.1726
291.294	0.1753
291.5067	0.1721
291.7194	0.1688
291.932	0.1786
292.1447	0.1773
292.3573	0.158
292.5699	0.1759
292.7825	0.1717
292.9951	0.1638
293.2077	0.1639
293.4203	0.1776
293.6328	0.17
293.8454	0.1744
294.0579	0.1659
294.2704	0.1695
294.4829	0.1602
294.6954	0.1736
294.9079	0.163
295.1204	0.1705
295.3328	0.1622
295.5453	0.1747
295.7577	0.1697
295.9701	0.15
296.1825	0.1761
296.3949	0.1688
296.6073	0.1658
296.8197	0.1633
297.0321	0.1742
297.2444	0.1555
297.4567	0.172
297.6691	0.1785
297.8814	0.156
298.0937	0.1618
298.306	0.1751
298.5182	0.1558
298.7305	0.1684
298.9428	0.1653
299.155	0.167
299.3672	0.1665
299.5794	0.1534
299.7916	0.1576
300.0038	0.1685
300.216	0.16
300.4282	0.1753
300.6403	0.1634
300.8525	0.1614
301.0646	0.1594
301.2767	0.1628
301.4888	0.166
301.7009	0.166
301.913	0.1633
302.125	0.1599
302.3371	0.1547
302.5491	0.1607
302.7612	0.1597
302.9732	0.1525
303.1852	0.1617
303.3972	0.158
303.6092	0.1497
303.8211	0.1523
304.0331	0.1538
304.245	0.1517
304.457	0.1492
304.6689	0.1495
304.8808	0.1645
305.0927	0.1439
305.3046	0.1404
305.5164	0.1585
305.7283	0.1544
305.9401	0.1558
306.152	0.1488
306.3638	0.1524
306.5756	0.1433
306.7874	0.1462
306.9992	0.1479
307.2109	0.147
307.4227	0.1255
307.6344	0.1382
307.8462	0.1421
308.0579	0.1483
308.2696	0.1354
308.4813	0.1348
308.693	0.1344
308.9046	0.1418
309.1163	0.1351
309.328	0.1278
309.5396	0.1234
309.7512	0.1233
309.9628	0.1336
310.1744	0.1331
310.386	0.1281
310.5976	0.1271
310.8091	0.1223
311.0207	0.1226
311.2322	0.1269
311.4437	0.119
311.6552	0.1223
311.8667	0.1234
312.0782	0.101
312.2897	0.1011
312.5012	0.122
312.7126	0.1133
312.924	0.1008
313.1355	0.1232
313.3469	0.1168
313.5583	0.1167
313.7696	0.11
313.981	0.1064
314.1924	0.1106
314.4037	0.1097
314.6151	0.1176
314.8264	0.0975
315.0377	0.1102
315.249	0.1127
315.4603	0.1117
315.6716	0.1117
315.8828	0.1057
316.0941	0.105
316.3053	0.1061
316.5165	0.107
316.7277	0.1072
316.9389	0.1077
317.1501	0.1089
317.3613	0.1107
317.5724	0.0948
317.7836	0.1162
317.9947	0.1093
318.2058	0.103
318.417	0.0919
318.6281	0.1049
318.8391	0.1096
319.0502	0.1081
319.2613	0.0986
319.4723	0.1146
319.6834	0.109
319.8944	0.1034
320.1054	0.1142
320.3164	0.1055
320.5274	0.0964
320.7383	0.1003
320.9493	0.1075
321.1602	0.1141
321.3712	0.1017
321.5821	0.1141
321.793	0.1081
322.0039	0.1072
322.2148	0.1132
322.4257	0.1062
322.6365	0.1157
322.8474	0.1062
323.0582	0.1101
323.269	0.1053
323.4798	0.1144
323.6906	0.1201
323.9014	0.1081
324.1122	0.1116
324.3229	0.1105
324.5337	0.1092
324.7444	0.097
324.9551	0.1229
325.1658	0.1197
325.3765	0.1242
325.5872	0.1084
325.7979	0.1084
326.0085	0.1134
326.2192	0.1279
326.4298	0.112
326.6404	0.1112
326.851	0.1088
327.0616	0.1092
327.2722	0.1146
327.4828	0.1212
327.6933	0.103
327.9039	0.1128
328.1144	0.1319
328.3249	0.1251
328.5354	0.1072
328.7459	0.1156
328.9564	0.1165
329.1669	0.1168
329.3773	0.1148
329.5878	0.1151
329.7982	0.1136
330.0086	0.1074
330.219	0.1147
330.4294	0.1034
330.6398	0.1095
330.8502	0.1098
331.0605	0.113
331.2708	0.1205
331.4812	0.1192
331.6915	0.116
331.9018	0.1179
332.1121	0.1045
332.3224	0.1188
332.5326	0.1226
332.7429	0.1126
332.9531	0.1291
333.1633	0.1203
333.3735	0.1146
333.5837	0.1095
333.7939	0.1178
334.0041	0.1295
334.2143	0.1337
334.4244	0.1285
334.6346	0.1087
334.8447	0.1321
335.0548	0.1167
335.2649	0.1011
335.475	0.1261
335.685	0.1123
335.8951	0.1192
336.1051	0.1202
336.3152	0.1241
336.5252	0.1114
336.7352	0.1233
336.9452	0.1099
337.1552	0.1321
337.3652	0.1084
337.5751	0.1159
337.7851	0.1102
337.995	0.1141
338.2049	0.1294
338.4148	0.1094
338.6247	0.1266
338.8346	0.1063
339.0445	0.1129
339.2543	0.1254
339.4642	0.1163
339.674	0.1065
339.8838	0.1318
340.0936	0.1173
340.3034	0.1353
340.5132	0.1171
340.7229	0.1262
340.9327	0.135
341.1424	0.1212
341.3522	0.1353
341.5619	0.1309
341.7716	0.1331
341.9813	0.1368
342.1909	0.123
342.4006	0.1327
342.6102	0.142
342.8199	0.1434
343.0295	0.1352
343.2391	0.1153
343.4487	0.1392
343.6583	0.1235
343.8679	0.1326
344.0774	0.1321
344.287	0.1422
344.4965	0.1325
344.706	0.1252
344.9155	0.1368
345.125	0.1353
345.3345	0.1385
345.544	0.1217
345.7534	0.1291
345.9629	0.1275
346.1723	0.1353
346.3817	0.1366
346.5911	0.1392
346.8005	0.1276
347.0099	0.1314
347.2193	0.1519
347.4286	0.1228
347.638	0.1366
347.8473	0.1485
348.0566	0.1413
348.2659	0.1356
348.4752	0.1436
348.6845	0.1206
348.8937	0.1322
349.103	0.1453
349.3122	0.1382
349.5214	0.1381
349.7306	0.1421
349.9398	0.1414
350.149	0.1477
350.3582	0.1411
350.5674	0.1504
350.7765	0.1449
350.9856	0.1378
351.1948	0.144
351.4039	0.13
351.613	0.1385
351.822	0.1558
352.0311	0.1608
352.2402	0.143
352.4492	0.1671
352.6582	0.1541
352.8672	0.1495
353.0762	0.1554
353.2852	0.1494
353.4942	0.1378
353.7032	0.1555
353.9121	0.1574
354.1211	0.1604
354.33	0.1495
354.5389	0.1517
354.7478	0.1439
354.9567	0.1439
355.1655	0.1502
355.3744	0.1499
355.5833	0.1533
355.7921	0.1685
356.0009	0.146
356.2097	0.1698
356.4185	0.1737
356.6273	0.171
356.8361	0.1713
357.0448	0.163
357.2536	0.1562
357.4623	0.1532
357.671	0.1626
357.8797	0.155
358.0884	0.1682
358.2971	0.1764
358.5057	0.175
358.7144	0.1812
358.923	0.1787
359.1316	0.1771
359.3402	0.1655
359.5488	0.1697
359.7574	0.167
359.966	0.1664
360.1746	0.1644
360.3831	0.1887
360.5916	0.1652
360.8002	0.17
361.0087	0.1734
361.2172	0.1679
361.4256	0.1853
361.6341	0.1926
361.8426	0.1764
362.051	0.1841
362.2594	0.1812
362.4678	0.1659
362.6762	0.2038
362.8846	0.1825
363.093	0.1794
363.3014	0.1855
363.5097	0.1514
363.718	0.1927
363.9264	0.18
364.1347	0.1826
364.343	0.1783
364.5513	0.199
364.7595	0.2083
364.9678	0.1992
365.176	0.1806
365.3842	0.1899
365.5925	0.1871
365.8007	0.1917
366.0089	0.1923
366.217	0.1821
366.4252	0.1978
366.6333	0.1937
366.8415	0.1941
367.0496	0.1876
367.2577	0.1829
367.4658	0.199
367.6739	0.1874
367.882	0.1997
368.09	0.195
368.2981	0.196
368.5061	0.1887
368.7141	0.1913
368.9221	0.2006
369.1301	0.2003
369.3381	0.1924
369.5461	0.1928
369.754	0.2025
369.962	0.2028
370.1699	0.2009
370.3778	0.2204
370.5857	0.2076
370.7936	0.2001
371.0015	0.1922
371.2093	0.2057
371.4172	0.1995
371.625	0.2037
371.8328	0.1939
372.0406	0.1974
372.2484	0.1956
372.4562	0.2029
372.664	0.2078
372.8717	0.2196
373.0795	0.1738
373.2872	0.2145
373.4949	0.2085
373.7026	0.2012
373.9103	0.216
374.118	0.2169
374.3256	0.214
374.5333	0.2045
374.7409	0.2018
374.9485	0.2301
375.1561	0.2102
375.3637	0.2328
375.5713	0.2254
375.7789	0.2143
375.9864	0.2117
376.194	0.2098
376.4015	0.2308
376.609	0.2204
376.8165	0.2212
377.024	0.1975
377.2315	0.2074
377.4389	0.2288
377.6464	0.2369
377.8538	0.2146
378.0612	0.2117
378.2686	0.2128
378.476	0.2374
378.6834	0.2126
378.8908	0.2245
379.0981	0.2163
379.3055	0.22
379.5128	0.2201
379.7201	0.211
379.9274	0.217
380.1347	0.222
380.342	0.2289
380.5492	0.214
380.7565	0.2155
380.9637	0.231
381.1709	0.2216
381.3781	0.2313
381.5853	0.2355
381.7925	0.2125
381.9997	0.2317
382.2068	0.2307
382.4139	0.2306
382.6211	0.2313
382.8282	0.2387
383.0353	0.2363
383.2424	0.2116
383.4494	0.2178
383.6565	0.2254
383.8635	0.2274
384.0706	0.2369
384.2776	0.2384
384.4846	0.2205
384.6916	0.2239
384.8986	0.2157
385.1055	0.2246
385.3125	0.2242
385.5194	0.2077
385.7263	0.2456
385.9333	0.2405
386.1402	0.2181
386.347	0.2287
386.5539	0.2337
386.7608	0.2354
386.9676	0.2135
387.1744	0.2396
387.3813	0.2094
387.5881	0.2243
387.7948	0.2191
388.0016	0.2348
388.2084	0.2203
388.4151	0.212
388.6219	0.2325
388.8286	0.2099
389.0353	0.2218
389.242	0.2245
389.4487	0.2136
389.6553	0.2239
389.862	0.2068
390.0686	0.2244
390.2753	0.2336
390.4819	0.2103
390.6885	0.2176
390.8951	0.2136
391.1016	0.1955
391.3082	0.21
391.5147	0.2074
391.7213	0.185
391.9278	0.1963
392.1343	0.2201
392.3408	0.2024
392.5473	0.2196
392.7537	0.2085
392.9602	0.2058
393.1666	0.2079
393.373	0.2055
393.5794	0.209
393.7858	0.207
393.9922	0.2038
394.1986	0.2166
394.4049	0.2116
394.6113	0.201
394.8176	0.1874
395.0239	0.1867
395.2302	0.1871
395.4365	0.2036
395.6428	0.1892
395.8491	0.1865
396.0553	0.1875
396.2615	0.2039
396.4678	0.2093
396.674	0.1773
396.8802	0.2039
397.0863	0.2016
397.2925	0.191
397.4987	0.1875
397.7048	0.1757
397.9109	0.1795
398.117	0.1951
398.3231	0.1974
398.5292	0.1895
398.7353	0.2061
398.9413	0.1911
399.1474	0.1846
399.3534	0.1896
399.5594	0.1894
399.7654	0.1984
399.9714	0.2058
400.1774	0.189
400.3833	0.1607
400.5893	0.1806
400.7952	0.1746
401.0011	0.1931
401.207	0.2001
401.4129	0.1812
401.6188	0.1903
401.8247	0.1856
402.0305	0.1736
402.2364	0.1672
402.4422	0.1829
402.648	0.1961
402.8538	0.202
403.0596	0.1698
403.2654	0.1805
403.4711	0.1701
403.6768	0.1979
403.8826	0.2044
404.0883	0.1934
404.294	0.1947
404.4997	0.177
404.7054	0.1886
404.911	0.163
405.1167	0.1935
405.3223	0.1839
405.5279	0.2026
405.7335	0.1951
405.9391	0.2033
406.1447	0.189
406.3502	0.2094
406.5558	0.1623
406.7613	0.196
406.9668	0.1902
407.1724	0.1798
407.3778	0.1819
407.5833	0.1753
407.7888	0.1878
407.9942	0.2051
408.1997	0.1634
408.4051	0.1734
408.6105	0.1691
408.8159	0.1897
409.0213	0.1796
409.2267	0.1964
409.432	0.1803
409.6374	0.1958
409.8427	0.1691
410.048	0.182
410.2533	0.1945
410.4586	0.1879
410.6639	0.1631
410.8691	0.1858
411.0744	0.1711
411.2796	0.1776
411.4848	0.1638
411.69	0.1738
411.8952	0.2182
412.1004	0.1595
412.3056	0.1978
412.5107	0.1917
412.7158	0.2041
412.921	0.1821
413.1261	0.1826
413.3312	0.1654
413.5362	0.1638
413.7413	0.1716
413.9464	0.1771
414.1514	0.1819
414.3564	0.1696
414.5614	0.178
414.7664	0.1748
414.9714	0.1926
415.1764	0.1719
415.3813	0.1835
415.5863	0.1672
415.7912	0.1643
415.9961	0.1688
416.201	0.1812
416.4059	0.1714
416.6108	0.1613
416.8156	0.1861
417.0205	0.1595
417.2253	0.1623
417.4301	0.1639
417.6349	0.1753
417.8397	0.1583
418.0445	0.1788
418.2492	0.1792
418.454	0.1754
418.6587	0.177
418.8634	0.1856
419.0681	0.1689
419.2728	0.1667
419.4775	0.1732
419.6822	0.1575
419.8868	0.1413
420.0915	0.1774
420.2961	0.1523
420.5007	0.1598
420.7053	0.1654
420.9099	0.1635
421.1144	0.1626
421.319	0.1764
421.5235	0.172
421.728	0.1645
421.9325	0.1783
422.137	0.1771
422.3415	0.1602
422.546	0.1646
422.7504	0.1668
422.9549	0.1621
423.1593	0.1414
423.3637	0.1602
423.5681	0.149
423.7725	0.1413
423.9769	0.1534
424.1812	0.1481
424.3856	0.1503
424.5899	0.1515
424.7942	0.1644
424.9985	0.1473
425.2028	0.1404
425.4071	0.1686
425.6113	0.1341
425.8156	0.1621
426.0198	0.1496
426.224	0.1289
426.4282	0.1392
426.6324	0.1469
426.8366	0.1472
427.0407	0.1404
427.2449	0.1509
427.449	0.1462
427.6531	0.1217
427.8572	0.1384
428.0613	0.1304
428.2654	0.1499
428.4694	0.1304
428.6735	0.1255
428.8775	0.1342
429.0815	0.1441
429.2855	0.1299
429.4895	0.1281
429.6935	0.1216
429.8975	0.1287
430.1014	0.1116
430.3053	0.1167
430.5093	0.1306
430.7132	0.0973
430.9171	0.1154
431.1209	0.1361
431.3248	0.1163
431.5286	0.13
431.7325	0.1159
431.9363	0.1064
432.1401	0.1128
432.3439	0.1172
432.5477	0.0826
432.7514	0.1099
432.9552	0.1132
433.1589	0.0928
433.3627	0.0967
433.5664	0.112
433.7701	0.1071
433.9737	0.0842
434.1774	0.1062
434.3811	0.0931
434.5847	0.0938
434.7883	0.0965
434.9919	0.0997
435.1955	0.0936
435.3991	0.0928
435.6027	0.1161
435.8062	0.0953
436.0098	0.0882
436.2133	0.0923
436.4168	0.076
436.6203	0.0791
436.8238	0.1038
437.0272	0.0793
437.2307	0.0728
437.4341	0.0993
437.6375	0.1002
437.841	0.0773
438.0443	0.0761
438.2477	0.0756
438.4511	0.0722
438.6545	0.0944
438.8578	0.0849
439.0611	0.0732
439.2644	0.0701
439.4677	0.0651
439.671	0.0542
439.8743	0.0917
440.0775	0.0817
440.2808	0.0727
440.484	0.0706
440.6872	0.0546
440.8904	0.0448
441.0936	0.0755
441.2967	0.0555
441.4999	0.0583
441.703	0.0559
441.9062	0.0445
442.1093	0.0436
442.3124	0.0605
442.5155	0.0339
442.7185	0.0545
442.9216	0.0293
443.1246	0.0728
443.3276	0.0501
443.5307	0.0405
443.7337	0.0613
443.9366	0.0626
444.1396	0.0494
444.3426	0.0413
444.5455	0.0496
444.7484	0.0489
444.9513	0.0357
445.1542	0.0476
445.3571	0.0309
445.56	0.0306
445.7628	0.045
445.9657	0.0373
446.1685	0.0611
446.3713	0.0423
446.5741	0.0393
446.7769	0.0276
446.9797	0.0226
447.1824	0.0413
447.3852	0.0373
447.5879	0.0428
447.7906	0.0429
447.9933	0.0317
448.196	0.0213
448.3986	0.0197
448.6013	0.0254
448.8039	0.0156
449.0066	0.0189
449.2092	0.0253
449.4118	0.0317
449.6143	0.0283
449.8169	0.0349
450.0195	0.0184
450.222	0.0108
450.4245	0.0237
450.627	0.0299
450.8295	0.026
451.032	0.0211
451.2345	0.0346
451.4369	0.033
451.6394	0.0287
451.8418	-0.0041
452.0442	0.0068
452.2466	0.023
452.449	-0.0115
452.6513	0.024
452.8537	0.0228
453.056	0.0109
453.2583	0.0197
453.4607	0.0082
453.663	0.007
453.8652	0.027
454.0675	0.0168
454.2697	0.0133
454.472	0.0123
454.6742	0.0144
454.8764	0.0058
455.0786	0.0168
455.2808	0.0183
455.4829	0.0099
455.6851	0.0094
455.8872	0.0154
456.0893	0.0254
456.2915	-0.0116
456.4935	0.0074
456.6956	0.005
456.8977	0.0333
457.0997	0.0061
457.3018	-0.0012
457.5038	-0.0052
457.7058	0.0138
457.9078	-0.012
458.1098	0.0271
458.3117	0.0172
458.5137	0.0024
458.7156	0.0152
458.9175	-0.0208
459.1194	0.0016
459.3213	0.0036
459.5232	-0.0059
459.725	-0.0129
459.9269	-0.0043
460.1287	-0.0012
460.3305	-0.0044
460.5323	0.0067
460.7341	-0.005
460.9359	0.0052
461.1376	0.0099
461.3394	0.0066
461.5411	-0.0017
461.7428	-0.0004
461.9445	0.002
462.1462	0.0171
462.3479	-0.0104
462.5495	0.0123
462.7512	0.0137
462.9528	-0.0053
463.1544	-0.0035
463.356	-0.0072
463.5576	0.0028
463.7592	-0.0042
463.9607	0.0047
464.1623	0.012
464.3638	0.0168
464.5653	-0.0122
464.7668	-0.0091
464.9683	0.0131
465.1697	0.0199
465.3712	-0.011
465.5726	-0.0095
465.7741	-0.0028
465.9755	-0.017
466.1769	-0.002
466.3782	-0.0111
466.5796	-0.0009
466.7809	0.017
466.9823	-0.0018
467.1836	-0.0125
467.3849	-0.0033
467.5862	0.0011
467.7875	-0.0092
467.9887	-0.0013
468.19	-0.001
468.3912	-0.0151
468.5924	-0.0098
468.7936	0.0027
468.9948	0.0123
469.196	0.0014
469.3972	-0.0189
469.5983	0.0044
469.7994	-0.012
470.0006	-0.0181
470.2017	-0.0121
470.4027	0.0072
470.6038	0.005
470.8049	-0.0176
471.0059	-0.0093
471.2069	-0.0237
471.408	0.0123
471.6089	0.0054
471.8099	-0.0029
472.0109	0.0034
472.2119	-0.0169
472.4128	-0.0034
472.6137	0.0098
472.8146	-0.0189
473.0155	-0.0136
473.2164	-0.0042
473.4173	0.0101
473.6181	-0.0086
473.819	-0.0061
474.0198	-0.0153
474.2206	-0.0032
474.4214	-0.0053
474.6222	-0.0104
474.8229	-0.0067
475.0237	-0.0071
475.2244	-0.0079
475.4251	-0.0067
475.6258	-0.0082
475.8265	-0.0109
476.0272	-0.0043
476.2278	-0.0045
476.4285	0.0082
476.6291	-0.0128
476.8297	0.0043
477.0303	-0.0165
477.2309	-0.0075
477.4315	-0.0125
477.632	-0.0043
477.8326	-0.0081
478.0331	-0.0057
478.2336	0.0093
478.4341	0.002
478.6346	-0.0062
478.8351	0.0014
479.0355	-0.007
479.236	-0.0046
479.4364	0.005
479.6368	-0.0024
479.8372	-0.011
480.0376	-0.0085
480.2379	-0.0213
480.4383	-0.0029
480.6386	0.0007
480.8389	0.001
481.0392	-0.0029
481.2395	-0.0052
481.4398	0.0039
481.6401	0.0008
481.8403	-0.0035
482.0405	0.0076
482.2408	-0.0156
482.441	0.0061
482.6411	-0.02
482.8413	-0.0029
483.0415	-0.0117
483.2416	-0.0185
483.4417	-0.0114
483.6419	-0.0096
483.8419	-0.0161
484.042	0.0112
484.2421	-0.0032
484.4422	-0.0058
484.6422	-0.0079
484.8422	-0.0047
485.0422	-0.016
485.2422	-0.0011
485.4422	-0.0113
485.6422	-0.0095
485.8421	-0.0056
486.042	0.0007
486.242	-0.0027
486.4419	-0.0158
486.6417	-0.0201
486.8416	-0.0052
487.0415	-0.0077
487.2413	-0.0103
487.4411	-0.0118
487.641	-0.0183
487.8408	0.0014
488.0405	-0.0172
488.2403	-0.013
488.4401	0.0058
488.6398	-0.0075
488.8395	-0.004
489.0392	0.0048
489.2389	-0.0101
489.4386	-0.0069
489.6383	-0.0095
489.8379	-0.0046
490.0376	-0.0024
490.2372	-0.0168
490.4368	-0.0196
490.6364	-0.0039
490.836	-0.011
491.0355	-0.0112
491.2351	-0.0096
491.4346	-0.004
491.6341	-0.0247
491.8336	-0.0031
492.0331	-0.0184
492.2326	-0.0152
492.432	-0.0114
492.6315	-0.0126
492.8309	-0.011
493.0303	-0.0222
493.2297	-0.0103
493.4291	0.0009
493.6284	-0.0068
493.8278	-0.0059
494.0271	-0.0021
494.2264	-0.0018
494.4257	-0.0084
494.625	-0.0095
494.8243	-0.0241
495.0236	-0.0198
495.2228	-0.0062
495.422	-0.0017
495.6213	-0.0108
495.8205	-0.0106
496.0196	0.0088
496.2188	0.0057
496.418	-0.0145
496.6171	-0.0109
496.8162	-0.0224
497.0153	-0.005
497.2144	-0.0182
497.4135	-0.0033
497.6126	-0.0236
497.8116	-0.0117
498.0107	-0.007
498.2097	-0.0209
498.4087	-0.0154
498.6077	-0.0076
498.8067	-0.0103
499.0056	-0.0022
499.2046	-0.0164
499.4035	-0.0283
499.6024	-0.0136
499.8013	-0.0044
500.0002	-0.0203
500.199	-0.0152
500.3979	-0.0081
500.5967	-0.02
500.7956	-0.0018
500.9944	-0.0123
501.1932	-0.0178
501.3919	-0.0136
501.5907	-0.0125
501.7895	-0.0164
501.9882	-0.0077
502.1869	-0.014
502.3856	-0.0159
502.5843	-0.0161
502.783	-0.0054
502.9816	-0.0073
503.1803	-0.0185
503.3789	-0.0178
503.5775	-0.0008
503.7761	-0.0095
503.9747	-0.0114
504.1732	-0.0099
504.3718	-0.0075
504.5703	-0.0151
504.7689	-0.0179
504.9674	-0.0139
505.1658	-0.0138
505.3643	-0.0106
505.5628	-0.0074
505.7612	-0.0167
505.9597	-0.0015
506.1581	-0.0163
506.3565	-0.0025
506.5549	-0.005
506.7532	-0.0226
506.9516	-0.0078
507.1499	-0.0112
507.3482	-0.0116
507.5465	-0.0079
507.7448	-0.0088
507.9431	-0.0114
508.1414	-0.0107
508.3396	-0.0026
508.5379	-0.0044
508.7361	-0.0085
508.9343	-0.0008
509.1325	0.0036
509.3306	-0.0089
509.5288	-0.0104
509.7269	-0.0156
509.9251	-0.0002
510.1232	-0.0168
510.3213	-0.0083
510.5193	-0.0037
510.7174	-0.0098
510.9154	-0.0167
511.1135	-0.0123
511.3115	-0.0068
511.5095	-0.0086
511.7075	-0.005
511.9055	-0.0059
512.1034	-0.0107
512.3014	-0.0001
512.4993	-0.0088
512.6972	-0.0104
512.8951	-0.018
513.093	-0.0009
513.2908	-0.0054
513.4887	0.0095
513.6865	-0.0058
513.8844	-0.0071
514.0822	-0.0135
514.2799	-0.0106
514.4777	-0.0083
514.6755	-0.0083
514.8732	-0.0148
515.0709	-0.0169
515.2687	-0.0061
515.4664	-0.0082
515.664	-0.0099
515.8617	-0.0139
516.0594	-0.017
516.257	0.0002
516.4546	-0.017
516.6522	0.0006
516.8498	0.0004
517.0474	-0.0008
517.2449	0.0039
517.4425	-0.0143
517.64	-0.006
517.8375	-0.0046
518.035	-0.0141
518.2325	-0.0105
518.43	-0.0163
518.6274	-0.0081
518.8249	-0.0145
519.0223	-0.0071
519.2197	-0.0072
519.4171	-0.0123
519.6145	-0.0177
519.8118	-0.0087
520.0092	-0.0118
520.2065	-0.0154
520.4038	-0.0138
520.6011	-0.0099
520.7984	-0.0156
520.9956	-0.0103
521.1929	-0.0154
521.3901	-0.0119
521.5874	-0.0062
521.7846	-0.0114
521.9818	-0.0158
522.1789	-0.0181
522.3761	-0.01
522.5732	-0.0097
522.7704	-0.0164
522.9675	-0.0118
523.1646	-0.0159
523.3617	-0.0138
523.5587	-0.0103
523.7558	-0.0131
523.9528	-0.0127
524.1498	-0.0087
524.3468	-0.0009
524.5438	-0.0053
524.7408	-0.0081
524.9378	-0.0008
525.1347	-0.012
525.3316	0.0004
525.5285	-0.0087
525.7254	-0.0121
525.9223	-0.0039
526.1192	-0.0028
526.316	-0.0209
526.5129	-0.0099
526.7097	-0.0016
526.9065	-0.0166
527.1033	-0.0098
527.3	-0.0083
527.4968	-0.0113
527.6935	-0.0089
527.8903	-0.009
528.087	-0.0009
528.2837	-0.0128
528.4804	-0.0108
528.677	-0.0072
528.8737	0.0088
529.0703	-0.0059
529.2669	-0.008
529.4635	-0.015
529.6601	-0.0116
529.8567	-0.0044
530.0532	-0.0165
530.2498	-0.0006
530.4463	-0.0043
530.6428	-0.0136
530.8393	0.0006
531.0358	-0.0089
531.2322	0.0068
531.4287	-0.0086
531.6251	-0.0138
531.8215	-0.0047
532.0179	-0.0076
532.2143	-0.0069
532.4107	-0.004
532.607	-0.0117
532.8034	-0.0074
532.9997	-0.0054
533.196	-0.0064
533.3923	-0.0091
533.5886	-0.0044
533.7848	0.0073
533.9811	-0.0065
534.1773	-0.002
534.3735	-0.0022
534.5697	-0.0094
534.7659	-0.006
534.9621	-0.0056
535.1582	-0.0191
535.3544	-0.0151
535.5505	-0.0157
535.7466	-0.0124
535.9427	-0.0071
536.1387	-0.0178
536.3348	-0.0127
536.5308	-0.0011
536.7269	-0.0134
536.9229	-0.0038
537.1189	-0.0064
537.3148	-0.0045
537.5108	-0.0079
537.7068	-0.0094
537.9027	0.002
538.0986	-0.0028
538.2945	-0.0029
538.4904	-0.0109
538.6863	-0.0057
538.8821	-0.0043
539.078	-0.0128
539.2738	0.001
539.4696	-0.003
539.6654	-0.0024
539.8611	0.0092
540.0569	-0.0123
540.2526	-0.0111
540.4484	-0.0019
540.6441	-0.0052
540.8398	-0.003
541.0355	-0.0031
541.2311	-0.0057
541.4268	-0.0108
541.6224	-0.0005
541.818	-0.0026
542.0136	-0.0175
542.2092	-0.0037
542.4048	0.0016
542.6003	-0.0019
542.7959	-0.0039
542.9914	-0.004
543.1869	-0.0018
543.3824	-0.0033
543.5779	-0.0044
543.7734	-0.0078
543.9688	-0.0135
544.1642	0.0067
544.3596	-0.0136
544.555	-0.0053
544.7504	-0.0097
544.9458	-0.0036
545.1411	0.002
545.3365	0.001
545.5318	-0.0036
545.7271	-0.001
545.9224	-0.0069
546.1177	0.0038
546.3129	-0.0021
546.5081	-0.0039
546.7034	-0.0074
546.8986	-0.0043
547.0938	-0.0107
547.289	-0.0035
547.4841	-0.0045
547.6793	-0.0007
547.8744	-0.014
548.0695	-0.0074
548.2646	-0.0112
548.4597	0.0078
548.6548	0
548.8498	0.0032
549.0448	0.0045
549.2399	-0.0075
549.4349	0.0078
549.6298	-0.0002
549.8248	0.0103
550.0198	-0.0036
550.2147	-0.0054
550.4096	-0.0093
550.6045	-0.0058
550.7994	-0.0009
550.9943	0.001
551.1892	-0.003
551.384	-0.0008
551.5788	-0.0159
551.7737	0.0053
551.9685	-0.0076
552.1632	0.0062
552.358	-0.0147
552.5528	0.0031
552.7475	-0.0046
552.9422	0.0069
553.1369	-0.0039
553.3316	0.0075
553.5263	-0.0017
553.7209	0.0018
553.9156	0.0006
554.1102	-0.0047
554.3048	-0.0049
554.4994	0.0011
554.694	0.001
554.8885	0.0076
555.0831	-0.0132
555.2776	0.0029
555.4721	0.0029
555.6666	-0.0026
555.8611	0.0002
556.0555	-0.0049
556.25	0.003
556.4444	-0.0099
556.6388	0.0024
556.8332	0.0014
557.0276	-0
557.222	-0.0043
557.4163	-0.0019
557.6107	-0.0098
557.805	0.0071
557.9993	-0.0095
558.1936	0.0034
558.3879	-0.004
558.5821	-0.0044
558.7764	-0.0099
558.9706	0.002
559.1648	0.0046
559.359	-0.003
559.5532	-0.0017
559.7473	-0.0007
559.9415	0.0033
560.1356	-0.0043
560.3297	-0.0194
560.5238	-0.0014
560.7179	-0.0045
560.9119	-0.0047
561.106	0.0037
561.3	-0.0074
561.494	-0.0069
561.688	-0.0078
561.882	-0.0077
562.076	0.0056
562.2699	0.0015
562.4639	-0.0101
562.6578	0.0038
562.8517	0.0023
563.0456	-0.0009
563.2395	-0.0081
563.4333	-0.0045
563.6272	0.0067
563.821	-0.0084
564.0148	-0.0014
564.2086	-0.0082
564.4024	-0.0033
564.5961	-0.009
564.7899	0.0023
564.9836	-0.0111
565.1773	-0.0026
565.371	0.0049
565.5647	0.0015
565.7584	0.0013
565.952	-0.0016
566.1456	0.0044
566.3393	-0.0017
566.5329	-0.0021
566.7264	0.0024
566.92	-0.0099
567.1136	0.0055
567.3071	0.0007
567.5006	0.0012
567.6941	-0.003
567.8876	0.0026
568.0811	-0.0105
568.2745	-0.0032
568.468	0.0079
568.6614	-0.0039
568.8548	-0.0007
569.0482	-0.0054
569.2416	-0.001
569.4349	-0.002
569.6283	-0.0048
569.8216	-0.006
570.0149	-0.0002
570.2082	-0.0011
570.4015	0.0024
570.5947	-0.0027
570.788	0.0029
570.9812	0.0005
571.1744	0.0023
571.3676	-0.0072
571.5608	-0.0046
571.754	0.0054
571.9471	0.0049
572.1402	0.0038
572.3333	-0.0061
572.5264	-0.0036
572.7195	0.005
572.9126	-0.0016
573.1057	-0.0048
573.2987	-0.0062
573.4917	-0.0051
573.6847	-0.0022
573.8777	0.0094
574.0707	0.0098
574.2636	-0.0039
574.4566	-0.005
574.6495	0.0041
574.8424	-0.0059
575.0353	-0.0021
575.2281	0.0074
575.421	0.0034
575.6138	0.0023
575.8067	0.0018
575.9995	0.0084
576.1923	0.0092
576.385	-0.0015
576.5778	-0.0031
576.7706	0.0064
576.9633	-0.0011
577.156	0.0065
577.3487	-0.0023
577.5414	-0.0016
577.734	-0.005
577.9267	-0.0012
578.1193	-0.007
578.3119	-0.0036
578.5045	0.0043
578.6971	-0.004
578.8897	0.0043
579.0822	0.0015
579.2747	0.0007
579.4673	-0.0031
579.6598	-0.0016
579.8522	-0.0031
580.0447	-0.0017
580.2372	0.0046
580.4296	0.0007
580.622	-0.0016
580.8144	-0.0004
581.0068	-0.0003
581.1992	-0.0116
581.3915	-0.004
581.5839	-0.0104
581.7762	-0.0077
581.9685	-0.0022
582.1608	0.0041
582.353	-0.0029
582.5453	-0.0056
582.7375	0.002
582.9298	-0.0044
583.122	-0
583.3142	0.0019
583.5063	0.0009
583.6985	0.0021
583.8906	-0.001
584.0827	-0.0048
584.2749	-0.0004
584.4669	-0.0003
584.659	-0.0043
584.8511	-0.004
585.0431	-0.0031
585.2352	0.0013
585.4272	-0.0035
585.6192	-0.001
585.8111	0.0017
586.0031	-0.0029
586.195	0.0015
586.387	0.0078
586.5789	-0.0004
586.7708	0.0028
586.9627	-0.0009
587.1545	-0.007
587.3464	0.0002
587.5382	-0.0014
587.73	0.0036
587.9218	0.0004
588.1136	-0.0047
588.3053	0.0081
588.4971	-0.0095
588.6888	-0.0097
588.8805	-0.005
589.0722	-0.0006
589.2639	0.0018
589.4556	-0.0029
589.6472	-0.0057
589.8389	-0.008
590.0305	-0.0051
590.2221	0.0002
590.4137	-0.0068
590.6052	0.0117
590.7968	0.004
590.9883	-0.0032
591.1798	-0.0017
591.3713	-0.0002
591.5628	0.0024
591.7543	0.0074
591.9458	-0.0025
592.1372	0.0091
592.3286	0.0017
592.52	0.0059
592.7114	-0.0041
592.9028	-0.0051
593.0941	-0.0007
593.2855	0.0015
593.4768	0.0006
593.6681	-0.0048
593.8594	0.0024
594.0506	-0.0031
594.2419	0.0051
594.4331	0.0058
594.6244	0.0107
594.8156	-0.0089
595.0067	0.0023
595.1979	0.0055
595.3891	0.0017
595.5802	-0.0001
595.7713	0.0002
595.9624	-0.0007
596.1535	0.0075
596.3446	0.001
596.5357	-0.0011
596.7267	0.0119
596.9177	0.0032
597.1087	-0.0058
597.2997	-0.0046
597.4907	-0.0026
597.6817	0.0015
597.8726	-0.001
598.0635	-0.004
598.2544	0.003
598.4453	-0.0046
598.6362	-0.0043
598.827	-0.0012
599.0179	-0.0009
599.2087	0.0004
599.3995	-0.0012
599.5903	-0.0007
599.7811	0.0039
599.9718	-0.0023
600.1626	0.0012
600.3533	-0.0052
600.544	-0.0005
600.7347	0.0052
600.9254	-0.0002
601.116	-0.0061
601.3067	-0.0064
601.4973	-0.0011
601.6879	0.0004
601.8785	-0.0047
602.0691	-0
602.2596	0.0062
602.4502	-0.002
602.6407	0.0021
602.8312	-0.0003
603.0217	-0.0095
603.2122	-0.0007
603.4027	0.0012
603.5931	0.005
603.7835	-0.0062
603.9739	-0.0045
604.1643	-0.0013
604.3547	-0.0063
604.5451	-0.0013
604.7354	-0.0028
604.9257	-0.005
605.116	-0.0066
605.3063	-0.002
605.4966	0.0049
605.6869	-0.0002
605.8771	0.0059
606.0673	0.0061
606.2575	0.0031
606.4477	0.0102
606.6379	0.0043
606.8281	-0.0001
607.0182	-0.0007
607.2083	0.0077
607.3985	0.0022
607.5885	0.0051
607.7786	0.0058
607.9687	-0.0016
608.1587	0.0108
608.3488	0.0056
608.5388	0.0005
608.7288	-0.001
608.9187	-0.0016
609.1087	-0.0019
609.2986	-0.0047
609.4886	0.002
609.6785	0.0073
609.8684	0.0097
610.0582	0.0039
610.2481	0.0022
610.4379	-0.0006
610.6278	-0.002
610.8176	-0.0018
611.0074	0.0055
611.1971	-0.0004
611.3869	-0.0011
611.5766	-0.0015
611.7664	0.0089
611.9561	0.0068
612.1458	-0.0028
612.3354	-0.0032
612.5251	0.008
612.7147	-0.0005
612.9044	0.0082
613.094	-0.005
613.2836	0.0048
613.4731	-0.0007
613.6627	-0.0035
613.8522	0.0019
614.0417	0.0017
614.2313	0.0003
614.4207	-0.0093
614.6102	-0.0045
614.7997	-0.0026
614.9891	-0.0056
615.1785	0.0003
615.3679	-0.0077
615.5573	0.0089
615.7467	-0.0049
615.9361	-0.0053
616.1254	-0.0102
616.3147	-0.0022
616.504	-0.0043
616.6933	0.0016
616.8826	0.0036
617.0718	0.0041
617.2611	0.0009
617.4503	-0.0029
617.6395	-0.0037
617.8287	0.005
618.0179	-0.0023
618.207	0.0055
618.3961	0.0039
618.5853	-0.001
618.7744	0.0031
618.9634	0.0064
619.1525	0.0032
619.3416	0.006
619.5306	0.0069
619.7196	0.0021
619.9086	-0.0038
620.0976	0.0007
620.2866	0.0036
620.4755	0.0082
620.6645	0.0044
620.8534	0.0123
621.0423	0.0044
621.2312	0.006
621.42	0.0033
621.6089	0.0038
621.7977	0.0055
621.9865	-0.0053
622.1753	0.0139
622.3641	-0.0011
622.5529	0.0084
622.7416	0.0003
622.9303	-0.0028
623.1191	0.0075
623.3078	-0.0026
623.4964	0.0058
623.6851	0.0004
623.8737	0.0058
624.0624	0.0112
624.251	-0.0011
624.4396	0.0038
624.6282	0.0012
624.8167	0.0027
625.0053	0.0012
625.1938	-0.0037
625.3823	0.0052
625.5708	-0.0032
625.7593	-0.0057
625.9477	0.0011
626.1362	-0.001
626.3246	0.0088
626.513	0.0036
626.7014	0.0103
626.8898	0.0019
627.0781	-0.0035
627.2665	-0.0029
627.4548	0.0086
627.6431	0.007
627.8314	0.0049
628.0197	0.0056
628.2079	-0.0046
628.3962	-0.0012
628.5844	0.0078
628.7726	0.005
628.9608	0.006
629.1489	0.0027
629.3371	0.0123
629.5252	0.0082
629.7134	0.0112
629.9015	0.0024
630.0895	0.0002
630.2776	0.0046
630.4657	0.002
630.6537	0.0034
630.8417	0.0014
631.0297	-0.0008
631.2177	0.0066
631.4057	-0.0115
631.5936	-0.0014
631.7815	-0.0009
631.9695	0.0034
632.1574	0.0071
632.3452	0.0109
632.5331	0.0046
632.7209	-0.0029
632.9088	0.0123
633.0966	0.0099
633.2844	-0.0071
633.4722	0.0065
633.6599	0.0078
633.8477	0.0036
634.0354	0.0009
634.2231	-0.007
634.4108	0.0035
634.5985	0.0077
634.7861	-0.0044
634.9738	0.0017
635.1614	0.0028
635.349	0.0052
635.5366	-0.0004
635.7242	0.0023
635.9117	0.005
636.0993	-0.002
636.2868	0.0127
636.4743	-0.0089
636.6618	0.0138
636.8492	0.0026
637.0367	0.0012
637.2241	-0.0035
637.4115	-0.0052
637.5989	-0.0005
637.7863	-0.0039
637.9737	-0.0012
638.161	-0.0022
638.3484	-0.0043
638.5357	0.0022
638.723	-0.0034
638.9103	-0.0026
639.0975	0.0088
639.2848	-0.0006
639.472	-0.0035
639.6592	0.0044
639.8464	0.0112
640.0336	0.0023
640.2208	0.0019
640.4079	-0.0011
640.595	0.0024
640.7821	-0.0014
640.9692	-0.0011
641.1563	0.0012
641.3434	-0.0051
641.5304	-0.0069
641.7174	-0.0039
641.9044	-0.0034
642.0914	0.0034
642.2784	0.0042
642.4653	0.0045
642.6523	0.0008
642.8392	0.0019
643.0261	0.0033
643.213	0.0018
643.3999	-0.0026
643.5867	0.0003
643.7735	-0.001
643.9604	-0.0143
644.1472	-0
644.3339	-0.003
644.5207	-0.0028
644.7075	-0.0057
644.8942	-0.0003
645.0809	0.005
645.2676	0.0023
645.4543	-0.0009
645.6409	-0
645.8276	-0.0009
646.0142	0.0053
646.2008	-0.0049
646.3874	-0.0072
646.574	0.0001
646.7605	0.0013
646.9471	-0.0074
647.1336	-0.0062
647.3201	0.0075
647.5066	-0.0032
647.6931	0.0061
647.8795	-0.0011
648.0659	0.0075
648.2524	0.0047
648.4388	-0.0047
648.6252	-0.0083
648.8115	-0.0064
648.9979	0.0022
649.1842	-0.0012
649.3705	0.0051
649.5568	0.0044
649.7431	0.0046
649.9294	0.0003
650.1156	0.0061
650.3018	-0.0031
650.488	0.0068
650.6742	0.0027
650.8604	-0.0015
651.0466	-0.0036
651.2327	-0.0043
651.4188	0.0045
651.6049	0.0005
651.791	0.0002
651.9771	0.0003
652.1632	0.0031
652.3492	0.0021
652.5352	0.0016
652.7212	-0.004
652.9072	0.0041
653.0932	-0.0036
653.2791	-0.0092
653.465	-0.0007
653.651	-0.0041
653.8369	-0.0034
654.0227	-0.0073
654.2086	0.0035
654.3944	-0.0029
654.5803	-0.0079
654.7661	0.0045
654.9519	0.0031
655.1377	-0.0029
655.3234	-0.0032
655.5092	-0.0051
655.6949	-0.0064
655.8806	-0.005
656.0663	-0.0037
656.2519	-0.0021
656.4376	-0.0057
656.6232	0.0005
656.8088	-0.0014
656.9945	-0.0001
657.18	0.0028
657.3656	0.0027
657.5511	-0.0087
657.7367	-0.0059
657.9222	0.0054
658.1077	0.0009
658.2932	0.0009
658.4786	-0.0051
658.6641	-0.0009
658.8495	0.0003
659.0349	-0.0074
659.2203	0.0011
659.4057	0.0004
659.591	0.0004
659.7764	-0.0048
659.9617	-0.0021
660.147	-0.0051
660.3323	0.0018
660.5176	0.0068
660.7028	-0.0026
660.888	0.0013
661.0733	-0.006
661.2585	-0.005
661.4436	-0.0055
661.6288	-0.0052
661.8139	-0.0026
661.9991	-0.0039
662.1842	-0.0017
662.3693	-0.0006
662.5544	-0.0065
662.7394	0.0016
662.9245	-0.0015
663.1095	-0.0038
663.2945	-0.0026
663.4795	-0.0072
663.6644	-0.0001
663.8494	0.0007
664.0343	-0
664.2193	-0.0037
664.4042	0.0032
664.589	-0.0067
664.7739	-0.0019
664.9587	-0.0018
665.1436	-0.0016
665.3284	0.006
665.5132	-0.0018
665.698	0.0078
665.8827	0.005
666.0675	0.0029
666.2522	-0.0084
666.4369	0.0016
666.6216	0.0052
666.8063	0.0046
666.9909	-0.0001
667.1756	-0.0037
667.3602	-0.0028
667.5448	-0.0037
667.7294	0.0057
667.9139	0.0041
668.0985	0.0114
668.283	0.0082
668.4675	0.0024
668.652	0.0047
668.8365	-0.0009
669.0209	0.0049
669.2054	0.0063
669.3898	-0.0014
669.5742	0.0046
669.7586	0.0061
669.943	0.0074
670.1273	0.0067
670.3117	0.0062
670.496	0.0062
670.6803	0.0077
670.8646	0.0099
671.0488	0.001
671.2331	0.0061
671.4173	0.0037
671.6015	0.0018
671.7857	0.0003
671.9699	0.0017
672.1541	0.0019
672.3382	0.0051
672.5223	0.0101
672.7064	0.0099
672.8905	0.004
673.0746	0.0084
673.2587	-0.0025
673.4427	0.0071
673.6267	0.0106
673.8107	0.0064
673.9947	-0.0016
674.1787	-0.0014
674.3626	-0.0064
674.5465	0.001
674.7304	0.003
674.9143	-0.0041
675.0982	0.0077
675.2821	-0.0091
675.4659	0.0007
675.6497	0.003
675.8335	0.0014
676.0173	0.0007
676.2011	0.0006
676.3849	0.007
676.5686	-0.0059
676.7523	0.0044
676.936	0.0029
677.1197	-0.0029
677.3034	-0.0043
677.487	0.0034
677.6706	-0.0034
677.8542	0.004
678.0378	0.0042
678.2214	-0.0007
678.405	-0.0042
678.5885	-0.009
678.772	0.0012
678.9555	-0.0061
679.139	-0.0023
679.3225	0.0027
679.5059	-0.0011
679.6894	0.0015
679.8728	-0.0041
680.0562	-0.0068
680.2395	0.0015
680.4229	-0.0014
680.6062	0.0042
680.7896	0.0023
680.9729	-0.004
681.1562	-0.0016
681.3394	-0.0002
681.5227	-0.0116
681.7059	-0.0069
681.8891	0.0004
682.0723	0.0077
682.2555	0.0062
682.4387	-0.0062
682.6218	-0.0069
682.805	-0.0045
682.9881	0.0024
683.1712	0.0012
683.3542	-0.0026
683.5373	-0.0013
683.7203	-0.0021
683.9034	-0.0033
684.0864	-0.0049
684.2694	0.0033
684.4523	-0.0029
684.6353	-0.0044
684.8182	0.0012
685.0011	-0.0101
685.184	0.0026
685.3669	-0.0008
685.5498	0.0031
685.7326	-0.0037
685.9154	-0.0047
686.0982	0.0142
686.281	0.0115
686.4638	0.0115
686.6465	0.0004
686.8293	-0
687.012	0.0034
687.1947	-0.0058
687.3774	0.0063
687.56	-0.0086
687.7427	0.0118
687.9253	-0.0074
688.1079	-0.0004
688.2905	0.0041
688.4731	-0.0047
688.6556	-0.0032
688.8382	-0.0011
689.0207	0.0037
689.2032	-0.0077
689.3857	-0.0054
689.5681	-0.0031
689.7506	-0.0022
689.933	-0.0048
690.1154	-0.004
690.2978	-0.0027
690.4802	0.0027
690.6626	-0.0162
690.8449	0.0015
691.0272	0.0018
691.2095	-0.0043
691.3918	-0.0035
691.5741	0.0022
691.7563	-0.0023
691.9386	0.0034
692.1208	-0.004
692.303	0.0009
692.4852	-0.0043
692.6673	0.0013
692.8495	0.003
693.0316	0.0016
693.2137	0.0071
693.3958	0.006
693.5778	0.0039
693.7599	-0.002
693.9419	0.0008
694.1239	0.0083
694.3059	-0.0037
694.4879	0.0079
694.6699	0.0026
694.8518	0.0102
695.0337	-0.0062
695.2157	0.0062
695.3975	0.0057
695.5794	0.0032
695.7613	0.005
695.9431	-0.0011
696.1249	0.0057
696.3067	0.002
696.4885	0.0086
696.6703	-0.0028
696.852	-0.0006
697.0337	0.0021
697.2154	-0.0023
697.3971	-0.0025
697.5788	-0.0035
697.7605	-0.0041
697.9421	0.0021
698.1237	-0.0065
698.3053	-0.0017
698.4869	0.0015
698.6685	-0.0142
698.85	-0.004
699.0315	0.0095
699.213	-0.0052
699.3945	-0.008
699.576	0.0021
699.7575	0.0121
699.9389	0.0059
700.1203	-0.0044
700.3017	-0.0048
700.4831	0.0039
700.6645	0.0033
700.8458	0.0098
701.0271	-0.0031
701.2084	0.0069
701.3897	-0.0009
701.571	0.0061
701.7523	-0.0042
701.9335	0.006
702.1147	-0.0032
702.2959	0.001
702.4771	-0.0034
702.6583	-0.001
702.8394	-0.0037
703.0205	-0.0058
703.2016	-0.0017
703.3827	0.0006
703.5638	0.0104
703.7449	-0.0016
703.9259	0.0112
704.1069	0.0006
704.2879	0.0019
704.4689	0.0035
704.6499	0.005
704.8308	-0.0013
705.0117	0.006
705.1927	0.0067
705.3735	0.0105
705.5544	-0.002
705.7353	0.0039
705.9161	0.0014
706.0969	0.0009
706.2777	-0.0047
706.4585	-0.0018
706.6393	0.0027
706.82	-0.0045
707.0007	0.0016
707.1815	0.0012
707.3621	0.0133
707.5428	-0.0012
707.7235	0.0113
707.9041	0.0002
708.0847	-0.0025
708.2653	-0.0015
708.4459	-0.0178
708.6265	0.0005
708.807	0.0042
708.9875	0.0018
709.168	0.006
709.3485	-0.001
709.529	-0.0014
709.7095	-0.0115
709.8899	-0.0059
710.0703	-0.0099
710.2507	0.004
710.4311	-0.0014
710.6115	-0.0134
710.7918	-0.0043
710.9721	-0.0066
711.1524	-0.0044
711.3327	-0.0089
711.513	0.0038
711.6932	-0.0023
711.8735	0.0097
712.0537	-0.0037
712.2339	-0.0064
712.4141	-0.0141
712.5942	-0.009
712.7744	-0.0081
712.9545	-0.0011
713.1346	-0.0073
713.3147	-0.0077
713.4947	-0.0025
713.6748	-0.0039
713.8548	-0.0081
714.0348	0.002
714.2148	-0.0046
714.3948	0.0067
714.5748	0.0018
714.7547	-0.0055
714.9346	-0.0023
715.1145	-0.0072
715.2944	-0.0045
715.4743	-0.0003
715.6541	-0.011
715.834	0.0057
716.0138	-0.0075
716.1936	-0.007
716.3733	-0.005
716.5531	0.0083
716.7328	-0.0026
716.9126	-0.0065
717.0923	0.0012
717.2719	-0.0014
717.4516	-0
717.6312	0.0057
717.8109	-0.0082
717.9905	-0.0017
718.1701	-0.0024
718.3496	-0.0103
718.5292	-0.0036
718.7087	-0.0064
718.8882	0.0035
719.0677	0.0082
719.2472	-0.0022
719.4267	0.0001
719.6061	-0.007
719.7856	0.0009
719.965	0.0048
720.1443	-0.0028
720.3237	0.0093
720.5031	0.007
720.6824	0.0148
720.8617	-0.0075
721.041	0.0013
721.2203	0.0155
721.3995	0.0076
721.5788	0.0118
721.758	0.0058
721.9372	0.0058
722.1164	0.0048
722.2956	0.0071
722.4747	0.0057
722.6538	0.0054
722.8329	0.0137
723.012	0.0093
723.1911	0.0118
723.3702	0.0076
723.5492	0.0083
723.7282	-0.0045
723.9072	0.012
724.0862	-0.0076
724.2652	-0.006
724.4441	0.0008
724.623	0.0045
724.8019	-0.0028
724.9808	0.0057
725.1597	-0.0111
725.3385	0.0077
725.5174	-0.0045
725.6962	-0.005
725.875	-0.002
726.0538	0.0089
726.2325	0.0009
726.4112	-0.0038
726.59	-0.0016
726.7687	-0.0005
726.9474	-0.0083
727.126	-0.0019
727.3047	-0.0014
727.4833	-0.012
727.6619	-0.0098
727.8405	-0.0084
728.0191	-0.0095
728.1976	0.0015
728.3762	0.0028
728.5547	0.0005
728.7332	-0.01
728.9116	-0.0061
729.0901	-0.0016
729.2686	-0.0038
729.447	-0.002
729.6254	-0.0052
729.8038	-0.0018
729.9821	-0.0103
730.1605	0.0005
730.3388	-0.0063
730.5171	-0.0018
730.6954	-0.0069
730.8737	-0.0026
731.0519	0.0055
731.2302	0.0014
731.4084	0.0086
731.5866	0.0088
731.7648	0.0128
731.9429	0.009
732.1211	-0.0139
732.2992	0.0044
732.4773	-0.0028
732.6554	0.0035
732.8335	0.0012
733.0115	0.0078
733.1896	0.0095
733.3676	-0.0036
733.5456	0.0033
733.7235	0.0044
733.9015	0.0011
734.0794	-0.0047
734.2574	0.0019
734.4353	0.0026
734.6131	0.0111
734.791	0.0076
734.9689	0.0031
735.1467	0.0091
735.3245	-0.0157
735.5023	-0.0087
735.68	-0.0022
735.8578	0.0076
736.0355	-0.0174
736.2132	-0.0116
736.3909	-0.0054
736.5686	-0.0121
736.7463	-0.0056
736.9239	-0.0119
737.1015	-0.0062
737.2791	0.0064
737.4567	-0.0003
737.6343	-0.0054
737.8118	-0.0037
737.9894	0.007
738.1669	-0.0122
738.3444	-0.0047
738.5218	0.0062
738.6993	-0.0057
738.8767	0.0069
739.0541	0.0109
739.2315	-0.0125
739.4089	-0.0057
739.5863	0.0005
739.7636	-0.0064
739.9409	-0.0055
740.1182	-0.0015
740.2955	0.0024
740.4728	0.0003
740.65	-0.0118
740.8272	-0.0042
741.0044	-0.0062
741.1816	-0.0066
741.3588	-0.0041
741.5359	-0.0108
741.7131	-0.0149
741.8902	-0.0049
742.0673	0.0032
742.2444	-0.0102
742.4214	-0.0105
742.5985	-0.0109
742.7755	-0.0161
742.9525	-0.0095
743.1295	-0.0103
743.3064	-0.0066
743.4834	0.0024
743.6603	-0.0031
743.8372	-0.0011
744.0141	-0.0044
744.191	-0.0025
744.3678	0.0025
744.5446	-0.0016
744.7215	0.0147
744.8982	0.003
745.075	-0.0093
745.2518	0.005
745.4285	0.007
745.6052	-0.0048
745.7819	-0.0052
745.9586	0.0005
746.1353	-0.0033
746.3119	-0.0056
746.4885	0.0046
746.6651	0.0019
746.8417	0.0048
747.0183	0.0042
747.1948	0.0056
747.3714	0.009
747.5479	0.0079
747.7244	-0.0025
747.9008	0.0111
748.0773	0.0001
748.2537	0.0054
748.4301	-0.011
748.6065	-0.0033
748.7829	0.003
748.9593	-0.007
749.1356	-0.004
749.3119	0.015
749.4882	-0.0108
749.6645	0.0108
749.8408	-0.0043
750.017	-0.0024
750.1933	0.0057
750.3695	-0.0018
750.5457	0.0034
750.7218	-0.0003
750.898	-0.0002
751.0741	0.0014
751.2502	0.0038
751.4263	-0.0009
751.6024	0.0013
751.7784	-0.0051
751.9545	0
752.1305	0.0018
752.3065	-0.0021
752.4825	-0.0043
752.6584	-0.0095
752.8344	-0.0011
753.0103	-0.0006
753.1862	-0.0145
753.3621	-0.0092
753.5379	0.0023
753.7138	-0.0024
753.8896	0.0015
754.0654	-0.0017
754.2412	0.0071
754.417	0.0002
754.5927	-0.0104
754.7685	-0.0033
754.9442	-0.0041
755.1199	0.0076
755.2956	0.0043
755.4712	-0.0003
755.6469	0.0073
755.8225	-0.0035
755.9981	-0.0012
756.1736	0.0011
756.3492	0.0065
756.5248	0.0006
756.7003	-0.0019
756.8758	0.0064
757.0513	-0.0122
757.2267	0.0004
757.4022	0.0019
757.5776	-0.0045
757.753	0.0048
757.9284	-0
758.1038	0.0082
758.2791	0.0053
758.4545	-0.0118
758.6298	-0.0077
758.8051	0.0095
758.9803	0.0043
759.1556	0.0056
759.3308	0.0037
759.506	0.0093
759.6812	0.0123
759.8564	0.0161
760.0316	0.0032
760.2067	0.0082
760.3819	0.0075
760.557	0.0074
760.732	0.0008
760.9071	-0.0081
761.0821	0.0012
761.2572	0.0032
761.4322	-0.0023
761.6072	-0.006
761.7821	-0.013
761.9571	-0.0057
762.132	-0.0026
762.3069	-0.0143
762.4818	-0.0097
762.6567	-0.0079
762.8316	-0.0011
763.0064	-0.001
763.1812	-0.0055
763.356	-0.0032
763.5308	0.0024
763.7055	-0.002
763.8803	-0.002
764.055	0.0078
764.2297	0.0012
764.4044	0.0029
764.579	-0.0058
764.7537	-0.0143
764.9283	0.0073
765.1029	-0.0044
765.2775	-0.0017
765.4521	-0.0122
765.6266	-0.0028
765.8011	-0.0134
765.9756	-0.0003
766.1501	0.0062
766.3246	-0.0069
766.4991	-0.0146
766.6735	-0.0084
766.8479	-0.0073
767.0223	0.0133
767.1967	-0.0028
767.371	-0.0035
767.5454	-0.0006
767.7197	0.0012
767.894	-0.0001
768.0683	-0.0033
768.2425	0.0031
768.4168	0.0032
768.591	0.0048
768.7652	0.0046
768.9394	0.0056
769.1135	0.0059
769.2877	0.0109
769.4618	0.0011
769.6359	0.0031
769.81	0.0068
769.984	-0.0069
770.1581	0.0028
770.3321	0.0032
770.5061	-0.0045
770.6801	-0.0052
770.8541	-0.0012
771.028	0.0095
771.202	-0.007
771.3759	0.0112
771.5498	-0.0008
771.7236	0.0007
771.8975	0.0058
772.0713	0.0109
772.2451	0.0128
772.4189	0.003
772.5927	0.0019
772.7665	0.0104
772.9402	-0.0033
773.1139	-0.0018
773.2876	0.005
773.4613	0.0096
773.635	0.0084
773.8086	-0.0145
773.9822	0.0005
774.1558	0.013
774.3294	-0.0129
774.503	-0.0034
774.6765	0.0049
774.8501	-0.0003
775.0236	0.0115
775.1971	0.0049
775.3705	-0.0117
775.544	0.0011
775.7174	-0.0064
775.8908	-0.0084
776.0642	0.0068
776.2376	0.0024
776.4109	-0.0053
776.5843	-0.0056
776.7576	0.0049
776.9309	0.0161
777.1041	0.0044
777.2774	0.0121
777.4506	-0.0016
777.6238	-0.0099
777.797	-0.0056
777.9702	-0.0122
778.1434	0.0069
778.3165	-0.005
778.4896	-0.0067
778.6627	0.0049
778.8358	0.0131
779.0089	0.001
779.1819	0.001
779.3549	0.0101
779.5279	-0.0013
779.7009	0.0101
779.8739	0.0109
780.0468	-0.0013
780.2197	-0.0028
780.3926	-0.0094
780.5655	-0.0015
780.7384	-0.0016
780.9112	-0.0117
781.0841	-0.0042
781.2569	0.0061
781.4297	-0.0042
781.6024	0.0022
781.7752	0.0077
781.9479	0.0089
782.1206	0.0001
782.2933	0.0015
782.466	0.0203
782.6386	0.0041
782.8113	0.002
782.9839	-0.0003
783.1565	0.0104
783.329	0.0141
783.5016	0.007
783.6741	0.0009
783.8466	0.0002
784.0191	0.0094
784.1916	-0.0013
784.3641	0.0036
784.5365	0.0093
784.7089	-0.0085
784.8813	-0.0039
785.0537	0.0058
785.2261	0.0089
785.3984	-0.0117
785.5707	-0.0109
785.743	-0.0044
785.9153	-0.0054
786.0876	0.0079
786.2598	-0.01
786.432	-0.0058
786.6042	0.004
786.7764	-0.0066
786.9486	-0.0054
787.1207	0.0129
787.2928	0.0012
787.4649	0.0073
787.637	0.0047
787.8091	-0.0024
787.9811	-0.007
788.1532	0.0039
788.3252	0.011
788.4972	-0.0082
788.6691	0.0015
788.8411	0.0048
789.013	0.0023
789.1849	0.0011
789.3568	0.0016
789.5287	0.005
789.7005	0.0021
789.8723	0.0029
790.0442	0.0042
790.2159	0.013
790.3877	-0.001
790.5595	-0.0088
790.7312	0.01
790.9029	0.0087
791.0746	0.0009
791.2463	0.0083
791.4179	0.0094
791.5896	-0.0056
791.7612	-0.0007
791.9328	0.0136
792.1044	-0.0128
792.2759	-0.0109
792.4474	-0.0076
792.619	0.0031
792.7905	0.0153
792.9619	0.0096
793.1334	0.0153
793.3048	0.0238
793.4762	0.0162
793.6476	0.0078
793.819	-0.0046
793.9904	0.0175
794.1617	-0.0069
794.333	-0.0016
794.5043	-0.0118
794.6756	-0.0038
794.8469	0.0097
795.0181	0.0013
795.1893	0.0063
795.3605	0.0111
795.5317	-0.0017
795.7029	0.0029
795.874	-0.0004
796.0452	0.0142
796.2163	0.0095
796.3873	0.0114
796.5584	0.0172
796.7294	0.0161
796.9005	0.0221
797.0715	0.0038
797.2425	-0.0071
797.4134	0.0159
797.5844	0.0105
797.7553	-0.0046
797.9262	0.0156
798.0971	-0.0125
798.2679	-0.0095
798.4388	-0.0018
798.6096	0.0084
798.7804	0.0043
798.9512	0.0205
799.122	0.008
799.2927	0.0009
799.4635	0.022
799.6342	-0.0007
799.8049	0.007
799.9755	0.0059
800.1462	0.0065
800.3168	0.0034
800.4874	0.0003
800.658	0.0211
800.8286	0.0036
800.9991	0.0201
801.1696	0.0136
801.3402	0.0174
801.5106	0.0005
801.6811	0.0045
801.8516	0.0184
802.022	0.0166
802.1924	0.0024
802.3628	0.0265
802.5332	0.0101
802.7035	0.0383
802.8739	0.0161
803.0442	-0.0042
803.2145	0.0278
803.3847	0.0025
803.555	0.0004
803.7252	-0.0025
803.8954	-0.0267
804.0656	0.001
804.2358	0.0121
804.4059	0.0112
804.5761	0.006
804.7462	0.0176
804.9163	0.0236
805.0864	0.012
805.2564	-0.0054
805.4264	0.0064
805.5965	0.0087
805.7665	0.0224
805.9364	0.0067
806.1064	0.0331
806.2763	0.0277
806.4462	0.0235
806.6161	0.0093
806.786	0.0229
806.9559	0.0031
807.1257	0.0107
807.2955	0.0151
807.4653	-0.0017
807.6351	0.0044
807.8048	0.0104
807.9746	0.0244
808.1443	0.0172
808.314	-0.01
808.4837	0.0082
808.6533	0.0144
808.8229	0.0248
808.9926	0.0264
809.1622	0.0291
809.3317	0.0061
809.5013	0.0159
809.6708	0.0103
809.8403	0.0132
810.0098	0.0104
810.1793	0.0211
810.3488	0.0197
810.5182	-0.0104
810.6876	0.0137
810.857	-0.0012
811.0264	0.0412
811.1958	0.0103
811.3651	0.0197
811.5344	-0.0046
811.7037	0.0124
811.873	0.0103
812.0422	0.0256
812.2115	0.0122
812.3807	-0.0144
812.5499	0.0051
812.7191	0.0208
812.8882	0.0338
813.0574	0.022
813.2265	0.0015
813.3956	0.0235
813.5646	0.0211
813.7337	0.0037
813.9027	0.0357
814.0718	0.0328
814.2407	0.0288
814.4097	0.0149
814.5787	0.0141
814.7476	0.0228
814.9165	0.0368
815.0854	0.0032
815.2543	0.0063
815.4232	0.0005
815.592	0.0276
815.7608	-0.0004
815.9296	0.0157
816.0984	0.0203
816.2671	0.0189
816.4359	-0.0049
816.6046	0.0103
816.7733	0.0104
816.942	-0.0054
817.1106	0.0174
817.2793	0.0237
817.4479	0.0303
817.6165	0.0114
817.785	0.0405
817.9536	0.0072
818.1221	0.0159
818.2906	0.0317
818.4591	0.0186
818.6276	0.031
818.7961	0.0153
818.9645	0.0394
819.1329	0.0066
819.3013	0.0043
819.4697	0.0378
819.638	0.0138
819.8064	0.0194
819.9747	0.0464
820.143	0.002
820.3113	0.0147
820.4795	0.0273
820.6477	0.0132
820.816	0.0224
820.9842	0.0308
821.1523	0.0079
821.3205	-0.0019
821.4886	0.005
821.6567	0.0215
821.8248	0.0266
821.9929	0.004
822.1609	0.0094
822.329	0.0276
822.497	0.0422
822.665	0.0131
822.833	0.01
823.0009	0.0246
823.1688	0.0242
823.3367	0.0207
823.5046	0.0408
823.6725	0.0118
823.8404	0.0229
824.0082	0.0353
824.176	0.0167
824.3438	0.0316
824.5116	-0.0109
824.6793	0.0235
824.847	-0.0038
825.0147	0.0258
825.1824	0.0226
825.3501	0.0226
825.5177	-0.0163
825.6854	0.0055
825.853	0.0243
826.0206	-0.0043
826.1881	-0.0078
826.3557	-0.0263
826.5232	0.0379
826.6907	-0.0204
826.8582	0.0021
827.0257	-0.0029
827.1931	0.0273
827.3605	0.0297
827.528	-0.0025
827.6953	-0.0046
827.8627	-0.0016
828.03	0.0357
828.1974	0.0103
828.3647	-0.0169
828.532	-0.0036
828.6992	0.0108
828.8665	-0.0006
829.0337	-0.0022
829.2009	0.039
829.3681	0.0144
829.5352	0.0329
829.7024	-0.005
829.8695	-0.0284
830.0366	0.0484
830.2037	0.0029
830.3707	0.0164
830.5378	0.0025
830.7048	0.025
830.8718	0.0064
831.0388	-0.0059
831.2057	0.033
831.3727	0.0061
831.5396	0.022
831.7065	-0.0053
831.8734	0.018
832.0402	-0.0339
832.2071	0.0072
832.3739	0.0065
832.5407	0.0212
832.7075	0.0099
832.8742	-0.017
833.041	-0.0042
833.2077	-0.014
833.3744	0.0185
833.541	0.0409
833.7077	0.0023
833.8743	-0.0169
834.0409	0.0275
834.2075	0.0094
834.3741	-0.0002
834.5407	-0.0297
834.7072	0.0396
834.8737	-0.012
835.0402	-0.0167
835.2067	0.0492
835.3731	0.0078
835.5395	0.0207
835.706	0.025
835.8723	0.0034
836.0387	0.0551
836.2051	0.0352
836.3714	0.0295
836.5377	0.0341
836.704	-0.0129
836.8703	-0.0094
837.0365	-0.0244
837.2027	-0.0448
837.3689	0.0552
837.5351	0.0088
837.7013	-0.0392
837.8674	-0.0356
838.0335	-0.0228
838.1997	0.0055
838.3657	0.005
838.5318	0.0245
838.6978	0.0452
838.8639	0.0467
839.0299	-0.0097
839.1958	0.0029
839.3618	0.0154
839.5277	0.0335
839.6937	0.027
839.8596	0.0278
840.0254	-0.0068
840.1913	0.0131
840.3571	0.0537
840.523	0.0067
840.6888	0.0063
840.8545	-0.007
841.0203	0.0041
841.186	0.0573
841.3517	0.0284
841.5174	0.0258
841.6831	0.0209
841.8488	0.0572
842.0144	0.0369
842.18	0.0281
842.3456	-0.004
842.5112	0.0367
842.6767	-0.0459
842.8422	0.0249
843.0077	0.0111
843.1732	-0.0318
843.3387	-0.0038
843.5042	-0.0394
843.6696	-0.0406
843.835	0.0487
844.0004	0.0436
844.1657	0.0223
844.3311	-0.0376
844.4964	-0.0836
844.6617	-0.0124
844.827	0.0222
844.9923	0.0054
845.1575	0.0594
845.3227	-0.0095
845.4879	0.0064
845.6531	-0.0592
845.8183	-0.0572
845.9834	0.0428
846.1485	-0.0226
846.3136	-0.031
846.4787	-0.0951
846.6438	0.0878
846.8088	0.0122
846.9738	-0.0217
847.1388	-0.0102
847.3038	0.0025
847.4687	-0.1353
847.6337	0.0009
847.7986	-0.0262
847.9635	0.0331
848.1284	0.0023
848.2932	0.0882
848.458	0.046
848.6228	0.0525
848.7876	0.1238
848.9524	-0.0273
849.1172	-0.0714
849.2819	0.0239
849.4466	-0.0383
849.6113	-0.0537
849.7759	-0.079
849.9406	0.0029
850.1052	0.0483
850.2698	-0.0246
850.4344	-0.0382
850.599	-0.1141
850.7635	0.0292
850.928	-0.0386
851.0925	0.0814
851.257	0.0268
851.4215	0.0557
851.5859	-0.0542
851.7503	0.0088
851.9147	0.0462
852.0791	-0.1537
852.2434	-0.0557
852.4078	0.0411
852.5721	0.0176
852.7364	-0.0666
852.9007	-0.2125
853.0649	-0.0489
853.2291	0.0274
853.3934	0.0253
853.5575	0.1008
853.7217	-0.1227
853.8859	-0.0586
854.05	-0.0975
854.2141	-0.0236
854.3782	-0.0901
854.5423	0.0044
854.7063	0.1639
854.8703	-0.0302
855.0343	0.0021
855.1983	-0.1292
855.3623	0.1637
855.5262	0.0936
855.6901	-0.0599
855.854	0.0427
856.0179	0.0173
856.1818	0.1149
856.3456	-0.1315
856.5094	-0.0573
856.6732	-0.0354
856.837	-0.1453
857.0008	0.1106
857.1645	0.0607
857.3282	-0.0949
857.4919	0.0424
857.6556	-0.055
857.8192	0.1233
857.9828	-0.0466
858.1465	-0.0013
858.31	-0.0601
858.4736	-0.0764
858.6372	-0.2043
858.8007	-0.2728
858.9642	0.1757
859.1277	0.0813
859.2911	0.2621
859.4546	0.0907
859.618	-0.3761
859.7814	0.0266
859.9448	0.0441
860.1081	-0.007
860.2715	0.1366
860.4348	0.3215
860.5981	0.0176
860.7614	0.1371
860.9246	-0.0668
861.0879	-0.1606
861.2511	0.0375
861.4143	-0.3421
861.5774	0.2183
861.7406	-0.2157
861.9037	-0.0092
862.0668	0.1466
862.2299	0.7187
862.393	-0.5671
862.556	0.086
862.7191	-0.3191
862.8821	0.0063
863.0451	-0.0435
863.208	0.1574
863.371	0.0764
863.5339	0.1268
863.6968	0.0504
863.8597	0.1751
864.0225	-0.2803
864.1854	-0.003
864.3482	0.2259
864.511	0.2292
864.6737	0.4315
864.8365	-0.0896
864.9992	-0.4686
865.1619	-0.5881
865.3246	0.5501
865.4873	0.1933
865.65	0.0787
865.8126	-0.0104
865.9752	0.7737
866.1378	-0.0272
866.3004	-0
866.4629	0.3693
866.6254	-0.1693
866.7879	0.2316
866.9504	0.0444
867.1129	-0.7907
867.2753	0.1755
867.4377	0.5657
867.6001	-0.2517
867.7625	0.1551
867.9249	-0.7998
868.0872	-0.0955
868.2495	0.114
868.4118	-0.2449
868.5741	-0.2859
868.7363	-0.1532
868.8986	0.8613
869.0608	0.1516
869.223	0.204
869.3851	-0
869.5473	0.0067
869.7094	0.1989
869.8715	-0
870.0336	-0
870.1957	-0
870.3577	-0
870.5197	-0.1289
870.6817	-0.2818
870.8437	-0.0217
871.0057	1.0669
871.1676	-0
871.3295	0.0162
871.4914	-0
871.6533	-0.2077
871.8151	-0.4299
871.977	-0
872.1388	-0
872.3006	-0.1588
872.4623	-0
872.6241	0.2392
872.7858	-0
872.9475	-0.2752
873.1092	-0.0182
873.2709	0.2218
873.4325	-0.0393
873.5941	0.65
873.7557	-0.3191
873.9173	-0.4582
874.0789	-0.2845
874.2404	-0.4347
874.4019	0.3337
874.5634	-0.1782
874.7249	0.1358
874.8863	-0.1272
875.0478	0.3029
875.2092	-0
875.3706	-0.0833
875.5319	-0.9048
875.6933	-0.0125
875.8546	-0
876.0159	-0
876.1772	0.1699
876.3385	-0.1431
876.4997	0.6619
876.6609	-0.5436
876.8221	-0.5618
876.9833	0.9011
877.1445	0.2702
877.3056	0.12
877.4667	0.3053
877.6278	-0
877.7889	0.0872
877.9499	-0
878.111	-0
878.272	-0.9798
878.433	-0.1881
878.5939	0.2715
878.7549	-0.1091
878.9158	-0.639
879.0767	-0
879.2376	0.138
879.3984	0.1353
879.5593	-0
879.7201	-0.1535
879.8809	-0.345
880.0417	-0.3034
880.2024	-0.2427
880.3632	-0
880.5239	0.2014
880.6846	0.6042
880.8452	-2.5145
881.0059	-0
881.1665	0.8139
881.3271	-0.3696
881.4877	-0.4161
881.6483	-0.5663
881.8088	-0.4561
881.9693	0.2983
882.1298	0.2983
882.2903	0.2983
