Data from MonoPyChalIsomerACN10uM380nmA_Absorbance_13-38-30-249.txt Node
Date: Fri Jul 05 13:38:30 BST 2024
User: LASERRRRR
Spectrometer: FLMT03099
Trigger mode: 0
Integration Time (sec): 1.000000E-1
Scans to average: 1
Electric dark correction enabled: true
Nonlinearity correction enabled: false
Boxcar width: 0
XAxis mode: Wavelengths
Number of Pixels in Spectrum: 3648
>>>>>Begin Spectral Data<<<<<
179.3399	-0.0601
179.5586	-0.0601
179.7771	-0.0601
179.9957	1.2529
180.2143	-0.2658
180.4329	0.2759
180.6514	0.3176
180.8699	-0
181.0885	-0.3223
181.307	0.0748
181.5255	-0.6557
181.744	-0.5747
181.9625	-0
182.181	-1.259
182.3994	0.5109
182.6179	0.3757
182.8363	0.3075
183.0547	-0
183.2732	-0.0535
183.4916	-0.0265
183.71	0.2727
183.9284	0.406
184.1467	0.1093
184.3651	0.4117
184.5835	0.1359
184.8018	-0.0692
185.0201	0.4683
185.2385	-0.1005
185.4568	0.3698
185.6751	0.3039
185.8934	0.3669
186.1117	0.0343
186.3299	0.1992
186.5482	0.5508
186.7664	-0.1382
186.9847	-0.0522
187.2029	-0.0527
187.4211	0.0715
187.6393	0.2488
187.8575	0.2275
188.0757	0.2065
188.2939	0.0417
188.512	0.9321
188.7302	0.1272
188.9483	0.1677
189.1665	0.1514
189.3846	-0.3659
189.6027	0.3739
189.8208	0.347
190.0389	0.1594
190.257	0.1067
190.475	0.2678
190.6931	0.2068
190.9111	0.3294
191.1292	0.1116
191.3472	0.3821
191.5652	0.3576
191.7832	0.4206
192.0012	0.4648
192.2192	0.4914
192.4371	0.8269
192.6551	0.6661
192.873	0.372
193.091	0.6249
193.3089	0.4309
193.5268	0.3455
193.7447	0.5812
193.9626	0.4675
194.1805	0.5341
194.3984	0.9051
194.6162	0.5539
194.8341	0.6191
195.0519	0.612
195.2697	0.885
195.4875	0.7541
195.7054	0.687
195.9231	0.6393
196.1409	0.832
196.3587	0.7005
196.5765	0.7987
196.7942	0.7529
197.012	0.5585
197.2297	0.7238
197.4474	0.8747
197.6651	0.8839
197.8828	0.6469
198.1005	0.7344
198.3182	0.7149
198.5358	0.8012
198.7535	0.7854
198.9711	0.6516
199.1888	0.7952
199.4064	1.0837
199.624	0.8573
199.8416	0.6494
200.0592	0.7163
200.2767	0.8894
200.4943	0.8587
200.7119	0.8707
200.9294	0.9125
201.1469	0.6746
201.3645	0.7984
201.582	0.8643
201.7995	0.8686
202.017	0.7518
202.2344	0.6629
202.4519	0.8224
202.6694	0.9063
202.8868	0.8124
203.1042	0.8929
203.3217	0.8344
203.5391	0.9073
203.7565	0.8667
203.9739	0.7415
204.1913	0.7273
204.4086	0.9387
204.626	0.968
204.8433	0.7646
205.0607	0.6968
205.278	0.8555
205.4953	0.8706
205.7126	0.8717
205.9299	1.0236
206.1472	0.9641
206.3644	0.8047
206.5817	0.814
206.7989	0.9162
207.0162	0.8944
207.2334	0.7567
207.4506	0.7386
207.6678	0.8423
207.885	0.8323
208.1022	0.8075
208.3194	0.8078
208.5365	0.7793
208.7537	0.8656
208.9708	0.7848
209.1879	0.9015
209.405	0.9136
209.6222	0.8746
209.8392	0.7838
210.0563	0.746
210.2734	0.8492
210.4905	0.7855
210.7075	0.8338
210.9245	0.8193
211.1416	1.009
211.3586	0.8898
211.5756	0.7616
211.7926	0.7988
212.0096	0.8051
212.2265	0.8058
212.4435	0.6941
212.6604	0.7161
212.8774	0.7748
213.0943	0.827
213.3112	0.7834
213.5281	0.7911
213.745	0.6383
213.9619	0.7877
214.1788	0.6736
214.3956	0.6308
214.6125	0.6577
214.8293	0.6638
215.0461	0.7655
215.2629	0.6451
215.4798	0.7084
215.6965	0.6066
215.9133	0.6869
216.1301	0.6739
216.3469	0.6941
216.5636	0.6869
216.7803	0.6313
216.9971	0.667
217.2138	0.6159
217.4305	0.6257
217.6472	0.6031
217.8639	0.6444
218.0805	0.579
218.2972	0.6001
218.5138	0.6239
218.7305	0.5634
218.9471	0.5754
219.1637	0.5755
219.3803	0.5242
219.5969	0.521
219.8135	0.502
220.0301	0.5813
220.2466	0.596
220.4632	0.5519
220.6797	0.5087
220.8962	0.4982
221.1127	0.5231
221.3292	0.5222
221.5457	0.4984
221.7622	0.48
221.9787	0.5153
222.1951	0.5142
222.4116	0.5496
222.628	0.539
222.8444	0.5412
223.0608	0.5071
223.2772	0.5266
223.4936	0.5231
223.71	0.5293
223.9264	0.5617
224.1427	0.5184
224.3591	0.5283
224.5754	0.5442
224.7917	0.5551
225.008	0.5492
225.2243	0.51
225.4406	0.5608
225.6569	0.5363
225.8732	0.5386
226.0894	0.534
226.3057	0.5501
226.5219	0.5729
226.7381	0.5209
226.9543	0.51
227.1705	0.5777
227.3867	0.5663
227.6029	0.5664
227.8191	0.5511
228.0352	0.5465
228.2513	0.5652
228.4675	0.563
228.6836	0.5492
228.8997	0.5379
229.1158	0.5523
229.3319	0.5408
229.548	0.5438
229.764	0.5734
229.9801	0.5781
230.1961	0.5502
230.4121	0.558
230.6282	0.5826
230.8442	0.5475
231.0602	0.5868
231.2761	0.5597
231.4921	0.5488
231.7081	0.5856
231.924	0.5519
232.14	0.5844
232.3559	0.5316
232.5718	0.5781
232.7877	0.5827
233.0036	0.5494
233.2195	0.5459
233.4353	0.5563
233.6512	0.5312
233.867	0.54
234.0829	0.5453
234.2987	0.5592
234.5145	0.5603
234.7303	0.563
234.9461	0.5832
235.1619	0.559
235.3776	0.5468
235.5934	0.5456
235.8091	0.5578
236.0249	0.5583
236.2406	0.548
236.4563	0.5311
236.672	0.5565
236.8877	0.5511
237.1034	0.5447
237.319	0.5659
237.5347	0.5595
237.7503	0.5095
237.966	0.5468
238.1816	0.5413
238.3972	0.545
238.6128	0.5496
238.8284	0.5459
239.0439	0.5772
239.2595	0.5169
239.475	0.5547
239.6906	0.5465
239.9061	0.5026
240.1216	0.506
240.3371	0.5191
240.5526	0.5052
240.7681	0.5225
240.9836	0.4989
241.199	0.501
241.4145	0.4869
241.6299	0.4993
241.8453	0.4733
242.0607	0.4837
242.2761	0.469
242.4915	0.4724
242.7069	0.4583
242.9223	0.4451
243.1376	0.4511
243.353	0.4389
243.5683	0.424
243.7836	0.4083
243.9989	0.413
244.2142	0.382
244.4295	0.4068
244.6448	0.3989
244.86	0.3698
245.0753	0.3625
245.2905	0.371
245.5057	0.3534
245.721	0.3441
245.9362	0.3458
246.1514	0.3411
246.3665	0.3207
246.5817	0.3255
246.7969	0.3187
247.012	0.3046
247.2271	0.3023
247.4423	0.3077
247.6574	0.291
247.8725	0.2775
248.0876	0.2956
248.3026	0.278
248.5177	0.2955
248.7328	0.253
248.9478	0.2557
249.1628	0.2602
249.3779	0.2592
249.5929	0.2511
249.8079	0.2584
250.0228	0.2545
250.2378	0.2408
250.4528	0.2584
250.6677	0.2212
250.8827	0.2408
251.0976	0.2354
251.3125	0.2241
251.5274	0.2055
251.7423	0.2241
251.9572	0.2258
252.172	0.2164
252.3869	0.2245
252.6017	0.2277
252.8166	0.204
253.0314	0.2005
253.2462	0.2116
253.461	0.2077
253.6758	0.2058
253.8906	0.1985
254.1053	0.2053
254.3201	0.1962
254.5348	0.2096
254.7496	0.2199
254.9643	0.1979
255.179	0.2002
255.3937	0.197
255.6083	0.2016
255.823	0.2018
256.0377	0.1959
256.2523	0.2001
256.467	0.1743
256.6816	0.1924
256.8962	0.1861
257.1108	0.1845
257.3254	0.1935
257.54	0.1825
257.7545	0.1931
257.9691	0.1985
258.1836	0.2021
258.3981	0.1991
258.6127	0.1998
258.8272	0.1785
259.0417	0.178
259.2561	0.1842
259.4706	0.1893
259.6851	0.1944
259.8995	0.1805
260.114	0.19
260.3284	0.1909
260.5428	0.1787
260.7572	0.1912
260.9716	0.1979
261.186	0.1773
261.4003	0.1819
261.6147	0.1913
261.829	0.1936
262.0433	0.1811
262.2577	0.1858
262.472	0.1783
262.6863	0.1761
262.9005	0.1915
263.1148	0.1851
263.3291	0.1705
263.5433	0.1943
263.7576	0.1915
263.9718	0.2051
264.186	0.1792
264.4002	0.1776
264.6144	0.181
264.8286	0.1988
265.0427	0.1831
265.2569	0.1776
265.471	0.172
265.6851	0.173
265.8993	0.1806
266.1134	0.1813
266.3275	0.1714
266.5415	0.1782
266.7556	0.1842
266.9697	0.1832
267.1837	0.1879
267.3978	0.1907
267.6118	0.201
267.8258	0.1944
268.0398	0.1693
268.2538	0.1843
268.4677	0.1743
268.6817	0.1767
268.8957	0.1825
269.1096	0.1815
269.3235	0.1778
269.5374	0.1691
269.7514	0.1692
269.9652	0.1803
270.1791	0.1716
270.393	0.1713
270.6068	0.1864
270.8207	0.1612
271.0345	0.1596
271.2483	0.1741
271.4622	0.1677
271.676	0.1739
271.8897	0.1632
272.1035	0.1587
272.3173	0.1584
272.531	0.1674
272.7448	0.1702
272.9585	0.1577
273.1722	0.161
273.3859	0.1673
273.5996	0.1494
273.8133	0.1672
274.0269	0.1525
274.2406	0.1629
274.4542	0.1663
274.6679	0.1543
274.8815	0.1673
275.0951	0.174
275.3087	0.1718
275.5223	0.1713
275.7358	0.1648
275.9494	0.1675
276.1629	0.1533
276.3765	0.164
276.59	0.1705
276.8035	0.1754
277.017	0.1626
277.2305	0.1646
277.444	0.1709
277.6574	0.1585
277.8709	0.1804
278.0843	0.1642
278.2978	0.1679
278.5112	0.1616
278.7246	0.1592
278.938	0.1737
279.1513	0.1698
279.3647	0.1718
279.5781	0.1558
279.7914	0.1632
280.0047	0.174
280.2181	0.174
280.4314	0.1761
280.6447	0.1776
280.8579	0.1648
281.0712	0.1727
281.2845	0.1715
281.4977	0.1684
281.711	0.1698
281.9242	0.1678
282.1374	0.1749
282.3506	0.1659
282.5638	0.1817
282.7769	0.1772
282.9901	0.1775
283.2033	0.1813
283.4164	0.1801
283.6295	0.1662
283.8426	0.1613
284.0557	0.1732
284.2688	0.1783
284.4819	0.1776
284.695	0.1749
284.908	0.1802
285.1211	0.1677
285.3341	0.1788
285.5471	0.1749
285.7601	0.1704
285.9731	0.1695
286.1861	0.1698
286.3991	0.181
286.612	0.1808
286.825	0.1743
287.0379	0.1952
287.2508	0.1803
287.4637	0.1833
287.6766	0.165
287.8895	0.1753
288.1024	0.2023
288.3152	0.1907
288.5281	0.1715
288.7409	0.1834
288.9538	0.1752
289.1666	0.1813
289.3794	0.1785
289.5922	0.175
289.8049	0.1805
290.0177	0.1716
290.2304	0.1853
290.4432	0.19
290.6559	0.1793
290.8686	0.1904
291.0813	0.1763
291.294	0.1794
291.5067	0.1935
291.7194	0.1753
291.932	0.1782
292.1447	0.1753
292.3573	0.1711
292.5699	0.176
292.7825	0.1755
292.9951	0.1698
293.2077	0.1773
293.4203	0.1742
293.6328	0.1691
293.8454	0.1831
294.0579	0.1828
294.2704	0.1912
294.4829	0.1592
294.6954	0.174
294.9079	0.1825
295.1204	0.1902
295.3328	0.1718
295.5453	0.1776
295.7577	0.1775
295.9701	0.1744
296.1825	0.1665
296.3949	0.1727
296.6073	0.1883
296.8197	0.1766
297.0321	0.1855
297.2444	0.1614
297.4567	0.1742
297.6691	0.1803
297.8814	0.1684
298.0937	0.1815
298.306	0.1754
298.5182	0.1745
298.7305	0.1744
298.9428	0.1802
299.155	0.176
299.3672	0.1808
299.5794	0.1744
299.7916	0.1787
300.0038	0.1819
300.216	0.1734
300.4282	0.1756
300.6403	0.1708
300.8525	0.1739
301.0646	0.1744
301.2767	0.1756
301.4888	0.1737
301.7009	0.1825
301.913	0.1711
302.125	0.1704
302.3371	0.1632
302.5491	0.1772
302.7612	0.1741
302.9732	0.1797
303.1852	0.1781
303.3972	0.1681
303.6092	0.1583
303.8211	0.1683
304.0331	0.1656
304.245	0.1565
304.457	0.1562
304.6689	0.154
304.8808	0.1685
305.0927	0.1557
305.3046	0.1569
305.5164	0.164
305.7283	0.148
305.9401	0.1558
306.152	0.1599
306.3638	0.1464
306.5756	0.1487
306.7874	0.1624
306.9992	0.151
307.2109	0.1402
307.4227	0.1432
307.6344	0.141
307.8462	0.1413
308.0579	0.1468
308.2696	0.1433
308.4813	0.1383
308.693	0.1373
308.9046	0.1396
309.1163	0.1394
309.328	0.1339
309.5396	0.1223
309.7512	0.129
309.9628	0.1305
310.1744	0.1357
310.386	0.1367
310.5976	0.1261
310.8091	0.1239
311.0207	0.1221
311.2322	0.1233
311.4437	0.1175
311.6552	0.1123
311.8667	0.1283
312.0782	0.1056
312.2897	0.106
312.5012	0.1143
312.7126	0.1131
312.924	0.1099
313.1355	0.1166
313.3469	0.126
313.5583	0.1104
313.7696	0.1067
313.981	0.1105
314.1924	0.1055
314.4037	0.1001
314.6151	0.1169
314.8264	0.0993
315.0377	0.1064
315.249	0.1038
315.4603	0.111
315.6716	0.0991
315.8828	0.0945
316.0941	0.0967
316.3053	0.0982
316.5165	0.0984
316.7277	0.0958
316.9389	0.1048
317.1501	0.0975
317.3613	0.1099
317.5724	0.0857
317.7836	0.1006
317.9947	0.1003
318.2058	0.0965
318.417	0.0928
318.6281	0.0846
318.8391	0.1006
319.0502	0.0928
319.2613	0.1061
319.4723	0.101
319.6834	0.0943
319.8944	0.0934
320.1054	0.1051
320.3164	0.1172
320.5274	0.0987
320.7383	0.0938
320.9493	0.0995
321.1602	0.1012
321.3712	0.0939
321.5821	0.1052
321.793	0.1025
322.0039	0.1009
322.2148	0.0919
322.4257	0.1029
322.6365	0.1052
322.8474	0.1021
323.0582	0.0961
323.269	0.1096
323.4798	0.1062
323.6906	0.1054
323.9014	0.0959
324.1122	0.1054
324.3229	0.1012
324.5337	0.1062
324.7444	0.099
324.9551	0.1143
325.1658	0.1099
325.3765	0.102
325.5872	0.1116
325.7979	0.102
326.0085	0.0988
326.2192	0.11
326.4298	0.1132
326.6404	0.0956
326.851	0.0961
327.0616	0.0945
327.2722	0.1073
327.4828	0.1048
327.6933	0.0909
327.9039	0.1114
328.1144	0.1106
328.3249	0.1072
328.5354	0.1161
328.7459	0.1072
328.9564	0.1107
329.1669	0.0987
329.3773	0.1072
329.5878	0.1058
329.7982	0.1095
330.0086	0.11
330.219	0.1002
330.4294	0.1162
330.6398	0.1011
330.8502	0.1
331.0605	0.1003
331.2708	0.1103
331.4812	0.1163
331.6915	0.1082
331.9018	0.1046
332.1121	0.1031
332.3224	0.1015
332.5326	0.1132
332.7429	0.1074
332.9531	0.1253
333.1633	0.1094
333.3735	0.113
333.5837	0.0982
333.7939	0.104
334.0041	0.1125
334.2143	0.1061
334.4244	0.1032
334.6346	0.095
334.8447	0.1232
335.0548	0.1094
335.2649	0.097
335.475	0.115
335.685	0.0952
335.8951	0.1126
336.1051	0.1098
336.3152	0.1157
336.5252	0.1
336.7352	0.1159
336.9452	0.1146
337.1552	0.1151
337.3652	0.1037
337.5751	0.112
337.7851	0.1104
337.995	0.1092
338.2049	0.1112
338.4148	0.106
338.6247	0.1149
338.8346	0.1058
339.0445	0.1148
339.2543	0.1002
339.4642	0.1227
339.674	0.0994
339.8838	0.1179
340.0936	0.112
340.3034	0.1302
340.5132	0.1272
340.7229	0.1241
340.9327	0.1127
341.1424	0.1098
341.3522	0.126
341.5619	0.1148
341.7716	0.1177
341.9813	0.1251
342.1909	0.1106
342.4006	0.1251
342.6102	0.122
342.8199	0.1183
343.0295	0.1234
343.2391	0.1225
343.4487	0.1194
343.6583	0.1307
343.8679	0.1186
344.0774	0.1281
344.287	0.1299
344.4965	0.1298
344.706	0.1272
344.9155	0.129
345.125	0.1175
345.3345	0.1312
345.544	0.1253
345.7534	0.1256
345.9629	0.124
346.1723	0.127
346.3817	0.1142
346.5911	0.1228
346.8005	0.1363
347.0099	0.1271
347.2193	0.1393
347.4286	0.1256
347.638	0.1348
347.8473	0.136
348.0566	0.1233
348.2659	0.1288
348.4752	0.1395
348.6845	0.1268
348.8937	0.1373
349.103	0.1308
349.3122	0.1322
349.5214	0.145
349.7306	0.1405
349.9398	0.1351
350.149	0.1414
350.3582	0.1375
350.5674	0.1458
350.7765	0.142
350.9856	0.1324
351.1948	0.1443
351.4039	0.1268
351.613	0.121
351.822	0.1342
352.0311	0.1459
352.2402	0.1432
352.4492	0.1476
352.6582	0.1527
352.8672	0.1437
353.0762	0.1443
353.2852	0.1393
353.4942	0.1425
353.7032	0.1488
353.9121	0.1542
354.1211	0.1435
354.33	0.1459
354.5389	0.1425
354.7478	0.1429
354.9567	0.146
355.1655	0.1318
355.3744	0.1515
355.5833	0.1515
355.7921	0.1698
356.0009	0.1577
356.2097	0.1768
356.4185	0.1672
356.6273	0.1489
356.8361	0.1641
357.0448	0.1511
357.2536	0.1559
357.4623	0.1545
357.671	0.1602
357.8797	0.1798
358.0884	0.1582
358.2971	0.1656
358.5057	0.1727
358.7144	0.171
358.923	0.1549
359.1316	0.165
359.3402	0.1699
359.5488	0.1766
359.7574	0.1591
359.966	0.1829
360.1746	0.1779
360.3831	0.1745
360.5916	0.1627
360.8002	0.1648
361.0087	0.1898
361.2172	0.1716
361.4256	0.1753
361.6341	0.1908
361.8426	0.1884
362.051	0.1735
362.2594	0.1852
362.4678	0.1702
362.6762	0.2002
362.8846	0.1962
363.093	0.1778
363.3014	0.1895
363.5097	0.1675
363.718	0.182
363.9264	0.1772
364.1347	0.1778
364.343	0.2029
364.5513	0.198
364.7595	0.1962
364.9678	0.1932
365.176	0.2077
365.3842	0.1935
365.5925	0.2104
365.8007	0.2138
366.0089	0.1943
366.217	0.1828
366.4252	0.2102
366.6333	0.2142
366.8415	0.2103
367.0496	0.1914
367.2577	0.2009
367.4658	0.2078
367.6739	0.2166
367.882	0.1946
368.09	0.1966
368.2981	0.1997
368.5061	0.2092
368.7141	0.2012
368.9221	0.2097
369.1301	0.2206
369.3381	0.2035
369.5461	0.2141
369.754	0.2085
369.962	0.2191
370.1699	0.2231
370.3778	0.2288
370.5857	0.2001
370.7936	0.2114
371.0015	0.2138
371.2093	0.2151
371.4172	0.2173
371.625	0.2158
371.8328	0.2053
372.0406	0.2253
372.2484	0.2259
372.4562	0.225
372.664	0.2227
372.8717	0.2288
373.0795	0.1988
373.2872	0.2283
373.4949	0.2194
373.7026	0.2304
373.9103	0.2355
374.118	0.2239
374.3256	0.2383
374.5333	0.2306
374.7409	0.2092
374.9485	0.2382
375.1561	0.2383
375.3637	0.2426
375.5713	0.2356
375.7789	0.2378
375.9864	0.2332
376.194	0.2286
376.4015	0.2491
376.609	0.2513
376.8165	0.2481
377.024	0.2361
377.2315	0.2243
377.4389	0.2422
377.6464	0.2523
377.8538	0.2424
378.0612	0.235
378.2686	0.2517
378.476	0.2416
378.6834	0.2374
378.8908	0.2538
379.0981	0.2388
379.3055	0.2485
379.5128	0.2343
379.7201	0.2397
379.9274	0.244
380.1347	0.242
380.342	0.2739
380.5492	0.2439
380.7565	0.2413
380.9637	0.2527
381.1709	0.2399
381.3781	0.2512
381.5853	0.245
381.7925	0.2636
381.9997	0.2627
382.2068	0.2552
382.4139	0.2621
382.6211	0.2492
382.8282	0.2598
383.0353	0.2623
383.2424	0.2599
383.4494	0.273
383.6565	0.2629
383.8635	0.2622
384.0706	0.2645
384.2776	0.2579
384.4846	0.2405
384.6916	0.2553
384.8986	0.2571
385.1055	0.2594
385.3125	0.2679
385.5194	0.2408
385.7263	0.277
385.9333	0.2569
386.1402	0.2532
386.347	0.2757
386.5539	0.2588
386.7608	0.2752
386.9676	0.2489
387.1744	0.2519
387.3813	0.2385
387.5881	0.2544
387.7948	0.2563
388.0016	0.2611
388.2084	0.2418
388.4151	0.252
388.6219	0.2573
388.8286	0.2447
389.0353	0.2432
389.242	0.2696
389.4487	0.263
389.6553	0.2559
389.862	0.2292
390.0686	0.2348
390.2753	0.2492
390.4819	0.2454
390.6885	0.2424
390.8951	0.2439
391.1016	0.2379
391.3082	0.2427
391.5147	0.2375
391.7213	0.2443
391.9278	0.2303
392.1343	0.2398
392.3408	0.2237
392.5473	0.234
392.7537	0.2314
392.9602	0.2193
393.1666	0.2375
393.373	0.2344
393.5794	0.2338
393.7858	0.2311
393.9922	0.2137
394.1986	0.2245
394.4049	0.2471
394.6113	0.2328
394.8176	0.2097
395.0239	0.2183
395.2302	0.2127
395.4365	0.2426
395.6428	0.2387
395.8491	0.2205
396.0553	0.2265
396.2615	0.2137
396.4678	0.2238
396.674	0.2079
396.8802	0.2116
397.0863	0.2247
397.2925	0.2157
397.4987	0.2005
397.7048	0.2218
397.9109	0.2146
398.117	0.2116
398.3231	0.2044
398.5292	0.2156
398.7353	0.2268
398.9413	0.2236
399.1474	0.2301
399.3534	0.2317
399.5594	0.2069
399.7654	0.2285
399.9714	0.2231
400.1774	0.2173
400.3833	0.2144
400.5893	0.2289
400.7952	0.2023
401.0011	0.2057
401.207	0.2294
401.4129	0.2124
401.6188	0.2039
401.8247	0.2099
402.0305	0.1959
402.2364	0.2055
402.4422	0.2333
402.648	0.217
402.8538	0.216
403.0596	0.2111
403.2654	0.2345
403.4711	0.2159
403.6768	0.2079
403.8826	0.2266
404.0883	0.2318
404.294	0.2272
404.4997	0.2157
404.7054	0.2087
404.911	0.2188
405.1167	0.2289
405.3223	0.226
405.5279	0.2297
405.7335	0.2265
405.9391	0.2299
406.1447	0.2016
406.3502	0.2303
406.5558	0.2118
406.7613	0.2263
406.9668	0.2226
407.1724	0.2215
407.3778	0.2144
407.5833	0.2019
407.7888	0.2213
407.9942	0.2298
408.1997	0.2031
408.4051	0.2037
408.6105	0.2027
408.8159	0.1994
409.0213	0.2256
409.2267	0.2205
409.432	0.1953
409.6374	0.2099
409.8427	0.2037
410.048	0.2165
410.2533	0.2162
410.4586	0.2144
410.6639	0.2087
410.8691	0.1929
411.0744	0.2025
411.2796	0.2094
411.4848	0.2136
411.69	0.2005
411.8952	0.2208
412.1004	0.195
412.3056	0.2285
412.5107	0.2003
412.7158	0.2178
412.921	0.2091
413.1261	0.2284
413.3312	0.1976
413.5362	0.2203
413.7413	0.2053
413.9464	0.2072
414.1514	0.2085
414.3564	0.1978
414.5614	0.2108
414.7664	0.2069
414.9714	0.2176
415.1764	0.2139
415.3813	0.2139
415.5863	0.2274
415.7912	0.2166
415.9961	0.1946
416.201	0.2198
416.4059	0.2215
416.6108	0.1911
416.8156	0.2163
417.0205	0.1958
417.2253	0.2138
417.4301	0.2153
417.6349	0.197
417.8397	0.1852
418.0445	0.2071
418.2492	0.2075
418.454	0.175
418.6587	0.2011
418.8634	0.1838
419.0681	0.187
419.2728	0.1961
419.4775	0.197
419.6822	0.2015
419.8868	0.1808
420.0915	0.1991
420.2961	0.1896
420.5007	0.1907
420.7053	0.194
420.9099	0.1962
421.1144	0.1999
421.319	0.184
421.5235	0.2036
421.728	0.1921
421.9325	0.1944
422.137	0.1763
422.3415	0.1912
422.546	0.1813
422.7504	0.1779
422.9549	0.2023
423.1593	0.2068
423.3637	0.1896
423.5681	0.1961
423.7725	0.1791
423.9769	0.1902
424.1812	0.1589
424.3856	0.1849
424.5899	0.1712
424.7942	0.1799
424.9985	0.1851
425.2028	0.169
425.4071	0.1912
425.6113	0.1567
425.8156	0.1817
426.0198	0.1717
426.224	0.1543
426.4282	0.1844
426.6324	0.165
426.8366	0.1681
427.0407	0.1625
427.2449	0.1625
427.449	0.1696
427.6531	0.1381
427.8572	0.1666
428.0613	0.1582
428.2654	0.1506
428.4694	0.1529
428.6735	0.1527
428.8775	0.1791
429.0815	0.1776
429.2855	0.1564
429.4895	0.1454
429.6935	0.1527
429.8975	0.162
430.1014	0.1497
430.3053	0.1307
430.5093	0.1484
430.7132	0.1437
430.9171	0.1386
431.1209	0.1453
431.3248	0.1375
431.5286	0.14
431.7325	0.1531
431.9363	0.1333
432.1401	0.1463
432.3439	0.1195
432.5477	0.1224
432.7514	0.1259
432.9552	0.1476
433.1589	0.1229
433.3627	0.11
433.5664	0.118
433.7701	0.11
433.9737	0.1286
434.1774	0.1151
434.3811	0.1066
434.5847	0.1157
434.7883	0.1266
434.9919	0.1353
435.1955	0.1239
435.3991	0.1186
435.6027	0.1137
435.8062	0.1025
436.0098	0.0906
436.2133	0.1032
436.4168	0.0912
436.6203	0.0935
436.8238	0.1025
437.0272	0.0984
437.2307	0.1069
437.4341	0.1185
437.6375	0.1131
437.841	0.0895
438.0443	0.1034
438.2477	0.0857
438.4511	0.0816
438.6545	0.0926
438.8578	0.0922
439.0611	0.0844
439.2644	0.0812
439.4677	0.0772
439.671	0.0635
439.8743	0.0896
440.0775	0.0791
440.2808	0.062
440.484	0.067
440.6872	0.0578
440.8904	0.0833
441.0936	0.0902
441.2967	0.0764
441.4999	0.0734
441.703	0.0636
441.9062	0.0645
442.1093	0.0751
442.3124	0.049
442.5155	0.0497
442.7185	0.0686
442.9216	0.0483
443.1246	0.0738
443.3276	0.0523
443.5307	0.0499
443.7337	0.0704
443.9366	0.062
444.1396	0.0555
444.3426	0.0466
444.5455	0.0516
444.7484	0.0503
444.9513	0.0371
445.1542	0.0581
445.3571	0.0505
445.56	0.0446
445.7628	0.0466
445.9657	0.0465
446.1685	0.0568
446.3713	0.0462
446.5741	0.0431
446.7769	0.0401
446.9797	0.0382
447.1824	0.0512
447.3852	0.0263
447.5879	0.0637
447.7906	0.0367
447.9933	0.0406
448.196	0.0317
448.3986	0.0253
448.6013	0.0217
448.8039	0.0371
449.0066	0.0305
449.2092	0.0466
449.4118	0.04
449.6143	0.045
449.8169	0.0266
450.0195	0.0294
450.222	0.0165
450.4245	0.0161
450.627	0.0384
450.8295	0.0329
451.032	0.0129
451.2345	0.0258
451.4369	0.0227
451.6394	0.0289
451.8418	0.0196
452.0442	0.0117
452.2466	0.0322
452.449	0.0273
452.6513	0.032
452.8537	0.0197
453.056	0.0177
453.2583	0.0105
453.4607	0.0189
453.663	0.0242
453.8652	0.0151
454.0675	0.0167
454.2697	0.0336
454.472	-0.0052
454.6742	0.0128
454.8764	0.0159
455.0786	0.017
455.2808	0.0087
455.4829	0.013
455.6851	0.0154
455.8872	0.0059
456.0893	0.0318
456.2915	0.0054
456.4935	0.0205
456.6956	0.0039
456.8977	0.0254
457.0997	0.0213
457.3018	0.0008
457.5038	0.0178
457.7058	0.0118
457.9078	-0.004
458.1098	0.0066
458.3117	0.0095
458.5137	0.0145
458.7156	-0.0005
458.9175	-0.0089
459.1194	0.006
459.3213	0.0048
459.5232	0.0074
459.725	-0.0044
459.9269	-0.0041
460.1287	0.0035
460.3305	0.0057
460.5323	0.0019
460.7341	0.0034
460.9359	0.0049
461.1376	0.0006
461.3394	-0.0013
461.5411	0.003
461.7428	0.0007
461.9445	0.023
462.1462	0.0281
462.3479	-0.0166
462.5495	0.0063
462.7512	0.0128
462.9528	-0.0114
463.1544	-0.0153
463.356	0.0057
463.5576	0.0178
463.7592	-0.0047
463.9607	0.0098
464.1623	0.0057
464.3638	0.0164
464.5653	-0.0148
464.7668	-0.0029
464.9683	0.0203
465.1697	0.0223
465.3712	-0.0048
465.5726	-0.0088
465.7741	-0.0012
465.9755	-0.0026
466.1769	0.0045
466.3782	0.0095
466.5796	-0.0044
466.7809	0.0036
466.9823	-0.0157
467.1836	-0.0026
467.3849	0.0135
467.5862	-0.0068
467.7875	-0.0112
467.9887	0.0229
468.19	0.0034
468.3912	-0.0176
468.5924	-0.009
468.7936	-0.0085
468.9948	0.0021
469.196	0.0003
469.3972	-0.0165
469.5983	0.0019
469.7994	-0.0149
470.0006	-0.0052
470.2017	-0.0238
470.4027	-0.013
470.6038	0.0086
470.8049	-0.0088
471.0059	-0.0183
471.2069	-0.0231
471.408	-0.0144
471.6089	-0.0038
471.8099	0.008
472.0109	0.0011
472.2119	-0.0027
472.4128	-0.0218
472.6137	0.0052
472.8146	-0.0225
473.0155	-0.0048
473.2164	-0.0037
473.4173	-0.0019
473.6181	0.0047
473.819	0.0082
474.0198	-0.0174
474.2206	-0.0115
474.4214	-0.0065
474.6222	-0.0055
474.8229	-0.012
475.0237	-0.0134
475.2244	-0.0157
475.4251	-0.0091
475.6258	-0.0097
475.8265	-0.0168
476.0272	0.0004
476.2278	-0.0059
476.4285	-0.0094
476.6291	-0.0082
476.8297	-0.0137
477.0303	-0.0087
477.2309	0.0028
477.4315	-0.0245
477.632	-0.0029
477.8326	-0.001
478.0331	-0.0064
478.2336	0.0107
478.4341	-0.0147
478.6346	-0.0108
478.8351	-0.0162
479.0355	-0.015
479.236	-0.0102
479.4364	0.0004
479.6368	-0.0118
479.8372	-0.0063
480.0376	-0.0038
480.2379	-0.0296
480.4383	-0.0151
480.6386	0.002
480.8389	0.0008
481.0392	-0.0159
481.2395	-0.0112
481.4398	0.0108
481.6401	-0.0071
481.8403	-0.0071
482.0405	-0.0083
482.2408	0.0039
482.441	0.0079
482.6411	-0.0163
482.8413	-0.0092
483.0415	-0.0116
483.2416	-0.0043
483.4417	-0.0111
483.6419	-0.0032
483.8419	-0.0156
484.042	0.0063
484.2421	-0.0008
484.4422	-0.0049
484.6422	-0.0108
484.8422	0.0001
485.0422	-0.0122
485.2422	0.0034
485.4422	-0.0103
485.6422	-0.0117
485.8421	-0.005
486.042	0.003
486.242	-0.0004
486.4419	-0.014
486.6417	-0.0104
486.8416	-0.0136
487.0415	0.0016
487.2413	-0.0073
487.4411	-0.0016
487.641	-0.0224
487.8408	-0.0055
488.0405	-0.0194
488.2403	-0.0117
488.4401	-0.0083
488.6398	0.0002
488.8395	-0.0202
489.0392	-0.0034
489.2389	-0.0193
489.4386	-0.0097
489.6383	-0.0019
489.8379	0.002
490.0376	-0.0045
490.2372	-0.0145
490.4368	-0.0187
490.6364	-0.0148
490.836	-0.0157
491.0355	-0.013
491.2351	-0.0165
491.4346	-0.0135
491.6341	-0.0161
491.8336	-0.002
492.0331	-0.0233
492.2326	-0.0242
492.432	-0.0126
492.6315	-0.0155
492.8309	-0.0181
493.0303	-0.0185
493.2297	-0.0185
493.4291	-0.0053
493.6284	-0.0116
493.8278	-0.0053
494.0271	-0.0021
494.2264	-0.0028
494.4257	-0.021
494.625	-0.0131
494.8243	-0.0208
495.0236	-0.0145
495.2228	-0.0192
495.422	-0.0059
495.6213	-0.0132
495.8205	-0.0048
496.0196	-0.0007
496.2188	-0.007
496.418	-0.0204
496.6171	-0.0078
496.8162	-0.0182
497.0153	-0
497.2144	-0.0105
497.4135	-0.0103
497.6126	-0.0066
497.8116	-0.0101
498.0107	-0.0042
498.2097	-0.0114
498.4087	-0.0146
498.6077	-0.0003
498.8067	-0.012
499.0056	-0.0029
499.2046	-0.0197
499.4035	-0.0228
499.6024	-0.0175
499.8013	0.0048
500.0002	-0.0168
500.199	-0.0047
500.3979	0.0018
500.5967	-0.0218
500.7956	-0.007
500.9944	-0.0105
501.1932	-0.0069
501.3919	-0.0107
501.5907	-0.02
501.7895	-0.0042
501.9882	-0.0125
502.1869	-0.0115
502.3856	-0.0147
502.5843	-0.0127
502.783	-0.0042
502.9816	-0.0006
503.1803	-0.026
503.3789	-0.0105
503.5775	-0
503.7761	-0.0142
503.9747	-0.0075
504.1732	-0.0138
504.3718	-0.0086
504.5703	-0.0035
504.7689	-0.0138
504.9674	-0.005
505.1658	-0.0123
505.3643	-0.0165
505.5628	-0.0078
505.7612	-0.0216
505.9597	-0.0033
506.1581	-0.0163
506.3565	-0.0019
506.5549	-0.0108
506.7532	-0.0228
506.9516	-0.0069
507.1499	-0.0031
507.3482	-0.0249
507.5465	-0.012
507.7448	-0.0089
507.9431	-0.0142
508.1414	0.005
508.3396	-0.0086
508.5379	-0.0073
508.7361	-0.0149
508.9343	-0.0016
509.1325	-0.0032
509.3306	-0.0072
509.5288	-0.005
509.7269	-0.0109
509.9251	-0.0139
510.1232	-0.0144
510.3213	-0.0122
510.5193	-0.0063
510.7174	-0.0213
510.9154	-0.0132
511.1135	-0.0156
511.3115	-0.016
511.5095	-0.0157
511.7075	-0.0199
511.9055	-0.0096
512.1034	-0.0123
512.3014	-0.015
512.4993	-0.0036
512.6972	-0.0074
512.8951	-0.0181
513.093	-0.0006
513.2908	-0.0148
513.4887	-0.0035
513.6865	-0.0127
513.8844	-0.009
514.0822	-0.0187
514.2799	-0.0157
514.4777	-0.0178
514.6755	-0.0091
514.8732	-0.0036
515.0709	-0.0127
515.2687	-0.0165
515.4664	-0.0091
515.664	-0.017
515.8617	-0.0066
516.0594	-0.0204
516.257	-0.0149
516.4546	-0.0187
516.6522	-0.0008
516.8498	-0.0076
517.0474	-0.0051
517.2449	-0.0044
517.4425	-0.0192
517.64	-0.0095
517.8375	-0.0041
518.035	-0.0096
518.2325	-0.0133
518.43	-0.0169
518.6274	-0.0069
518.8249	-0.0301
519.0223	-0.0078
519.2197	-0.011
519.4171	-0.0119
519.6145	-0.0206
519.8118	0.0051
520.0092	-0.0091
520.2065	-0.0172
520.4038	-0.0176
520.6011	-0.0149
520.7984	-0.0167
520.9956	-0.0128
521.1929	-0.0161
521.3901	-0.0006
521.5874	-0.0091
521.7846	-0.005
521.9818	-0.0163
522.1789	-0.0213
522.3761	-0.0034
522.5732	-0.0166
522.7704	-0.0104
522.9675	-0.0085
523.1646	-0.0169
523.3617	-0.0031
523.5587	-0.0088
523.7558	-0.0109
523.9528	-0.0218
524.1498	-0.0017
524.3468	-0.011
524.5438	-0.0135
524.7408	-0.0137
524.9378	-0.0057
525.1347	-0.0059
525.3316	-0.0002
525.5285	-0.0159
525.7254	-0.0137
525.9223	-0.0044
526.1192	-0.0065
526.316	-0.0166
526.5129	-0.0049
526.7097	-0.0098
526.9065	-0.0149
527.1033	-0.0097
527.3	-0.0046
527.4968	-0.0039
527.6935	-0.0031
527.8903	-0.0134
528.087	-0.0169
528.2837	-0.0096
528.4804	-0.015
528.677	-0.0202
528.8737	-0.007
529.0703	-0.0098
529.2669	-0.0096
529.4635	-0.0046
529.6601	-0.0084
529.8567	-0.0052
530.0532	-0.0246
530.2498	0.0007
530.4463	0.0032
530.6428	-0.0077
530.8393	-0.0018
531.0358	-0.015
531.2322	-0.0142
531.4287	-0.0099
531.6251	-0.0028
531.8215	-0.0052
532.0179	-0.01
532.2143	0.0075
532.4107	-0.0044
532.607	-0.0032
532.8034	-0.0007
532.9997	-0.0005
533.196	-0.0115
533.3923	-0.0058
533.5886	-0.0035
533.7848	-0.0051
533.9811	-0.0094
534.1773	-0.0128
534.3735	-0.0024
534.5697	-0.0126
534.7659	-0.0122
534.9621	-0.0007
535.1582	-0.0114
535.3544	-0.0209
535.5505	-0.0122
535.7466	-0.0109
535.9427	-0.0091
536.1387	-0.0147
536.3348	-0.0176
536.5308	-0.0018
536.7269	-0.0154
536.9229	0.0012
537.1189	-0.004
537.3148	-0.0128
537.5108	-0.0103
537.7068	-0.0069
537.9027	-0.0029
538.0986	-0.012
538.2945	-0.0062
538.4904	-0.0031
538.6863	-0.0055
538.8821	-0.0094
539.078	-0.0132
539.2738	-0.0025
539.4696	-0.0137
539.6654	0.0012
539.8611	-0.0036
540.0569	-0.0079
540.2526	-0.0024
540.4484	-0.0059
540.6441	-0.0038
540.8398	-0.0043
541.0355	-0.0038
541.2311	-0.0154
541.4268	-0.0149
541.6224	0.0046
541.818	-0.008
542.0136	-0.0147
542.2092	-0.0063
542.4048	-0.0008
542.6003	-0.0035
542.7959	-0.0125
542.9914	-0.0049
543.1869	-0.0011
543.3824	-0.0078
543.5779	-0.0067
543.7734	-0.0017
543.9688	-0.0075
544.1642	0.0086
544.3596	-0.0062
544.555	-0.0102
544.7504	-0.0086
544.9458	-0.0049
545.1411	-0.0088
545.3365	0.0021
545.5318	-0.008
545.7271	-0.0032
545.9224	-0.0024
546.1177	-0.01
546.3129	-0.001
546.5081	-0.0063
546.7034	-0.0094
546.8986	-0.0015
547.0938	-0.0047
547.289	-0.0097
547.4841	-0.013
547.6793	0.0034
547.8744	-0.0043
548.0695	-0.0044
548.2646	-0.0109
548.4597	-0.0016
548.6548	-0.0043
548.8498	-0.0086
549.0448	0.0103
549.2399	-0.0143
549.4349	0.0063
549.6298	-0.0056
549.8248	0.0042
550.0198	-0.0044
550.2147	-0.0044
550.4096	-0.0108
550.6045	-0.0008
550.7994	-0.0011
550.9943	-0.0024
551.1892	0.002
551.384	0.0002
551.5788	-0.0163
551.7737	0.009
551.9685	0.0015
552.1632	-0.0007
552.358	-0.0009
552.5528	0.0026
552.7475	-0.0081
552.9422	-0.0033
553.1369	-0
553.3316	0.0013
553.5263	-0.004
553.7209	0.0032
553.9156	0.0035
554.1102	-0.0008
554.3048	-0.0087
554.4994	0.0115
554.694	-0.0044
554.8885	-0.0035
555.0831	0.0001
555.2776	-0.0047
555.4721	-0.0051
555.6666	-0.0033
555.8611	0.0014
556.0555	-0.0069
556.25	-0.0123
556.4444	-0.0167
556.6388	0.0023
556.8332	0.0005
557.0276	-0.0046
557.222	-0.0039
557.4163	-0.0002
557.6107	-0.0107
557.805	0.005
557.9993	-0.0045
558.1936	0.002
558.3879	-0.0033
558.5821	-0.0077
558.7764	-0.0069
558.9706	-0.0042
559.1648	-0.0042
559.359	-0.0147
559.5532	-0.0049
559.7473	-0.0032
559.9415	-0.0011
560.1356	-0.0079
560.3297	-0.0129
560.5238	-0.0033
560.7179	0.0054
560.9119	-0.0093
561.106	0.0017
561.3	-0.007
561.494	-0.0116
561.688	0.0014
561.882	-0.0189
562.076	-0.0057
562.2699	0.0015
562.4639	-0.004
562.6578	-0.001
562.8517	-0.0003
563.0456	-0.002
563.2395	0.0019
563.4333	0.0006
563.6272	0.0062
563.821	-0.0077
564.0148	-0.0054
564.2086	-0.0112
564.4024	-0.0044
564.5961	-0.0152
564.7899	0.0045
564.9836	-0.0037
565.1773	-0.0056
565.371	0.0034
565.5647	-0.0002
565.7584	0.0005
565.952	0.0061
566.1456	-0.0023
566.3393	-0.0018
566.5329	-0.0023
566.7264	-0.0043
566.92	-0.007
567.1136	-0
567.3071	-0
567.5006	-0.0018
567.6941	0.0053
567.8876	-0.0046
568.0811	-0.0039
568.2745	-0.0072
568.468	0.0009
568.6614	-0.0049
568.8548	0.0016
569.0482	-0.0012
569.2416	0.002
569.4349	-0.0046
569.6283	0.0019
569.8216	0.0036
570.0149	-0.0048
570.2082	0.0047
570.4015	0.0085
570.5947	0.0072
570.788	-0.0013
570.9812	0.0016
571.1744	-0.0028
571.3676	-0.0093
571.5608	-0.0082
571.754	0.0024
571.9471	0.0045
572.1402	0.0033
572.3333	-0.0077
572.5264	-0.0009
572.7195	0.0047
572.9126	-0.0013
573.1057	0.0035
573.2987	-0.0069
573.4917	0.0035
573.6847	-0.0132
573.8777	0.0036
574.0707	0.0072
574.2636	-0.0051
574.4566	-0.0043
574.6495	-0.0023
574.8424	0.0021
575.0353	0.0009
575.2281	0.0103
575.421	0.0072
575.6138	0.0055
575.8067	0.002
575.9995	0.0057
576.1923	0.0047
576.385	0.0033
576.5778	0.0006
576.7706	0.0029
576.9633	0.0002
577.156	0.0011
577.3487	-0.0048
577.5414	-0.0059
577.734	-0.0064
577.9267	0.002
578.1193	-0.009
578.3119	-0.0041
578.5045	0.0066
578.6971	0.0008
578.8897	0.0083
579.0822	0.0001
579.2747	0.0053
579.4673	0.0006
579.6598	0.0063
579.8522	-0.0009
580.0447	-0.001
580.2372	-0.003
580.4296	-0.0018
580.622	0.0022
580.8144	-0.0023
581.0068	-0.0037
581.1992	-0.0095
581.3915	-0.0011
581.5839	-0.0068
581.7762	-0.0042
581.9685	0.0025
582.1608	0.0008
582.353	-0.0008
582.5453	-0.0011
582.7375	0.0031
582.9298	0.0042
583.122	0.0035
583.3142	0.0047
583.5063	-0.0012
583.6985	-0.0023
583.8906	-0.0014
584.0827	-0.003
584.2749	0.006
584.4669	0.0044
584.659	-0.0014
584.8511	0.001
585.0431	0.0006
585.2352	0.0009
585.4272	0.0061
585.6192	0.0088
585.8111	0.006
586.0031	-0.0055
586.195	-0.0002
586.387	0.0057
586.5789	-0.0026
586.7708	-0.0012
586.9627	0
587.1545	-0.0036
587.3464	0.0032
587.5382	0.0017
587.73	0.0013
587.9218	0.002
588.1136	-0.0056
588.3053	0.0041
588.4971	-0.0014
588.6888	-0.0116
588.8805	0.0021
589.0722	0.0014
589.2639	0.0017
589.4556	0
589.6472	0.0016
589.8389	-0.0081
590.0305	-0.0031
590.2221	0.0024
590.4137	-0.0103
590.6052	0.0073
590.7968	0.0034
590.9883	-0.0016
591.1798	-0.0056
591.3713	-0.0024
591.5628	0.0028
591.7543	0.0003
591.9458	0.0034
592.1372	0.0094
592.3286	0.0046
592.52	0.0065
592.7114	-0.0062
592.9028	0.0028
593.0941	-0.0036
593.2855	0.0109
593.4768	-0.0044
593.6681	-0.0023
593.8594	-0.0075
594.0506	0.0024
594.2419	0.0103
594.4331	0.0018
594.6244	0.0066
594.8156	-0.0082
595.0067	-0.0031
595.1979	0.0014
595.3891	-0.0047
595.5802	-0.0032
595.7713	-0.0059
595.9624	-0.0029
596.1535	0.0061
596.3446	-0.004
596.5357	-0.0003
596.7267	0.0083
596.9177	-0.0006
597.1087	-0.0032
597.2997	0.003
597.4907	0.0065
597.6817	-0.0042
597.8726	0.0034
598.0635	-0.0023
598.2544	-0.0059
598.4453	-0
598.6362	-0.0078
598.827	-0.0025
599.0179	0.0066
599.2087	0.0058
599.3995	0.0046
599.5903	0.0037
599.7811	-0.0001
599.9718	-0.0015
600.1626	0.0012
600.3533	-0.0032
600.544	-0.0012
600.7347	-0.0016
600.9254	0.0008
601.116	-0.0032
601.3067	0.0016
601.4973	-0.0056
601.6879	0.0059
601.8785	-0.0094
602.0691	-0.0003
602.2596	-0.0022
602.4502	-0.0005
602.6407	0.0019
602.8312	0.0069
603.0217	-0.006
603.2122	-0.0017
603.4027	-0.001
603.5931	-0.0094
603.7835	-0.0055
603.9739	-0.0071
604.1643	-0.0036
604.3547	-0.0048
604.5451	0.0005
604.7354	-0.0003
604.9257	0.0021
605.116	0.0014
605.3063	0.007
605.4966	0.0051
605.6869	0.0011
605.8771	0.0072
606.0673	0.0071
606.2575	0.008
606.4477	0.0044
606.6379	0.0021
606.8281	0.0056
607.0182	0.0001
607.2083	0.013
607.3985	-0.0008
607.5885	-0.0022
607.7786	-0.0009
607.9687	-0.0014
608.1587	0.0024
608.3488	0.0083
608.5388	0.0024
608.7288	-0.001
608.9187	-0.0046
609.1087	-0.0063
609.2986	-0.0008
609.4886	0.0042
609.6785	0.0057
609.8684	-0.0006
610.0582	0.0052
610.2481	0.0044
610.4379	0.0059
610.6278	-0.0011
610.8176	-0.0011
611.0074	-0.004
611.1971	-0.0017
611.3869	-0.0059
611.5766	-0.0042
611.7664	0.0079
611.9561	0.0026
612.1458	0.0007
612.3354	-0.0038
612.5251	-0.0024
612.7147	-0.0005
612.9044	0.0017
613.094	-0.0066
613.2836	0.0033
613.4731	-0.002
613.6627	0.0009
613.8522	0.0024
614.0417	0.0007
614.2313	-0.0056
614.4207	-0.006
614.6102	0.0027
614.7997	0.0018
614.9891	-0.0004
615.1785	-0.0016
615.3679	-0.0011
615.5573	0.0112
615.7467	-0.0073
615.9361	-0.0018
616.1254	-0.0066
616.3147	-0.0014
616.504	-0.0014
616.6933	0.0076
616.8826	0.0048
617.0718	0.0051
617.2611	0.01
617.4503	0.0014
617.6395	0.0016
617.8287	-0.0017
618.0179	0.0054
618.207	0.0064
618.3961	-0.0018
618.5853	0.0008
618.7744	0.0112
618.9634	0.0034
619.1525	0.0063
619.3416	-0.0067
619.5306	0.0008
619.7196	-0.0003
619.9086	-0.0027
620.0976	0.007
620.2866	0.0014
620.4755	0.0068
620.6645	0.0015
620.8534	0.0064
621.0423	0.003
621.2312	0.0047
621.42	0.0063
621.6089	-0.0018
621.7977	0.0042
621.9865	-0.0027
622.1753	0.0095
622.3641	0.0013
622.5529	0.004
622.7416	0.0042
622.9303	-0.0002
623.1191	0.0039
623.3078	0.0043
623.4964	0.0063
623.6851	-0.0021
623.8737	0.0021
624.0624	0.0116
624.251	0.0032
624.4396	0.0064
624.6282	0.0038
624.8167	0.0063
625.0053	-0.0003
625.1938	0.0039
625.3823	0.0043
625.5708	-0.0054
625.7593	0.001
625.9477	-0.0032
626.1362	0.0021
626.3246	0.005
626.513	0.0051
626.7014	0.0069
626.8898	-0.0064
627.0781	-0.0011
627.2665	-0.0079
627.4548	0.0084
627.6431	0.0047
627.8314	0.0096
628.0197	0.0143
628.2079	-0.0073
628.3962	-0.0008
628.5844	0.0097
628.7726	0.0084
628.9608	0.0074
629.1489	0.0051
629.3371	0.0062
629.5252	0.0018
629.7134	0.0091
629.9015	0.0013
630.0895	0.0034
630.2776	0.0067
630.4657	-0.003
630.6537	-0.0046
630.8417	-0.0034
631.0297	-0.0057
631.2177	-0.0007
631.4057	-0.0101
631.5936	0.0071
631.7815	-0.0021
631.9695	0.0035
632.1574	0.0052
632.3452	0.01
632.5331	0.0042
632.7209	-0.0009
632.9088	0.0075
633.0966	0.0082
633.2844	-0.0036
633.4722	-0.0005
633.6599	0.0031
633.8477	0.0063
634.0354	-0
634.2231	-0.0003
634.4108	-0.0003
634.5985	0.0085
634.7861	0.002
634.9738	-0.0013
635.1614	0.004
635.349	0.0027
635.5366	0.0049
635.7242	0.0053
635.9117	0.0082
636.0993	0.0042
636.2868	0.0064
636.4743	0.0053
636.6618	0.0086
636.8492	0.0028
637.0367	-0.0001
637.2241	-0.0052
637.4115	-0.0026
637.5989	-0.0019
637.7863	0.0054
637.9737	-0.014
638.161	-0.0039
638.3484	0.0032
638.5357	0.006
638.723	-0.0056
638.9103	0.0008
639.0975	0.0042
639.2848	-0.0002
639.472	0.0008
639.6592	-0.0013
639.8464	0.0068
640.0336	0.0045
640.2208	0
640.4079	-0.005
640.595	-0.0006
640.7821	-0.0059
640.9692	-0.002
641.1563	0.0043
641.3434	-0.004
641.5304	-0.0074
641.7174	-0.005
641.9044	-0.0056
642.0914	-0.0024
642.2784	0.0012
642.4653	0.0007
642.6523	0.0012
642.8392	0.0007
643.0261	0.0015
643.213	-0.0019
643.3999	-0.0066
643.5867	-0.0085
643.7735	-0.0059
643.9604	0.004
644.1472	-0.0068
644.3339	0.0013
644.5207	-0.0037
644.7075	-0.0062
644.8942	-0.0029
645.0809	0.0085
645.2676	0.0044
645.4543	-0.0012
645.6409	0.0025
645.8276	0.0023
646.0142	-0.0027
646.2008	-0.0091
646.3874	0
646.574	0.002
646.7605	0.0021
646.9471	-0.011
647.1336	0.0031
647.3201	0.0028
647.5066	-0.0043
647.6931	0.0094
647.8795	0.0003
648.0659	0.0086
648.2524	0.0084
648.4388	-0.009
648.6252	-0.001
648.8115	-0.0042
648.9979	-0.0029
649.1842	-0.0009
649.3705	-0.0001
649.5568	0.0055
649.7431	0.0061
649.9294	-0.0016
650.1156	0.0041
650.3018	-0.0098
650.488	0.0052
650.6742	0.0045
650.8604	-0.0017
651.0466	-0.0093
651.2327	0.0005
651.4188	0.0002
651.6049	-0.0057
651.791	-0.003
651.9771	-0.0031
652.1632	0.0054
652.3492	0.002
652.5352	-0.0044
652.7212	0.0001
652.9072	0.0026
653.0932	-0.0061
653.2791	0.0008
653.465	0.001
653.651	-0.0111
653.8369	-0.0045
654.0227	-0.003
654.2086	-0.0015
654.3944	-0.0027
654.5803	-0.0007
654.7661	-0.0005
654.9519	-0.0025
655.1377	-0.0047
655.3234	0.0022
655.5092	-0.0077
655.6949	-0.0046
655.8806	-0.0044
656.0663	-0.0006
656.2519	-0.0047
656.4376	-0.0079
656.6232	0.0019
656.8088	-0.004
656.9945	0.0006
657.18	-0.0061
657.3656	-0.0006
657.5511	0.0002
657.7367	-0.0031
657.9222	0.0043
658.1077	-0.0007
658.2932	0.0059
658.4786	-0.0063
658.6641	-0.0026
658.8495	-0.0016
659.0349	0.0015
659.2203	0.0017
659.4057	-0.0045
659.591	0.0018
659.7764	-0.0046
659.9617	-0.0046
660.147	-0.0027
660.3323	0.0046
660.5176	0.0008
660.7028	-0.0006
660.888	-0.0016
661.0733	0.0002
661.2585	-0.0068
661.4436	-0.001
661.6288	-0.0051
661.8139	0.0016
661.9991	0.0039
662.1842	-0.0035
662.3693	0.0056
662.5544	-0.005
662.7394	0.0063
662.9245	-0.0021
663.1095	-0.0048
663.2945	-0.0028
663.4795	-0.0042
663.6644	0.007
663.8494	-0.0061
664.0343	0.007
664.2193	-0.0072
664.4042	-0.0016
664.589	-0.0023
664.7739	-0.0035
664.9587	-0.0025
665.1436	-0.0041
665.3284	0.0021
665.5132	-0.0059
665.698	0.0032
665.8827	0.0005
666.0675	0.0002
666.2522	-0.0099
666.4369	0.008
666.6216	0.0071
666.8063	0.0015
666.9909	0.0049
667.1756	-0.0036
667.3602	0.0012
667.5448	-0.0073
667.7294	0.0041
667.9139	0.0097
668.0985	0.0143
668.283	0.0038
668.4675	0.0041
668.652	0.0062
668.8365	-0.0009
669.0209	0.0121
669.2054	0.0049
669.3898	-0.0009
669.5742	0.0052
669.7586	0.009
669.943	0.0068
670.1273	0.0051
670.3117	0.0078
670.496	0.0112
670.6803	0.0131
670.8646	0.0029
671.0488	-0.0019
671.2331	0.0099
671.4173	0.0058
671.6015	0.0001
671.7857	0.009
671.9699	0.0104
672.1541	0.0085
672.3382	0.0039
672.5223	0.0131
672.7064	0.01
672.8905	0.0085
673.0746	0.0003
673.2587	-0.0026
673.4427	0.0088
673.6267	0.0065
673.8107	0.0084
673.9947	0.0126
674.1787	0.0018
674.3626	-0.0072
674.5465	0.0059
674.7304	0.0029
674.9143	-0.0013
675.0982	0.0042
675.2821	-0.0003
675.4659	0.0057
675.6497	-0.0013
675.8335	0.0024
676.0173	0.0057
676.2011	0.0017
676.3849	-0.0029
676.5686	-0.0028
676.7523	0.0046
676.936	0.0075
677.1197	0.0018
677.3034	-0.0032
677.487	0.0051
677.6706	0.0056
677.8542	0.0004
678.0378	0.0031
678.2214	-0.0027
678.405	0.0033
678.5885	-0.0092
678.772	-0.0031
678.9555	-0.0082
679.139	-0.0033
679.3225	0.0012
679.5059	-0.0051
679.6894	0.0085
679.8728	0.0007
680.0562	-0.0007
680.2395	-0.0104
680.4229	-0.0054
680.6062	0.001
680.7896	-0.0017
680.9729	-0.0066
681.1562	-0.0006
681.3394	0.0012
681.5227	-0.0105
681.7059	-0.002
681.8891	-0.0039
682.0723	0.0016
682.2555	-0.0002
682.4387	-0.005
682.6218	-0.0081
682.805	0.0034
682.9881	0.0013
683.1712	-0.0012
683.3542	-0.0042
683.5373	0.0029
683.7203	-0.001
683.9034	0.0051
684.0864	-0.0031
684.2694	-0.0095
684.4523	-0.0014
684.6353	-0.003
684.8182	-0.0023
685.0011	-0.0039
685.184	0.0014
685.3669	-0.0074
685.5498	-0.0032
685.7326	0.0043
685.9154	-0.0041
686.0982	0.0061
686.281	0.0063
686.4638	0.0047
686.6465	0.0039
686.8293	0.0017
687.012	-0.0022
687.1947	-0.0106
687.3774	0.0007
687.56	-0.0026
687.7427	0.0052
687.9253	-0.009
688.1079	-0.0034
688.2905	0.0083
688.4731	0.0008
688.6556	-0.0014
688.8382	0.0034
689.0207	0.004
689.2032	-0.0067
689.3857	0
689.5681	0.0038
689.7506	-0.0051
689.933	-0.0008
690.1154	0.002
690.2978	0.0028
690.4802	-0.0042
690.6626	-0.0068
690.8449	-0.0081
691.0272	0.002
691.2095	-0
691.3918	-0.0022
691.5741	-0.0002
691.7563	0.0035
691.9386	0.0023
692.1208	0.0012
692.303	-0.0034
692.4852	0.0014
692.6673	-0.0009
692.8495	-0.0007
693.0316	0.0005
693.2137	0.0041
693.3958	0.0062
693.5778	0.0047
693.7599	0.0032
693.9419	0.0017
694.1239	0.0037
694.3059	-0.007
694.4879	0.01
694.6699	0.0072
694.8518	-0.0017
695.0337	0.0033
695.2157	0.0069
695.3975	0.0041
695.5794	0.0006
695.7613	0.0063
695.9431	0.0002
696.1249	0.0096
696.3067	0.0068
696.4885	0.0098
696.6703	-0.0081
696.852	-0.0015
697.0337	0.0042
697.2154	-0.0028
697.3971	-0.0038
697.5788	-0.0012
697.7605	-0.0085
697.9421	0.0018
698.1237	-0.0041
698.3053	-0.0069
698.4869	-0.0067
698.6685	-0.0076
698.85	-0.0064
699.0315	0.0084
699.213	-0.0044
699.3945	0.0053
699.576	0.0071
699.7575	0.0071
699.9389	0.0024
700.1203	0.0013
700.3017	0.0001
700.4831	-0.0029
700.6645	-0.0032
700.8458	0.0027
701.0271	-0.0013
701.2084	0.0109
701.3897	0.0029
701.571	0.005
701.7523	-0.0049
701.9335	-0.0013
702.1147	-0.0031
702.2959	0.0004
702.4771	-0.0067
702.6583	0.0019
702.8394	-0.0019
703.0205	0.0061
703.2016	-0.0017
703.3827	-0.0086
703.5638	0.0067
703.7449	0.0052
703.9259	0.0082
704.1069	-0.0064
704.2879	0.0026
704.4689	0.0022
704.6499	0.0012
704.8308	0.0009
705.0117	-0.0018
705.1927	0.0037
705.3735	0.0059
705.5544	-0.0005
705.7353	0.0017
705.9161	-0.0058
706.0969	-0.0036
706.2777	-0.0034
706.4585	-0.0031
706.6393	0.0015
706.82	-0.0091
707.0007	-0.0008
707.1815	0.0091
707.3621	0.0096
707.5428	0.0046
707.7235	0.0067
707.9041	0.0061
708.0847	-0.0066
708.2653	-0.0068
708.4459	-0.016
708.6265	0.0057
708.807	0.0103
708.9875	0.0048
709.168	-0.002
709.3485	-0.0033
709.529	-0.01
709.7095	-0.0087
709.8899	0.0031
710.0703	-0.0078
710.2507	-0.0001
710.4311	-0.0014
710.6115	-0.0082
710.7918	-0.0082
710.9721	0.0028
711.1524	-0.0077
711.3327	-0.0003
711.513	-0.0007
711.6932	-0.0053
711.8735	0.0087
712.0537	0.0017
712.2339	-0.0049
712.4141	-0.0083
712.5942	-0.0086
712.7744	-0.0089
712.9545	-0.0147
713.1346	-0.0139
713.3147	-0.0065
713.4947	-0.0178
713.6748	-0.0001
713.8548	-0.0052
714.0348	-0.0028
714.2148	-0.0018
714.3948	0.0078
714.5748	-0.001
714.7547	-0.0028
714.9346	0.0008
715.1145	-0.0048
715.2944	-0.008
715.4743	-0.0047
715.6541	-0.0019
715.834	0.002
716.0138	-0.005
716.1936	-0.0077
716.3733	-0.003
716.5531	0.0011
716.7328	-0.0068
716.9126	-0.0076
717.0923	0.001
717.2719	-0.0095
717.4516	-0.0024
717.6312	0.0051
717.8109	-0.0095
717.9905	0.0077
718.1701	-0.0048
718.3496	-0.002
718.5292	0.0005
718.7087	-0.0058
718.8882	0.0007
719.0677	0.0063
719.2472	-0.0081
719.4267	-0.004
719.6061	-0.0005
719.7856	0.0091
719.965	0.0122
720.1443	-0.0063
720.3237	0.0132
720.5031	-0.0022
720.6824	0.0083
720.8617	0.0042
721.041	0.0052
721.2203	0.0078
721.3995	0.0027
721.5788	0.0095
721.758	0.0094
721.9372	0.0014
722.1164	0.0028
722.2956	0.0137
722.4747	-0.0007
722.6538	0.0059
722.8329	0.0138
723.012	0.0012
723.1911	-0.0054
723.3702	-0
723.5492	0.0105
723.7282	0.0026
723.9072	-0.0064
724.0862	-0.0028
724.2652	0.001
724.4441	0.0007
724.623	0.0024
724.8019	0.0001
724.9808	0.0046
725.1597	-0.0076
725.3385	0.003
725.5174	0.006
725.6962	0.0019
725.875	-0.0074
726.0538	0.0037
726.2325	-0.0067
726.4112	0.0016
726.59	0.0021
726.7687	-0.0075
726.9474	0.0085
727.126	-0.0027
727.3047	-0.0063
727.4833	-0.0055
727.6619	-0.0113
727.8405	-0.0043
728.0191	-0
728.1976	0.0107
728.3762	-0.0049
728.5547	0.0046
728.7332	-0.0026
728.9116	0.0018
729.0901	0.0081
729.2686	-0.0049
729.447	-0.0065
729.6254	0.0007
729.8038	-0.0045
729.9821	-0.004
730.1605	0.0016
730.3388	0.0002
730.5171	-0.0069
730.6954	-0.0049
730.8737	-0.0013
731.0519	0.0067
731.2302	0.0017
731.4084	0.0027
731.5866	0.0077
731.7648	0.0025
731.9429	0.0082
732.1211	-0.0057
732.2992	-0.0081
732.4773	-0.0028
732.6554	-0.0021
732.8335	0.0085
733.0115	0.007
733.1896	0.0108
733.3676	-0.0042
733.5456	0.0027
733.7235	0.0119
733.9015	0.0075
734.0794	0.0056
734.2574	0.0027
734.4353	0.0068
734.6131	0.0076
734.791	0.0061
734.9689	-0.004
735.1467	0.0038
735.3245	-0.0112
735.5023	-0.0084
735.68	0.0013
735.8578	0.0041
736.0355	-0.0183
736.2132	-0.0072
736.3909	-0.0022
736.5686	-0.009
736.7463	0.0035
736.9239	-0.0036
737.1015	-0.0015
737.2791	-0.0006
737.4567	-0.0024
737.6343	-0.0012
737.8118	0.0078
737.9894	-0.0008
738.1669	-0.0125
738.3444	-0.0004
738.5218	0.0044
738.6993	-0.0034
738.8767	-0.0022
739.0541	0.0084
739.2315	-0.0142
739.4089	-0.0041
739.5863	-0.0008
739.7636	-0.0078
739.9409	-0.0026
740.1182	0.006
740.2955	0.0037
740.4728	0.0022
740.65	-0.0046
740.8272	-0.0046
741.0044	-0.005
741.1816	0.0006
741.3588	-0.0101
741.5359	0.008
741.7131	-0.0123
741.8902	-0.0095
742.0673	-0.0037
742.2444	-0.0028
742.4214	-0.006
742.5985	-0.0076
742.7755	-0.0084
742.9525	-0.014
743.1295	-0.0081
743.3064	-0.0057
743.4834	-0.0016
743.6603	-0.0067
743.8372	-0.0076
744.0141	-0.0027
744.191	0.0003
744.3678	-0.0081
744.5446	-0.0054
744.7215	0.0074
744.8982	-0.0006
745.075	-0.006
745.2518	0.0046
745.4285	0.0054
745.6052	-0.0048
745.7819	-0.0025
745.9586	0.0023
746.1353	0.0006
746.3119	0.0013
746.4885	0.0026
746.6651	0.0015
746.8417	0.0106
747.0183	0.0021
747.1948	-0.0025
747.3714	0.0047
747.5479	0.0071
747.7244	-0.006
747.9008	0.01
748.0773	0.0029
748.2537	-0.0016
748.4301	-0.0121
748.6065	0.0035
748.7829	0.0048
748.9593	-0.0114
749.1356	-0.0022
749.3119	0.0142
749.4882	-0.0087
749.6645	0.0021
749.8408	-0.0069
750.017	-0.0018
750.1933	0.0156
750.3695	-0.003
750.5457	0.0136
750.7218	0.0031
750.898	0.0098
751.0741	0.0066
751.2502	0.0042
751.4263	-0.0043
751.6024	0.0015
751.7784	0.0028
751.9545	-0.0059
752.1305	-0.0017
752.3065	-0.0035
752.4825	-0.0005
752.6584	-0.0063
752.8344	-0.0101
753.0103	-0.0063
753.1862	-0.0093
753.3621	-0.0008
753.5379	-0.0035
753.7138	-0.0058
753.8896	-0.0007
754.0654	0.0063
754.2412	0.0106
754.417	-0.0042
754.5927	-0.0025
754.7685	-0.0025
754.9442	0.0003
755.1199	0.0086
755.2956	-0.0048
755.4712	0.0088
755.6469	-0.0047
755.8225	-0.003
755.9981	-0.0087
756.1736	-0.0047
756.3492	-0.0053
756.5248	-0.0087
756.7003	-0.0028
756.8758	0.0075
757.0513	-0.0094
757.2267	-0.0109
757.4022	0.0038
757.5776	-0.0014
757.753	0.007
757.9284	0.0028
758.1038	0.0073
758.2791	0.0129
758.4545	-0.0108
758.6298	0.0023
758.8051	0.0089
758.9803	0.0066
759.1556	0.0056
759.3308	-0.0023
759.506	0.0132
759.6812	0.0134
759.8564	0.0123
760.0316	-0.001
760.2067	0.0081
760.3819	0.0052
760.557	0.0098
760.732	0.0008
760.9071	-0.0136
761.0821	-0.0008
761.2572	0.0025
761.4322	-0.0055
761.6072	-0.0178
761.7821	-0.0106
761.9571	-0.0018
762.132	-0.0117
762.3069	-0.0048
762.4818	-0.0136
762.6567	-0.0109
762.8316	-0.0063
763.0064	-0.0045
763.1812	-0.0011
763.356	-0.0085
763.5308	0.0009
763.7055	0.0041
763.8803	-0.0065
764.055	0.0051
764.2297	-0.003
764.4044	-0.0091
764.579	-0.0039
764.7537	-0.0072
764.9283	0.009
765.1029	-0.008
765.2775	0.0012
765.4521	-0.0104
765.6266	-0.0098
765.8011	0.0023
765.9756	0.0061
766.1501	0.0067
766.3246	-0.0071
766.4991	0.0061
766.6735	-0.0019
766.8479	-0.0062
767.0223	0.0002
767.1967	0.0001
767.371	0.0013
767.5454	-0.0075
767.7197	0.0147
767.894	-0.0013
768.0683	0.0043
768.2425	0.0062
768.4168	-0.0002
768.591	0.0035
768.7652	-0.0023
768.9394	0.0056
769.1135	-0.0004
769.2877	0.0091
769.4618	-0.0008
769.6359	-0.0028
769.81	-0.0028
769.984	0.0056
770.1581	-0.0064
770.3321	0.0005
770.5061	-0.0048
770.6801	0.0035
770.8541	-0.0037
771.028	0.0042
771.202	-0.0106
771.3759	0.0019
771.5498	0.0006
771.7236	0.0047
771.8975	-0.0012
772.0713	0.0062
772.2451	0.001
772.4189	0.0185
772.5927	0.0084
772.7665	0.0039
772.9402	-0.0025
773.1139	-0.0059
773.2876	-0.0004
773.4613	0.0056
773.635	0.0055
773.8086	-0.0097
773.9822	0.0029
774.1558	0.0079
774.3294	-0.0147
774.503	0.0016
774.6765	-0.002
774.8501	0.0128
775.0236	-0.003
775.1971	0.0033
775.3705	-0.007
775.544	0.0081
775.7174	-0.0124
775.8908	0.0042
776.0642	-0.0107
776.2376	-0.0105
776.4109	-0.0052
776.5843	-0.0007
776.7576	-0.0005
776.9309	0.0117
777.1041	0.0074
777.2774	0.0135
777.4506	0.0035
777.6238	0.0037
777.797	-0.0078
777.9702	0.0032
778.1434	-0.0055
778.3165	-0.0066
778.4896	-0.0035
778.6627	0.0059
778.8358	-0.0092
779.0089	-0.0083
779.1819	0.0067
779.3549	0.0091
779.5279	0.0031
779.7009	-0.0049
779.8739	0.0049
780.0468	-0.0033
780.2197	0.0058
780.3926	-0.0113
780.5655	0.0001
780.7384	-0.0051
780.9112	0.0019
781.0841	-0.0119
781.2569	0.0075
781.4297	0.0018
781.6024	0.0081
781.7752	0.003
781.9479	0.0094
782.1206	-0.0013
782.2933	0.0072
782.466	0.0088
782.6386	0.0048
782.8113	0.0127
782.9839	0.0206
783.1565	0.0204
783.329	0.0199
783.5016	0.0165
783.6741	0.0066
783.8466	-0.0086
784.0191	0.0102
784.1916	-0.0011
784.3641	-0.0048
784.5365	0.0058
784.7089	0.0065
784.8813	-0.0145
785.0537	-0.0042
785.2261	0.0004
785.3984	-0.0125
785.5707	-0.017
785.743	-0.0048
785.9153	-0.0109
786.0876	-0.0037
786.2598	-0.0004
786.432	-0.0104
786.6042	0.0007
786.7764	-0.0124
786.9486	-0.0021
787.1207	-0.0158
787.2928	0.0011
787.4649	0.0119
787.637	0.0026
787.8091	-0.0031
787.9811	-0.0002
788.1532	-0.0002
788.3252	0.0066
788.4972	0.002
788.6691	-0.0084
788.8411	0.0011
789.013	0.0025
789.1849	0.0089
789.3568	-0.0018
789.5287	0.0093
789.7005	0.0019
789.8723	0.0084
790.0442	0.0147
790.2159	0.0124
790.3877	0.0073
790.5595	-0.0168
790.7312	0.0019
790.9029	0.0209
791.0746	-0.0022
791.2463	0.0096
791.4179	-0.0109
791.5896	-0.0126
791.7612	-0.0039
791.9328	0.0113
792.1044	-0.0037
792.2759	-0.0065
792.4474	-0.01
792.619	-0.0005
792.7905	0.015
792.9619	0.0054
793.1334	0.0187
793.3048	0.0255
793.4762	0.0023
793.6476	0.0104
793.819	0.0145
793.9904	0.0098
794.1617	-0.0099
794.333	-0.0016
794.5043	-0.0073
794.6756	-0.01
794.8469	0.0014
795.0181	0.0092
795.1893	-0.0017
795.3605	0.0124
795.5317	0.0064
795.7029	0.0058
795.874	0.0136
796.0452	0.0062
796.2163	0.0187
796.3873	0.0134
796.5584	0.0146
796.7294	-0.0041
796.9005	0.0219
797.0715	0.0132
797.2425	-0.0091
797.4134	0.0055
797.5844	0.0069
797.7553	-0.0077
797.9262	-0.0076
798.0971	-0.0099
798.2679	-0.0118
798.4388	-0.0111
798.6096	0.0032
798.7804	0.003
798.9512	-0.0026
799.122	-0.0021
799.2927	0.0085
799.4635	0.0175
799.6342	-0.0018
799.8049	0.0054
799.9755	-0.0034
800.1462	0.0052
800.3168	0.0023
800.4874	0.007
800.658	0.0154
800.8286	0.0049
800.9991	0.0011
801.1696	0.0096
801.3402	0.019
801.5106	-0.0184
801.6811	0.0092
801.8516	0.0077
802.022	0.0089
802.1924	0.0086
802.3628	0.0055
802.5332	0.0111
802.7035	0.0284
802.8739	0.0146
803.0442	0.0074
803.2145	0.0096
803.3847	-0.0205
803.555	0.009
803.7252	-0.0046
803.8954	0.0049
804.0656	0.0031
804.2358	0.0059
804.4059	0.0237
804.5761	0.0205
804.7462	0.016
804.9163	-0.0087
805.0864	0.0123
805.2564	-0.0018
805.4264	0.0095
805.5965	0.0002
805.7665	0.0199
805.9364	0.0058
806.1064	0.0256
806.2763	0.004
806.4462	0.0255
806.6161	0.021
806.786	0.02
806.9559	0.0077
807.1257	0.0004
807.2955	0.017
807.4653	-0.0007
807.6351	0.0028
807.8048	0.009
807.9746	0.0183
808.1443	0.0004
808.314	0.0099
808.4837	0.0224
808.6533	0.0086
808.8229	0.0236
808.9926	0.0187
809.1622	0.0178
809.3317	0.0012
809.5013	0.0113
809.6708	0.0091
809.8403	0.0074
810.0098	0.002
810.1793	0.0086
810.3488	0.0226
810.5182	0.034
810.6876	0.0107
810.857	-0.0051
811.0264	0.0301
811.1958	0.0191
811.3651	0.0225
811.5344	0.02
811.7037	0.0251
811.873	0.001
812.0422	0.0201
812.2115	0.0013
812.3807	0.0068
812.5499	0.0249
812.7191	0.0395
812.8882	-0.0104
813.0574	0.0066
813.2265	0.0112
813.3956	0.0131
813.5646	-0.0036
813.7337	0.0144
813.9027	0.0352
814.0718	0.0387
814.2407	0.0234
814.4097	-0.0105
814.5787	0.0038
814.7476	0.0146
814.9165	0.0213
815.0854	-0.0045
815.2543	0.0075
815.4232	-0.0084
815.592	0.0316
815.7608	0.0309
815.9296	0.0112
816.0984	0.01
816.2671	-0.0015
816.4359	-0.0072
816.6046	0.0117
816.7733	-0.0156
816.942	0.0153
817.1106	0.0244
817.2793	0.0149
817.4479	-0.0001
817.6165	0.0268
817.785	0.017
817.9536	0.0221
818.1221	0.022
818.2906	0.0179
818.4591	0.0052
818.6276	0.0003
818.7961	0.0086
818.9645	0.0076
819.1329	0.009
819.3013	0.0348
819.4697	0.0306
819.638	0.0224
819.8064	-0.0034
819.9747	0.0265
820.143	0.0014
820.3113	0.0047
820.4795	0.0196
820.6477	0.0321
820.816	0.0221
820.9842	0.0172
821.1523	-0.0022
821.3205	0.024
821.4886	0.0169
821.6567	0.0028
821.8248	0.0197
821.9929	0.0204
822.1609	-0.0105
822.329	0.0303
822.497	0.0695
822.665	-0.0106
822.833	-0.0197
823.0009	0.0026
823.1688	0.0215
823.3367	0.0073
823.5046	0.0175
823.6725	0.0315
823.8404	0.0071
824.0082	0.0203
824.176	0.0164
824.3438	0.0128
824.5116	0.0029
824.6793	0.0279
824.847	0.0246
825.0147	0.0008
825.1824	0.0257
825.3501	0.0226
825.5177	0.0107
825.6854	0.0148
825.853	0.0161
826.0206	-0.0201
826.1881	0.0288
826.3557	-0.028
826.5232	0.038
826.6907	-0.0107
826.8582	0.0179
827.0257	-0.0088
827.1931	0.0118
827.3605	-0.0138
827.528	-0.0005
827.6953	-0.0356
827.8627	0.0249
828.03	0.0453
828.1974	0.0221
828.3647	-0.0295
828.532	0.014
828.6992	0.0074
828.8665	0.022
829.0337	-0.012
829.2009	-0.01
829.3681	0.0214
829.5352	0.0623
829.7024	0.0031
829.8695	-0.0214
830.0366	0.0506
830.2037	0.005
830.3707	0.0064
830.5378	0.0053
830.7048	-0.027
830.8718	0.0087
831.0388	-0.0321
831.2057	0.0401
831.3727	0.0051
831.5396	-0.0007
831.7065	0.0205
831.8734	0.0075
832.0402	-0.0031
832.2071	-0.0101
832.3739	0.0066
832.5407	-0.0177
832.7075	0.0011
832.8742	-0.0056
833.041	-0.0222
833.2077	0.0211
833.3744	0.0192
833.541	-0.0096
833.7077	0.0276
833.8743	0.0092
834.0409	0.0355
834.2075	0.0082
834.3741	-0.0019
834.5407	0.0308
834.7072	0.0274
834.8737	-0.024
835.0402	-0.0055
835.2067	0.003
835.3731	0.0195
835.5395	0.0142
835.706	0.009
835.8723	0.0197
836.0387	0.0402
836.2051	0.0048
836.3714	0.004
836.5377	0.0026
836.704	0.01
836.8703	0.0236
837.0365	0.0201
837.2027	0.0029
837.3689	0.0099
837.5351	0.0059
837.7013	0.019
837.8674	-0.037
838.0335	-0.0291
838.1997	-0.0042
838.3657	-0.0631
838.5318	0.0028
838.6978	0.0243
838.8639	0.0427
839.0299	0.079
839.1958	-0.0094
839.3618	0.0007
839.5277	0.0318
839.6937	0.0158
839.8596	-0.0188
840.0254	0.0228
840.1913	0.0175
840.3571	0.0316
840.523	-0.0022
840.6888	-0.0048
840.8545	0.0318
841.0203	-0.0148
841.186	0.0094
841.3517	0.0696
841.5174	0.006
841.6831	-0.003
841.8488	-0.0117
842.0144	-0.0101
842.18	0.0097
842.3456	0.0132
842.5112	-0.0082
842.6767	-0.0287
842.8422	-0.02
843.0077	-0.0183
843.1732	0.0068
843.3387	-0.0319
843.5042	-0.0338
843.6696	-0.0225
843.835	0.0649
844.0004	0.0692
844.1657	0.0089
844.3311	-0.0278
844.4964	-0.0219
844.6617	0.0286
844.827	0.1316
844.9923	0.0021
845.1575	0.0293
845.3227	-0.0093
845.4879	-0.0102
845.6531	-0.0312
845.8183	-0.0925
845.9834	0.043
846.1485	0.0142
846.3136	-0.0538
846.4787	-0.0651
846.6438	0.0667
846.8088	-0.056
846.9738	-0.0723
847.1388	0.0319
847.3038	-0.0447
847.4687	-0.0487
847.6337	0.0579
847.7986	-0.0503
847.9635	-0.0002
848.1284	0.0094
848.2932	0.0318
848.458	-0.0362
848.6228	0.0153
848.7876	-0.01
848.9524	-0.1039
849.1172	-0.0726
849.2819	-0.0193
849.4466	-0.0884
849.6113	-0.0495
849.7759	0.0665
849.9406	-0.0121
850.1052	0.072
850.2698	-0.0022
850.4344	-0.0023
850.599	-0.0121
850.7635	0.0905
850.928	-0.0749
851.0925	0.0378
851.257	0.0484
851.4215	0.0135
851.5859	-0.0927
851.7503	0.0399
851.9147	0.0595
852.0791	-0.019
852.2434	-0.0261
852.4078	0.0014
852.5721	0.085
852.7364	-0.0393
852.9007	-0.2029
853.0649	-0.0042
853.2291	0.0122
853.3934	0.0307
853.5575	0.0021
853.7217	-0.0669
853.8859	-0.0957
854.05	-0.0733
854.2141	-0.0609
854.3782	-0.0709
854.5423	-0.1411
854.7063	0.1456
854.8703	-0.0425
855.0343	-0.0367
855.1983	-0.0664
855.3623	0.2205
855.5262	-0.0192
855.6901	-0.0124
855.854	-0.0672
856.0179	0.02
856.1818	0.0423
856.3456	-0.0139
856.5094	-0.0239
856.6732	-0.1231
856.837	-0.2299
857.0008	0.1298
857.1645	-0.0905
857.3282	-0.1281
857.4919	0.1033
857.6556	-0.036
857.8192	0.0371
857.9828	-0.0804
858.1465	-0.0007
858.31	-0.1532
858.4736	0.0897
858.6372	-0.0961
858.8007	-0.2359
858.9642	0.1439
859.1277	0.0825
859.2911	0.0636
859.4546	-0.0281
859.618	-0.301
859.7814	-0.0482
859.9448	-0.0459
860.1081	0.0614
860.2715	0.2057
860.4348	0.0077
860.5981	0.0934
860.7614	0.1508
860.9246	0.3633
861.0879	-0.0977
861.2511	0.0314
861.4143	-0.0606
861.5774	0.4153
861.7406	-0.315
861.9037	0.1971
862.0668	-0.2403
862.2299	-0.1255
862.393	-0.3702
862.556	-0.0822
862.7191	-0.1649
862.8821	-0.1508
863.0451	-0.0376
863.208	0.1183
863.371	0.0365
863.5339	-0.1613
863.6968	0.0569
863.8597	0.2526
864.0225	0.0234
864.1854	-0.2484
864.3482	0.504
864.511	0.3697
864.6737	-0.0076
864.8365	0.0063
864.9992	-0.4217
865.1619	-0.1143
865.3246	0.1932
865.4873	-0.1351
865.65	-0.2853
865.8126	-0.251
865.9752	0.0889
866.1378	0.2501
866.3004	-0.1722
866.4629	0.3896
866.6254	0.04
866.7879	-0.1036
866.9504	-0.0735
867.1129	-0
867.2753	0.21
867.4377	0.1966
867.6001	-0.2127
867.7625	0.3116
867.9249	0.1104
868.0872	-0.0266
868.2495	0.1565
868.4118	-0.433
868.5741	-0.4377
868.7363	-0.5051
868.8986	-0.7422
869.0608	-0.1277
869.223	0.2561
869.3851	-0.2142
869.5473	-0
869.7094	0.3996
869.8715	-0
870.0336	-0
870.1957	-0.7198
870.3577	-0
870.5197	0.2331
870.6817	-0.4251
870.8437	-0.1652
871.0057	-0
871.1676	-0
871.3295	-0.1269
871.4914	-0
871.6533	-0.4935
871.8151	-0.397
871.977	-0
872.1388	-0
872.3006	-0
872.4623	0.1326
872.6241	0.2271
872.7858	-0
872.9475	0.117
873.1092	0.6921
873.2709	-0
873.4325	0.0788
873.5941	-0.3888
873.7557	-0
873.9173	-0
874.0789	-0.2811
874.2404	-0.5127
874.4019	-0.2927
874.5634	0.2045
874.7249	-0.2034
874.8863	-0.0635
875.0478	0.4366
875.2092	-0
875.3706	0.0394
875.5319	-0.673
875.6933	0.1367
875.8546	-0.4106
876.0159	-0
876.1772	-0
876.3385	-0.5012
876.4997	-0
876.6609	-0.0816
876.8221	-0
876.9833	0.3593
877.1445	-0
877.3056	-0.046
877.4667	-0
877.6278	0.1156
877.7889	-0.5735
877.9499	-0
878.111	0.3452
878.272	-0
878.433	-0
878.5939	1.6651
878.7549	-0.1348
878.9158	-0.9432
879.0767	-0
879.2376	-0
879.3984	-0
879.5593	0.2814
879.7201	-0.2001
879.8809	-0.4295
880.0417	-0
880.2024	0.3331
880.3632	-1.1871
880.5239	-0
880.6846	-0.1228
880.8452	-2.5587
881.0059	-0
881.1665	-0.1147
881.3271	-0.3255
881.4877	0.8822
881.6483	-0.3328
881.8088	-0.4961
881.9693	-0
882.1298	-0
882.2903	-0
