Data from MonoPyChalIsomerACN10uM380nmA_Absorbance_13-38-31-948.txt Node
Date: Fri Jul 05 13:38:31 BST 2024
User: LASERRRRR
Spectrometer: FLMT03099
Trigger mode: 0
Integration Time (sec): 1.000000E-1
Scans to average: 1
Electric dark correction enabled: true
Nonlinearity correction enabled: false
Boxcar width: 0
XAxis mode: Wavelengths
Number of Pixels in Spectrum: 3648
>>>>>Begin Spectral Data<<<<<
179.3399	-0.3726
179.5586	-0.3726
179.7771	-0.3726
179.9957	0.3312
180.2143	-0
180.4329	-0
180.6514	-0
180.8699	-0
181.0885	-0.0293
181.307	-0.1154
181.5255	-1.0801
181.744	-0
181.9625	-0
182.181	-0
182.3994	-0
182.6179	0.2032
182.8363	0.1329
183.0547	0.6807
183.2732	0.1885
183.4916	0.1653
183.71	0.2259
183.9284	0.4434
184.1467	-0.1967
184.3651	0.0351
184.5835	0.1313
184.8018	0.1651
185.0201	0.2962
185.2385	-0.0524
185.4568	0.5652
185.6751	0.0693
185.8934	0.6052
186.1117	0.0003
186.3299	0.1672
186.5482	0.4679
186.7664	-0.0936
186.9847	0.1267
187.2029	0.1746
187.4211	0.1283
187.6393	0.215
187.8575	0.0313
188.0757	0.331
188.2939	0.2458
188.512	0.2012
188.7302	0.2672
188.9483	0.1796
189.1665	0.119
189.3846	0.1342
189.6027	0.1561
189.8208	0.2008
190.0389	0.3219
190.257	0.4083
190.475	0.2945
190.6931	0.7283
190.9111	0.1806
191.1292	0.3473
191.3472	0.3979
191.5652	0.3067
191.7832	0.301
192.0012	0.606
192.2192	0.4145
192.4371	0.9757
192.6551	0.3631
192.873	0.4128
193.091	0.4735
193.3089	0.5912
193.5268	0.5855
193.7447	0.504
193.9626	0.4882
194.1805	0.7893
194.3984	0.6947
194.6162	0.724
194.8341	0.4981
195.0519	0.7395
195.2697	1.2744
195.4875	0.6812
195.7054	0.5408
195.9231	0.9278
196.1409	0.7341
196.3587	0.6261
196.5765	0.6767
196.7942	0.7109
197.012	0.6431
197.2297	1.7944
197.4474	1.5808
197.6651	0.7387
197.8828	0.612
198.1005	0.9722
198.3182	0.7116
198.5358	0.9399
198.7535	0.7725
198.9711	0.7291
199.1888	1.0636
199.4064	1.104
199.624	0.957
199.8416	0.6765
200.0592	1.0218
200.2767	0.8408
200.4943	1.4294
200.7119	1.6826
200.9294	1.1938
201.1469	0.6415
201.3645	0.679
201.582	0.8892
201.7995	0.719
202.017	1.0291
202.2344	0.7745
202.4519	0.8158
202.6694	0.8496
202.8868	0.7861
203.1042	1.0633
203.3217	1.0919
203.5391	0.9974
203.7565	0.7928
203.9739	0.9088
204.1913	0.8031
204.4086	0.7467
204.626	1.0448
204.8433	0.8542
205.0607	0.8449
205.278	0.8357
205.4953	0.945
205.7126	0.9042
205.9299	1.0151
206.1472	0.813
206.3644	0.9415
206.5817	1.0861
206.7989	0.8363
207.0162	0.8488
207.2334	1.1752
207.4506	0.7433
207.6678	0.7753
207.885	1.0062
208.1022	0.8461
208.3194	0.959
208.5365	0.859
208.7537	0.7632
208.9708	0.6999
209.1879	0.869
209.405	1.0151
209.6222	0.9191
209.8392	0.9766
210.0563	0.8642
210.2734	0.8875
210.4905	0.8509
210.7075	0.8791
210.9245	0.7301
211.1416	0.9212
211.3586	0.78
211.5756	0.7692
211.7926	0.8146
212.0096	0.8291
212.2265	0.7218
212.4435	0.7588
212.6604	0.8197
212.8774	0.8519
213.0943	0.8147
213.3112	0.7805
213.5281	0.8663
213.745	0.7489
213.9619	0.7514
214.1788	0.654
214.3956	0.6334
214.6125	0.7268
214.8293	0.6702
215.0461	0.7721
215.2629	0.7172
215.4798	0.8283
215.6965	0.653
215.9133	0.7107
216.1301	0.7112
216.3469	0.6806
216.5636	0.6575
216.7803	0.6023
216.9971	0.6326
217.2138	0.5996
217.4305	0.6078
217.6472	0.6423
217.8639	0.6546
218.0805	0.6305
218.2972	0.5942
218.5138	0.5729
218.7305	0.6556
218.9471	0.5459
219.1637	0.5462
219.3803	0.5731
219.5969	0.5655
219.8135	0.5378
220.0301	0.5639
220.2466	0.5558
220.4632	0.5471
220.6797	0.5115
220.8962	0.5509
221.1127	0.5517
221.3292	0.5575
221.5457	0.5472
221.7622	0.4995
221.9787	0.5226
222.1951	0.5471
222.4116	0.5263
222.628	0.4934
222.8444	0.5438
223.0608	0.5411
223.2772	0.5198
223.4936	0.5341
223.71	0.5503
223.9264	0.5458
224.1427	0.5125
224.3591	0.5267
224.5754	0.5325
224.7917	0.5421
225.008	0.5644
225.2243	0.5378
225.4406	0.5666
225.6569	0.5528
225.8732	0.4936
226.0894	0.5417
226.3057	0.5227
226.5219	0.5465
226.7381	0.5261
226.9543	0.5356
227.1705	0.5625
227.3867	0.5827
227.6029	0.5665
227.8191	0.5623
228.0352	0.5866
228.2513	0.558
228.4675	0.5783
228.6836	0.5449
228.8997	0.5333
229.1158	0.5961
229.3319	0.5715
229.548	0.5912
229.764	0.5602
229.9801	0.5683
230.1961	0.5633
230.4121	0.5571
230.6282	0.5606
230.8442	0.5559
231.0602	0.568
231.2761	0.5795
231.4921	0.5837
231.7081	0.6108
231.924	0.5666
232.14	0.585
232.3559	0.5592
232.5718	0.5801
232.7877	0.5659
233.0036	0.5656
233.2195	0.571
233.4353	0.5496
233.6512	0.5612
233.867	0.5704
234.0829	0.584
234.2987	0.5494
234.5145	0.5566
234.7303	0.5466
234.9461	0.5693
235.1619	0.5571
235.3776	0.5425
235.5934	0.5543
235.8091	0.5405
236.0249	0.5613
236.2406	0.5443
236.4563	0.5496
236.672	0.5695
236.8877	0.5625
237.1034	0.5674
237.319	0.5558
237.5347	0.5677
237.7503	0.5352
237.966	0.5382
238.1816	0.5399
238.3972	0.5465
238.6128	0.5224
238.8284	0.5442
239.0439	0.5448
239.2595	0.5255
239.475	0.5361
239.6906	0.547
239.9061	0.533
240.1216	0.5103
240.3371	0.5246
240.5526	0.5229
240.7681	0.5361
240.9836	0.5104
241.199	0.5158
241.4145	0.5092
241.6299	0.4875
241.8453	0.4867
242.0607	0.485
242.2761	0.4374
242.4915	0.4562
242.7069	0.4787
242.9223	0.4551
243.1376	0.4493
243.353	0.4539
243.5683	0.4191
243.7836	0.4111
243.9989	0.4143
244.2142	0.3995
244.4295	0.4021
244.6448	0.3847
244.86	0.369
245.0753	0.3669
245.2905	0.3715
245.5057	0.3447
245.721	0.3519
245.9362	0.3482
246.1514	0.3377
246.3665	0.3284
246.5817	0.3168
246.7969	0.317
247.012	0.321
247.2271	0.3069
247.4423	0.3174
247.6574	0.3118
247.8725	0.2983
248.0876	0.289
248.3026	0.2763
248.5177	0.2762
248.7328	0.2748
248.9478	0.2659
249.1628	0.2822
249.3779	0.2825
249.5929	0.2437
249.8079	0.2655
250.0228	0.255
250.2378	0.2555
250.4528	0.2409
250.6677	0.2331
250.8827	0.2383
251.0976	0.2276
251.3125	0.2336
251.5274	0.2328
251.7423	0.224
251.9572	0.2263
252.172	0.2222
252.3869	0.2239
252.6017	0.2122
252.8166	0.2095
253.0314	0.2037
253.2462	0.2026
253.461	0.2182
253.6758	0.2144
253.8906	0.2054
254.1053	0.2091
254.3201	0.2004
254.5348	0.2078
254.7496	0.2109
254.9643	0.194
255.179	0.2079
255.3937	0.2038
255.6083	0.1928
255.823	0.2101
256.0377	0.1988
256.2523	0.2036
256.467	0.1893
256.6816	0.2046
256.8962	0.2024
257.1108	0.1942
257.3254	0.1963
257.54	0.1939
257.7545	0.195
257.9691	0.1941
258.1836	0.1836
258.3981	0.1961
258.6127	0.1893
258.8272	0.1825
259.0417	0.1809
259.2561	0.1732
259.4706	0.1868
259.6851	0.1897
259.8995	0.2016
260.114	0.1731
260.3284	0.1884
260.5428	0.1844
260.7572	0.1952
260.9716	0.1914
261.186	0.1723
261.4003	0.1724
261.6147	0.2029
261.829	0.1834
262.0433	0.1838
262.2577	0.191
262.472	0.1928
262.6863	0.186
262.9005	0.1802
263.1148	0.191
263.3291	0.1673
263.5433	0.1812
263.7576	0.183
263.9718	0.1868
264.186	0.1872
264.4002	0.185
264.6144	0.1851
264.8286	0.1805
265.0427	0.1694
265.2569	0.1911
265.471	0.1755
265.6851	0.1873
265.8993	0.1695
266.1134	0.1808
266.3275	0.1997
266.5415	0.1842
266.7556	0.1843
266.9697	0.182
267.1837	0.1918
267.3978	0.1874
267.6118	0.1945
267.8258	0.1943
268.0398	0.177
268.2538	0.2139
268.4677	0.1818
268.6817	0.1834
268.8957	0.1946
269.1096	0.1909
269.3235	0.1999
269.5374	0.192
269.7514	0.1826
269.9652	0.1807
270.1791	0.182
270.393	0.1756
270.6068	0.1781
270.8207	0.1723
271.0345	0.1798
271.2483	0.175
271.4622	0.1707
271.676	0.1859
271.8897	0.1739
272.1035	0.1649
272.3173	0.1721
272.531	0.1682
272.7448	0.1735
272.9585	0.167
273.1722	0.1725
273.3859	0.1821
273.5996	0.1581
273.8133	0.1717
274.0269	0.161
274.2406	0.1715
274.4542	0.1749
274.6679	0.1609
274.8815	0.1678
275.0951	0.1684
275.3087	0.1774
275.5223	0.1773
275.7358	0.1786
275.9494	0.1775
276.1629	0.1662
276.3765	0.1743
276.59	0.1734
276.8035	0.1652
277.017	0.1806
277.2305	0.1629
277.444	0.174
277.6574	0.1732
277.8709	0.1718
278.0843	0.1711
278.2978	0.1694
278.5112	0.1652
278.7246	0.1798
278.938	0.1717
279.1513	0.1861
279.3647	0.1753
279.5781	0.1689
279.7914	0.1742
280.0047	0.1767
280.2181	0.1898
280.4314	0.1905
280.6447	0.1711
280.8579	0.1777
281.0712	0.1753
281.2845	0.1825
281.4977	0.18
281.711	0.1563
281.9242	0.1819
282.1374	0.1818
282.3506	0.1726
282.5638	0.1808
282.7769	0.1781
282.9901	0.1785
283.2033	0.1959
283.4164	0.1825
283.6295	0.1746
283.8426	0.18
284.0557	0.1815
284.2688	0.1841
284.4819	0.1841
284.695	0.1831
284.908	0.1891
285.1211	0.1694
285.3341	0.1912
285.5471	0.1782
285.7601	0.1679
285.9731	0.1773
286.1861	0.1721
286.3991	0.1837
286.612	0.1769
286.825	0.1726
287.0379	0.185
287.2508	0.1631
287.4637	0.1715
287.6766	0.1673
287.8895	0.1819
288.1024	0.1991
288.3152	0.1877
288.5281	0.1654
288.7409	0.1827
288.9538	0.1733
289.1666	0.1796
289.3794	0.1779
289.5922	0.1787
289.8049	0.1675
290.0177	0.1729
290.2304	0.1776
290.4432	0.1678
290.6559	0.1663
290.8686	0.1925
291.0813	0.1667
291.294	0.1817
291.5067	0.1812
291.7194	0.1751
291.932	0.1889
292.1447	0.1815
292.3573	0.1689
292.5699	0.1763
292.7825	0.1801
292.9951	0.1682
293.2077	0.1727
293.4203	0.1674
293.6328	0.1569
293.8454	0.1899
294.0579	0.1705
294.2704	0.1797
294.4829	0.1719
294.6954	0.1799
294.9079	0.1731
295.1204	0.1647
295.3328	0.1683
295.5453	0.178
295.7577	0.1814
295.9701	0.1598
296.1825	0.1693
296.3949	0.182
296.6073	0.1894
296.8197	0.1521
297.0321	0.1804
297.2444	0.1582
297.4567	0.1661
297.6691	0.1817
297.8814	0.1617
298.0937	0.1766
298.306	0.1829
298.5182	0.1611
298.7305	0.1801
298.9428	0.1656
299.155	0.1712
299.3672	0.1715
299.5794	0.1557
299.7916	0.1673
300.0038	0.1701
300.216	0.1798
300.4282	0.1855
300.6403	0.1609
300.8525	0.1713
301.0646	0.1592
301.2767	0.1756
301.4888	0.161
301.7009	0.1635
301.913	0.1658
302.125	0.1691
302.3371	0.1613
302.5491	0.1682
302.7612	0.1732
302.9732	0.1671
303.1852	0.1687
303.3972	0.1604
303.6092	0.155
303.8211	0.1522
304.0331	0.1488
304.245	0.1613
304.457	0.1575
304.6689	0.1508
304.8808	0.1641
305.0927	0.1549
305.3046	0.1661
305.5164	0.1582
305.7283	0.1633
305.9401	0.1572
306.152	0.1514
306.3638	0.1517
306.5756	0.1541
306.7874	0.1449
306.9992	0.1494
307.2109	0.1434
307.4227	0.1413
307.6344	0.1474
307.8462	0.1439
308.0579	0.1355
308.2696	0.1452
308.4813	0.1431
308.693	0.1333
308.9046	0.1449
309.1163	0.1266
309.328	0.1333
309.5396	0.1335
309.7512	0.1272
309.9628	0.1165
310.1744	0.1311
310.386	0.1233
310.5976	0.1258
310.8091	0.1235
311.0207	0.1204
311.2322	0.1352
311.4437	0.1124
311.6552	0.1226
311.8667	0.1218
312.0782	0.0961
312.2897	0.1107
312.5012	0.1172
312.7126	0.121
312.924	0.116
313.1355	0.11
313.3469	0.1147
313.5583	0.1153
313.7696	0.1186
313.981	0.1109
314.1924	0.1033
314.4037	0.1146
314.6151	0.121
314.8264	0.1057
315.0377	0.11
315.249	0.1096
315.4603	0.1231
315.6716	0.103
315.8828	0.0974
316.0941	0.1105
316.3053	0.0933
316.5165	0.0959
316.7277	0.1007
316.9389	0.1079
317.1501	0.0996
317.3613	0.1057
317.5724	0.0915
317.7836	0.1028
317.9947	0.0952
318.2058	0.1021
318.417	0.0967
318.6281	0.09
318.8391	0.1033
319.0502	0.0958
319.2613	0.1032
319.4723	0.1083
319.6834	0.1083
319.8944	0.0829
320.1054	0.1163
320.3164	0.1034
320.5274	0.1041
320.7383	0.0998
320.9493	0.1026
321.1602	0.1104
321.3712	0.0925
321.5821	0.1001
321.793	0.1011
322.0039	0.1136
322.2148	0.1062
322.4257	0.1042
322.6365	0.1091
322.8474	0.1136
323.0582	0.1045
323.269	0.1114
323.4798	0.1193
323.6906	0.1127
323.9014	0.1142
324.1122	0.1026
324.3229	0.1014
324.5337	0.1061
324.7444	0.0946
324.9551	0.111
325.1658	0.1117
325.3765	0.1239
325.5872	0.1144
325.7979	0.1104
326.0085	0.1065
326.2192	0.115
326.4298	0.1078
326.6404	0.1022
326.851	0.0994
327.0616	0.0985
327.2722	0.1117
327.4828	0.1044
327.6933	0.1147
327.9039	0.1078
328.1144	0.1287
328.3249	0.1218
328.5354	0.1052
328.7459	0.1061
328.9564	0.1127
329.1669	0.1066
329.3773	0.11
329.5878	0.1114
329.7982	0.0987
330.0086	0.1045
330.219	0.1185
330.4294	0.1089
330.6398	0.1104
330.8502	0.1068
331.0605	0.1118
331.2708	0.1152
331.4812	0.121
331.6915	0.1129
331.9018	0.1091
332.1121	0.0965
332.3224	0.1125
332.5326	0.1207
332.7429	0.1121
332.9531	0.1209
333.1633	0.1104
333.3735	0.1216
333.5837	0.1213
333.7939	0.1166
334.0041	0.1198
334.2143	0.1238
334.4244	0.1074
334.6346	0.0914
334.8447	0.115
335.0548	0.1041
335.2649	0.1021
335.475	0.1185
335.685	0.1155
335.8951	0.1207
336.1051	0.135
336.3152	0.118
336.5252	0.111
336.7352	0.1191
336.9452	0.1225
337.1552	0.116
337.3652	0.1098
337.5751	0.1031
337.7851	0.1183
337.995	0.1098
338.2049	0.1273
338.4148	0.125
338.6247	0.1229
338.8346	0.1159
339.0445	0.1176
339.2543	0.1218
339.4642	0.1136
339.674	0.1223
339.8838	0.1129
340.0936	0.1166
340.3034	0.1221
340.5132	0.1294
340.7229	0.1329
340.9327	0.1215
341.1424	0.1152
341.3522	0.1377
341.5619	0.1235
341.7716	0.1303
341.9813	0.1205
342.1909	0.1198
342.4006	0.1347
342.6102	0.1337
342.8199	0.1239
343.0295	0.121
343.2391	0.1228
343.4487	0.1326
343.6583	0.1241
343.8679	0.1193
344.0774	0.1295
344.287	0.1338
344.4965	0.1325
344.706	0.1348
344.9155	0.1254
345.125	0.128
345.3345	0.132
345.544	0.1398
345.7534	0.1281
345.9629	0.1271
346.1723	0.1342
346.3817	0.1209
346.5911	0.1263
346.8005	0.1367
347.0099	0.1333
347.2193	0.1425
347.4286	0.1335
347.638	0.1342
347.8473	0.133
348.0566	0.134
348.2659	0.1377
348.4752	0.1442
348.6845	0.1323
348.8937	0.1411
349.103	0.1464
349.3122	0.1298
349.5214	0.1398
349.7306	0.1401
349.9398	0.1443
350.149	0.1255
350.3582	0.1352
350.5674	0.1445
350.7765	0.1516
350.9856	0.1428
351.1948	0.1523
351.4039	0.1362
351.613	0.1478
351.822	0.155
352.0311	0.1522
352.2402	0.1447
352.4492	0.1564
352.6582	0.1565
352.8672	0.1539
353.0762	0.1513
353.2852	0.1448
353.4942	0.1388
353.7032	0.1469
353.9121	0.1523
354.1211	0.1553
354.33	0.1527
354.5389	0.1489
354.7478	0.1503
354.9567	0.1562
355.1655	0.1496
355.3744	0.1607
355.5833	0.1531
355.7921	0.1662
356.0009	0.1547
356.2097	0.1694
356.4185	0.1527
356.6273	0.1667
356.8361	0.1697
357.0448	0.1594
357.2536	0.1601
357.4623	0.1683
357.671	0.1672
357.8797	0.1747
358.0884	0.1525
358.2971	0.169
358.5057	0.1868
358.7144	0.1665
358.923	0.174
359.1316	0.1609
359.3402	0.1715
359.5488	0.1679
359.7574	0.1649
359.966	0.1757
360.1746	0.1792
360.3831	0.1844
360.5916	0.1723
360.8002	0.1579
361.0087	0.1867
361.2172	0.1838
361.4256	0.1706
361.6341	0.1882
361.8426	0.1872
362.051	0.1815
362.2594	0.1769
362.4678	0.1694
362.6762	0.201
362.8846	0.1808
363.093	0.1833
363.3014	0.1989
363.5097	0.1704
363.718	0.1696
363.9264	0.1883
364.1347	0.176
364.343	0.1968
364.5513	0.1979
364.7595	0.1968
364.9678	0.1942
365.176	0.1973
365.3842	0.1885
365.5925	0.1922
365.8007	0.1918
366.0089	0.1874
366.217	0.1862
366.4252	0.1951
366.6333	0.2119
366.8415	0.2027
367.0496	0.1828
367.2577	0.2128
367.4658	0.215
367.6739	0.2077
367.882	0.1897
368.09	0.1976
368.2981	0.1962
368.5061	0.1925
368.7141	0.2028
368.9221	0.2102
369.1301	0.2045
369.3381	0.2112
369.5461	0.2078
369.754	0.2126
369.962	0.2104
370.1699	0.1992
370.3778	0.2096
370.5857	0.1909
370.7936	0.2086
371.0015	0.2036
371.2093	0.2151
371.4172	0.227
371.625	0.2154
371.8328	0.2098
372.0406	0.2128
372.2484	0.22
372.4562	0.2186
372.664	0.2135
372.8717	0.2366
373.0795	0.1953
373.2872	0.2195
373.4949	0.2232
373.7026	0.2079
373.9103	0.2219
374.118	0.2336
374.3256	0.2178
374.5333	0.2177
374.7409	0.2271
374.9485	0.2144
375.1561	0.2235
375.3637	0.2293
375.5713	0.2387
375.7789	0.2224
375.9864	0.2189
376.194	0.2066
376.4015	0.2325
376.609	0.2345
376.8165	0.2254
377.024	0.2226
377.2315	0.2154
377.4389	0.2308
377.6464	0.2403
377.8538	0.225
378.0612	0.2251
378.2686	0.2332
378.476	0.2417
378.6834	0.2292
378.8908	0.2403
379.0981	0.2451
379.3055	0.2473
379.5128	0.2311
379.7201	0.2322
379.9274	0.2348
380.1347	0.2409
380.342	0.2516
380.5492	0.2279
380.7565	0.2554
380.9637	0.2404
381.1709	0.2364
381.3781	0.2395
381.5853	0.2536
381.7925	0.2348
381.9997	0.2636
382.2068	0.248
382.4139	0.2258
382.6211	0.2325
382.8282	0.2391
383.0353	0.2514
383.2424	0.2295
383.4494	0.2498
383.6565	0.2426
383.8635	0.2291
384.0706	0.2408
384.2776	0.247
384.4846	0.2441
384.6916	0.2437
384.8986	0.2355
385.1055	0.2682
385.3125	0.2468
385.5194	0.2383
385.7263	0.2501
385.9333	0.2319
386.1402	0.2458
386.347	0.2494
386.5539	0.2278
386.7608	0.2602
386.9676	0.2345
387.1744	0.2223
387.3813	0.2404
387.5881	0.2526
387.7948	0.2459
388.0016	0.2432
388.2084	0.2298
388.4151	0.2335
388.6219	0.2507
388.8286	0.2482
389.0353	0.2472
389.242	0.2407
389.4487	0.2265
389.6553	0.2149
389.862	0.2297
390.0686	0.215
390.2753	0.2385
390.4819	0.219
390.6885	0.217
390.8951	0.2287
391.1016	0.2135
391.3082	0.2345
391.5147	0.2341
391.7213	0.2069
391.9278	0.2232
392.1343	0.2343
392.3408	0.2253
392.5473	0.2296
392.7537	0.2103
392.9602	0.2265
393.1666	0.2153
393.373	0.2166
393.5794	0.2192
393.7858	0.2252
393.9922	0.2043
394.1986	0.2265
394.4049	0.2036
394.6113	0.2068
394.8176	0.2102
395.0239	0.2184
395.2302	0.2125
395.4365	0.2138
395.6428	0.2149
395.8491	0.2127
396.0553	0.2061
396.2615	0.1991
396.4678	0.1939
396.674	0.206
396.8802	0.2165
397.0863	0.1967
397.2925	0.2167
397.4987	0.1946
397.7048	0.1963
397.9109	0.1945
398.117	0.1999
398.3231	0.1953
398.5292	0.19
398.7353	0.2284
398.9413	0.2018
399.1474	0.2013
399.3534	0.1981
399.5594	0.1959
399.7654	0.206
399.9714	0.2078
400.1774	0.2082
400.3833	0.189
400.5893	0.2059
400.7952	0.2055
401.0011	0.2208
401.207	0.2031
401.4129	0.1991
401.6188	0.1953
401.8247	0.2076
402.0305	0.2081
402.2364	0.192
402.4422	0.2091
402.648	0.2051
402.8538	0.2258
403.0596	0.1868
403.2654	0.2022
403.4711	0.1953
403.6768	0.208
403.8826	0.2058
404.0883	0.2184
404.294	0.1939
404.4997	0.209
404.7054	0.2112
404.911	0.2026
405.1167	0.197
405.3223	0.2059
405.5279	0.1948
405.7335	0.2151
405.9391	0.2047
406.1447	0.2008
406.3502	0.2044
406.5558	0.2138
406.7613	0.2026
406.9668	0.21
407.1724	0.1808
407.3778	0.2097
407.5833	0.1879
407.7888	0.1965
407.9942	0.2289
408.1997	0.2104
408.4051	0.1956
408.6105	0.2049
408.8159	0.1844
409.0213	0.1868
409.2267	0.2044
409.432	0.1855
409.6374	0.2221
409.8427	0.201
410.048	0.2021
410.2533	0.189
410.4586	0.1911
410.6639	0.1945
410.8691	0.1994
411.0744	0.1902
411.2796	0.1973
411.4848	0.2009
411.69	0.1901
411.8952	0.205
412.1004	0.2039
412.3056	0.2132
412.5107	0.1791
412.7158	0.2085
412.921	0.1997
413.1261	0.2101
413.3312	0.1925
413.5362	0.2069
413.7413	0.2086
413.9464	0.1915
414.1514	0.1973
414.3564	0.1983
414.5614	0.1699
414.7664	0.1702
414.9714	0.1989
415.1764	0.2053
415.3813	0.2078
415.5863	0.1842
415.7912	0.1998
415.9961	0.1755
416.201	0.1974
416.4059	0.2028
416.6108	0.1816
416.8156	0.1941
417.0205	0.187
417.2253	0.1819
417.4301	0.1934
417.6349	0.1868
417.8397	0.1823
418.0445	0.1911
418.2492	0.1948
418.454	0.1893
418.6587	0.1883
418.8634	0.2094
419.0681	0.1821
419.2728	0.18
419.4775	0.1838
419.6822	0.1716
419.8868	0.1599
420.0915	0.184
420.2961	0.1851
420.5007	0.1756
420.7053	0.1934
420.9099	0.1849
421.1144	0.1794
421.319	0.1727
421.5235	0.1962
421.728	0.1903
421.9325	0.1778
422.137	0.178
422.3415	0.1708
422.546	0.1762
422.7504	0.1681
422.9549	0.1756
423.1593	0.187
423.3637	0.201
423.5681	0.1656
423.7725	0.1705
423.9769	0.1694
424.1812	0.1757
424.3856	0.1581
424.5899	0.1668
424.7942	0.1674
424.9985	0.1662
425.2028	0.1655
425.4071	0.1931
425.6113	0.1418
425.8156	0.1783
426.0198	0.169
426.224	0.1468
426.4282	0.1666
426.6324	0.1612
426.8366	0.1552
427.0407	0.1503
427.2449	0.157
427.449	0.162
427.6531	0.1263
427.8572	0.1538
428.0613	0.1642
428.2654	0.1548
428.4694	0.1458
428.6735	0.1584
428.8775	0.1575
429.0815	0.1344
429.2855	0.1429
429.4895	0.1615
429.6935	0.1559
429.8975	0.1413
430.1014	0.1363
430.3053	0.1321
430.5093	0.1368
430.7132	0.1275
430.9171	0.1421
431.1209	0.12
431.3248	0.1162
431.5286	0.1487
431.7325	0.1253
431.9363	0.1265
432.1401	0.1345
432.3439	0.1264
432.5477	0.1143
432.7514	0.123
432.9552	0.122
433.1589	0.1035
433.3627	0.1209
433.5664	0.1296
433.7701	0.1072
433.9737	0.0989
434.1774	0.094
434.3811	0.1016
434.5847	0.1185
434.7883	0.1033
434.9919	0.1031
435.1955	0.105
435.3991	0.1018
435.6027	0.1187
435.8062	0.1015
436.0098	0.0918
436.2133	0.1066
436.4168	0.0957
436.6203	0.0976
436.8238	0.1029
437.0272	0.089
437.2307	0.0991
437.4341	0.0957
437.6375	0.0967
437.841	0.074
438.0443	0.1101
438.2477	0.0874
438.4511	0.0918
438.6545	0.1009
438.8578	0.0914
439.0611	0.0939
439.2644	0.0894
439.4677	0.0805
439.671	0.0715
439.8743	0.0848
440.0775	0.0826
440.2808	0.0646
440.484	0.0632
440.6872	0.0529
440.8904	0.0711
441.0936	0.0838
441.2967	0.0675
441.4999	0.07
441.703	0.046
441.9062	0.0572
442.1093	0.0653
442.3124	0.0763
442.5155	0.0542
442.7185	0.0461
442.9216	0.0367
443.1246	0.0658
443.3276	0.043
443.5307	0.0544
443.7337	0.045
443.9366	0.0518
444.1396	0.0466
444.3426	0.0566
444.5455	0.0518
444.7484	0.0457
444.9513	0.0479
445.1542	0.0624
445.3571	0.0494
445.56	0.0432
445.7628	0.0373
445.9657	0.0498
446.1685	0.0415
446.3713	0.0416
446.5741	0.0264
446.7769	0.0305
446.9797	0.048
447.1824	0.042
447.3852	0.0377
447.5879	0.0369
447.7906	0.0512
447.9933	0.0371
448.196	0.0256
448.3986	0.029
448.6013	0.0127
448.8039	0.0188
449.0066	0.0345
449.2092	0.0456
449.4118	0.024
449.6143	0.0369
449.8169	0.0328
450.0195	0.0274
450.222	0.0136
450.4245	0.0243
450.627	0.0215
450.8295	0.0302
451.032	0.0208
451.2345	0.0417
451.4369	0.0388
451.6394	0.0154
451.8418	0.0174
452.0442	0.0133
452.2466	0.0339
452.449	0.0003
452.6513	0.0263
452.8537	0.0356
453.056	0.0002
453.2583	0.0178
453.4607	0.0093
453.663	0.0239
453.8652	0.0233
454.0675	0.0079
454.2697	0.017
454.472	-0.0039
454.6742	0.0059
454.8764	0.0108
455.0786	0.0129
455.2808	0.0114
455.4829	0.0178
455.6851	0.033
455.8872	0.0242
456.0893	0.0173
456.2915	-0.0133
456.4935	0.0214
456.6956	-0.0027
456.8977	0.0233
457.0997	0.0036
457.3018	-0.0007
457.5038	0.012
457.7058	0.0087
457.9078	0.0093
458.1098	0.0273
458.3117	0.007
458.5137	0.0056
458.7156	0.025
458.9175	0.003
459.1194	0.0015
459.3213	-0.004
459.5232	-0.0055
459.725	-0.0091
459.9269	-0.008
460.1287	0.0046
460.3305	0.0078
460.5323	-0.0031
460.7341	0.0108
460.9359	0.0029
461.1376	0.0106
461.3394	0.0051
461.5411	0.0058
461.7428	-0.0049
461.9445	0.0243
462.1462	0.0181
462.3479	0.0002
462.5495	0.0002
462.7512	-0.001
462.9528	0.0108
463.1544	-0.0133
463.356	0.0136
463.5576	-0.0002
463.7592	-0.0005
463.9607	-0.0031
464.1623	0.0154
464.3638	0.0078
464.5653	-0.0187
464.7668	-0.0052
464.9683	0.0078
465.1697	0.0131
465.3712	-0.0124
465.5726	-0.0079
465.7741	-0.0068
465.9755	0.0012
466.1769	-0.0045
466.3782	0.0083
466.5796	-0.0018
466.7809	0.0039
466.9823	-0.0175
467.1836	0.0043
467.3849	-0.0078
467.5862	-0.0016
467.7875	0
467.9887	0.0132
468.19	0.0114
468.3912	-0.0093
468.5924	-0.0215
468.7936	0.007
468.9948	-0.0123
469.196	0.0028
469.3972	-0.0119
469.5983	0.0032
469.7994	-0.0114
470.0006	0.0116
470.2017	-0.0241
470.4027	-0.0046
470.6038	-0.0094
470.8049	-0.0216
471.0059	-0.013
471.2069	-0.0169
471.408	0.0052
471.6089	-0.0039
471.8099	-0.0096
472.0109	-0.0043
472.2119	-0.0061
472.4128	-0.0236
472.6137	0.0212
472.8146	-0.0329
473.0155	-0.0077
473.2164	-0.0006
473.4173	0.0005
473.6181	0.0083
473.819	0.0038
474.0198	-0.0161
474.2206	-0.0116
474.4214	-0.0052
474.6222	0.0017
474.8229	-0.0152
475.0237	-0.0076
475.2244	-0.0171
475.4251	-0.0059
475.6258	-0.0056
475.8265	-0.0009
476.0272	0.0086
476.2278	-0.0041
476.4285	-0.0024
476.6291	-0.0103
476.8297	-0.0062
477.0303	-0.0146
477.2309	-0.0116
477.4315	-0.0269
477.632	-0.0118
477.8326	-0.0007
478.0331	0.001
478.2336	0.0009
478.4341	-0.0163
478.6346	-0.0051
478.8351	-0.009
479.0355	0.0049
479.236	-0.0094
479.4364	-0.0041
479.6368	-0.0118
479.8372	-0.011
480.0376	0.002
480.2379	-0.0245
480.4383	-0.0124
480.6386	-0.0014
480.8389	-0.0077
481.0392	-0.0198
481.2395	-0.0068
481.4398	0.0005
481.6401	-0.0048
481.8403	0.0092
482.0405	-0.0096
482.2408	-0.0055
482.441	-0.0057
482.6411	-0.0022
482.8413	-0.0055
483.0415	-0.0033
483.2416	-0.0088
483.4417	0.001
483.6419	-0.0116
483.8419	-0.014
484.042	-0.0021
484.2421	-0.0048
484.4422	-0.0054
484.6422	-0.0034
484.8422	-0.0123
485.0422	-0.0186
485.2422	-0.0015
485.4422	-0.0114
485.6422	-0.0113
485.8421	-0.0097
486.042	-0.003
486.242	-0.0006
486.4419	-0.0176
486.6417	-0.0108
486.8416	-0.0043
487.0415	-0.0152
487.2413	-0.0084
487.4411	-0.0106
487.641	-0.0135
487.8408	0.003
488.0405	-0.0076
488.2403	-0.0189
488.4401	0.0015
488.6398	-0.0081
488.8395	-0.0202
489.0392	-0.0104
489.2389	-0.0122
489.4386	-0.0058
489.6383	-0.0082
489.8379	-0.0084
490.0376	-0.0096
490.2372	-0.0019
490.4368	-0.0116
490.6364	-0.0105
490.836	-0.008
491.0355	-0.0062
491.2351	-0.0147
491.4346	-0.0076
491.6341	-0.0088
491.8336	-0.0079
492.0331	-0.0161
492.2326	-0.0213
492.432	-0.0088
492.6315	-0.0185
492.8309	-0.0135
493.0303	-0.0069
493.2297	-0.0099
493.4291	-0.0034
493.6284	-0.0023
493.8278	-0.0041
494.0271	-0.0003
494.2264	0.0031
494.4257	-0.0133
494.625	-0.0109
494.8243	-0.021
495.0236	-0.0063
495.2228	-0.0167
495.422	-0.0013
495.6213	-0.0012
495.8205	-0.0033
496.0196	-0.0012
496.2188	-0.0025
496.418	-0.0101
496.6171	-0.0129
496.8162	-0.0182
497.0153	-0.0066
497.2144	-0.0188
497.4135	-0.0049
497.6126	-0.009
497.8116	-0.0118
498.0107	-0.0032
498.2097	-0.0232
498.4087	-0.0151
498.6077	-0.001
498.8067	-0.0185
499.0056	-0.0065
499.2046	-0.0126
499.4035	-0.0249
499.6024	-0.0058
499.8013	-0.0056
500.0002	-0.0067
500.199	-0.0023
500.3979	-0.0074
500.5967	-0.0178
500.7956	-0.0023
500.9944	-0.0064
501.1932	-0.0094
501.3919	-0.012
501.5907	-0.0162
501.7895	-0.0073
501.9882	-0.0174
502.1869	-0.0097
502.3856	-0.0165
502.5843	-0.0155
502.783	-0.01
502.9816	-0.0095
503.1803	-0.022
503.3789	-0.0159
503.5775	-0.0071
503.7761	-0.0016
503.9747	-0.0066
504.1732	-0.0107
504.3718	-0.0102
504.5703	-0.0115
504.7689	-0.0075
504.9674	-0.0004
505.1658	-0.0162
505.3643	-0.0057
505.5628	-0.0067
505.7612	-0.0123
505.9597	0.0076
506.1581	-0.0117
506.3565	0.0015
506.5549	-0.0137
506.7532	-0.0153
506.9516	-0.0033
507.1499	-0.006
507.3482	-0.016
507.5465	-0.0139
507.7448	-0.0138
507.9431	-0.0099
508.1414	-0.0104
508.3396	-0.0138
508.5379	-0.0104
508.7361	-0.0082
508.9343	-0.0077
509.1325	0.0026
509.3306	-0.0088
509.5288	-0.0138
509.7269	-0.0084
509.9251	-0.012
510.1232	-0.0149
510.3213	-0.0115
510.5193	0.0103
510.7174	-0.0235
510.9154	-0.0173
511.1135	-0.0132
511.3115	-0.0147
511.5095	-0.0072
511.7075	-0.0216
511.9055	-0.0086
512.1034	-0.0162
512.3014	-0.0111
512.4993	-0.0088
512.6972	-0.0024
512.8951	-0.0203
513.093	-0.0021
513.2908	-0.0046
513.4887	-0.0033
513.6865	-0.0173
513.8844	-0.0182
514.0822	-0.0076
514.2799	-0.0137
514.4777	-0.0066
514.6755	-0.0139
514.8732	-0.0089
515.0709	-0.0024
515.2687	-0.0195
515.4664	-0.0066
515.664	-0.0073
515.8617	-0.0113
516.0594	-0.0168
516.257	-0.0131
516.4546	-0.0183
516.6522	-0.0018
516.8498	-0.0088
517.0474	-0.0055
517.2449	-0.0094
517.4425	-0.0167
517.64	-0.0134
517.8375	0.006
518.035	-0.0068
518.2325	-0.0124
518.43	-0.0109
518.6274	-0.0097
518.8249	-0.0145
519.0223	-0.0096
519.2197	-0.0108
519.4171	-0.0118
519.6145	-0.0125
519.8118	0.0017
520.0092	-0.0121
520.2065	-0.0153
520.4038	-0.0259
520.6011	-0.0018
520.7984	-0.0069
520.9956	-0.0124
521.1929	-0.0227
521.3901	-0.0007
521.5874	-0.0112
521.7846	-0.0046
521.9818	-0.0114
522.1789	-0.01
522.3761	-0.0144
522.5732	-0.0107
522.7704	-0.0193
522.9675	-0.0077
523.1646	-0.0163
523.3617	-0.0061
523.5587	-0.0083
523.7558	-0.006
523.9528	-0.0181
524.1498	-0.0102
524.3468	-0.0182
524.5438	-0.0085
524.7408	-0.0058
524.9378	0.0017
525.1347	-0.0049
525.3316	-0.0082
525.5285	-0.0112
525.7254	-0.008
525.9223	-0.0135
526.1192	-0.0036
526.316	-0.012
526.5129	-0.0028
526.7097	-0.0095
526.9065	-0.0156
527.1033	-0.0119
527.3	-0.0087
527.4968	-0.0084
527.6935	-0.008
527.8903	-0.0235
528.087	-0.0124
528.2837	-0.0161
528.4804	-0.0098
528.677	-0.0138
528.8737	0.0034
529.0703	0.0026
529.2669	-0.0056
529.4635	-0.0113
529.6601	-0.0124
529.8567	-0.012
530.0532	-0.0191
530.2498	0.0004
530.4463	-0.0068
530.6428	-0.0145
530.8393	-0.0054
531.0358	-0.0006
531.2322	-0.0058
531.4287	-0.0061
531.6251	-0.0138
531.8215	0.004
532.0179	-0.0001
532.2143	-0.0018
532.4107	-0.008
532.607	0.0008
532.8034	-0.004
532.9997	-0.0105
533.196	0.002
533.3923	-0.0127
533.5886	-0.0021
533.7848	-0.0008
533.9811	-0.0035
534.1773	-0.0075
534.3735	0.0042
534.5697	-0.0109
534.7659	-0.0035
534.9621	-0.0038
535.1582	-0.012
535.3544	-0.0145
535.5505	-0.0107
535.7466	-0.0043
535.9427	-0.0179
536.1387	-0.0044
536.3348	-0.0139
536.5308	-0.0009
536.7269	-0.016
536.9229	-0.0131
537.1189	0.001
537.3148	-0.006
537.5108	-0.0092
537.7068	-0.0018
537.9027	-0.0053
538.0986	-0.0046
538.2945	-0.0132
538.4904	-0.0084
538.6863	-0.0108
538.8821	-0.002
539.078	-0.0111
539.2738	-0.0025
539.4696	-0.0092
539.6654	0.0037
539.8611	0.0138
540.0569	-0.0086
540.2526	-0.0029
540.4484	-0.0027
540.6441	0.0051
540.8398	-0.0027
541.0355	-0.0074
541.2311	-0.0047
541.4268	-0.0136
541.6224	0.0008
541.818	-0.0074
542.0136	-0.0033
542.2092	-0.0003
542.4048	-0.0046
542.6003	-0.0108
542.7959	-0.0034
542.9914	-0.009
543.1869	-0.008
543.3824	-0.0068
543.5779	-0.0037
543.7734	-0.011
543.9688	-0.0077
544.1642	0.0002
544.3596	-0.0006
544.555	-0.0075
544.7504	-0.0011
544.9458	-0.0081
545.1411	-0.0082
545.3365	0.0011
545.5318	0.0015
545.7271	-0.0147
545.9224	-0.0076
546.1177	-0.0088
546.3129	-0.002
546.5081	-0.0126
546.7034	-0.0058
546.8986	-0.0094
547.0938	-0.0127
547.289	-0.0039
547.4841	-0.0058
547.6793	0.0031
547.8744	-0.0097
548.0695	-0.0004
548.2646	-0.0019
548.4597	0.0021
548.6548	-0.0062
548.8498	-0.0051
549.0448	0.0057
549.2399	-0.002
549.4349	0.0098
549.6298	-0.0079
549.8248	0.0039
550.0198	-0.0128
550.2147	-0.0072
550.4096	-0.0079
550.6045	-0.0097
550.7994	0.0002
550.9943	0.0036
551.1892	0.003
551.384	-0.0018
551.5788	-0.0106
551.7737	0.0012
551.9685	0.002
552.1632	-0.0057
552.358	-0.0031
552.5528	-0.0023
552.7475	-0.0056
552.9422	-0.0079
553.1369	0.0004
553.3316	0.0032
553.5263	-0.0016
553.7209	0.0083
553.9156	-0.003
554.1102	-0.0067
554.3048	-0.0038
554.4994	0.0071
554.694	-0.0116
554.8885	0.0033
555.0831	-0.0056
555.2776	-0.0099
555.4721	-0.0017
555.6666	-0.0024
555.8611	0.0008
556.0555	-0.0119
556.25	-0.0072
556.4444	-0.0123
556.6388	0.0039
556.8332	-0.0038
557.0276	-0.0025
557.222	-0.0049
557.4163	-0.0039
557.6107	-0.0073
557.805	0.0059
557.9993	-0.0058
558.1936	0
558.3879	-0.0103
558.5821	-0.0036
558.7764	-0.0025
558.9706	0.0006
559.1648	-0.0026
559.359	-0.0024
559.5532	-0.0098
559.7473	-0.0016
559.9415	-0.0079
560.1356	-0.0086
560.3297	-0.0056
560.5238	-0.0076
560.7179	-0.0068
560.9119	-0.0033
561.106	-0.0009
561.3	-0.0034
561.494	-0.0015
561.688	-0.0058
561.882	-0.0114
562.076	-0.0032
562.2699	-0.0003
562.4639	0.0003
562.6578	0.0039
562.8517	-0.0048
563.0456	0.0066
563.2395	-0.0032
563.4333	-0.0016
563.6272	0.0048
563.821	-0.0031
564.0148	-0.0029
564.2086	-0.0076
564.4024	-0.0044
564.5961	-0.0076
564.7899	0.0089
564.9836	-0.002
565.1773	-0.0072
565.371	-0.0012
565.5647	0.0003
565.7584	-0.0023
565.952	-0.0104
566.1456	0.0044
566.3393	0.0009
566.5329	-0.0107
566.7264	-0.0015
566.92	-0.0052
567.1136	0.0015
567.3071	-0.008
567.5006	0.0042
567.6941	0.0041
567.8876	-0.0004
568.0811	-0.005
568.2745	0.0066
568.468	0.0034
568.6614	0.0041
568.8548	0.0042
569.0482	0.0007
569.2416	0.0032
569.4349	0.0042
569.6283	0.0064
569.8216	-0.0025
570.0149	-0.0058
570.2082	-0.0047
570.4015	0.0127
570.5947	-0.0049
570.788	0.0036
570.9812	0.0039
571.1744	-0.0093
571.3676	-0.0062
571.5608	-0.0029
571.754	0.0034
571.9471	0.0062
572.1402	0.0007
572.3333	-0.003
572.5264	-0.0009
572.7195	-0.0001
572.9126	0.0052
573.1057	0.0011
573.2987	-0.0014
573.4917	0.0022
573.6847	-0.0093
573.8777	0.0056
574.0707	0.0021
574.2636	0.0018
574.4566	-0.0098
574.6495	0.0047
574.8424	-0.0013
575.0353	0.0007
575.2281	0.0115
575.421	-0.0035
575.6138	0.0048
575.8067	0.0041
575.9995	0.0019
576.1923	0.0027
576.385	0.0039
576.5778	0.0004
576.7706	-0.0026
576.9633	0.0027
577.156	-0.0042
577.3487	0.0034
577.5414	0.0009
577.734	0.0014
577.9267	0.0019
578.1193	-0.0103
578.3119	-0.0008
578.5045	0.0021
578.6971	0.0038
578.8897	0.0051
579.0822	0.003
579.2747	-0.0015
579.4673	-0.0023
579.6598	-0.0059
579.8522	-0.0036
580.0447	0.001
580.2372	-0.0024
580.4296	0.0014
580.622	0.0017
580.8144	-0.0009
581.0068	0.0003
581.1992	-0.0118
581.3915	-0.004
581.5839	-0.0067
581.7762	-0.0085
581.9685	-0.0003
582.1608	0.0016
582.353	0.0026
582.5453	-0.0003
582.7375	-0.0022
582.9298	0.0038
583.122	-0.0031
583.3142	-0.001
583.5063	-0.004
583.6985	-0.0019
583.8906	-0.0009
584.0827	-0.0072
584.2749	0.0021
584.4669	0.0096
584.659	0.0015
584.8511	-0.0057
585.0431	-0.0023
585.2352	0.0011
585.4272	0.0003
585.6192	0.0005
585.8111	0.0007
586.0031	0.0013
586.195	0.0038
586.387	0.0081
586.5789	-0.001
586.7708	-0.0002
586.9627	0.0041
587.1545	-0.0047
587.3464	0.0022
587.5382	0.0048
587.73	-0.0021
587.9218	0.0067
588.1136	0.0017
588.3053	0.0049
588.4971	-0.0078
588.6888	-0.0062
588.8805	-0.0007
589.0722	-0.0024
589.2639	0.0002
589.4556	-0.0031
589.6472	-0.0004
589.8389	-0.0062
590.0305	-0.0035
590.2221	-0.0039
590.4137	-0.0061
590.6052	0.0054
590.7968	0.0049
590.9883	0.002
591.1798	0.0047
591.3713	-0.0026
591.5628	0.0069
591.7543	0.0079
591.9458	-0.0024
592.1372	0.0098
592.3286	0.0007
592.52	0.0034
592.7114	0.0014
592.9028	0.0031
593.0941	-0.0026
593.2855	0.0065
593.4768	-0.0058
593.6681	-0.0036
593.8594	-0.0016
594.0506	0.0079
594.2419	0.0056
594.4331	0.0069
594.6244	0.0049
594.8156	-0.0015
595.0067	0.0052
595.1979	0.0048
595.3891	0.0023
595.5802	0.0032
595.7713	-0.0025
595.9624	0.0019
596.1535	0.0083
596.3446	0.0027
596.5357	0.0007
596.7267	0.0029
596.9177	-0.0056
597.1087	-0.0043
597.2997	-0.0045
597.4907	0.0056
597.6817	0.0005
597.8726	-0.0031
598.0635	-0.0051
598.2544	0.0035
598.4453	-0.0051
598.6362	-0.0076
598.827	-0.0028
599.0179	0.0026
599.2087	-0.0027
599.3995	-0.0042
599.5903	0.0004
599.7811	0.0032
599.9718	-0.0012
600.1626	-0.0013
600.3533	-0.0051
600.544	-0.0028
600.7347	-0.0017
600.9254	-0.004
601.116	-0.0124
601.3067	-0.0098
601.4973	-0.0071
601.6879	0.0003
601.8785	-0.0058
602.0691	0.0022
602.2596	-0.0023
602.4502	0.0015
602.6407	-0.0016
602.8312	0.0011
603.0217	-0.0102
603.2122	0.0043
603.4027	-0.0001
603.5931	-0.0098
603.7835	-0.0055
603.9739	0.004
604.1643	0.0025
604.3547	-0.0063
604.5451	-0.0002
604.7354	-0.0006
604.9257	-0.0016
605.116	-0
605.3063	0.0049
605.4966	0.0005
605.6869	0.0028
605.8771	0.0077
606.0673	0.0083
606.2575	0.0071
606.4477	0.0047
606.6379	0.0005
606.8281	-0.0025
607.0182	0.0013
607.2083	0.0133
607.3985	0.0035
607.5885	0.0012
607.7786	0.0014
607.9687	-0.0007
608.1587	0.0071
608.3488	0.0043
608.5388	0.0043
608.7288	-0.0028
608.9187	-0.0002
609.1087	0.0005
609.2986	0.0006
609.4886	-0.0005
609.6785	0.0068
609.8684	0.0045
610.0582	0.0044
610.2481	0.0049
610.4379	0.0045
610.6278	-0.0028
610.8176	-0.0025
611.0074	-0.0029
611.1971	-0.0028
611.3869	0.0056
611.5766	-0.0116
611.7664	0.0068
611.9561	0.0032
612.1458	0.0073
612.3354	-0.0015
612.5251	-0.0066
612.7147	0.0073
612.9044	0.0073
613.094	-0.0039
613.2836	0.0036
613.4731	-0.0001
613.6627	0.0011
613.8522	0.004
614.0417	0.0019
614.2313	-0.0049
614.4207	-0.0105
614.6102	0.002
614.7997	-0.0063
614.9891	-0.0056
615.1785	0.0008
615.3679	-0.0013
615.5573	0.0072
615.7467	0.0012
615.9361	-0.0026
616.1254	-0.0051
616.3147	0.0008
616.504	0.0038
616.6933	0.0023
616.8826	0.0087
617.0718	-0.0003
617.2611	0.0077
617.4503	0.001
617.6395	-0.0019
617.8287	-0.0028
618.0179	-0.0044
618.207	0.0054
618.3961	-0.0044
618.5853	0.0023
618.7744	0.0059
618.9634	0.0069
619.1525	-0.002
619.3416	0.0066
619.5306	0.0086
619.7196	0.008
619.9086	0.0025
620.0976	0.007
620.2866	0.0033
620.4755	0.002
620.6645	0.0053
620.8534	0.0026
621.0423	0.0027
621.2312	0.0053
621.42	0.0017
621.6089	0.0005
621.7977	0.0011
621.9865	-0.0072
622.1753	0.0064
622.3641	-0.0001
622.5529	0.0062
622.7416	0.012
622.9303	-0.0034
623.1191	0.0047
623.3078	-0.0011
623.4964	0.0015
623.6851	0.0037
623.8737	0.0034
624.0624	0.0056
624.251	-0.0033
624.4396	-0.0026
624.6282	-0.0014
624.8167	0.0002
625.0053	0.0037
625.1938	0.0035
625.3823	-0.0016
625.5708	-0.0018
625.7593	-0.0044
625.9477	-0.0007
626.1362	-0.0077
626.3246	0.005
626.513	-0.0036
626.7014	0.0019
626.8898	-0.0033
627.0781	-0.0005
627.2665	-0.003
627.4548	0.0052
627.6431	0.0022
627.8314	0.0025
628.0197	0.0067
628.2079	0.0002
628.3962	0.0026
628.5844	0.0058
628.7726	0.0067
628.9608	0.0095
629.1489	0.0006
629.3371	0.004
629.5252	0.0092
629.7134	0.0124
629.9015	0.0018
630.0895	-0.0013
630.2776	0.0088
630.4657	-0.0084
630.6537	0.0077
630.8417	-0.0032
631.0297	0.0015
631.2177	0.0053
631.4057	-0.0048
631.5936	-0.0008
631.7815	0.0027
631.9695	0.0053
632.1574	0.003
632.3452	0.0102
632.5331	0.0053
632.7209	-0.0006
632.9088	0.0044
633.0966	0.009
633.2844	-0.0035
633.4722	0.003
633.6599	0.0153
633.8477	-0.0034
634.0354	0.0078
634.2231	-0.0044
634.4108	0.0009
634.5985	0.0069
634.7861	0.006
634.9738	-0.0046
635.1614	-0.0063
635.349	-0.0034
635.5366	-0.0018
635.7242	-0.0007
635.9117	0.0069
636.0993	0.0012
636.2868	0.0058
636.4743	0.0007
636.6618	0.0123
636.8492	0.0068
637.0367	0.0003
637.2241	-0.005
637.4115	-0.0023
637.5989	-0.0088
637.7863	-0.0017
637.9737	0.0016
638.161	0.0001
638.3484	-0.0027
638.5357	0.0011
638.723	-0.0064
638.9103	0.0026
639.0975	0.0025
639.2848	0.0018
639.472	0.0055
639.6592	0.0059
639.8464	0.0117
640.0336	0.0113
640.2208	0.0015
640.4079	-0.0046
640.595	0.0046
640.7821	-0.0023
640.9692	0.0028
641.1563	-0.0039
641.3434	0.0024
641.5304	-0.0032
641.7174	0.0002
641.9044	0.0042
642.0914	-0.0006
642.2784	0.0023
642.4653	0.0096
642.6523	-0.0081
642.8392	-0.0026
643.0261	0.0017
643.213	-0.0011
643.3999	-0.0051
643.5867	0.0016
643.7735	0.0045
643.9604	-0.0054
644.1472	0.0018
644.3339	-0.0033
644.5207	-0.0044
644.7075	-0.0027
644.8942	0.0063
645.0809	0.0047
645.2676	0.0043
645.4543	0.0035
645.6409	-0.0018
645.8276	-0.0025
646.0142	0.0119
646.2008	-0.0006
646.3874	-0.0041
646.574	0.0036
646.7605	-0.0046
646.9471	-0.0201
647.1336	0.0013
647.3201	0.0029
647.5066	-0.0041
647.6931	-0
647.8795	-0.0009
648.0659	0.0001
648.2524	0.0046
648.4388	-0.0027
648.6252	-0.0025
648.8115	-0.0029
648.9979	-0.001
649.1842	0.0031
649.3705	0.0023
649.5568	0.0072
649.7431	0.002
649.9294	-0.0062
650.1156	0.002
650.3018	-0.0085
650.488	0.0038
650.6742	0.0036
650.8604	-0.0016
651.0466	-0.0068
651.2327	0.0016
651.4188	0.0002
651.6049	-0.0067
651.791	-0.0053
651.9771	0.0037
652.1632	-0.0017
652.3492	0.0009
652.5352	0.0028
652.7212	-0.0015
652.9072	-0.001
653.0932	-0.0042
653.2791	-0.0057
653.465	-0.0053
653.651	-0.0103
653.8369	-0.0071
654.0227	-0.0062
654.2086	0.0011
654.3944	-0.0003
654.5803	-0.0101
654.7661	-0.0047
654.9519	-0.0003
655.1377	-0.0058
655.3234	-0.0015
655.5092	-0.0102
655.6949	-0.0052
655.8806	-0.0064
656.0663	-0.0054
656.2519	0.0023
656.4376	-0.0069
656.6232	0.0009
656.8088	-0.0021
656.9945	-0.0012
657.18	-0.0037
657.3656	-0.0019
657.5511	0.0022
657.7367	-0.0059
657.9222	0.0053
658.1077	-0.0024
658.2932	0.0066
658.4786	-0.0052
658.6641	0.0002
658.8495	-0.0008
659.0349	-0.0036
659.2203	0.0058
659.4057	0.0026
659.591	-0.003
659.7764	-0.0084
659.9617	0.0025
660.147	0.0003
660.3323	-0.0018
660.5176	0.0092
660.7028	-0.0086
660.888	-0.0012
661.0733	-0.0008
661.2585	-0.0038
661.4436	-0.0025
661.6288	-0.0035
661.8139	0.0001
661.9991	0.0008
662.1842	-0.0002
662.3693	-0.0033
662.5544	-0.0057
662.7394	0.0005
662.9245	-0.008
663.1095	0.001
663.2945	-0.0031
663.4795	-0.004
663.6644	0.0008
663.8494	-0.0014
664.0343	-0.0038
664.2193	-0.0069
664.4042	-0.0045
664.589	-0.0079
664.7739	-0.0014
664.9587	-0.0106
665.1436	-0.007
665.3284	-0.0038
665.5132	-0.0071
665.698	0.0013
665.8827	0.0086
666.0675	0.0051
666.2522	-0.0047
666.4369	-0.0035
666.6216	0.0097
666.8063	0.0055
666.9909	0.0054
667.1756	-0.0015
667.3602	0.0038
667.5448	-0.0005
667.7294	0.0074
667.9139	0.0092
668.0985	0.0141
668.283	0.0029
668.4675	-0.0052
668.652	0.0013
668.8365	0.0046
669.0209	0.007
669.2054	0.0071
669.3898	0.0014
669.5742	-0.0001
669.7586	0.0053
669.943	0.0083
670.1273	0.0065
670.3117	0.0046
670.496	0.0006
670.6803	0.0072
670.8646	0.0102
671.0488	0.0035
671.2331	0.0036
671.4173	0.0001
671.6015	0.0027
671.7857	0.0073
671.9699	0.0073
672.1541	0.004
672.3382	0.0045
672.5223	0.0099
672.7064	0.0056
672.8905	0.0073
673.0746	0.0031
673.2587	0.0014
673.4427	0.0074
673.6267	0.0046
673.8107	0.0112
673.9947	0.0026
674.1787	-0.0056
674.3626	-0.0034
674.5465	0.0069
674.7304	0.0025
674.9143	-0.0037
675.0982	0.006
675.2821	-0.0031
675.4659	0.0017
675.6497	-0.0008
675.8335	0.0015
676.0173	0.0018
676.2011	0.0046
676.3849	-0.001
676.5686	-0.0044
676.7523	0.007
676.936	0.0009
677.1197	-0.0026
677.3034	-0.0027
677.487	0.0019
677.6706	0.0011
677.8542	0.0021
678.0378	-0.0009
678.2214	0.0006
678.405	-0.0001
678.5885	-0.0039
678.772	-0.0036
678.9555	-0.0041
679.139	-0.0031
679.3225	0.0045
679.5059	-0.0014
679.6894	-0.0018
679.8728	-0.0016
680.0562	-0.0053
680.2395	-0.003
680.4229	-0.0036
680.6062	0.0065
680.7896	0.0023
680.9729	-0.0095
681.1562	0.0015
681.3394	-0.0005
681.5227	-0.0104
681.7059	-0.0072
681.8891	-0.0036
682.0723	0.0033
682.2555	0.0011
682.4387	-0.0028
682.6218	-0.0089
682.805	0.0073
682.9881	0.0036
683.1712	0.0004
683.3542	-0.0047
683.5373	0.001
683.7203	-0.0014
683.9034	0.0034
684.0864	-0.0002
684.2694	0.0041
684.4523	0.0071
684.6353	0.0007
684.8182	-0.002
685.0011	-0.0129
685.184	-0.0003
685.3669	-0.0081
685.5498	0.0036
685.7326	0.0033
685.9154	-0.0045
686.0982	0.0104
686.281	0.0049
686.4638	0.0025
686.6465	0.003
686.8293	0.0008
687.012	0.0033
687.1947	-0.0066
687.3774	0.0057
687.56	0.0051
687.7427	0.0012
687.9253	-0.0145
688.1079	-0.004
688.2905	0.0049
688.4731	0.0018
688.6556	-0.0065
688.8382	-0.0039
689.0207	-0.0042
689.2032	-0.0048
689.3857	-0.0034
689.5681	0.0037
689.7506	-0.0024
689.933	-0.0023
690.1154	-0.0005
690.2978	-0.0014
690.4802	0.0039
690.6626	-0.0126
690.8449	-0.0041
691.0272	0.0044
691.2095	-0.0093
691.3918	-0.0086
691.5741	0.0078
691.7563	-0.0002
691.9386	0.0004
692.1208	-0.004
692.303	0.0014
692.4852	-0.0067
692.6673	-0.0005
692.8495	-0.0005
693.0316	0.0014
693.2137	0.0086
693.3958	0.0022
693.5778	0.0045
693.7599	0.0066
693.9419	0.0049
694.1239	-0.0032
694.3059	-0.0049
694.4879	0.0042
694.6699	0.0046
694.8518	0.0018
695.0337	0.0001
695.2157	0.0091
695.3975	0.01
695.5794	0.0042
695.7613	0.0079
695.9431	0.0044
696.1249	0.0107
696.3067	0.0013
696.4885	-0.0021
696.6703	-0.0138
696.852	-0.0035
697.0337	-0.0027
697.2154	-0.0088
697.3971	-0.0056
697.5788	-0.0036
697.7605	-0.0008
697.9421	0.0028
698.1237	-0.0024
698.3053	-0.0038
698.4869	-0.0032
698.6685	-0.01
698.85	-0.0038
699.0315	-0.0027
699.213	-0.0057
699.3945	0.0051
699.576	0.005
699.7575	0.0042
699.9389	0.0056
700.1203	0.0014
700.3017	-0.0029
700.4831	-0.0012
700.6645	0.0021
700.8458	0.0052
701.0271	-0.0022
701.2084	0.0068
701.3897	-0.0002
701.571	0.0052
701.7523	-0.0168
701.9335	0.0004
702.1147	-0.0032
702.2959	0.0028
702.4771	-0.0019
702.6583	0.0036
702.8394	-0.0016
703.0205	0.0037
703.2016	-0.0086
703.3827	0.0041
703.5638	0.0171
703.7449	0.0037
703.9259	0.009
704.1069	0.0032
704.2879	0.0037
704.4689	0.007
704.6499	0.0014
704.8308	0.0055
705.0117	0.0016
705.1927	0.0078
705.3735	0.0026
705.5544	-0.0006
705.7353	-0.001
705.9161	-0.0002
706.0969	-0.0021
706.2777	0.0012
706.4585	-0.0074
706.6393	0.0058
706.82	-0.0063
707.0007	-0.0027
707.1815	-0.0023
707.3621	0.0081
707.5428	0.0037
707.7235	0.0087
707.9041	0.0079
708.0847	-0.009
708.2653	-0.0092
708.4459	-0.0051
708.6265	-0.0008
708.807	0.0025
708.9875	0.0056
709.168	0.0013
709.3485	-0.0008
709.529	-0.0029
709.7095	-0.0097
709.8899	-0.0032
710.0703	-0.0166
710.2507	-0.0034
710.4311	-0.0001
710.6115	-0.0132
710.7918	-0.0071
710.9721	0.0005
711.1524	-0.0107
711.3327	-0.0026
711.513	-0.0015
711.6932	-0.0046
711.8735	0.0129
712.0537	-0.0011
712.2339	-0.0019
712.4141	-0.0144
712.5942	-0.0149
712.7744	-0.0062
712.9545	-0.0094
713.1346	-0.0068
713.3147	-0.0034
713.4947	-0.011
713.6748	-0.0045
713.8548	0.0085
714.0348	-0.0011
714.2148	-0.0072
714.3948	0.0044
714.5748	-0.0046
714.7547	-0.0025
714.9346	-0.0011
715.1145	-0.0042
715.2944	-0.0067
715.4743	-0.0033
715.6541	-0.0006
715.834	0.0068
716.0138	-0.0042
716.1936	-0.0074
716.3733	-0.0056
716.5531	0.0054
716.7328	-0.0001
716.9126	-0.0111
717.0923	0.0027
717.2719	-0.0035
717.4516	0.002
717.6312	0.001
717.8109	-0.0047
717.9905	0.0064
718.1701	-0.0094
718.3496	-0.0028
718.5292	-0.0006
718.7087	-0.0008
718.8882	-0.0002
719.0677	0.0066
719.2472	-0.0015
719.4267	0.0007
719.6061	-0.0008
719.7856	0.0048
719.965	0.0063
720.1443	-0.0067
720.3237	0.0094
720.5031	0.0014
720.6824	0.009
720.8617	-0.0017
721.041	0.0041
721.2203	0.0035
721.3995	0.0069
721.5788	0.006
721.758	0.0139
721.9372	0.0061
722.1164	0.0003
722.2956	0.0064
722.4747	0.0012
722.6538	0.0014
722.8329	0.0149
723.012	0.0068
723.1911	-0.0027
723.3702	0.0009
723.5492	-0.0001
723.7282	-0.0011
723.9072	-0.0007
724.0862	0.0052
724.2652	0.0031
724.4441	-0.0071
724.623	0
724.8019	-0.0006
724.9808	0.0029
725.1597	-0.0068
725.3385	0.0082
725.5174	0.0071
725.6962	0.0085
725.875	0.0036
726.0538	0.0068
726.2325	0.0056
726.4112	0.0027
726.59	-0.0012
726.7687	0.0014
726.9474	0.0051
727.126	-0.0017
727.3047	-0.0117
727.4833	-0.001
727.6619	-0.0048
727.8405	-0.0066
728.0191	-0.0023
728.1976	0.0053
728.3762	-0.0037
728.5547	-0.0074
728.7332	-0.0089
728.9116	-0.0013
729.0901	0.0055
729.2686	-0.0115
729.447	-0.003
729.6254	0.0015
729.8038	-0.0033
729.9821	-0.016
730.1605	-0.005
730.3388	0.0038
730.5171	0.0016
730.6954	-0.0065
730.8737	0.0052
731.0519	0.0127
731.2302	-0.0045
731.4084	0.0045
731.5866	0.0015
731.7648	-0.0051
731.9429	-0.004
732.1211	-0.0109
732.2992	-0.0011
732.4773	0.0044
732.6554	0.0003
732.8335	0.0089
733.0115	0.0033
733.1896	0.0018
733.3676	-0.0048
733.5456	0.0037
733.7235	0.0041
733.9015	-0.0015
734.0794	0.0037
734.2574	-0.0039
734.4353	0.0066
734.6131	0.0076
734.791	0.0013
734.9689	0.0058
735.1467	-0.0007
735.3245	-0.0125
735.5023	-0.0064
735.68	-0.0097
735.8578	-0.0001
736.0355	-0.0119
736.2132	-0.0091
736.3909	0.0006
736.5686	-0.0099
736.7463	0.0074
736.9239	0.001
737.1015	-0.006
737.2791	0.0013
737.4567	-0.0048
737.6343	0.0034
737.8118	-0.0022
737.9894	0.013
738.1669	-0.007
738.3444	-0.0118
738.5218	0.0005
738.6993	-0.0068
738.8767	-0.0075
739.0541	0.0139
739.2315	-0.01
739.4089	-0.0065
739.5863	0.0094
739.7636	-0.0073
739.9409	0.0053
740.1182	0.0038
740.2955	0.0002
740.4728	-0.0066
740.65	-0.0023
740.8272	-0.0021
741.0044	-0.0054
741.1816	-0.0088
741.3588	-0.0056
741.5359	0.0004
741.7131	-0.0144
741.8902	-0.0093
742.0673	-0.0077
742.2444	-0.0127
742.4214	-0.0141
742.5985	-0.0156
742.7755	-0.0139
742.9525	-0.0246
743.1295	-0.0006
743.3064	-0.0087
743.4834	-0.0016
743.6603	-0.0094
743.8372	-0.0125
744.0141	0.0001
744.191	-0.0033
744.3678	-0.0095
744.5446	-0.0025
744.7215	0.0069
744.8982	-0.0047
745.075	-0.0013
745.2518	0.0011
745.4285	-0.0011
745.6052	0.0009
745.7819	-0.0004
745.9586	0.0122
746.1353	-0.0001
746.3119	-0.0031
746.4885	-0.0034
746.6651	-0.0058
746.8417	0.0029
747.0183	0.0083
747.1948	0.0004
747.3714	0.0096
747.5479	0.0047
747.7244	0.0069
747.9008	0.0083
748.0773	-0.0024
748.2537	-0.0031
748.4301	-0.0019
748.6065	0.0022
748.7829	0.004
748.9593	-0.0045
749.1356	0.0019
749.3119	0.0077
749.4882	-0.0087
749.6645	0.0031
749.8408	-0.0018
750.017	-0.0045
750.1933	0.0071
750.3695	-0.004
750.5457	0.0082
750.7218	0.0045
750.898	0.008
751.0741	-0.004
751.2502	0.0077
751.4263	0.0002
751.6024	0.0047
751.7784	-0.0022
751.9545	-0.0038
752.1305	-0.0025
752.3065	-0.0031
752.4825	0.0036
752.6584	-0.0068
752.8344	0.0012
753.0103	-0.0183
753.1862	-0.0093
753.3621	-0.0008
753.5379	-0.0109
753.7138	0.0003
753.8896	-0.0055
754.0654	0.0044
754.2412	0.0071
754.417	0.0004
754.5927	-0.0096
754.7685	-0.0007
754.9442	0.0019
755.1199	0.0034
755.2956	-0.005
755.4712	0.0087
755.6469	0.0023
755.8225	-0.0026
755.9981	-0.0008
756.1736	0.0023
756.3492	0.0007
756.5248	-0.0069
756.7003	-0.0019
756.8758	-0.0003
757.0513	-0.01
757.2267	-0.0001
757.4022	-0.0025
757.5776	-0.0068
757.753	0
757.9284	0.0028
758.1038	0.0132
758.2791	0.0051
758.4545	-0.0054
758.6298	0.003
758.8051	0.0034
758.9803	0.0041
759.1556	0.0083
759.3308	0.0116
759.506	0.0168
759.6812	0.0101
759.8564	0.0103
760.0316	0.0063
760.2067	0.0207
760.3819	0.0101
760.557	0.0137
760.732	-0.0024
760.9071	-0.0121
761.0821	-0.0024
761.2572	0.0108
761.4322	0.0003
761.6072	-0.0045
761.7821	-0.0054
761.9571	0.0024
762.132	-0.0055
762.3069	-0.0075
762.4818	-0.0046
762.6567	-0.0058
762.8316	0.0017
763.0064	-0.0072
763.1812	-0.0003
763.356	-0.0076
763.5308	-0.0036
763.7055	-0.0003
763.8803	-0.0009
764.055	-0.0013
764.2297	0.0065
764.4044	-0.0104
764.579	0.0043
764.7537	-0.0136
764.9283	-0.0024
765.1029	0.0098
765.2775	-0.008
765.4521	-0.0122
765.6266	-0.004
765.8011	-0.0015
765.9756	-0.001
766.1501	0.0072
766.3246	-0.0077
766.4991	-0.0019
766.6735	-0.0049
766.8479	0.0016
767.0223	0.0095
767.1967	0.0091
767.371	-0.0083
767.5454	0.0008
767.7197	-0.0059
767.894	-0.0027
768.0683	-0.0077
768.2425	-0.0016
768.4168	0.0043
768.591	0.0028
768.7652	0.0032
768.9394	0.0104
769.1135	0.0106
769.2877	0.0108
769.4618	-0.0017
769.6359	-0.0032
769.81	0.0103
769.984	0.0028
770.1581	-0.0078
770.3321	-0.0005
770.5061	-0.0009
770.6801	0.0078
770.8541	0.0034
771.028	0.0167
771.202	-0.0088
771.3759	0.0095
771.5498	0.0034
771.7236	0.0092
771.8975	0.0069
772.0713	0.0079
772.2451	0.0094
772.4189	0.0095
772.5927	0.0068
772.7665	0.0032
772.9402	-0.0035
773.1139	0.013
773.2876	-0.0057
773.4613	0.0094
773.635	0.0082
773.8086	-0.0046
773.9822	0.0042
774.1558	0.0045
774.3294	-0.0095
774.503	-0.0022
774.6765	-0.0025
774.8501	0.0098
775.0236	-0.0018
775.1971	0.0036
775.3705	-0.0163
775.544	0.0131
775.7174	0.0028
775.8908	-0.0047
776.0642	-0.006
776.2376	-0.0007
776.4109	-0.0026
776.5843	0.0038
776.7576	0.0043
776.9309	0.0183
777.1041	0.005
777.2774	0.0105
777.4506	0.0054
777.6238	-0.0028
777.797	-0.0091
777.9702	0.0085
778.1434	0.0017
778.3165	-0.0213
778.4896	-0.0002
778.6627	0.0057
778.8358	-0.0009
779.0089	0.0025
779.1819	-0.0099
779.3549	0.007
779.5279	0.0174
779.7009	0.0066
779.8739	0.0111
780.0468	-0.0041
780.2197	0.0078
780.3926	-0.0077
780.5655	-0.0068
780.7384	-0.0038
780.9112	-0.0006
781.0841	-0.0059
781.2569	0.0005
781.4297	0.0011
781.6024	0.0122
781.7752	0.0037
781.9479	0.011
782.1206	0.007
782.2933	-0.0148
782.466	0.0023
782.6386	-0.0001
782.8113	0.009
782.9839	-0.002
783.1565	0.0062
783.329	0.0077
783.5016	0.0081
783.6741	0.0057
783.8466	-0.0056
784.0191	0.0221
784.1916	0.002
784.3641	0.0009
784.5365	-0.0011
784.7089	0.011
784.8813	-0.0078
785.0537	-0.0074
785.2261	0.0072
785.3984	-0.0146
785.5707	-0.0019
785.743	0.0123
785.9153	0.0073
786.0876	0.0093
786.2598	0.0063
786.432	-0.0138
786.6042	-0.008
786.7764	-0.0014
786.9486	-0.0034
787.1207	-0.006
787.2928	0.0077
787.4649	0.0072
787.637	0.012
787.8091	-0.0022
787.9811	-0.0067
788.1532	0.0082
788.3252	0.0009
788.4972	-0.0145
788.6691	0.0164
788.8411	0.0125
789.013	-0.0084
789.1849	0.0154
789.3568	0.0136
789.5287	0.0008
789.7005	0.0054
789.8723	0.0027
790.0442	0.0215
790.2159	0.0041
790.3877	0.0118
790.5595	0.0067
790.7312	0.0109
790.9029	0.0201
791.0746	-0.0006
791.2463	0.0115
791.4179	0.011
791.5896	-0.0041
791.7612	0.0044
791.9328	0.0155
792.1044	0.0016
792.2759	-0.0139
792.4474	-0.009
792.619	0.0245
792.7905	-0.0017
792.9619	0.0098
793.1334	0.0091
793.3048	0.0144
793.4762	0.0178
793.6476	0.0133
793.819	0.0096
793.9904	0.0072
794.1617	-0.0069
794.333	-0.0048
794.5043	-0.012
794.6756	-0.0048
794.8469	0.0272
795.0181	-0.0045
795.1893	0.0071
795.3605	0.0082
795.5317	0.0005
795.7029	0.0103
795.874	0.0097
796.0452	-0.0087
796.2163	-0.0064
796.3873	0.0127
796.5584	0.0143
796.7294	0.0022
796.9005	0.0259
797.0715	0.0026
797.2425	0.011
797.4134	-0.0047
797.5844	0.0069
797.7553	0.0042
797.9262	0.0017
798.0971	-0.0009
798.2679	-0.0039
798.4388	-0.001
798.6096	-0.0006
798.7804	0.0015
798.9512	0.0144
799.122	0.0015
799.2927	0.0182
799.4635	0.0239
799.6342	-0.0035
799.8049	0.0039
799.9755	0.002
800.1462	0.0039
800.3168	0.0092
800.4874	0.0224
800.658	0.0172
800.8286	0.0073
800.9991	0.0275
801.1696	0.0196
801.3402	0.0068
801.5106	0.0091
801.6811	0.0034
801.8516	0.0113
802.022	0.0131
802.1924	0.0171
802.3628	0.0086
802.5332	0.022
802.7035	0.0132
802.8739	0.0166
803.0442	-0.0104
803.2145	0.0222
803.3847	-0.0107
803.555	-0.0036
803.7252	0.0033
803.8954	-0.0022
804.0656	-0.0051
804.2358	-0.0006
804.4059	0.0224
804.5761	0.01
804.7462	0.0218
804.9163	0.0119
805.0864	0.0014
805.2564	0.005
805.4264	0.0233
805.5965	0.0059
805.7665	0.0045
805.9364	0.0134
806.1064	0.0225
806.2763	0.0161
806.4462	0.01
806.6161	0.033
806.786	0.0307
806.9559	0.0233
807.1257	0.0045
807.2955	0.0156
807.4653	0.0106
807.6351	-0.0149
807.8048	0.0281
807.9746	-0.0047
808.1443	0.0212
808.314	0.0056
808.4837	0.0105
808.6533	0.017
808.8229	0.0265
808.9926	0.019
809.1622	0.0099
809.3317	-0.0097
809.5013	0.0192
809.6708	0.0099
809.8403	0.0194
810.0098	0.0153
810.1793	0.026
810.3488	0.0323
810.5182	-0.0005
810.6876	0.011
810.857	-0.0021
811.0264	0.0381
811.1958	0.012
811.3651	0.0392
811.5344	0.0228
811.7037	0.0058
811.873	0.0049
812.0422	0.0099
812.2115	0.0176
812.3807	0.0081
812.5499	0.0041
812.7191	0.024
812.8882	0.0112
813.0574	0.0169
813.2265	0.0105
813.3956	0.0213
813.5646	0.0283
813.7337	-0.0046
813.9027	0.0257
814.0718	0.0318
814.2407	0.0286
814.4097	0.0262
814.5787	-0.0081
814.7476	0.0397
814.9165	0.0093
815.0854	0.0253
815.2543	0.0201
815.4232	0.016
815.592	0.0204
815.7608	0.0191
815.9296	0.0285
816.0984	0.0322
816.2671	0.0332
816.4359	0.0188
816.6046	0.0189
816.7733	-0.0033
816.942	-0.0003
817.1106	0.0241
817.2793	0.0396
817.4479	0.0131
817.6165	0.023
817.785	0.0274
817.9536	0.0063
818.1221	0.0075
818.2906	0.0227
818.4591	0.0083
818.6276	-0.0087
818.7961	0.0276
818.9645	0.0353
819.1329	0.0258
819.3013	0.0273
819.4697	0.0383
819.638	0.0175
819.8064	0.0038
819.9747	0.0247
820.143	0.0128
820.3113	0.0137
820.4795	0.0025
820.6477	0.0176
820.816	0.0263
820.9842	0.036
821.1523	0.004
821.3205	0.02
821.4886	0.0121
821.6567	0.0011
821.8248	0.022
821.9929	0.0469
822.1609	0.0161
822.329	0.0378
822.497	0.0283
822.665	-0.0082
822.833	0.0243
823.0009	0.0196
823.1688	0.0316
823.3367	0.0397
823.5046	0.0306
823.6725	0.0289
823.8404	0.014
824.0082	0.0103
824.176	0.0161
824.3438	0.0233
824.5116	0.0368
824.6793	0.0445
824.847	0.0225
825.0147	-0.0126
825.1824	0.0382
825.3501	0.0008
825.5177	-0.0031
825.6854	0.0123
825.853	0.021
826.0206	0.0014
826.1881	0.0253
826.3557	-0.0461
826.5232	0.026
826.6907	0.0014
826.8582	0.0348
827.0257	0.0113
827.1931	0.0261
827.3605	0.0142
827.528	0.0161
827.6953	-0.0022
827.8627	0.027
828.03	0.0528
828.1974	-0.0102
828.3647	-0.0036
828.532	-0.0009
828.6992	0.0131
828.8665	0.0058
829.0337	-0.0055
829.2009	0.0525
829.3681	0.0067
829.5352	0.0629
829.7024	-0.0179
829.8695	-0.0276
830.0366	0.0599
830.2037	-0.0223
830.3707	0.0223
830.5378	0.0125
830.7048	-0.001
830.8718	0.0206
831.0388	0.0029
831.2057	0.0141
831.3727	0.0444
831.5396	-0.0227
831.7065	0.0082
831.8734	0.0138
832.0402	-0.0064
832.2071	0.0057
832.3739	0.0197
832.5407	0.014
832.7075	0.016
832.8742	0.0007
833.041	-0.0412
833.2077	0.0396
833.3744	0.0533
833.541	0.0445
833.7077	0.0007
833.8743	-0.0148
834.0409	0.0194
834.2075	0.0309
834.3741	0.0235
834.5407	-0.0006
834.7072	-0.0149
834.8737	-0.0052
835.0402	-0.0132
835.2067	0.0192
835.3731	-0.0256
835.5395	0.0799
835.706	-0.0263
835.8723	0.0237
836.0387	0.0173
836.2051	0.0085
836.3714	0.0161
836.5377	0.0091
836.704	-0.0329
836.8703	0.0499
837.0365	0.0059
837.2027	-0.0126
837.3689	0.0427
837.5351	-0.0044
837.7013	-0.0075
837.8674	-0.0511
838.0335	-0.0391
838.1997	-0.0032
838.3657	0.0416
838.5318	-0.0136
838.6978	-0.0007
838.8639	0.0075
839.0299	-0.0101
839.1958	-0.0138
839.3618	0.0433
839.5277	0.0001
839.6937	0.0247
839.8596	0.0561
840.0254	0.023
840.1913	0.064
840.3571	0.0682
840.523	-0.0039
840.6888	0.0242
840.8545	-0.0123
841.0203	0.0089
841.186	0.0193
841.3517	-0.0017
841.5174	0.0629
841.6831	-0.0129
841.8488	0.0445
842.0144	0.0065
842.18	0.0154
842.3456	0.0466
842.5112	-0.0109
842.6767	-0.0294
842.8422	0.0346
843.0077	0.0502
843.1732	0.029
843.3387	-0.0166
843.5042	-0.0159
843.6696	0.0445
843.835	-0.02
844.0004	0.056
844.1657	-0.0069
844.3311	-0.0238
844.4964	-0.0928
844.6617	-0.0021
844.827	0.0351
844.9923	0.0224
845.1575	-0.0058
845.3227	-0.018
845.4879	0.0463
845.6531	-0.0359
845.8183	-0.0485
845.9834	0.0077
846.1485	0.0607
846.3136	0.0317
846.4787	-0.003
846.6438	0.052
846.8088	-0.0107
846.9738	-0.0982
847.1388	0.0001
847.3038	0.0498
847.4687	-0.0542
847.6337	0.0324
847.7986	0.039
847.9635	-0.0256
848.1284	0.0446
848.2932	0.1521
848.458	-0.0032
848.6228	0.0757
848.7876	0.0886
848.9524	-0.0563
849.1172	-0.0431
849.2819	0.0457
849.4466	-0.0611
849.6113	0.0435
849.7759	0.0249
849.9406	-0.005
850.1052	0.0546
850.2698	0.0059
850.4344	0.0101
850.599	0.0105
850.7635	0.1205
850.928	0.0581
851.0925	0.0362
851.257	0.1128
851.4215	0.0739
851.5859	-0.0085
851.7503	0.0681
851.9147	0.0152
852.0791	0.0507
852.2434	-0.0482
852.4078	0.084
852.5721	0.215
852.7364	0.0341
852.9007	-0.1656
853.0649	-0.019
853.2291	0.0504
853.3934	-0.0416
853.5575	-0.0565
853.7217	-0.1579
853.8859	-0.0425
854.05	-0.005
854.2141	0.0862
854.3782	-0.0727
854.5423	-0.0419
854.7063	0.1945
854.8703	0.0821
855.0343	0.0502
855.1983	-0.1386
855.3623	0.2752
855.5262	0.017
855.6901	0.0631
855.854	0.0671
856.0179	0.0856
856.1818	0.08
856.3456	-0.0657
856.5094	-0.0345
856.6732	-0.0296
856.837	0.0846
857.0008	0.192
857.1645	-0.0176
857.3282	-0.1549
857.4919	-0.0245
857.6556	0.1013
857.8192	-0.0464
857.9828	0.0985
858.1465	0.1647
858.31	-0.3183
858.4736	-0.0827
858.6372	-0.0946
858.8007	-0.0473
858.9642	0.0486
859.1277	-0.1754
859.2911	0.4166
859.4546	0.0453
859.618	-0.2471
859.7814	-0.0352
859.9448	-0.0824
860.1081	-0.0048
860.2715	0.1986
860.4348	0.393
860.5981	-0.0226
860.7614	0.1889
860.9246	0.257
861.0879	-0.1696
861.2511	-0.0464
861.4143	0.1083
861.5774	0.2092
861.7406	-0.2224
861.9037	0.0646
862.0668	-0.1907
862.2299	-0.0066
862.393	0.3202
862.556	0.0947
862.7191	-0.2755
862.8821	0.0402
863.0451	-0.0656
863.208	0.2537
863.371	-0.1888
863.5339	-0.3632
863.6968	0.0997
863.8597	-0.1748
864.0225	-0.0392
864.1854	0.1765
864.3482	-0.4011
864.511	0.2797
864.6737	0.0876
864.8365	0.5321
864.9992	-0.4562
865.1619	0.7457
865.3246	-0.1125
865.4873	0.064
865.65	0.017
865.8126	0.1074
865.9752	0.179
866.1378	-0.0554
866.3004	0.2611
866.4629	0.1942
866.6254	-0
866.7879	0.3108
866.9504	-0
867.1129	-0
867.2753	-0
867.4377	0.1916
867.6001	1.1153
867.7625	0.0447
867.9249	0.0045
868.0872	0.2221
868.2495	0.1416
868.4118	-0
868.5741	-0.2388
868.7363	-0.335
868.8986	0.4751
869.0608	0.0716
869.223	0.2073
869.3851	-0.2476
869.5473	0.1654
869.7094	0.4291
869.8715	-0
870.0336	-1.1265
870.1957	-0.2254
870.3577	-1.3892
870.5197	0.2677
870.6817	-0.3186
870.8437	-0.0557
871.0057	-0
871.1676	-0
871.3295	0.1771
871.4914	-1.0052
871.6533	-0.349
871.8151	-0.5244
871.977	0.1751
872.1388	-0
872.3006	-0.0653
872.4623	-0
872.6241	0.9248
872.7858	0.3289
872.9475	-0.3606
873.1092	-0.223
873.2709	0.0762
873.4325	-0.0981
873.5941	0.1977
873.7557	-0
873.9173	-0
874.0789	0.3418
874.2404	-0
874.4019	0.1799
874.5634	0.7495
874.7249	-0.1594
874.8863	0.6853
875.0478	0.3865
875.2092	-0
875.3706	-0
875.5319	-0
875.6933	-0.0379
875.8546	-0.3518
876.0159	-0.0018
876.1772	-0.2953
876.3385	-0
876.4997	0.4038
876.6609	-0.2527
876.8221	-0.7355
876.9833	0.7822
877.1445	-0
877.3056	0.0784
877.4667	0.19
877.6278	-0
877.7889	-0.0414
877.9499	-0.6912
878.111	-0
878.272	-1.0573
878.433	1.289
878.5939	0.4129
878.7549	0.2555
878.9158	-0.0709
879.0767	0.1979
879.2376	-0
879.3984	-0
879.5593	-0.1936
879.7201	-0.0658
879.8809	-0.6065
880.0417	0.8621
880.2024	-0
880.3632	-0
880.5239	0.6335
880.6846	0.6834
880.8452	-2.5849
881.0059	-0.7709
881.1665	-0
881.3271	-0.3726
881.4877	-0.5848
881.6483	0.1612
881.8088	-0.0737
881.9693	0.737
882.1298	0.737
882.2903	0.737
