Data from MonoPyChalIsomerACN10uM380nmA_Absorbance_13-38-29-649.txt Node
Date: Fri Jul 05 13:38:29 BST 2024
User: LASERRRRR
Spectrometer: FLMT03099
Trigger mode: 0
Integration Time (sec): 1.000000E-1
Scans to average: 1
Electric dark correction enabled: true
Nonlinearity correction enabled: false
Boxcar width: 0
XAxis mode: Wavelengths
Number of Pixels in Spectrum: 3648
>>>>>Begin Spectral Data<<<<<
179.3399	-0.301
179.5586	-0.301
179.7771	-0.301
179.9957	-0.1451
180.2143	1.2844
180.4329	0.2759
180.6514	-0
180.8699	-0
181.0885	0.3084
181.307	-0.0012
181.5255	-0
181.744	-0.5012
181.9625	-0
182.181	-0.7186
182.3994	0.4422
182.6179	-0
182.8363	0.0021
183.0547	-0.1514
183.2732	-0.0742
183.4916	0.2114
183.71	-0.0344
183.9284	0.0799
184.1467	0.1024
184.3651	0.1005
184.5835	-0.101
184.8018	0.4613
185.0201	0.1843
185.2385	-0.0444
185.4568	0.3589
185.6751	0.0883
185.8934	0.5459
186.1117	-0.0433
186.3299	0.0067
186.5482	0.0513
186.7664	0.0187
186.9847	-0.1055
187.2029	0.0127
187.4211	-0.0427
187.6393	0.1341
187.8575	0.4438
188.0757	0.2455
188.2939	-0.0188
188.512	0.015
188.7302	0.1043
188.9483	0.3813
189.1665	0.0411
189.3846	-0.1416
189.6027	0.2298
189.8208	0.4296
190.0389	0.2083
190.257	0.0465
190.475	-0.0071
190.6931	0.293
190.9111	0.2996
191.1292	0.1297
191.3472	0.3413
191.5652	0.341
191.7832	0.2452
192.0012	0.8238
192.2192	0.3629
192.4371	0.64
192.6551	0.3667
192.873	0.379
193.091	0.2832
193.3089	0.8405
193.5268	0.4348
193.7447	0.4542
193.9626	0.4873
194.1805	0.6855
194.3984	0.8649
194.6162	0.399
194.8341	0.5539
195.0519	0.7085
195.2697	1.1455
195.4875	0.5925
195.7054	0.8253
195.9231	0.8058
196.1409	0.7962
196.3587	0.6707
196.5765	0.5565
196.7942	0.6131
197.012	0.6037
197.2297	0.6792
197.4474	1.3866
197.6651	0.7375
197.8828	0.7495
198.1005	0.7978
198.3182	0.7105
198.5358	1.0081
198.7535	0.6729
198.9711	0.7742
199.1888	0.8918
199.4064	1.4279
199.624	0.7775
199.8416	0.7913
200.0592	0.8421
200.2767	0.9965
200.4943	0.8729
200.7119	0.8803
200.9294	0.9073
201.1469	0.8274
201.3645	0.7948
201.582	0.7206
201.7995	0.8054
202.017	0.7483
202.2344	0.8243
202.4519	0.9097
202.6694	0.8655
202.8868	0.9416
203.1042	1.0072
203.3217	1.0439
203.5391	1.0302
203.7565	0.821
203.9739	0.7415
204.1913	0.7002
204.4086	0.8781
204.626	0.8511
204.8433	0.7463
205.0607	0.6922
205.278	0.924
205.4953	0.732
205.7126	0.786
205.9299	1.2476
206.1472	0.8261
206.3644	0.861
206.5817	0.7744
206.7989	0.8755
207.0162	0.7311
207.2334	0.8617
207.4506	0.7801
207.6678	0.7003
207.885	0.7639
208.1022	0.9265
208.3194	0.7667
208.5365	0.8347
208.7537	0.773
208.9708	0.6978
209.1879	0.7267
209.405	0.7812
209.6222	0.883
209.8392	0.8732
210.0563	0.7876
210.2734	0.8396
210.4905	1.0157
210.7075	0.9138
210.9245	0.7687
211.1416	1.0746
211.3586	0.8387
211.5756	0.8308
211.7926	0.7678
212.0096	0.7937
212.2265	0.7472
212.4435	0.799
212.6604	0.8853
212.8774	0.8899
213.0943	0.8696
213.3112	0.7175
213.5281	0.7456
213.745	0.747
213.9619	0.7494
214.1788	0.6853
214.3956	0.6929
214.6125	0.6783
214.8293	0.6237
215.0461	0.736
215.2629	0.6908
215.4798	0.6819
215.6965	0.6265
215.9133	0.7117
216.1301	0.6223
216.3469	0.6496
216.5636	0.6757
216.7803	0.6179
216.9971	0.6374
217.2138	0.6279
217.4305	0.6132
217.6472	0.6203
217.8639	0.6783
218.0805	0.6413
218.2972	0.5651
218.5138	0.5984
218.7305	0.5884
218.9471	0.5705
219.1637	0.557
219.3803	0.5658
219.5969	0.5339
219.8135	0.504
220.0301	0.5518
220.2466	0.5477
220.4632	0.5277
220.6797	0.5318
220.8962	0.505
221.1127	0.5099
221.3292	0.5361
221.5457	0.5132
221.7622	0.4852
221.9787	0.5452
222.1951	0.5021
222.4116	0.5362
222.628	0.5215
222.8444	0.5315
223.0608	0.4983
223.2772	0.5157
223.4936	0.5476
223.71	0.4964
223.9264	0.5575
224.1427	0.5031
224.3591	0.5226
224.5754	0.5448
224.7917	0.5185
225.008	0.5538
225.2243	0.5249
225.4406	0.5536
225.6569	0.5571
225.8732	0.552
226.0894	0.5388
226.3057	0.5512
226.5219	0.5627
226.7381	0.5452
226.9543	0.5245
227.1705	0.5744
227.3867	0.5242
227.6029	0.5486
227.8191	0.5486
228.0352	0.5348
228.2513	0.5588
228.4675	0.5918
228.6836	0.5429
228.8997	0.5298
229.1158	0.5905
229.3319	0.5461
229.548	0.5663
229.764	0.561
229.9801	0.5941
230.1961	0.5465
230.4121	0.5594
230.6282	0.5605
230.8442	0.5353
231.0602	0.5706
231.2761	0.578
231.4921	0.5368
231.7081	0.5813
231.924	0.56
232.14	0.5664
232.3559	0.5338
232.5718	0.5582
232.7877	0.5593
233.0036	0.5427
233.2195	0.5552
233.4353	0.5503
233.6512	0.5559
233.867	0.5324
234.0829	0.5415
234.2987	0.5505
234.5145	0.5421
234.7303	0.5478
234.9461	0.5721
235.1619	0.5505
235.3776	0.5592
235.5934	0.5588
235.8091	0.5632
236.0249	0.5342
236.2406	0.5599
236.4563	0.5468
236.672	0.5752
236.8877	0.5676
237.1034	0.5592
237.319	0.5402
237.5347	0.561
237.7503	0.534
237.966	0.5264
238.1816	0.5555
238.3972	0.5278
238.6128	0.5571
238.8284	0.5555
239.0439	0.5601
239.2595	0.5285
239.475	0.5559
239.6906	0.5458
239.9061	0.5275
240.1216	0.5096
240.3371	0.5194
240.5526	0.5069
240.7681	0.5343
240.9836	0.4919
241.199	0.5098
241.4145	0.4894
241.6299	0.4878
241.8453	0.4696
242.0607	0.4776
242.2761	0.4414
242.4915	0.4573
242.7069	0.4456
242.9223	0.4426
243.1376	0.4361
243.353	0.4181
243.5683	0.4373
243.7836	0.4321
243.9989	0.4215
244.2142	0.3801
244.4295	0.3997
244.6448	0.3744
244.86	0.3643
245.0753	0.3708
245.2905	0.3404
245.5057	0.3404
245.721	0.3433
245.9362	0.3265
246.1514	0.337
246.3665	0.3306
246.5817	0.3165
246.7969	0.298
247.012	0.3097
247.2271	0.3008
247.4423	0.3016
247.6574	0.3061
247.8725	0.2955
248.0876	0.2778
248.3026	0.2918
248.5177	0.2813
248.7328	0.2612
248.9478	0.2578
249.1628	0.2641
249.3779	0.2713
249.5929	0.2577
249.8079	0.2592
250.0228	0.2531
250.2378	0.2509
250.4528	0.2553
250.6677	0.2183
250.8827	0.2395
251.0976	0.224
251.3125	0.2281
251.5274	0.2191
251.7423	0.2292
251.9572	0.2175
252.172	0.2214
252.3869	0.2124
252.6017	0.2148
252.8166	0.2012
253.0314	0.203
253.2462	0.209
253.461	0.2093
253.6758	0.1973
253.8906	0.2112
254.1053	0.2126
254.3201	0.1926
254.5348	0.2044
254.7496	0.2047
254.9643	0.1885
255.179	0.2018
255.3937	0.2004
255.6083	0.192
255.823	0.2021
256.0377	0.193
256.2523	0.2014
256.467	0.1739
256.6816	0.2022
256.8962	0.1968
257.1108	0.1843
257.3254	0.2036
257.54	0.1913
257.7545	0.1858
257.9691	0.1964
258.1836	0.1838
258.3981	0.1941
258.6127	0.2047
258.8272	0.1838
259.0417	0.1825
259.2561	0.1761
259.4706	0.1938
259.6851	0.1846
259.8995	0.1784
260.114	0.1764
260.3284	0.1834
260.5428	0.1659
260.7572	0.1854
260.9716	0.1901
261.186	0.1779
261.4003	0.1832
261.6147	0.2046
261.829	0.2003
262.0433	0.1838
262.2577	0.1787
262.472	0.1931
262.6863	0.1831
262.9005	0.1782
263.1148	0.1842
263.3291	0.1657
263.5433	0.1811
263.7576	0.1905
263.9718	0.1685
264.186	0.1915
264.4002	0.1769
264.6144	0.1816
264.8286	0.1893
265.0427	0.1853
265.2569	0.179
265.471	0.1793
265.6851	0.1764
265.8993	0.1665
266.1134	0.1749
266.3275	0.1813
266.5415	0.1716
266.7556	0.1865
266.9697	0.1851
267.1837	0.1882
267.3978	0.1901
267.6118	0.186
267.8258	0.2035
268.0398	0.1748
268.2538	0.1878
268.4677	0.1781
268.6817	0.1713
268.8957	0.1886
269.1096	0.1884
269.3235	0.1839
269.5374	0.1724
269.7514	0.1722
269.9652	0.1718
270.1791	0.1718
270.393	0.1671
270.6068	0.1767
270.8207	0.1501
271.0345	0.1651
271.2483	0.1672
271.4622	0.1567
271.676	0.1703
271.8897	0.1674
272.1035	0.1621
272.3173	0.1667
272.531	0.1657
272.7448	0.1664
272.9585	0.1539
273.1722	0.1649
273.3859	0.1649
273.5996	0.1495
273.8133	0.1594
274.0269	0.1568
274.2406	0.162
274.4542	0.1631
274.6679	0.1473
274.8815	0.1655
275.0951	0.1748
275.3087	0.1646
275.5223	0.1678
275.7358	0.1684
275.9494	0.1563
276.1629	0.1603
276.3765	0.1603
276.59	0.1728
276.8035	0.1686
277.017	0.1634
277.2305	0.1466
277.444	0.1633
277.6574	0.1598
277.8709	0.1582
278.0843	0.1602
278.2978	0.1634
278.5112	0.1585
278.7246	0.1607
278.938	0.166
279.1513	0.1717
279.3647	0.1822
279.5781	0.1646
279.7914	0.1716
280.0047	0.1674
280.2181	0.162
280.4314	0.1781
280.6447	0.1742
280.8579	0.1645
281.0712	0.1706
281.2845	0.172
281.4977	0.1746
281.711	0.1718
281.9242	0.1703
282.1374	0.1732
282.3506	0.1701
282.5638	0.167
282.7769	0.171
282.9901	0.1646
283.2033	0.1825
283.4164	0.1759
283.6295	0.1572
283.8426	0.1676
284.0557	0.1653
284.2688	0.1858
284.4819	0.1741
284.695	0.1717
284.908	0.1821
285.1211	0.1572
285.3341	0.1699
285.5471	0.1888
285.7601	0.1787
285.9731	0.1735
286.1861	0.1661
286.3991	0.1756
286.612	0.18
286.825	0.1715
287.0379	0.1917
287.2508	0.1799
287.4637	0.1876
287.6766	0.1696
287.8895	0.1824
288.1024	0.1995
288.3152	0.1919
288.5281	0.1692
288.7409	0.1802
288.9538	0.1788
289.1666	0.1825
289.3794	0.1865
289.5922	0.1792
289.8049	0.183
290.0177	0.1852
290.2304	0.1838
290.4432	0.1859
290.6559	0.1786
290.8686	0.1807
291.0813	0.1781
291.294	0.1878
291.5067	0.1941
291.7194	0.1759
291.932	0.1945
292.1447	0.1759
292.3573	0.1773
292.5699	0.1838
292.7825	0.184
292.9951	0.1862
293.2077	0.1842
293.4203	0.1767
293.6328	0.1748
293.8454	0.1764
294.0579	0.1734
294.2704	0.1812
294.4829	0.1742
294.6954	0.1787
294.9079	0.1749
295.1204	0.1841
295.3328	0.1578
295.5453	0.1799
295.7577	0.1848
295.9701	0.1713
296.1825	0.1846
296.3949	0.1692
296.6073	0.1744
296.8197	0.1724
297.0321	0.1829
297.2444	0.1768
297.4567	0.1789
297.6691	0.1729
297.8814	0.1705
298.0937	0.1698
298.306	0.1876
298.5182	0.1821
298.7305	0.1785
298.9428	0.1641
299.155	0.1799
299.3672	0.1718
299.5794	0.1634
299.7916	0.1637
300.0038	0.1823
300.216	0.1766
300.4282	0.1788
300.6403	0.1734
300.8525	0.1814
301.0646	0.1718
301.2767	0.1692
301.4888	0.1717
301.7009	0.1783
301.913	0.1629
302.125	0.1735
302.3371	0.1691
302.5491	0.177
302.7612	0.1803
302.9732	0.1713
303.1852	0.1803
303.3972	0.178
303.6092	0.161
303.8211	0.1704
304.0331	0.1665
304.245	0.1594
304.457	0.1534
304.6689	0.1673
304.8808	0.1793
305.0927	0.1653
305.3046	0.1646
305.5164	0.1695
305.7283	0.1546
305.9401	0.1583
306.152	0.1566
306.3638	0.1547
306.5756	0.156
306.7874	0.1625
306.9992	0.1585
307.2109	0.1504
307.4227	0.1332
307.6344	0.1472
307.8462	0.1385
308.0579	0.1475
308.2696	0.1419
308.4813	0.1344
308.693	0.1355
308.9046	0.141
309.1163	0.1277
309.328	0.1336
309.5396	0.1291
309.7512	0.1299
309.9628	0.1314
310.1744	0.1216
310.386	0.1245
310.5976	0.1206
310.8091	0.1333
311.0207	0.1182
311.2322	0.1279
311.4437	0.1168
311.6552	0.1138
311.8667	0.127
312.0782	0.1034
312.2897	0.1082
312.5012	0.1138
312.7126	0.1069
312.924	0.1074
313.1355	0.1191
313.3469	0.1118
313.5583	0.1151
313.7696	0.1089
313.981	0.1041
314.1924	0.0869
314.4037	0.1082
314.6151	0.1181
314.8264	0.0973
315.0377	0.0971
315.249	0.1049
315.4603	0.1187
315.6716	0.1022
315.8828	0.104
316.0941	0.1033
316.3053	0.0902
316.5165	0.0852
316.7277	0.081
316.9389	0.1108
317.1501	0.1003
317.3613	0.1107
317.5724	0.0809
317.7836	0.0967
317.9947	0.0925
318.2058	0.1025
318.417	0.0875
318.6281	0.0802
318.8391	0.1002
319.0502	0.1019
319.2613	0.0951
319.4723	0.1045
319.6834	0.105
319.8944	0.0936
320.1054	0.0997
320.3164	0.1049
320.5274	0.0889
320.7383	0.0842
320.9493	0.0974
321.1602	0.1095
321.3712	0.0827
321.5821	0.0941
321.793	0.0959
322.0039	0.0867
322.2148	0.1049
322.4257	0.1092
322.6365	0.109
322.8474	0.1081
323.0582	0.098
323.269	0.0951
323.4798	0.1061
323.6906	0.0966
323.9014	0.0994
324.1122	0.1016
324.3229	0.0944
324.5337	0.0977
324.7444	0.0861
324.9551	0.1091
325.1658	0.1028
325.3765	0.1002
325.5872	0.0957
325.7979	0.1056
326.0085	0.1072
326.2192	0.1072
326.4298	0.1019
326.6404	0.0876
326.851	0.0941
327.0616	0.0871
327.2722	0.1058
327.4828	0.1093
327.6933	0.1021
327.9039	0.1012
328.1144	0.1091
328.3249	0.1151
328.5354	0.087
328.7459	0.0941
328.9564	0.0991
329.1669	0.1058
329.3773	0.1053
329.5878	0.1092
329.7982	0.1008
330.0086	0.0987
330.219	0.1205
330.4294	0.1066
330.6398	0.1046
330.8502	0.1022
331.0605	0.1085
331.2708	0.1031
331.4812	0.1017
331.6915	0.1028
331.9018	0.1038
332.1121	0.0925
332.3224	0.1077
332.5326	0.1066
332.7429	0.1
332.9531	0.1093
333.1633	0.1113
333.3735	0.11
333.5837	0.1054
333.7939	0.1016
334.0041	0.1253
334.2143	0.1081
334.4244	0.1049
334.6346	0.0889
334.8447	0.1181
335.0548	0.1111
335.2649	0.0997
335.475	0.1123
335.685	0.1059
335.8951	0.1105
336.1051	0.1096
336.3152	0.108
336.5252	0.0975
336.7352	0.1116
336.9452	0.1168
337.1552	0.1069
337.3652	0.1086
337.5751	0.1127
337.7851	0.1183
337.995	0.0981
338.2049	0.1125
338.4148	0.1139
338.6247	0.1115
338.8346	0.1107
339.0445	0.0984
339.2543	0.1092
339.4642	0.1047
339.674	0.105
339.8838	0.1078
340.0936	0.108
340.3034	0.1235
340.5132	0.1201
340.7229	0.1143
340.9327	0.1086
341.1424	0.1119
341.3522	0.1306
341.5619	0.1338
341.7716	0.1185
341.9813	0.1124
342.1909	0.1145
342.4006	0.1173
342.6102	0.1226
342.8199	0.1287
343.0295	0.1313
343.2391	0.1215
343.4487	0.1149
343.6583	0.1106
343.8679	0.1165
344.0774	0.1174
344.287	0.1263
344.4965	0.1128
344.706	0.1186
344.9155	0.1188
345.125	0.1131
345.3345	0.1194
345.544	0.1198
345.7534	0.1252
345.9629	0.1258
346.1723	0.1308
346.3817	0.1127
346.5911	0.1321
346.8005	0.1393
347.0099	0.1341
347.2193	0.1328
347.4286	0.1225
347.638	0.1341
347.8473	0.1313
348.0566	0.131
348.2659	0.1425
348.4752	0.1265
348.6845	0.1221
348.8937	0.1409
349.103	0.1368
349.3122	0.1237
349.5214	0.1338
349.7306	0.1395
349.9398	0.1424
350.149	0.1249
350.3582	0.1361
350.5674	0.1489
350.7765	0.1468
350.9856	0.1323
351.1948	0.1477
351.4039	0.1317
351.613	0.131
351.822	0.1505
352.0311	0.1467
352.2402	0.1506
352.4492	0.144
352.6582	0.148
352.8672	0.1461
353.0762	0.1373
353.2852	0.1408
353.4942	0.1281
353.7032	0.1515
353.9121	0.1419
354.1211	0.1656
354.33	0.1515
354.5389	0.1525
354.7478	0.1481
354.9567	0.1495
355.1655	0.1312
355.3744	0.1406
355.5833	0.1561
355.7921	0.1646
356.0009	0.1531
356.2097	0.1607
356.4185	0.1529
356.6273	0.165
356.8361	0.1649
357.0448	0.1503
357.2536	0.1474
357.4623	0.1547
357.671	0.1692
357.8797	0.1699
358.0884	0.1716
358.2971	0.1749
358.5057	0.1568
358.7144	0.1759
358.923	0.1745
359.1316	0.162
359.3402	0.1642
359.5488	0.1732
359.7574	0.1556
359.966	0.1699
360.1746	0.1626
360.3831	0.1652
360.5916	0.1678
360.8002	0.1532
361.0087	0.1908
361.2172	0.1747
361.4256	0.1882
361.6341	0.1906
361.8426	0.1935
362.051	0.1809
362.2594	0.1818
362.4678	0.1934
362.6762	0.2124
362.8846	0.2044
363.093	0.1783
363.3014	0.2037
363.5097	0.1705
363.718	0.1914
363.9264	0.1786
364.1347	0.1848
364.343	0.1958
364.5513	0.2001
364.7595	0.2128
364.9678	0.1949
365.176	0.1844
365.3842	0.2025
365.5925	0.1927
365.8007	0.1944
366.0089	0.1833
366.217	0.1957
366.4252	0.2039
366.6333	0.2138
366.8415	0.1971
367.0496	0.1956
367.2577	0.2201
367.4658	0.2003
367.6739	0.2078
367.882	0.2305
368.09	0.1971
368.2981	0.2093
368.5061	0.1928
368.7141	0.2123
368.9221	0.223
369.1301	0.2322
369.3381	0.2127
369.5461	0.2089
369.754	0.219
369.962	0.2254
370.1699	0.2163
370.3778	0.2248
370.5857	0.2193
370.7936	0.2108
371.0015	0.2128
371.2093	0.2186
371.4172	0.2252
371.625	0.2139
371.8328	0.2114
372.0406	0.2171
372.2484	0.2255
372.4562	0.2296
372.664	0.2311
372.8717	0.2318
373.0795	0.2039
373.2872	0.2252
373.4949	0.2203
373.7026	0.237
373.9103	0.2306
374.118	0.2242
374.3256	0.2184
374.5333	0.2277
374.7409	0.2305
374.9485	0.2612
375.1561	0.224
375.3637	0.2348
375.5713	0.2497
375.7789	0.2361
375.9864	0.235
376.194	0.2388
376.4015	0.2535
376.609	0.2518
376.8165	0.2403
377.024	0.2325
377.2315	0.2254
377.4389	0.2403
377.6464	0.249
377.8538	0.2461
378.0612	0.2477
378.2686	0.2478
378.476	0.256
378.6834	0.2579
378.8908	0.2447
379.0981	0.2465
379.3055	0.2499
379.5128	0.2456
379.7201	0.2491
379.9274	0.2483
380.1347	0.2577
380.342	0.264
380.5492	0.2477
380.7565	0.2452
380.9637	0.2484
381.1709	0.2559
381.3781	0.2585
381.5853	0.2697
381.7925	0.2594
381.9997	0.2573
382.2068	0.268
382.4139	0.261
382.6211	0.2508
382.8282	0.258
383.0353	0.2682
383.2424	0.2698
383.4494	0.2612
383.6565	0.2547
383.8635	0.27
384.0706	0.2631
384.2776	0.2542
384.4846	0.2509
384.6916	0.253
384.8986	0.2475
385.1055	0.248
385.3125	0.2689
385.5194	0.2275
385.7263	0.2713
385.9333	0.2658
386.1402	0.2733
386.347	0.2817
386.5539	0.2468
386.7608	0.2618
386.9676	0.2547
387.1744	0.2681
387.3813	0.2523
387.5881	0.2556
387.7948	0.2522
388.0016	0.2521
388.2084	0.2514
388.4151	0.2481
388.6219	0.2638
388.8286	0.2686
389.0353	0.2631
389.242	0.2658
389.4487	0.2443
389.6553	0.2334
389.862	0.223
390.0686	0.2494
390.2753	0.2563
390.4819	0.2424
390.6885	0.2634
390.8951	0.23
391.1016	0.251
391.3082	0.2513
391.5147	0.2495
391.7213	0.2411
391.9278	0.2528
392.1343	0.2461
392.3408	0.2393
392.5473	0.2313
392.7537	0.247
392.9602	0.2287
393.1666	0.2323
393.373	0.2261
393.5794	0.2602
393.7858	0.2437
393.9922	0.2327
394.1986	0.2503
394.4049	0.2442
394.6113	0.2396
394.8176	0.219
395.0239	0.2382
395.2302	0.2267
395.4365	0.2291
395.6428	0.2216
395.8491	0.2271
396.0553	0.2242
396.2615	0.2279
396.4678	0.2176
396.674	0.2242
396.8802	0.2366
397.0863	0.2502
397.2925	0.2153
397.4987	0.2246
397.7048	0.226
397.9109	0.2272
398.117	0.21
398.3231	0.2232
398.5292	0.2202
398.7353	0.2271
398.9413	0.2181
399.1474	0.2146
399.3534	0.2168
399.5594	0.208
399.7654	0.2338
399.9714	0.2336
400.1774	0.2373
400.3833	0.2213
400.5893	0.2178
400.7952	0.2265
401.0011	0.2289
401.207	0.2398
401.4129	0.2201
401.6188	0.2212
401.8247	0.2138
402.0305	0.2158
402.2364	0.2326
402.4422	0.2303
402.648	0.2286
402.8538	0.2244
403.0596	0.2208
403.2654	0.2283
403.4711	0.2253
403.6768	0.2302
403.8826	0.2115
404.0883	0.2303
404.294	0.2208
404.4997	0.2267
404.7054	0.2145
404.911	0.2292
405.1167	0.2165
405.3223	0.2415
405.5279	0.2263
405.7335	0.2416
405.9391	0.2195
406.1447	0.2141
406.3502	0.2365
406.5558	0.2137
406.7613	0.2265
406.9668	0.2188
407.1724	0.2129
407.3778	0.2119
407.5833	0.2162
407.7888	0.2112
407.9942	0.2397
408.1997	0.2268
408.4051	0.2078
408.6105	0.2158
408.8159	0.2115
409.0213	0.2154
409.2267	0.213
409.432	0.2074
409.6374	0.2228
409.8427	0.2014
410.048	0.2108
410.2533	0.2157
410.4586	0.2453
410.6639	0.2087
410.8691	0.1967
411.0744	0.2181
411.2796	0.2023
411.4848	0.2163
411.69	0.2232
411.8952	0.2488
412.1004	0.2108
412.3056	0.2143
412.5107	0.2015
412.7158	0.2285
412.921	0.2072
413.1261	0.2267
413.3312	0.2163
413.5362	0.1965
413.7413	0.2029
413.9464	0.2025
414.1514	0.2095
414.3564	0.2061
414.5614	0.199
414.7664	0.2059
414.9714	0.2114
415.1764	0.2134
415.3813	0.2393
415.5863	0.2141
415.7912	0.204
415.9961	0.2062
416.201	0.2344
416.4059	0.2351
416.6108	0.1999
416.8156	0.216
417.0205	0.2181
417.2253	0.2018
417.4301	0.2015
417.6349	0.2047
417.8397	0.1879
418.0445	0.2124
418.2492	0.2075
418.454	0.2214
418.6587	0.203
418.8634	0.2265
419.0681	0.1916
419.2728	0.2005
419.4775	0.1982
419.6822	0.1793
419.8868	0.1891
420.0915	0.1942
420.2961	0.1929
420.5007	0.183
420.7053	0.2021
420.9099	0.2038
421.1144	0.2051
421.319	0.1925
421.5235	0.2101
421.728	0.1948
421.9325	0.19
422.137	0.2027
422.3415	0.1775
422.546	0.211
422.7504	0.1974
422.9549	0.2056
423.1593	0.1834
423.3637	0.2094
423.5681	0.1853
423.7725	0.1828
423.9769	0.1791
424.1812	0.1929
424.3856	0.175
424.5899	0.1842
424.7942	0.1763
424.9985	0.1889
425.2028	0.1826
425.4071	0.1839
425.6113	0.1585
425.8156	0.1736
426.0198	0.1967
426.224	0.1642
426.4282	0.1855
426.6324	0.1648
426.8366	0.1663
427.0407	0.1665
427.2449	0.1558
427.449	0.1747
427.6531	0.1575
427.8572	0.1818
428.0613	0.1655
428.2654	0.1513
428.4694	0.1611
428.6735	0.1672
428.8775	0.1672
429.0815	0.1581
429.2855	0.1481
429.4895	0.1569
429.6935	0.1545
429.8975	0.1585
430.1014	0.1445
430.3053	0.1346
430.5093	0.1369
430.7132	0.1384
430.9171	0.1383
431.1209	0.1449
431.3248	0.1383
431.5286	0.1539
431.7325	0.1529
431.9363	0.1327
432.1401	0.1289
432.3439	0.1506
432.5477	0.1183
432.7514	0.1393
432.9552	0.1373
433.1589	0.1302
433.3627	0.1279
433.5664	0.1144
433.7701	0.1183
433.9737	0.116
434.1774	0.1156
434.3811	0.1144
434.5847	0.1061
434.7883	0.1304
434.9919	0.1156
435.1955	0.1164
435.3991	0.1019
435.6027	0.1335
435.8062	0.1061
436.0098	0.1045
436.2133	0.1121
436.4168	0.1082
436.6203	0.1067
436.8238	0.1098
437.0272	0.1041
437.2307	0.0922
437.4341	0.0982
437.6375	0.1033
437.841	0.098
438.0443	0.1148
438.2477	0.093
438.4511	0.0854
438.6545	0.0998
438.8578	0.102
439.0611	0.0914
439.2644	0.0788
439.4677	0.0816
439.671	0.0692
439.8743	0.0945
440.0775	0.0955
440.2808	0.0778
440.484	0.0671
440.6872	0.0539
440.8904	0.0674
441.0936	0.0726
441.2967	0.0878
441.4999	0.0645
441.703	0.0606
441.9062	0.0652
442.1093	0.0676
442.3124	0.0734
442.5155	0.0593
442.7185	0.0726
442.9216	0.0396
443.1246	0.071
443.3276	0.0562
443.5307	0.0666
443.7337	0.0627
443.9366	0.0659
444.1396	0.0663
444.3426	0.0402
444.5455	0.0513
444.7484	0.0498
444.9513	0.0467
445.1542	0.0526
445.3571	0.0431
445.56	0.0642
445.7628	0.0434
445.9657	0.0548
446.1685	0.0571
446.3713	0.0444
446.5741	0.0485
446.7769	0.034
446.9797	0.0449
447.1824	0.0453
447.3852	0.0375
447.5879	0.038
447.7906	0.0487
447.9933	0.0374
448.196	0.027
448.3986	0.04
448.6013	0.0315
448.8039	0.0068
449.0066	0.019
449.2092	0.0418
449.4118	0.0409
449.6143	0.034
449.8169	0.0441
450.0195	0.0161
450.222	0.0176
450.4245	0.0221
450.627	0.0273
450.8295	0.0332
451.032	0.0225
451.2345	0.0184
451.4369	0.0232
451.6394	0.025
451.8418	0.0053
452.0442	0.0098
452.2466	0.02
452.449	0.0041
452.6513	0.0213
452.8537	0.0153
453.056	0.0047
453.2583	0.0183
453.4607	0.0149
453.663	0.0158
453.8652	0.0231
454.0675	0.0026
454.2697	0.022
454.472	-0.0031
454.6742	0.019
454.8764	0.0097
455.0786	0.007
455.2808	0.0154
455.4829	0.0069
455.6851	0.0231
455.8872	0.0228
456.0893	0.0213
456.2915	-0.0022
456.4935	0.0289
456.6956	0.0042
456.8977	0.0176
457.0997	0.0019
457.3018	-0.0014
457.5038	0.0123
457.7058	0.0128
457.9078	0.0021
458.1098	0.0126
458.3117	0.0045
458.5137	0.0072
458.7156	0.0176
458.9175	-0.0076
459.1194	0.0037
459.3213	0.0052
459.5232	0.0013
459.725	-0.0161
459.9269	-0.0112
460.1287	0.0016
460.3305	0.0012
460.5323	-0.0015
460.7341	0.0093
460.9359	0.0099
461.1376	-0.0068
461.3394	-0.0074
461.5411	-0.0034
461.7428	-0.0039
461.9445	0.0204
462.1462	0.0163
462.3479	-0.0039
462.5495	0.0024
462.7512	0.0075
462.9528	-0.007
463.1544	-0.0097
463.356	-0.006
463.5576	0.0063
463.7592	-0.0274
463.9607	-0.0007
464.1623	0.0021
464.3638	0.0194
464.5653	-0.0071
464.7668	0.0013
464.9683	0.0137
465.1697	0.0106
465.3712	-0.0039
465.5726	-0.0112
465.7741	0.0007
465.9755	-0.0075
466.1769	0.0057
466.3782	-0.0061
466.5796	-0.009
466.7809	0.0095
466.9823	-0.0104
467.1836	-0.0127
467.3849	-0.0099
467.5862	-0.0057
467.7875	-0.0104
467.9887	0.0024
468.19	-0.0086
468.3912	-0.0036
468.5924	-0.0028
468.7936	-0.0062
468.9948	-0.0068
469.196	-0.0122
469.3972	-0.0145
469.5983	-0
469.7994	-0.0207
470.0006	-0.0035
470.2017	-0.0124
470.4027	-0.012
470.6038	0.0045
470.8049	-0.0213
471.0059	-0.0148
471.2069	-0.0267
471.408	0.0105
471.6089	-0.0052
471.8099	-0.01
472.0109	-0.0129
472.2119	-0.0078
472.4128	-0.0299
472.6137	0.0066
472.8146	-0.019
473.0155	-0.0108
473.2164	-0.0126
473.4173	0.0023
473.6181	-0.0006
473.819	-0.0017
474.0198	-0.0076
474.2206	0.0017
474.4214	-0.0083
474.6222	0.0067
474.8229	-0.0092
475.0237	-0.0083
475.2244	-0.0077
475.4251	-0.0087
475.6258	-0.0003
475.8265	-0.0139
476.0272	0.0066
476.2278	0.0005
476.4285	-0.0109
476.6291	-0.0129
476.8297	-0.016
477.0303	-0.0055
477.2309	-0.004
477.4315	-0.0082
477.632	-0.0107
477.8326	-0.0074
478.0331	-0.0073
478.2336	0.0035
478.4341	-0.0174
478.6346	-0.0139
478.8351	-0.0076
479.0355	-0.0053
479.236	-0.0083
479.4364	-0.0157
479.6368	-0.0107
479.8372	-0.0206
480.0376	-0.0047
480.2379	-0.0283
480.4383	-0.023
480.6386	-0.0032
480.8389	-0.0168
481.0392	-0.0143
481.2395	-0.0154
481.4398	0.003
481.6401	-0.0077
481.8403	-0.0102
482.0405	-0.0091
482.2408	-0.0147
482.441	0.0122
482.6411	-0.0094
482.8413	-0.0142
483.0415	-0.0147
483.2416	-0.0118
483.4417	-0.0058
483.6419	-0.0176
483.8419	-0.0142
484.042	0.0031
484.2421	-0.013
484.4422	-0.0073
484.6422	-0.0054
484.8422	-0.0091
485.0422	-0.0161
485.2422	-0.0056
485.4422	-0.0172
485.6422	-0.0084
485.8421	-0.0061
486.042	-0.0042
486.242	-0.0153
486.4419	-0.0121
486.6417	-0.0176
486.8416	-0.0142
487.0415	-0.0119
487.2413	-0.012
487.4411	-0.006
487.641	-0.016
487.8408	-0.0057
488.0405	-0.0224
488.2403	-0.0202
488.4401	-0.0082
488.6398	-0.021
488.8395	-0.0114
489.0392	-0.0084
489.2389	-0.0207
489.4386	-0.015
489.6383	-0.0156
489.8379	0.0026
490.0376	-0.0189
490.2372	-0.0122
490.4368	-0.0193
490.6364	-0.0161
490.836	-0.0103
491.0355	-0.0134
491.2351	-0.0203
491.4346	-0.0135
491.6341	-0.0183
491.8336	-0.0133
492.0331	-0.0163
492.2326	-0.0175
492.432	-0.0063
492.6315	-0.0075
492.8309	-0.0173
493.0303	-0.0205
493.2297	-0.0103
493.4291	-0.0061
493.6284	-0.0062
493.8278	0.0006
494.0271	-0.0051
494.2264	-0.0072
494.4257	-0.0247
494.625	-0.0134
494.8243	-0.0245
495.0236	-0.0103
495.2228	-0.023
495.422	-0.0003
495.6213	-0.0012
495.8205	-0.011
496.0196	-0.0055
496.2188	-0.0061
496.418	-0.011
496.6171	-0.0172
496.8162	-0.019
497.0153	-0.0102
497.2144	-0.0155
497.4135	-0.0096
497.6126	-0.0213
497.8116	-0.0094
498.0107	0.0003
498.2097	-0.0177
498.4087	-0.0227
498.6077	-0.0035
498.8067	-0.016
499.0056	-0.0075
499.2046	-0.0146
499.4035	-0.0319
499.6024	-0.0076
499.8013	-0.0104
500.0002	-0.025
500.199	-0.0128
500.3979	-0.02
500.5967	-0.0217
500.7956	-0.0065
500.9944	-0.0136
501.1932	-0.0104
501.3919	-0.0222
501.5907	-0.0202
501.7895	-0.0038
501.9882	-0.0144
502.1869	-0.0156
502.3856	-0.0192
502.5843	-0.0171
502.783	-0.0181
502.9816	-0.0112
503.1803	-0.0173
503.3789	-0.0159
503.5775	-0.0015
503.7761	-0.0136
503.9747	-0.0026
504.1732	-0.0047
504.3718	-0.0062
504.5703	-0.0184
504.7689	-0.0196
504.9674	-0.0067
505.1658	-0.0204
505.3643	-0.0083
505.5628	-0.0174
505.7612	-0.0126
505.9597	0.005
506.1581	-0.0108
506.3565	-0.0018
506.5549	-0.0137
506.7532	-0.0178
506.9516	-0.0159
507.1499	-0.0108
507.3482	-0.0117
507.5465	-0.0114
507.7448	-0.0108
507.9431	-0.009
508.1414	-0.0084
508.3396	-0.0106
508.5379	-0.0173
508.7361	-0.0242
508.9343	-0.015
509.1325	-0.0062
509.3306	-0.002
509.5288	-0.0107
509.7269	-0.0174
509.9251	-0.0137
510.1232	-0.0206
510.3213	-0.0135
510.5193	-0.0056
510.7174	-0.025
510.9154	-0.0164
511.1135	-0.0109
511.3115	-0.0146
511.5095	-0.0174
511.7075	-0.0223
511.9055	-0.0192
512.1034	-0.0152
512.3014	-0.0156
512.4993	-0.0037
512.6972	-0.0112
512.8951	-0.0223
513.093	-0.006
513.2908	-0.0155
513.4887	-0.009
513.6865	-0.0132
513.8844	-0.0072
514.0822	-0.0099
514.2799	-0.0232
514.4777	-0.0294
514.6755	-0.0167
514.8732	-0.0241
515.0709	-0.0159
515.2687	-0.0128
515.4664	-0.0078
515.664	-0.0044
515.8617	-0.0094
516.0594	-0.0164
516.257	-0.0043
516.4546	-0.0212
516.6522	-0.0075
516.8498	-0.0091
517.0474	-0.0118
517.2449	-0.0068
517.4425	-0.0178
517.64	-0.0083
517.8375	-0.008
518.035	-0.0117
518.2325	-0.0178
518.43	-0.0168
518.6274	-0.0091
518.8249	-0.0135
519.0223	-0.0055
519.2197	-0.0129
519.4171	-0.0154
519.6145	-0.0149
519.8118	-0.0082
520.0092	-0.0094
520.2065	-0.0235
520.4038	-0.0146
520.6011	-0.0057
520.7984	-0.0222
520.9956	-0.0161
521.1929	-0.0229
521.3901	-0.0085
521.5874	-0.0052
521.7846	-0.0131
521.9818	-0.0221
522.1789	-0.0138
522.3761	-0.0081
522.5732	-0.0069
522.7704	-0.0097
522.9675	-0.0156
523.1646	-0.0221
523.3617	-0.0022
523.5587	-0.0059
523.7558	-0.0108
523.9528	-0.0177
524.1498	-0.0086
524.3468	-0.02
524.5438	-0.0113
524.7408	-0.0032
524.9378	-0.0043
525.1347	-0.0079
525.3316	-0.0041
525.5285	-0.0095
525.7254	-0.0163
525.9223	-0.0083
526.1192	-0.0136
526.316	-0.0196
526.5129	-0.0045
526.7097	-0.0015
526.9065	-0.0196
527.1033	-0.0099
527.3	-0.0029
527.4968	-0.0145
527.6935	-0.0064
527.8903	-0.0205
528.087	-0.0119
528.2837	-0.0151
528.4804	-0.0239
528.677	-0.0105
528.8737	0.001
529.0703	-0.0057
529.2669	-0.0042
529.4635	-0.0168
529.6601	-0.0085
529.8567	-0.0067
530.0532	-0.0205
530.2498	0.0017
530.4463	-0.0076
530.6428	-0.0081
530.8393	-0.0011
531.0358	-0.0109
531.2322	-0.0131
531.4287	-0.0068
531.6251	-0.017
531.8215	-0.0072
532.0179	-0.0099
532.2143	-0.0064
532.4107	-0.0122
532.607	-0.0022
532.8034	-0.0044
532.9997	-0.0084
533.196	-0.0132
533.3923	-0.0201
533.5886	-0.0071
533.7848	-0.0012
533.9811	-0.0098
534.1773	-0.0036
534.3735	-0.0051
534.5697	-0.0155
534.7659	-0.0095
534.9621	-0.0138
535.1582	-0.0108
535.3544	-0.015
535.5505	-0.0111
535.7466	-0.0106
535.9427	-0.0119
536.1387	-0.0148
536.3348	-0.0047
536.5308	-0.0032
536.7269	-0.0194
536.9229	-0.0026
537.1189	-0.0052
537.3148	-0.0048
537.5108	-0.014
537.7068	-0.0144
537.9027	0.0075
538.0986	-0.0079
538.2945	-0.0076
538.4904	-0.0073
538.6863	-0.0161
538.8821	-0.0117
539.078	-0.0082
539.2738	0.0054
539.4696	-0.0175
539.6654	-0.0021
539.8611	0.0076
540.0569	-0.0056
540.2526	-0.007
540.4484	-0.0076
540.6441	0.0048
540.8398	-0.0006
541.0355	-0.0045
541.2311	-0.0137
541.4268	-0.0154
541.6224	-0.0041
541.818	-0.0038
542.0136	-0.0155
542.2092	-0.0004
542.4048	-0.0014
542.6003	-0.0098
542.7959	-0.005
542.9914	-0.0126
543.1869	-0.0006
543.3824	-0.0072
543.5779	-0.0158
543.7734	-0.0052
543.9688	-0.0136
544.1642	-0.002
544.3596	-0.0048
544.555	-0.0038
544.7504	-0.0036
544.9458	-0.0042
545.1411	-0.0081
545.3365	-0.0055
545.5318	-0.0093
545.7271	-0.0046
545.9224	-0.0065
546.1177	-0.0062
546.3129	0.001
546.5081	-0.0063
546.7034	-0.0174
546.8986	-0.0093
547.0938	-0.0089
547.289	-0.003
547.4841	0.0001
547.6793	0.0011
547.8744	-0.0138
548.0695	-0.0026
548.2646	0.0041
548.4597	-0.0064
548.6548	-0.0031
548.8498	-0.0077
549.0448	0.0021
549.2399	0.0081
549.4349	0.0085
549.6298	-0.0023
549.8248	0.0031
550.0198	-0.0076
550.2147	-0.0043
550.4096	-0.0165
550.6045	-0.0068
550.7994	0.0041
550.9943	-0.0012
551.1892	-0.0053
551.384	-0.0071
551.5788	-0.0134
551.7737	-0.0029
551.9685	0.0001
552.1632	0.0005
552.358	-0.0089
552.5528	-0.0039
552.7475	-0.0066
552.9422	-0.0011
553.1369	0.0001
553.3316	0.005
553.5263	-0.0104
553.7209	0.0013
553.9156	-0.0028
554.1102	-0.0039
554.3048	-0.0062
554.4994	0.0092
554.694	-0.0099
554.8885	0.0019
555.0831	-0.0105
555.2776	-0.0078
555.4721	-0.005
555.6666	-0.0057
555.8611	-0.0021
556.0555	0.0009
556.25	-0.0021
556.4444	-0.0131
556.6388	-0.0102
556.8332	-0.0002
557.0276	0.0023
557.222	-0.0021
557.4163	-0.0085
557.6107	-0.0041
557.805	0.0044
557.9993	-0.0075
558.1936	-0.0006
558.3879	-0.0017
558.5821	-0.0015
558.7764	-0.0054
558.9706	0.0031
559.1648	0.0002
559.359	-0.0043
559.5532	-0.0088
559.7473	-0.0063
559.9415	0.0115
560.1356	-0.0034
560.3297	-0.0132
560.5238	-0.0067
560.7179	-0.0028
560.9119	-0.0063
561.106	-0.0078
561.3	-0.0099
561.494	0.0047
561.688	-0.0059
561.882	-0.0109
562.076	-0.0039
562.2699	-0.0016
562.4639	-0.0001
562.6578	-0.0079
562.8517	-0.0017
563.0456	-0.0059
563.2395	-0.002
563.4333	-0.0007
563.6272	0.0109
563.821	0.0005
564.0148	-0.0022
564.2086	-0.0082
564.4024	-0.0047
564.5961	-0.0078
564.7899	0.0019
564.9836	0.0009
565.1773	-0.0036
565.371	0.0129
565.5647	-0.0022
565.7584	-0.0021
565.952	-0.0054
566.1456	-0.0115
566.3393	0.0018
566.5329	-0.0054
566.7264	-0.0058
566.92	-0.0095
567.1136	0.0042
567.3071	-0.002
567.5006	-0.0032
567.6941	-0.0006
567.8876	-0.0079
568.0811	-0.0077
568.2745	0.0001
568.468	0.0023
568.6614	-0.0038
568.8548	-0.004
569.0482	-0.0047
569.2416	-0.0019
569.4349	-0.0071
569.6283	0.0014
569.8216	-0.0018
570.0149	-0.0083
570.2082	0.0086
570.4015	0.0026
570.5947	0.0066
570.788	-0.0006
570.9812	0.0025
571.1744	-0.0021
571.3676	-0.0063
571.5608	-0.0062
571.754	-0.0013
571.9471	0.0029
572.1402	0.0054
572.3333	-0.0073
572.5264	-0.0019
572.7195	-0.0042
572.9126	-0.0022
573.1057	0.0066
573.2987	-0.0069
573.4917	-0
573.6847	-0.015
573.8777	0.0078
574.0707	0.0046
574.2636	-0.003
574.4566	-0.0045
574.6495	0.004
574.8424	-0.0005
575.0353	-0.0082
575.2281	0.0056
575.421	0.0021
575.6138	-0.0009
575.8067	0.0023
575.9995	0.0047
576.1923	0.0029
576.385	0.0047
576.5778	-0.0069
576.7706	-0.0018
576.9633	-0.0023
577.156	0.0011
577.3487	0.0006
577.5414	0.0048
577.734	0.0035
577.9267	0.0043
578.1193	-0.0108
578.3119	-0.0055
578.5045	0.0023
578.6971	0.006
578.8897	0.0064
579.0822	-0.0065
579.2747	0.0033
579.4673	-0.0042
579.6598	0.0027
579.8522	0.0001
580.0447	-0.0003
580.2372	-0.0019
580.4296	0.0064
580.622	-0.0006
580.8144	-0.0009
581.0068	-0.0003
581.1992	-0.0151
581.3915	-0.0074
581.5839	-0.0054
581.7762	-0.0065
581.9685	-0.0015
582.1608	0.0056
582.353	-0.0023
582.5453	-0.0016
582.7375	-0.0008
582.9298	-0.0008
583.122	-0.0007
583.3142	0.0033
583.5063	0.0007
583.6985	-0.0041
583.8906	0.0013
584.0827	-0.0046
584.2749	0.0001
584.4669	0.0003
584.659	0.0002
584.8511	-0.0015
585.0431	0.0023
585.2352	-0.0006
585.4272	-0.0043
585.6192	0.0018
585.8111	0.0008
586.0031	0.0005
586.195	0.0007
586.387	0.0028
586.5789	-0.0013
586.7708	-0.0018
586.9627	-0.0025
587.1545	-0.0071
587.3464	0.0067
587.5382	0.0041
587.73	0.0006
587.9218	0.006
588.1136	-0.0001
588.3053	0.0013
588.4971	0.001
588.6888	-0.007
588.8805	0.0039
589.0722	0.0051
589.2639	0.0032
589.4556	-0.0039
589.6472	-0.0004
589.8389	-0.0085
590.0305	-0.009
590.2221	-0.0018
590.4137	-0.0114
590.6052	0.0011
590.7968	0.0051
590.9883	-0.0008
591.1798	0.001
591.3713	0.0028
591.5628	0.0022
591.7543	0.0083
591.9458	0.0024
592.1372	0.0067
592.3286	0.0064
592.52	0.0107
592.7114	0.0031
592.9028	0.002
593.0941	-0.0002
593.2855	0.0018
593.4768	-0.0064
593.6681	-0.0032
593.8594	-0.0043
594.0506	0.0023
594.2419	0.0081
594.4331	-0.0019
594.6244	-0.0007
594.8156	-0.0106
595.0067	-0.0025
595.1979	0.0052
595.3891	0.0014
595.5802	-0.0042
595.7713	0.0006
595.9624	0.0046
596.1535	0.0109
596.3446	-0.0003
596.5357	0.0047
596.7267	0.0031
596.9177	-0.0002
597.1087	-0.007
597.2997	-0.0059
597.4907	0.0007
597.6817	-0.0026
597.8726	-0.0001
598.0635	-0.0012
598.2544	-0.004
598.4453	-0.0015
598.6362	-0.0055
598.827	-0.0008
599.0179	0.005
599.2087	0.0026
599.3995	0.0016
599.5903	0.0066
599.7811	0.0057
599.9718	-0.0022
600.1626	-0.0034
600.3533	-0.006
600.544	-0.0001
600.7347	-0.003
600.9254	-0.0006
601.116	-0.0017
601.3067	-0.0028
601.4973	-0.0033
601.6879	0.0051
601.8785	-0.003
602.0691	0.0029
602.2596	0.0035
602.4502	0.0047
602.6407	0.0095
602.8312	-0.0002
603.0217	-0.0047
603.2122	0.0003
603.4027	-0.0056
603.5931	-0.0068
603.7835	-0.0052
603.9739	-0.0038
604.1643	0.0034
604.3547	-0.0018
604.5451	0.0003
604.7354	-0.0044
604.9257	0.0044
605.116	-0.0069
605.3063	0.0047
605.4966	0.002
605.6869	0.0061
605.8771	0.0004
606.0673	-0.0014
606.2575	0.0057
606.4477	0.0022
606.6379	0.0011
606.8281	0.0003
607.0182	-0.0037
607.2083	0.0043
607.3985	-0.0011
607.5885	0.002
607.7786	0.0059
607.9687	-0.0038
608.1587	0.0021
608.3488	0.0034
608.5388	0.0043
608.7288	0.004
608.9187	-0.0014
609.1087	-0.0046
609.2986	-0.0032
609.4886	0.0055
609.6785	0
609.8684	0.0027
610.0582	0.0058
610.2481	-0.0005
610.4379	-0.0007
610.6278	-0.0009
610.8176	0.0016
611.0074	0.002
611.1971	-0.0077
611.3869	-0.0018
611.5766	-0.0033
611.7664	0.0063
611.9561	0.0021
612.1458	0.0042
612.3354	-0.0029
612.5251	0.0019
612.7147	-0.0013
612.9044	0.0056
613.094	-0.0072
613.2836	0.0039
613.4731	-0.0003
613.6627	-0.0067
613.8522	0.0046
614.0417	-0.003
614.2313	-0.0036
614.4207	-0.009
614.6102	-0.0035
614.7997	-0.0005
614.9891	-0.0091
615.1785	-0.0068
615.3679	-0.0021
615.5573	0.009
615.7467	-0.0024
615.9361	-0.0048
616.1254	-0.0021
616.3147	-0.0037
616.504	0.0032
616.6933	-0.0021
616.8826	0.0013
617.0718	0.0064
617.2611	0.0017
617.4503	-0.0015
617.6395	0.0012
617.8287	-0.0001
618.0179	0.0033
618.207	0.017
618.3961	0.0088
618.5853	0.0017
618.7744	0.0091
618.9634	0.009
619.1525	-0.0012
619.3416	-0.0013
619.5306	0.0037
619.7196	0.0065
619.9086	0.0027
620.0976	0.008
620.2866	0.0018
620.4755	-0.001
620.6645	0.0098
620.8534	0.0018
621.0423	0.0038
621.2312	0.0106
621.42	0.0053
621.6089	-0.0051
621.7977	0.0077
621.9865	-0.0042
622.1753	0.0093
622.3641	-0.0029
622.5529	0.0078
622.7416	0.0088
622.9303	0.0022
623.1191	0.0032
623.3078	-0.0042
623.4964	-0.0006
623.6851	-0.0025
623.8737	-0.004
624.0624	0.0093
624.251	0.0002
624.4396	0.0031
624.6282	-0.0056
624.8167	0.0035
625.0053	0.0085
625.1938	0.0156
625.3823	0.0024
625.5708	0.0004
625.7593	-0.0039
625.9477	-0.0024
626.1362	-0.0037
626.3246	0.0071
626.513	0.0038
626.7014	0.0041
626.8898	0.0005
627.0781	-0.0064
627.2665	-0.007
627.4548	0.0074
627.6431	0.0076
627.8314	0.0017
628.0197	0.0045
628.2079	-0.0061
628.3962	0.0004
628.5844	0.0044
628.7726	0.0039
628.9608	0.0086
629.1489	0.007
629.3371	0.0095
629.5252	0.0027
629.7134	0.0099
629.9015	-0.0046
630.0895	0.0054
630.2776	0.004
630.4657	0.0002
630.6537	-0.0001
630.8417	0.0053
631.0297	-0.0057
631.2177	0.0036
631.4057	-0.0055
631.5936	0.0037
631.7815	-0.0048
631.9695	0.0058
632.1574	0.0069
632.3452	0.0108
632.5331	0.006
632.7209	0.0059
632.9088	0.0179
633.0966	0.0076
633.2844	-0.0039
633.4722	0.0047
633.6599	0.0078
633.8477	0.0031
634.0354	-0.0075
634.2231	-0.0035
634.4108	0.0013
634.5985	0.0069
634.7861	-0.0028
634.9738	-0.0004
635.1614	-0.0002
635.349	0.0055
635.5366	-0.0042
635.7242	-0.0021
635.9117	0.0089
636.0993	-0.0005
636.2868	0.0099
636.4743	-0.0016
636.6618	0.0144
636.8492	0.0046
637.0367	0.0059
637.2241	-0.003
637.4115	-0.0009
637.5989	0.0032
637.7863	-0.0017
637.9737	-0.0047
638.161	-0.0014
638.3484	0.0032
638.5357	0.0102
638.723	-0.0024
638.9103	-0.0068
639.0975	-0.0013
639.2848	0.0055
639.472	0.0093
639.6592	0.0087
639.8464	0.0055
640.0336	0.0069
640.2208	0.0034
640.4079	-0.0035
640.595	0.0037
640.7821	-0.0029
640.9692	-0.0089
641.1563	-0.0045
641.3434	0.0013
641.5304	-0.0026
641.7174	0.0051
641.9044	-0.0034
642.0914	0.0007
642.2784	-0.004
642.4653	0.0041
642.6523	0.0023
642.8392	0.0011
643.0261	0.0003
643.213	-0.0052
643.3999	-0.0033
643.5867	-0.0021
643.7735	-0.0015
643.9604	-0.0044
644.1472	0.0005
644.3339	0.0008
644.5207	-0.005
644.7075	-0.0037
644.8942	0.009
645.0809	0.0034
645.2676	0.0197
645.4543	0.0023
645.6409	0.002
645.8276	-0.0035
646.0142	0.0051
646.2008	-0.0007
646.3874	-0.008
646.574	-0.0005
646.7605	0.0015
646.9471	-0.0093
647.1336	-0.0011
647.3201	0.001
647.5066	-0.0017
647.6931	0.0034
647.8795	0.0021
648.0659	0.0018
648.2524	0.0054
648.4388	-0.0006
648.6252	-0.004
648.8115	-0.0024
648.9979	0.0024
649.1842	-0.0011
649.3705	-0.0031
649.5568	0.006
649.7431	0.012
649.9294	-0.0018
650.1156	0.0017
650.3018	-0.0149
650.488	0.0068
650.6742	0.0013
650.8604	-0.0032
651.0466	-0.0056
651.2327	0.0052
651.4188	-0.0039
651.6049	0.0006
651.791	-0.0009
651.9771	0.0071
652.1632	0.0009
652.3492	0.0038
652.5352	-0.0034
652.7212	-0.0086
652.9072	0.0039
653.0932	-0.0011
653.2791	-0.0081
653.465	0.0058
653.651	-0.0088
653.8369	-0.007
654.0227	-0.0026
654.2086	0.0017
654.3944	0.0035
654.5803	-0.003
654.7661	-0.002
654.9519	-0.0004
655.1377	-0.0065
655.3234	-0.0073
655.5092	-0.006
655.6949	-0.004
655.8806	0.0004
656.0663	-0.0007
656.2519	-0.0002
656.4376	-0.005
656.6232	0.0018
656.8088	-0.0008
656.9945	-0.0047
657.18	0.002
657.3656	0.0011
657.5511	0.0005
657.7367	-0.0108
657.9222	0.0048
658.1077	0.0019
658.2932	0.0053
658.4786	-0.0104
658.6641	-0.0025
658.8495	-0.0053
659.0349	-0.0058
659.2203	0.0051
659.4057	0.0085
659.591	0.0021
659.7764	0.0001
659.9617	-0.0006
660.147	-0.0017
660.3323	0.0012
660.5176	0.0014
660.7028	0.0053
660.888	0.004
661.0733	-0.0019
661.2585	-0.0097
661.4436	0.0004
661.6288	-0.0094
661.8139	-0.0046
661.9991	0.0012
662.1842	-0.0058
662.3693	-0.0067
662.5544	-0.0013
662.7394	-0.0047
662.9245	-0.0048
663.1095	-0.0039
663.2945	-0.0053
663.4795	-0.0075
663.6644	0.0052
663.8494	-0.0012
664.0343	0.0064
664.2193	-0.0079
664.4042	-0.0013
664.589	-0.0034
664.7739	0.0015
664.9587	-0.0033
665.1436	-0.0116
665.3284	0.003
665.5132	-0.0072
665.698	0.0079
665.8827	0.0068
666.0675	0.0031
666.2522	-0.0072
666.4369	0.0124
666.6216	0.008
666.8063	0.009
666.9909	-0.0044
667.1756	-0.0004
667.3602	-0.0025
667.5448	-0.0061
667.7294	0.0092
667.9139	0.0103
668.0985	0.0111
668.283	0.0015
668.4675	0.0007
668.652	0.0032
668.8365	-0.0012
669.0209	0.0042
669.2054	0.0072
669.3898	0.0059
669.5742	-0.0016
669.7586	0.0051
669.943	0.0074
670.1273	0.0044
670.3117	0.0084
670.496	0.0125
670.6803	0.0116
670.8646	0.0075
671.0488	-0.001
671.2331	0.0087
671.4173	0.0113
671.6015	0.0026
671.7857	0.0065
671.9699	0.0112
672.1541	0.0068
672.3382	0.0048
672.5223	0.0032
672.7064	0.0078
672.8905	0.01
673.0746	0.0057
673.2587	-0.0019
673.4427	0.0023
673.6267	0.0099
673.8107	0.0109
673.9947	0.0051
674.1787	0.0049
674.3626	-0.0051
674.5465	0.0039
674.7304	0.0029
674.9143	0.0041
675.0982	0.0135
675.2821	-0.0048
675.4659	0.0047
675.6497	0.0024
675.8335	-0.0045
676.0173	0.0044
676.2011	0.0013
676.3849	-0.0012
676.5686	-0.0031
676.7523	0.0053
676.936	0.0004
677.1197	-0.005
677.3034	0.0002
677.487	0.0048
677.6706	0.0037
677.8542	0.0055
678.0378	-0.0027
678.2214	0.0004
678.405	0.0024
678.5885	-0.0044
678.772	-0.0011
678.9555	0.0001
679.139	-0.0012
679.3225	-0.0022
679.5059	0.0017
679.6894	0.0057
679.8728	0.0036
680.0562	-0.0083
680.2395	-0.0057
680.4229	-0.0028
680.6062	0.006
680.7896	0.0005
680.9729	-0.0108
681.1562	0.0048
681.3394	-0.001
681.5227	-0.0093
681.7059	-0.0047
681.8891	-0.005
682.0723	-0.0032
682.2555	0.004
682.4387	-0.0038
682.6218	-0.0098
682.805	0.0025
682.9881	0.0032
683.1712	-0.0046
683.3542	0.0039
683.5373	0.0027
683.7203	-0.0032
683.9034	-0.0003
684.0864	-0.0129
684.2694	-0.007
684.4523	-0.0002
684.6353	-0.0079
684.8182	-0.0002
685.0011	-0.0065
685.184	-0.0014
685.3669	-0.0083
685.5498	-0.0001
685.7326	0.0011
685.9154	-0.0028
686.0982	0.0077
686.281	0.0074
686.4638	0.012
686.6465	0.0018
686.8293	0.004
687.012	0.0078
687.1947	-0.0085
687.3774	-0.0012
687.56	0.0009
687.7427	0.004
687.9253	-0.0061
688.1079	-0.0033
688.2905	0.0108
688.4731	-0.0049
688.6556	-0.0056
688.8382	0.0076
689.0207	0.0049
689.2032	-0.0082
689.3857	-0.0086
689.5681	-0.002
689.7506	-0.0022
689.933	-0.003
690.1154	-0.0016
690.2978	-0.0067
690.4802	0.0021
690.6626	-0.015
690.8449	-0.0075
691.0272	0.0024
691.2095	-0.0052
691.3918	0.001
691.5741	0.0027
691.7563	0.0015
691.9386	0.0074
692.1208	0.0016
692.303	0.0008
692.4852	-0
692.6673	0
692.8495	-0.0005
693.0316	0.0046
693.2137	-0.0036
693.3958	0.0074
693.5778	0.0028
693.7599	0.0095
693.9419	0.0047
694.1239	0.0029
694.3059	-0.0051
694.4879	0.0132
694.6699	0.008
694.8518	-0.0001
695.0337	0.0012
695.2157	0.0079
695.3975	0.0005
695.5794	0.0111
695.7613	0.0062
695.9431	0.0019
696.1249	0.005
696.3067	0.0015
696.4885	0.0111
696.6703	-0.0103
696.852	0.0007
697.0337	-0.0058
697.2154	-0.0035
697.3971	-0.0056
697.5788	-0.0036
697.7605	-0.0064
697.9421	0.0046
698.1237	-0.0044
698.3053	-0.004
698.4869	-0.0052
698.6685	-0.016
698.85	-0.0011
699.0315	0.0049
699.213	-0.0046
699.3945	-0.0059
699.576	0.0124
699.7575	0.0062
699.9389	0.0059
700.1203	0.0028
700.3017	-0
700.4831	0.0006
700.6645	0.0018
700.8458	0.0072
701.0271	0.0014
701.2084	0.0086
701.3897	0.0025
701.571	-0.001
701.7523	-0.0114
701.9335	0.0011
702.1147	-0.0059
702.2959	-0.0003
702.4771	0.0041
702.6583	0.0066
702.8394	-0.0031
703.0205	0.0075
703.2016	-0.0054
703.3827	0.0009
703.5638	0.0072
703.7449	0.0039
703.9259	0.0108
704.1069	0.0006
704.2879	0.001
704.4689	0.0025
704.6499	0.0048
704.8308	0.0029
705.0117	-0.0033
705.1927	0.0119
705.3735	0.0045
705.5544	0.0009
705.7353	-0.0009
705.9161	-0.0149
706.0969	-0.0091
706.2777	0.0013
706.4585	-0.0097
706.6393	0.0032
706.82	0.0025
707.0007	0.0054
707.1815	0.0072
707.3621	0.0159
707.5428	0.0043
707.7235	0.0016
707.9041	0.005
708.0847	-0.0091
708.2653	-0.0018
708.4459	-0.0027
708.6265	0.0105
708.807	0.0037
708.9875	0.002
709.168	-0.0003
709.3485	-0.0021
709.529	-0.004
709.7095	-0.0187
709.8899	0.0008
710.0703	-0.0106
710.2507	0.0003
710.4311	-0.0027
710.6115	-0.0125
710.7918	-0.0079
710.9721	-0.0023
711.1524	-0.0122
711.3327	-0.0004
711.513	0.0024
711.6932	-0.008
711.8735	0.0053
712.0537	0.005
712.2339	-0.0028
712.4141	-0.0078
712.5942	-0.0048
712.7744	-0.0053
712.9545	-0.0101
713.1346	-0.0078
713.3147	-0.005
713.4947	-0.0075
713.6748	-0.0027
713.8548	0.0017
714.0348	-0.0062
714.2148	-0.0072
714.3948	0.006
714.5748	-0.006
714.7547	-0.0025
714.9346	0.0041
715.1145	-0.0106
715.2944	-0.004
715.4743	-0.0026
715.6541	-0.0041
715.834	0.0027
716.0138	-0.0062
716.1936	-0.01
716.3733	-0.0026
716.5531	0.0037
716.7328	-0.0024
716.9126	-0.0022
717.0923	-0.0046
717.2719	-0.0038
717.4516	0.0016
717.6312	0.0008
717.8109	-0.0015
717.9905	0.0021
718.1701	-0.0023
718.3496	-0.0143
718.5292	-0.0005
718.7087	-0.003
718.8882	0.0029
719.0677	0.004
719.2472	0.0021
719.4267	-0.0018
719.6061	0.0036
719.7856	0.0021
719.965	0.0079
720.1443	-0.008
720.3237	0.0109
720.5031	-0.0006
720.6824	0.0059
720.8617	0.0002
721.041	0.004
721.2203	0.0152
721.3995	0.0099
721.5788	0.0104
721.758	0.0115
721.9372	0.0118
722.1164	-0.0049
722.2956	0.0075
722.4747	0.0035
722.6538	0.0043
722.8329	0.0199
723.012	0.0075
723.1911	0.0047
723.3702	0.0085
723.5492	-0.0053
723.7282	0.0025
723.9072	0.0008
724.0862	-0.0015
724.2652	-0.0021
724.4441	-0.0035
724.623	-0.001
724.8019	0.001
724.9808	0.0008
725.1597	-0.0178
725.3385	0.0063
725.5174	0.0006
725.6962	0.0024
725.875	0.0026
726.0538	0.0096
726.2325	0.0028
726.4112	0.0014
726.59	-0.0057
726.7687	0.0015
726.9474	0.0023
727.126	-0.0054
727.3047	-0.0069
727.4833	-0.0055
727.6619	-0.0026
727.8405	-0.0078
728.0191	-0.0076
728.1976	0.0079
728.3762	-0.0034
728.5547	0.0031
728.7332	-0.0132
728.9116	0.0018
729.0901	0.001
729.2686	-0.0047
729.447	-0.0024
729.6254	0.0019
729.8038	0.0009
729.9821	-0.0058
730.1605	-0.0048
730.3388	-0.0061
730.5171	-0.0081
730.6954	-0.0071
730.8737	0.0055
731.0519	0.0051
731.2302	-0.0028
731.4084	0.0041
731.5866	0.0082
731.7648	0.0005
731.9429	0.0027
732.1211	-0.0118
732.2992	0.001
732.4773	0.0004
732.6554	-0.0012
732.8335	0.0055
733.0115	0.0105
733.1896	0.0131
733.3676	-0.0051
733.5456	0.0075
733.7235	0.0057
733.9015	0.0038
734.0794	0.0013
734.2574	-0.0024
734.4353	0.0058
734.6131	0.0094
734.791	0.0063
734.9689	0.0082
735.1467	-0.0024
735.3245	-0.0113
735.5023	-0.0134
735.68	-0.0009
735.8578	0.0052
736.0355	-0.0213
736.2132	-0.0071
736.3909	-0.0028
736.5686	-0.0169
736.7463	0.0069
736.9239	-0.0088
737.1015	-0.0055
737.2791	0.0042
737.4567	-0.0061
737.6343	-0.0109
737.8118	0.0028
737.9894	-0.0043
738.1669	-0.0158
738.3444	-0.0102
738.5218	0.0072
738.6993	-0.0002
738.8767	0.0012
739.0541	0.0119
739.2315	-0.0105
739.4089	-0.0087
739.5863	-0.002
739.7636	-0.0073
739.9409	-0.0113
740.1182	0.0023
740.2955	-0.0021
740.4728	-0.0057
740.65	-0.0046
740.8272	-0.0002
741.0044	-0.0114
741.1816	-0.0033
741.3588	-0.0045
741.5359	-0.0021
741.7131	-0.0082
741.8902	-0.0039
742.0673	0.0001
742.2444	-0.0057
742.4214	-0.0123
742.5985	-0.0153
742.7755	-0.0113
742.9525	-0.0194
743.1295	-0.0038
743.3064	-0.0017
743.4834	0.0024
743.6603	-0.0082
743.8372	-0.0105
744.0141	0.0011
744.191	-0.0031
744.3678	-0.0052
744.5446	0.0014
744.7215	0.0019
744.8982	-0.0099
745.075	-0.012
745.2518	-0.0061
745.4285	-0.0055
745.6052	-0.0039
745.7819	-0.0005
745.9586	-0.0018
746.1353	0.0011
746.3119	0.004
746.4885	-0.0027
746.6651	0.0002
746.8417	0.0068
747.0183	-0.0042
747.1948	0.0022
747.3714	0.0025
747.5479	0.0094
747.7244	0.0068
747.9008	0.011
748.0773	0.0001
748.2537	-0.0066
748.4301	-0.0077
748.6065	0.0054
748.7829	0.0045
748.9593	-0.0042
749.1356	-0.002
749.3119	0.0081
749.4882	-0.0021
749.6645	-0.0025
749.8408	0.0015
750.017	0.0048
750.1933	0.002
750.3695	-0.0035
750.5457	0.0094
750.7218	0.0014
750.898	0.0058
751.0741	-0
751.2502	0.0046
751.4263	0.0032
751.6024	-0.001
751.7784	-0.0003
751.9545	-0.0131
752.1305	-0.0046
752.3065	-0.0078
752.4825	0.0029
752.6584	-0.0019
752.8344	-0.0075
753.0103	-0.0117
753.1862	-0.0025
753.3621	-0.0058
753.5379	-0.0033
753.7138	-0.0101
753.8896	-0.0019
754.0654	0.0018
754.2412	-0.0012
754.417	0.0019
754.5927	-0.0116
754.7685	-0.0032
754.9442	-0.0095
755.1199	0.0085
755.2956	-0.0024
755.4712	0.0073
755.6469	-0.001
755.8225	0.0034
755.9981	-0.0088
756.1736	0.0001
756.3492	0.0024
756.5248	-0.0119
756.7003	0.0002
756.8758	0.0148
757.0513	-0.014
757.2267	-0.0063
757.4022	0.0095
757.5776	-0.004
757.753	-0
757.9284	0.0085
758.1038	0.0031
758.2791	0.0055
758.4545	-0.0061
758.6298	0.0081
758.8051	0.007
758.9803	0.0071
759.1556	0.0039
759.3308	0.007
759.506	0.0161
759.6812	0.0029
759.8564	0.0054
760.0316	-0.0017
760.2067	0.0106
760.3819	0.0039
760.557	0.0204
760.732	-0.0073
760.9071	-0.0107
761.0821	0.0028
761.2572	0.0116
761.4322	-0.0072
761.6072	-0.0033
761.7821	-0.0138
761.9571	0.0002
762.132	-0.0092
762.3069	-0.0124
762.4818	-0.0039
762.6567	-0.0126
762.8316	-0.0042
763.0064	-0.0068
763.1812	0.0008
763.356	-0.0111
763.5308	0.006
763.7055	-0.0076
763.8803	0.0049
764.055	0.0004
764.2297	0.0033
764.4044	-0.0089
764.579	-0.0113
764.7537	-0.0129
764.9283	0.0021
765.1029	-0.0007
765.2775	0.0003
765.4521	-0.0034
765.6266	-0.0021
765.8011	-0.0065
765.9756	-0.0005
766.1501	0.0097
766.3246	0.0057
766.4991	0.0023
766.6735	-0.0027
766.8479	-0.0075
767.0223	-0.0057
767.1967	0.0011
767.371	0.0059
767.5454	-0.0004
767.7197	0.01
767.894	-0.0008
768.0683	-0.0087
768.2425	0.0058
768.4168	0.0074
768.591	0.0043
768.7652	0.005
768.9394	0.0006
769.1135	-0.0009
769.2877	0.0017
769.4618	-0.0084
769.6359	-0.0005
769.81	0.0008
769.984	0.0031
770.1581	-0.0062
770.3321	-0.0013
770.5061	0.0012
770.6801	-0.0013
770.8541	0.004
771.028	0.0097
771.202	-0.0086
771.3759	0.0072
771.5498	-0.0143
771.7236	0.0022
771.8975	0.0052
772.0713	0.0018
772.2451	0.0087
772.4189	0.0062
772.5927	0.0141
772.7665	0.0093
772.9402	-0.0071
773.1139	-0.0049
773.2876	-0.006
773.4613	0.0099
773.635	0.0097
773.8086	-0.0049
773.9822	-0.0017
774.1558	0.0149
774.3294	-0.0038
774.503	-0.0061
774.6765	-0.0018
774.8501	0.0092
775.0236	0.0029
775.1971	0.0024
775.3705	-0.0095
775.544	0.0037
775.7174	-0.01
775.8908	-0.0035
776.0642	-0.0059
776.2376	0.0054
776.4109	-0.0126
776.5843	-0.0038
776.7576	0.0147
776.9309	0.0063
777.1041	0.0021
777.2774	0.0078
777.4506	0.0023
777.6238	-0.0111
777.797	-0.0024
777.9702	0.0026
778.1434	-0.0037
778.3165	-0.0072
778.4896	0.0105
778.6627	0.0015
778.8358	-0.0004
779.0089	0.0039
779.1819	-0.003
779.3549	0.0114
779.5279	0.015
779.7009	0.007
779.8739	0.0031
780.0468	0.0037
780.2197	0.0047
780.3926	0.0028
780.5655	-0.0001
780.7384	-0.0028
780.9112	-0.0101
781.0841	-0.0074
781.2569	-0.0038
781.4297	0.0014
781.6024	0.0054
781.7752	0.0074
781.9479	0.0054
782.1206	0.001
782.2933	-0.0109
782.466	0.0102
782.6386	0.0138
782.8113	0.0076
782.9839	0.0054
783.1565	0.0104
783.329	0.0117
783.5016	0.0092
783.6741	0.0072
783.8466	-0.0106
784.0191	0.0228
784.1916	-0.0034
784.3641	0.0064
784.5365	0.0042
784.7089	0.0075
784.8813	-0.0008
785.0537	-0.0069
785.2261	-0.0045
785.3984	-0.0109
785.5707	0.0063
785.743	0.001
785.9153	-0.0056
786.0876	0.0027
786.2598	-0.0132
786.432	-0.0159
786.6042	0.0083
786.7764	-0.0058
786.9486	-0.0034
787.1207	-0.0042
787.2928	-0.0021
787.4649	0.0138
787.637	-0.0011
787.8091	0.0029
787.9811	-0.0091
788.1532	-0.0007
788.3252	0.004
788.4972	-0.0068
788.6691	0.0136
788.8411	0.0127
789.013	-0.0118
789.1849	0.0051
789.3568	-0.011
789.5287	-0.0018
789.7005	-0.0017
789.8723	0.0092
790.0442	0.0228
790.2159	0.0099
790.3877	0.0134
790.5595	-0.0168
790.7312	0.0038
790.9029	0.0071
791.0746	0.0017
791.2463	-0.001
791.4179	-0.0009
791.5896	-0.0011
791.7612	0.0116
791.9328	0.0025
792.1044	-0.0183
792.2759	-0.0185
792.4474	-0.003
792.619	-0.001
792.7905	0.0115
792.9619	0.0072
793.1334	0.0236
793.3048	0.0148
793.4762	0.0004
793.6476	0.0121
793.819	0.0062
793.9904	0.0093
794.1617	-0.0141
794.333	0.0066
794.5043	-0.015
794.6756	-0.0062
794.8469	-0.0005
795.0181	0.0026
795.1893	-0.0087
795.3605	0.0203
795.5317	-0.0002
795.7029	-0.0005
795.874	0.0029
796.0452	0.0059
796.2163	-0.0025
796.3873	0.0084
796.5584	0.0163
796.7294	0.0023
796.9005	0.0179
797.0715	0.0122
797.2425	-0.0142
797.4134	0.0073
797.5844	0.0063
797.7553	-0.0084
797.9262	0.002
798.0971	-0.0041
798.2679	-0.0109
798.4388	-0.0138
798.6096	0.0084
798.7804	0.0106
798.9512	-0.01
799.122	-0.0002
799.2927	0.003
799.4635	0.0261
799.6342	-0.0057
799.8049	0.0122
799.9755	0.0047
800.1462	-0.0012
800.3168	-0.0043
800.4874	-0.0016
800.658	0.0305
800.8286	0.0092
800.9991	0.0099
801.1696	0.0122
801.3402	0.006
801.5106	0.0142
801.6811	0.0043
801.8516	0.0136
802.022	0.0022
802.1924	0.0153
802.3628	0.0138
802.5332	0.0153
802.7035	0.0274
802.8739	0.0038
803.0442	0.005
803.2145	0.0091
803.3847	-0.0042
803.555	-0.0007
803.7252	0.0039
803.8954	-0.0325
804.0656	-0.0215
804.2358	0.0081
804.4059	0.0138
804.5761	0.0289
804.7462	0.0224
804.9163	0.0253
805.0864	0.0205
805.2564	0.0107
805.4264	0.0059
805.5965	0.0013
805.7665	0.0075
805.9364	0.0161
806.1064	0.0347
806.2763	0.0219
806.4462	0.0102
806.6161	0.014
806.786	0.0292
806.9559	0.005
807.1257	0.006
807.2955	0.007
807.4653	0.0043
807.6351	0.0057
807.8048	0.003
807.9746	0.0129
808.1443	0.0111
808.314	0.0072
808.4837	-0.0038
808.6533	0.0167
808.8229	0.0289
808.9926	0.0095
809.1622	0.0223
809.3317	0.0074
809.5013	0.0083
809.6708	0.0141
809.8403	0.0122
810.0098	0.0051
810.1793	0.0281
810.3488	0.0099
810.5182	-0.0112
810.6876	0.0241
810.857	0.0029
811.0264	0.0523
811.1958	0.0041
811.3651	0.0002
811.5344	0.0029
811.7037	0.001
811.873	0.0112
812.0422	0.0171
812.2115	0.0304
812.3807	0.0162
812.5499	0.0145
812.7191	0.015
812.8882	0.0065
813.0574	0.0086
813.2265	0.0223
813.3956	0.0184
813.5646	0.018
813.7337	0.004
813.9027	0.0256
814.0718	0.0464
814.2407	0.0422
814.4097	-0.0094
814.5787	-0.0191
814.7476	0.0074
814.9165	0.0176
815.0854	0.0032
815.2543	0.0164
815.4232	0.0245
815.592	0.0252
815.7608	0.0193
815.9296	0.01
816.0984	0.0106
816.2671	-0.0012
816.4359	0.0082
816.6046	0.0012
816.7733	0.0183
816.942	0.0006
817.1106	0.0162
817.2793	0.0088
817.4479	0.0064
817.6165	0.037
817.785	0.0239
817.9536	0.0042
818.1221	-0.0074
818.2906	0.0139
818.4591	-0.0036
818.6276	0.0085
818.7961	0.0117
818.9645	0.0186
819.1329	0.0211
819.3013	0.012
819.4697	0.0431
819.638	-0.0048
819.8064	0.0288
819.9747	0.0166
820.143	0.0109
820.3113	-0.0048
820.4795	0.0273
820.6477	0.0204
820.816	0.0113
820.9842	0.0028
821.1523	0.0057
821.3205	-0.0085
821.4886	0.0256
821.6567	0.0148
821.8248	0.0352
821.9929	0.0292
822.1609	0.0156
822.329	0.0061
822.497	0.0339
822.665	-0.0114
822.833	0.0007
823.0009	0.0314
823.1688	0.0323
823.3367	0.043
823.5046	0.0171
823.6725	0.0712
823.8404	-0.009
824.0082	0.0054
824.176	-0.0125
824.3438	0.0141
824.5116	-0.0149
824.6793	-0.011
824.847	0.0045
825.0147	0.0021
825.1824	0.044
825.3501	0.0169
825.5177	0.0022
825.6854	0.0104
825.853	0.0209
826.0206	0.0018
826.1881	0.0157
826.3557	0.0013
826.5232	0.0122
826.6907	-0.0068
826.8582	0.0114
827.0257	-0.0414
827.1931	-0.0143
827.3605	0.0004
827.528	0.0088
827.6953	0.0004
827.8627	0.0094
828.03	0.0268
828.1974	0.007
828.3647	-0.0319
828.532	0.0206
828.6992	0.014
828.8665	0.0028
829.0337	0.0313
829.2009	0.0336
829.3681	0.0192
829.5352	0.021
829.7024	-0.0118
829.8695	-0.0106
830.0366	0.0412
830.2037	0.017
830.3707	-0.003
830.5378	0.0349
830.7048	-0.0114
830.8718	0.012
831.0388	-0.0241
831.2057	0.0162
831.3727	0.0115
831.5396	-0.0168
831.7065	-0.0041
831.8734	0.0261
832.0402	-0.0349
832.2071	0.0062
832.3739	-0.0336
832.5407	0.0065
832.7075	0.027
832.8742	-0.0251
833.041	-0.0106
833.2077	0.0042
833.3744	0.0119
833.541	0.0357
833.7077	0.0024
833.8743	0.0227
834.0409	-0.0062
834.2075	-0.0193
834.3741	0.0067
834.5407	0.0254
834.7072	-0.0181
834.8737	-0.0106
835.0402	-0.0153
835.2067	0.0472
835.3731	0.023
835.5395	0.0222
835.706	0.0012
835.8723	-0.0008
836.0387	0.0094
836.2051	-0.0022
836.3714	-0.0082
836.5377	0.016
836.704	-0.0155
836.8703	-0.0017
837.0365	-0.018
837.2027	-0.0165
837.3689	-0.0122
837.5351	-0.0141
837.7013	-0.0391
837.8674	-0.0481
838.0335	-0.0362
838.1997	-0.033
838.3657	-0.0348
838.5318	-0.0045
838.6978	0.0382
838.8639	-0.0001
839.0299	-0.0044
839.1958	-0.0109
839.3618	-0.0044
839.5277	0.0033
839.6937	-0.0187
839.8596	0.0035
840.0254	0.0049
840.1913	0.0289
840.3571	0.0598
840.523	0.0008
840.6888	-0.0103
840.8545	-0.0414
841.0203	0.0078
841.186	0.0236
841.3517	0.0343
841.5174	0.0025
841.6831	-0.002
841.8488	-0.0288
842.0144	-0.0002
842.18	-0.0383
842.3456	0.0055
842.5112	-0.0062
842.6767	-0.0194
842.8422	0.0331
843.0077	-0.0022
843.1732	-0.0669
843.3387	0.0303
843.5042	-0.0549
843.6696	-0.0383
843.835	-0.0354
844.0004	0.0167
844.1657	0.012
844.3311	-0.0445
844.4964	-0.0257
844.6617	-0.0574
844.827	-0.0195
844.9923	0.0221
845.1575	0.0488
845.3227	0.0564
845.4879	0.0265
845.6531	-0.0851
845.8183	-0.0639
845.9834	0.0362
846.1485	-0.0327
846.3136	-0.0505
846.4787	-0.0911
846.6438	0.091
846.8088	-0.008
846.9738	-0.0661
847.1388	-0.0315
847.3038	0.0376
847.4687	0.0248
847.6337	0.0076
847.7986	-0.0431
847.9635	-0.0273
848.1284	0.0165
848.2932	0.0187
848.458	-0.0235
848.6228	0.0559
848.7876	0.0583
848.9524	-0.0003
849.1172	-0.0929
849.2819	0.0197
849.4466	-0.0549
849.6113	-0.0337
849.7759	-0.06
849.9406	0.0014
850.1052	-0.0103
850.2698	0.0093
850.4344	0.0239
850.599	-0.0909
850.7635	0.1347
850.928	-0.0439
851.0925	-0.0628
851.257	0.0252
851.4215	-0.0047
851.5859	-0.0361
851.7503	0.1291
851.9147	0.0465
852.0791	-0.0943
852.2434	-0.0453
852.4078	0.0875
852.5721	0.0079
852.7364	-0.0317
852.9007	-0.1559
853.0649	-0.0415
853.2291	0.0148
853.3934	-0.0379
853.5575	0.0124
853.7217	-0.0692
853.8859	-0.1334
854.05	0.0049
854.2141	-0.0676
854.3782	-0.0804
854.5423	-0.0518
854.7063	0.0723
854.8703	-0.0475
855.0343	-0.1108
855.1983	-0.1569
855.3623	0.0653
855.5262	-0.014
855.6901	-0.0332
855.854	0.0059
856.0179	0.0318
856.1818	0.1429
856.3456	0.0063
856.5094	-0.0595
856.6732	-0.0956
856.837	-0.0455
857.0008	0.0471
857.1645	-0.0065
857.3282	-0.0117
857.4919	0.1326
857.6556	-0.0824
857.8192	-0.026
857.9828	0.0602
858.1465	0.1465
858.31	-0.0407
858.4736	-0.0008
858.6372	-0.1423
858.8007	-0.1961
858.9642	-0.123
859.1277	-0.1725
859.2911	-0.0688
859.4546	-0.128
859.618	-0.5057
859.7814	-0.0422
859.9448	0.0851
860.1081	-0.128
860.2715	0.1066
860.4348	-0.0368
860.5981	-0.1085
860.7614	0.0285
860.9246	-0.1099
861.0879	-0.2968
861.2511	-0.0331
861.4143	-0.1939
861.5774	0.1645
861.7406	-0.0847
861.9037	0.0197
862.0668	0.0193
862.2299	-0.1518
862.393	-0.5861
862.556	0.1527
862.7191	-0.3952
862.8821	-0.2184
863.0451	-0.0326
863.208	0.0571
863.371	-0.1105
863.5339	-0.1453
863.6968	-0.1988
863.8597	-0.0551
864.0225	-0.0184
864.1854	1.5578
864.3482	0.3727
864.511	0.2945
864.6737	0.0401
864.8365	0.2418
864.9992	-0
865.1619	-0.3489
865.3246	-0.3221
865.4873	-0.0854
865.65	-0.3236
865.8126	-0.0801
865.9752	0.0568
866.1378	-0.1076
866.3004	0.4026
866.4629	0.036
866.6254	-0.3579
866.7879	-0.0959
866.9504	-0.1515
867.1129	-0
867.2753	1.6686
867.4377	0.0842
867.6001	0.2777
867.7625	-0
867.9249	-0.815
868.0872	-0.0873
868.2495	0.1396
868.4118	0.5844
868.5741	-0.0712
868.7363	-0.4957
868.8986	-0.3355
869.0608	-0.2254
869.223	0.4307
869.3851	-0
869.5473	0.5858
869.7094	0.3297
869.8715	-0.3185
870.0336	-0.9398
870.1957	-0.4451
870.3577	-0
870.5197	0.4615
870.6817	-0.5396
870.8437	-0.1321
871.0057	-0.2194
871.1676	-0.0071
871.3295	-0.569
871.4914	-0.8299
871.6533	-0.4977
871.8151	-0.6507
871.977	-0
872.1388	-0
872.3006	-0
872.4623	-0
872.6241	0.4457
872.7858	-0.0762
872.9475	-0.085
873.1092	-0
873.2709	0.3125
873.4325	-0.0806
873.5941	-0
873.7557	-0
873.9173	-0
874.0789	-0.5468
874.2404	-0
874.4019	1.1586
874.5634	-0.1852
874.7249	-0.3611
874.8863	0.0833
875.0478	0.3798
875.2092	-0
875.3706	0.432
875.5319	-1.0452
875.6933	-0.1555
875.8546	0.0437
876.0159	0.3595
876.1772	1.0339
876.3385	-0
876.4997	-0.0304
876.6609	-0.7096
876.8221	-0
876.9833	0.0969
877.1445	-0
877.3056	0.1539
877.4667	-0.4841
877.6278	-0
877.7889	-0.8849
877.9499	-0
878.111	-0.9135
878.272	-0
878.433	0.0849
878.5939	0.3864
878.7549	-0.1435
878.9158	-0.6158
879.0767	-0
879.2376	-0
879.3984	-0.3762
879.5593	-0
879.7201	-0
879.8809	-0.7198
880.0417	0.5441
880.2024	-0.2272
880.3632	-1.2478
880.5239	0.358
880.6846	0.5636
880.8452	-2.2601
881.0059	-0
881.1665	-0.1589
881.3271	0.0028
881.4877	-0
881.6483	-0.4968
881.8088	-0.5792
881.9693	-0
882.1298	-0
882.2903	-0
