Data from MonoPyChalIsomerACN10uM380nmA_Absorbance_13-38-32-649.txt Node
Date: Fri Jul 05 13:38:32 BST 2024
User: LASERRRRR
Spectrometer: FLMT03099
Trigger mode: 0
Integration Time (sec): 1.000000E-1
Scans to average: 1
Electric dark correction enabled: true
Nonlinearity correction enabled: false
Boxcar width: 0
XAxis mode: Wavelengths
Number of Pixels in Spectrum: 3648
>>>>>Begin Spectral Data<<<<<
179.3399	-0.155
179.5586	-0.155
179.7771	-0.155
179.9957	-0
180.2143	-0
180.4329	0.2841
180.6514	0.4871
180.8699	-0
181.0885	-0.2058
181.307	0.1395
181.5255	-0
181.744	-0.339
181.9625	-0
182.181	-1.0969
182.3994	0.301
182.6179	0.6067
182.8363	-0
183.0547	-0.0414
183.2732	0.1528
183.4916	0.105
183.71	0.1161
183.9284	0.0865
184.1467	-0.1338
184.3651	-0.1477
184.5835	-0.1411
184.8018	-0.0163
185.0201	0.3929
185.2385	-0.0657
185.4568	0.2157
185.6751	0.0367
185.8934	0.3357
186.1117	0.0435
186.3299	0.1412
186.5482	0.0628
186.7664	0.1599
186.9847	0.1391
187.2029	0.0559
187.4211	0.1283
187.6393	0.3455
187.8575	-0.017
188.0757	0.1806
188.2939	0.1643
188.512	0.2012
188.7302	0.6376
188.9483	-0.1353
189.1665	0.2602
189.3846	0.1519
189.6027	0.1415
189.8208	0.3362
190.0389	0.2142
190.257	0.4481
190.475	0.2398
190.6931	0.102
190.9111	0.4599
191.1292	0.3066
191.3472	0.5034
191.5652	0.3717
191.7832	0.1979
192.0012	0.7027
192.2192	0.419
192.4371	0.721
192.6551	0.5737
192.873	0.4966
193.091	0.4022
193.3089	0.7882
193.5268	0.592
193.7447	0.6223
193.9626	0.5198
194.1805	0.9477
194.3984	0.8131
194.6162	0.6097
194.8341	0.641
195.0519	0.5046
195.2697	0.9744
195.4875	0.6812
195.7054	0.6934
195.9231	0.7295
196.1409	0.5042
196.3587	0.8064
196.5765	0.7125
196.7942	0.5939
197.012	0.6047
197.2297	0.8116
197.4474	0.9715
197.6651	0.7488
197.8828	0.7096
198.1005	0.8108
198.3182	0.7293
198.5358	0.8796
198.7535	0.8265
198.9711	0.6463
199.1888	0.792
199.4064	1.1133
199.624	0.7886
199.8416	0.8915
200.0592	0.8588
200.2767	0.8751
200.4943	0.8741
200.7119	1.2506
200.9294	1.0015
201.1469	0.7592
201.3645	0.7993
201.582	0.6597
201.7995	0.6891
202.017	0.9009
202.2344	0.778
202.4519	0.9808
202.6694	0.7396
202.8868	0.8348
203.1042	0.9164
203.3217	0.8392
203.5391	0.992
203.7565	0.6928
203.9739	0.7971
204.1913	0.8378
204.4086	1.1071
204.626	0.862
204.8433	0.793
205.0607	0.7719
205.278	0.7395
205.4953	0.7648
205.7126	0.8899
205.9299	0.8313
206.1472	0.9004
206.3644	0.8372
206.5817	0.9101
206.7989	0.8977
207.0162	0.7553
207.2334	0.8806
207.4506	0.7329
207.6678	0.7028
207.885	0.8949
208.1022	0.8461
208.3194	0.827
208.5365	0.8431
208.7537	0.7433
208.9708	0.7157
209.1879	0.7802
209.405	0.873
209.6222	0.8304
209.8392	0.8436
210.0563	0.8317
210.2734	0.8332
210.4905	0.7921
210.7075	0.8367
210.9245	0.7483
211.1416	1.1774
211.3586	0.8759
211.5756	0.771
211.7926	0.77
212.0096	0.7724
212.2265	0.7265
212.4435	0.6858
212.6604	0.8714
212.8774	0.895
213.0943	0.8275
213.3112	0.774
213.5281	0.7865
213.745	0.7003
213.9619	0.7295
214.1788	0.6714
214.3956	0.6959
214.6125	0.6856
214.8293	0.6453
215.0461	0.6942
215.2629	0.7185
215.4798	0.7519
215.6965	0.6596
215.9133	0.7184
216.1301	0.6412
216.3469	0.6705
216.5636	0.6358
216.7803	0.6264
216.9971	0.6438
217.2138	0.6231
217.4305	0.6078
217.6472	0.5946
217.8639	0.6786
218.0805	0.6169
218.2972	0.6171
218.5138	0.5826
218.7305	0.6177
218.9471	0.552
219.1637	0.579
219.3803	0.5124
219.5969	0.541
219.8135	0.5048
220.0301	0.5547
220.2466	0.579
220.4632	0.5333
220.6797	0.5233
220.8962	0.5184
221.1127	0.5517
221.3292	0.5021
221.5457	0.5624
221.7622	0.5025
221.9787	0.541
222.1951	0.4878
222.4116	0.5091
222.628	0.5098
222.8444	0.5263
223.0608	0.5241
223.2772	0.5396
223.4936	0.5341
223.71	0.5283
223.9264	0.5079
224.1427	0.5327
224.3591	0.5193
224.5754	0.5554
224.7917	0.5455
225.008	0.5164
225.2243	0.5373
225.4406	0.5327
225.6569	0.5445
225.8732	0.5146
226.0894	0.5137
226.3057	0.5022
226.5219	0.5424
226.7381	0.5236
226.9543	0.5366
227.1705	0.5949
227.3867	0.5115
227.6029	0.5692
227.8191	0.5463
228.0352	0.5042
228.2513	0.5869
228.4675	0.5707
228.6836	0.5503
228.8997	0.5366
229.1158	0.5816
229.3319	0.5589
229.548	0.5351
229.764	0.5505
229.9801	0.5844
230.1961	0.5628
230.4121	0.559
230.6282	0.5478
230.8442	0.5359
231.0602	0.5707
231.2761	0.5589
231.4921	0.5707
231.7081	0.5763
231.924	0.5498
232.14	0.5827
232.3559	0.5629
232.5718	0.6006
232.7877	0.5734
233.0036	0.5534
233.2195	0.5451
233.4353	0.5457
233.6512	0.5383
233.867	0.5373
234.0829	0.5529
234.2987	0.5425
234.5145	0.5566
234.7303	0.5548
234.9461	0.5911
235.1619	0.5534
235.3776	0.5602
235.5934	0.5594
235.8091	0.5223
236.0249	0.5452
236.2406	0.5628
236.4563	0.5357
236.672	0.5736
236.8877	0.5831
237.1034	0.5506
237.319	0.538
237.5347	0.5611
237.7503	0.5462
237.966	0.5447
238.1816	0.5223
238.3972	0.5461
238.6128	0.5196
238.8284	0.5482
239.0439	0.5535
239.2595	0.5283
239.475	0.5382
239.6906	0.527
239.9061	0.5249
240.1216	0.5233
240.3371	0.5131
240.5526	0.5116
240.7681	0.5162
240.9836	0.4933
241.199	0.4906
241.4145	0.5155
241.6299	0.4894
241.8453	0.5054
242.0607	0.4807
242.2761	0.4453
242.4915	0.4556
242.7069	0.4713
242.9223	0.4508
243.1376	0.4557
243.353	0.4582
243.5683	0.4308
243.7836	0.3986
243.9989	0.4192
244.2142	0.3919
244.4295	0.4176
244.6448	0.3979
244.86	0.3703
245.0753	0.3674
245.2905	0.3631
245.5057	0.353
245.721	0.3541
245.9362	0.3552
246.1514	0.3424
246.3665	0.3361
246.5817	0.3264
246.7969	0.3146
247.012	0.3134
247.2271	0.3061
247.4423	0.3188
247.6574	0.2932
247.8725	0.314
248.0876	0.2832
248.3026	0.2862
248.5177	0.2619
248.7328	0.2743
248.9478	0.2604
249.1628	0.2653
249.3779	0.2749
249.5929	0.2513
249.8079	0.2572
250.0228	0.2361
250.2378	0.2551
250.4528	0.2477
250.6677	0.2235
250.8827	0.2462
251.0976	0.2404
251.3125	0.2361
251.5274	0.2261
251.7423	0.2314
251.9572	0.2339
252.172	0.2191
252.3869	0.2192
252.6017	0.2207
252.8166	0.2053
253.0314	0.1942
253.2462	0.1953
253.461	0.2241
253.6758	0.2057
253.8906	0.2034
254.1053	0.1962
254.3201	0.2044
254.5348	0.2036
254.7496	0.2025
254.9643	0.2086
255.179	0.202
255.3937	0.1909
255.6083	0.1991
255.823	0.1872
256.0377	0.1901
256.2523	0.1938
256.467	0.1954
256.6816	0.1998
256.8962	0.2026
257.1108	0.1893
257.3254	0.1887
257.54	0.1749
257.7545	0.1955
257.9691	0.2012
258.1836	0.1812
258.3981	0.2057
258.6127	0.2056
258.8272	0.1741
259.0417	0.1862
259.2561	0.174
259.4706	0.1896
259.6851	0.189
259.8995	0.1731
260.114	0.1836
260.3284	0.184
260.5428	0.178
260.7572	0.1871
260.9716	0.1979
261.186	0.1887
261.4003	0.1783
261.6147	0.1878
261.829	0.1883
262.0433	0.1891
262.2577	0.1834
262.472	0.1865
262.6863	0.1712
262.9005	0.1826
263.1148	0.198
263.3291	0.1722
263.5433	0.1733
263.7576	0.1772
263.9718	0.1841
264.186	0.1744
264.4002	0.1826
264.6144	0.1794
264.8286	0.1921
265.0427	0.1907
265.2569	0.1853
265.471	0.1872
265.6851	0.1717
265.8993	0.1809
266.1134	0.1899
266.3275	0.1768
266.5415	0.1744
266.7556	0.1873
266.9697	0.1995
267.1837	0.1918
267.3978	0.1878
267.6118	0.1817
267.8258	0.1965
268.0398	0.1745
268.2538	0.1808
268.4677	0.1736
268.6817	0.1796
268.8957	0.1915
269.1096	0.1844
269.3235	0.1868
269.5374	0.1733
269.7514	0.1721
269.9652	0.1696
270.1791	0.1742
270.393	0.1667
270.6068	0.1707
270.8207	0.155
271.0345	0.1665
271.2483	0.1842
271.4622	0.1747
271.676	0.182
271.8897	0.1705
272.1035	0.1707
272.3173	0.1672
272.531	0.1669
272.7448	0.1732
272.9585	0.1579
273.1722	0.1764
273.3859	0.1723
273.5996	0.1609
273.8133	0.177
274.0269	0.167
274.2406	0.158
274.4542	0.1661
274.6679	0.157
274.8815	0.1725
275.0951	0.1703
275.3087	0.1856
275.5223	0.1766
275.7358	0.1784
275.9494	0.1831
276.1629	0.1702
276.3765	0.1821
276.59	0.171
276.8035	0.1716
277.017	0.1734
277.2305	0.1756
277.444	0.1771
277.6574	0.1717
277.8709	0.1771
278.0843	0.1824
278.2978	0.1838
278.5112	0.1779
278.7246	0.1818
278.938	0.1675
279.1513	0.1736
279.3647	0.1767
279.5781	0.171
279.7914	0.1737
280.0047	0.1882
280.2181	0.1676
280.4314	0.1757
280.6447	0.1723
280.8579	0.1824
281.0712	0.194
281.2845	0.1865
281.4977	0.1798
281.711	0.172
281.9242	0.1701
282.1374	0.1949
282.3506	0.1828
282.5638	0.1968
282.7769	0.1839
282.9901	0.1808
283.2033	0.1884
283.4164	0.1896
283.6295	0.173
283.8426	0.174
284.0557	0.1806
284.2688	0.1943
284.4819	0.1777
284.695	0.1888
284.908	0.1934
285.1211	0.1798
285.3341	0.1802
285.5471	0.1808
285.7601	0.1801
285.9731	0.1683
286.1861	0.1683
286.3991	0.1955
286.612	0.1737
286.825	0.1782
287.0379	0.1863
287.2508	0.1775
287.4637	0.1772
287.6766	0.1653
287.8895	0.1767
288.1024	0.1959
288.3152	0.1871
288.5281	0.1726
288.7409	0.1867
288.9538	0.1705
289.1666	0.1749
289.3794	0.1774
289.5922	0.166
289.8049	0.1771
290.0177	0.1772
290.2304	0.1806
290.4432	0.1735
290.6559	0.168
290.8686	0.1835
291.0813	0.179
291.294	0.1834
291.5067	0.186
291.7194	0.1658
291.932	0.1939
292.1447	0.1714
292.3573	0.1625
292.5699	0.1772
292.7825	0.1774
292.9951	0.1742
293.2077	0.1784
293.4203	0.1727
293.6328	0.1536
293.8454	0.1712
294.0579	0.1786
294.2704	0.172
294.4829	0.1609
294.6954	0.182
294.9079	0.1762
295.1204	0.1767
295.3328	0.1701
295.5453	0.163
295.7577	0.1655
295.9701	0.1554
296.1825	0.1655
296.3949	0.1682
296.6073	0.1711
296.8197	0.1607
297.0321	0.1767
297.2444	0.1543
297.4567	0.1657
297.6691	0.1735
297.8814	0.1629
298.0937	0.1668
298.306	0.167
298.5182	0.1696
298.7305	0.1849
298.9428	0.1584
299.155	0.1723
299.3672	0.1646
299.5794	0.1684
299.7916	0.1638
300.0038	0.1768
300.216	0.1661
300.4282	0.1708
300.6403	0.149
300.8525	0.1767
301.0646	0.1641
301.2767	0.168
301.4888	0.1628
301.7009	0.1632
301.913	0.1705
302.125	0.1617
302.3371	0.1613
302.5491	0.1651
302.7612	0.1678
302.9732	0.1589
303.1852	0.1607
303.3972	0.1667
303.6092	0.1571
303.8211	0.1541
304.0331	0.1549
304.245	0.1535
304.457	0.1582
304.6689	0.1443
304.8808	0.1716
305.0927	0.1581
305.3046	0.1702
305.5164	0.1573
305.7283	0.1433
305.9401	0.1536
306.152	0.1508
306.3638	0.1596
306.5756	0.1495
306.7874	0.1488
306.9992	0.1479
307.2109	0.143
307.4227	0.1239
307.6344	0.1458
307.8462	0.135
308.0579	0.1472
308.2696	0.1441
308.4813	0.1314
308.693	0.133
308.9046	0.137
309.1163	0.114
309.328	0.1336
309.5396	0.1324
309.7512	0.1287
309.9628	0.1188
310.1744	0.1235
310.386	0.1243
310.5976	0.1319
310.8091	0.1222
311.0207	0.118
311.2322	0.1303
311.4437	0.1103
311.6552	0.1137
311.8667	0.1155
312.0782	0.112
312.2897	0.1128
312.5012	0.1145
312.7126	0.1107
312.924	0.1133
313.1355	0.1108
313.3469	0.105
313.5583	0.1161
313.7696	0.1105
313.981	0.1186
314.1924	0.1059
314.4037	0.1029
314.6151	0.1174
314.8264	0.1027
315.0377	0.1027
315.249	0.1096
315.4603	0.1158
315.6716	0.109
315.8828	0.0982
316.0941	0.0991
316.3053	0.1003
316.5165	0.1014
316.7277	0.09
316.9389	0.1252
317.1501	0.0984
317.3613	0.1111
317.5724	0.0948
317.7836	0.1052
317.9947	0.1061
318.2058	0.1104
318.417	0.0915
318.6281	0.0872
318.8391	0.1106
319.0502	0.1081
319.2613	0.1106
319.4723	0.1128
319.6834	0.1007
319.8944	0.0926
320.1054	0.1055
320.3164	0.1129
320.5274	0.0982
320.7383	0.1065
320.9493	0.1161
321.1602	0.1182
321.3712	0.0876
321.5821	0.1163
321.793	0.1058
322.0039	0.1036
322.2148	0.1073
322.4257	0.1176
322.6365	0.1136
322.8474	0.1036
323.0582	0.1154
323.269	0.1023
323.4798	0.1118
323.6906	0.1112
323.9014	0.0998
324.1122	0.0998
324.3229	0.1062
324.5337	0.1091
324.7444	0.1107
324.9551	0.1215
325.1658	0.1048
325.3765	0.1172
325.5872	0.1115
325.7979	0.1041
326.0085	0.1064
326.2192	0.1156
326.4298	0.1182
326.6404	0.101
326.851	0.0992
327.0616	0.1083
327.2722	0.113
327.4828	0.1131
327.6933	0.1029
327.9039	0.1242
328.1144	0.1218
328.3249	0.1129
328.5354	0.1087
328.7459	0.1103
328.9564	0.103
329.1669	0.1033
329.3773	0.1107
329.5878	0.1153
329.7982	0.1122
330.0086	0.114
330.219	0.1047
330.4294	0.1148
330.6398	0.1141
330.8502	0.1068
331.0605	0.1203
331.2708	0.1108
331.4812	0.1063
331.6915	0.1149
331.9018	0.1094
332.1121	0.1138
332.3224	0.1144
332.5326	0.1207
332.7429	0.1159
332.9531	0.1319
333.1633	0.1142
333.3735	0.1157
333.5837	0.1126
333.7939	0.1152
334.0041	0.1276
334.2143	0.1191
334.4244	0.1107
334.6346	0.1028
334.8447	0.1228
335.0548	0.1003
335.2649	0.0962
335.475	0.1202
335.685	0.1086
335.8951	0.1218
336.1051	0.1163
336.3152	0.125
336.5252	0.1039
336.7352	0.1289
336.9452	0.1245
337.1552	0.1178
337.3652	0.105
337.5751	0.1225
337.7851	0.1198
337.995	0.1083
338.2049	0.1237
338.4148	0.119
338.6247	0.1248
338.8346	0.106
339.0445	0.108
339.2543	0.1033
339.4642	0.1288
339.674	0.1113
339.8838	0.1318
340.0936	0.1089
340.3034	0.1266
340.5132	0.1243
340.7229	0.1323
340.9327	0.1146
341.1424	0.123
341.3522	0.1362
341.5619	0.1246
341.7716	0.1355
341.9813	0.1317
342.1909	0.121
342.4006	0.1274
342.6102	0.1366
342.8199	0.1222
343.0295	0.1172
343.2391	0.1254
343.4487	0.1397
343.6583	0.1303
343.8679	0.1249
344.0774	0.1421
344.287	0.1485
344.4965	0.1465
344.706	0.1336
344.9155	0.1253
345.125	0.1348
345.3345	0.1256
345.544	0.1351
345.7534	0.1287
345.9629	0.1308
346.1723	0.1301
346.3817	0.1237
346.5911	0.1366
346.8005	0.1384
347.0099	0.1345
347.2193	0.1374
347.4286	0.1341
347.638	0.142
347.8473	0.1368
348.0566	0.1492
348.2659	0.1357
348.4752	0.1408
348.6845	0.1292
348.8937	0.135
349.103	0.1528
349.3122	0.1308
349.5214	0.126
349.7306	0.1499
349.9398	0.1474
350.149	0.1446
350.3582	0.1393
350.5674	0.1552
350.7765	0.1463
350.9856	0.1435
351.1948	0.1505
351.4039	0.1474
351.613	0.1393
351.822	0.1441
352.0311	0.1614
352.2402	0.1522
352.4492	0.1473
352.6582	0.1545
352.8672	0.1418
353.0762	0.1586
353.2852	0.1454
353.4942	0.131
353.7032	0.1633
353.9121	0.1562
354.1211	0.1526
354.33	0.1511
354.5389	0.1444
354.7478	0.15
354.9567	0.1483
355.1655	0.1383
355.3744	0.1525
355.5833	0.1549
355.7921	0.1685
356.0009	0.1602
356.2097	0.1729
356.4185	0.1823
356.6273	0.1508
356.8361	0.1604
357.0448	0.1472
357.2536	0.144
357.4623	0.1587
357.671	0.1728
357.8797	0.172
358.0884	0.1591
358.2971	0.1608
358.5057	0.1758
358.7144	0.1768
358.923	0.1641
359.1316	0.1688
359.3402	0.1715
359.5488	0.1791
359.7574	0.1554
359.966	0.1754
360.1746	0.1864
360.3831	0.1804
360.5916	0.1665
360.8002	0.145
361.0087	0.1965
361.2172	0.1681
361.4256	0.1745
361.6341	0.1849
361.8426	0.1807
362.051	0.1852
362.2594	0.1719
362.4678	0.1847
362.6762	0.1951
362.8846	0.1891
363.093	0.1638
363.3014	0.1808
363.5097	0.1728
363.718	0.1707
363.9264	0.1657
364.1347	0.1785
364.343	0.1884
364.5513	0.1998
364.7595	0.1966
364.9678	0.1815
365.176	0.2012
365.3842	0.1898
365.5925	0.1959
365.8007	0.18
366.0089	0.1951
366.217	0.1829
366.4252	0.2098
366.6333	0.2005
366.8415	0.1962
367.0496	0.1938
367.2577	0.2179
367.4658	0.2033
367.6739	0.1973
367.882	0.1914
368.09	0.2051
368.2981	0.2041
368.5061	0.2014
368.7141	0.2043
368.9221	0.2135
369.1301	0.2021
369.3381	0.2003
369.5461	0.2163
369.754	0.2062
369.962	0.2243
370.1699	0.206
370.3778	0.2
370.5857	0.1925
370.7936	0.2106
371.0015	0.2058
371.2093	0.2184
371.4172	0.2098
371.625	0.1863
371.8328	0.1956
372.0406	0.2083
372.2484	0.2023
372.4562	0.2175
372.664	0.2164
372.8717	0.2274
373.0795	0.1961
373.2872	0.2125
373.4949	0.2167
373.7026	0.2202
373.9103	0.2233
374.118	0.2281
374.3256	0.2326
374.5333	0.2025
374.7409	0.2183
374.9485	0.2189
375.1561	0.2243
375.3637	0.2155
375.5713	0.2148
375.7789	0.216
375.9864	0.2202
376.194	0.2233
376.4015	0.2258
376.609	0.2332
376.8165	0.2223
377.024	0.2249
377.2315	0.2085
377.4389	0.2279
377.6464	0.2228
377.8538	0.2376
378.0612	0.2104
378.2686	0.24
378.476	0.2365
378.6834	0.2189
378.8908	0.224
379.0981	0.2182
379.3055	0.2187
379.5128	0.2287
379.7201	0.2316
379.9274	0.2339
380.1347	0.2322
380.342	0.236
380.5492	0.2193
380.7565	0.2281
380.9637	0.2395
381.1709	0.219
381.3781	0.226
381.5853	0.2406
381.7925	0.2326
381.9997	0.2433
382.2068	0.2462
382.4139	0.2353
382.6211	0.2408
382.8282	0.2468
383.0353	0.2436
383.2424	0.2421
383.4494	0.2613
383.6565	0.2492
383.8635	0.2229
384.0706	0.2251
384.2776	0.2443
384.4846	0.2308
384.6916	0.2568
384.8986	0.2382
385.1055	0.2361
385.3125	0.2466
385.5194	0.2182
385.7263	0.2339
385.9333	0.2413
386.1402	0.2552
386.347	0.2398
386.5539	0.2239
386.7608	0.247
386.9676	0.2149
387.1744	0.2291
387.3813	0.2279
387.5881	0.2298
387.7948	0.2412
388.0016	0.2335
388.2084	0.2281
388.4151	0.2317
388.6219	0.2408
388.8286	0.2438
389.0353	0.2497
389.242	0.2364
389.4487	0.2181
389.6553	0.2273
389.862	0.2007
390.0686	0.2196
390.2753	0.2258
390.4819	0.2239
390.6885	0.2323
390.8951	0.2345
391.1016	0.213
391.3082	0.2211
391.5147	0.2275
391.7213	0.2253
391.9278	0.2172
392.1343	0.2117
392.3408	0.2057
392.5473	0.2226
392.7537	0.2162
392.9602	0.2022
393.1666	0.2058
393.373	0.1959
393.5794	0.215
393.7858	0.1996
393.9922	0.1881
394.1986	0.215
394.4049	0.2298
394.6113	0.2102
394.8176	0.1993
395.0239	0.2111
395.2302	0.1982
395.4365	0.202
395.6428	0.21
395.8491	0.2176
396.0553	0.2127
396.2615	0.2038
396.4678	0.1837
396.674	0.1816
396.8802	0.1967
397.0863	0.2294
397.2925	0.1852
397.4987	0.1993
397.7048	0.192
397.9109	0.2161
398.117	0.1868
398.3231	0.1851
398.5292	0.2021
398.7353	0.2148
398.9413	0.1918
399.1474	0.1758
399.3534	0.2064
399.5594	0.1932
399.7654	0.2104
399.9714	0.2149
400.1774	0.1899
400.3833	0.1916
400.5893	0.1966
400.7952	0.1847
401.0011	0.2016
401.207	0.2081
401.4129	0.182
401.6188	0.212
401.8247	0.1992
402.0305	0.1911
402.2364	0.1936
402.4422	0.2014
402.648	0.1873
402.8538	0.2065
403.0596	0.1922
403.2654	0.2008
403.4711	0.2057
403.6768	0.2056
403.8826	0.2047
404.0883	0.1998
404.294	0.2084
404.4997	0.2065
404.7054	0.1912
404.911	0.1832
405.1167	0.1872
405.3223	0.2012
405.5279	0.2027
405.7335	0.1945
405.9391	0.1979
406.1447	0.2
406.3502	0.2119
406.5558	0.1813
406.7613	0.1975
406.9668	0.2117
407.1724	0.1847
407.3778	0.192
407.5833	0.1912
407.7888	0.1708
407.9942	0.2164
408.1997	0.1878
408.4051	0.1775
408.6105	0.195
408.8159	0.1992
409.0213	0.1857
409.2267	0.2046
409.432	0.2011
409.6374	0.1947
409.8427	0.1824
410.048	0.1945
410.2533	0.1985
410.4586	0.1685
410.6639	0.1829
410.8691	0.1838
411.0744	0.1909
411.2796	0.1909
411.4848	0.1826
411.69	0.1937
411.8952	0.2101
412.1004	0.1691
412.3056	0.2018
412.5107	0.1798
412.7158	0.1976
412.921	0.179
413.1261	0.1971
413.3312	0.1906
413.5362	0.1843
413.7413	0.1708
413.9464	0.2087
414.1514	0.1805
414.3564	0.1914
414.5614	0.1742
414.7664	0.1937
414.9714	0.1823
415.1764	0.195
415.3813	0.1981
415.5863	0.1961
415.7912	0.1841
415.9961	0.1935
416.201	0.1826
416.4059	0.2038
416.6108	0.1691
416.8156	0.1917
417.0205	0.1716
417.2253	0.177
417.4301	0.1995
417.6349	0.1714
417.8397	0.1772
418.0445	0.1825
418.2492	0.2014
418.454	0.1782
418.6587	0.1878
418.8634	0.1913
419.0681	0.1785
419.2728	0.1656
419.4775	0.1858
419.6822	0.1651
419.8868	0.1669
420.0915	0.1824
420.2961	0.1675
420.5007	0.1593
420.7053	0.1716
420.9099	0.1727
421.1144	0.1773
421.319	0.1703
421.5235	0.1857
421.728	0.1746
421.9325	0.1672
422.137	0.1741
422.3415	0.1575
422.546	0.1735
422.7504	0.1793
422.9549	0.1588
423.1593	0.1762
423.3637	0.1823
423.5681	0.1633
423.7725	0.1645
423.9769	0.1466
424.1812	0.154
424.3856	0.1653
424.5899	0.1573
424.7942	0.1557
424.9985	0.1634
425.2028	0.1378
425.4071	0.1846
425.6113	0.155
425.8156	0.1609
426.0198	0.1467
426.224	0.1448
426.4282	0.145
426.6324	0.1518
426.8366	0.155
427.0407	0.145
427.2449	0.1507
427.449	0.1553
427.6531	0.1439
427.8572	0.1317
428.0613	0.1286
428.2654	0.1457
428.4694	0.1389
428.6735	0.1406
428.8775	0.1515
429.0815	0.1404
429.2855	0.1404
429.4895	0.1403
429.6935	0.1475
429.8975	0.1571
430.1014	0.1507
430.3053	0.1266
430.5093	0.1338
430.7132	0.1203
430.9171	0.1225
431.1209	0.1275
431.3248	0.1217
431.5286	0.1315
431.7325	0.1376
431.9363	0.1124
432.1401	0.1306
432.3439	0.1073
432.5477	0.1025
432.7514	0.1099
432.9552	0.1102
433.1589	0.0973
433.3627	0.1058
433.5664	0.1133
433.7701	0.0983
433.9737	0.1019
434.1774	0.097
434.3811	0.1016
434.5847	0.1141
434.7883	0.0966
434.9919	0.0959
435.1955	0.0955
435.3991	0.1056
435.6027	0.0939
435.8062	0.0907
436.0098	0.0883
436.2133	0.0918
436.4168	0.0869
436.6203	0.0832
436.8238	0.0992
437.0272	0.0949
437.2307	0.0936
437.4341	0.085
437.6375	0.091
437.841	0.0791
438.0443	0.088
438.2477	0.0875
438.4511	0.0771
438.6545	0.0815
438.8578	0.0862
439.0611	0.083
439.2644	0.0735
439.4677	0.0744
439.671	0.0706
439.8743	0.0738
440.0775	0.0714
440.2808	0.069
440.484	0.0645
440.6872	0.0637
440.8904	0.0586
441.0936	0.0709
441.2967	0.0609
441.4999	0.0675
441.703	0.0746
441.9062	0.0634
442.1093	0.0601
442.3124	0.0567
442.5155	0.0372
442.7185	0.0601
442.9216	0.0421
443.1246	0.0584
443.3276	0.0538
443.5307	0.0495
443.7337	0.0534
443.9366	0.061
444.1396	0.044
444.3426	0.0378
444.5455	0.0581
444.7484	0.0467
444.9513	0.0437
445.1542	0.054
445.3571	0.0417
445.56	0.0512
445.7628	0.0398
445.9657	0.0456
446.1685	0.052
446.3713	0.0265
446.5741	0.0384
446.7769	0.0328
446.9797	0.0386
447.1824	0.0321
447.3852	0.0239
447.5879	0.0503
447.7906	0.0419
447.9933	0.0252
448.196	0.0303
448.3986	0.028
448.6013	0.0178
448.8039	0.0207
449.0066	0.0183
449.2092	0.0388
449.4118	0.0315
449.6143	0.035
449.8169	0.0255
450.0195	0.0272
450.222	0.0204
450.4245	0.0203
450.627	0.0203
450.8295	0.0213
451.032	0.0237
451.2345	0.025
451.4369	0.0361
451.6394	0.0305
451.8418	0.0058
452.0442	0.0158
452.2466	0.031
452.449	0.0059
452.6513	0.0291
452.8537	0.015
453.056	-0.0028
453.2583	0.0027
453.4607	0.013
453.663	0.0042
453.8652	0.025
454.0675	0.0166
454.2697	0.0276
454.472	0.0156
454.6742	0.0052
454.8764	0.0057
455.0786	0.0106
455.2808	0.0117
455.4829	0.0191
455.6851	0.0137
455.8872	0.011
456.0893	0.0314
456.2915	0.0133
456.4935	0.0282
456.6956	-0.0045
456.8977	0.0221
457.0997	0.0048
457.3018	0.0007
457.5038	0.0079
457.7058	-0.0014
457.9078	0.0077
458.1098	0.0106
458.3117	0.0014
458.5137	0.005
458.7156	0.0143
458.9175	0.0036
459.1194	-0.0034
459.3213	0.0089
459.5232	-0.0168
459.725	-0.0003
459.9269	0.0018
460.1287	0.0057
460.3305	0.0055
460.5323	0.0126
460.7341	-0.0045
460.9359	0.0093
461.1376	0.0221
461.3394	-0.0016
461.5411	-0.0062
461.7428	-0.0031
461.9445	0.0029
462.1462	0.0097
462.3479	-0.0121
462.5495	0.0102
462.7512	-0.0015
462.9528	-0.0009
463.1544	-0.0049
463.356	0.0035
463.5576	-0.0033
463.7592	-0.007
463.9607	0.0102
464.1623	0.009
464.3638	0.0159
464.5653	-0.014
464.7668	0.0039
464.9683	0.0078
465.1697	0.0051
465.3712	-0.002
465.5726	-0.0001
465.7741	-0.0072
465.9755	0
466.1769	-0.0097
466.3782	-0.0124
466.5796	-0.0134
466.7809	0.0242
466.9823	-0.0038
467.1836	-0.0003
467.3849	-0.0076
467.5862	0.0102
467.7875	-0.009
467.9887	0.0238
468.19	0
468.3912	-0.021
468.5924	-0.0107
468.7936	-0.0081
468.9948	0.0011
469.196	-0.0075
469.3972	-0.009
469.5983	-0.0193
469.7994	-0.0111
470.0006	-0.0112
470.2017	-0.0233
470.4027	0.0055
470.6038	-0.0005
470.8049	-0.021
471.0059	-0.0038
471.2069	-0.0205
471.408	0.0137
471.6089	-0.0018
471.8099	-0.0162
472.0109	-0.0034
472.2119	-0.0187
472.4128	-0.0087
472.6137	0.0119
472.8146	-0.0184
473.0155	-0.0227
473.2164	0.0026
473.4173	-0.0017
473.6181	0.0031
473.819	0.0069
474.0198	-0.0097
474.2206	-0.0118
474.4214	0.0013
474.6222	0.0108
474.8229	-0.0126
475.0237	-0.0131
475.2244	-0.0171
475.4251	-0.0083
475.6258	0
475.8265	-0.0127
476.0272	0.0094
476.2278	-0.0078
476.4285	-0.0125
476.6291	-0.0004
476.8297	0.0015
477.0303	-0.0171
477.2309	-0.0096
477.4315	-0.018
477.632	-0.0026
477.8326	-0.0159
478.0331	-0.004
478.2336	0.0075
478.4341	-0.0044
478.6346	-0.002
478.8351	-0.0169
479.0355	-0.0066
479.236	-0.0025
479.4364	0.0008
479.6368	0.0019
479.8372	-0.0053
480.0376	-0.0078
480.2379	-0.0226
480.4383	-0.0068
480.6386	-0.0049
480.8389	0.0025
481.0392	-0.008
481.2395	-0.0173
481.4398	-0.0109
481.6401	-0.0075
481.8403	-0.0152
482.0405	-0.01
482.2408	0.0006
482.441	0.0214
482.6411	-0.0169
482.8413	-0.0166
483.0415	-0.0064
483.2416	-0.0143
483.4417	0.0017
483.6419	-0.0136
483.8419	-0.0091
484.042	0.0024
484.2421	-0.0056
484.4422	-0.0058
484.6422	0.002
484.8422	-0.0109
485.0422	-0.0085
485.2422	-0.0064
485.4422	-0.0026
485.6422	-0.0082
485.8421	-0.0125
486.042	-0.0011
486.242	-0.007
486.4419	-0.0123
486.6417	-0.0101
486.8416	-0.0057
487.0415	-0.0066
487.2413	-0.0075
487.4411	-0.0158
487.641	-0.0159
487.8408	-0.0037
488.0405	-0.0098
488.2403	-0.0107
488.4401	-0.0075
488.6398	0.0001
488.8395	-0.0044
489.0392	0.0013
489.2389	-0.0164
489.4386	-0.0022
489.6383	-0.0038
489.8379	-0.0121
490.0376	-0.0098
490.2372	-0.0186
490.4368	-0.0227
490.6364	-0.0133
490.836	-0.0094
491.0355	-0.0011
491.2351	-0.0128
491.4346	-0.0118
491.6341	-0.0202
491.8336	0.0054
492.0331	-0.0252
492.2326	-0.0118
492.432	-0.0131
492.6315	-0.01
492.8309	-0.012
493.0303	-0.0138
493.2297	-0.0127
493.4291	-0.0023
493.6284	0.0009
493.8278	-0.0108
494.0271	-0.0114
494.2264	-0.0034
494.4257	-0.0143
494.625	-0.0122
494.8243	-0.0206
495.0236	-0.014
495.2228	-0.018
495.422	-0.0019
495.6213	-0.0114
495.8205	-0.0078
496.0196	-0.0116
496.2188	-0.0111
496.418	-0.0043
496.6171	-0.0088
496.8162	-0.0096
497.0153	-0.0028
497.2144	-0.0094
497.4135	-0.0049
497.6126	-0.017
497.8116	-0.0051
498.0107	-0.0109
498.2097	-0.0101
498.4087	-0.0113
498.6077	-0.0094
498.8067	-0.0176
499.0056	-0.0083
499.2046	-0.0066
499.4035	-0.021
499.6024	-0.0108
499.8013	-0.0069
500.0002	-0.013
500.199	-0.0204
500.3979	-0.0187
500.5967	-0.0134
500.7956	0.0024
500.9944	-0.013
501.1932	-0.0174
501.3919	-0.0121
501.5907	-0.0223
501.7895	-0.0105
501.9882	-0.0127
502.1869	-0.0119
502.3856	-0.0165
502.5843	-0.0201
502.783	-0.0082
502.9816	-0.0198
503.1803	-0.0195
503.3789	-0.0244
503.5775	-0.0035
503.7761	-0.0216
503.9747	-0.004
504.1732	-0.0127
504.3718	-0.0011
504.5703	-0.0105
504.7689	-0.0098
504.9674	-0.0079
505.1658	-0.0149
505.3643	-0.0066
505.5628	-0.0108
505.7612	-0.0081
505.9597	-0.0055
506.1581	-0.0131
506.3565	0.0055
506.5549	-0.0187
506.7532	-0.0183
506.9516	-0.0033
507.1499	-0.0087
507.3482	-0.0263
507.5465	-0.022
507.7448	-0.0004
507.9431	-0.0069
508.1414	-0.0047
508.3396	-0.0094
508.5379	-0.0155
508.7361	-0.0147
508.9343	-0.003
509.1325	-0.0064
509.3306	-0.0177
509.5288	-0.0108
509.7269	-0.0227
509.9251	-0.0143
510.1232	-0.0195
510.3213	-0.0006
510.5193	-0.0071
510.7174	-0.0186
510.9154	-0.0138
511.1135	-0.0127
511.3115	-0.0058
511.5095	-0.008
511.7075	-0.0063
511.9055	-0.0099
512.1034	-0.0045
512.3014	0.0005
512.4993	-0.001
512.6972	-0.009
512.8951	-0.022
513.093	-0.0112
513.2908	-0.0014
513.4887	0.0022
513.6865	-0.0094
513.8844	-0.011
514.0822	-0.0191
514.2799	-0.0174
514.4777	-0.0155
514.6755	-0.0078
514.8732	-0.0148
515.0709	-0.0095
515.2687	-0.0091
515.4664	-0.0109
515.664	-0.0087
515.8617	-0.0097
516.0594	-0.0153
516.257	-0.0072
516.4546	-0.0223
516.6522	0.0068
516.8498	-0.0069
517.0474	-0.0096
517.2449	0.0062
517.4425	-0.023
517.64	-0.0056
517.8375	-0.0067
518.035	-0.0142
518.2325	-0.0181
518.43	-0.0063
518.6274	-0.0076
518.8249	-0.0167
519.0223	-0.0033
519.2197	-0.0011
519.4171	-0.006
519.6145	-0.013
519.8118	-0.0121
520.0092	-0.0154
520.2065	-0.0076
520.4038	-0.0118
520.6011	-0.0044
520.7984	-0.0062
520.9956	-0.0114
521.1929	-0.0262
521.3901	-0.0052
521.5874	-0.0114
521.7846	-0.0046
521.9818	-0.0062
522.1789	-0.016
522.3761	-0.0136
522.5732	-0.0135
522.7704	-0.011
522.9675	-0.0119
523.1646	-0.0157
523.3617	-0.0131
523.5587	-0.0035
523.7558	-0.0038
523.9528	-0.0141
524.1498	-0.0188
524.3468	-0.0179
524.5438	-0.0144
524.7408	-0.0121
524.9378	-0.0101
525.1347	-0.0085
525.3316	0.0036
525.5285	-0.0201
525.7254	-0.0099
525.9223	-0.0103
526.1192	-0.0129
526.316	-0.0084
526.5129	-0.002
526.7097	-0.01
526.9065	-0.0117
527.1033	-0.0129
527.3	-0.009
527.4968	-0.0043
527.6935	-0.0094
527.8903	-0.0157
528.087	-0.0022
528.2837	-0.0169
528.4804	-0.0027
528.677	-0.0162
528.8737	0.0035
529.0703	-0.004
529.2669	-0.0091
529.4635	-0.0151
529.6601	-0.0037
529.8567	-0.0148
530.0532	-0.0102
530.2498	-0.008
530.4463	-0.0001
530.6428	-0.0137
530.8393	-0.001
531.0358	0.0008
531.2322	-0.0082
531.4287	-0.0091
531.6251	-0.0078
531.8215	-0.0003
532.0179	-0.0071
532.2143	-0.0041
532.4107	-0.0074
532.607	-0.0105
532.8034	-0.003
532.9997	-0.0029
533.196	-0.0065
533.3923	-0.0081
533.5886	-0.0004
533.7848	-0.0024
533.9811	-0.0068
534.1773	-0.0089
534.3735	-0.0031
534.5697	-0.0053
534.7659	-0.0072
534.9621	-0.0176
535.1582	-0.0165
535.3544	-0.0116
535.5505	-0.0014
535.7466	-0.0023
535.9427	-0.0116
536.1387	-0.0075
536.3348	-0.011
536.5308	0.0041
536.7269	-0.0205
536.9229	-0.0093
537.1189	-0.0085
537.3148	-0.005
537.5108	-0.0117
537.7068	0.0012
537.9027	-0.0084
538.0986	-0.0094
538.2945	-0.0084
538.4904	-0.0069
538.6863	-0.0127
538.8821	-0.0049
539.078	0.0028
539.2738	-0.0043
539.4696	-0.0108
539.6654	0.0022
539.8611	0.0044
540.0569	-0.0073
540.2526	-0.0056
540.4484	-0.0099
540.6441	-0.007
540.8398	-0.0052
541.0355	0.0121
541.2311	-0.003
541.4268	-0.0159
541.6224	0.0049
541.818	-0.0034
542.0136	-0.0103
542.2092	-0.0014
542.4048	-0.0029
542.6003	-0.0008
542.7959	-0.0097
542.9914	-0.0126
543.1869	-0.0025
543.3824	-0.0073
543.5779	-0.0125
543.7734	-0.0002
543.9688	-0.0114
544.1642	0.0005
544.3596	0.0056
544.555	-0.0075
544.7504	0.0049
544.9458	-0.0038
545.1411	-0.0099
545.3365	-0.0043
545.5318	-0.0076
545.7271	0.0024
545.9224	-0.0008
546.1177	-0.0064
546.3129	0.0015
546.5081	-0.0178
546.7034	-0.0037
546.8986	-0.0151
547.0938	-0.0116
547.289	-0.0084
547.4841	-0.0124
547.6793	0.0056
547.8744	-0.0149
548.0695	-0.0049
548.2646	-0.0111
548.4597	-0.0026
548.6548	-0.0018
548.8498	-0.0059
549.0448	0.002
549.2399	-0.0104
549.4349	0.006
549.6298	-0.0008
549.8248	0.005
550.0198	-0.0013
550.2147	-0.0032
550.4096	-0.0019
550.6045	-0.0054
550.7994	-0.0018
550.9943	-0.0015
551.1892	-0.0007
551.384	-0.0004
551.5788	-0.0074
551.7737	0.0092
551.9685	-0.0054
552.1632	0.0042
552.358	0.0016
552.5528	-0.003
552.7475	-0.0028
552.9422	0.0079
553.1369	0.0081
553.3316	0.0032
553.5263	-0.0053
553.7209	0.0054
553.9156	-0.0122
554.1102	-0.0068
554.3048	-0.0028
554.4994	0.0036
554.694	-0.0124
554.8885	0.0015
555.0831	-0.0087
555.2776	-0.0092
555.4721	-0.0067
555.6666	-0.006
555.8611	0.0042
556.0555	-0.0007
556.25	-0.0078
556.4444	-0.0083
556.6388	-0.0001
556.8332	-0.0004
557.0276	-0.0007
557.222	-0.0042
557.4163	-0.0031
557.6107	-0.009
557.805	0.0036
557.9993	0.0056
558.1936	-0.0092
558.3879	0.0048
558.5821	-0.0022
558.7764	-0.0051
558.9706	0.0005
559.1648	-0.0046
559.359	-0.0119
559.5532	-0.0034
559.7473	-0.0017
559.9415	-0.0008
560.1356	-0.0061
560.3297	-0.0131
560.5238	-0.0007
560.7179	-0.0088
560.9119	0.002
561.106	-0.0019
561.3	0.0003
561.494	-0.0065
561.688	-0.0055
561.882	-0.0095
562.076	-0.0054
562.2699	-0.0008
562.4639	0.0037
562.6578	0.0014
562.8517	-0.0046
563.0456	0.0053
563.2395	-0.0008
563.4333	-0.0033
563.6272	0.0029
563.821	-0.0086
564.0148	-0.0043
564.2086	-0.0109
564.4024	-0.0033
564.5961	-0.0089
564.7899	-0.0028
564.9836	-0.0081
565.1773	-0.005
565.371	-0.0009
565.5647	0.0015
565.7584	0.0022
565.952	0.0014
566.1456	-0.008
566.3393	-0.0043
566.5329	-0.0052
566.7264	-0.0054
566.92	-0.0079
567.1136	0.0008
567.3071	-0.0058
567.5006	0.0023
567.6941	0.0042
567.8876	-0.003
568.0811	-0.0058
568.2745	-0.0009
568.468	0.0071
568.6614	-0.0004
568.8548	-0.002
569.0482	-0.0016
569.2416	-0.0034
569.4349	-0.0051
569.6283	0.0018
569.8216	0.0007
570.0149	-0.009
570.2082	0.0047
570.4015	0.0078
570.5947	0.0071
570.788	0.003
570.9812	-0.0023
571.1744	-0.0014
571.3676	-0.0123
571.5608	-0.0092
571.754	0.0016
571.9471	0.0031
572.1402	0.0021
572.3333	0.0014
572.5264	-0.0072
572.7195	0
572.9126	-0.0025
573.1057	0.0024
573.2987	-0.007
573.4917	0.005
573.6847	-0.0152
573.8777	0.0033
574.0707	0.0046
574.2636	-0.0005
574.4566	-0.0061
574.6495	0.0054
574.8424	-0.0006
575.0353	-0.0041
575.2281	0.0056
575.421	0.0058
575.6138	-0.0007
575.8067	0.0006
575.9995	0.0005
576.1923	0.003
576.385	0.0004
576.5778	-0.0028
576.7706	-0.006
576.9633	0.0002
577.156	-0.0014
577.3487	0.0011
577.5414	-0.0016
577.734	-0.008
577.9267	0.0029
578.1193	-0.0068
578.3119	-0.0066
578.5045	0.0005
578.6971	0.0036
578.8897	0.0079
579.0822	-0.0021
579.2747	0.0005
579.4673	-0.0078
579.6598	-0.0046
579.8522	-0
580.0447	-0.0006
580.2372	-0.0009
580.4296	0.0048
580.622	-0.0009
580.8144	0.0005
581.0068	-0.0063
581.1992	-0.0076
581.3915	-0.0059
581.5839	-0.0029
581.7762	-0.0099
581.9685	0.0017
582.1608	0.002
582.353	0.0009
582.5453	-0.0049
582.7375	0.0018
582.9298	0.0008
583.122	-0.0005
583.3142	0.0005
583.5063	0.0038
583.6985	-0.0049
583.8906	-0.0002
584.0827	-0.004
584.2749	-0.0011
584.4669	0.0004
584.659	-0.0031
584.8511	-0.0024
585.0431	-0.0037
585.2352	0.0037
585.4272	-0.0039
585.6192	0.0016
585.8111	0.002
586.0031	0.0018
586.195	-0.0066
586.387	0.0049
586.5789	0.0025
586.7708	-0.0014
586.9627	-0.0038
587.1545	-0.0048
587.3464	-0.0024
587.5382	-0.0018
587.73	-0.0005
587.9218	0.0024
588.1136	0.0019
588.3053	0.0046
588.4971	-0.0075
588.6888	-0.0039
588.8805	-0.0036
589.0722	-0.001
589.2639	-0.0012
589.4556	-0.0015
589.6472	0.0004
589.8389	-0.0103
590.0305	-0.0085
590.2221	0.0013
590.4137	-0.0105
590.6052	0.0024
590.7968	-0.0016
590.9883	0.0006
591.1798	0.0015
591.3713	0.0013
591.5628	0.002
591.7543	0.0027
591.9458	0.0032
592.1372	0.0054
592.3286	0.0081
592.52	0.007
592.7114	0.0012
592.9028	-0.0017
593.0941	-0.003
593.2855	-0.003
593.4768	-0.0047
593.6681	-0.0015
593.8594	-0.006
594.0506	-0.0011
594.2419	0.0118
594.4331	0.0034
594.6244	-0.0002
594.8156	-0.0048
595.0067	0.0001
595.1979	-0.0013
595.3891	0.0069
595.5802	0.0005
595.7713	0.0004
595.9624	-0.0044
596.1535	0.0037
596.3446	0.0003
596.5357	-0.0042
596.7267	0.0048
596.9177	-0.006
597.1087	-0.0047
597.2997	-0.0072
597.4907	0.0008
597.6817	-0.0013
597.8726	0.0014
598.0635	-0.001
598.2544	-0.0023
598.4453	-0.0099
598.6362	-0.0039
598.827	-0.0039
599.0179	0.005
599.2087	-0.0035
599.3995	0.0016
599.5903	0.0044
599.7811	-0.0024
599.9718	-0.0038
600.1626	-0.0009
600.3533	-0.0025
600.544	0.0002
600.7347	0.0039
600.9254	0.0011
601.116	-0.0065
601.3067	-0.0041
601.4973	-0.0062
601.6879	0.005
601.8785	-0.0018
602.0691	0.0026
602.2596	-0.0013
602.4502	-0.0002
602.6407	0.0029
602.8312	-0.0028
603.0217	-0.0002
603.2122	-0.0044
603.4027	-0.0014
603.5931	0.0029
603.7835	-0.0057
603.9739	-0.0028
604.1643	-0.0028
604.3547	-0.0035
604.5451	0.0071
604.7354	-0.0022
604.9257	0.001
605.116	-0.0056
605.3063	-0.0004
605.4966	0.0093
605.6869	-0.0016
605.8771	0.0085
606.0673	0.0085
606.2575	0.0047
606.4477	0.0094
606.6379	0.0042
606.8281	-0.0036
607.0182	-0.0019
607.2083	0.0105
607.3985	0.0022
607.5885	0.0008
607.7786	0.0019
607.9687	-0.0034
608.1587	0.0032
608.3488	0.0012
608.5388	0.0016
608.7288	-0.0027
608.9187	-0.0038
609.1087	-0.0018
609.2986	-0.0071
609.4886	-0.0005
609.6785	0.004
609.8684	0.0043
610.0582	0.0095
610.2481	-0.0006
610.4379	0.0005
610.6278	-0.0042
610.8176	-0.0002
611.0074	-0.0068
611.1971	-0.0047
611.3869	-0.0047
611.5766	0.0025
611.7664	0.0047
611.9561	0.0019
612.1458	0.001
612.3354	-0.0064
612.5251	-0.0018
612.7147	0.0063
612.9044	0.0068
613.094	-0.0056
613.2836	-0.0013
613.4731	0.0008
613.6627	-0.0041
613.8522	-0.0018
614.0417	0.0005
614.2313	-0.0055
614.4207	-0.0137
614.6102	0.0001
614.7997	-0.006
614.9891	-0.0073
615.1785	-0.0009
615.3679	-0.003
615.5573	0.0069
615.7467	-0.0038
615.9361	-0.0067
616.1254	-0
616.3147	0.0022
616.504	0.0028
616.6933	0.0016
616.8826	0.0033
617.0718	0.0061
617.2611	0.0018
617.4503	0.0008
617.6395	-0.0012
617.8287	0.0014
618.0179	-0.0031
618.207	0.017
618.3961	0.004
618.5853	-0.0025
618.7744	0.0103
618.9634	0.0017
619.1525	0.0035
619.3416	0.001
619.5306	0.0027
619.7196	0.0021
619.9086	-0.0024
620.0976	0.0055
620.2866	0.0028
620.4755	0.0042
620.6645	-0.0005
620.8534	0.006
621.0423	0.0087
621.2312	0.0074
621.42	0.0027
621.6089	-0.0022
621.7977	0.0103
621.9865	-0.009
622.1753	0.005
622.3641	-0.0006
622.5529	0.0053
622.7416	0.0083
622.9303	-0.0049
623.1191	0.0016
623.3078	-0.0026
623.4964	0.0067
623.6851	-0.0019
623.8737	0.0026
624.0624	0.0031
624.251	-0.0018
624.4396	0.0022
624.6282	-0.0021
624.8167	0.0038
625.0053	0.0008
625.1938	0.005
625.3823	0.0003
625.5708	0.0025
625.7593	-0.0026
625.9477	-0.0063
626.1362	-0.0016
626.3246	0.0008
626.513	0.0009
626.7014	0.0012
626.8898	-0.0007
627.0781	0.0038
627.2665	-0.0032
627.4548	0.0072
627.6431	0.0019
627.8314	-0.0014
628.0197	0.009
628.2079	0.001
628.3962	-0.0045
628.5844	0.0116
628.7726	0.0089
628.9608	0.0089
629.1489	0.0024
629.3371	0.0037
629.5252	0.0059
629.7134	0.007
629.9015	0.0005
630.0895	0.0001
630.2776	0.0031
630.4657	0.0038
630.6537	0.0015
630.8417	-0.0043
631.0297	-0.0002
631.2177	0.0042
631.4057	-0.0061
631.5936	-0.0047
631.7815	0.0024
631.9695	0.0005
632.1574	0.0098
632.3452	0.0095
632.5331	0.0011
632.7209	-0.0037
632.9088	0.0097
633.0966	0.0084
633.2844	0.002
633.4722	0.001
633.6599	0.0051
633.8477	0.0018
634.0354	0.0024
634.2231	-0.0014
634.4108	0.0025
634.5985	0.0028
634.7861	0.0052
634.9738	-0.0049
635.1614	-0.0044
635.349	-0.0015
635.5366	0.0022
635.7242	0.0022
635.9117	0.0075
636.0993	0.0008
636.2868	0.0055
636.4743	0.0046
636.6618	0.0106
636.8492	-0.0001
637.0367	-0.0005
637.2241	0.0012
637.4115	-0.0099
637.5989	-0.0025
637.7863	-0.0044
637.9737	-0.0034
638.161	0.0009
638.3484	0.0056
638.5357	0.0042
638.723	-0.0016
638.9103	0.0025
639.0975	-0.002
639.2848	-0.0015
639.472	0.0021
639.6592	0.0029
639.8464	0.0106
640.0336	0.0067
640.2208	-0.001
640.4079	0.0005
640.595	0.0001
640.7821	0.0015
640.9692	-0.006
641.1563	0.0004
641.3434	0.002
641.5304	-0.0066
641.7174	-0.0012
641.9044	-0.0066
642.0914	-0.0025
642.2784	0.0057
642.4653	0.0079
642.6523	-0.0019
642.8392	-0.0009
643.0261	-0.0031
643.213	0.0088
643.3999	-0.0025
643.5867	-0.0087
643.7735	-0.0023
643.9604	-0.0079
644.1472	-0.003
644.3339	-0.0068
644.5207	-0.0016
644.7075	-0.0056
644.8942	0.0031
645.0809	0.007
645.2676	0.0065
645.4543	-0.0048
645.6409	0.0069
645.8276	-0.0017
646.0142	0.004
646.2008	-0.0042
646.3874	-0.0043
646.574	-0.0024
646.7605	-0.0059
646.9471	-0.0119
647.1336	0.0022
647.3201	0.0053
647.5066	-0.001
647.6931	0.0119
647.8795	-0.0063
648.0659	0.0043
648.2524	0.007
648.4388	-0.0082
648.6252	-0.0003
648.8115	-0.007
648.9979	-0.0036
649.1842	-0.0007
649.3705	-0.0013
649.5568	0.0004
649.7431	0.0091
649.9294	0.0013
650.1156	0.0069
650.3018	-0.0044
650.488	0.0033
650.6742	0.0068
650.8604	0.0014
651.0466	-0.0014
651.2327	-0.0015
651.4188	0.0001
651.6049	-0.0069
651.791	-0.0028
651.9771	0.0095
652.1632	0.0082
652.3492	-0.0037
652.5352	-0.0057
652.7212	-0.008
652.9072	0.0015
653.0932	-0.0031
653.2791	-0.0108
653.465	-0.0081
653.651	-0.0077
653.8369	0
654.0227	-0.0048
654.2086	0.001
654.3944	0.0014
654.5803	0.0006
654.7661	-0.005
654.9519	-0.0013
655.1377	-0.0032
655.3234	-0.0001
655.5092	-0.0083
655.6949	-0.0062
655.8806	-0.0087
656.0663	0.0015
656.2519	0.0006
656.4376	-0.0032
656.6232	-0.0061
656.8088	-0.0069
656.9945	-0.0027
657.18	-0.0039
657.3656	0.001
657.5511	-0.0067
657.7367	-0.0013
657.9222	0.0045
658.1077	-0.0035
658.2932	-0.0006
658.4786	-0.0117
658.6641	-0.0031
658.8495	0.0025
659.0349	-0.0033
659.2203	0.0022
659.4057	0.0023
659.591	0.0002
659.7764	-0.0042
659.9617	-0.0025
660.147	-0.0043
660.3323	-0.0074
660.5176	0.007
660.7028	0.0003
660.888	0.0005
661.0733	0.0006
661.2585	-0.0098
661.4436	0.0011
661.6288	-0.0075
661.8139	-0.0046
661.9991	-0.001
662.1842	-0.0049
662.3693	-0.0057
662.5544	-0.0047
662.7394	-0.0089
662.9245	-0.0063
663.1095	-0.0034
663.2945	-0.004
663.4795	-0.0032
663.6644	0.0091
663.8494	-0.0011
664.0343	-0.0032
664.2193	-0.0026
664.4042	0.0051
664.589	-0.0066
664.7739	-0.0027
664.9587	-0.0061
665.1436	-0.0064
665.3284	-0.0059
665.5132	-0.0031
665.698	0.0013
665.8827	0.0076
666.0675	0.0042
666.2522	-0.0017
666.4369	0.0082
666.6216	0.0035
666.8063	-0.0024
666.9909	0.0043
667.1756	-0.0046
667.3602	0.001
667.5448	0.0014
667.7294	0.0047
667.9139	0.0005
668.0985	0.0137
668.283	-0.0003
668.4675	-0.0028
668.652	0.0036
668.8365	-0.0008
669.0209	-0.0006
669.2054	0.0101
669.3898	-0.0012
669.5742	0.0039
669.7586	0.0096
669.943	0.0031
670.1273	0.0044
670.3117	0.0064
670.496	0.0084
670.6803	0.009
670.8646	0.0026
671.0488	-0.0034
671.2331	0.0075
671.4173	0.0027
671.6015	0.0053
671.7857	0.0058
671.9699	0.0085
672.1541	0.0111
672.3382	0.0052
672.5223	0.0006
672.7064	0.0036
672.8905	0.0091
673.0746	0.0044
673.2587	-0.0011
673.4427	0.0061
673.6267	0.0044
673.8107	0.008
673.9947	-0.0027
674.1787	0.0024
674.3626	-0.0028
674.5465	0.0036
674.7304	-0.0014
674.9143	0.0035
675.0982	0.0068
675.2821	-0.01
675.4659	0.002
675.6497	0.0015
675.8335	-0.0077
676.0173	-0.004
676.2011	0.0044
676.3849	0.0021
676.5686	-0.0009
676.7523	0.0047
676.936	-0.0029
677.1197	-0.004
677.3034	0.0038
677.487	0.0051
677.6706	0.0017
677.8542	0.001
678.0378	0.0051
678.2214	0.0047
678.405	-0.0029
678.5885	-0.0066
678.772	-0.0029
678.9555	-0.0032
679.139	-0.0059
679.3225	-0.0002
679.5059	0.0016
679.6894	0.0057
679.8728	-0.0008
680.0562	-0.0083
680.2395	-0.0113
680.4229	-0.0027
680.6062	-0.0024
680.7896	-0.0079
680.9729	-0.0102
681.1562	0.0053
681.3394	0.0037
681.5227	-0.0083
681.7059	0.0044
681.8891	-0.0072
682.0723	0.009
682.2555	0.0027
682.4387	-0.0035
682.6218	-0.0096
682.805	0.0059
682.9881	-0.0012
683.1712	-0.0029
683.3542	-0.0043
683.5373	0.0029
683.7203	-0.0009
683.9034	-0.0005
684.0864	-0.0041
684.2694	-0.0082
684.4523	0.0022
684.6353	-0.0062
684.8182	-0.0053
685.0011	-0.002
685.184	-0.0019
685.3669	-0.0012
685.5498	0.003
685.7326	0.0011
685.9154	-0.0051
686.0982	0.0118
686.281	0.0051
686.4638	0.0043
686.6465	0.0089
686.8293	0.0019
687.012	0.0015
687.1947	-0.0087
687.3774	0.0041
687.56	-0.0056
687.7427	-0.005
687.9253	-0.0063
688.1079	0.0006
688.2905	0.0038
688.4731	-0.0061
688.6556	-0.0051
688.8382	0.0047
689.0207	0.0001
689.2032	-0.0031
689.3857	-0.0108
689.5681	-0.0005
689.7506	-0.0014
689.933	-0.0029
690.1154	0.0022
690.2978	0.0012
690.4802	-0.0025
690.6626	-0.0165
690.8449	-0.0058
691.0272	0.0016
691.2095	-0.0117
691.3918	-0.005
691.5741	-0.0008
691.7563	-0.0031
691.9386	0.0042
692.1208	0.0022
692.303	-0.0026
692.4852	-0.0032
692.6673	0.0014
692.8495	-0.0034
693.0316	0.0024
693.2137	-0.0008
693.3958	0.0023
693.5778	-0.0016
693.7599	-0.001
693.9419	0.0048
694.1239	0.0019
694.3059	-0.0036
694.4879	0.004
694.6699	0.0122
694.8518	0.0079
695.0337	-0.0015
695.2157	0.006
695.3975	-0.0027
695.5794	0.0015
695.7613	0.0007
695.9431	-0.0019
696.1249	0.0033
696.3067	0.0014
696.4885	0.0044
696.6703	-0.0038
696.852	0.0002
697.0337	0.0002
697.2154	-0.0057
697.3971	0.0003
697.5788	-0.0001
697.7605	-0.0069
697.9421	0.0042
698.1237	-0.0097
698.3053	-0.0002
698.4869	0.001
698.6685	-0.0143
698.85	0.0011
699.0315	0.0101
699.213	-0.0037
699.3945	-0.0003
699.576	0.0031
699.7575	0.0114
699.9389	0.0085
700.1203	0.0055
700.3017	-0.0027
700.4831	-0.0028
700.6645	0.0082
700.8458	0.0073
701.0271	0.0077
701.2084	0.0124
701.3897	-0.0015
701.571	0.0109
701.7523	-0.0007
701.9335	-0.0007
702.1147	0.0021
702.2959	0.0021
702.4771	-0.0025
702.6583	-0.0015
702.8394	-0.0088
703.0205	0.0029
703.2016	-0.0025
703.3827	0.007
703.5638	0.0133
703.7449	0.0017
703.9259	0.0101
704.1069	-0.0013
704.2879	0.0071
704.4689	0.0038
704.6499	0.001
704.8308	-0.0003
705.0117	0.0016
705.1927	0.0052
705.3735	-0.0043
705.5544	0.0028
705.7353	-0.0033
705.9161	-0.0006
706.0969	-0.0124
706.2777	-0.0074
706.4585	-0.003
706.6393	0.0042
706.82	-0.0064
707.0007	0.0068
707.1815	0.0071
707.3621	0.009
707.5428	0.0077
707.7235	0.0079
707.9041	0.0056
708.0847	-0.0084
708.2653	-0.0024
708.4459	-0.0119
708.6265	0.0079
708.807	0.0003
708.9875	-0.0029
709.168	-0.0074
709.3485	0.004
709.529	-0.0046
709.7095	-0.0165
709.8899	0.0016
710.0703	-0.0133
710.2507	-0.0035
710.4311	-0.0023
710.6115	-0.0109
710.7918	-0.0063
710.9721	-0.003
711.1524	-0.0069
711.3327	-0.0063
711.513	-0.008
711.6932	0.0019
711.8735	0.0073
712.0537	0.0011
712.2339	-0.0057
712.4141	-0.0089
712.5942	-0.0072
712.7744	-0.004
712.9545	-0.0085
713.1346	-0.0077
713.3147	-0.0134
713.4947	-0.009
713.6748	-0.005
713.8548	0.0026
714.0348	-0.0066
714.2148	-0.0029
714.3948	0.0066
714.5748	-0.0039
714.7547	-0.0038
714.9346	0.0055
715.1145	-0.0029
715.2944	-0.0065
715.4743	-0.0006
715.6541	-0.0007
715.834	-0.0036
716.0138	-0.0018
716.1936	-0.0135
716.3733	-0.0025
716.5531	0.0024
716.7328	-0.0047
716.9126	-0.0035
717.0923	0.0001
717.2719	-0.0048
717.4516	-0.0043
717.6312	0.0025
717.8109	-0.002
717.9905	0.009
718.1701	-0.0003
718.3496	-0.011
718.5292	0.0024
718.7087	-0.0004
718.8882	0.0014
719.0677	0.0047
719.2472	-0.004
719.4267	-0.0002
719.6061	0.0042
719.7856	0.0037
719.965	0.0027
720.1443	-0.0086
720.3237	0.0127
720.5031	0.0016
720.6824	0.0118
720.8617	-0.0061
721.041	0.0143
721.2203	0.013
721.3995	0.0059
721.5788	0.0086
721.758	0.0048
721.9372	0.0027
722.1164	0.0059
722.2956	0.01
722.4747	0.0006
722.6538	0.0021
722.8329	0.0161
723.012	0.008
723.1911	-0.0023
723.3702	0.002
723.5492	-0.0001
723.7282	-0.0034
723.9072	0.0023
724.0862	-0.0075
724.2652	-0.0028
724.4441	-0.0085
724.623	-0.0007
724.8019	0.0013
724.9808	0.0078
725.1597	-0.0046
725.3385	0.013
725.5174	0.0081
725.6962	-0.0106
725.875	-0.0049
726.0538	-0.001
726.2325	-0.0003
726.4112	0.0084
726.59	-0.0069
726.7687	-0.0024
726.9474	0.0055
727.126	-0.0007
727.3047	-0.0059
727.4833	-0.0008
727.6619	-0.0056
727.8405	-0.0078
728.0191	-0.0066
728.1976	0.0019
728.3762	-0.0032
728.5547	0.0072
728.7332	-0.0063
728.9116	-0.0039
729.0901	0.0072
729.2686	0.0013
729.447	-0.0069
729.6254	-0.0075
729.8038	-0.0042
729.9821	-0.0137
730.1605	-0.004
730.3388	-0.0019
730.5171	-0.003
730.6954	-0.0048
730.8737	0.0037
731.0519	0.005
731.2302	0.0061
731.4084	0.0058
731.5866	0.0059
731.7648	-0.0001
731.9429	0.0031
732.1211	-0.0068
732.2992	-0.002
732.4773	0.0069
732.6554	0.0043
732.8335	-0.0038
733.0115	0.0106
733.1896	0.0169
733.3676	-0.0058
733.5456	0.0066
733.7235	0.0075
733.9015	-0.004
734.0794	0.0059
734.2574	-0.0026
734.4353	0.0036
734.6131	0.0036
734.791	0.0066
734.9689	-0.0033
735.1467	-0.0011
735.3245	-0.0056
735.5023	-0.0112
735.68	-0.0068
735.8578	0.0049
736.0355	-0.0224
736.2132	-0.0043
736.3909	-0.0026
736.5686	-0.0126
736.7463	-0.0008
736.9239	-0.0072
737.1015	0.0023
737.2791	0.0015
737.4567	0.003
737.6343	-0.0064
737.8118	-0.0041
737.9894	-0.0009
738.1669	-0.0081
738.3444	-0.0054
738.5218	-0.0052
738.6993	-0.0024
738.8767	-0.001
739.0541	0.0034
739.2315	-0.0058
739.4089	-0.0026
739.5863	-0.0008
739.7636	-0.0031
739.9409	-0.0013
740.1182	0.007
740.2955	0.0026
740.4728	0.0031
740.65	-0.0026
740.8272	-0.0028
741.0044	-0.0096
741.1816	-0.0084
741.3588	-0.0106
741.5359	-0.0128
741.7131	-0.0129
741.8902	-0.0051
742.0673	-0.0019
742.2444	-0.0182
742.4214	-0.0028
742.5985	-0.0096
742.7755	-0.0038
742.9525	-0.0178
743.1295	-0.0031
743.3064	-0.0024
743.4834	-0.0029
743.6603	-0.003
743.8372	-0.0005
744.0141	0.006
744.191	-0.0003
744.3678	0.0031
744.5446	-0.0012
744.7215	0.0032
744.8982	-0.0004
745.075	-0.0113
745.2518	-0.002
745.4285	0.0059
745.6052	-0.0103
745.7819	0.0013
745.9586	0.0015
746.1353	0.0004
746.3119	0.0047
746.4885	-0.0052
746.6651	-0.0023
746.8417	0.0039
747.0183	0.0021
747.1948	0.0065
747.3714	0.009
747.5479	0.0054
747.7244	-0.0054
747.9008	0.005
748.0773	-0.0032
748.2537	0.0031
748.4301	-0.0078
748.6065	0.0055
748.7829	0.0111
748.9593	0.0002
749.1356	0.0006
749.3119	0.0037
749.4882	-0.0068
749.6645	0.0034
749.8408	-0.0057
750.017	-0.0031
750.1933	0.0087
750.3695	-0.0048
750.5457	0.0124
750.7218	-0.0006
750.898	0.0068
751.0741	-0.0036
751.2502	0.0005
751.4263	0.0021
751.6024	0.0045
751.7784	-0.0004
751.9545	-0.0065
752.1305	-0.0025
752.3065	-0.0044
752.4825	0.001
752.6584	-0.0019
752.8344	-0.0138
753.0103	-0.0092
753.1862	-0.0066
753.3621	-0.0089
753.5379	-0.0062
753.7138	-0.0049
753.8896	0.003
754.0654	-0.0045
754.2412	-0.0008
754.417	-0.0009
754.5927	-0.0063
754.7685	0.0017
754.9442	0.0008
755.1199	0.0103
755.2956	-0.0078
755.4712	0.0051
755.6469	-0.002
755.8225	-0.0029
755.9981	-0.0087
756.1736	0.0022
756.3492	-0.0014
756.5248	-0.0038
756.7003	-0.0061
756.8758	0.0036
757.0513	-0.0023
757.2267	-0.004
757.4022	0.0025
757.5776	-0.0055
757.753	0.0017
757.9284	-0.0008
758.1038	0.0149
758.2791	-0.0008
758.4545	-0.0075
758.6298	-0.0005
758.8051	0.0096
758.9803	0.0027
759.1556	0.0075
759.3308	0.0039
759.506	0.0127
759.6812	0.0041
759.8564	-0.0017
760.0316	0.0058
760.2067	0.0097
760.3819	0.0101
760.557	0.0067
760.732	0.0013
760.9071	-0.0037
761.0821	-0.0067
761.2572	-0.0034
761.4322	-0.0026
761.6072	-0.0102
761.7821	-0.01
761.9571	0.005
762.132	-0.0028
762.3069	-0.015
762.4818	-0.0099
762.6567	0.0043
762.8316	-0.0051
763.0064	-0.0034
763.1812	-0.0032
763.356	-0.0124
763.5308	-0.0008
763.7055	-0.0027
763.8803	-0.0025
764.055	-0.0044
764.2297	0.005
764.4044	0.0026
764.579	-0.0073
764.7537	-0.0137
764.9283	0.0078
765.1029	-0.0092
765.2775	-0.0055
765.4521	-0.0042
765.6266	0.0048
765.8011	-0.0012
765.9756	-0.0047
766.1501	0.0125
766.3246	-0.0044
766.4991	-0.0007
766.6735	-0.0004
766.8479	-0.0163
767.0223	0.0109
767.1967	0.0001
767.371	0.0067
767.5454	-0.0049
767.7197	-0.0016
767.894	-0.0005
768.0683	-0.0089
768.2425	0.0072
768.4168	0.0036
768.591	0.0079
768.7652	0.0092
768.9394	0.0086
769.1135	0.0145
769.2877	0.0054
769.4618	0.0001
769.6359	0.0014
769.81	0.0025
769.984	-0.0065
770.1581	-0.0053
770.3321	-0.0038
770.5061	0.0039
770.6801	0.0005
770.8541	0.0042
771.028	0.0129
771.202	-0.0135
771.3759	0.0067
771.5498	-0.0111
771.7236	0.0001
771.8975	0.0004
772.0713	0.0098
772.2451	0.0042
772.4189	0.0201
772.5927	0.0171
772.7665	0.004
772.9402	-0.0024
773.1139	0.0042
773.2876	-0.0083
773.4613	0.0014
773.635	0.0236
773.8086	-0.0025
773.9822	0.005
774.1558	0.0027
774.3294	-0.0144
774.503	0.003
774.6765	0.0015
774.8501	0.0033
775.0236	0.0088
775.1971	0.0087
775.3705	0.0023
775.544	0.0085
775.7174	-0.0085
775.8908	0.0099
776.0642	0.002
776.2376	0.002
776.4109	-0.0097
776.5843	0.0041
776.7576	0.0159
776.9309	0.017
777.1041	0.0059
777.2774	0.0075
777.4506	0.0112
777.6238	-0.006
777.797	0.0036
777.9702	-0.0044
778.1434	-0.0039
778.3165	-0.0051
778.4896	-0.0117
778.6627	0.0021
778.8358	0.002
779.0089	0.0014
779.1819	-0.007
779.3549	0.0159
779.5279	0.0101
779.7009	0.0058
779.8739	0.0048
780.0468	0.0001
780.2197	-0.0011
780.3926	0.0009
780.5655	-0.0079
780.7384	-0.0057
780.9112	0.0065
781.0841	-0.0117
781.2569	0.0095
781.4297	0.0018
781.6024	0.0019
781.7752	0.0142
781.9479	0.0156
782.1206	0.0054
782.2933	-0.001
782.466	-0.0002
782.6386	0.0076
782.8113	0.015
782.9839	0.0066
783.1565	0.0265
783.329	0.0027
783.5016	0.0019
783.6741	0.0035
783.8466	0.003
784.0191	0.0033
784.1916	-0.0047
784.3641	0.0011
784.5365	-0.0045
784.7089	-0.0065
784.8813	-0.0015
785.0537	0.0026
785.2261	-0.0072
785.3984	-0.0083
785.5707	-0.0013
785.743	-0.0094
785.9153	0.0028
786.0876	-0.0048
786.2598	-0.0011
786.432	-0.0118
786.6042	0.0068
786.7764	0.0004
786.9486	0.0109
787.1207	-0.0094
787.2928	0.0208
787.4649	0.0044
787.637	0.0076
787.8091	0.001
787.9811	-0.0058
788.1532	0.0122
788.3252	0.0116
788.4972	-0.0097
788.6691	-0.0053
788.8411	-0.0035
789.013	0.0061
789.1849	0.0076
789.3568	0.006
789.5287	0.0041
789.7005	-0.0083
789.8723	0.0074
790.0442	0.0291
790.2159	0.0029
790.3877	0.004
790.5595	-0.009
790.7312	0.0053
790.9029	0.0081
791.0746	0.0022
791.2463	-0.0018
791.4179	-0.0011
791.5896	-0.0076
791.7612	0.0167
791.9328	0.0151
792.1044	0.0029
792.2759	-0.0045
792.4474	-0.0163
792.619	-0.0001
792.7905	0.008
792.9619	0.0064
793.1334	0.0138
793.3048	0.012
793.4762	0.0133
793.6476	0.0194
793.819	-0.0044
793.9904	0.0154
794.1617	-0.0045
794.333	0.003
794.5043	-0.0024
794.6756	-0.0047
794.8469	0.0144
795.0181	0.0099
795.1893	-0.0007
795.3605	0.008
795.5317	0.0044
795.7029	0.0062
795.874	0.0162
796.0452	-0.0087
796.2163	0.003
796.3873	0.0134
796.5584	0.0062
796.7294	-0.0037
796.9005	0.0058
797.0715	-0.0012
797.2425	-0.0192
797.4134	0.0026
797.5844	0.0256
797.7553	-0.0028
797.9262	0.0155
798.0971	-0.0062
798.2679	-0.0044
798.4388	-0.0019
798.6096	0.0017
798.7804	-0.0015
798.9512	-0.0033
799.122	0.0059
799.2927	0.0226
799.4635	0.0166
799.6342	-0.0115
799.8049	0.0059
799.9755	0.0008
800.1462	-0.005
800.3168	0.0252
800.4874	0.0124
800.658	0.0216
800.8286	0.0077
800.9991	0.0281
801.1696	0.0055
801.3402	0.0043
801.5106	0.013
801.6811	0.0137
801.8516	0.0313
802.022	0.0223
802.1924	0.0141
802.3628	0.0149
802.5332	0.0255
802.7035	0.0399
802.8739	-0.0077
803.0442	-0.0098
803.2145	0.0062
803.3847	-0.0206
803.555	0
803.7252	-0.0155
803.8954	-0.004
804.0656	-0.0162
804.2358	0.0178
804.4059	0.0191
804.5761	0.0169
804.7462	0.0095
804.9163	0.0361
805.0864	-0.0022
805.2564	0.0043
805.4264	0.0168
805.5965	0.0132
805.7665	0.018
805.9364	0.0125
806.1064	0.0276
806.2763	0.0056
806.4462	0.0332
806.6161	-0.0017
806.786	0.0293
806.9559	0.0069
807.1257	-0.0053
807.2955	0.0192
807.4653	0.009
807.6351	-0.0047
807.8048	-0.0081
807.9746	0.0341
808.1443	0.026
808.314	0.0034
808.4837	0.0188
808.6533	0.0283
808.8229	0.015
808.9926	-0.0037
809.1622	0.0149
809.3317	0.0018
809.5013	0.0247
809.6708	0.0101
809.8403	0.0299
810.0098	0.0291
810.1793	0.0165
810.3488	0.0079
810.5182	0.0158
810.6876	0.0199
810.857	-0.011
811.0264	0.0349
811.1958	0.0221
811.3651	0.0412
811.5344	0.0104
811.7037	0.0098
811.873	0.0063
812.0422	0.0074
812.2115	0.0082
812.3807	0.0104
812.5499	0.0224
812.7191	0.0092
812.8882	0.0043
813.0574	0.0118
813.2265	0.0246
813.3956	0.0168
813.5646	-0.0025
813.7337	0.0142
813.9027	0.0397
814.0718	0.0252
814.2407	0.0516
814.4097	0.0073
814.5787	0.0077
814.7476	0.0173
814.9165	0.0119
815.0854	-0.0015
815.2543	0.0286
815.4232	0.0192
815.592	0.0411
815.7608	0.0096
815.9296	0.0445
816.0984	0.0137
816.2671	0.0231
816.4359	0.017
816.6046	-0.0086
816.7733	0.0181
816.942	-0.0034
817.1106	0.0156
817.2793	0.0166
817.4479	0.0109
817.6165	0.0106
817.785	0.0171
817.9536	0.0229
818.1221	0.0214
818.2906	0.0078
818.4591	0.0215
818.6276	0.0211
818.7961	0.0087
818.9645	0.0166
819.1329	0.025
819.3013	0.0294
819.4697	0.0418
819.638	0.0101
819.8064	0.0299
819.9747	0.0359
820.143	0.0058
820.3113	0.0092
820.4795	0.0376
820.6477	0.0208
820.816	0.0092
820.9842	0.0084
821.1523	0.0128
821.3205	-0.0406
821.4886	0.0147
821.6567	0.016
821.8248	0.0452
821.9929	0.0374
822.1609	0.0126
822.329	0.0194
822.497	0.0463
822.665	0.0048
822.833	0.0259
823.0009	0.0405
823.1688	0.0252
823.3367	0.0224
823.5046	0.0426
823.6725	0.0429
823.8404	0.0088
824.0082	0.0229
824.176	0.0349
824.3438	0.0221
824.5116	-0.0083
824.6793	0.0155
824.847	-0.0045
825.0147	0.037
825.1824	0.0441
825.3501	0.0674
825.5177	-0.0144
825.6854	-0.0279
825.853	0.0051
826.0206	0.024
826.1881	0.035
826.3557	-0.0362
826.5232	0.0128
826.6907	-0.0163
826.8582	0.0092
827.0257	0.0042
827.1931	0.0338
827.3605	0.0087
827.528	0.0038
827.6953	0.0176
827.8627	0.0014
828.03	0.0165
828.1974	0.0373
828.3647	-0.0274
828.532	-0.0314
828.6992	-0.0145
828.8665	0.0146
829.0337	-0.009
829.2009	0.0316
829.3681	0.0114
829.5352	0.0187
829.7024	-0.0341
829.8695	-0.0164
830.0366	0.0671
830.2037	0.0021
830.3707	0.0213
830.5378	-0.0141
830.7048	-0.0186
830.8718	-0.017
831.0388	-0.0068
831.2057	0.0557
831.3727	0.062
831.5396	-0.0237
831.7065	-0.0022
831.8734	0.0343
832.0402	-0.0076
832.2071	0.0197
832.3739	0.0067
832.5407	0.0097
832.7075	0.0007
832.8742	-0.0144
833.041	-0.0072
833.2077	0.0304
833.3744	0.0319
833.541	0.0398
833.7077	0.0032
833.8743	-0.0006
834.0409	0.035
834.2075	-0.0056
834.3741	0.0125
834.5407	0.0379
834.7072	0.0001
834.8737	-0.0065
835.0402	-0.004
835.2067	0.0432
835.3731	0.0323
835.5395	0.0395
835.706	0.002
835.8723	0.026
836.0387	-0.006
836.2051	-0.0498
836.3714	0.0014
836.5377	0.0389
836.704	-0.0167
836.8703	0.0126
837.0365	0.0008
837.2027	0.0178
837.3689	0.0335
837.5351	0.0232
837.7013	0.0078
837.8674	-0.0376
838.0335	-0.0084
838.1997	-0.0198
838.3657	0.0036
838.5318	-0.0064
838.6978	0.0424
838.8639	0.0159
839.0299	-0.0201
839.1958	0.008
839.3618	0.0509
839.5277	-0.0289
839.6937	0.0353
839.8596	-0.0331
840.0254	0.0274
840.1913	0.0362
840.3571	0.0318
840.523	-0.0184
840.6888	0.0134
840.8545	-0.0642
841.0203	0.0262
841.186	0.0567
841.3517	0.0326
841.5174	0.0107
841.6831	-0.012
841.8488	-0.0451
842.0144	-0.009
842.18	0.0488
842.3456	0.0893
842.5112	0.0187
842.6767	-0.0019
842.8422	-0.0177
843.0077	-0.0259
843.1732	-0.0137
843.3387	-0.0155
843.5042	0.0353
843.6696	-0.0047
843.835	-0.0063
844.0004	0.0929
844.1657	0.0444
844.3311	-0.0114
844.4964	-0.0494
844.6617	0.0012
844.827	0.0059
844.9923	-0.0434
845.1575	0.0586
845.3227	0.0118
845.4879	-0.0165
845.6531	-0.0564
845.8183	-0.0354
845.9834	0.0311
846.1485	0.0259
846.3136	-0.0062
846.4787	-0.0741
846.6438	0.011
846.8088	-0.0706
846.9738	-0.0744
847.1388	-0.0165
847.3038	-0.0277
847.4687	-0.0971
847.6337	0.0495
847.7986	0.0122
847.9635	0.0151
848.1284	0.1098
848.2932	0.1245
848.458	0.0265
848.6228	0.0423
848.7876	0.0086
848.9524	-0.0425
849.1172	-0.0494
849.2819	0.0057
849.4466	-0.0865
849.6113	-0.0529
849.7759	-0.0058
849.9406	0.0396
850.1052	0.0619
850.2698	-0.0516
850.4344	-0.0057
850.599	0.0158
850.7635	0.0283
850.928	-0.0416
851.0925	0.0847
851.257	0.0201
851.4215	0.0077
851.5859	-0.0376
851.7503	0.0353
851.9147	-0.0128
852.0791	-0.0407
852.2434	-0.0649
852.4078	-0.0177
852.5721	0.0515
852.7364	0.0475
852.9007	-0.1526
853.0649	0.0002
853.2291	0.0617
853.3934	0.1099
853.5575	0.1422
853.7217	-0.0266
853.8859	-0.0499
854.05	-0.0816
854.2141	0.0028
854.3782	-0.0727
854.5423	-0.0512
854.7063	0.1283
854.8703	0.0722
855.0343	-0.0272
855.1983	-0.0923
855.3623	0.1937
855.5262	0.1196
855.6901	0.0026
855.854	0.0529
856.0179	0.1221
856.1818	0.1164
856.3456	-0.0743
856.5094	-0.1269
856.6732	-0.0212
856.837	-0.048
857.0008	0.0478
857.1645	-0.0996
857.3282	0.3294
857.4919	0.0845
857.6556	0.0571
857.8192	0.0345
857.9828	0.0676
858.1465	-0.015
858.31	-0.02
858.4736	-0.0984
858.6372	-0.1007
858.8007	-0.1855
858.9642	-0.0937
859.1277	0.0915
859.2911	0.3396
859.4546	-0.0803
859.618	-0.3133
859.7814	0.1022
859.9448	0.1026
860.1081	-0.01
860.2715	0.2834
860.4348	0.0101
860.5981	-0.0926
860.7614	0.2086
860.9246	0.0955
861.0879	0.2847
861.2511	0.1408
861.4143	-0.2552
861.5774	0.1556
861.7406	-0.089
861.9037	0.0465
862.0668	0.1797
862.2299	-0.1349
862.393	-0.1924
862.556	0.0054
862.7191	-0.2158
862.8821	0.248
863.0451	0.0288
863.208	0.1847
863.371	0.1062
863.5339	-0.1092
863.6968	0.0875
863.8597	0.2184
864.0225	0.1823
864.1854	-0.2767
864.3482	0.195
864.511	0.0717
864.6737	-0.0372
864.8365	0.484
864.9992	-0.5141
865.1619	-0.4473
865.3246	-0.184
865.4873	0.0935
865.65	-0.0565
865.8126	0.2634
865.9752	0.0774
866.1378	0.052
866.3004	-0
866.4629	0.2066
866.6254	-0
866.7879	0.1485
866.9504	0.19
867.1129	-0
867.2753	-0
867.4377	0.3053
867.6001	0.09
867.7625	0.0006
867.9249	0.8773
868.0872	-0.0079
868.2495	0.0943
868.4118	-0.2412
868.5741	-0.3785
868.7363	-0.2916
868.8986	-0
869.0608	-0.1991
869.223	0.1838
869.3851	-0.0015
869.5473	-0
869.7094	0.1219
869.8715	0.5962
870.0336	-0.776
870.1957	0.0996
870.3577	-0.2016
870.5197	-0.1262
870.6817	-0.1228
870.8437	-0.1309
871.0057	-0.6128
871.1676	-0
871.3295	0.2557
871.4914	-0.0878
871.6533	-0.3249
871.8151	-0.3365
871.977	-0
872.1388	-0
872.3006	-0
872.4623	-0
872.6241	0.2605
872.7858	0.8013
872.9475	-0.06
873.1092	0.345
873.2709	0.3243
873.4325	0.0265
873.5941	-0
873.7557	-0.0835
873.9173	-0
874.0789	-0.1846
874.2404	-0.9012
874.4019	0.4697
874.5634	0.4514
874.7249	0.1411
874.8863	0.4144
875.0478	0.1004
875.2092	-0
875.3706	0.3878
875.5319	-0.369
875.6933	0.3622
875.8546	-0
876.0159	-0.0434
876.1772	-0.1413
876.3385	-0
876.4997	0.8076
876.6609	-0.5823
876.8221	-0.5554
876.9833	-0.2903
877.1445	-0
877.3056	0.0856
877.4667	-0.4736
877.6278	-0
877.7889	-0.7545
877.9499	-0
878.111	1.7924
878.272	-0
878.433	-0.1946
878.5939	-0
878.7549	0.3257
878.9158	-0
879.0767	0.2214
879.2376	-0
879.3984	-0
879.5593	0.3431
879.7201	-0
879.8809	-0.1713
880.0417	-0
880.2024	0.762
880.3632	-0
880.5239	0.3336
880.6846	0.1172
880.8452	-2.3811
881.0059	-0
881.1665	-0.2085
881.3271	-0.178
881.4877	-0.6169
881.6483	0.1159
881.8088	-0.6241
881.9693	0.1518
882.1298	0.1518
882.2903	0.1518
