Data from MonoPyChalIsomerACN10uM380nmA_Absorbance_13-38-30-149.txt Node
Date: Fri Jul 05 13:38:30 BST 2024
User: LASERRRRR
Spectrometer: FLMT03099
Trigger mode: 0
Integration Time (sec): 1.000000E-1
Scans to average: 1
Electric dark correction enabled: true
Nonlinearity correction enabled: false
Boxcar width: 0
XAxis mode: Wavelengths
Number of Pixels in Spectrum: 3648
>>>>>Begin Spectral Data<<<<<
179.3399	-0.2362
179.5586	-0.2362
179.7771	-0.2362
179.9957	-0.0236
180.2143	-0.2241
180.4329	-0.3951
180.6514	0.3367
180.8699	-0
181.0885	0.2572
181.307	0.1078
181.5255	-0.7666
181.744	0.2906
181.9625	-0
182.181	-0
182.3994	0.3107
182.6179	1.0235
182.8363	-0.2935
183.0547	0.4042
183.2732	0.2113
183.4916	0.1083
183.71	0.1738
183.9284	0.2724
184.1467	0.1151
184.3651	-0.0336
184.5835	0.1941
184.8018	0.2334
185.0201	0.102
185.2385	0.3122
185.4568	1.0352
185.6751	0.505
185.8934	0.2526
186.1117	0.313
186.3299	0.0612
186.5482	-0.0519
186.7664	-0.0466
186.9847	-0.1535
187.2029	0.0189
187.4211	0.2156
187.6393	0.6972
187.8575	-0.0193
188.0757	0.2601
188.2939	0.2121
188.512	1.5576
188.7302	-0.0718
188.9483	0.3942
189.1665	0.1421
189.3846	0.4367
189.6027	0.3121
189.8208	0.1946
190.0389	0.1629
190.257	0.1541
190.475	0.2918
190.6931	0.3912
190.9111	0.3807
191.1292	0.3042
191.3472	0.4591
191.5652	0.3204
191.7832	0.149
192.0012	0.422
192.2192	0.3065
192.4371	0.3278
192.6551	0.5063
192.873	0.6038
193.091	0.4562
193.3089	-0
193.5268	0.5766
193.7447	0.5311
193.9626	0.5892
194.1805	0.7684
194.3984	0.9359
194.6162	0.6075
194.8341	0.695
195.0519	0.7019
195.2697	0.7428
195.4875	0.646
195.7054	0.7408
195.9231	0.7496
196.1409	0.9121
196.3587	0.8103
196.5765	0.8211
196.7942	0.7408
197.012	0.8349
197.2297	0.7667
197.4474	0.7251
197.6651	0.8007
197.8828	0.6815
198.1005	0.7435
198.3182	1.2571
198.5358	0.9372
198.7535	0.7798
198.9711	0.7098
199.1888	0.8033
199.4064	0.9225
199.624	1.2302
199.8416	0.9297
200.0592	0.8566
200.2767	0.8388
200.4943	1.1521
200.7119	1.0355
200.9294	0.826
201.1469	0.7985
201.3645	0.6947
201.582	0.8544
201.7995	0.7685
202.017	0.7169
202.2344	0.7279
202.4519	0.9679
202.6694	0.9453
202.8868	0.7687
203.1042	0.9479
203.3217	1.2883
203.5391	0.9486
203.7565	0.6943
203.9739	1.0146
204.1913	0.7505
204.4086	0.9883
204.626	1.0583
204.8433	0.8212
205.0607	0.8179
205.278	0.9192
205.4953	0.75
205.7126	0.8386
205.9299	1.0688
206.1472	0.8517
206.3644	0.8832
206.5817	0.7868
206.7989	0.8902
207.0162	0.7841
207.2334	0.8215
207.4506	0.8519
207.6678	0.8156
207.885	0.7107
208.1022	0.8047
208.3194	0.812
208.5365	0.8142
208.7537	0.86
208.9708	0.7803
209.1879	0.8273
209.405	0.9944
209.6222	1.0978
209.8392	0.8329
210.0563	0.8095
210.2734	0.9079
210.4905	0.8207
210.7075	0.8241
210.9245	0.792
211.1416	0.8856
211.3586	0.854
211.5756	0.7321
211.7926	0.8157
212.0096	0.7377
212.2265	0.7726
212.4435	0.8354
212.6604	0.8874
212.8774	0.7937
213.0943	0.8087
213.3112	0.6779
213.5281	0.7858
213.745	0.65
213.9619	0.7788
214.1788	0.6943
214.3956	0.7763
214.6125	0.6996
214.8293	0.6783
215.0461	0.7473
215.2629	0.6942
215.4798	0.7445
215.6965	0.6315
215.9133	0.7102
216.1301	0.6273
216.3469	0.6998
216.5636	0.6766
216.7803	0.6117
216.9971	0.7022
217.2138	0.5834
217.4305	0.6305
217.6472	0.639
217.8639	0.6655
218.0805	0.6629
218.2972	0.5999
218.5138	0.5873
218.7305	0.5704
218.9471	0.5617
219.1637	0.5729
219.3803	0.5603
219.5969	0.5414
219.8135	0.5368
220.0301	0.5586
220.2466	0.5756
220.4632	0.504
220.6797	0.4997
220.8962	0.52
221.1127	0.54
221.3292	0.5366
221.5457	0.5056
221.7622	0.527
221.9787	0.5134
222.1951	0.5072
222.4116	0.5361
222.628	0.5266
222.8444	0.5435
223.0608	0.5053
223.2772	0.5089
223.4936	0.5475
223.71	0.5392
223.9264	0.5206
224.1427	0.5239
224.3591	0.5254
224.5754	0.5653
224.7917	0.5347
225.008	0.5434
225.2243	0.5079
225.4406	0.559
225.6569	0.5251
225.8732	0.5224
226.0894	0.4979
226.3057	0.5653
226.5219	0.5422
226.7381	0.5274
226.9543	0.5486
227.1705	0.5699
227.3867	0.5353
227.6029	0.5674
227.8191	0.5417
228.0352	0.5338
228.2513	0.5977
228.4675	0.5679
228.6836	0.555
228.8997	0.5627
229.1158	0.5937
229.3319	0.5577
229.548	0.5727
229.764	0.5475
229.9801	0.5573
230.1961	0.5739
230.4121	0.563
230.6282	0.5585
230.8442	0.537
231.0602	0.5576
231.2761	0.543
231.4921	0.5889
231.7081	0.5756
231.924	0.5492
232.14	0.5766
232.3559	0.5359
232.5718	0.5888
232.7877	0.5588
233.0036	0.5376
233.2195	0.5633
233.4353	0.5563
233.6512	0.5649
233.867	0.5432
234.0829	0.5366
234.2987	0.578
234.5145	0.5674
234.7303	0.5659
234.9461	0.5887
235.1619	0.5732
235.3776	0.5527
235.5934	0.5621
235.8091	0.5121
236.0249	0.5665
236.2406	0.5479
236.4563	0.5554
236.672	0.5467
236.8877	0.5533
237.1034	0.5419
237.319	0.5349
237.5347	0.5455
237.7503	0.54
237.966	0.5519
238.1816	0.5516
238.3972	0.5471
238.6128	0.5247
238.8284	0.5627
239.0439	0.5671
239.2595	0.5098
239.475	0.537
239.6906	0.5352
239.9061	0.5158
240.1216	0.5238
240.3371	0.5387
240.5526	0.5294
240.7681	0.5524
240.9836	0.4919
241.199	0.5302
241.4145	0.4816
241.6299	0.4864
241.8453	0.4745
242.0607	0.4734
242.2761	0.4669
242.4915	0.481
242.7069	0.4553
242.9223	0.4278
243.1376	0.4304
243.353	0.4326
243.5683	0.4352
243.7836	0.4007
243.9989	0.4135
244.2142	0.3891
244.4295	0.3914
244.6448	0.4147
244.86	0.3815
245.0753	0.3602
245.2905	0.3661
245.5057	0.3387
245.721	0.3519
245.9362	0.3294
246.1514	0.3435
246.3665	0.3295
246.5817	0.3267
246.7969	0.3122
247.012	0.2953
247.2271	0.2868
247.4423	0.3063
247.6574	0.3013
247.8725	0.2805
248.0876	0.281
248.3026	0.2762
248.5177	0.2827
248.7328	0.2614
248.9478	0.2574
249.1628	0.2634
249.3779	0.2592
249.5929	0.2519
249.8079	0.2651
250.0228	0.2477
250.2378	0.2476
250.4528	0.2423
250.6677	0.2389
250.8827	0.2317
251.0976	0.2302
251.3125	0.2255
251.5274	0.206
251.7423	0.2206
251.9572	0.2125
252.172	0.2157
252.3869	0.2035
252.6017	0.2125
252.8166	0.203
253.0314	0.1957
253.2462	0.1954
253.461	0.2078
253.6758	0.1961
253.8906	0.2136
254.1053	0.1893
254.3201	0.196
254.5348	0.2122
254.7496	0.2038
254.9643	0.2011
255.179	0.1987
255.3937	0.1977
255.6083	0.2013
255.823	0.2006
256.0377	0.1916
256.2523	0.1949
256.467	0.1777
256.6816	0.2004
256.8962	0.1856
257.1108	0.183
257.3254	0.2014
257.54	0.1869
257.7545	0.1904
257.9691	0.1996
258.1836	0.1809
258.3981	0.1974
258.6127	0.2055
258.8272	0.1838
259.0417	0.1864
259.2561	0.1826
259.4706	0.185
259.6851	0.1806
259.8995	0.1819
260.114	0.1809
260.3284	0.1827
260.5428	0.1742
260.7572	0.1885
260.9716	0.1808
261.186	0.1904
261.4003	0.1872
261.6147	0.1965
261.829	0.1913
262.0433	0.1731
262.2577	0.1846
262.472	0.1848
262.6863	0.1822
262.9005	0.1834
263.1148	0.1827
263.3291	0.173
263.5433	0.1824
263.7576	0.1893
263.9718	0.1726
264.186	0.1735
264.4002	0.1795
264.6144	0.1794
264.8286	0.1893
265.0427	0.1778
265.2569	0.1843
265.471	0.1739
265.6851	0.1741
265.8993	0.1772
266.1134	0.177
266.3275	0.1811
266.5415	0.1716
266.7556	0.1823
266.9697	0.1797
267.1837	0.1895
267.3978	0.1802
267.6118	0.1833
267.8258	0.1962
268.0398	0.1645
268.2538	0.1901
268.4677	0.1849
268.6817	0.1825
268.8957	0.1854
269.1096	0.1682
269.3235	0.1912
269.5374	0.1708
269.7514	0.1826
269.9652	0.174
270.1791	0.1817
270.393	0.1813
270.6068	0.185
270.8207	0.1955
271.0345	0.1659
271.2483	0.1829
271.4622	0.164
271.676	0.1647
271.8897	0.1601
272.1035	0.1621
272.3173	0.1659
272.531	0.16
272.7448	0.174
272.9585	0.1564
273.1722	0.1698
273.3859	0.164
273.5996	0.1588
273.8133	0.1552
274.0269	0.1621
274.2406	0.1514
274.4542	0.1705
274.6679	0.1512
274.8815	0.1675
275.0951	0.1734
275.3087	0.1709
275.5223	0.1791
275.7358	0.1666
275.9494	0.1651
276.1629	0.1663
276.3765	0.1657
276.59	0.1804
276.8035	0.1748
277.017	0.1704
277.2305	0.1586
277.444	0.1667
277.6574	0.1611
277.8709	0.1686
278.0843	0.1521
278.2978	0.1648
278.5112	0.1605
278.7246	0.152
278.938	0.1658
279.1513	0.1781
279.3647	0.1823
279.5781	0.1564
279.7914	0.1679
280.0047	0.1841
280.2181	0.1617
280.4314	0.1688
280.6447	0.1809
280.8579	0.1623
281.0712	0.1746
281.2845	0.1759
281.4977	0.1648
281.711	0.1628
281.9242	0.175
282.1374	0.1746
282.3506	0.1723
282.5638	0.1699
282.7769	0.1675
282.9901	0.1731
283.2033	0.1763
283.4164	0.1791
283.6295	0.1631
283.8426	0.183
284.0557	0.1841
284.2688	0.1929
284.4819	0.1767
284.695	0.1755
284.908	0.1755
285.1211	0.1662
285.3341	0.1784
285.5471	0.1795
285.7601	0.1764
285.9731	0.1675
286.1861	0.1734
286.3991	0.1819
286.612	0.1835
286.825	0.1836
287.0379	0.1798
287.2508	0.1725
287.4637	0.1881
287.6766	0.1754
287.8895	0.1842
288.1024	0.1815
288.3152	0.1862
288.5281	0.1683
288.7409	0.1765
288.9538	0.1728
289.1666	0.1843
289.3794	0.1793
289.5922	0.176
289.8049	0.1902
290.0177	0.1779
290.2304	0.1784
290.4432	0.1827
290.6559	0.1701
290.8686	0.1825
291.0813	0.1723
291.294	0.1687
291.5067	0.179
291.7194	0.1787
291.932	0.1784
292.1447	0.1838
292.3573	0.1691
292.5699	0.175
292.7825	0.1829
292.9951	0.1757
293.2077	0.1762
293.4203	0.1863
293.6328	0.1685
293.8454	0.1882
294.0579	0.1845
294.2704	0.1848
294.4829	0.1776
294.6954	0.179
294.9079	0.1808
295.1204	0.1757
295.3328	0.1894
295.5453	0.176
295.7577	0.1851
295.9701	0.1707
296.1825	0.1713
296.3949	0.1724
296.6073	0.1759
296.8197	0.163
297.0321	0.1778
297.2444	0.164
297.4567	0.1847
297.6691	0.1813
297.8814	0.1704
298.0937	0.1695
298.306	0.1786
298.5182	0.1743
298.7305	0.1813
298.9428	0.1737
299.155	0.1825
299.3672	0.1689
299.5794	0.1737
299.7916	0.176
300.0038	0.1737
300.216	0.18
300.4282	0.1871
300.6403	0.167
300.8525	0.1886
301.0646	0.1787
301.2767	0.1728
301.4888	0.1707
301.7009	0.1766
301.913	0.1769
302.125	0.1846
302.3371	0.1716
302.5491	0.1717
302.7612	0.176
302.9732	0.1768
303.1852	0.1815
303.3972	0.1783
303.6092	0.1657
303.8211	0.1594
304.0331	0.1689
304.245	0.1606
304.457	0.1513
304.6689	0.1572
304.8808	0.1788
305.0927	0.1537
305.3046	0.1575
305.5164	0.1677
305.7283	0.1596
305.9401	0.1655
306.152	0.1556
306.3638	0.1459
306.5756	0.1535
306.7874	0.1528
306.9992	0.1604
307.2109	0.1527
307.4227	0.1341
307.6344	0.1502
307.8462	0.1429
308.0579	0.1423
308.2696	0.1413
308.4813	0.1314
308.693	0.1364
308.9046	0.1485
309.1163	0.1476
309.328	0.1436
309.5396	0.1297
309.7512	0.1328
309.9628	0.1244
310.1744	0.1318
310.386	0.135
310.5976	0.1285
310.8091	0.1278
311.0207	0.1207
311.2322	0.1282
311.4437	0.1131
311.6552	0.122
311.8667	0.118
312.0782	0.11
312.2897	0.1019
312.5012	0.1154
312.7126	0.1048
312.924	0.0961
313.1355	0.1197
313.3469	0.11
313.5583	0.1181
313.7696	0.1082
313.981	0.116
314.1924	0.1109
314.4037	0.103
314.6151	0.1179
314.8264	0.0946
315.0377	0.1078
315.249	0.1137
315.4603	0.1082
315.6716	0.113
315.8828	0.0982
316.0941	0.1086
316.3053	0.0971
316.5165	0.0896
316.7277	0.0946
316.9389	0.1093
317.1501	0.1068
317.3613	0.1087
317.5724	0.0843
317.7836	0.1065
317.9947	0.094
318.2058	0.099
318.417	0.0927
318.6281	0.0971
318.8391	0.0946
319.0502	0.0983
319.2613	0.0993
319.4723	0.103
319.6834	0.1047
319.8944	0.0902
320.1054	0.103
320.3164	0.1079
320.5274	0.0927
320.7383	0.0935
320.9493	0.1033
321.1602	0.096
321.3712	0.0888
321.5821	0.1087
321.793	0.098
322.0039	0.1042
322.2148	0.1029
322.4257	0.1049
322.6365	0.0956
322.8474	0.1025
323.0582	0.1016
323.269	0.1025
323.4798	0.1082
323.6906	0.1078
323.9014	0.0996
324.1122	0.1052
324.3229	0.0926
324.5337	0.1094
324.7444	0.0972
324.9551	0.1142
325.1658	0.1016
325.3765	0.1117
325.5872	0.1028
325.7979	0.1072
326.0085	0.1008
326.2192	0.1139
326.4298	0.0988
326.6404	0.1036
326.851	0.1078
327.0616	0.098
327.2722	0.1081
327.4828	0.1051
327.6933	0.0949
327.9039	0.1025
328.1144	0.1192
328.3249	0.1146
328.5354	0.1003
328.7459	0.1005
328.9564	0.0976
329.1669	0.0995
329.3773	0.1066
329.5878	0.1083
329.7982	0.1071
330.0086	0.103
330.219	0.1143
330.4294	0.1044
330.6398	0.1033
330.8502	0.0974
331.0605	0.1001
331.2708	0.1153
331.4812	0.109
331.6915	0.1149
331.9018	0.1113
332.1121	0.1024
332.3224	0.111
332.5326	0.1172
332.7429	0.1096
332.9531	0.1189
333.1633	0.1179
333.3735	0.1067
333.5837	0.0967
333.7939	0.1037
334.0041	0.1109
334.2143	0.1109
334.4244	0.1134
334.6346	0.0931
334.8447	0.118
335.0548	0.1011
335.2649	0.1066
335.475	0.1275
335.685	0.1098
335.8951	0.1156
336.1051	0.1169
336.3152	0.1096
336.5252	0.1222
336.7352	0.1156
336.9452	0.1222
337.1552	0.1257
337.3652	0.1096
337.5751	0.1034
337.7851	0.1081
337.995	0.1045
338.2049	0.1227
338.4148	0.1235
338.6247	0.1169
338.8346	0.1015
339.0445	0.1138
339.2543	0.1069
339.4642	0.1219
339.674	0.1179
339.8838	0.1184
340.0936	0.1192
340.3034	0.1247
340.5132	0.1229
340.7229	0.1153
340.9327	0.1107
341.1424	0.1225
341.3522	0.1151
341.5619	0.1193
341.7716	0.1169
341.9813	0.1362
342.1909	0.1177
342.4006	0.1249
342.6102	0.1247
342.8199	0.1221
343.0295	0.1155
343.2391	0.1354
343.4487	0.1241
343.6583	0.1171
343.8679	0.1224
344.0774	0.1396
344.287	0.1271
344.4965	0.1217
344.706	0.1178
344.9155	0.1365
345.125	0.1389
345.3345	0.1291
345.544	0.125
345.7534	0.1384
345.9629	0.1112
346.1723	0.1181
346.3817	0.1145
346.5911	0.1211
346.8005	0.1342
347.0099	0.1261
347.2193	0.1289
347.4286	0.1239
347.638	0.136
347.8473	0.1366
348.0566	0.1325
348.2659	0.1553
348.4752	0.1223
348.6845	0.1319
348.8937	0.1282
349.103	0.1422
349.3122	0.136
349.5214	0.1316
349.7306	0.1426
349.9398	0.1405
350.149	0.1446
350.3582	0.1369
350.5674	0.1371
350.7765	0.1432
350.9856	0.1264
351.1948	0.1397
351.4039	0.1297
351.613	0.1317
351.822	0.1439
352.0311	0.1547
352.2402	0.1446
352.4492	0.1544
352.6582	0.1529
352.8672	0.1389
353.0762	0.1528
353.2852	0.1441
353.4942	0.1412
353.7032	0.16
353.9121	0.141
354.1211	0.1482
354.33	0.1461
354.5389	0.1501
354.7478	0.1385
354.9567	0.1421
355.1655	0.1306
355.3744	0.1716
355.5833	0.158
355.7921	0.1733
356.0009	0.1608
356.2097	0.1652
356.4185	0.1673
356.6273	0.1629
356.8361	0.1629
357.0448	0.1572
357.2536	0.1418
357.4623	0.1604
357.671	0.1582
357.8797	0.1607
358.0884	0.1579
358.2971	0.1647
358.5057	0.1641
358.7144	0.1697
358.923	0.1695
359.1316	0.1674
359.3402	0.1645
359.5488	0.1669
359.7574	0.1559
359.966	0.177
360.1746	0.1698
360.3831	0.174
360.5916	0.1686
360.8002	0.1625
361.0087	0.1848
361.2172	0.1787
361.4256	0.1836
361.6341	0.1895
361.8426	0.1847
362.051	0.1844
362.2594	0.1837
362.4678	0.172
362.6762	0.1931
362.8846	0.1769
363.093	0.1869
363.3014	0.1734
363.5097	0.1837
363.718	0.1854
363.9264	0.1914
364.1347	0.1871
364.343	0.1836
364.5513	0.1992
364.7595	0.2077
364.9678	0.1909
365.176	0.1945
365.3842	0.1828
365.5925	0.1969
365.8007	0.1998
366.0089	0.2027
366.217	0.2024
366.4252	0.2138
366.6333	0.2075
366.8415	0.2052
367.0496	0.1997
367.2577	0.2441
367.4658	0.2068
367.6739	0.2137
367.882	0.2129
368.09	0.185
368.2981	0.2089
368.5061	0.1995
368.7141	0.218
368.9221	0.2093
369.1301	0.2212
369.3381	0.215
369.5461	0.2138
369.754	0.2143
369.962	0.2183
370.1699	0.2216
370.3778	0.2268
370.5857	0.216
370.7936	0.2143
371.0015	0.2059
371.2093	0.2288
371.4172	0.2328
371.625	0.1991
371.8328	0.2255
372.0406	0.224
372.2484	0.2242
372.4562	0.2275
372.664	0.2397
372.8717	0.2288
373.0795	0.2055
373.2872	0.2285
373.4949	0.2257
373.7026	0.235
373.9103	0.2297
374.118	0.235
374.3256	0.2482
374.5333	0.2317
374.7409	0.22
374.9485	0.2471
375.1561	0.2391
375.3637	0.2324
375.5713	0.2499
375.7789	0.2322
375.9864	0.2498
376.194	0.2275
376.4015	0.2486
376.609	0.2348
376.8165	0.2533
377.024	0.2439
377.2315	0.2414
377.4389	0.2426
377.6464	0.243
377.8538	0.2514
378.0612	0.2534
378.2686	0.249
378.476	0.2549
378.6834	0.2473
378.8908	0.2478
379.0981	0.2522
379.3055	0.2478
379.5128	0.2467
379.7201	0.2475
379.9274	0.2446
380.1347	0.25
380.342	0.2683
380.5492	0.2441
380.7565	0.2534
380.9637	0.2587
381.1709	0.2493
381.3781	0.2486
381.5853	0.2566
381.7925	0.2439
381.9997	0.2608
382.2068	0.2733
382.4139	0.252
382.6211	0.2358
382.8282	0.2589
383.0353	0.2494
383.2424	0.2472
383.4494	0.2784
383.6565	0.2667
383.8635	0.2524
384.0706	0.2575
384.2776	0.2731
384.4846	0.2536
384.6916	0.2779
384.8986	0.2396
385.1055	0.2695
385.3125	0.2565
385.5194	0.2475
385.7263	0.2602
385.9333	0.2668
386.1402	0.2542
386.347	0.2654
386.5539	0.2675
386.7608	0.2818
386.9676	0.2457
387.1744	0.2546
387.3813	0.2532
387.5881	0.2666
387.7948	0.2666
388.0016	0.2598
388.2084	0.2638
388.4151	0.2341
388.6219	0.268
388.8286	0.2508
389.0353	0.2846
389.242	0.2526
389.4487	0.2402
389.6553	0.2336
389.862	0.2341
390.0686	0.2433
390.2753	0.2364
390.4819	0.253
390.6885	0.2515
390.8951	0.2423
391.1016	0.2469
391.3082	0.2426
391.5147	0.2452
391.7213	0.2452
391.9278	0.2368
392.1343	0.232
392.3408	0.2426
392.5473	0.241
392.7537	0.2155
392.9602	0.2324
393.1666	0.2398
393.373	0.2405
393.5794	0.2528
393.7858	0.2311
393.9922	0.2152
394.1986	0.2246
394.4049	0.2491
394.6113	0.2276
394.8176	0.2316
395.0239	0.2254
395.2302	0.2171
395.4365	0.2232
395.6428	0.2166
395.8491	0.2271
396.0553	0.2165
396.2615	0.2107
396.4678	0.2312
396.674	0.1989
396.8802	0.2004
397.0863	0.2333
397.2925	0.2041
397.4987	0.2231
397.7048	0.232
397.9109	0.2119
398.117	0.205
398.3231	0.2177
398.5292	0.2242
398.7353	0.2264
398.9413	0.2272
399.1474	0.2066
399.3534	0.1974
399.5594	0.209
399.7654	0.2368
399.9714	0.2347
400.1774	0.2061
400.3833	0.2123
400.5893	0.2262
400.7952	0.2081
401.0011	0.2124
401.207	0.2208
401.4129	0.2339
401.6188	0.2216
401.8247	0.2173
402.0305	0.2078
402.2364	0.2057
402.4422	0.2354
402.648	0.2368
402.8538	0.2144
403.0596	0.214
403.2654	0.2072
403.4711	0.2265
403.6768	0.2214
403.8826	0.2275
404.0883	0.223
404.294	0.214
404.4997	0.214
404.7054	0.2226
404.911	0.1956
405.1167	0.2164
405.3223	0.2412
405.5279	0.2262
405.7335	0.2354
405.9391	0.2133
406.1447	0.2119
406.3502	0.2327
406.5558	0.2118
406.7613	0.2263
406.9668	0.2151
407.1724	0.2106
407.3778	0.2063
407.5833	0.2199
407.7888	0.1895
407.9942	0.2394
408.1997	0.2155
408.4051	0.2073
408.6105	0.2146
408.8159	0.2117
409.0213	0.2056
409.2267	0.2059
409.432	0.2091
409.6374	0.2259
409.8427	0.2264
410.048	0.2301
410.2533	0.2133
410.4586	0.2104
410.6639	0.2144
410.8691	0.2198
411.0744	0.203
411.2796	0.1823
411.4848	0.2335
411.69	0.2079
411.8952	0.2477
412.1004	0.1836
412.3056	0.214
412.5107	0.1971
412.7158	0.2326
412.921	0.2066
413.1261	0.1957
413.3312	0.2014
413.5362	0.2133
413.7413	0.1918
413.9464	0.2156
414.1514	0.2087
414.3564	0.2014
414.5614	0.2031
414.7664	0.2051
414.9714	0.1993
415.1764	0.2246
415.3813	0.2167
415.5863	0.2061
415.7912	0.2096
415.9961	0.2109
416.201	0.2045
416.4059	0.2276
416.6108	0.1878
416.8156	0.2099
417.0205	0.2024
417.2253	0.183
417.4301	0.2262
417.6349	0.2123
417.8397	0.2011
418.0445	0.2182
418.2492	0.2121
418.454	0.2151
418.6587	0.2061
418.8634	0.2017
419.0681	0.1903
419.2728	0.194
419.4775	0.1997
419.6822	0.2082
419.8868	0.1871
420.0915	0.2072
420.2961	0.1781
420.5007	0.183
420.7053	0.1976
420.9099	0.1966
421.1144	0.2112
421.319	0.2044
421.5235	0.207
421.728	0.1999
421.9325	0.1898
422.137	0.2027
422.3415	0.1795
422.546	0.196
422.7504	0.1851
422.9549	0.1873
423.1593	0.1932
423.3637	0.2059
423.5681	0.1855
423.7725	0.1693
423.9769	0.177
424.1812	0.1879
424.3856	0.1699
424.5899	0.1864
424.7942	0.1563
424.9985	0.1775
425.2028	0.1937
425.4071	0.2074
425.6113	0.1599
425.8156	0.1796
426.0198	0.1771
426.224	0.1656
426.4282	0.172
426.6324	0.1564
426.8366	0.1595
427.0407	0.1562
427.2449	0.1743
427.449	0.166
427.6531	0.1514
427.8572	0.1721
428.0613	0.1666
428.2654	0.177
428.4694	0.1666
428.6735	0.1435
428.8775	0.1802
429.0815	0.1743
429.2855	0.1531
429.4895	0.1611
429.6935	0.1573
429.8975	0.1512
430.1014	0.1449
430.3053	0.1324
430.5093	0.1582
430.7132	0.1431
430.9171	0.1469
431.1209	0.1346
431.3248	0.1335
431.5286	0.1533
431.7325	0.1411
431.9363	0.1396
432.1401	0.1486
432.3439	0.1361
432.5477	0.1161
432.7514	0.12
432.9552	0.1287
433.1589	0.1092
433.3627	0.1167
433.5664	0.1209
433.7701	0.1134
433.9737	0.1279
434.1774	0.1231
434.3811	0.1097
434.5847	0.1267
434.7883	0.1166
434.9919	0.0991
435.1955	0.1093
435.3991	0.1204
435.6027	0.1159
435.8062	0.1046
436.0098	0.1129
436.2133	0.1026
436.4168	0.1067
436.6203	0.0905
436.8238	0.1152
437.0272	0.0991
437.2307	0.1019
437.4341	0.1212
437.6375	0.1039
437.841	0.0947
438.0443	0.0959
438.2477	0.0995
438.4511	0.0907
438.6545	0.0882
438.8578	0.1076
439.0611	0.0987
439.2644	0.0976
439.4677	0.0881
439.671	0.0793
439.8743	0.0874
440.0775	0.0922
440.2808	0.0844
440.484	0.0824
440.6872	0.05
440.8904	0.0681
441.0936	0.0871
441.2967	0.0697
441.4999	0.0714
441.703	0.0604
441.9062	0.0682
442.1093	0.0807
442.3124	0.0678
442.5155	0.0591
442.7185	0.0648
442.9216	0.0392
443.1246	0.0703
443.3276	0.0577
443.5307	0.0573
443.7337	0.0642
443.9366	0.0504
444.1396	0.0581
444.3426	0.0534
444.5455	0.0442
444.7484	0.054
444.9513	0.0482
445.1542	0.0517
445.3571	0.0421
445.56	0.055
445.7628	0.0513
445.9657	0.0564
446.1685	0.0596
446.3713	0.043
446.5741	0.0554
446.7769	0.0242
446.9797	0.0334
447.1824	0.0435
447.3852	0.0317
447.5879	0.0416
447.7906	0.0371
447.9933	0.031
448.196	0.0345
448.3986	0.0421
448.6013	0.0316
448.8039	0.0176
449.0066	0.0257
449.2092	0.028
449.4118	0.0271
449.6143	0.0448
449.8169	0.031
450.0195	0.0307
450.222	0.023
450.4245	0.0258
450.627	0.0319
450.8295	0.0375
451.032	0.0338
451.2345	0.035
451.4369	0.0253
451.6394	0.0216
451.8418	0.0173
452.0442	0.0253
452.2466	0.0244
452.449	0.018
452.6513	0.0208
452.8537	0.0108
453.056	0.0098
453.2583	0.0241
453.4607	0.006
453.663	0.0212
453.8652	0.0235
454.0675	0.0152
454.2697	0.0187
454.472	0.0065
454.6742	0.0259
454.8764	0.012
455.0786	0.0119
455.2808	0.0168
455.4829	0.0182
455.6851	0.0046
455.8872	0.0415
456.0893	0.0307
456.2915	0.0129
456.4935	0.0021
456.6956	0.002
456.8977	0.0013
457.0997	0.0113
457.3018	0.0027
457.5038	0.004
457.7058	0.012
457.9078	-0.002
458.1098	0.0171
458.3117	0.0091
458.5137	0.0153
458.7156	0.0073
458.9175	0.0055
459.1194	0.0094
459.3213	0.0018
459.5232	0.0123
459.725	0.0008
459.9269	-0.0087
460.1287	0.003
460.3305	-0.0057
460.5323	0.0049
460.7341	-0.0007
460.9359	0.0057
461.1376	0.0143
461.3394	0.0006
461.5411	0.0072
461.7428	0.0042
461.9445	0.0174
462.1462	0.023
462.3479	-0.0113
462.5495	0.0022
462.7512	0.0034
462.9528	-0.0023
463.1544	-0.0024
463.356	0.0211
463.5576	0.0062
463.7592	-0.0034
463.9607	-0.0005
464.1623	0.0164
464.3638	0.0157
464.5653	-0.0211
464.7668	0.0048
464.9683	0.0149
465.1697	0.0133
465.3712	-0.0103
465.5726	-0.0112
465.7741	0.0017
465.9755	-0.0027
466.1769	-0.0153
466.3782	-0.0158
466.5796	-0.0079
466.7809	0.0144
466.9823	-0.0069
467.1836	-0.002
467.3849	-0.0132
467.5862	0.003
467.7875	0.0045
467.9887	0.0204
468.19	-0.0029
468.3912	-0.006
468.5924	-0.008
468.7936	0.0003
468.9948	0.0047
469.196	0.0129
469.3972	-0.0145
469.5983	0.0168
469.7994	-0.0262
470.0006	-0.0073
470.2017	-0.022
470.4027	-0.005
470.6038	-0.0039
470.8049	-0.0151
471.0059	0.0046
471.2069	-0.018
471.408	0.0126
471.6089	0.0087
471.8099	-0.0015
472.0109	0.0216
472.2119	-0.0112
472.4128	-0.0152
472.6137	0.0035
472.8146	-0.031
473.0155	-0.0061
473.2164	-0.0194
473.4173	-0.0007
473.6181	-0.0014
473.819	0.0163
474.0198	-0.011
474.2206	-0.0055
474.4214	-0.0012
474.6222	-0.0101
474.8229	-0.0148
475.0237	-0.0152
475.2244	-0.014
475.4251	0.0018
475.6258	-0.003
475.8265	-0.0072
476.0272	-0.0005
476.2278	-0.0047
476.4285	-0.0028
476.6291	-0.0112
476.8297	0.0008
477.0303	-0.0174
477.2309	-0.0067
477.4315	-0.02
477.632	-0.008
477.8326	-0.0089
478.0331	0.0083
478.2336	0.0018
478.4341	-0.0019
478.6346	-0.0074
478.8351	0.0013
479.0355	-0.0003
479.236	-0.012
479.4364	0.0019
479.6368	-0.0007
479.8372	-0.0068
480.0376	-0.0081
480.2379	-0.0292
480.4383	-0.0059
480.6386	0.0066
480.8389	-0.0003
481.0392	-0.0226
481.2395	-0.007
481.4398	-0.0019
481.6401	-0.0039
481.8403	0.0015
482.0405	-0.0127
482.2408	-0.0024
482.441	0.0037
482.6411	-0.0122
482.8413	-0.0024
483.0415	-0.0147
483.2416	-0.0095
483.4417	-0.0005
483.6419	-0.0016
483.8419	-0.014
484.042	0.0013
484.2421	-0.0066
484.4422	-0.0081
484.6422	-0.0028
484.8422	-0.0145
485.0422	-0.0138
485.2422	0.0012
485.4422	-0.0092
485.6422	-0.0126
485.8421	-0.007
486.042	0.0084
486.242	-0.0083
486.4419	-0.0121
486.6417	-0.0122
486.8416	-0.0044
487.0415	-0.0085
487.2413	-0.0088
487.4411	-0.0084
487.641	-0.012
487.8408	0.0031
488.0405	-0.0134
488.2403	-0.0084
488.4401	0.0099
488.6398	-0.0047
488.8395	-0.0104
489.0392	0.0084
489.2389	-0.0034
489.4386	-0.0114
489.6383	-0.0067
489.8379	-0.0059
490.0376	-0.0047
490.2372	-0.0116
490.4368	-0.0132
490.6364	-0.0084
490.836	-0.0179
491.0355	-0.0058
491.2351	-0.0169
491.4346	-0.0083
491.6341	-0.0257
491.8336	0.0013
492.0331	-0.0227
492.2326	-0.0084
492.432	0.0006
492.6315	-0.0103
492.8309	-0.0124
493.0303	-0.0175
493.2297	-0.0147
493.4291	-0.0011
493.6284	-0.0066
493.8278	-0.0068
494.0271	-0.0013
494.2264	0.0032
494.4257	-0.0128
494.625	-0.0109
494.8243	-0.0217
495.0236	-0.0103
495.2228	-0.0078
495.422	-0.003
495.6213	-0.0121
495.8205	-0.0075
496.0196	-0.003
496.2188	-0.0016
496.418	-0.0161
496.6171	-0.0117
496.8162	-0.0256
497.0153	-0.0053
497.2144	-0.0156
497.4135	-0.0118
497.6126	-0.0177
497.8116	-0.0118
498.0107	-0.0146
498.2097	-0.0265
498.4087	-0.0222
498.6077	-0.0066
498.8067	-0.013
499.0056	-0.0085
499.2046	-0.0118
499.4035	-0.0205
499.6024	-0.0103
499.8013	-0.0145
500.0002	-0.0167
500.199	-0.0027
500.3979	-0.0163
500.5967	-0.0189
500.7956	-0.0106
500.9944	-0.006
501.1932	-0.017
501.3919	-0.0168
501.5907	-0.0154
501.7895	-0.0076
501.9882	-0.0117
502.1869	-0.0125
502.3856	-0.0112
502.5843	-0.0178
502.783	-0.01
502.9816	-0.0108
503.1803	-0.0131
503.3789	-0.0192
503.5775	0.0021
503.7761	-0.0092
503.9747	-0.0069
504.1732	-0.0143
504.3718	-0.0082
504.5703	-0.0064
504.7689	-0.0052
504.9674	-0.0027
505.1658	-0.0137
505.3643	-0.0072
505.5628	-0.0158
505.7612	-0.0187
505.9597	-0.0042
506.1581	-0.0087
506.3565	0.0051
506.5549	-0.0111
506.7532	-0.0181
506.9516	-0.0095
507.1499	-0.0118
507.3482	-0.0191
507.5465	-0.0154
507.7448	-0.0096
507.9431	-0.0106
508.1414	0.0005
508.3396	-0.0125
508.5379	-0.0047
508.7361	-0.0094
508.9343	-0.0069
509.1325	-0.0016
509.3306	-0.0128
509.5288	-0.0091
509.7269	-0.0101
509.9251	-0.0093
510.1232	-0.0199
510.3213	0.0015
510.5193	-0.0054
510.7174	-0.0287
510.9154	-0.0141
511.1135	-0.0086
511.3115	-0.0121
511.5095	-0.011
511.7075	-0.0075
511.9055	-0.0102
512.1034	-0.0213
512.3014	-0.0094
512.4993	-0.0107
512.6972	-0.0112
512.8951	-0.0179
513.093	-0.0128
513.2908	-0.0043
513.4887	-0.0025
513.6865	-0.0065
513.8844	-0.0098
514.0822	-0.0163
514.2799	-0.0221
514.4777	-0.0126
514.6755	-0.0151
514.8732	-0.0106
515.0709	0.0004
515.2687	-0.0207
515.4664	-0.0149
515.664	-0.0131
515.8617	-0.0153
516.0594	-0.0139
516.257	-0.0005
516.4546	-0.0189
516.6522	0.0015
516.8498	-0.0107
517.0474	-0.0052
517.2449	-0.0001
517.4425	-0.0173
517.64	-0.0068
517.8375	-0.0006
518.035	-0.0063
518.2325	-0.0032
518.43	-0.0077
518.6274	-0.007
518.8249	-0.0159
519.0223	0.0045
519.2197	-0.0058
519.4171	-0.0182
519.6145	-0.006
519.8118	-0.0057
520.0092	-0.005
520.2065	-0.0089
520.4038	-0.0192
520.6011	-0.0054
520.7984	-0.0267
520.9956	-0.0102
521.1929	-0.0118
521.3901	-0.0131
521.5874	-0.0102
521.7846	-0.0009
521.9818	-0.017
522.1789	-0.017
522.3761	-0.0114
522.5732	-0.0126
522.7704	-0.009
522.9675	0.0033
523.1646	-0.0142
523.3617	-0.0169
523.5587	-0.0049
523.7558	-0.0117
523.9528	-0.0159
524.1498	-0.0058
524.3468	-0.0043
524.5438	-0.0159
524.7408	-0.0167
524.9378	0.0052
525.1347	-0.0042
525.3316	-0.0064
525.5285	-0.0092
525.7254	-0.0074
525.9223	-0.0092
526.1192	-0.0102
526.316	-0.0176
526.5129	-0.0038
526.7097	0.0011
526.9065	-0.0044
527.1033	-0.0076
527.3	-0.0132
527.4968	-0.0135
527.6935	-0.0135
527.8903	-0.0166
528.087	-0.0116
528.2837	-0.0064
528.4804	-0.0063
528.677	-0.0067
528.8737	0.0043
529.0703	-0.0065
529.2669	0.0001
529.4635	0.0016
529.6601	-0.0054
529.8567	-0.01
530.0532	-0.0241
530.2498	-0.0025
530.4463	-0.0049
530.6428	-0.0142
530.8393	-0.0055
531.0358	-0.0096
531.2322	-0.0116
531.4287	-0.0067
531.6251	-0.0105
531.8215	0.0017
532.0179	-0.0082
532.2143	-0.0038
532.4107	-0.0034
532.607	-0.0143
532.8034	0.0036
532.9997	0.0035
533.196	-0.0082
533.3923	-0.0103
533.5886	-0.0092
533.7848	-0.0013
533.9811	-0.0028
534.1773	-0.011
534.3735	0.0081
534.5697	-0.0029
534.7659	-0.0107
534.9621	-0.0015
535.1582	-0.0155
535.3544	-0.011
535.5505	-0.0102
535.7466	-0.0146
535.9427	-0.0083
536.1387	-0.0038
536.3348	-0.0087
536.5308	-0.0043
536.7269	-0.0215
536.9229	-0.0014
537.1189	-0.0061
537.3148	-0.0078
537.5108	-0.0151
537.7068	-0.0037
537.9027	-0.0039
538.0986	-0.0035
538.2945	-0.0094
538.4904	-0.0069
538.6863	-0.0026
538.8821	-0.0134
539.078	-0.012
539.2738	-0.002
539.4696	-0.0078
539.6654	-0.0033
539.8611	0.0138
540.0569	-0.0139
540.2526	-0.012
540.4484	-0.0142
540.6441	-0.0004
540.8398	-0.0029
541.0355	-0.0014
541.2311	-0.0015
541.4268	-0.0123
541.6224	0.0043
541.818	-0.0069
542.0136	-0.0048
542.2092	0.0028
542.4048	0.0028
542.6003	-0.0037
542.7959	-0.0039
542.9914	-0.0064
543.1869	-0.0047
543.3824	-0.0003
543.5779	-0.0047
543.7734	-0.0068
543.9688	-0.0071
544.1642	-0.0009
544.3596	0.0001
544.555	-0.0043
544.7504	-0.0005
544.9458	-0.0061
545.1411	-0.0061
545.3365	-0.008
545.5318	-0.0097
545.7271	-0.0065
545.9224	-0.0121
546.1177	-0.0074
546.3129	0.0044
546.5081	-0.006
546.7034	-0.0036
546.8986	-0.0049
547.0938	-0.0167
547.289	-0.0056
547.4841	-0.0057
547.6793	0.0066
547.8744	-0.0061
548.0695	-0.0006
548.2646	-0.0127
548.4597	-0.0033
548.6548	-0.0008
548.8498	-0.0103
549.0448	0.0075
549.2399	0.006
549.4349	0.0093
549.6298	-0.0059
549.8248	0.0086
550.0198	-0.0007
550.2147	-0.0105
550.4096	-0.0101
550.6045	-0.0045
550.7994	0.006
550.9943	-0.0039
551.1892	-0.0002
551.384	0.0055
551.5788	-0.0041
551.7737	0.0058
551.9685	-0.0023
552.1632	-0.0002
552.358	-0.0043
552.5528	0.0001
552.7475	-0.0086
552.9422	0.0019
553.1369	-0
553.3316	0.0006
553.5263	-0.0087
553.7209	0.0037
553.9156	-0.0047
554.1102	-0.0052
554.3048	0.0018
554.4994	0.0069
554.694	-0.0009
554.8885	0.0067
555.0831	-0.009
555.2776	-0.0034
555.4721	-0.0054
555.6666	-0.0088
555.8611	0.0108
556.0555	-0.0072
556.25	-0.0042
556.4444	-0.0074
556.6388	-0.0049
556.8332	-0.0056
557.0276	-0.0009
557.222	-0.002
557.4163	-0.0054
557.6107	-0.0139
557.805	-0.0034
557.9993	-0.0045
558.1936	0.0054
558.3879	0.0005
558.5821	-0.0038
558.7764	-0.0108
558.9706	0.0016
559.1648	0.003
559.359	-0.0106
559.5532	-0.0026
559.7473	-0.0079
559.9415	-0.0044
560.1356	-0.0067
560.3297	-0.0086
560.5238	-0.0093
560.7179	-0.0063
560.9119	-0.0078
561.106	-0.0037
561.3	0.0027
561.494	-0.0041
561.688	-0.0085
561.882	-0.0089
562.076	-0.0044
562.2699	0.0091
562.4639	-0.0095
562.6578	-0.0019
562.8517	0.0007
563.0456	-0.0075
563.2395	0.0012
563.4333	-0.0059
563.6272	0.011
563.821	-0.0034
564.0148	0.003
564.2086	-0.0058
564.4024	-0.0042
564.5961	-0.0094
564.7899	0.0006
564.9836	-0.0099
565.1773	0.0012
565.371	0.0086
565.5647	0.0009
565.7584	-0.0022
565.952	0.0003
566.1456	0.0026
566.3393	-0.0031
566.5329	-0.0041
566.7264	-0.0012
566.92	-0.0088
567.1136	0.0016
567.3071	-0.0098
567.5006	-0.0007
567.6941	0.0022
567.8876	-0.0089
568.0811	0.0006
568.2745	-0.0018
568.468	-0.0012
568.6614	-0.0092
568.8548	0.001
569.0482	-0.0047
569.2416	0.0064
569.4349	-0.004
569.6283	0.004
569.8216	-0.006
570.0149	-0.0058
570.2082	0.008
570.4015	-0.0033
570.5947	0.0049
570.788	0.0021
570.9812	-0.0029
571.1744	-0.0038
571.3676	-0.0135
571.5608	-0.0062
571.754	0.0008
571.9471	-0.0046
572.1402	0.002
572.3333	-0.0029
572.5264	-0.0033
572.7195	0.0036
572.9126	0.0002
573.1057	-0.0021
573.2987	-0.0005
573.4917	0.0097
573.6847	-0.0054
573.8777	0.007
574.0707	0.0081
574.2636	-0.0058
574.4566	-0.0019
574.6495	0.0036
574.8424	-0.0015
575.0353	-0.0067
575.2281	0.0096
575.421	-0.0051
575.6138	0.0048
575.8067	0.0056
575.9995	0.0035
576.1923	0.0031
576.385	0.0097
576.5778	-0.0047
576.7706	-0.0025
576.9633	0.0011
577.156	-0.0007
577.3487	-0.0025
577.5414	0.0032
577.734	-0.0005
577.9267	0.0054
578.1193	-0.0077
578.3119	-0.0081
578.5045	0.0003
578.6971	-0.0018
578.8897	0.0043
579.0822	-0.0012
579.2747	-0.0021
579.4673	0.0003
579.6598	-0.0069
579.8522	-0.0014
580.0447	-0.0028
580.2372	0.0006
580.4296	0.0034
580.622	-0.0037
580.8144	-0.006
581.0068	-0.0009
581.1992	-0.013
581.3915	-0.0032
581.5839	-0.0042
581.7762	-0.0067
581.9685	-0.0031
582.1608	0.001
582.353	0.0014
582.5453	0.0037
582.7375	0.002
582.9298	0.0038
583.122	0.0004
583.3142	0.0016
583.5063	0.003
583.6985	0.0006
583.8906	-0.0017
584.0827	-0.0029
584.2749	0.0009
584.4669	0.0031
584.659	0.0002
584.8511	-0.0049
585.0431	-0.0047
585.2352	0.0017
585.4272	-0.0007
585.6192	0.0068
585.8111	0.0061
586.0031	-0.0002
586.195	0.0004
586.387	0.0136
586.5789	-0.0033
586.7708	0.0014
586.9627	-0.0018
587.1545	-0.0032
587.3464	0.0021
587.5382	0.004
587.73	0.0024
587.9218	0.0021
588.1136	-0.0051
588.3053	0.0001
588.4971	0.0025
588.6888	-0.009
588.8805	0.0041
589.0722	0.0045
589.2639	0.0019
589.4556	-0.0005
589.6472	-0.0005
589.8389	-0.0059
590.0305	-0.009
590.2221	0.0018
590.4137	-0.0026
590.6052	0.0032
590.7968	-0.004
590.9883	0.0006
591.1798	-0.0059
591.3713	-0.0046
591.5628	0.0051
591.7543	0.0079
591.9458	0.0017
592.1372	0.0061
592.3286	0.0097
592.52	0.0008
592.7114	-0.0029
592.9028	-0.0069
593.0941	-0.0052
593.2855	0.0056
593.4768	-0.0033
593.6681	-0.0042
593.8594	-0.0032
594.0506	0.0026
594.2419	0.0118
594.4331	0.0028
594.6244	0.0037
594.8156	-0.0071
595.0067	-0.0013
595.1979	0.0077
595.3891	0.0033
595.5802	-0.0013
595.7713	-0.0026
595.9624	-0.0052
596.1535	0.0032
596.3446	-0.0026
596.5357	0.009
596.7267	0.0042
596.9177	0.0011
597.1087	-0.0097
597.2997	-0.0045
597.4907	0.0043
597.6817	-0.002
597.8726	-0.0006
598.0635	-0.0046
598.2544	0.0014
598.4453	-0.0022
598.6362	-0.0038
598.827	-0.0052
599.0179	0.0061
599.2087	0.0049
599.3995	-0.0045
599.5903	0.0023
599.7811	-0.001
599.9718	-0.0009
600.1626	-0.0024
600.3533	-0.0031
600.544	0.0006
600.7347	-0.003
600.9254	0.0032
601.116	-0.0013
601.3067	0.0008
601.4973	-0.0036
601.6879	0.0087
601.8785	-0.0058
602.0691	0.0029
602.2596	-0.0001
602.4502	0.0023
602.6407	0.002
602.8312	-0.0008
603.0217	-0.0017
603.2122	-0.0014
603.4027	-0.0025
603.5931	-0.0044
603.7835	-0.0075
603.9739	-0.0003
604.1643	-0.0011
604.3547	-0.0047
604.5451	-0.0006
604.7354	0.0022
604.9257	0.0006
605.116	0.0029
605.3063	0.0051
605.4966	0.0009
605.6869	-0.0003
605.8771	0.0081
606.0673	-0.0009
606.2575	0.0041
606.4477	0.003
606.6379	0.0005
606.8281	0.0034
607.0182	0.0008
607.2083	0.0096
607.3985	0.0039
607.5885	-0.0024
607.7786	0.0076
607.9687	-0.0009
608.1587	0.0031
608.3488	0.0098
608.5388	-0.0024
608.7288	-0.0006
608.9187	-0.0044
609.1087	-0.0045
609.2986	-0.0069
609.4886	-0.0003
609.6785	0.0001
609.8684	0.0071
610.0582	0.0074
610.2481	0.003
610.4379	0.0026
610.6278	0.0012
610.8176	-0.0009
611.0074	0.0008
611.1971	-0.0007
611.3869	0.0022
611.5766	-0.0011
611.7664	0.0079
611.9561	0.01
612.1458	0.0036
612.3354	-0.003
612.5251	0.0005
612.7147	0.0019
612.9044	0.0062
613.094	-0.0077
613.2836	0.0002
613.4731	-0.0073
613.6627	-0.0044
613.8522	0.0049
614.0417	0.0022
614.2313	-0.0079
614.4207	-0.0072
614.6102	-0.0029
614.7997	-0.0038
614.9891	-0.0104
615.1785	0.0012
615.3679	-0.0055
615.5573	0.0046
615.7467	-0.0023
615.9361	-0.0082
616.1254	-0.0027
616.3147	-0.0024
616.504	0.0054
616.6933	-0.001
616.8826	0.0004
617.0718	0.0035
617.2611	0.0014
617.4503	-0.0002
617.6395	-0.0008
617.8287	-0.0002
618.0179	0.0054
618.207	0.0086
618.3961	-0.0003
618.5853	0.0016
618.7744	0.0087
618.9634	0.0042
619.1525	0.002
619.3416	0.0058
619.5306	0.0043
619.7196	0.0027
619.9086	0.0003
620.0976	0.0059
620.2866	0.0029
620.4755	0.0013
620.6645	0.0097
620.8534	0.0099
621.0423	-0.0005
621.2312	0.0105
621.42	0.0035
621.6089	-0.0064
621.7977	0.0015
621.9865	-0.0067
622.1753	0.0054
622.3641	-0.0016
622.5529	0.0056
622.7416	0.009
622.9303	-0.0049
623.1191	0.0039
623.3078	-0.0002
623.4964	-0.0022
623.6851	-0.0023
623.8737	0.0013
624.0624	0.0082
624.251	0.0077
624.4396	-0.0002
624.6282	0.0003
624.8167	-0.0011
625.0053	0.0059
625.1938	0.0047
625.3823	0.0017
625.5708	-0.0037
625.7593	-0.0014
625.9477	-0.0074
626.1362	0.0014
626.3246	0.0024
626.513	0.0053
626.7014	0.0026
626.8898	0.0047
627.0781	-0.0035
627.2665	-0.0023
627.4548	0.0024
627.6431	0.0133
627.8314	0.0041
628.0197	0.0075
628.2079	0.001
628.3962	0.0007
628.5844	0.0037
628.7726	0.0086
628.9608	0.0069
629.1489	-0.003
629.3371	0.0095
629.5252	0.0063
629.7134	0.0111
629.9015	0.0054
630.0895	-0.0005
630.2776	0.0084
630.4657	0.0001
630.6537	0.0038
630.8417	0.0005
631.0297	0.0008
631.2177	0.0004
631.4057	-0.0073
631.5936	0
631.7815	0.0036
631.9695	0.0029
632.1574	0.0091
632.3452	0.0049
632.5331	-0.0007
632.7209	0.0012
632.9088	0.0071
633.0966	0.0118
633.2844	-0.0054
633.4722	0.0014
633.6599	0.0061
633.8477	0.0004
634.0354	-0.0007
634.2231	-0.003
634.4108	-0.0008
634.5985	0.0065
634.7861	0.0024
634.9738	-0.0037
635.1614	-0.0065
635.349	0.0027
635.5366	-0.001
635.7242	-0.0012
635.9117	0.0079
636.0993	0.0024
636.2868	0.0077
636.4743	-0.0005
636.6618	0.0093
636.8492	0.0016
637.0367	0.0015
637.2241	-0.0031
637.4115	-0.0035
637.5989	-0.0018
637.7863	-0.0058
637.9737	-0.0065
638.161	0.0008
638.3484	0.0022
638.5357	0.0088
638.723	-0.0092
638.9103	0.0021
639.0975	0.0071
639.2848	0.0029
639.472	-0.0035
639.6592	0.0043
639.8464	0.0056
640.0336	0.005
640.2208	0.0024
640.4079	-0.0053
640.595	-0.0018
640.7821	-0.0006
640.9692	-0.0031
641.1563	0.0036
641.3434	0.0024
641.5304	-0.0067
641.7174	-0.0023
641.9044	-0.0042
642.0914	0.0046
642.2784	0.0017
642.4653	0.0031
642.6523	-0.0069
642.8392	0.0006
643.0261	-0.0001
643.213	-0.0016
643.3999	-0.0099
643.5867	-0.0032
643.7735	0.0045
643.9604	-0.0057
644.1472	-0.0034
644.3339	0.001
644.5207	-0.0003
644.7075	0.0008
644.8942	0.0044
645.0809	0.0066
645.2676	0.0051
645.4543	0.0007
645.6409	0.005
645.8276	0.0017
646.0142	0.0072
646.2008	-0.0077
646.3874	-0.0032
646.574	-0.0021
646.7605	0.0038
646.9471	-0.0176
647.1336	-0.001
647.3201	0.0071
647.5066	-0.0057
647.6931	0.0058
647.8795	0.0012
648.0659	0.0031
648.2524	0.0087
648.4388	-0.0031
648.6252	-0.0009
648.8115	-0.0018
648.9979	-0.003
649.1842	-0.0026
649.3705	-0.0026
649.5568	0.0027
649.7431	0.0046
649.9294	-0.0078
650.1156	0.0057
650.3018	-0.0069
650.488	0.0018
650.6742	0.0066
650.8604	0.0014
651.0466	-0.0037
651.2327	0.0031
651.4188	0.0016
651.6049	-0.0048
651.791	-0.0021
651.9771	0.0007
652.1632	0.0085
652.3492	-0.0055
652.5352	-0.005
652.7212	-0.0081
652.9072	0.0047
653.0932	-0.0027
653.2791	-0.0025
653.465	0.0035
653.651	-0.0085
653.8369	-0.0021
654.0227	-0.0039
654.2086	0.003
654.3944	0.0028
654.5803	-0.006
654.7661	-0.003
654.9519	0.0021
655.1377	-0.0039
655.3234	-0.0038
655.5092	-0.002
655.6949	-0.0057
655.8806	-0.0032
656.0663	-0.0018
656.2519	-0.002
656.4376	-0.003
656.6232	0.0012
656.8088	0.0005
656.9945	-0.0026
657.18	0.0056
657.3656	0.0015
657.5511	-0.01
657.7367	-0.0018
657.9222	0.007
658.1077	-0.0004
658.2932	0.0022
658.4786	-0.0042
658.6641	0.001
658.8495	-0.0006
659.0349	-0.0054
659.2203	0.0007
659.4057	-0.0036
659.591	0.0011
659.7764	-0.0049
659.9617	-0.0053
660.147	-0.01
660.3323	0.0035
660.5176	0.0034
660.7028	0.0049
660.888	0.0024
661.0733	0.0007
661.2585	-0.0089
661.4436	-0.0053
661.6288	-0.0037
661.8139	-0.0024
661.9991	-0.0002
662.1842	-0.0022
662.3693	0.0006
662.5544	-0.0023
662.7394	-0.0024
662.9245	0.0017
663.1095	0.0013
663.2945	-0.0017
663.4795	-0.0041
663.6644	0.0021
663.8494	-0.0016
664.0343	0.0016
664.2193	-0.0113
664.4042	-0.0019
664.589	-0.0028
664.7739	-0.0001
664.9587	-0.0015
665.1436	0.0004
665.3284	0.0002
665.5132	-0.0074
665.698	-0.0005
665.8827	0.009
666.0675	-0.0016
666.2522	-0.0022
666.4369	0.0067
666.6216	0.0029
666.8063	0.0065
666.9909	0.0005
667.1756	-0.0014
667.3602	-0.0049
667.5448	-0.0006
667.7294	0.0035
667.9139	0.0018
668.0985	0.0086
668.283	0.0016
668.4675	0.0012
668.652	0.005
668.8365	0.0007
669.0209	0.0082
669.2054	0.0013
669.3898	-0.006
669.5742	0.0033
669.7586	0.0012
669.943	0.0084
670.1273	0.0083
670.3117	0.0019
670.496	0.0046
670.6803	0.0114
670.8646	0.0012
671.0488	0.0012
671.2331	0.0071
671.4173	0.0077
671.6015	0.0056
671.7857	0.0056
671.9699	0.0052
672.1541	0.0068
672.3382	0.0049
672.5223	-0.0014
672.7064	0.0079
672.8905	0.0054
673.0746	0.0069
673.2587	0.0033
673.4427	0.001
673.6267	0.0065
673.8107	0.0031
673.9947	0.0061
674.1787	0.004
674.3626	-0.005
674.5465	0.0086
674.7304	-0.0013
674.9143	0.0043
675.0982	-0.0003
675.2821	-0.0068
675.4659	0.0043
675.6497	0.0038
675.8335	-0.0002
676.0173	0.0005
676.2011	0.003
676.3849	0.0042
676.5686	0.0011
676.7523	0.0034
676.936	-0.0037
677.1197	0.0007
677.3034	-0.0006
677.487	0.0087
677.6706	0.0017
677.8542	-0.006
678.0378	0.0029
678.2214	0.0018
678.405	0.0039
678.5885	-0.0083
678.772	0.0055
678.9555	-0.0093
679.139	-0.0027
679.3225	0.0024
679.5059	0.0002
679.6894	0.0057
679.8728	0.0042
680.0562	-0.0139
680.2395	-0.0039
680.4229	-0.0012
680.6062	0.0037
680.7896	-0.0034
680.9729	-0.007
681.1562	-0.0003
681.3394	0.0023
681.5227	-0.0068
681.7059	-0.0087
681.8891	0.0023
682.0723	-0.0057
682.2555	0.0051
682.4387	-0.0043
682.6218	-0.0055
682.805	0.002
682.9881	0.0017
683.1712	0.0028
683.3542	-0.0023
683.5373	0.0002
683.7203	0.0025
683.9034	-0.0023
684.0864	-0.0005
684.2694	-0.0031
684.4523	0.0048
684.6353	-0.0021
684.8182	-0.0008
685.0011	-0.0065
685.184	0.0029
685.3669	0.0018
685.5498	-0.0003
685.7326	0.0055
685.9154	0.0021
686.0982	0.0062
686.281	0.0154
686.4638	0.0056
686.6465	-0.0008
686.8293	0.0063
687.012	0.0082
687.1947	-0.0046
687.3774	0.0058
687.56	-0.0005
687.7427	0.0019
687.9253	0.0011
688.1079	-0.0042
688.2905	0.0077
688.4731	-0.0032
688.6556	-0.0007
688.8382	-0.0011
689.0207	0.0054
689.2032	-0.0071
689.3857	-0.0072
689.5681	0.0033
689.7506	-0.0065
689.933	-0.0016
690.1154	-0.0001
690.2978	0.0036
690.4802	0.0015
690.6626	-0.0064
690.8449	-0.0033
691.0272	0.0134
691.2095	-0.0046
691.3918	-0.0037
691.5741	0.005
691.7563	0.0022
691.9386	-0.004
692.1208	0.0083
692.303	0.0045
692.4852	0.0025
692.6673	0.002
692.8495	-0.0045
693.0316	0.0068
693.2137	-0.0003
693.3958	0.0098
693.5778	0.0058
693.7599	0.0064
693.9419	0.0032
694.1239	0.0071
694.3059	-0.0034
694.4879	0.0069
694.6699	0.0084
694.8518	0.0034
695.0337	-0.0019
695.2157	0.0068
695.3975	-0.0049
695.5794	0.0054
695.7613	0.0005
695.9431	0.003
696.1249	-0.0002
696.3067	0.0069
696.4885	0.0041
696.6703	-0.013
696.852	0.0059
697.0337	0.0011
697.2154	0.0001
697.3971	0.0011
697.5788	-0.0015
697.7605	-0.0047
697.9421	-0.0006
698.1237	-0.0019
698.3053	-0.0042
698.4869	-0.0049
698.6685	-0.0094
698.85	-0.0033
699.0315	0.0034
699.213	0.0001
699.3945	0.0067
699.576	0.0055
699.7575	0.0027
699.9389	0.0061
700.1203	-0.0017
700.3017	-0.011
700.4831	-0.0004
700.6645	0.0054
700.8458	0.0093
701.0271	0.0025
701.2084	0.0025
701.3897	0.002
701.571	0.0098
701.7523	0.0002
701.9335	0.0064
702.1147	0.0053
702.2959	-0.0052
702.4771	0.0006
702.6583	0.0028
702.8394	-0.0121
703.0205	-0.003
703.2016	-0.005
703.3827	0.0018
703.5638	0.0043
703.7449	0.0048
703.9259	0.0112
704.1069	-0.0064
704.2879	0.0034
704.4689	0.0056
704.6499	0.0087
704.8308	-0.0006
705.0117	0.0073
705.1927	0.0026
705.3735	0.0034
705.5544	-0.0042
705.7353	-0.0002
705.9161	-0.008
706.0969	-0.0127
706.2777	-0.0007
706.4585	0.0012
706.6393	0.0006
706.82	-0.0007
707.0007	-0.0048
707.1815	-0.0029
707.3621	0.0059
707.5428	0.0055
707.7235	0.0035
707.9041	-0.0001
708.0847	-0.0066
708.2653	0.0008
708.4459	-0.0088
708.6265	0.0026
708.807	-0.0006
708.9875	0.0018
709.168	-0.0039
709.3485	0.0016
709.529	-0.0053
709.7095	-0.012
709.8899	-0.0008
710.0703	-0.0117
710.2507	-0.0046
710.4311	-0.0059
710.6115	-0.0132
710.7918	-0.0104
710.9721	0.0016
711.1524	-0.0116
711.3327	-0.0053
711.513	-0.0075
711.6932	0.0017
711.8735	0.005
712.0537	-0.0036
712.2339	-0.0037
712.4141	-0.0064
712.5942	-0.0082
712.7744	-0.0007
712.9545	-0.0075
713.1346	-0.0091
713.3147	-0.0164
713.4947	-0.0123
713.6748	-0.0053
713.8548	-0.0014
714.0348	-0.0029
714.2148	-0.0021
714.3948	0.0099
714.5748	-0.0036
714.7547	-0.002
714.9346	-0.0011
715.1145	-0.0005
715.2944	-0.0052
715.4743	-0.0016
715.6541	-0.0037
715.834	0.0013
716.0138	-0.0047
716.1936	-0.0101
716.3733	-0.0034
716.5531	0.0053
716.7328	-0.0076
716.9126	-0.0071
717.0923	0.0026
717.2719	-0.0056
717.4516	0.0058
717.6312	-0.0076
717.8109	0.003
717.9905	-0.0026
718.1701	0.0005
718.3496	-0.0131
718.5292	-0.0035
718.7087	-0.0017
718.8882	-0.0016
719.0677	-0.0003
719.2472	-0.0037
719.4267	0.0056
719.6061	-0.0015
719.7856	0.0004
719.965	0.0038
720.1443	-0.0067
720.3237	0.0119
720.5031	0.0005
720.6824	0.0115
720.8617	0.0075
721.041	0.0102
721.2203	0.008
721.3995	0.0062
721.5788	0.0092
721.758	0.0102
721.9372	0.0022
722.1164	0.007
722.2956	0.0093
722.4747	0.0048
722.6538	0.0034
722.8329	0.0165
723.012	0.0107
723.1911	-0.0037
723.3702	0.0012
723.5492	0.0089
723.7282	-0
723.9072	0.0032
724.0862	-0.0044
724.2652	0.0024
724.4441	0.0054
724.623	0.0006
724.8019	-0.0071
724.9808	0.005
725.1597	-0.0047
725.3385	0.006
725.5174	-0.0064
725.6962	0.0096
725.875	0.0047
726.0538	0.0047
726.2325	0.0039
726.4112	0.003
726.59	0
726.7687	-0.0083
726.9474	0.0069
727.126	-0.0039
727.3047	-0.002
727.4833	0.0013
727.6619	0.0025
727.8405	-0.0071
728.0191	-0.011
728.1976	-0.0012
728.3762	-0.0006
728.5547	0.0011
728.7332	-0.0067
728.9116	0.0017
729.0901	0.0088
729.2686	0.0031
729.447	-0.0061
729.6254	-0.0022
729.8038	-0.0057
729.9821	-0.0071
730.1605	-0.0033
730.3388	0.002
730.5171	0.0075
730.6954	-0.0107
730.8737	-0.0051
731.0519	0.0029
731.2302	0.0038
731.4084	0.0152
731.5866	0.0101
731.7648	-0.0104
731.9429	-0.0002
732.1211	-0.0053
732.2992	0.0037
732.4773	-0.0002
732.6554	0.0051
732.8335	0.0035
733.0115	0.0011
733.1896	0.0121
733.3676	-0.0077
733.5456	0.0069
733.7235	0.012
733.9015	-0.0021
734.0794	-0.0013
734.2574	-0.0062
734.4353	-0.0037
734.6131	-0.0003
734.791	0.005
734.9689	0.0082
735.1467	-0.0039
735.3245	-0.0098
735.5023	-0.0104
735.68	-0.0091
735.8578	-0.002
736.0355	-0.013
736.2132	0.0031
736.3909	-0.0042
736.5686	-0.0088
736.7463	-0.0027
736.9239	-0.0021
737.1015	-0.0054
737.2791	0.0047
737.4567	-0.0077
737.6343	-0.0074
737.8118	0.0036
737.9894	0.0033
738.1669	-0.0135
738.3444	-0.0028
738.5218	0.0028
738.6993	-0.0113
738.8767	-0.0085
739.0541	0.0135
739.2315	-0.0112
739.4089	-0.0032
739.5863	-0.0042
739.7636	-0.0094
739.9409	-0.0019
740.1182	0.0035
740.2955	-0.0049
740.4728	-0.0073
740.65	0.0041
740.8272	-0.007
741.0044	-0.004
741.1816	0.0016
741.3588	-0.0023
741.5359	-0.0021
741.7131	-0.0123
741.8902	-0.0087
742.0673	-0.0037
742.2444	-0.0049
742.4214	-0.0206
742.5985	-0.0071
742.7755	-0.0061
742.9525	-0.0101
743.1295	-0.002
743.3064	-0.001
743.4834	-0.002
743.6603	-0.01
743.8372	-0.0053
744.0141	-0.0047
744.191	0.0016
744.3678	-0.005
744.5446	0.0022
744.7215	0.0078
744.8982	-0.0011
745.075	-0.0144
745.2518	0.0089
745.4285	0.0103
745.6052	-0.006
745.7819	0.0033
745.9586	-0.0045
746.1353	-0.0031
746.3119	-0.0016
746.4885	-0.0055
746.6651	0.0066
746.8417	0.0097
747.0183	0.0018
747.1948	-0.0016
747.3714	0.0111
747.5479	0.0023
747.7244	0.0031
747.9008	0.0127
748.0773	0.0075
748.2537	-0.0009
748.4301	-0.0117
748.6065	0.0034
748.7829	0.0104
748.9593	-0.001
749.1356	-0.0003
749.3119	0.0139
749.4882	-0.0008
749.6645	0.0002
749.8408	0.0003
750.017	0.002
750.1933	0.0016
750.3695	-0.0011
750.5457	0.0055
750.7218	0.0073
750.898	0.0038
751.0741	0.0009
751.2502	0.0059
751.4263	-0.0007
751.6024	-0.0027
751.7784	0.004
751.9545	-0.0058
752.1305	-0.0014
752.3065	-0.0027
752.4825	0.0023
752.6584	-0.0058
752.8344	0.0012
753.0103	-0.0129
753.1862	-0.0094
753.3621	-0.0122
753.5379	-0.0075
753.7138	0.0052
753.8896	-0.0058
754.0654	0.0031
754.2412	0.0097
754.417	0.0045
754.5927	-0.0026
754.7685	-0.0003
754.9442	-0
755.1199	0.0078
755.2956	-0.0074
755.4712	0.0091
755.6469	0.0098
755.8225	-0.0045
755.9981	-0.0049
756.1736	0.0059
756.3492	-0.0064
756.5248	-0.0013
756.7003	-0.0049
756.8758	0.008
757.0513	-0.0065
757.2267	-0.0097
757.4022	-0.0012
757.5776	-0.0084
757.753	0.003
757.9284	0.0014
758.1038	0.0144
758.2791	0.0065
758.4545	-0.0098
758.6298	0.0029
758.8051	0.0049
758.9803	0.0107
759.1556	0.009
759.3308	0.0061
759.506	0.0083
759.6812	0.0116
759.8564	0.0061
760.0316	0.0084
760.2067	0.0019
760.3819	0.0081
760.557	0.0133
760.732	0.006
760.9071	-0.0131
761.0821	0.0005
761.2572	0.0142
761.4322	-0.0009
761.6072	0.0006
761.7821	-0.0134
761.9571	0.0029
762.132	-0.001
762.3069	-0.0184
762.4818	-0.0069
762.6567	-0.0068
762.8316	0.0038
763.0064	0.0019
763.1812	-0.0069
763.356	-0.0123
763.5308	-0.011
763.7055	0.0036
763.8803	0.0001
764.055	0.0134
764.2297	0.0001
764.4044	0.0005
764.579	-0.0039
764.7537	-0.0104
764.9283	0.005
765.1029	-0.0091
765.2775	-0.0038
765.4521	-0.0025
765.6266	-0.0066
765.8011	-0.0027
765.9756	-0.0053
766.1501	0.0074
766.3246	-0.0043
766.4991	-0.003
766.6735	-0.0012
766.8479	-0.0044
767.0223	0.0015
767.1967	-0.0035
767.371	0.0009
767.5454	-0.013
767.7197	0.0062
767.894	0.0044
768.0683	-0.0123
768.2425	-0.0064
768.4168	-0.0022
768.591	-0.003
768.7652	0.0069
768.9394	0.0027
769.1135	0.0005
769.2877	0.0179
769.4618	0.0069
769.6359	0.0029
769.81	0.0031
769.984	-0.0163
770.1581	-0.0062
770.3321	0.0036
770.5061	-0.0043
770.6801	-0.004
770.8541	0.0015
771.028	0.013
771.202	-0.0097
771.3759	0.0017
771.5498	-0.0009
771.7236	0.0112
771.8975	0.0035
772.0713	0.0071
772.2451	0.0139
772.4189	-0.0013
772.5927	0.0151
772.7665	0.0124
772.9402	0.0075
773.1139	0.0016
773.2876	-0.0041
773.4613	0.0062
773.635	0.0026
773.8086	-0.016
773.9822	0.0113
774.1558	0.0112
774.3294	-0.0038
774.503	0.0024
774.6765	0.0031
774.8501	0.0091
775.0236	0.0085
775.1971	0.0132
775.3705	-0.0075
775.544	0.0195
775.7174	-0.0081
775.8908	0.0025
776.0642	-0.0034
776.2376	-0.0052
776.4109	0.0045
776.5843	0.0052
776.7576	0.0076
776.9309	-0.0021
777.1041	-0.0002
777.2774	0.0048
777.4506	0.0009
777.6238	-0.0059
777.797	0.002
777.9702	-0.0035
778.1434	-0.0063
778.3165	-0.0147
778.4896	0.0006
778.6627	0.0139
778.8358	-0.006
779.0089	0.0012
779.1819	-0.0052
779.3549	0.0076
779.5279	0.0041
779.7009	-0.004
779.8739	-0.006
780.0468	-0.0055
780.2197	0.0116
780.3926	-0.0082
780.5655	-0.0078
780.7384	-0.0049
780.9112	0.0088
781.0841	-0.0024
781.2569	0.005
781.4297	-0.0026
781.6024	0.0049
781.7752	0.0115
781.9479	0.0131
782.1206	0.0048
782.2933	0.0044
782.466	0.0103
782.6386	-0.0036
782.8113	0.0164
782.9839	0.0138
783.1565	0.0232
783.329	0.0014
783.5016	0.0221
783.6741	0.0056
783.8466	0.0021
784.0191	0.0078
784.1916	0.0017
784.3641	0.0013
784.5365	0.0026
784.7089	-0.0101
784.8813	-0.0133
785.0537	-0.0047
785.2261	0.0012
785.3984	-0.0117
785.5707	-0.0156
785.743	-0.0106
785.9153	-0.0132
786.0876	0.0004
786.2598	-0.0027
786.432	0.0011
786.6042	0.0083
786.7764	-0.0066
786.9486	0.0177
787.1207	-0.0184
787.2928	0.0166
787.4649	0.0033
787.637	0.0105
787.8091	-0.0017
787.9811	-0.003
788.1532	-0.0015
788.3252	0.0136
788.4972	0.0029
788.6691	0.0002
788.8411	-0.0005
789.013	-0.0029
789.1849	0.0085
789.3568	0.004
789.5287	0.0173
789.7005	-0.0092
789.8723	0.0116
790.0442	0.0285
790.2159	0.0129
790.3877	-0.0047
790.5595	-0.0187
790.7312	0.0004
790.9029	0.0078
791.0746	0.0108
791.2463	0.0166
791.4179	-0.006
791.5896	-0.0083
791.7612	0.0039
791.9328	0.0168
792.1044	0.0032
792.2759	0.0046
792.4474	0.0012
792.619	0.0007
792.7905	0.0171
792.9619	0.0148
793.1334	0.0197
793.3048	0.0186
793.4762	0.0198
793.6476	0.0028
793.819	0.0054
793.9904	0.0258
794.1617	0.0025
794.333	-0.001
794.5043	-0.0082
794.6756	-0.0005
794.8469	0.0077
795.0181	0.0032
795.1893	0.0122
795.3605	0.0016
795.5317	0.003
795.7029	0.002
795.874	0.0082
796.0452	0.0039
796.2163	0.01
796.3873	0.0284
796.5584	0.0035
796.7294	0.0078
796.9005	0.0118
797.0715	0.012
797.2425	0.0121
797.4134	-0.0062
797.5844	0.0046
797.7553	-0.0042
797.9262	0.0175
798.0971	-0.0001
798.2679	-0.0073
798.4388	-0.0173
798.6096	0.0024
798.7804	0.0096
798.9512	0.0063
799.122	0.0167
799.2927	0.0175
799.4635	0.0049
799.6342	-0.006
799.8049	-0.0003
799.9755	-0.0034
800.1462	0.0009
800.3168	0.0103
800.4874	0.0195
800.658	0.0236
800.8286	0.0038
800.9991	0.0173
801.1696	0.0304
801.3402	0.0168
801.5106	0.0061
801.6811	0.0055
801.8516	0.0254
802.022	0.0177
802.1924	0.008
802.3628	0.0121
802.5332	0.023
802.7035	0.0147
802.8739	0.0076
803.0442	-0.0016
803.2145	0.0148
803.3847	-0.0042
803.555	-0.0016
803.7252	-0.0126
803.8954	0.0042
804.0656	-0.0014
804.2358	0.0061
804.4059	0.0181
804.5761	-0.0046
804.7462	0.0144
804.9163	0.0094
805.0864	-0.0103
805.2564	0.0216
805.4264	0.0145
805.5965	-0.0001
805.7665	0.0106
805.9364	0.0222
806.1064	0.0413
806.2763	0.0118
806.4462	0.0368
806.6161	-0.0059
806.786	0.0148
806.9559	0.0068
807.1257	-0.0167
807.2955	-0.0001
807.4653	0.0098
807.6351	0.0042
807.8048	-0.0012
807.9746	0.0187
808.1443	0.022
808.314	-0.0037
808.4837	-0.0064
808.6533	0.01
808.8229	0.0286
808.9926	0.0017
809.1622	0.0135
809.3317	0.0064
809.5013	-0.0013
809.6708	0.0168
809.8403	0.0303
810.0098	0.0175
810.1793	0.0193
810.3488	0.0252
810.5182	0.0068
810.6876	0.0127
810.857	0.0146
811.0264	0.0219
811.1958	0.0332
811.3651	0.0195
811.5344	0.0158
811.7037	0.0039
811.873	0.0098
812.0422	0.0237
812.2115	0.0178
812.3807	0.015
812.5499	0.0266
812.7191	0.0202
812.8882	0.0085
813.0574	0.0125
813.2265	0.0194
813.3956	0.0232
813.5646	0.0258
813.7337	0.006
813.9027	0.031
814.0718	0.0284
814.2407	0.0386
814.4097	0.0202
814.5787	0.0011
814.7476	0.0181
814.9165	-0.0009
815.0854	0.0104
815.2543	0.0034
815.4232	-0.0013
815.592	0.0375
815.7608	0.0146
815.9296	0.0197
816.0984	0.0302
816.2671	0.0369
816.4359	0.0206
816.6046	0.0197
816.7733	-0.0083
816.942	-0.0014
817.1106	0.0278
817.2793	0.027
817.4479	0.0164
817.6165	0.0139
817.785	0.0219
817.9536	0.0088
818.1221	0.0163
818.2906	0.0239
818.4591	0.0068
818.6276	-0.0128
818.7961	0.0233
818.9645	0.0241
819.1329	0.0342
819.3013	0.03
819.4697	0.0224
819.638	0.0047
819.8064	0.0446
819.9747	0.0165
820.143	0.0269
820.3113	0.0154
820.4795	0.039
820.6477	0.0058
820.816	0.0155
820.9842	0.0293
821.1523	-0.0019
821.3205	0.0009
821.4886	-0.0073
821.6567	0.0264
821.8248	0.0378
821.9929	0.0317
822.1609	0.0286
822.329	0.0435
822.497	0.0434
822.665	0.0151
822.833	0.0144
823.0009	0.0132
823.1688	0.0483
823.3367	0.0329
823.5046	0.0167
823.6725	0.0716
823.8404	0.0018
824.0082	0.0034
824.176	0.007
824.3438	0.0252
824.5116	-0.0043
824.6793	0.0081
824.847	0.0124
825.0147	-0.0031
825.1824	0.0153
825.3501	0.0197
825.5177	0.0143
825.6854	-0.0006
825.853	0.0337
826.0206	0.0012
826.1881	0.0306
826.3557	-0.0039
826.5232	0.0528
826.6907	-0.0284
826.8582	0.009
827.0257	0.0111
827.1931	0.0173
827.3605	0.0384
827.528	0.0073
827.6953	-0.0126
827.8627	0.0102
828.03	0.0569
828.1974	-0.0044
828.3647	-0.0073
828.532	0.02
828.6992	0.0033
828.8665	0.0362
829.0337	-0.0107
829.2009	0.0218
829.3681	0.0449
829.5352	0.0416
829.7024	-0.0288
829.8695	-0.008
830.0366	0.0575
830.2037	0.0337
830.3707	0.0284
830.5378	-0.0128
830.7048	-0.004
830.8718	0.0036
831.0388	-0.0013
831.2057	0.04
831.3727	0.0266
831.5396	0.0044
831.7065	0.0477
831.8734	0.018
832.0402	-0.0026
832.2071	0.0468
832.3739	0.0071
832.5407	0.025
832.7075	-0.0143
832.8742	-0.0014
833.041	-0.0341
833.2077	0.0047
833.3744	0.0445
833.541	0.0183
833.7077	0.0131
833.8743	0.0057
834.0409	0.0236
834.2075	0.03
834.3741	0.0079
834.5407	-0.0096
834.7072	0.0011
834.8737	-0.0228
835.0402	0.0225
835.2067	0.043
835.3731	0.0435
835.5395	0.0174
835.706	0.0183
835.8723	0.0484
836.0387	0.0255
836.2051	-0.0252
836.3714	-0.0016
836.5377	-0.0071
836.704	-0.0129
836.8703	-0.001
837.0365	-0.0104
837.2027	-0.01
837.3689	0.0177
837.5351	-0.004
837.7013	-0.0037
837.8674	-0.0553
838.0335	0.0066
838.1997	0.024
838.3657	-0.0003
838.5318	0.0116
838.6978	0.0373
838.8639	0.021
839.0299	0.0227
839.1958	0.0157
839.3618	0.0119
839.5277	-0.0079
839.6937	-0.0052
839.8596	-0.0119
840.0254	0.0395
840.1913	0.0385
840.3571	0.0729
840.523	0.0425
840.6888	-0.0258
840.8545	0.041
841.0203	0.005
841.186	0.0181
841.3517	0.017
841.5174	-0.002
841.6831	-0.0303
841.8488	0.0152
842.0144	0.0469
842.18	0.0813
842.3456	0.0238
842.5112	-0.0084
842.6767	0.0016
842.8422	-0.0273
843.0077	-0.0377
843.1732	0.0247
843.3387	0.0158
843.5042	-0.0175
843.6696	-0.0318
843.835	-0.01
844.0004	0.0468
844.1657	0.092
844.3311	0.0035
844.4964	-0.0308
844.6617	-0.0081
844.827	0.0271
844.9923	0.0453
845.1575	0.0092
845.3227	0.0615
845.4879	0.0471
845.6531	-0.0071
845.8183	-0.0419
845.9834	0.0071
846.1485	0.0442
846.3136	-0.0227
846.4787	-0.0707
846.6438	0.1165
846.8088	0.058
846.9738	-0.0062
847.1388	0.0487
847.3038	0.0244
847.4687	-0.0685
847.6337	0.0591
847.7986	-0.0361
847.9635	-0.0371
848.1284	0.0365
848.2932	-0.0005
848.458	0.0385
848.6228	0.0816
848.7876	0.0645
848.9524	0.0224
849.1172	0.01
849.2819	0.0239
849.4466	0.0089
849.6113	0.0125
849.7759	0.0369
849.9406	0.0011
850.1052	0.1715
850.2698	0.0328
850.4344	0.0013
850.599	-0.0625
850.7635	0.0953
850.928	-0.0991
851.0925	0.0502
851.257	0.0601
851.4215	-0.0182
851.5859	0.0059
851.7503	0.0602
851.9147	0.063
852.0791	0.0187
852.2434	-0.0438
852.4078	0.0578
852.5721	0.0946
852.7364	0.0332
852.9007	-0.1666
853.0649	0.1004
853.2291	0.0409
853.3934	0.0303
853.5575	-0.0008
853.7217	-0.0302
853.8859	-0.1601
854.05	-0.0364
854.2141	-0.0161
854.3782	-0.1015
854.5423	-0.0724
854.7063	0.1102
854.8703	0.1609
855.0343	-0.0784
855.1983	-0.0607
855.3623	0.2199
855.5262	0.097
855.6901	-0.0222
855.854	0.0934
856.0179	-0.0073
856.1818	0.0785
856.3456	-0.0144
856.5094	-0.1943
856.6732	0.0212
856.837	-0.0294
857.0008	0.0963
857.1645	0.1008
857.3282	-0.0283
857.4919	0.2737
857.6556	0.1657
857.8192	0.0511
857.9828	-0.0149
858.1465	0.1243
858.31	-0.1033
858.4736	0.1257
858.6372	-0.2536
858.8007	-0.1001
858.9642	-0.1132
859.1277	0.2317
859.2911	0.0627
859.4546	0.0225
859.618	-0.2691
859.7814	0.0266
859.9448	0.0117
860.1081	-0.0322
860.2715	0.3504
860.4348	0.1753
860.5981	-0.0376
860.7614	0.0698
860.9246	0.0549
861.0879	-0.0423
861.2511	-0.001
861.4143	-0.0973
861.5774	0.2548
861.7406	-0.1555
861.9037	0.0911
862.0668	0.1022
862.2299	-0.1423
862.393	-0.3118
862.556	0.1175
862.7191	-0.3515
862.8821	-0.19
863.0451	0.2601
863.208	0.0611
863.371	0.2204
863.5339	-0.1467
863.6968	0.0449
863.8597	0.6523
864.0225	0.1786
864.1854	-0.0536
864.3482	0.6832
864.511	0.5121
864.6737	0.1439
864.8365	0.0701
864.9992	-0.3937
865.1619	-0.0553
865.3246	-0.0828
865.4873	0.116
865.65	-0.2786
865.8126	-0.142
865.9752	0.2655
866.1378	-0.0802
866.3004	-0
866.4629	0.1623
866.6254	0.4467
866.7879	0.0808
866.9504	-0.0553
867.1129	-0
867.2753	0.0047
867.4377	0.1955
867.6001	0.144
867.7625	0.0493
867.9249	-0.706
868.0872	0.0521
868.2495	0.004
868.4118	-0.0346
868.5741	-0.182
868.7363	-0.5785
868.8986	-0
869.0608	-0.0027
869.223	0.1883
869.3851	0.6547
869.5473	-0
869.7094	0.287
869.8715	-0.4771
870.0336	-0.7652
870.1957	-0.0897
870.3577	-1.16
870.5197	-0.331
870.6817	-0.4632
870.8437	0.1283
871.0057	-0.3955
871.1676	0.2668
871.3295	-0
871.4914	-0.4127
871.6533	-0.3086
871.8151	0.5554
871.977	-0
872.1388	-0
872.3006	1.4094
872.4623	-0
872.6241	-0.0799
872.7858	-0
872.9475	-0.2682
873.1092	0.0239
873.2709	0.8846
873.4325	0.157
873.5941	-0
873.7557	-0
873.9173	-0
874.0789	-0.2192
874.2404	-0
874.4019	0.0945
874.5634	-0.4418
874.7249	0.0062
874.8863	0.3754
875.0478	-0
875.2092	-0
875.3706	0.0376
875.5319	-0.2162
875.6933	-0
875.8546	-0.1568
876.0159	-0
876.1772	-0.0244
876.3385	-0
876.4997	0.3145
876.6609	-0.4474
876.8221	0.4907
876.9833	-0
877.1445	-0
877.3056	0.0684
877.4667	-0
877.6278	-0.1379
877.7889	-0.4771
877.9499	-0
878.111	-0
878.272	-0
878.433	-0
878.5939	-0.0093
878.7549	-0.0701
878.9158	-0.0997
879.0767	0.1423
879.2376	0.472
879.3984	-0
879.5593	-0
879.7201	0.1691
879.8809	-0.4161
880.0417	-0.3034
880.2024	0.5684
880.3632	-1.1035
880.5239	0.1632
880.6846	-0
880.8452	-2.4983
881.0059	-1.2095
881.1665	-0.2939
881.3271	-0
881.4877	-0.6695
881.6483	-0.4986
881.8088	-0.0265
881.9693	-0
882.1298	-0
882.2903	-0
