Data from MonoPyChalIsomerACN10uM380nmA_Absorbance_13-38-28-749.txt Node
Date: Fri Jul 05 13:38:28 BST 2024
User: LASERRRRR
Spectrometer: FLMT03099
Trigger mode: 0
Integration Time (sec): 1.000000E-1
Scans to average: 1
Electric dark correction enabled: true
Nonlinearity correction enabled: false
Boxcar width: 0
XAxis mode: Wavelengths
Number of Pixels in Spectrum: 3648
>>>>>Begin Spectral Data<<<<<
179.3399	-0.2954
179.5586	-0.2954
179.7771	-0.2954
179.9957	-0.1274
180.2143	-0
180.4329	-0.2804
180.6514	-0
180.8699	-0
181.0885	-0
181.307	-0.1255
181.5255	-1.1526
181.744	-0.4664
181.9625	-0
182.181	12.9893
182.3994	0.1799
182.6179	-0.1984
182.8363	-0.2265
183.0547	-0.3547
183.2732	-0.0112
183.4916	0.4479
183.71	0.1709
183.9284	0.0369
184.1467	-0.113
184.3651	0.0567
184.5835	-0.1069
184.8018	0.2005
185.0201	0.1649
185.2385	-0.0382
185.4568	0.2087
185.6751	0.6208
185.8934	0.3129
186.1117	0.2326
186.3299	0.055
186.5482	0.0098
186.7664	0.2438
186.9847	-0.0172
187.2029	0.2379
187.4211	-0.0446
187.6393	0.1588
187.8575	-0.0107
188.0757	0.1274
188.2939	0.1028
188.512	-0.0371
188.7302	0.0573
188.9483	0.2425
189.1665	0.14
189.3846	-0.3749
189.6027	0.1097
189.8208	0.3015
190.0389	-0.0412
190.257	0.1781
190.475	0.0529
190.6931	0.2138
190.9111	0.2371
191.1292	0.1617
191.3472	0.4289
191.5652	0.4539
191.7832	0.1434
192.0012	0.6623
192.2192	0.4286
192.4371	0.4508
192.6551	0.3781
192.873	0.343
193.091	0.33
193.3089	0.5597
193.5268	0.4318
193.7447	0.5289
193.9626	0.5023
194.1805	0.6879
194.3984	0.781
194.6162	0.7044
194.8341	0.5259
195.0519	0.7048
195.2697	1.6286
195.4875	1.0062
195.7054	0.5716
195.9231	0.6022
196.1409	0.5726
196.3587	0.6137
196.5765	0.7419
196.7942	0.6912
197.012	0.605
197.2297	0.6112
197.4474	0.9627
197.6651	0.6068
197.8828	0.7424
198.1005	0.6086
198.3182	0.7724
198.5358	0.9884
198.7535	0.7548
198.9711	0.6436
199.1888	0.8724
199.4064	1.2717
199.624	0.7694
199.8416	0.7928
200.0592	1.0001
200.2767	0.8755
200.4943	0.9775
200.7119	1.7522
200.9294	1.2261
201.1469	0.7927
201.3645	0.6738
201.582	0.7455
201.7995	0.8606
202.017	0.9167
202.2344	0.7852
202.4519	0.9498
202.6694	0.6548
202.8868	0.8351
203.1042	0.9215
203.3217	0.9164
203.5391	0.8541
203.7565	0.7374
203.9739	0.8194
204.1913	0.7231
204.4086	0.8682
204.626	0.905
204.8433	0.8479
205.0607	0.8163
205.278	0.8227
205.4953	0.8059
205.7126	0.8434
205.9299	0.9332
206.1472	0.8716
206.3644	0.8717
206.5817	0.8709
206.7989	1.0045
207.0162	0.8173
207.2334	0.9164
207.4506	0.7477
207.6678	0.764
207.885	0.8529
208.1022	0.7916
208.3194	0.8491
208.5365	0.6923
208.7537	0.7929
208.9708	0.7141
209.1879	0.831
209.405	0.8355
209.6222	0.8538
209.8392	0.7439
210.0563	0.7796
210.2734	0.9066
210.4905	0.7963
210.7075	0.8276
210.9245	0.8062
211.1416	0.987
211.3586	0.8395
211.5756	0.8171
211.7926	0.7362
212.0096	0.8542
212.2265	0.7665
212.4435	0.7472
212.6604	0.835
212.8774	0.813
213.0943	0.8113
213.3112	0.7053
213.5281	0.7716
213.745	0.6703
213.9619	0.7988
214.1788	0.7476
214.3956	0.7028
214.6125	0.7115
214.8293	0.6385
215.0461	0.7308
215.2629	0.6598
215.4798	0.7358
215.6965	0.6258
215.9133	0.7172
216.1301	0.6278
216.3469	0.6739
216.5636	0.6683
216.7803	0.6531
216.9971	0.6109
217.2138	0.6201
217.4305	0.63
217.6472	0.63
217.8639	0.6786
218.0805	0.5936
218.2972	0.5808
218.5138	0.5705
218.7305	0.6064
218.9471	0.5637
219.1637	0.5684
219.3803	0.5576
219.5969	0.5467
219.8135	0.5386
220.0301	0.5257
220.2466	0.6068
220.4632	0.5293
220.6797	0.5122
220.8962	0.553
221.1127	0.5517
221.3292	0.5167
221.5457	0.5053
221.7622	0.4785
221.9787	0.5493
222.1951	0.5018
222.4116	0.5486
222.628	0.5121
222.8444	0.5653
223.0608	0.5442
223.2772	0.5517
223.4936	0.498
223.71	0.5069
223.9264	0.5395
224.1427	0.5577
224.3591	0.4931
224.5754	0.5331
224.7917	0.5311
225.008	0.5863
225.2243	0.5461
225.4406	0.5505
225.6569	0.5327
225.8732	0.543
226.0894	0.5299
226.3057	0.5322
226.5219	0.5344
226.7381	0.5141
226.9543	0.5361
227.1705	0.54
227.3867	0.5397
227.6029	0.5873
227.8191	0.5634
228.0352	0.5675
228.2513	0.6011
228.4675	0.5622
228.6836	0.535
228.8997	0.5347
229.1158	0.5614
229.3319	0.5545
229.548	0.566
229.764	0.5636
229.9801	0.5595
230.1961	0.5551
230.4121	0.5586
230.6282	0.5469
230.8442	0.5436
231.0602	0.573
231.2761	0.5654
231.4921	0.5867
231.7081	0.5858
231.924	0.5499
232.14	0.5468
232.3559	0.5453
232.5718	0.5431
232.7877	0.5476
233.0036	0.5539
233.2195	0.5719
233.4353	0.5441
233.6512	0.5718
233.867	0.5361
234.0829	0.5504
234.2987	0.5507
234.5145	0.5471
234.7303	0.5768
234.9461	0.5929
235.1619	0.5646
235.3776	0.5705
235.5934	0.5687
235.8091	0.532
236.0249	0.5504
236.2406	0.5177
236.4563	0.5388
236.672	0.5354
236.8877	0.5621
237.1034	0.5546
237.319	0.5369
237.5347	0.5509
237.7503	0.5353
237.966	0.5518
238.1816	0.5602
238.3972	0.5165
238.6128	0.5224
238.8284	0.5435
239.0439	0.5467
239.2595	0.5225
239.475	0.5467
239.6906	0.5498
239.9061	0.5333
240.1216	0.522
240.3371	0.5347
240.5526	0.4961
240.7681	0.5226
240.9836	0.4965
241.199	0.5099
241.4145	0.4962
241.6299	0.4958
241.8453	0.4891
242.0607	0.4727
242.2761	0.4569
242.4915	0.4689
242.7069	0.4659
242.9223	0.4466
243.1376	0.4149
243.353	0.4316
243.5683	0.4499
243.7836	0.4001
243.9989	0.4086
244.2142	0.3838
244.4295	0.3976
244.6448	0.3895
244.86	0.3743
245.0753	0.3617
245.2905	0.3542
245.5057	0.3453
245.721	0.326
245.9362	0.3216
246.1514	0.3313
246.3665	0.319
246.5817	0.3172
246.7969	0.3036
247.012	0.2907
247.2271	0.2854
247.4423	0.2972
247.6574	0.2889
247.8725	0.2879
248.0876	0.2695
248.3026	0.2705
248.5177	0.2702
248.7328	0.2678
248.9478	0.2467
249.1628	0.2592
249.3779	0.2507
249.5929	0.2503
249.8079	0.2515
250.0228	0.2482
250.2378	0.2308
250.4528	0.2355
250.6677	0.2264
250.8827	0.2446
251.0976	0.2283
251.3125	0.2285
251.5274	0.2162
251.7423	0.2094
251.9572	0.2174
252.172	0.2215
252.3869	0.2073
252.6017	0.2004
252.8166	0.1904
253.0314	0.2056
253.2462	0.199
253.461	0.2088
253.6758	0.2011
253.8906	0.2157
254.1053	0.1997
254.3201	0.2021
254.5348	0.2124
254.7496	0.2174
254.9643	0.1902
255.179	0.2063
255.3937	0.186
255.6083	0.1882
255.823	0.2011
256.0377	0.1881
256.2523	0.1947
256.467	0.1851
256.6816	0.2008
256.8962	0.1888
257.1108	0.1747
257.3254	0.1944
257.54	0.199
257.7545	0.1898
257.9691	0.2105
258.1836	0.1907
258.3981	0.2054
258.6127	0.2042
258.8272	0.1834
259.0417	0.1928
259.2561	0.199
259.4706	0.1746
259.6851	0.1855
259.8995	0.1913
260.114	0.1782
260.3284	0.1759
260.5428	0.1789
260.7572	0.1858
260.9716	0.1832
261.186	0.1866
261.4003	0.1841
261.6147	0.1983
261.829	0.1686
262.0433	0.1758
262.2577	0.1778
262.472	0.1782
262.6863	0.1817
262.9005	0.1865
263.1148	0.194
263.3291	0.1644
263.5433	0.1715
263.7576	0.1911
263.9718	0.1752
264.186	0.1932
264.4002	0.1852
264.6144	0.1832
264.8286	0.2053
265.0427	0.1744
265.2569	0.1751
265.471	0.1784
265.6851	0.1704
265.8993	0.1841
266.1134	0.1831
266.3275	0.183
266.5415	0.1725
266.7556	0.1738
266.9697	0.188
267.1837	0.1816
267.3978	0.1748
267.6118	0.1985
267.8258	0.1878
268.0398	0.1642
268.2538	0.1859
268.4677	0.1775
268.6817	0.1654
268.8957	0.1786
269.1096	0.1686
269.3235	0.1891
269.5374	0.1692
269.7514	0.1735
269.9652	0.1588
270.1791	0.1652
270.393	0.1568
270.6068	0.1723
270.8207	0.1708
271.0345	0.1646
271.2483	0.1637
271.4622	0.166
271.676	0.1721
271.8897	0.1484
272.1035	0.1549
272.3173	0.1608
272.531	0.1722
272.7448	0.1574
272.9585	0.149
273.1722	0.1555
273.3859	0.1637
273.5996	0.1537
273.8133	0.1709
274.0269	0.1555
274.2406	0.14
274.4542	0.1486
274.6679	0.1488
274.8815	0.1554
275.0951	0.1688
275.3087	0.1734
275.5223	0.1608
275.7358	0.1636
275.9494	0.1668
276.1629	0.1527
276.3765	0.1629
276.59	0.1576
276.8035	0.1584
277.017	0.1588
277.2305	0.1519
277.444	0.1629
277.6574	0.1545
277.8709	0.165
278.0843	0.1599
278.2978	0.1547
278.5112	0.1556
278.7246	0.1639
278.938	0.165
279.1513	0.1624
279.3647	0.1663
279.5781	0.1571
279.7914	0.1671
280.0047	0.172
280.2181	0.1536
280.4314	0.174
280.6447	0.1698
280.8579	0.169
281.0712	0.1754
281.2845	0.1681
281.4977	0.1619
281.711	0.153
281.9242	0.1658
282.1374	0.169
282.3506	0.1613
282.5638	0.1798
282.7769	0.1638
282.9901	0.165
283.2033	0.1887
283.4164	0.1759
283.6295	0.1615
283.8426	0.1546
284.0557	0.1717
284.2688	0.1787
284.4819	0.1765
284.695	0.1721
284.908	0.1734
285.1211	0.1678
285.3341	0.1741
285.5471	0.1721
285.7601	0.1816
285.9731	0.1688
286.1861	0.1761
286.3991	0.1847
286.612	0.1854
286.825	0.1805
287.0379	0.1807
287.2508	0.1826
287.4637	0.187
287.6766	0.1767
287.8895	0.1879
288.1024	0.1922
288.3152	0.1804
288.5281	0.175
288.7409	0.1876
288.9538	0.1786
289.1666	0.1784
289.3794	0.1805
289.5922	0.1759
289.8049	0.1916
290.0177	0.1773
290.2304	0.1825
290.4432	0.1923
290.6559	0.1845
290.8686	0.1961
291.0813	0.1677
291.294	0.191
291.5067	0.1841
291.7194	0.1736
291.932	0.2042
292.1447	0.1856
292.3573	0.1702
292.5699	0.1953
292.7825	0.1836
292.9951	0.1852
293.2077	0.1898
293.4203	0.1801
293.6328	0.1793
293.8454	0.1891
294.0579	0.172
294.2704	0.1801
294.4829	0.1777
294.6954	0.1921
294.9079	0.1709
295.1204	0.1892
295.3328	0.1798
295.5453	0.1882
295.7577	0.1865
295.9701	0.1776
296.1825	0.1822
296.3949	0.1751
296.6073	0.1771
296.8197	0.1701
297.0321	0.1892
297.2444	0.1675
297.4567	0.1771
297.6691	0.1836
297.8814	0.1743
298.0937	0.1866
298.306	0.1828
298.5182	0.1813
298.7305	0.1737
298.9428	0.1701
299.155	0.1833
299.3672	0.1808
299.5794	0.1641
299.7916	0.1752
300.0038	0.1859
300.216	0.1834
300.4282	0.1896
300.6403	0.1776
300.8525	0.1786
301.0646	0.1751
301.2767	0.1784
301.4888	0.1761
301.7009	0.1788
301.913	0.1756
302.125	0.1738
302.3371	0.1905
302.5491	0.1776
302.7612	0.1858
302.9732	0.1721
303.1852	0.1775
303.3972	0.1794
303.6092	0.1726
303.8211	0.1648
304.0331	0.1767
304.245	0.1723
304.457	0.1693
304.6689	0.1715
304.8808	0.1816
305.0927	0.1568
305.3046	0.1692
305.5164	0.1758
305.7283	0.1557
305.9401	0.1602
306.152	0.1561
306.3638	0.1663
306.5756	0.1626
306.7874	0.1511
306.9992	0.1576
307.2109	0.1458
307.4227	0.1381
307.6344	0.1556
307.8462	0.1451
308.0579	0.1416
308.2696	0.1451
308.4813	0.1396
308.693	0.1457
308.9046	0.1425
309.1163	0.1329
309.328	0.1329
309.5396	0.1291
309.7512	0.1314
309.9628	0.1207
310.1744	0.1357
310.386	0.1288
310.5976	0.1166
310.8091	0.1211
311.0207	0.1135
311.2322	0.1272
311.4437	0.1168
311.6552	0.1105
311.8667	0.1219
312.0782	0.0999
312.2897	0.1041
312.5012	0.1171
312.7126	0.1095
312.924	0.0997
313.1355	0.1223
313.3469	0.1122
313.5583	0.1111
313.7696	0.1067
313.981	0.1025
314.1924	0.1041
314.4037	0.1063
314.6151	0.1117
314.8264	0.1022
315.0377	0.1018
315.249	0.0979
315.4603	0.1137
315.6716	0.1079
315.8828	0.0883
316.0941	0.0988
316.3053	0.0989
316.5165	0.0967
316.7277	0.0944
316.9389	0.0977
317.1501	0.0988
317.3613	0.092
317.5724	0.0764
317.7836	0.1139
317.9947	0.0895
318.2058	0.0989
318.417	0.0876
318.6281	0.0719
318.8391	0.1012
319.0502	0.077
319.2613	0.099
319.4723	0.1051
319.6834	0.1003
319.8944	0.092
320.1054	0.0913
320.3164	0.0992
320.5274	0.0942
320.7383	0.0935
320.9493	0.091
321.1602	0.1042
321.3712	0.0899
321.5821	0.0945
321.793	0.0969
322.0039	0.0926
322.2148	0.0922
322.4257	0.0925
322.6365	0.0939
322.8474	0.0937
323.0582	0.094
323.269	0.0984
323.4798	0.1106
323.6906	0.0913
323.9014	0.106
324.1122	0.0977
324.3229	0.0909
324.5337	0.091
324.7444	0.0773
324.9551	0.1118
325.1658	0.0986
325.3765	0.1017
325.5872	0.0924
325.7979	0.0919
326.0085	0.0961
326.2192	0.0968
326.4298	0.1038
326.6404	0.0833
326.851	0.0952
327.0616	0.0935
327.2722	0.1077
327.4828	0.1021
327.6933	0.0964
327.9039	0.1003
328.1144	0.0931
328.3249	0.0932
328.5354	0.0938
328.7459	0.1024
328.9564	0.1024
329.1669	0.0984
329.3773	0.101
329.5878	0.099
329.7982	0.0961
330.0086	0.1002
330.219	0.1024
330.4294	0.1011
330.6398	0.1006
330.8502	0.0845
331.0605	0.1007
331.2708	0.101
331.4812	0.1136
331.6915	0.1106
331.9018	0.0933
332.1121	0.0987
332.3224	0.1126
332.5326	0.0947
332.7429	0.1081
332.9531	0.1183
333.1633	0.1014
333.3735	0.1024
333.5837	0.1003
333.7939	0.0974
334.0041	0.1023
334.2143	0.1145
334.4244	0.1055
334.6346	0.086
334.8447	0.1161
335.0548	0.104
335.2649	0.0841
335.475	0.116
335.685	0.0956
335.8951	0.1042
336.1051	0.1067
336.3152	0.1009
336.5252	0.0997
336.7352	0.1218
336.9452	0.1088
337.1552	0.1031
337.3652	0.1075
337.5751	0.1087
337.7851	0.107
337.995	0.1027
338.2049	0.1111
338.4148	0.1004
338.6247	0.1155
338.8346	0.1015
339.0445	0.1035
339.2543	0.1049
339.4642	0.1131
339.674	0.0971
339.8838	0.1068
340.0936	0.1176
340.3034	0.1208
340.5132	0.1118
340.7229	0.1143
340.9327	0.0993
341.1424	0.1058
341.3522	0.1244
341.5619	0.1141
341.7716	0.1188
341.9813	0.1066
342.1909	0.1077
342.4006	0.1158
342.6102	0.1141
342.8199	0.1171
343.0295	0.1188
343.2391	0.1294
343.4487	0.1308
343.6583	0.1191
343.8679	0.1098
344.0774	0.122
344.287	0.1305
344.4965	0.113
344.706	0.1272
344.9155	0.129
345.125	0.116
345.3345	0.1252
345.544	0.121
345.7534	0.1315
345.9629	0.1267
346.1723	0.125
346.3817	0.1209
346.5911	0.1166
346.8005	0.1252
347.0099	0.1051
347.2193	0.1138
347.4286	0.1309
347.638	0.1313
347.8473	0.135
348.0566	0.1286
348.2659	0.1226
348.4752	0.1225
348.6845	0.1191
348.8937	0.1218
349.103	0.1474
349.3122	0.1306
349.5214	0.1406
349.7306	0.1245
349.9398	0.1407
350.149	0.1365
350.3582	0.1325
350.5674	0.1417
350.7765	0.141
350.9856	0.1483
351.1948	0.1459
351.4039	0.1195
351.613	0.1375
351.822	0.1393
352.0311	0.132
352.2402	0.1491
352.4492	0.1406
352.6582	0.1615
352.8672	0.1499
353.0762	0.1443
353.2852	0.1468
353.4942	0.1413
353.7032	0.1395
353.9121	0.1444
354.1211	0.1533
354.33	0.1596
354.5389	0.1388
354.7478	0.147
354.9567	0.1488
355.1655	0.1421
355.3744	0.1424
355.5833	0.1495
355.7921	0.1738
356.0009	0.1477
356.2097	0.1818
356.4185	0.1688
356.6273	0.1476
356.8361	0.1722
357.0448	0.1434
357.2536	0.1571
357.4623	0.1635
357.671	0.1542
357.8797	0.1793
358.0884	0.1718
358.2971	0.1702
358.5057	0.1598
358.7144	0.1698
358.923	0.1678
359.1316	0.1736
359.3402	0.1609
359.5488	0.1766
359.7574	0.1596
359.966	0.1634
360.1746	0.1648
360.3831	0.1756
360.5916	0.1694
360.8002	0.1586
361.0087	0.1835
361.2172	0.179
361.4256	0.1778
361.6341	0.1903
361.8426	0.1839
362.051	0.1792
362.2594	0.178
362.4678	0.1737
362.6762	0.2057
362.8846	0.1859
363.093	0.1861
363.3014	0.2043
363.5097	0.167
363.718	0.1913
363.9264	0.1882
364.1347	0.1847
364.343	0.1964
364.5513	0.1991
364.7595	0.2053
364.9678	0.2127
365.176	0.2101
365.3842	0.1936
365.5925	0.2013
365.8007	0.1926
366.0089	0.2049
366.217	0.2025
366.4252	0.2229
366.6333	0.2213
366.8415	0.2098
367.0496	0.1975
367.2577	0.2055
367.4658	0.2123
367.6739	0.2134
367.882	0.2247
368.09	0.1961
368.2981	0.2048
368.5061	0.203
368.7141	0.2163
368.9221	0.2366
369.1301	0.2223
369.3381	0.2161
369.5461	0.2209
369.754	0.2101
369.962	0.2261
370.1699	0.2103
370.3778	0.2295
370.5857	0.2103
370.7936	0.2146
371.0015	0.2253
371.2093	0.2402
371.4172	0.2442
371.625	0.2192
371.8328	0.2332
372.0406	0.2189
372.2484	0.2305
372.4562	0.2322
372.664	0.2273
372.8717	0.2341
373.0795	0.2133
373.2872	0.2222
373.4949	0.2304
373.7026	0.2404
373.9103	0.2452
374.118	0.2495
374.3256	0.2415
374.5333	0.2535
374.7409	0.2277
374.9485	0.2424
375.1561	0.245
375.3637	0.2392
375.5713	0.2441
375.7789	0.2321
375.9864	0.2511
376.194	0.2387
376.4015	0.2454
376.609	0.2516
376.8165	0.2353
377.024	0.2462
377.2315	0.2366
377.4389	0.2441
377.6464	0.2688
377.8538	0.2471
378.0612	0.2524
378.2686	0.2476
378.476	0.2698
378.6834	0.2642
378.8908	0.269
379.0981	0.25
379.3055	0.2835
379.5128	0.2593
379.7201	0.2597
379.9274	0.2676
380.1347	0.2582
380.342	0.2747
380.5492	0.2637
380.7565	0.2691
380.9637	0.272
381.1709	0.2746
381.3781	0.2699
381.5853	0.2695
381.7925	0.281
381.9997	0.2687
382.2068	0.2771
382.4139	0.2615
382.6211	0.2754
382.8282	0.2662
383.0353	0.238
383.2424	0.2746
383.4494	0.2721
383.6565	0.2668
383.8635	0.2787
384.0706	0.2789
384.2776	0.2943
384.4846	0.2652
384.6916	0.2636
384.8986	0.2822
385.1055	0.2741
385.3125	0.2903
385.5194	0.2556
385.7263	0.2864
385.9333	0.2652
386.1402	0.2767
386.347	0.2745
386.5539	0.2619
386.7608	0.2837
386.9676	0.2646
387.1744	0.2573
387.3813	0.2821
387.5881	0.2774
387.7948	0.2727
388.0016	0.2691
388.2084	0.2722
388.4151	0.2544
388.6219	0.2667
388.8286	0.2705
389.0353	0.276
389.242	0.2684
389.4487	0.2715
389.6553	0.2567
389.862	0.241
390.0686	0.2555
390.2753	0.2777
390.4819	0.2648
390.6885	0.2777
390.8951	0.268
391.1016	0.2644
391.3082	0.2607
391.5147	0.2611
391.7213	0.2606
391.9278	0.2695
392.1343	0.2669
392.3408	0.2585
392.5473	0.2689
392.7537	0.2532
392.9602	0.2343
393.1666	0.2315
393.373	0.2651
393.5794	0.2605
393.7858	0.282
393.9922	0.2213
394.1986	0.2412
394.4049	0.2479
394.6113	0.2346
394.8176	0.2186
395.0239	0.2221
395.2302	0.2571
395.4365	0.2376
395.6428	0.2362
395.8491	0.2282
396.0553	0.2315
396.2615	0.2209
396.4678	0.2234
396.674	0.2293
396.8802	0.2267
397.0863	0.2537
397.2925	0.2263
397.4987	0.2118
397.7048	0.2305
397.9109	0.2303
398.117	0.231
398.3231	0.2429
398.5292	0.2295
398.7353	0.2451
398.9413	0.2289
399.1474	0.2241
399.3534	0.2214
399.5594	0.2284
399.7654	0.2378
399.9714	0.2465
400.1774	0.2263
400.3833	0.2356
400.5893	0.2303
400.7952	0.2284
401.0011	0.2331
401.207	0.2263
401.4129	0.2396
401.6188	0.2262
401.8247	0.2367
402.0305	0.214
402.2364	0.2255
402.4422	0.2532
402.648	0.2439
402.8538	0.2578
403.0596	0.2131
403.2654	0.2444
403.4711	0.2126
403.6768	0.2234
403.8826	0.2347
404.0883	0.2325
404.294	0.2284
404.4997	0.2218
404.7054	0.2447
404.911	0.2251
405.1167	0.217
405.3223	0.2545
405.5279	0.2372
405.7335	0.2478
405.9391	0.2496
406.1447	0.2108
406.3502	0.2375
406.5558	0.2316
406.7613	0.2413
406.9668	0.245
407.1724	0.2137
407.3778	0.2316
407.5833	0.2425
407.7888	0.2279
407.9942	0.243
408.1997	0.2261
408.4051	0.2175
408.6105	0.2395
408.8159	0.223
409.0213	0.2174
409.2267	0.2396
409.432	0.2217
409.6374	0.2435
409.8427	0.2378
410.048	0.2369
410.2533	0.2236
410.4586	0.2347
410.6639	0.2245
410.8691	0.2164
411.0744	0.2226
411.2796	0.2154
411.4848	0.2389
411.69	0.2164
411.8952	0.2518
412.1004	0.214
412.3056	0.256
412.5107	0.2098
412.7158	0.2408
412.921	0.2249
413.1261	0.2295
413.3312	0.2274
413.5362	0.2086
413.7413	0.2265
413.9464	0.2149
414.1514	0.2139
414.3564	0.2193
414.5614	0.1965
414.7664	0.2113
414.9714	0.2208
415.1764	0.2145
415.3813	0.2336
415.5863	0.2182
415.7912	0.2195
415.9961	0.2266
416.201	0.2239
416.4059	0.2296
416.6108	0.2076
416.8156	0.2345
417.0205	0.2266
417.2253	0.2172
417.4301	0.217
417.6349	0.2355
417.8397	0.2162
418.0445	0.2181
418.2492	0.2292
418.454	0.2136
418.6587	0.2268
418.8634	0.2158
419.0681	0.2091
419.2728	0.2162
419.4775	0.2143
419.6822	0.2135
419.8868	0.1895
420.0915	0.2112
420.2961	0.1995
420.5007	0.1987
420.7053	0.2072
420.9099	0.2169
421.1144	0.2151
421.319	0.1983
421.5235	0.2177
421.728	0.2066
421.9325	0.2121
422.137	0.2105
422.3415	0.211
422.546	0.2056
422.7504	0.2172
422.9549	0.2116
423.1593	0.2115
423.3637	0.1995
423.5681	0.2068
423.7725	0.1905
423.9769	0.1991
424.1812	0.1887
424.3856	0.1943
424.5899	0.1938
424.7942	0.1969
424.9985	0.1987
425.2028	0.199
425.4071	0.2097
425.6113	0.1735
425.8156	0.2041
426.0198	0.1867
426.224	0.1736
426.4282	0.1751
426.6324	0.1703
426.8366	0.1916
427.0407	0.1719
427.2449	0.1785
427.449	0.1873
427.6531	0.1526
427.8572	0.179
428.0613	0.1783
428.2654	0.1755
428.4694	0.1696
428.6735	0.1655
428.8775	0.1857
429.0815	0.1927
429.2855	0.1713
429.4895	0.1764
429.6935	0.1595
429.8975	0.1752
430.1014	0.153
430.3053	0.1457
430.5093	0.1579
430.7132	0.1523
430.9171	0.1436
431.1209	0.1527
431.3248	0.1538
431.5286	0.157
431.7325	0.1499
431.9363	0.1483
432.1401	0.1429
432.3439	0.1345
432.5477	0.1258
432.7514	0.1323
432.9552	0.1492
433.1589	0.1378
433.3627	0.1309
433.5664	0.1427
433.7701	0.132
433.9737	0.1258
434.1774	0.1354
434.3811	0.1401
434.5847	0.1319
434.7883	0.1348
434.9919	0.1281
435.1955	0.118
435.3991	0.1153
435.6027	0.116
435.8062	0.1083
436.0098	0.1017
436.2133	0.1211
436.4168	0.1182
436.6203	0.095
436.8238	0.1235
437.0272	0.1076
437.2307	0.111
437.4341	0.1035
437.6375	0.105
437.841	0.0944
438.0443	0.1075
438.2477	0.1048
438.4511	0.0943
438.6545	0.1019
438.8578	0.0974
439.0611	0.1022
439.2644	0.0993
439.4677	0.0857
439.671	0.0789
439.8743	0.0983
440.0775	0.0917
440.2808	0.0747
440.484	0.0844
440.6872	0.0809
440.8904	0.0739
441.0936	0.0796
441.2967	0.0774
441.4999	0.0785
441.703	0.0586
441.9062	0.0827
442.1093	0.0728
442.3124	0.0764
442.5155	0.0621
442.7185	0.0737
442.9216	0.0498
443.1246	0.0741
443.3276	0.064
443.5307	0.0641
443.7337	0.0742
443.9366	0.0642
444.1396	0.0647
444.3426	0.0493
444.5455	0.0516
444.7484	0.0581
444.9513	0.0549
445.1542	0.0588
445.3571	0.0524
445.56	0.0576
445.7628	0.0392
445.9657	0.048
446.1685	0.0613
446.3713	0.0515
446.5741	0.0361
446.7769	0.0428
446.9797	0.0447
447.1824	0.0415
447.3852	0.0403
447.5879	0.0612
447.7906	0.0519
447.9933	0.0544
448.196	0.04
448.3986	0.0177
448.6013	0.0322
448.8039	0.0129
449.0066	0.029
449.2092	0.0421
449.4118	0.0389
449.6143	0.0352
449.8169	0.0392
450.0195	0.0196
450.222	0.0058
450.4245	0.0326
450.627	0.0318
450.8295	0.0274
451.032	0.0205
451.2345	0.0457
451.4369	0.0303
451.6394	0.0281
451.8418	0.0078
452.0442	0.0034
452.2466	0.0375
452.449	0.0117
452.6513	0.0219
452.8537	0.0135
453.056	0.0046
453.2583	0.0269
453.4607	0.0302
453.663	0.0211
453.8652	0.0153
454.0675	-0.0013
454.2697	0.0315
454.472	0.008
454.6742	0.0113
454.8764	0.0229
455.0786	0.0149
455.2808	0.0023
455.4829	0.0209
455.6851	0.0277
455.8872	0.0103
456.0893	0.0324
456.2915	-0.0133
456.4935	0.0122
456.6956	0.0036
456.8977	0.0087
457.0997	-0.001
457.3018	-0.0006
457.5038	0.0053
457.7058	0.0099
457.9078	-0.0036
458.1098	0.0068
458.3117	0.0032
458.5137	0.015
458.7156	0.0262
458.9175	-0.0126
459.1194	0.0087
459.3213	0.0061
459.5232	0.0113
459.725	-0.0046
459.9269	-0.0026
460.1287	-0.0008
460.3305	0.0047
460.5323	0.0021
460.7341	-0.0015
460.9359	-0.01
461.1376	0.0101
461.3394	-0.0057
461.5411	0.0032
461.7428	0.0091
461.9445	0.0119
462.1462	0.0119
462.3479	0.0083
462.5495	0.0076
462.7512	0.0097
462.9528	0.0069
463.1544	-0.013
463.356	0.0181
463.5576	0.0064
463.7592	-0.0006
463.9607	-0.0048
464.1623	-0.0017
464.3638	0.0231
464.5653	-0.0224
464.7668	-0.0027
464.9683	0.007
465.1697	0.0113
465.3712	-0.0059
465.5726	0.0028
465.7741	-0.0004
465.9755	-0.0123
466.1769	0.0043
466.3782	-0.0036
466.5796	-0.0083
466.7809	0.0014
466.9823	-0.002
467.1836	-0.0035
467.3849	-0.0031
467.5862	0.0003
467.7875	-0.0051
467.9887	0.0079
468.19	0.0015
468.3912	-0.0089
468.5924	-0.0072
468.7936	-0.0006
468.9948	-0.0029
469.196	-0.0082
469.3972	-0.0045
469.5983	0.0061
469.7994	-0.0098
470.0006	-0.0064
470.2017	-0.0073
470.4027	-0.0067
470.6038	0.0121
470.8049	-0.0201
471.0059	-0.0113
471.2069	-0.0321
471.408	0.0079
471.6089	-0.0003
471.8099	0.004
472.0109	0.0052
472.2119	-0.0173
472.4128	-0.0258
472.6137	-0.0065
472.8146	-0.0093
473.0155	-0.0109
473.2164	-0.0122
473.4173	0.004
473.6181	0.0101
473.819	-0.0009
474.0198	-0.0165
474.2206	-0.0167
474.4214	-0.0087
474.6222	-0.0017
474.8229	-0.0118
475.0237	-0.0087
475.2244	-0.0041
475.4251	0.0073
475.6258	-0.0154
475.8265	-0.0117
476.0272	-0.0017
476.2278	0.0007
476.4285	-0.013
476.6291	-0.0039
476.8297	-0.0071
477.0303	-0.0038
477.2309	-0.0142
477.4315	-0.0241
477.632	-0.0105
477.8326	-0.0097
478.0331	-0.0011
478.2336	0.0028
478.4341	-0.0124
478.6346	-0.0128
478.8351	-0.003
479.0355	-0.0026
479.236	-0.0209
479.4364	-0.0052
479.6368	-0.0143
479.8372	-0.0167
480.0376	-0.0052
480.2379	-0.024
480.4383	-0.013
480.6386	-0.0006
480.8389	-0.0039
481.0392	-0.003
481.2395	-0.0114
481.4398	0.0157
481.6401	0.0021
481.8403	-0.0222
482.0405	-0.0054
482.2408	-0.0064
482.441	0.0023
482.6411	-0.0191
482.8413	-0.0072
483.0415	-0.0128
483.2416	-0.0225
483.4417	-0.0154
483.6419	-0.003
483.8419	-0.0074
484.042	-0.0006
484.2421	0.0081
484.4422	-0.012
484.6422	-0.0029
484.8422	0.0016
485.0422	-0.0136
485.2422	0.001
485.4422	-0.0129
485.6422	-0.015
485.8421	-0.0111
486.042	-0.0024
486.242	-0.0026
486.4419	-0.0152
486.6417	-0.0125
486.8416	-0.0075
487.0415	-0.0109
487.2413	-0.0131
487.4411	-0.015
487.641	-0.0182
487.8408	-0.0037
488.0405	-0.0037
488.2403	-0.0087
488.4401	-0.0008
488.6398	-0.0123
488.8395	-0.0146
489.0392	-0.0034
489.2389	-0.0099
489.4386	-0.0129
489.6383	-0.005
489.8379	-0.0096
490.0376	-0.011
490.2372	-0.0165
490.4368	-0.0075
490.6364	-0.011
490.836	-0.0063
491.0355	-0.014
491.2351	-0.0133
491.4346	-0.0135
491.6341	-0.0158
491.8336	-0.0081
492.0331	-0.0169
492.2326	-0.02
492.432	-0.0038
492.6315	-0.0022
492.8309	0.0002
493.0303	-0.0134
493.2297	-0.0009
493.4291	-0.0054
493.6284	-0.0059
493.8278	-0.0141
494.0271	-0.0064
494.2264	-0.0054
494.4257	-0.0184
494.625	-0.0115
494.8243	-0.0293
495.0236	-0.0169
495.2228	-0.0131
495.422	-0.0101
495.6213	-0.0107
495.8205	-0.0094
496.0196	-0.0107
496.2188	-0.0003
496.418	-0.0161
496.6171	-0.0048
496.8162	-0.0154
497.0153	0.0016
497.2144	-0.0077
497.4135	0.0024
497.6126	-0.016
497.8116	-0.0155
498.0107	-0.018
498.2097	-0.0214
498.4087	-0.021
498.6077	-0.0087
498.8067	-0.0126
499.0056	0.0011
499.2046	-0.0174
499.4035	-0.0142
499.6024	-0.0066
499.8013	-0.0089
500.0002	-0.0181
500.199	-0.0073
500.3979	-0.0113
500.5967	-0.0258
500.7956	-0.0079
500.9944	-0.0062
501.1932	-0.0044
501.3919	-0.0164
501.5907	-0.0182
501.7895	-0.0094
501.9882	-0.0232
502.1869	-0.0129
502.3856	-0.0242
502.5843	-0.0088
502.783	-0.0147
502.9816	-0.0142
503.1803	-0.0214
503.3789	-0.0101
503.5775	-0.0061
503.7761	-0.0191
503.9747	-0.0045
504.1732	0.0003
504.3718	-0.0068
504.5703	-0.0072
504.7689	-0.0173
504.9674	-0.0109
505.1658	-0.0194
505.3643	-0.0107
505.5628	-0.0121
505.7612	-0.0191
505.9597	-0.0012
506.1581	-0.0181
506.3565	-0.0087
506.5549	-0.0229
506.7532	-0.0221
506.9516	-0.0098
507.1499	-0.0133
507.3482	-0.0122
507.5465	-0.0152
507.7448	-0.001
507.9431	-0.0089
508.1414	-0.0052
508.3396	-0.0068
508.5379	-0.0064
508.7361	-0.0162
508.9343	-0.0124
509.1325	-0.0049
509.3306	-0.0077
509.5288	-0.0119
509.7269	-0.024
509.9251	-0.0093
510.1232	-0.0135
510.3213	-0.0124
510.5193	-0.0012
510.7174	-0.0187
510.9154	-0.0249
511.1135	-0.0113
511.3115	-0.011
511.5095	-0.0177
511.7075	-0.0165
511.9055	-0.0145
512.1034	-0.005
512.3014	-0.0038
512.4993	-0.003
512.6972	-0.0183
512.8951	-0.0258
513.093	-0.0154
513.2908	-0.0028
513.4887	-0.0083
513.6865	-0.0128
513.8844	-0.0057
514.0822	-0.0118
514.2799	-0.0217
514.4777	-0.0144
514.6755	-0.0172
514.8732	-0.0212
515.0709	-0.0182
515.2687	-0.0156
515.4664	-0.0104
515.664	-0.012
515.8617	-0.0057
516.0594	-0.0155
516.257	0.0004
516.4546	-0.0244
516.6522	0.0032
516.8498	-0.0157
517.0474	-0.0125
517.2449	-0.0019
517.4425	-0.0226
517.64	-0.0154
517.8375	-0.0022
518.035	-0.0149
518.2325	-0.0165
518.43	-0.0181
518.6274	-0.0009
518.8249	-0.0152
519.0223	-0.012
519.2197	-0.0141
519.4171	-0.0221
519.6145	-0.0116
519.8118	-0.0039
520.0092	-0.0146
520.2065	-0.0114
520.4038	-0.0175
520.6011	-0.0116
520.7984	-0.0137
520.9956	-0.022
521.1929	-0.0245
521.3901	-0.0075
521.5874	-0.0129
521.7846	-0.0069
521.9818	-0.0195
522.1789	-0.0118
522.3761	-0.0175
522.5732	-0.0175
522.7704	-0.004
522.9675	-0.0076
523.1646	-0.0072
523.3617	-0.0086
523.5587	-0.014
523.7558	-0.0054
523.9528	-0.0163
524.1498	-0.0072
524.3468	-0.027
524.5438	-0.0088
524.7408	-0.0057
524.9378	0.0019
525.1347	-0.0153
525.3316	-0.0076
525.5285	-0.011
525.7254	-0.0029
525.9223	-0.0144
526.1192	-0.0125
526.316	-0.0113
526.5129	0.0068
526.7097	-0.0082
526.9065	-0.02
527.1033	-0.0075
527.3	-0.0047
527.4968	-0.0079
527.6935	-0.0075
527.8903	-0.015
528.087	-0.0138
528.2837	-0.0124
528.4804	-0.0115
528.677	-0.0128
528.8737	0.0023
529.0703	-0.0104
529.2669	-0.0086
529.4635	-0.0044
529.6601	-0.0052
529.8567	-0.0102
530.0532	-0.0193
530.2498	0.0024
530.4463	-0.0011
530.6428	-0.0071
530.8393	0.0055
531.0358	-0.0045
531.2322	-0.0056
531.4287	-0.009
531.6251	-0.0118
531.8215	0.0003
532.0179	-0.01
532.2143	0.0028
532.4107	-0.0023
532.607	-0.0101
532.8034	-0.0071
532.9997	-0.0109
533.196	-0.0069
533.3923	-0.011
533.5886	0.0078
533.7848	0.0071
533.9811	-0.0098
534.1773	0.0001
534.3735	0.0029
534.5697	-0.0053
534.7659	-0.0119
534.9621	-0.003
535.1582	-0.0092
535.3544	-0.0181
535.5505	-0.0125
535.7466	-0.0104
535.9427	-0.0154
536.1387	-0.0128
536.3348	-0.0075
536.5308	-0.0053
536.7269	-0.0184
536.9229	-0.0198
537.1189	-0.0076
537.3148	-0.0069
537.5108	-0.0173
537.7068	-0.0087
537.9027	-0.0101
538.0986	-0.0094
538.2945	-0.0213
538.4904	-0.0053
538.6863	-0.0078
538.8821	-0.0071
539.078	-0.0116
539.2738	-0.0063
539.4696	-0.0099
539.6654	-0.001
539.8611	-0.0002
540.0569	-0.0108
540.2526	-0.0125
540.4484	-0.0019
540.6441	-0.0044
540.8398	-0.0083
541.0355	-0.0008
541.2311	-0.0103
541.4268	-0.0129
541.6224	0.0015
541.818	-0.0074
542.0136	-0.0119
542.2092	-0.012
542.4048	-0.007
542.6003	-0.0083
542.7959	-0.0056
542.9914	-0.0088
543.1869	-0.0076
543.3824	-0.006
543.5779	-0.0021
543.7734	-0.0043
543.9688	-0.0123
544.1642	0.0047
544.3596	-0.0017
544.555	-0.0082
544.7504	0.0022
544.9458	-0.0048
545.1411	0.0061
545.3365	-0.0051
545.5318	-0.0022
545.7271	-0.0113
545.9224	-0.0086
546.1177	-0.0003
546.3129	-0.0064
546.5081	-0.0071
546.7034	-0.0025
546.8986	-0.0087
547.0938	-0.0111
547.289	-0.0066
547.4841	-0.006
547.6793	0.0023
547.8744	-0.0078
548.0695	-0.0148
548.2646	-0.0056
548.4597	-0.0025
548.6548	-0.0028
548.8498	-0.0094
549.0448	0.003
549.2399	-0.0048
549.4349	0.0025
549.6298	0.0027
549.8248	-0.0004
550.0198	0.0018
550.2147	-0.0075
550.4096	-0.0068
550.6045	-0.0049
550.7994	-0.0036
550.9943	0.0076
551.1892	0.001
551.384	-0.0004
551.5788	-0.0055
551.7737	-0.0043
551.9685	0.0003
552.1632	0.0072
552.358	-0.0034
552.5528	-0.0044
552.7475	-0.0116
552.9422	0
553.1369	0.0057
553.3316	-0.0026
553.5263	-0.0086
553.7209	0.0028
553.9156	-0.0035
554.1102	-0.0028
554.3048	-0.0088
554.4994	0.0108
554.694	-0.0025
554.8885	0.008
555.0831	-0.0075
555.2776	-0.0064
555.4721	-0.0057
555.6666	-0.0102
555.8611	0.007
556.0555	-0.003
556.25	-0.0042
556.4444	-0.0079
556.6388	-0.0065
556.8332	0.0002
557.0276	-0.004
557.222	-0.0045
557.4163	-0.0054
557.6107	-0.0095
557.805	-0.0001
557.9993	-0.0106
558.1936	-0.0041
558.3879	-0.0037
558.5821	-0.0094
558.7764	-0.0069
558.9706	-0.0067
559.1648	0.0104
559.359	-0.0131
559.5532	-0.007
559.7473	-0.0051
559.9415	-0.0011
560.1356	-0.0086
560.3297	-0.0094
560.5238	-0.0053
560.7179	-0.0052
560.9119	-0.0041
561.106	-0.0015
561.3	-0.0054
561.494	-0.0033
561.688	0.0005
561.882	-0.0045
562.076	-0.0005
562.2699	0.0027
562.4639	-0.005
562.6578	0.0018
562.8517	0.003
563.0456	0.0024
563.2395	0.0019
563.4333	0.0022
563.6272	0.0104
563.821	-0.0014
564.0148	0.0016
564.2086	-0.0121
564.4024	-0.0084
564.5961	-0.0138
564.7899	0.001
564.9836	-0.0003
565.1773	-0.0077
565.371	0.0121
565.5647	0.0023
565.7584	0.0005
565.952	0.0019
566.1456	-0.0009
566.3393	-0.005
566.5329	-0.0063
566.7264	0.0008
566.92	-0.0105
567.1136	-0.0004
567.3071	-0.0104
567.5006	0.0049
567.6941	-0.0006
567.8876	0.0016
568.0811	-0.0116
568.2745	-0.0001
568.468	0.0065
568.6614	-0.0015
568.8548	-0.0024
569.0482	-0.0058
569.2416	-0.0025
569.4349	-0.0005
569.6283	0.0036
569.8216	-0.0006
570.0149	-0.0086
570.2082	0.0008
570.4015	0.0057
570.5947	0.0075
570.788	0.0033
570.9812	0.0024
571.1744	-0.0005
571.3676	-0.0112
571.5608	-0.0089
571.754	0
571.9471	0.0001
572.1402	0.0025
572.3333	-0.0068
572.5264	-0
572.7195	-0.0012
572.9126	-0.0006
573.1057	-0.001
573.2987	-0.0001
573.4917	0.0029
573.6847	-0.012
573.8777	0.0009
574.0707	0.0031
574.2636	-0.0032
574.4566	0.0021
574.6495	0.0057
574.8424	-0.0126
575.0353	-0.0088
575.2281	0.0096
575.421	0.0023
575.6138	0.0019
575.8067	-0.0006
575.9995	0.0082
576.1923	0.004
576.385	0.0032
576.5778	-0.0023
576.7706	-0.0051
576.9633	-0.002
577.156	0.0017
577.3487	-0.0046
577.5414	-0.0022
577.734	-0.0026
577.9267	0.003
578.1193	-0.0117
578.3119	0.001
578.5045	-0.0011
578.6971	-0.0003
578.8897	0.0079
579.0822	0.0015
579.2747	0.0004
579.4673	-0.0057
579.6598	-0.0064
579.8522	0.0008
580.0447	-0.0026
580.2372	-0.0026
580.4296	0.0076
580.622	0.0025
580.8144	-0.0038
581.0068	-0.0025
581.1992	-0.0149
581.3915	-0.0033
581.5839	-0.006
581.7762	-0.0051
581.9685	-0.0046
582.1608	0.0045
582.353	0.0013
582.5453	-0.0015
582.7375	0.0045
582.9298	0.0011
583.122	-0.003
583.3142	0.0016
583.5063	-0.0028
583.6985	0.0036
583.8906	0.0013
584.0827	0.0015
584.2749	0.0039
584.4669	0.0001
584.659	0.0013
584.8511	0.007
585.0431	-0.0047
585.2352	0.0002
585.4272	0.0042
585.6192	0.003
585.8111	0.0017
586.0031	0.0042
586.195	0.0017
586.387	0.0074
586.5789	0.0031
586.7708	0.005
586.9627	-0.0011
587.1545	-0.0041
587.3464	-0.0051
587.5382	0.0051
587.73	-0.0046
587.9218	0.002
588.1136	-0.0028
588.3053	-0.0012
588.4971	-0.0071
588.6888	-0.0034
588.8805	0.0012
589.0722	0.0029
589.2639	-0.0069
589.4556	-0.0005
589.6472	-0.0031
589.8389	-0.0057
590.0305	-0.0071
590.2221	-0.0014
590.4137	-0.0102
590.6052	0.0028
590.7968	-0.0026
590.9883	-0.0071
591.1798	-0.0014
591.3713	0.0047
591.5628	0.0071
591.7543	0.0054
591.9458	0.0055
592.1372	0.0082
592.3286	0.0092
592.52	0.004
592.7114	-0.0025
592.9028	0.005
593.0941	0.0015
593.2855	0.0014
593.4768	0.0002
593.6681	0.0048
593.8594	-0.0044
594.0506	-0.0011
594.2419	0.0094
594.4331	0.0036
594.6244	0.0037
594.8156	-0.0072
595.0067	-0.0013
595.1979	0.0106
595.3891	-0.0007
595.5802	0.0038
595.7713	0.0049
595.9624	-0.0058
596.1535	0.0085
596.3446	0.0043
596.5357	0.0054
596.7267	0.009
596.9177	-0.0006
597.1087	-0.0069
597.2997	-0.0056
597.4907	0.0008
597.6817	-0.0039
597.8726	0.0004
598.0635	-0.0015
598.2544	0.0018
598.4453	-0.0024
598.6362	-0.0036
598.827	-0.0122
599.0179	0.0063
599.2087	0.0002
599.3995	-0.0014
599.5903	0.0015
599.7811	0.0027
599.9718	0.0015
600.1626	-0.0026
600.3533	-0.0027
600.544	0.0011
600.7347	0.0008
600.9254	-0.0004
601.116	-0.0122
601.3067	-0.0041
601.4973	-0.0027
601.6879	0.0058
601.8785	-0.0032
602.0691	0.0062
602.2596	0.0025
602.4502	-0.0017
602.6407	-0.0036
602.8312	0.0022
603.0217	-0.0002
603.2122	0.0008
603.4027	-0.0024
603.5931	0.0003
603.7835	-0.0058
603.9739	0.0023
604.1643	0.0024
604.3547	-0.0041
604.5451	-0.0005
604.7354	-0.002
604.9257	-0.0031
605.116	0.0005
605.3063	0.0016
605.4966	0.0027
605.6869	0.0015
605.8771	0.0115
606.0673	0.0014
606.2575	0.0048
606.4477	0.0108
606.6379	0.0069
606.8281	-0.0009
607.0182	-0.0086
607.2083	0.0066
607.3985	-0.0012
607.5885	0.0028
607.7786	-0.0047
607.9687	0.0002
608.1587	0.0059
608.3488	-0.0019
608.5388	0.0022
608.7288	0.0035
608.9187	-0.0001
609.1087	-0.0039
609.2986	-0.0013
609.4886	-0.0035
609.6785	-0.0001
609.8684	0.0096
610.0582	-0.0002
610.2481	0.0006
610.4379	-0.0011
610.6278	-0.0032
610.8176	0.0018
611.0074	0.0035
611.1971	-0.0039
611.3869	-0.0007
611.5766	-0.01
611.7664	0.0094
611.9561	0.0045
612.1458	0.0048
612.3354	-0.005
612.5251	-0.0048
612.7147	-0.0006
612.9044	0.0078
613.094	-0.0022
613.2836	0.0057
613.4731	-0.0058
613.6627	0.0003
613.8522	-0.0034
614.0417	-0.0023
614.2313	-0.0033
614.4207	-0.0036
614.6102	-0.0039
614.7997	-0.0064
614.9891	-0.0051
615.1785	0.0019
615.3679	-0.005
615.5573	0.0098
615.7467	-0.0014
615.9361	-0.0052
616.1254	-0.0019
616.3147	-0.0052
616.504	-0.001
616.6933	0.0063
616.8826	0.0016
617.0718	0.0018
617.2611	0.004
617.4503	0.0007
617.6395	-0.0026
617.8287	-0.0004
618.0179	0.0038
618.207	0.0097
618.3961	0.0027
618.5853	-0.0009
618.7744	0.0072
618.9634	0.0102
619.1525	0.0013
619.3416	0.0073
619.5306	-0.0013
619.7196	-0.0015
619.9086	0.0036
620.0976	0.0015
620.2866	0.0058
620.4755	0.0059
620.6645	0.0032
620.8534	0.0062
621.0423	0.0002
621.2312	0.0038
621.42	-0.008
621.6089	-0.0013
621.7977	0.0023
621.9865	-0.0075
622.1753	0.0006
622.3641	-0.0013
622.5529	0.0123
622.7416	0.0096
622.9303	-0.0037
623.1191	0.0094
623.3078	-0.0042
623.4964	0.008
623.6851	0.0101
623.8737	-0.004
624.0624	0.0098
624.251	0.0017
624.4396	0.005
624.6282	-0.0109
624.8167	0.0014
625.0053	0.0012
625.1938	0.0141
625.3823	0.0012
625.5708	-0.0024
625.7593	-0.0011
625.9477	-0.0029
626.1362	-0.0055
626.3246	0.0009
626.513	0.0103
626.7014	0.0051
626.8898	-0.0024
627.0781	-0.0022
627.2665	-0.0059
627.4548	0.0101
627.6431	0.0084
627.8314	0.0093
628.0197	0.0085
628.2079	-0.0067
628.3962	0.0016
628.5844	0.0026
628.7726	0.0053
628.9608	0.0047
629.1489	0.0074
629.3371	0.0033
629.5252	0.0029
629.7134	0.0106
629.9015	-0.0004
630.0895	0.0039
630.2776	0.0048
630.4657	0.0053
630.6537	0.008
630.8417	-0.0037
631.0297	0.0016
631.2177	0.0006
631.4057	-0.0003
631.5936	0.0042
631.7815	-0.0029
631.9695	-0.0025
632.1574	0.0063
632.3452	0.0104
632.5331	0.0025
632.7209	0.0025
632.9088	0.0107
633.0966	0.0188
633.2844	0.0022
633.4722	0.0062
633.6599	0.0062
633.8477	0.0032
634.0354	0.0013
634.2231	0.0054
634.4108	-0.0048
634.5985	0.0048
634.7861	0.0016
634.9738	0.0039
635.1614	-0.0011
635.349	0.0012
635.5366	-0.0017
635.7242	0.0066
635.9117	0.0127
636.0993	-0.0017
636.2868	0.006
636.4743	-0.0027
636.6618	0.0101
636.8492	0.0004
637.0367	0.0025
637.2241	-0.0086
637.4115	-0.0013
637.5989	0
637.7863	0.0006
637.9737	-0.0036
638.161	0.0065
638.3484	-0.0045
638.5357	0.0077
638.723	0.0005
638.9103	0.0049
639.0975	-0.0024
639.2848	0.0023
639.472	-0.0032
639.6592	-0.0007
639.8464	0.0097
640.0336	0.0031
640.2208	-0.0003
640.4079	-0.0056
640.595	0.0024
640.7821	0.0068
640.9692	-0.0052
641.1563	0.0022
641.3434	-0.0001
641.5304	-0.0024
641.7174	-0.0034
641.9044	-0.0007
642.0914	-0.0035
642.2784	0.0048
642.4653	0.0107
642.6523	0.0067
642.8392	-0.0027
643.0261	0.0057
643.213	-0.0019
643.3999	-0.0011
643.5867	-0.0014
643.7735	-0
643.9604	-0.0069
644.1472	-0.0048
644.3339	-0.0102
644.5207	-0.004
644.7075	-0.0027
644.8942	0.0006
645.0809	0.0041
645.2676	0.0033
645.4543	0.0004
645.6409	0.0041
645.8276	0.0001
646.0142	0.0029
646.2008	-0.0075
646.3874	-0.0063
646.574	0.0059
646.7605	0.0041
646.9471	-0.0097
647.1336	0.0046
647.3201	0.0027
647.5066	0
647.6931	0.0014
647.8795	0.0077
648.0659	0.0021
648.2524	0.0079
648.4388	-0.0043
648.6252	-0.0025
648.8115	-0.0057
648.9979	0.0019
649.1842	-0.0009
649.3705	0.0059
649.5568	0.0018
649.7431	0.0036
649.9294	0.0028
650.1156	0.0016
650.3018	-0.0034
650.488	0.0036
650.6742	0.0034
650.8604	0.0018
651.0466	-0.0047
651.2327	-0
651.4188	0.0028
651.6049	-0.003
651.791	-0.006
651.9771	0.0032
652.1632	-0.001
652.3492	0.0041
652.5352	-0.0024
652.7212	-0.0082
652.9072	-0.0001
653.0932	0.001
653.2791	-0.0076
653.465	-0.0057
653.651	-0.0114
653.8369	-0.0041
654.0227	-0.0077
654.2086	0.0087
654.3944	-0.0022
654.5803	-0.0082
654.7661	-0.0058
654.9519	0.0013
655.1377	-0.0055
655.3234	-0.0028
655.5092	-0.002
655.6949	-0.0094
655.8806	-0.0049
656.0663	-0.0001
656.2519	-0.0038
656.4376	-0.0099
656.6232	0.0006
656.8088	-0.0029
656.9945	-0.0009
657.18	-0.0071
657.3656	0.0004
657.5511	-0.0061
657.7367	-0.0034
657.9222	-0.0017
658.1077	0.0029
658.2932	0.0016
658.4786	-0.0099
658.6641	-0.0028
658.8495	0.0012
659.0349	-0.0017
659.2203	0.0069
659.4057	-0.0005
659.591	-0.0003
659.7764	-0.0001
659.9617	-0.0023
660.147	-0.0073
660.3323	0.0029
660.5176	0.0096
660.7028	0.0013
660.888	-0.0016
661.0733	0.0041
661.2585	-0.0112
661.4436	-0.002
661.6288	0
661.8139	-0.001
661.9991	-0.0003
662.1842	-0.0048
662.3693	-0.002
662.5544	-0.0005
662.7394	0.0016
662.9245	-0.0116
663.1095	-0.0071
663.2945	0.0039
663.4795	-0.0036
663.6644	0.002
663.8494	0.0014
664.0343	0.003
664.2193	-0.0037
664.4042	0.0021
664.589	-0.0082
664.7739	0.0004
664.9587	-0.0012
665.1436	-0.0044
665.3284	0.0037
665.5132	0.002
665.698	0.001
665.8827	0.0091
666.0675	0.0014
666.2522	-0.0005
666.4369	0.0016
666.6216	0.006
666.8063	0.0004
666.9909	0.0012
667.1756	0.0021
667.3602	0.0002
667.5448	-0.0114
667.7294	0.0026
667.9139	0.0074
668.0985	0.0155
668.283	0.0073
668.4675	0.0048
668.652	0
668.8365	0.0009
669.0209	0.0023
669.2054	0.0072
669.3898	-0.0016
669.5742	0.0003
669.7586	0.0079
669.943	0.007
670.1273	0.0036
670.3117	0.004
670.496	0.0128
670.6803	0.0124
670.8646	0.005
671.0488	0.0028
671.2331	0.0071
671.4173	0.0055
671.6015	0.0117
671.7857	0.0016
671.9699	0.01
672.1541	-0
672.3382	0.006
672.5223	0.012
672.7064	0.0108
672.8905	0.0148
673.0746	-0.0037
673.2587	0.0043
673.4427	0.0052
673.6267	0.0067
673.8107	0.0026
673.9947	0.0056
674.1787	0.007
674.3626	-0.0065
674.5465	0.0048
674.7304	0.0005
674.9143	0.0046
675.0982	0.0058
675.2821	-0.0051
675.4659	0.0071
675.6497	0.0038
675.8335	-0.0057
676.0173	-0.0002
676.2011	0.0008
676.3849	0.0049
676.5686	-0.003
676.7523	0.006
676.936	0.0007
677.1197	-0.001
677.3034	0.0016
677.487	0.0081
677.6706	0.0021
677.8542	0.0042
678.0378	0
678.2214	0
678.405	0.0055
678.5885	0.0003
678.772	0.0014
678.9555	-0.003
679.139	-0.0051
679.3225	0.0025
679.5059	0.0016
679.6894	0.0009
679.8728	-0.0014
680.0562	-0.0044
680.2395	-0.0038
680.4229	-0.0019
680.6062	0.007
680.7896	0.0054
680.9729	-0.005
681.1562	0.0067
681.3394	0.0065
681.5227	-0.0098
681.7059	-0.0028
681.8891	-0
682.0723	0.0042
682.2555	-0.0018
682.4387	-0.0031
682.6218	-0.0014
682.805	0.0043
682.9881	0.0061
683.1712	0.0007
683.3542	-0.0053
683.5373	0.0035
683.7203	-0.0025
683.9034	-0.0052
684.0864	-0.0026
684.2694	-0.0034
684.4523	0.0057
684.6353	-0.0073
684.8182	0.0033
685.0011	-0.0061
685.184	0.004
685.3669	0
685.5498	0.0047
685.7326	0.0059
685.9154	-0.0042
686.0982	0.0114
686.281	0.0084
686.4638	0.0023
686.6465	-0.0058
686.8293	0.0015
687.012	0.0036
687.1947	-0.0001
687.3774	0.0037
687.56	-0.0052
687.7427	0.0059
687.9253	-0.0042
688.1079	-0.0019
688.2905	0.005
688.4731	-0.002
688.6556	-0.0039
688.8382	-0.0024
689.0207	-0.0014
689.2032	-0.0136
689.3857	-0.0106
689.5681	-0.0018
689.7506	-0.0027
689.933	0.0011
690.1154	0.0024
690.2978	-0.0022
690.4802	0.0047
690.6626	-0.0069
690.8449	-0.0028
691.0272	0.0032
691.2095	-0.006
691.3918	-0.001
691.5741	0.0071
691.7563	0.0025
691.9386	0.0077
692.1208	-0.0055
692.303	0.0014
692.4852	0.0025
692.6673	-0.0005
692.8495	-0.0018
693.0316	-0.0032
693.2137	0.0006
693.3958	0.0038
693.5778	0.0066
693.7599	-0.0008
693.9419	0.0022
694.1239	0.0066
694.3059	-0.0053
694.4879	0.0042
694.6699	0.0074
694.8518	0.0027
695.0337	-0.0026
695.2157	0.0061
695.3975	0.0045
695.5794	0.0079
695.7613	0.002
695.9431	0.0037
696.1249	0.0064
696.3067	0.0106
696.4885	0.0056
696.6703	-0.0026
696.852	0.001
697.0337	-0.0017
697.2154	-0.0015
697.3971	-0.0069
697.5788	-0.0042
697.7605	-0.0076
697.9421	-0.0038
698.1237	-0.004
698.3053	-0.0029
698.4869	-0.0044
698.6685	-0.0074
698.85	0.0008
699.0315	0.0018
699.213	-0.0038
699.3945	0.0018
699.576	0.0081
699.7575	0.009
699.9389	0.008
700.1203	0.0036
700.3017	-0.0006
700.4831	-0.0003
700.6645	-0.0009
700.8458	0.0081
701.0271	0.0024
701.2084	0.0117
701.3897	0.0036
701.571	0.0097
701.7523	-0.0067
701.9335	-0.001
702.1147	-0.0077
702.2959	0.0039
702.4771	-0.0018
702.6583	-0.0053
702.8394	-0.0025
703.0205	0.013
703.2016	0.0007
703.3827	-0.0017
703.5638	0.0022
703.7449	0.0009
703.9259	0.0161
704.1069	-0.0054
704.2879	0.0059
704.4689	-0.0013
704.6499	0.0041
704.8308	0.0077
705.0117	-0.0035
705.1927	0.0035
705.3735	0.0084
705.5544	0.0045
705.7353	0.0032
705.9161	-0.0061
706.0969	-0.0031
706.2777	-0.0029
706.4585	-0.0119
706.6393	-0.0048
706.82	0.0016
707.0007	-0.0069
707.1815	-0.0008
707.3621	0.0097
707.5428	-0.0005
707.7235	0.0092
707.9041	0.0037
708.0847	-0.0121
708.2653	-0.0025
708.4459	-0.0061
708.6265	-0.0009
708.807	0.0006
708.9875	-0.003
709.168	-0.0059
709.3485	-0.0022
709.529	-0.0039
709.7095	-0.0142
709.8899	-0.0036
710.0703	-0.0101
710.2507	0.0002
710.4311	-0.0028
710.6115	-0.0053
710.7918	-0.0052
710.9721	-0.0014
711.1524	-0.007
711.3327	0.0057
711.513	-0.0012
711.6932	-0.0051
711.8735	0.008
712.0537	0.0015
712.2339	-0.0029
712.4141	-0.0127
712.5942	-0.01
712.7744	-0.0002
712.9545	-0.0161
713.1346	-0.0097
713.3147	-0.0034
713.4947	-0.0139
713.6748	0.0013
713.8548	-0.0028
714.0348	0.0012
714.2148	-0.003
714.3948	0.0081
714.5748	-0.0015
714.7547	-0.0014
714.9346	-0.0049
715.1145	-0.0083
715.2944	-0.0049
715.4743	-0.0006
715.6541	0.0004
715.834	-0.0004
716.0138	-0.0061
716.1936	-0.0137
716.3733	-0.007
716.5531	0.0048
716.7328	-0.0012
716.9126	-0.0106
717.0923	-0.0066
717.2719	-0.0031
717.4516	0.0005
717.6312	0.0007
717.8109	-0.0033
717.9905	0.0096
718.1701	-0.0033
718.3496	-0.0122
718.5292	-0.0005
718.7087	-0.0052
718.8882	0.0009
719.0677	0.0053
719.2472	0.003
719.4267	-0.0016
719.6061	-0.004
719.7856	0.0022
719.965	0.0049
720.1443	-0.0039
720.3237	0.0133
720.5031	-0.0036
720.6824	0.0192
720.8617	0.0044
721.041	-0.0025
721.2203	0.0089
721.3995	0.0069
721.5788	0.0152
721.758	0.0108
721.9372	0.0026
722.1164	0.0053
722.2956	0.0066
722.4747	0.0034
722.6538	0.0043
722.8329	0.0105
723.012	0.0087
723.1911	0.0025
723.3702	0.0024
723.5492	0.0105
723.7282	0.0007
723.9072	0.0049
724.0862	-0.0099
724.2652	-0.0025
724.4441	-0.0075
724.623	-0.0044
724.8019	0.0023
724.9808	0.0041
725.1597	-0.0071
725.3385	0.0057
725.5174	-0.0008
725.6962	-0.0001
725.875	-0.0039
726.0538	0.0018
726.2325	-0.0077
726.4112	0.004
726.59	-0.0066
726.7687	-0.0005
726.9474	-0.0036
727.126	-0.0048
727.3047	-0.0093
727.4833	-0.0037
727.6619	-0.0097
727.8405	-0.0064
728.0191	-0.0076
728.1976	0.0057
728.3762	-0.0016
728.5547	0.0037
728.7332	-0.0056
728.9116	0.0033
729.0901	0.0066
729.2686	-0.002
729.447	-0.0021
729.6254	0.0004
729.8038	-0.0032
729.9821	-0.0134
730.1605	0.0003
730.3388	0.0052
730.5171	-0.0039
730.6954	-0.0097
730.8737	0.001
731.0519	0.0019
731.2302	-0.0045
731.4084	0.0085
731.5866	0.0052
731.7648	-0.0024
731.9429	-0.0044
732.1211	-0.0138
732.2992	-0.0012
732.4773	-0.0105
732.6554	0.0046
732.8335	0.0047
733.0115	0.0054
733.1896	0.0049
733.3676	-0.0061
733.5456	0.0067
733.7235	0.0127
733.9015	-0.0041
734.0794	-0.0031
734.2574	-0.0008
734.4353	0.0025
734.6131	0.0092
734.791	0.0054
734.9689	-0.0017
735.1467	0.0113
735.3245	0.0006
735.5023	-0.0117
735.68	-0.0076
735.8578	0.0016
736.0355	-0.0157
736.2132	-0.0116
736.3909	-0.0012
736.5686	-0.0108
736.7463	0.0012
736.9239	-0.0083
737.1015	0.0044
737.2791	0.0031
737.4567	0.0017
737.6343	-0.0005
737.8118	-0.0022
737.9894	0.0018
738.1669	-0.014
738.3444	-0.0071
738.5218	0.0023
738.6993	-0.0029
738.8767	-0.0073
739.0541	0.0037
739.2315	-0.016
739.4089	0.0002
739.5863	0.0015
739.7636	-0.0055
739.9409	-0.0045
740.1182	0.0049
740.2955	-0.0038
740.4728	-0.0038
740.65	-0.0032
740.8272	0.005
741.0044	-0.0121
741.1816	-0.0006
741.3588	-0.0096
741.5359	0.0012
741.7131	-0.0112
741.8902	-0.0032
742.0673	0.0053
742.2444	-0.0087
742.4214	-0.0114
742.5985	-0.0032
742.7755	-0.0055
742.9525	-0.0294
743.1295	0.0045
743.3064	-0.0029
743.4834	0.0019
743.6603	-0.0115
743.8372	-0.0045
744.0141	-0.0037
744.191	-0.0076
744.3678	-0.0056
744.5446	-0.002
744.7215	0.0144
744.8982	-0.0031
745.075	-0.0085
745.2518	0.0044
745.4285	0.0067
745.6052	-0.0009
745.7819	-0.0044
745.9586	0.0032
746.1353	0.006
746.3119	-0.0034
746.4885	-0.0007
746.6651	-0.0017
746.8417	0.0057
747.0183	0.0014
747.1948	0.0007
747.3714	0.0049
747.5479	0.0122
747.7244	-0.0032
747.9008	0.0082
748.0773	0.0136
748.2537	0.0005
748.4301	-0.0065
748.6065	0.0055
748.7829	0.0092
748.9593	-0.0093
749.1356	0.0076
749.3119	0.0042
749.4882	0.0012
749.6645	0.006
749.8408	-0.0011
750.017	-0.0002
750.1933	0.004
750.3695	0.0011
750.5457	0.0156
750.7218	0.0035
750.898	0.0126
751.0741	0.0007
751.2502	0.0094
751.4263	-0.0002
751.6024	0.0018
751.7784	0.0052
751.9545	-0.0066
752.1305	0.0034
752.3065	-0.0071
752.4825	0.0074
752.6584	-0.008
752.8344	-0.007
753.0103	-0.0053
753.1862	-0.0083
753.3621	-0.0059
753.5379	-0.0137
753.7138	-0.0066
753.8896	-0.0045
754.0654	0.0048
754.2412	0.0065
754.417	0.0027
754.5927	-0.0075
754.7685	-0.0091
754.9442	0.0028
755.1199	0.0074
755.2956	-0.0062
755.4712	0.0073
755.6469	0.0039
755.8225	-0.0026
755.9981	-0.0053
756.1736	-0.004
756.3492	0.0048
756.5248	-0.0017
756.7003	0.003
756.8758	-0.0006
757.0513	-0.0076
757.2267	-0.0062
757.4022	0.0038
757.5776	-0.0075
757.753	0.0048
757.9284	-0.0045
758.1038	0.0126
758.2791	0.0081
758.4545	-0.0075
758.6298	-0.0057
758.8051	0.0056
758.9803	0.0041
759.1556	0.003
759.3308	0.0043
759.506	0.0212
759.6812	0.0028
759.8564	0.0147
760.0316	0.0032
760.2067	0.0111
760.3819	0.0143
760.557	0.0133
760.732	-0.0005
760.9071	-0.01
761.0821	-0.008
761.2572	0.012
761.4322	0.0002
761.6072	-0.0081
761.7821	-0.0129
761.9571	0.0052
762.132	-0.0047
762.3069	-0.0105
762.4818	-0.0035
762.6567	-0.0053
762.8316	-0.0018
763.0064	-0.0013
763.1812	-0.0013
763.356	-0.0057
763.5308	-0.0002
763.7055	0.0021
763.8803	-0.0025
764.055	0.0023
764.2297	-0.0044
764.4044	0.0018
764.579	-0.0073
764.7537	-0.009
764.9283	0.004
765.1029	-0.0024
765.2775	-0.0058
765.4521	-0.0069
765.6266	-0.0025
765.8011	-0.0131
765.9756	0.0007
766.1501	0.013
766.3246	-0.0007
766.4991	-0.0015
766.6735	0.0076
766.8479	-0.0012
767.0223	0.0087
767.1967	-0.0078
767.371	-0.0032
767.5454	-0.0073
767.7197	0.0021
767.894	-0.0018
768.0683	-0.0002
768.2425	-0.0045
768.4168	0.0091
768.591	0.0036
768.7652	0.0022
768.9394	0.0018
769.1135	-0.002
769.2877	0.0129
769.4618	0.0066
769.6359	-0.0036
769.81	0.0073
769.984	-0.0005
770.1581	-0.0061
770.3321	-0.0073
770.5061	-0.0058
770.6801	-0.0009
770.8541	-0.0061
771.028	0.0016
771.202	0.0005
771.3759	0.0082
771.5498	-0.0024
771.7236	-0.0041
771.8975	0.0029
772.0713	-0.0046
772.2451	0.0108
772.4189	0.0141
772.5927	0.0076
772.7665	-0.0002
772.9402	-0.0026
773.1139	-0.0046
773.2876	-0.0099
773.4613	-0.0029
773.635	-0.0024
773.8086	-0.0078
773.9822	0.0125
774.1558	0.0097
774.3294	-0.0121
774.503	0.0033
774.6765	0.0072
774.8501	0.0061
775.0236	0.0007
775.1971	0.0069
775.3705	-0.0151
775.544	0.0059
775.7174	-0.0096
775.8908	0.0024
776.0642	0.0022
776.2376	0.0116
776.4109	-0.0025
776.5843	0.0031
776.7576	0.0062
776.9309	0.0014
777.1041	0.0074
777.2774	0.0059
777.4506	0.0004
777.6238	-0.0105
777.797	0.0022
777.9702	0.0095
778.1434	0.0005
778.3165	-0.0077
778.4896	-0.0096
778.6627	0.0125
778.8358	-0.008
779.0089	0.0089
779.1819	0.0022
779.3549	0.0194
779.5279	0.0107
779.7009	-0.0022
779.8739	0.0036
780.0468	0.0019
780.2197	0.005
780.3926	-0.0037
780.5655	-0.0056
780.7384	0.0046
780.9112	0.0003
781.0841	-0.0112
781.2569	0.0006
781.4297	0.0007
781.6024	0.0116
781.7752	0.0102
781.9479	0.0046
782.1206	0.0047
782.2933	-0.0001
782.466	0.0095
782.6386	0.0066
782.8113	0.0046
782.9839	0.0213
783.1565	0.0167
783.329	0.0064
783.5016	0.0131
783.6741	0.0164
783.8466	0.0019
784.0191	0.025
784.1916	0.0156
784.3641	0
784.5365	0.008
784.7089	-0.003
784.8813	-0.0039
785.0537	-0.0033
785.2261	-0.0166
785.3984	-0.0085
785.5707	-0.0022
785.743	0
785.9153	-0.0111
786.0876	0.0194
786.2598	-0.0126
786.432	0.002
786.6042	-0.0019
786.7764	0.0038
786.9486	0.0037
787.1207	-0.0094
787.2928	0.001
787.4649	0.0078
787.637	-0.0034
787.8091	-0.0126
787.9811	0.0007
788.1532	0.0171
788.3252	-0.0011
788.4972	-0.0077
788.6691	-0.0015
788.8411	0.0089
789.013	-0.0066
789.1849	0.0128
789.3568	-0.0127
789.5287	0.0006
789.7005	0.0058
789.8723	0.0048
790.0442	0.0139
790.2159	0.0081
790.3877	0.0101
790.5595	-0.0131
790.7312	0.0055
790.9029	0.0119
791.0746	-0.0035
791.2463	0.0118
791.4179	0.0063
791.5896	0.0074
791.7612	0.0069
791.9328	0.0099
792.1044	-0.0139
792.2759	-0.016
792.4474	-0.0074
792.619	-0.0038
792.7905	0.0085
792.9619	0.0108
793.1334	0.0141
793.3048	0.0084
793.4762	0.0055
793.6476	0.0202
793.819	-0.0039
793.9904	0.0066
794.1617	-0.0073
794.333	0.0067
794.5043	-0.0052
794.6756	-0.0022
794.8469	-0.0019
795.0181	-0.0159
795.1893	-0.0067
795.3605	0.0231
795.5317	-0.0045
795.7029	0.0028
795.874	0.0201
796.0452	0.0032
796.2163	0.0168
796.3873	0.0016
796.5584	0.0114
796.7294	-0.0049
796.9005	0.0231
797.0715	0.0076
797.2425	-0.0069
797.4134	0.0008
797.5844	-0.0092
797.7553	-0.0054
797.9262	-0.0005
798.0971	-0.0079
798.2679	-0.0143
798.4388	-0.0099
798.6096	-0.0003
798.7804	0
798.9512	0.001
799.122	-0.0095
799.2927	0.0156
799.4635	0.0227
799.6342	-0.0094
799.8049	0.0093
799.9755	-0.0043
800.1462	0.009
800.3168	0.021
800.4874	0.0146
800.658	0.0047
800.8286	0.0121
800.9991	0.0184
801.1696	0.0165
801.3402	0.0025
801.5106	-0.0052
801.6811	0.0127
801.8516	0.0172
802.022	0.0081
802.1924	-0.0006
802.3628	0.0151
802.5332	0.0154
802.7035	0.0257
802.8739	0.0158
803.0442	-0.0043
803.2145	0.0225
803.3847	-0.0168
803.555	0.0225
803.7252	-0.0136
803.8954	-0.0109
804.0656	-0.0168
804.2358	0.0097
804.4059	0.0107
804.5761	0.0063
804.7462	0.0218
804.9163	0.0149
805.0864	-0.0089
805.2564	-0.0024
805.4264	-0.0022
805.5965	0.0009
805.7665	0.0146
805.9364	0.0072
806.1064	0.0481
806.2763	0.0124
806.4462	0.0247
806.6161	0.0199
806.786	0.0066
806.9559	0.0076
807.1257	0.0137
807.2955	0.0131
807.4653	0.0048
807.6351	0.0104
807.8048	0.011
807.9746	-0.0035
808.1443	0.0284
808.314	0.0172
808.4837	0.0108
808.6533	0.0041
808.8229	0.0237
808.9926	0.0111
809.1622	0.0066
809.3317	-0.0049
809.5013	0.0184
809.6708	0.0164
809.8403	-0.0054
810.0098	0.0349
810.1793	0.0298
810.3488	-0.003
810.5182	-0.0049
810.6876	0.0199
810.857	0.0076
811.0264	0.0449
811.1958	0.0298
811.3651	0.0093
811.5344	0.0132
811.7037	-0.0179
811.873	0.0118
812.0422	0.0216
812.2115	0.0149
812.3807	-0.0019
812.5499	0.0129
812.7191	0.0179
812.8882	0.0023
813.0574	-0.0133
813.2265	0.0281
813.3956	0.0329
813.5646	0.0233
813.7337	0.0059
813.9027	0.0315
814.0718	0.0383
814.2407	0.0321
814.4097	0.0134
814.5787	-0.0023
814.7476	-0.0011
814.9165	0.0185
815.0854	0.0142
815.2543	0.0047
815.4232	0.0142
815.592	0.0231
815.7608	0.0154
815.9296	0.0132
816.0984	0.0113
816.2671	-0.0067
816.4359	0.0304
816.6046	0.006
816.7733	-0.0054
816.942	0.0061
817.1106	0.0107
817.2793	0.0222
817.4479	0.0266
817.6165	0.0256
817.785	0.0509
817.9536	-0.0016
818.1221	0.0154
818.2906	0.0312
818.4591	0.001
818.6276	-0.0139
818.7961	0.0111
818.9645	0.0027
819.1329	0.0251
819.3013	0.0219
819.4697	0.0342
819.638	0.0133
819.8064	0.0325
819.9747	0.0085
820.143	0.0136
820.3113	0.0137
820.4795	0.0293
820.6477	0.0263
820.816	0.0164
820.9842	0.0287
821.1523	0.0033
821.3205	0.0204
821.4886	0.0107
821.6567	0.0047
821.8248	0.0163
821.9929	0.0337
822.1609	0.0201
822.329	0.0255
822.497	0.0132
822.665	-0.0003
822.833	-0.0003
823.0009	0.0255
823.1688	0.0042
823.3367	0.0176
823.5046	0.0035
823.6725	0.0341
823.8404	0.0036
824.0082	0.006
824.176	0.0076
824.3438	0.0109
824.5116	0.0005
824.6793	0.0414
824.847	-0.0036
825.0147	0.0044
825.1824	0.0194
825.3501	0.0389
825.5177	-0.013
825.6854	0.0092
825.853	0.0055
826.0206	-0.0186
826.1881	0.0145
826.3557	-0.0486
826.5232	0.0142
826.6907	-0.0399
826.8582	-0.0245
827.0257	-0.0302
827.1931	-0.004
827.3605	-0.0071
827.528	0.0143
827.6953	-0.0124
827.8627	-0.0027
828.03	0.04
828.1974	0.0086
828.3647	-0.0225
828.532	0.007
828.6992	0.0116
828.8665	0.0147
829.0337	-0.0163
829.2009	0.0061
829.3681	-0.0135
829.5352	0.0256
829.7024	-0.0568
829.8695	-0.0302
830.0366	0.0195
830.2037	0.0006
830.3707	-0.0019
830.5378	0.0017
830.7048	-0.0021
830.8718	0.0067
831.0388	-0.0201
831.2057	0.0055
831.3727	0.0198
831.5396	-0.0033
831.7065	-0.019
831.8734	0.0033
832.0402	-0.0134
832.2071	0.0197
832.3739	-0.0406
832.5407	0.0067
832.7075	-0.0318
832.8742	-0.0017
833.041	-0.0124
833.2077	0.0437
833.3744	0.0127
833.541	-0.0089
833.7077	0.0045
833.8743	-0.0064
834.0409	-0.0072
834.2075	0.0033
834.3741	-0.0186
834.5407	0.0078
834.7072	0.0007
834.8737	0.0041
835.0402	0.0008
835.2067	0.0166
835.3731	0.0302
835.5395	0.0033
835.706	0.0274
835.8723	-0.0168
836.0387	0.0316
836.2051	0.0171
836.3714	-0.0127
836.5377	-0.0304
836.704	-0.0208
836.8703	0.0103
837.0365	0.0304
837.2027	0.0203
837.3689	0.0197
837.5351	0.0569
837.7013	-0.0141
837.8674	-0.0479
838.0335	-0.0491
838.1997	0.0235
838.3657	-0.0238
838.5318	-0.0035
838.6978	0.078
838.8639	0.0529
839.0299	0.0159
839.1958	0.0177
839.3618	0.0386
839.5277	-0.0134
839.6937	0.0345
839.8596	0.0292
840.0254	0.0501
840.1913	-0.0089
840.3571	0.0386
840.523	0.0227
840.6888	0.0174
840.8545	-0.0112
841.0203	0.0235
841.186	0.0097
841.3517	-0.0043
841.5174	0.0319
841.6831	-0.0272
841.8488	0.0176
842.0144	0.0324
842.18	0.0489
842.3456	-0.0045
842.5112	-0.0008
842.6767	-0.0067
842.8422	0.0077
843.0077	-0.01
843.1732	0.0266
843.3387	0.0117
843.5042	-0.0203
843.6696	0.0527
843.835	0.0374
844.0004	0.0272
844.1657	0.0523
844.3311	-0.0188
844.4964	-0.0517
844.6617	0.0047
844.827	-0.045
844.9923	-0.0296
845.1575	0.0711
845.3227	-0.0146
845.4879	-0.0109
845.6531	-0.0443
845.8183	-0.0566
845.9834	0.0027
846.1485	0.0146
846.3136	-0.0467
846.4787	-0.009
846.6438	0.0038
846.8088	-0.0256
846.9738	-0.0852
847.1388	0.0479
847.3038	-0.0416
847.4687	-0.1345
847.6337	0.0256
847.7986	-0.0231
847.9635	-0.0576
848.1284	0.0729
848.2932	0.0476
848.458	-0.0197
848.6228	0.112
848.7876	0.0923
848.9524	-0.0696
849.1172	-0.0446
849.2819	-0.0572
849.4466	-0.0832
849.6113	-0.0788
849.7759	0.0125
849.9406	0.0379
850.1052	0.0266
850.2698	-0.0823
850.4344	0.1774
850.599	-0.0342
850.7635	0.0697
850.928	-0.0318
851.0925	-0.0111
851.257	0.0354
851.4215	-0.0131
851.5859	-0.0313
851.7503	0.0387
851.9147	0.0583
852.0791	-0.0492
852.2434	0.0442
852.4078	0.0762
852.5721	0.0553
852.7364	0.017
852.9007	-0.178
853.0649	-0.0601
853.2291	-0.0167
853.3934	-0.0133
853.5575	0.0264
853.7217	-0.0892
853.8859	-0.0074
854.05	0.0661
854.2141	-0.0022
854.3782	-0.1329
854.5423	-0.0624
854.7063	0.1487
854.8703	-0.0661
855.0343	-0.0149
855.1983	-0.0561
855.3623	0.2976
855.5262	0.072
855.6901	-0.0302
855.854	-0.0119
856.0179	0.0447
856.1818	-0.0053
856.3456	0.0074
856.5094	-0.1267
856.6732	-0.0292
856.837	-0.0444
857.0008	0.0707
857.1645	-0.0643
857.3282	0.3671
857.4919	0.2533
857.6556	0.0217
857.8192	-0.0027
857.9828	-0.0936
858.1465	-0.0259
858.31	0.0115
858.4736	0.0256
858.6372	-0.389
858.8007	-0.1139
858.9642	-0.1219
859.1277	0.0314
859.2911	0.2415
859.4546	0.065
859.618	-0.4211
859.7814	-0.0287
859.9448	0.0185
860.1081	-0.0765
860.2715	0.1349
860.4348	0.2934
860.5981	0.1584
860.7614	0.1392
860.9246	0.0682
861.0879	-0.0955
861.2511	0.0391
861.4143	0.0463
861.5774	0.2097
861.7406	-0.182
861.9037	0.0211
862.0668	0.2458
862.2299	-0.1449
862.393	-0.5542
862.556	-0.0281
862.7191	-0.1702
862.8821	-0.1682
863.0451	0.0992
863.208	0.1726
863.371	-0.0539
863.5339	-0.3268
863.6968	0.2049
863.8597	0.0765
864.0225	-0.0702
864.1854	-0.0954
864.3482	-0.2125
864.511	0.8502
864.6737	-0.0054
864.8365	0.3845
864.9992	-0.1633
865.1619	-0.5914
865.3246	-0.2529
865.4873	0.082
865.65	-0.2224
865.8126	-0.0292
865.9752	0.8626
866.1378	-0.1044
866.3004	0.3797
866.4629	0.1595
866.6254	-0.0724
866.7879	0.2569
866.9504	-0.2705
867.1129	-0
867.2753	0.1034
867.4377	0.2269
867.6001	-0.2902
867.7625	0.1808
867.9249	-0.9009
868.0872	-0.032
868.2495	-0.0501
868.4118	-0.2906
868.5741	-0.3462
868.7363	-0.1149
868.8986	-0.4567
869.0608	-0.2997
869.223	0.0483
869.3851	-0
869.5473	-0
869.7094	-0.0042
869.8715	-0.4946
870.0336	-0.3259
870.1957	-0.6556
870.3577	-1.1839
870.5197	-0.2391
870.6817	-0.1795
870.8437	-0.1305
871.0057	-0
871.1676	-0.3545
871.3295	-0.0418
871.4914	-0
871.6533	-0.3544
871.8151	-0.2965
871.977	-0
872.1388	-0
872.3006	-0
872.4623	0.0856
872.6241	0.1179
872.7858	0.5074
872.9475	-0.2786
873.1092	-0.0861
873.2709	0.8054
873.4325	-0.3172
873.5941	-0.6845
873.7557	0.1476
873.9173	-0
874.0789	-0.2743
874.2404	-0
874.4019	-0.0095
874.5634	-0.1385
874.7249	0.2423
874.8863	-0.1395
875.0478	1.1158
875.2092	-0
875.3706	0.0218
875.5319	-0.7492
875.6933	-0
875.8546	-0.1799
876.0159	-0
876.1772	-0.0172
876.3385	-0
876.4997	0.4373
876.6609	-0.4196
876.8221	-0.7782
876.9833	-0
877.1445	-0
877.3056	0.4493
877.4667	-0.3988
877.6278	-0
877.7889	0.4851
877.9499	-0
878.111	-0
878.272	-0
878.433	-0
878.5939	-0
878.7549	-0.1138
878.9158	-1.1063
879.0767	1.1737
879.2376	-0
879.3984	0.0034
879.5593	-0
879.7201	-0.2341
879.8809	-0.072
880.0417	-0.3873
880.2024	-0
880.3632	-0.8683
880.5239	0.3927
880.6846	0.6885
880.8452	-2.3909
881.0059	-1.3579
881.1665	-0.0139
881.3271	-0.2213
881.4877	0.0529
881.6483	-0.5526
881.8088	0.1795
881.9693	-0
882.1298	-0
882.2903	-0
