Data from MonoPyChalIsomerACN10uM380nmA_Absorbance_13-38-33-648.txt Node
Date: Fri Jul 05 13:38:33 BST 2024
User: LASERRRRR
Spectrometer: FLMT03099
Trigger mode: 0
Integration Time (sec): 1.000000E-1
Scans to average: 1
Electric dark correction enabled: true
Nonlinearity correction enabled: false
Boxcar width: 0
XAxis mode: Wavelengths
Number of Pixels in Spectrum: 3648
>>>>>Begin Spectral Data<<<<<
179.3399	0.147
179.5586	0.147
179.7771	0.147
179.9957	-0
180.2143	-0
180.4329	-0.2674
180.6514	0.2132
180.8699	-0
181.0885	-0.0866
181.307	0.0645
181.5255	-0
181.744	-0
181.9625	-0
182.181	-0
182.3994	0.3899
182.6179	0.8164
182.8363	-0.1466
183.0547	-0.3776
183.2732	-0.0135
183.4916	0.479
183.71	0.0522
183.9284	0.2404
184.1467	-0.1071
184.3651	-0.0638
184.5835	-0.1329
184.8018	0.1447
185.0201	0.2294
185.2385	0.003
185.4568	0.4791
185.6751	0.2896
185.8934	0.1314
186.1117	0.0893
186.3299	-0.0158
186.5482	0.1267
186.7664	0.0482
186.9847	-0.0064
187.2029	0.2946
187.4211	0.0819
187.6393	0.1323
187.8575	-0.0927
188.0757	0.1062
188.2939	0.0468
188.512	0.2776
188.7302	0.1099
188.9483	0.1943
189.1665	0.0788
189.3846	-0.3026
189.6027	0.1585
189.8208	0.0401
190.0389	0.1843
190.257	0.0872
190.475	0.2314
190.6931	0.1754
190.9111	0.4163
191.1292	0.4313
191.3472	0.5129
191.5652	0.4011
191.7832	0.2679
192.0012	0.5234
192.2192	0.3388
192.4371	0.6301
192.6551	0.2634
192.873	0.3509
193.091	0.289
193.3089	0.407
193.5268	0.5887
193.7447	0.4865
193.9626	0.5481
194.1805	0.5137
194.3984	0.6429
194.6162	0.6018
194.8341	0.6827
195.0519	0.5284
195.2697	0.659
195.4875	0.7591
195.7054	0.7705
195.9231	0.6426
196.1409	0.4989
196.3587	0.7203
196.5765	0.701
196.7942	0.7869
197.012	0.6743
197.2297	0.7605
197.4474	0.8087
197.6651	0.498
197.8828	0.7703
198.1005	0.8981
198.3182	0.8335
198.5358	0.8496
198.7535	0.6984
198.9711	0.633
199.1888	0.8445
199.4064	1.0017
199.624	0.7861
199.8416	0.7523
200.0592	1.0574
200.2767	0.7772
200.4943	0.8394
200.7119	1.1539
200.9294	1.0113
201.1469	0.7233
201.3645	0.7462
201.582	0.8452
201.7995	0.8674
202.017	0.7767
202.2344	0.7185
202.4519	0.9674
202.6694	0.8117
202.8868	0.7292
203.1042	0.798
203.3217	0.9137
203.5391	0.893
203.7565	0.8071
203.9739	0.6851
204.1913	0.7449
204.4086	0.8111
204.626	0.9459
204.8433	0.8397
205.0607	0.7677
205.278	0.7834
205.4953	0.769
205.7126	0.769
205.9299	0.9897
206.1472	0.7982
206.3644	0.7877
206.5817	0.8273
206.7989	0.8869
207.0162	0.8558
207.2334	0.7561
207.4506	0.7507
207.6678	0.7695
207.885	0.8902
208.1022	0.8267
208.3194	0.8921
208.5365	0.8418
208.7537	0.8255
208.9708	0.713
209.1879	0.7813
209.405	0.8444
209.6222	0.8316
209.8392	0.8497
210.0563	0.7224
210.2734	0.8414
210.4905	0.8249
210.7075	0.8476
210.9245	0.731
211.1416	0.9089
211.3586	0.7867
211.5756	0.7541
211.7926	0.8175
212.0096	0.697
212.2265	0.6722
212.4435	0.7011
212.6604	0.8631
212.8774	0.7242
213.0943	0.8986
213.3112	0.72
213.5281	0.6756
213.745	0.6824
213.9619	0.7212
214.1788	0.7348
214.3956	0.6617
214.6125	0.6464
214.8293	0.6696
215.0461	0.6796
215.2629	0.6751
215.4798	0.6971
215.6965	0.6212
215.9133	0.6334
216.1301	0.616
216.3469	0.6579
216.5636	0.6175
216.7803	0.6028
216.9971	0.6592
217.2138	0.5888
217.4305	0.5918
217.6472	0.5889
217.8639	0.6118
218.0805	0.605
218.2972	0.5887
218.5138	0.5574
218.7305	0.564
218.9471	0.5554
219.1637	0.5536
219.3803	0.5046
219.5969	0.5549
219.8135	0.5283
220.0301	0.5399
220.2466	0.5497
220.4632	0.5323
220.6797	0.5054
220.8962	0.5206
221.1127	0.5561
221.3292	0.5299
221.5457	0.5187
221.7622	0.4926
221.9787	0.5413
222.1951	0.5112
222.4116	0.5266
222.628	0.4985
222.8444	0.5325
223.0608	0.5426
223.2772	0.4712
223.4936	0.5124
223.71	0.5116
223.9264	0.5097
224.1427	0.5318
224.3591	0.5208
224.5754	0.5084
224.7917	0.5115
225.008	0.5507
225.2243	0.4843
225.4406	0.5221
225.6569	0.5308
225.8732	0.4743
226.0894	0.4979
226.3057	0.5229
226.5219	0.5346
226.7381	0.5118
226.9543	0.5328
227.1705	0.5553
227.3867	0.5399
227.6029	0.561
227.8191	0.5407
228.0352	0.5605
228.2513	0.5553
228.4675	0.5791
228.6836	0.551
228.8997	0.5273
229.1158	0.5497
229.3319	0.5884
229.548	0.5696
229.764	0.5658
229.9801	0.5403
230.1961	0.5587
230.4121	0.5308
230.6282	0.5715
230.8442	0.5685
231.0602	0.5554
231.2761	0.5934
231.4921	0.5384
231.7081	0.5542
231.924	0.5365
232.14	0.5797
232.3559	0.5508
232.5718	0.5897
232.7877	0.5494
233.0036	0.5405
233.2195	0.5611
233.4353	0.5654
233.6512	0.5506
233.867	0.5375
234.0829	0.5289
234.2987	0.548
234.5145	0.5597
234.7303	0.5408
234.9461	0.5809
235.1619	0.5647
235.3776	0.5369
235.5934	0.5638
235.8091	0.5154
236.0249	0.5631
236.2406	0.5232
236.4563	0.5251
236.672	0.5466
236.8877	0.5396
237.1034	0.5457
237.319	0.5371
237.5347	0.5301
237.7503	0.5377
237.966	0.5424
238.1816	0.5427
238.3972	0.5394
238.6128	0.5324
238.8284	0.5202
239.0439	0.5216
239.2595	0.534
239.475	0.5431
239.6906	0.5206
239.9061	0.5321
240.1216	0.5293
240.3371	0.511
240.5526	0.5088
240.7681	0.5542
240.9836	0.4868
241.199	0.5084
241.4145	0.4763
241.6299	0.4889
241.8453	0.4686
242.0607	0.4982
242.2761	0.4701
242.4915	0.4521
242.7069	0.4616
242.9223	0.4291
243.1376	0.4417
243.353	0.4275
243.5683	0.4486
243.7836	0.402
243.9989	0.4109
244.2142	0.3786
244.4295	0.3984
244.6448	0.4049
244.86	0.386
245.0753	0.3772
245.2905	0.3808
245.5057	0.3725
245.721	0.3617
245.9362	0.3511
246.1514	0.3462
246.3665	0.3165
246.5817	0.3215
246.7969	0.325
247.012	0.3237
247.2271	0.3029
247.4423	0.3196
247.6574	0.3053
247.8725	0.3071
248.0876	0.2862
248.3026	0.2831
248.5177	0.2764
248.7328	0.2758
248.9478	0.2643
249.1628	0.2647
249.3779	0.2632
249.5929	0.2475
249.8079	0.2646
250.0228	0.2641
250.2378	0.2462
250.4528	0.2574
250.6677	0.2325
250.8827	0.2471
251.0976	0.2318
251.3125	0.234
251.5274	0.2225
251.7423	0.2215
251.9572	0.2361
252.172	0.2225
252.3869	0.2184
252.6017	0.2123
252.8166	0.207
253.0314	0.1939
253.2462	0.2006
253.461	0.2142
253.6758	0.1977
253.8906	0.2013
254.1053	0.1973
254.3201	0.191
254.5348	0.22
254.7496	0.2173
254.9643	0.2014
255.179	0.1983
255.3937	0.1924
255.6083	0.2059
255.823	0.1985
256.0377	0.1802
256.2523	0.1923
256.467	0.1724
256.6816	0.19
256.8962	0.1855
257.1108	0.1826
257.3254	0.2038
257.54	0.1816
257.7545	0.1844
257.9691	0.2
258.1836	0.1814
258.3981	0.1902
258.6127	0.1981
258.8272	0.1821
259.0417	0.1905
259.2561	0.1787
259.4706	0.176
259.6851	0.1709
259.8995	0.1758
260.114	0.1815
260.3284	0.1876
260.5428	0.1812
260.7572	0.1869
260.9716	0.1913
261.186	0.179
261.4003	0.1852
261.6147	0.1858
261.829	0.2008
262.0433	0.1867
262.2577	0.1716
262.472	0.1808
262.6863	0.1778
262.9005	0.1814
263.1148	0.1808
263.3291	0.1824
263.5433	0.1812
263.7576	0.1948
263.9718	0.1884
264.186	0.1918
264.4002	0.1758
264.6144	0.1804
264.8286	0.1988
265.0427	0.1906
265.2569	0.1816
265.471	0.1829
265.6851	0.183
265.8993	0.1807
266.1134	0.1767
266.3275	0.1802
266.5415	0.1669
266.7556	0.1955
266.9697	0.1869
267.1837	0.1851
267.3978	0.188
267.6118	0.1991
267.8258	0.1973
268.0398	0.1721
268.2538	0.1813
268.4677	0.1791
268.6817	0.186
268.8957	0.188
269.1096	0.1945
269.3235	0.1954
269.5374	0.1797
269.7514	0.1744
269.9652	0.1724
270.1791	0.1836
270.393	0.1783
270.6068	0.1744
270.8207	0.1823
271.0345	0.1695
271.2483	0.1805
271.4622	0.1711
271.676	0.1809
271.8897	0.1682
272.1035	0.1703
272.3173	0.177
272.531	0.1782
272.7448	0.1673
272.9585	0.1685
273.1722	0.1752
273.3859	0.1802
273.5996	0.1676
273.8133	0.1844
274.0269	0.1697
274.2406	0.1684
274.4542	0.1752
274.6679	0.1703
274.8815	0.1724
275.0951	0.1769
275.3087	0.1762
275.5223	0.171
275.7358	0.1801
275.9494	0.1816
276.1629	0.1763
276.3765	0.1752
276.59	0.1862
276.8035	0.1797
277.017	0.1775
277.2305	0.1668
277.444	0.19
277.6574	0.1644
277.8709	0.1816
278.0843	0.165
278.2978	0.1784
278.5112	0.1779
278.7246	0.1733
278.938	0.1852
279.1513	0.184
279.3647	0.1857
279.5781	0.1792
279.7914	0.1778
280.0047	0.1831
280.2181	0.1799
280.4314	0.1799
280.6447	0.1809
280.8579	0.1937
281.0712	0.1807
281.2845	0.1817
281.4977	0.1668
281.711	0.1583
281.9242	0.1784
282.1374	0.1847
282.3506	0.1773
282.5638	0.19
282.7769	0.1842
282.9901	0.174
283.2033	0.1887
283.4164	0.1812
283.6295	0.1654
283.8426	0.1784
284.0557	0.1881
284.2688	0.1827
284.4819	0.1804
284.695	0.1664
284.908	0.189
285.1211	0.1798
285.3341	0.1808
285.5471	0.1949
285.7601	0.1704
285.9731	0.1706
286.1861	0.1785
286.3991	0.1798
286.612	0.1803
286.825	0.1733
287.0379	0.1742
287.2508	0.1821
287.4637	0.1795
287.6766	0.1724
287.8895	0.1795
288.1024	0.1938
288.3152	0.1784
288.5281	0.1775
288.7409	0.1751
288.9538	0.18
289.1666	0.1837
289.3794	0.1734
289.5922	0.1709
289.8049	0.1895
290.0177	0.1734
290.2304	0.1737
290.4432	0.176
290.6559	0.1769
290.8686	0.1793
291.0813	0.1727
291.294	0.1724
291.5067	0.1811
291.7194	0.1703
291.932	0.1837
292.1447	0.1661
292.3573	0.1736
292.5699	0.1724
292.7825	0.1782
292.9951	0.1635
293.2077	0.1664
293.4203	0.1703
293.6328	0.1537
293.8454	0.1659
294.0579	0.1649
294.2704	0.1756
294.4829	0.155
294.6954	0.1761
294.9079	0.1719
295.1204	0.1625
295.3328	0.1618
295.5453	0.169
295.7577	0.1724
295.9701	0.1589
296.1825	0.1708
296.3949	0.1643
296.6073	0.1602
296.8197	0.1572
297.0321	0.1799
297.2444	0.1495
297.4567	0.16
297.6691	0.1652
297.8814	0.1542
298.0937	0.1626
298.306	0.1582
298.5182	0.155
298.7305	0.1726
298.9428	0.1524
299.155	0.1673
299.3672	0.1646
299.5794	0.1575
299.7916	0.1552
300.0038	0.169
300.216	0.158
300.4282	0.1743
300.6403	0.1512
300.8525	0.1698
301.0646	0.1495
301.2767	0.164
301.4888	0.1595
301.7009	0.1637
301.913	0.1627
302.125	0.1685
302.3371	0.1505
302.5491	0.1652
302.7612	0.1735
302.9732	0.16
303.1852	0.1587
303.3972	0.157
303.6092	0.1571
303.8211	0.1495
304.0331	0.1565
304.245	0.1545
304.457	0.1501
304.6689	0.1536
304.8808	0.1654
305.0927	0.1455
305.3046	0.1448
305.5164	0.1615
305.7283	0.1457
305.9401	0.1449
306.152	0.153
306.3638	0.1585
306.5756	0.137
306.7874	0.1482
306.9992	0.1494
307.2109	0.1407
307.4227	0.1332
307.6344	0.1445
307.8462	0.1441
308.0579	0.1416
308.2696	0.1381
308.4813	0.1325
308.693	0.1362
308.9046	0.1473
309.1163	0.1318
309.328	0.1328
309.5396	0.1167
309.7512	0.1257
309.9628	0.1149
310.1744	0.1262
310.386	0.1206
310.5976	0.1201
310.8091	0.1221
311.0207	0.1208
311.2322	0.124
311.4437	0.1114
311.6552	0.1214
311.8667	0.1275
312.0782	0.1009
312.2897	0.1083
312.5012	0.1205
312.7126	0.1087
312.924	0.1006
313.1355	0.114
313.3469	0.104
313.5583	0.112
313.7696	0.1178
313.981	0.1102
314.1924	0.1111
314.4037	0.114
314.6151	0.1117
314.8264	0.1046
315.0377	0.1003
315.249	0.1159
315.4603	0.1109
315.6716	0.1053
315.8828	0.1002
316.0941	0.1019
316.3053	0.1002
316.5165	0.0953
316.7277	0.0989
316.9389	0.1188
317.1501	0.103
317.3613	0.0985
317.5724	0.0856
317.7836	0.1045
317.9947	0.1038
318.2058	0.1045
318.417	0.0973
318.6281	0.093
318.8391	0.1026
319.0502	0.0939
319.2613	0.1031
319.4723	0.1058
319.6834	0.1084
319.8944	0.1067
320.1054	0.1194
320.3164	0.1093
320.5274	0.1047
320.7383	0.114
320.9493	0.1023
321.1602	0.1112
321.3712	0.0945
321.5821	0.1111
321.793	0.1035
322.0039	0.1115
322.2148	0.1091
322.4257	0.1085
322.6365	0.1186
322.8474	0.113
323.0582	0.1014
323.269	0.1196
323.4798	0.1159
323.6906	0.1025
323.9014	0.1101
324.1122	0.1141
324.3229	0.1152
324.5337	0.1086
324.7444	0.0976
324.9551	0.1148
325.1658	0.1118
325.3765	0.1117
325.5872	0.1172
325.7979	0.1069
326.0085	0.1015
326.2192	0.112
326.4298	0.1083
326.6404	0.1038
326.851	0.1085
327.0616	0.1041
327.2722	0.1072
327.4828	0.1115
327.6933	0.1084
327.9039	0.1075
328.1144	0.1212
328.3249	0.1138
328.5354	0.1169
328.7459	0.1119
328.9564	0.1054
329.1669	0.1178
329.3773	0.1087
329.5878	0.1071
329.7982	0.1138
330.0086	0.1053
330.219	0.1118
330.4294	0.1016
330.6398	0.1113
330.8502	0.1067
331.0605	0.1152
331.2708	0.1126
331.4812	0.1117
331.6915	0.1176
331.9018	0.1188
332.1121	0.11
332.3224	0.1103
332.5326	0.1185
332.7429	0.1106
332.9531	0.1299
333.1633	0.1072
333.3735	0.1083
333.5837	0.1041
333.7939	0.1167
334.0041	0.1242
334.2143	0.1155
334.4244	0.1095
334.6346	0.096
334.8447	0.1331
335.0548	0.1037
335.2649	0.1078
335.475	0.11
335.685	0.1119
335.8951	0.1195
336.1051	0.1164
336.3152	0.125
336.5252	0.1092
336.7352	0.1126
336.9452	0.1085
337.1552	0.1186
337.3652	0.1181
337.5751	0.1141
337.7851	0.1237
337.995	0.1083
338.2049	0.1188
338.4148	0.1165
338.6247	0.1214
338.8346	0.1129
339.0445	0.1034
339.2543	0.1244
339.4642	0.1183
339.674	0.1198
339.8838	0.1194
340.0936	0.1169
340.3034	0.1295
340.5132	0.1198
340.7229	0.123
340.9327	0.1243
341.1424	0.1238
341.3522	0.1331
341.5619	0.1274
341.7716	0.1202
341.9813	0.1253
342.1909	0.1234
342.4006	0.1199
342.6102	0.1396
342.8199	0.14
343.0295	0.1325
343.2391	0.142
343.4487	0.1317
343.6583	0.1253
343.8679	0.129
344.0774	0.1328
344.287	0.1264
344.4965	0.1298
344.706	0.1298
344.9155	0.1324
345.125	0.117
345.3345	0.1432
345.544	0.1249
345.7534	0.1328
345.9629	0.1281
346.1723	0.1268
346.3817	0.1293
346.5911	0.1237
346.8005	0.1392
347.0099	0.1382
347.2193	0.1461
347.4286	0.1223
347.638	0.1353
347.8473	0.1373
348.0566	0.1369
348.2659	0.1413
348.4752	0.1476
348.6845	0.1422
348.8937	0.1382
349.103	0.1455
349.3122	0.1357
349.5214	0.1355
349.7306	0.1318
349.9398	0.1371
350.149	0.1473
350.3582	0.1462
350.5674	0.1396
350.7765	0.1448
350.9856	0.1482
351.1948	0.138
351.4039	0.1283
351.613	0.1362
351.822	0.1413
352.0311	0.1486
352.2402	0.147
352.4492	0.1564
352.6582	0.1555
352.8672	0.136
353.0762	0.1552
353.2852	0.143
353.4942	0.1472
353.7032	0.1464
353.9121	0.1474
354.1211	0.1498
354.33	0.1436
354.5389	0.1634
354.7478	0.1528
354.9567	0.1477
355.1655	0.1517
355.3744	0.1655
355.5833	0.1455
355.7921	0.1691
356.0009	0.1593
356.2097	0.1778
356.4185	0.1545
356.6273	0.1545
356.8361	0.1602
357.0448	0.1509
357.2536	0.1435
357.4623	0.1702
357.671	0.1639
357.8797	0.1599
358.0884	0.1624
358.2971	0.1562
358.5057	0.1536
358.7144	0.1769
358.923	0.1667
359.1316	0.1658
359.3402	0.156
359.5488	0.1666
359.7574	0.1622
359.966	0.1734
360.1746	0.177
360.3831	0.1786
360.5916	0.1637
360.8002	0.1588
361.0087	0.1892
361.2172	0.1733
361.4256	0.171
361.6341	0.1745
361.8426	0.1792
362.051	0.1726
362.2594	0.1808
362.4678	0.1837
362.6762	0.1911
362.8846	0.1824
363.093	0.1759
363.3014	0.1975
363.5097	0.1683
363.718	0.1763
363.9264	0.1693
364.1347	0.1849
364.343	0.1829
364.5513	0.1949
364.7595	0.2023
364.9678	0.2011
365.176	0.1987
365.3842	0.2023
365.5925	0.1986
365.8007	0.191
366.0089	0.1869
366.217	0.1845
366.4252	0.1932
366.6333	0.1957
366.8415	0.1941
367.0496	0.1845
367.2577	0.187
367.4658	0.2066
367.6739	0.1924
367.882	0.1993
368.09	0.1857
368.2981	0.1822
368.5061	0.186
368.7141	0.2077
368.9221	0.2034
369.1301	0.1994
369.3381	0.1909
369.5461	0.1973
369.754	0.2046
369.962	0.2167
370.1699	0.1888
370.3778	0.2041
370.5857	0.1815
370.7936	0.2017
371.0015	0.2029
371.2093	0.2134
371.4172	0.2023
371.625	0.1891
371.8328	0.201
372.0406	0.2223
372.2484	0.1973
372.4562	0.2015
372.664	0.2113
372.8717	0.2162
373.0795	0.1872
373.2872	0.213
373.4949	0.2004
373.7026	0.2114
373.9103	0.2213
374.118	0.2054
374.3256	0.2099
374.5333	0.2082
374.7409	0.2184
374.9485	0.2235
375.1561	0.2164
375.3637	0.2135
375.5713	0.2052
375.7789	0.2263
375.9864	0.2137
376.194	0.2112
376.4015	0.2128
376.609	0.2333
376.8165	0.2014
377.024	0.2048
377.2315	0.2336
377.4389	0.2324
377.6464	0.2275
377.8538	0.227
378.0612	0.2225
378.2686	0.2186
378.476	0.242
378.6834	0.2235
378.8908	0.219
379.0981	0.2218
379.3055	0.221
379.5128	0.2186
379.7201	0.2157
379.9274	0.2154
380.1347	0.2127
380.342	0.2399
380.5492	0.2219
380.7565	0.221
380.9637	0.2266
381.1709	0.228
381.3781	0.2265
381.5853	0.2237
381.7925	0.2366
381.9997	0.2296
382.2068	0.2297
382.4139	0.2441
382.6211	0.2127
382.8282	0.2247
383.0353	0.2178
383.2424	0.2397
383.4494	0.2457
383.6565	0.2326
383.8635	0.2102
384.0706	0.2241
384.2776	0.2446
384.4846	0.2263
384.6916	0.2373
384.8986	0.2293
385.1055	0.2449
385.3125	0.2193
385.5194	0.2094
385.7263	0.2401
385.9333	0.2246
386.1402	0.2215
386.347	0.232
386.5539	0.2154
386.7608	0.234
386.9676	0.2143
387.1744	0.2331
387.3813	0.2282
387.5881	0.2306
387.7948	0.2402
388.0016	0.2294
388.2084	0.2203
388.4151	0.1994
388.6219	0.2252
388.8286	0.2237
389.0353	0.2478
389.242	0.2432
389.4487	0.2225
389.6553	0.208
389.862	0.1987
390.0686	0.2096
390.2753	0.2076
390.4819	0.2213
390.6885	0.226
390.8951	0.216
391.1016	0.2186
391.3082	0.2212
391.5147	0.2145
391.7213	0.2285
391.9278	0.2081
392.1343	0.2041
392.3408	0.211
392.5473	0.1957
392.7537	0.2116
392.9602	0.2107
393.1666	0.2012
393.373	0.2086
393.5794	0.2041
393.7858	0.1918
393.9922	0.1947
394.1986	0.2067
394.4049	0.2202
394.6113	0.1993
394.8176	0.1942
395.0239	0.1964
395.2302	0.199
395.4365	0.1947
395.6428	0.2148
395.8491	0.193
396.0553	0.19
396.2615	0.2003
396.4678	0.184
396.674	0.1726
396.8802	0.1866
397.0863	0.1979
397.2925	0.1776
397.4987	0.1835
397.7048	0.1896
397.9109	0.2072
398.117	0.1871
398.3231	0.1763
398.5292	0.1895
398.7353	0.1945
398.9413	0.1949
399.1474	0.2003
399.3534	0.1796
399.5594	0.1791
399.7654	0.203
399.9714	0.2096
400.1774	0.1808
400.3833	0.1902
400.5893	0.2169
400.7952	0.1808
401.0011	0.1989
401.207	0.1958
401.4129	0.1801
401.6188	0.1932
401.8247	0.1969
402.0305	0.1751
402.2364	0.1738
402.4422	0.1984
402.648	0.2148
402.8538	0.1841
403.0596	0.1824
403.2654	0.1934
403.4711	0.1756
403.6768	0.1954
403.8826	0.1932
404.0883	0.1966
404.294	0.1909
404.4997	0.183
404.7054	0.2069
404.911	0.1833
405.1167	0.1862
405.3223	0.2009
405.5279	0.2026
405.7335	0.1861
405.9391	0.1917
406.1447	0.1964
406.3502	0.1992
406.5558	0.1841
406.7613	0.1758
406.9668	0.1897
407.1724	0.1725
407.3778	0.1918
407.5833	0.1817
407.7888	0.1857
407.9942	0.2086
408.1997	0.1902
408.4051	0.1745
408.6105	0.1895
408.8159	0.1832
409.0213	0.1715
409.2267	0.2127
409.432	0.1649
409.6374	0.1864
409.8427	0.1761
410.048	0.1698
410.2533	0.1718
410.4586	0.1677
410.6639	0.1725
410.8691	0.1734
411.0744	0.1754
411.2796	0.174
411.4848	0.1771
411.69	0.1737
411.8952	0.1895
412.1004	0.1788
412.3056	0.1966
412.5107	0.1804
412.7158	0.1933
412.921	0.1693
413.1261	0.1784
413.3312	0.1749
413.5362	0.1862
413.7413	0.1743
413.9464	0.1696
414.1514	0.1857
414.3564	0.1682
414.5614	0.1693
414.7664	0.1914
414.9714	0.1587
415.1764	0.191
415.3813	0.1862
415.5863	0.1879
415.7912	0.1766
415.9961	0.1919
416.201	0.1656
416.4059	0.169
416.6108	0.1661
416.8156	0.2052
417.0205	0.179
417.2253	0.1783
417.4301	0.1844
417.6349	0.1641
417.8397	0.1599
418.0445	0.1736
418.2492	0.1932
418.454	0.1774
418.6587	0.174
418.8634	0.1784
419.0681	0.1725
419.2728	0.1759
419.4775	0.1775
419.6822	0.1556
419.8868	0.138
420.0915	0.1771
420.2961	0.1595
420.5007	0.1668
420.7053	0.1514
420.9099	0.1738
421.1144	0.1618
421.319	0.1704
421.5235	0.1605
421.728	0.1697
421.9325	0.1558
422.137	0.1624
422.3415	0.1748
422.546	0.1757
422.7504	0.1549
422.9549	0.1731
423.1593	0.17
423.3637	0.1692
423.5681	0.156
423.7725	0.1321
423.9769	0.1577
424.1812	0.139
424.3856	0.1518
424.5899	0.172
424.7942	0.1427
424.9985	0.1627
425.2028	0.1431
425.4071	0.1793
425.6113	0.1361
425.8156	0.1523
426.0198	0.1498
426.224	0.1302
426.4282	0.1391
426.6324	0.143
426.8366	0.143
427.0407	0.1322
427.2449	0.1361
427.449	0.1337
427.6531	0.1335
427.8572	0.132
428.0613	0.1377
428.2654	0.1288
428.4694	0.1274
428.6735	0.1341
428.8775	0.1371
429.0815	0.1269
429.2855	0.1181
429.4895	0.1379
429.6935	0.1331
429.8975	0.1417
430.1014	0.1386
430.3053	0.1353
430.5093	0.1275
430.7132	0.1227
430.9171	0.1087
431.1209	0.1192
431.3248	0.1233
431.5286	0.1231
431.7325	0.1242
431.9363	0.0958
432.1401	0.124
432.3439	0.1149
432.5477	0.1045
432.7514	0.0934
432.9552	0.1084
433.1589	0.112
433.3627	0.0903
433.5664	0.1056
433.7701	0.1003
433.9737	0.1041
434.1774	0.0925
434.3811	0.1057
434.5847	0.0906
434.7883	0.1006
434.9919	0.0993
435.1955	0.0936
435.3991	0.0934
435.6027	0.0963
435.8062	0.096
436.0098	0.092
436.2133	0.0799
436.4168	0.0889
436.6203	0.0731
436.8238	0.103
437.0272	0.0823
437.2307	0.0827
437.4341	0.0908
437.6375	0.0773
437.841	0.0747
438.0443	0.0734
438.2477	0.0842
438.4511	0.0746
438.6545	0.077
438.8578	0.084
439.0611	0.0674
439.2644	0.0643
439.4677	0.0727
439.671	0.0614
439.8743	0.0711
440.0775	0.078
440.2808	0.0594
440.484	0.0479
440.6872	0.035
440.8904	0.0468
441.0936	0.08
441.2967	0.067
441.4999	0.0623
441.703	0.0442
441.9062	0.0392
442.1093	0.0591
442.3124	0.05
442.5155	0.034
442.7185	0.0515
442.9216	0.0469
443.1246	0.0674
443.3276	0.0522
443.5307	0.0513
443.7337	0.0528
443.9366	0.0466
444.1396	0.0475
444.3426	0.0426
444.5455	0.0514
444.7484	0.0359
444.9513	0.0528
445.1542	0.0543
445.3571	0.0397
445.56	0.0482
445.7628	0.0307
445.9657	0.0238
446.1685	0.0465
446.3713	0.0396
446.5741	0.0344
446.7769	0.0227
446.9797	0.0316
447.1824	0.0411
447.3852	0.0186
447.5879	0.0399
447.7906	0.0431
447.9933	0.0428
448.196	0.0309
448.3986	0.0228
448.6013	0.0165
448.8039	0.0182
449.0066	0.0184
449.2092	0.0233
449.4118	0.0307
449.6143	0.0215
449.8169	0.0293
450.0195	0.0063
450.222	0.001
450.4245	0.0261
450.627	0.0224
450.8295	0.0283
451.032	0.0162
451.2345	0.0202
451.4369	0.0339
451.6394	0.0215
451.8418	0.0039
452.0442	0.004
452.2466	0.0391
452.449	0.0017
452.6513	0.0083
452.8537	0.0065
453.056	0.0035
453.2583	0.0134
453.4607	0.0021
453.663	0.01
453.8652	0.0089
454.0675	0.0069
454.2697	0.0168
454.472	-0.0044
454.6742	0.0167
454.8764	0.0029
455.0786	0.0112
455.2808	0.0062
455.4829	0.0173
455.6851	0.0093
455.8872	0.0132
456.0893	0.0136
456.2915	-0.0044
456.4935	0.0264
456.6956	-0.0043
456.8977	0.0029
457.0997	-0.0168
457.3018	0.0004
457.5038	0.0125
457.7058	-0.011
457.9078	0.0068
458.1098	0.0024
458.3117	-0.0015
458.5137	0.0056
458.7156	0.0211
458.9175	-0.0148
459.1194	0.0047
459.3213	-0.0081
459.5232	0.0025
459.725	-0.0029
459.9269	-0.0074
460.1287	-0.0013
460.3305	0.0035
460.5323	0.0063
460.7341	0.017
460.9359	0.011
461.1376	0.0103
461.3394	0.0051
461.5411	0.0162
461.7428	-0.0009
461.9445	0.004
462.1462	0.0202
462.3479	0.0015
462.5495	-0.0082
462.7512	0.0131
462.9528	0.002
463.1544	-0.0097
463.356	-0.0059
463.5576	0.0013
463.7592	-0.0049
463.9607	-0.0021
464.1623	0.0158
464.3638	0.0115
464.5653	-0.0133
464.7668	-0.0156
464.9683	0.0156
465.1697	0.0088
465.3712	-0.0016
465.5726	-0.0063
465.7741	-0.0048
465.9755	-0.0115
466.1769	-0.01
466.3782	-0.0125
466.5796	-0.0141
466.7809	0.0045
466.9823	0.0051
467.1836	-0.0086
467.3849	-0.0043
467.5862	-0.0018
467.7875	-0.0078
467.9887	0.0068
468.19	-0.0209
468.3912	-0.0181
468.5924	-0.009
468.7936	-0.0125
468.9948	-0.0098
469.196	-0.0038
469.3972	-0.0147
469.5983	-0.0082
469.7994	-0.0322
470.0006	-0.0085
470.2017	-0.0098
470.4027	-0.0055
470.6038	-0.0029
470.8049	-0.0199
471.0059	0.0029
471.2069	-0.0245
471.408	0.0113
471.6089	-0.0028
471.8099	-0.0118
472.0109	-0.0034
472.2119	-0.0075
472.4128	-0.015
472.6137	-0.0083
472.8146	-0.0064
473.0155	-0.0062
473.2164	-0.0002
473.4173	-0.0077
473.6181	0.0043
473.819	0.009
474.0198	-0.0063
474.2206	-0.0036
474.4214	-0.0055
474.6222	-0.0092
474.8229	0.0033
475.0237	-0.0144
475.2244	-0.0081
475.4251	0.0042
475.6258	-0.0024
475.8265	-0.0062
476.0272	0.0103
476.2278	-0.0088
476.4285	-0.0085
476.6291	-0.0219
476.8297	-0.0136
477.0303	-0.0131
477.2309	-0.0075
477.4315	-0.0157
477.632	-0.0043
477.8326	-0.0038
478.0331	-0.001
478.2336	-0.0017
478.4341	-0.0092
478.6346	-0.0114
478.8351	-0.0067
479.0355	-0.0011
479.236	-0.0067
479.4364	-0.0104
479.6368	-0.0019
479.8372	-0.0137
480.0376	0.0001
480.2379	-0.0223
480.4383	-0.0052
480.6386	-0.0031
480.8389	0.0017
481.0392	-0.0034
481.2395	-0.0082
481.4398	0.0058
481.6401	-0.002
481.8403	-0.0078
482.0405	-0.0189
482.2408	-0.0169
482.441	0.0043
482.6411	-0.0009
482.8413	-0.0122
483.0415	-0.01
483.2416	-0.009
483.4417	-0.0077
483.6419	-0.0109
483.8419	-0.0117
484.042	0.0054
484.2421	0.0054
484.4422	-0.0008
484.6422	-0.0058
484.8422	-0.0091
485.0422	-0.0069
485.2422	-0.0023
485.4422	-0.0151
485.6422	-0.0175
485.8421	-0.0008
486.042	-0.0057
486.242	-0.0103
486.4419	-0.0103
486.6417	-0.0096
486.8416	0.0002
487.0415	-0.0171
487.2413	-0.0095
487.4411	-0.011
487.641	-0.0157
487.8408	0.0003
488.0405	-0.0103
488.2403	-0.007
488.4401	0.0025
488.6398	-0.0018
488.8395	-0.0132
489.0392	0.0013
489.2389	-0.0079
489.4386	-0.0162
489.6383	-0.0089
489.8379	-0.0028
490.0376	-0.0114
490.2372	-0.0073
490.4368	-0.0161
490.6364	-0.0056
490.836	-0.0193
491.0355	-0.0078
491.2351	-0.0142
491.4346	-0.0108
491.6341	-0.0148
491.8336	-0.0029
492.0331	-0.013
492.2326	-0.0163
492.432	-0.0065
492.6315	-0.01
492.8309	-0.0155
493.0303	-0.0162
493.2297	-0.013
493.4291	-0.0141
493.6284	-0.0075
493.8278	-0.007
494.0271	0.0119
494.2264	0.0038
494.4257	-0.0119
494.625	-0.0076
494.8243	-0.0194
495.0236	-0.0092
495.2228	-0.0198
495.422	-0.0015
495.6213	-0.01
495.8205	-0.0159
496.0196	-0.0115
496.2188	0.0031
496.418	-0.0135
496.6171	-0.0147
496.8162	-0.0207
497.0153	-0.0093
497.2144	-0.0103
497.4135	-0.0128
497.6126	-0.0153
497.8116	-0.0062
498.0107	-0.0065
498.2097	-0.0148
498.4087	-0.0182
498.6077	-0.0098
498.8067	-0.018
499.0056	0.0028
499.2046	-0.0111
499.4035	-0.034
499.6024	-0.0081
499.8013	-0.0113
500.0002	-0.0161
500.199	-0.0137
500.3979	-0.0135
500.5967	-0.0159
500.7956	-0.0154
500.9944	-0.0139
501.1932	-0.0159
501.3919	-0.0142
501.5907	-0.0146
501.7895	-0.0023
501.9882	-0.0214
502.1869	-0.0184
502.3856	-0.0102
502.5843	-0.0126
502.783	-0.0149
502.9816	-0.0115
503.1803	-0.021
503.3789	-0.0111
503.5775	-0.0036
503.7761	-0.017
503.9747	-0.0111
504.1732	-0.0141
504.3718	-0.0056
504.5703	-0.017
504.7689	-0.0106
504.9674	-0.0181
505.1658	-0.0191
505.3643	-0.0111
505.5628	-0.0228
505.7612	-0.0173
505.9597	-0.0022
506.1581	-0.0149
506.3565	0.0046
506.5549	-0.0034
506.7532	-0.0177
506.9516	0.0002
507.1499	-0.0077
507.3482	-0.0086
507.5465	-0.0141
507.7448	-0.0053
507.9431	-0.0136
508.1414	0.0016
508.3396	-0.0108
508.5379	-0.0078
508.7361	-0.0153
508.9343	-0.0038
509.1325	-0.0038
509.3306	-0.0128
509.5288	-0.0081
509.7269	-0.019
509.9251	-0.0064
510.1232	-0.0155
510.3213	-0.0114
510.5193	-0.0071
510.7174	-0.017
510.9154	-0.011
511.1135	-0.0124
511.3115	-0.0124
511.5095	-0.0177
511.7075	-0.0071
511.9055	-0.0113
512.1034	-0.0122
512.3014	-0.0082
512.4993	-0.0083
512.6972	-0.0077
512.8951	-0.0192
513.093	-0.0047
513.2908	-0.0112
513.4887	-0.0109
513.6865	-0.0088
513.8844	-0.0029
514.0822	-0.0171
514.2799	-0.0199
514.4777	-0.0151
514.6755	-0.0082
514.8732	-0.0163
515.0709	-0.0135
515.2687	-0.021
515.4664	-0.0028
515.664	-0.0058
515.8617	-0.0211
516.0594	-0.0162
516.257	-0.0076
516.4546	-0.0154
516.6522	-0.0055
516.8498	-0.0123
517.0474	0.0009
517.2449	-0.0002
517.4425	-0.0117
517.64	-0.0076
517.8375	-0.005
518.035	-0.0048
518.2325	-0.0129
518.43	-0.0104
518.6274	-0.009
518.8249	-0.0268
519.0223	-0.0069
519.2197	-0.0156
519.4171	-0.0186
519.6145	-0.0105
519.8118	0.0007
520.0092	-0.008
520.2065	-0.0191
520.4038	-0.0248
520.6011	-0.0102
520.7984	-0.0137
520.9956	-0.0195
521.1929	-0.0191
521.3901	-0.0045
521.5874	-0.0072
521.7846	-0.0043
521.9818	-0.0137
522.1789	-0.0095
522.3761	-0.0126
522.5732	-0.0019
522.7704	-0.0133
522.9675	-0.0062
523.1646	-0.0172
523.3617	-0.0039
523.5587	0.0001
523.7558	-0.0085
523.9528	-0.0117
524.1498	0.0025
524.3468	-0.0177
524.5438	-0.016
524.7408	-0.0165
524.9378	0.0019
525.1347	-0.0034
525.3316	-0.0079
525.5285	-0.0171
525.7254	-0.0125
525.9223	-0.0164
526.1192	-0.0094
526.316	-0.0219
526.5129	-0.004
526.7097	-0.0094
526.9065	-0.0123
527.1033	-0.0104
527.3	0.0001
527.4968	-0.0114
527.6935	-0.0073
527.8903	-0.0255
528.087	-0.0082
528.2837	-0.0129
528.4804	-0.0101
528.677	-0.0135
528.8737	-0.0063
529.0703	0.0037
529.2669	-0.006
529.4635	-0.0096
529.6601	-0.0048
529.8567	-0.0055
530.0532	-0.0107
530.2498	-0.0031
530.4463	-0.0074
530.6428	-0.0098
530.8393	0.0064
531.0358	-0.0099
531.2322	-0.0115
531.4287	-0.0117
531.6251	-0.0168
531.8215	-0.0013
532.0179	-0.0072
532.2143	-0.0061
532.4107	-0.008
532.607	-0.0129
532.8034	0.0025
532.9997	-0.0002
533.196	-0.0087
533.3923	-0.0169
533.5886	-0.0054
533.7848	-0.0134
533.9811	-0.0095
534.1773	-0.003
534.3735	-0.0028
534.5697	-0.0101
534.7659	-0.0008
534.9621	0.0033
535.1582	-0.0215
535.3544	-0.0135
535.5505	-0.0088
535.7466	-0.0106
535.9427	-0.0133
536.1387	-0.0187
536.3348	-0.0043
536.5308	-0.0031
536.7269	-0.0088
536.9229	-0.0045
537.1189	-0.0079
537.3148	-0.0189
537.5108	-0.0089
537.7068	-0.0058
537.9027	-0.0008
538.0986	-0.0107
538.2945	-0.0121
538.4904	-0.0078
538.6863	-0.0038
538.8821	-0.0112
539.078	-0.0088
539.2738	-0.0054
539.4696	-0.0061
539.6654	0.0001
539.8611	0
540.0569	-0.0129
540.2526	-0.0046
540.4484	-0.0087
540.6441	0.0028
540.8398	-0.004
541.0355	0.0011
541.2311	-0.0103
541.4268	-0.0159
541.6224	-0.0057
541.818	-0.0068
542.0136	-0.0127
542.2092	-0.0064
542.4048	-0.0018
542.6003	-0.007
542.7959	-0.0082
542.9914	-0.0148
543.1869	-0.0054
543.3824	-0.0011
543.5779	-0.0078
543.7734	-0.0141
543.9688	-0.0132
544.1642	-0.0045
544.3596	-0.005
544.555	-0.0066
544.7504	-0.005
544.9458	-0.009
545.1411	-0.0024
545.3365	0.005
545.5318	-0.0091
545.7271	-0.0039
545.9224	-0.007
546.1177	-0.006
546.3129	-0.0049
546.5081	-0.007
546.7034	-0.0039
546.8986	-0.009
547.0938	-0.0046
547.289	-0.0061
547.4841	-0.0033
547.6793	0.0066
547.8744	-0.0145
548.0695	0.0013
548.2646	-0.0053
548.4597	0.0028
548.6548	-0.0035
548.8498	0.0004
549.0448	-0.0009
549.2399	-0.0147
549.4349	0.0039
549.6298	0.0035
549.8248	0.0001
550.0198	0.002
550.2147	0.0025
550.4096	-0.0084
550.6045	0.0015
550.7994	-0.0043
550.9943	0.0038
551.1892	0.0048
551.384	0.0021
551.5788	-0.0081
551.7737	-0.0013
551.9685	-0.0083
552.1632	0.0081
552.358	-0.0016
552.5528	0.0003
552.7475	0.0054
552.9422	0.0051
553.1369	0.0015
553.3316	0
553.5263	-0.0069
553.7209	0.001
553.9156	-0.0045
554.1102	-0.0055
554.3048	-0.001
554.4994	0.0042
554.694	-0.0029
554.8885	0.0054
555.0831	-0.0037
555.2776	-0.0029
555.4721	-0.0044
555.6666	-0.003
555.8611	-0.0002
556.0555	-0.0103
556.25	0.0019
556.4444	-0.0155
556.6388	-0.0011
556.8332	-0.0056
557.0276	-0.0072
557.222	-0.0045
557.4163	-0.0048
557.6107	-0.0124
557.805	0.0005
557.9993	-0.0044
558.1936	-0.0043
558.3879	-0.005
558.5821	-0.0084
558.7764	-0.0099
558.9706	0.0002
559.1648	0.0023
559.359	-0.0053
559.5532	-0.0079
559.7473	-0.0063
559.9415	-0.0015
560.1356	-0.0053
560.3297	-0.0124
560.5238	-0.0059
560.7179	-0.006
560.9119	0.0011
561.106	-0.0137
561.3	-0.0108
561.494	-0.0019
561.688	-0.0034
561.882	-0.016
562.076	-0.0048
562.2699	-0.0019
562.4639	0.0084
562.6578	-0.0008
562.8517	-0.0007
563.0456	-0.0077
563.2395	-0.0021
563.4333	-0.0006
563.6272	-0
563.821	0.0017
564.0148	-0.009
564.2086	-0.006
564.4024	-0.0051
564.5961	-0.0106
564.7899	0.0032
564.9836	-0.004
565.1773	-0.0064
565.371	0.0081
565.5647	-0.0052
565.7584	-0.0031
565.952	-0.0009
566.1456	-0.0006
566.3393	-0.0019
566.5329	-0.0004
566.7264	-0.0124
566.92	-0.0029
567.1136	0.0015
567.3071	-0.0087
567.5006	-0.0042
567.6941	0.0045
567.8876	-0.0017
568.0811	-0.0102
568.2745	-0.0031
568.468	0.0004
568.6614	-0.0015
568.8548	-0.0117
569.0482	-0.0006
569.2416	-0.0041
569.4349	-0.0014
569.6283	0.0073
569.8216	-0.0075
570.0149	-0.0037
570.2082	0.0022
570.4015	0.0036
570.5947	0.0027
570.788	0.01
570.9812	0.0012
571.1744	-0.0046
571.3676	-0.0099
571.5608	-0.0014
571.754	0.0019
571.9471	0.0001
572.1402	0.0009
572.3333	-0.0037
572.5264	-0.0093
572.7195	-0.0003
572.9126	-0.0025
573.1057	0.0002
573.2987	-0.0055
573.4917	0.0041
573.6847	-0.0063
573.8777	0.0066
574.0707	0.0065
574.2636	-0.0082
574.4566	-0.0012
574.6495	0.0091
574.8424	-0.0011
575.0353	-0.006
575.2281	0.0077
575.421	0.0018
575.6138	0.0071
575.8067	0.0009
575.9995	0.004
576.1923	-0.0006
576.385	0.0048
576.5778	-0.0009
576.7706	-0.0012
576.9633	-0.0027
577.156	0.0067
577.3487	0.0018
577.5414	0.0037
577.734	-0.0018
577.9267	0.0057
578.1193	-0.0076
578.3119	-0.0066
578.5045	0.0007
578.6971	0.0035
578.8897	0.0009
579.0822	-0.0017
579.2747	0.0023
579.4673	-0.0057
579.6598	-0.0049
579.8522	-0.0035
580.0447	0
580.2372	-0.0055
580.4296	0.0019
580.622	-0.0026
580.8144	-0.0058
581.0068	-0.0017
581.1992	-0.0138
581.3915	-0.0079
581.5839	-0.0067
581.7762	-0.0087
581.9685	-0.0053
582.1608	0.0011
582.353	0.0019
582.5453	0.0045
582.7375	-0.001
582.9298	0.0023
583.122	-0.0027
583.3142	0.0034
583.5063	-0.0009
583.6985	-0.0029
583.8906	-0.0033
584.0827	-0.0103
584.2749	0.0002
584.4669	0.0001
584.659	-0.001
584.8511	-0.0033
585.0431	-0.006
585.2352	0.0047
585.4272	0.0006
585.6192	0.0053
585.8111	-0.0029
586.0031	0.0046
586.195	-0.0035
586.387	0.0073
586.5789	-0.0033
586.7708	0.0029
586.9627	0.004
587.1545	-0.0088
587.3464	0.0084
587.5382	0.002
587.73	0.0062
587.9218	0.0091
588.1136	-0.0044
588.3053	0.007
588.4971	-0.0098
588.6888	-0.0046
588.8805	0.0031
589.0722	0.0115
589.2639	0.0001
589.4556	-0.0036
589.6472	-0.0013
589.8389	-0.0062
590.0305	-0.0064
590.2221	0.003
590.4137	-0.0044
590.6052	0.0055
590.7968	0.0035
590.9883	-0.0067
591.1798	-0.0024
591.3713	0.0018
591.5628	0.003
591.7543	0.009
591.9458	-0.0064
592.1372	0.0017
592.3286	0.0051
592.52	0.0076
592.7114	-0.0037
592.9028	-0.0004
593.0941	0.0002
593.2855	0.0028
593.4768	-0.01
593.6681	-0.006
593.8594	-0.0045
594.0506	0.0004
594.2419	0.006
594.4331	0.0033
594.6244	0.008
594.8156	-0.0052
595.0067	0.0078
595.1979	-0.003
595.3891	0.0034
595.5802	-0.0022
595.7713	-0.0059
595.9624	-0.0058
596.1535	0.0029
596.3446	0.0023
596.5357	-0.0037
596.7267	0.0067
596.9177	-0.0001
597.1087	-0.0048
597.2997	-0.0015
597.4907	0.0048
597.6817	-0.0124
597.8726	-0.0038
598.0635	-0.0018
598.2544	0.0007
598.4453	-0.0012
598.6362	-0.0025
598.827	-0.0049
599.0179	0.0033
599.2087	0.0022
599.3995	0.0011
599.5903	-0.0054
599.7811	0.0013
599.9718	-0.0007
600.1626	-0.0039
600.3533	-0.0043
600.544	0.0037
600.7347	-0.0023
600.9254	-0.0004
601.116	-0.0069
601.3067	-0.0068
601.4973	-0.0067
601.6879	0.0067
601.8785	-0.0049
602.0691	0.0058
602.2596	-0.0015
602.4502	-0.0051
602.6407	0.0044
602.8312	0.0006
603.0217	-0.0047
603.2122	-0.0052
603.4027	-0.0073
603.5931	-0.0105
603.7835	-0.0096
603.9739	-0.0046
604.1643	-0.0041
604.3547	-0.0045
604.5451	-0.0017
604.7354	0.0049
604.9257	0.0026
605.116	-0.005
605.3063	0.0033
605.4966	0.0025
605.6869	-0.0018
605.8771	0.0013
606.0673	0.0079
606.2575	0.0023
606.4477	0.0041
606.6379	0.0076
606.8281	-0.0002
607.0182	-0.0024
607.2083	0.0065
607.3985	0.0004
607.5885	-0.0041
607.7786	-0.0019
607.9687	-0.0038
608.1587	0.0037
608.3488	0.0031
608.5388	0.0038
608.7288	-0.004
608.9187	-0.0043
609.1087	-0.008
609.2986	-0.0058
609.4886	0.0001
609.6785	-0.0018
609.8684	0.0043
610.0582	0.0086
610.2481	0.0057
610.4379	-0.0023
610.6278	0.0013
610.8176	-0.0026
611.0074	-0.0005
611.1971	-0.0026
611.3869	-0.0009
611.5766	-0.0025
611.7664	0.0012
611.9561	-0.0015
612.1458	-0.0007
612.3354	-0.0064
612.5251	-0.0016
612.7147	0.0019
612.9044	0.0028
613.094	-0.0092
613.2836	0.002
613.4731	0.0005
613.6627	-0.004
613.8522	0.0025
614.0417	0.003
614.2313	-0.0087
614.4207	0.0022
614.6102	0.0022
614.7997	-0.0091
614.9891	-0.0023
615.1785	0.0006
615.3679	-0.0105
615.5573	0.0099
615.7467	-0.0083
615.9361	-0.0068
616.1254	-0.0006
616.3147	-0.0027
616.504	0.0056
616.6933	-0.0012
616.8826	0.0084
617.0718	-0.0001
617.2611	0.0083
617.4503	-0.0017
617.6395	-0.0006
617.8287	0.0021
618.0179	0.0005
618.207	0.0078
618.3961	0.0022
618.5853	0.0059
618.7744	0.0111
618.9634	0.008
619.1525	-0.0006
619.3416	-0.0007
619.5306	0.0071
619.7196	0.0039
619.9086	0.004
620.0976	0.0088
620.2866	-0.0039
620.4755	0.01
620.6645	0.0004
620.8534	0.0047
621.0423	0.0055
621.2312	-0.001
621.42	-0.0009
621.6089	0.0056
621.7977	0.0049
621.9865	-0.0065
622.1753	0.007
622.3641	-0.0019
622.5529	0.0065
622.7416	0.0004
622.9303	-0.0126
623.1191	0.0076
623.3078	-0.001
623.4964	0.0075
623.6851	0.0026
623.8737	-0.0042
624.0624	0.0057
624.251	-0.0003
624.4396	-0.0025
624.6282	-0.0008
624.8167	0.0024
625.0053	0.0036
625.1938	0.0075
625.3823	-0.0035
625.5708	0.0005
625.7593	0.0016
625.9477	-0.0052
626.1362	-0.004
626.3246	0.0029
626.513	0.0042
626.7014	0.0022
626.8898	-0.0003
627.0781	-0.0032
627.2665	-0.0028
627.4548	0.0041
627.6431	0.0026
627.8314	0.0006
628.0197	0.0029
628.2079	-0.0096
628.3962	0.0015
628.5844	0.003
628.7726	0.0098
628.9608	0.0122
629.1489	0.0023
629.3371	0.0088
629.5252	0.0013
629.7134	0.0149
629.9015	0.0032
630.0895	0.0034
630.2776	-0.0026
630.4657	0.0025
630.6537	0.0039
630.8417	0.0006
631.0297	-0.0037
631.2177	-0.0024
631.4057	-0.0055
631.5936	0.0007
631.7815	0.0037
631.9695	0.0014
632.1574	0.0056
632.3452	0.0127
632.5331	0.0014
632.7209	0.0039
632.9088	0.0058
633.0966	0.0075
633.2844	0.0055
633.4722	-0.0003
633.6599	0.0053
633.8477	0.004
634.0354	0.0015
634.2231	0.0069
634.4108	-0.0001
634.5985	0.0025
634.7861	-0.0014
634.9738	-0.0028
635.1614	-0.0072
635.349	0.0081
635.5366	-0.0062
635.7242	-0.0015
635.9117	0.0081
636.0993	0.0063
636.2868	0.0045
636.4743	-0.0029
636.6618	0.0106
636.8492	-0.0006
637.0367	0.0029
637.2241	0.0005
637.4115	-0.0102
637.5989	0.0022
637.7863	-0.0024
637.9737	-0.0009
638.161	0.0022
638.3484	0.002
638.5357	0.0093
638.723	0.0004
638.9103	0.0059
639.0975	-0.0004
639.2848	0.0036
639.472	-0.0028
639.6592	0.003
639.8464	0.0019
640.0336	0.004
640.2208	-0.0007
640.4079	-0.0015
640.595	0.0018
640.7821	0.0004
640.9692	0.0011
641.1563	-0.0021
641.3434	-0.0003
641.5304	-0.0125
641.7174	-0.0008
641.9044	-0.0013
642.0914	0.0042
642.2784	0.003
642.4653	-0.001
642.6523	0.0072
642.8392	-0.0018
643.0261	0.0033
643.213	0.0092
643.3999	-0.0065
643.5867	-0.0096
643.7735	-0.0035
643.9604	-0.0063
644.1472	-0.0063
644.3339	-0.0018
644.5207	0.0006
644.7075	-0.0069
644.8942	0.0059
645.0809	0.0066
645.2676	0.0047
645.4543	0.0058
645.6409	0.0047
645.8276	-0.0039
646.0142	0.0002
646.2008	-0.0072
646.3874	-0.0055
646.574	-0.0014
646.7605	0.0008
646.9471	-0.0083
647.1336	-0.0052
647.3201	0.0045
647.5066	-0.0004
647.6931	0.0059
647.8795	-0.0004
648.0659	0.0071
648.2524	0.0022
648.4388	0.0004
648.6252	-0.0003
648.8115	0.0066
648.9979	-0.0045
649.1842	-0.0028
649.3705	0.0023
649.5568	-0.0003
649.7431	0.0014
649.9294	-0.0056
650.1156	0.0087
650.3018	-0.006
650.488	-0.0011
650.6742	0.004
650.8604	0.003
651.0466	-0.002
651.2327	-0.0027
651.4188	-0.0046
651.6049	-0.0008
651.791	-0.0041
651.9771	0.0032
652.1632	0.0008
652.3492	0.0019
652.5352	-0.0008
652.7212	-0.0038
652.9072	0.0059
653.0932	-0.0093
653.2791	-0.0042
653.465	-0.0017
653.651	-0.0029
653.8369	-0.0095
654.0227	-0.0054
654.2086	-0.0035
654.3944	0.0039
654.5803	-0.0074
654.7661	-0.0016
654.9519	0.0004
655.1377	-0.008
655.3234	-0.0038
655.5092	-0.0038
655.6949	-0.0054
655.8806	0.0001
656.0663	0.0006
656.2519	-0.0048
656.4376	-0.0082
656.6232	0.0015
656.8088	-0.001
656.9945	-0.0047
657.18	-0.0039
657.3656	-0.004
657.5511	-0.0032
657.7367	-0.0093
657.9222	-0
658.1077	-0.0001
658.2932	0.0023
658.4786	-0.0125
658.6641	-0.006
658.8495	-0.007
659.0349	-0.0019
659.2203	0.0104
659.4057	-0.0025
659.591	-0.0064
659.7764	-0.002
659.9617	0.0051
660.147	-0.0037
660.3323	0.0025
660.5176	0.0075
660.7028	-0.0059
660.888	-0.0011
661.0733	-0.0027
661.2585	-0.0083
661.4436	-0.0049
661.6288	-0.0092
661.8139	-0.0094
661.9991	0.0023
662.1842	-0.0048
662.3693	0.0007
662.5544	-0.0085
662.7394	0.0011
662.9245	-0.0077
663.1095	-0.0056
663.2945	0.0013
663.4795	-0.0004
663.6644	0.0017
663.8494	-0.0001
664.0343	0.0072
664.2193	-0.0119
664.4042	0.0055
664.589	-0.002
664.7739	-0.0025
664.9587	-0.0049
665.1436	-0.0008
665.3284	-0.0002
665.5132	-0.0077
665.698	0.0037
665.8827	0.0072
666.0675	0.0042
666.2522	-0.0003
666.4369	-0.0021
666.6216	0.0044
666.8063	0.0058
666.9909	-0.0012
667.1756	-0.0019
667.3602	-0.0038
667.5448	-0.0028
667.7294	0.0026
667.9139	0.0066
668.0985	0.0065
668.283	-0.0002
668.4675	0.0014
668.652	0.0027
668.8365	0.001
669.0209	0.0077
669.2054	0.008
669.3898	-0.0005
669.5742	-0.0018
669.7586	0.001
669.943	0.013
670.1273	0.0025
670.3117	0.0064
670.496	0.0068
670.6803	0.0103
670.8646	0.0038
671.0488	0.002
671.2331	0.0088
671.4173	0.0061
671.6015	-0.0002
671.7857	0.002
671.9699	0.0074
672.1541	0.0095
672.3382	0.0052
672.5223	0.0085
672.7064	0.0062
672.8905	0.0082
673.0746	0.0017
673.2587	-0.0068
673.4427	0.0005
673.6267	0.0129
673.8107	0.0083
673.9947	0.0067
674.1787	-0.0025
674.3626	-0.0088
674.5465	0.0012
674.7304	0.0002
674.9143	0.0035
675.0982	0.0041
675.2821	-0.0109
675.4659	0.0026
675.6497	-0.004
675.8335	-0.0054
676.0173	0.0014
676.2011	0.0042
676.3849	-0.006
676.5686	0.0011
676.7523	0.0069
676.936	0.0038
677.1197	-0.0035
677.3034	-0.0039
677.487	-0.0011
677.6706	-0.0027
677.8542	0.0008
678.0378	0.0038
678.2214	0.0045
678.405	-0.0044
678.5885	-0.0086
678.772	0.0034
678.9555	-0.0013
679.139	-0.0057
679.3225	0.0034
679.5059	0.0066
679.6894	0.0004
679.8728	-0.0056
680.0562	-0.0109
680.2395	-0.0045
680.4229	-0.0063
680.6062	0.0061
680.7896	0.0013
680.9729	-0.0075
681.1562	0.0062
681.3394	-0.0024
681.5227	-0.006
681.7059	-0.0064
681.8891	-0.0087
682.0723	0.0104
682.2555	-0.0013
682.4387	-0.0024
682.6218	-0.0008
682.805	0.0006
682.9881	-0.0024
683.1712	-0.0066
683.3542	-0.005
683.5373	0.004
683.7203	-0.0011
683.9034	0.0041
684.0864	0.0051
684.2694	-0.0025
684.4523	0.0034
684.6353	-0.0092
684.8182	-0.0059
685.0011	-0.0051
685.184	0.0022
685.3669	-0.0035
685.5498	-0.0006
685.7326	-0.0021
685.9154	-0.0064
686.0982	0.0128
686.281	0.0028
686.4638	0.0148
686.6465	0.0006
686.8293	0.0074
687.012	-0.0025
687.1947	-0.0046
687.3774	0.0011
687.56	-0.0039
687.7427	-0.004
687.9253	-0.003
688.1079	-0.0025
688.2905	0.0039
688.4731	-0.005
688.6556	0.0013
688.8382	0.0056
689.0207	0.0056
689.2032	-0.009
689.3857	-0.017
689.5681	0.0028
689.7506	0.0012
689.933	-0.0049
690.1154	0.0005
690.2978	-0.0016
690.4802	0.0003
690.6626	-0.011
690.8449	-0.0071
691.0272	0.0039
691.2095	-0.0116
691.3918	-0.0093
691.5741	-0.0051
691.7563	-0.0023
691.9386	0.0012
692.1208	-0.0014
692.303	0.002
692.4852	-0.0057
692.6673	0.0006
692.8495	0.0005
693.0316	0.0012
693.2137	0.0005
693.3958	0.0092
693.5778	0.0034
693.7599	-0.0005
693.9419	0.0057
694.1239	0.0002
694.3059	-0.0004
694.4879	0.0061
694.6699	0.0096
694.8518	0.0061
695.0337	-0.0006
695.2157	0.0035
695.3975	0
695.5794	0.0101
695.7613	0.0016
695.9431	0.0001
696.1249	0.0006
696.3067	0.0024
696.4885	0.0025
696.6703	-0.0057
696.852	-0.0006
697.0337	0.0064
697.2154	-0.0075
697.3971	0.0021
697.5788	-0.0027
697.7605	-0.0101
697.9421	-0.0037
698.1237	-0.0048
698.3053	-0.0056
698.4869	-0.0031
698.6685	-0.014
698.85	-0.0016
699.0315	0.0034
699.213	-0.0032
699.3945	-0.003
699.576	0.0022
699.7575	0.0045
699.9389	0.0099
700.1203	-0.0035
700.3017	0.0005
700.4831	-0.0055
700.6645	0.0008
700.8458	0.0024
701.0271	0.0048
701.2084	0.0076
701.3897	-0.0081
701.571	0.0054
701.7523	-0.0062
701.9335	-0.0064
702.1147	-0.0027
702.2959	-0.0001
702.4771	-0.0032
702.6583	-0.0068
702.8394	-0.0087
703.0205	0.0069
703.2016	-0.0057
703.3827	-0.0015
703.5638	0.0037
703.7449	0.0052
703.9259	0.0085
704.1069	-0.0007
704.2879	0.0033
704.4689	0.0076
704.6499	0.0095
704.8308	0.0085
705.0117	0.0028
705.1927	0.0043
705.3735	0.0036
705.5544	-0.0034
705.7353	0.0017
705.9161	-0.0075
706.0969	-0.0065
706.2777	-0.003
706.4585	-0.0072
706.6393	0.0045
706.82	-0.0035
707.0007	0.002
707.1815	0.0029
707.3621	0.0051
707.5428	0.0067
707.7235	0.0071
707.9041	0.0051
708.0847	-0.0013
708.2653	-0.0046
708.4459	-0.0108
708.6265	-0.0001
708.807	0.0057
708.9875	-0.0003
709.168	-0.0039
709.3485	-0.0007
709.529	-0.0047
709.7095	-0.0097
709.8899	-0.0027
710.0703	-0.0051
710.2507	-0.0048
710.4311	-0.0026
710.6115	-0.0064
710.7918	-0.0033
710.9721	-0.0006
711.1524	-0.0095
711.3327	-0.0051
711.513	-0.0001
711.6932	-0.0088
711.8735	0.0073
712.0537	0.0001
712.2339	-0.0004
712.4141	-0.0088
712.5942	-0.0197
712.7744	-0.0053
712.9545	-0.0181
713.1346	-0.0126
713.3147	-0.0095
713.4947	-0.007
713.6748	-0.0061
713.8548	-0.0094
714.0348	-0.0034
714.2148	-0.0039
714.3948	0.005
714.5748	-0.0041
714.7547	-0.0021
714.9346	0.001
715.1145	-0.0067
715.2944	-0.0056
715.4743	-0.0045
715.6541	-0.0051
715.834	0.0075
716.0138	-0.0036
716.1936	-0.0194
716.3733	-0.0149
716.5531	0.0028
716.7328	-0.0068
716.9126	-0.0113
717.0923	-0.0045
717.2719	-0.0022
717.4516	-0.0006
717.6312	0.0036
717.8109	-0.0006
717.9905	-0.0002
718.1701	0.0016
718.3496	-0.0064
718.5292	-0.0034
718.7087	-0.0039
718.8882	-0.0042
719.0677	-0.0032
719.2472	-0.0076
719.4267	-0.0029
719.6061	-0.0058
719.7856	0.0045
719.965	-0.002
720.1443	-0.0051
720.3237	0.0084
720.5031	0.0009
720.6824	0.0026
720.8617	0.0008
721.041	0.0031
721.2203	0.0114
721.3995	0.0102
721.5788	-0.0008
721.758	0.0087
721.9372	0.0044
722.1164	-0.0029
722.2956	0.0055
722.4747	0.006
722.6538	-0.001
722.8329	0.0122
723.012	0.0106
723.1911	0.0004
723.3702	0.0045
723.5492	0.0013
723.7282	-0.0033
723.9072	-0.0009
724.0862	-0.0018
724.2652	0.0002
724.4441	-0.0058
724.623	-0.0034
724.8019	-0.0039
724.9808	0.0005
725.1597	-0.007
725.3385	-0.0011
725.5174	0.0096
725.6962	-0.0027
725.875	0.0041
726.0538	0.0055
726.2325	-0.0059
726.4112	0.0067
726.59	-0.0069
726.7687	-0.0078
726.9474	0.0034
727.126	-0.0026
727.3047	-0.0034
727.4833	-0.0094
727.6619	-0.0073
727.8405	-0.0114
728.0191	-0.012
728.1976	0.0012
728.3762	-0.0043
728.5547	-0.0042
728.7332	-0.0079
728.9116	0.0031
729.0901	-0.0011
729.2686	-0.012
729.447	-0.0047
729.6254	-0.0035
729.8038	-0.0039
729.9821	-0.0053
730.1605	-0.0024
730.3388	-0.0004
730.5171	-0.0052
730.6954	-0.0085
730.8737	-0.0005
731.0519	0.0046
731.2302	-0.0038
731.4084	0.0063
731.5866	0
731.7648	-0.0024
731.9429	0.0062
732.1211	-0.0051
732.2992	0.004
732.4773	-0.0002
732.6554	0
732.8335	0.0062
733.0115	0.0082
733.1896	0.0095
733.3676	-0.0095
733.5456	0.006
733.7235	0.0086
733.9015	-0.0022
734.0794	0.0039
734.2574	-0.0006
734.4353	0.0038
734.6131	0.0057
734.791	0.0053
734.9689	0.0007
735.1467	0.0059
735.3245	-0.0129
735.5023	-0.01
735.68	-0.0075
735.8578	-0.0051
736.0355	-0.0147
736.2132	-0.0126
736.3909	0.0019
736.5686	-0.01
736.7463	-0.0024
736.9239	-0.0066
737.1015	-0.0089
737.2791	0.0023
737.4567	-0.0045
737.6343	-0.0133
737.8118	-0.0053
737.9894	-0.0006
738.1669	-0.0101
738.3444	-0.0018
738.5218	-0.0016
738.6993	-0.0014
738.8767	-0.005
739.0541	0.0056
739.2315	-0.0146
739.4089	0.0024
739.5863	0.0032
739.7636	-0.0057
739.9409	0.0007
740.1182	0.0027
740.2955	0.0046
740.4728	-0.0081
740.65	-0.0076
740.8272	-0.0112
741.0044	-0.0066
741.1816	-0.0009
741.3588	-0.0091
741.5359	-0.0064
741.7131	-0.0159
741.8902	-0.0054
742.0673	-0.0068
742.2444	-0.0119
742.4214	-0.0129
742.5985	-0.0128
742.7755	-0.0176
742.9525	-0.0181
743.1295	-0.0002
743.3064	-0.0036
743.4834	0.0014
743.6603	-0.0099
743.8372	-0.0095
744.0141	0.0017
744.191	-0.0017
744.3678	-0.0059
744.5446	-0.0033
744.7215	-0.0016
744.8982	-0.0081
745.075	-0.0094
745.2518	0.0066
745.4285	0.0013
745.6052	0.0039
745.7819	-0.0021
745.9586	-0.0102
746.1353	-0.0006
746.3119	-0.0048
746.4885	-0.0027
746.6651	0.0041
746.8417	-0.0013
747.0183	0.003
747.1948	0.003
747.3714	0.0058
747.5479	0.0077
747.7244	-0.0033
747.9008	0.0106
748.0773	0.0077
748.2537	0.0003
748.4301	-0.0104
748.6065	-0.0055
748.7829	0.0015
748.9593	-0.0071
749.1356	-0.0067
749.3119	0.0055
749.4882	-0.0024
749.6645	0.0057
749.8408	-0.0022
750.017	-0.0039
750.1933	0.0022
750.3695	-0.0071
750.5457	0.0053
750.7218	0.0017
750.898	0.0124
751.0741	-0.0039
751.2502	0.002
751.4263	0.0022
751.6024	-0.0012
751.7784	-0.006
751.9545	-0.006
752.1305	-0.006
752.3065	-0.0035
752.4825	0.0069
752.6584	-0.0118
752.8344	-0.0029
753.0103	-0.0084
753.1862	-0.0073
753.3621	-0.003
753.5379	-0.0043
753.7138	-0.0012
753.8896	-0.0019
754.0654	0.004
754.2412	-0.0032
754.417	0.0016
754.5927	-0.0062
754.7685	-0.0055
754.9442	-0.0012
755.1199	0.0049
755.2956	-0.004
755.4712	0.0052
755.6469	-0.0014
755.8225	-0.0051
755.9981	-0.0071
756.1736	0.003
756.3492	-0.007
756.5248	-0.0077
756.7003	-0.0087
756.8758	-0.0031
757.0513	-0.0153
757.2267	-0.0064
757.4022	-0.0053
757.5776	-0.0015
757.753	-0.0012
757.9284	-0.0015
758.1038	0.0064
758.2791	0
758.4545	-0.0088
758.6298	0.005
758.8051	0.0007
758.9803	0.0003
759.1556	0.0008
759.3308	0.0016
759.506	0.0192
759.6812	0.007
759.8564	0.0116
760.0316	0.006
760.2067	0.002
760.3819	0.0052
760.557	0.0039
760.732	0.0027
760.9071	-0.003
761.0821	0.0016
761.2572	0.0036
761.4322	-0.0112
761.6072	-0.0075
761.7821	-0.0073
761.9571	0.0015
762.132	-0.0069
762.3069	-0.0192
762.4818	-0.0064
762.6567	-0.0054
762.8316	-0.0092
763.0064	-0.0064
763.1812	-0.0073
763.356	-0.0099
763.5308	-0.0072
763.7055	0.0057
763.8803	-0.0027
764.055	0.0034
764.2297	-0.0065
764.4044	-0.0051
764.579	-0.0073
764.7537	-0.0137
764.9283	0.013
765.1029	-0.0032
765.2775	-0.0131
765.4521	-0.0129
765.6266	0.001
765.8011	-0.0033
765.9756	-0.0024
766.1501	0.007
766.3246	0.0025
766.4991	-0.0087
766.6735	-0.0023
766.8479	-0.0164
767.0223	0.011
767.1967	-0.0037
767.371	0.0027
767.5454	-0.0017
767.7197	0.0004
767.894	0.0019
768.0683	-0.0051
768.2425	-0.0056
768.4168	0.0019
768.591	-0.0023
768.7652	-0.0051
768.9394	0.0057
769.1135	-0.0005
769.2877	0.0069
769.4618	0.0061
769.6359	-0.0033
769.81	-0.0043
769.984	-0.01
770.1581	-0.0119
770.3321	-0.004
770.5061	-0.0016
770.6801	-0.0091
770.8541	-0.0088
771.028	0.0035
771.202	-0.0084
771.3759	0.0052
771.5498	-0.01
771.7236	0.0011
771.8975	0.0096
772.0713	0.0085
772.2451	0.0003
772.4189	0.0135
772.5927	0.0131
772.7665	0.0033
772.9402	-0.0042
773.1139	-0.0044
773.2876	-0.0094
773.4613	0.0057
773.635	-0.0006
773.8086	-0.013
773.9822	0.0003
774.1558	-0.0027
774.3294	-0.0212
774.503	-0.0026
774.6765	0.0095
774.8501	-0.001
775.0236	0.0063
775.1971	0.0115
775.3705	-0.0105
775.544	0.0058
775.7174	-0.009
775.8908	-0.0019
776.0642	-0.0084
776.2376	-0.0012
776.4109	-0.0086
776.5843	-0.0074
776.7576	0.0044
776.9309	0.0153
777.1041	0.0025
777.2774	0.0118
777.4506	-0.0002
777.6238	-0.0012
777.797	-0.0048
777.9702	-0.0039
778.1434	-0.0021
778.3165	-0.0144
778.4896	-0.0155
778.6627	0.0213
778.8358	0.0027
779.0089	-0.0004
779.1819	-0.0029
779.3549	0.0174
779.5279	0.0145
779.7009	-0.0036
779.8739	0.0012
780.0468	-0.0037
780.2197	0.0006
780.3926	-0.0056
780.5655	0.0003
780.7384	-0.0027
780.9112	-0.0007
781.0841	-0.0156
781.2569	0.0025
781.4297	-0.0011
781.6024	0.0045
781.7752	0.0121
781.9479	0.0043
782.1206	0.0017
782.2933	-0.0125
782.466	0.0065
782.6386	0.0133
782.8113	0.0045
782.9839	-0.0009
783.1565	0.0163
783.329	0.0114
783.5016	0.0114
783.6741	0.0131
783.8466	0.0024
784.0191	0.0192
784.1916	0.0039
784.3641	-0.0072
784.5365	-0.0107
784.7089	0.0026
784.8813	-0.0164
785.0537	0.0092
785.2261	-0.0104
785.3984	-0.0184
785.5707	0.0012
785.743	-0.0048
785.9153	-0.0093
786.0876	-0.0032
786.2598	-0.0025
786.432	-0.0104
786.6042	0.0056
786.7764	-0.0071
786.9486	-0.004
787.1207	-0.0037
787.2928	0.0134
787.4649	0.0113
787.637	0.0086
787.8091	-0.0031
787.9811	-0.0059
788.1532	-0.0072
788.3252	0.0093
788.4972	0.0056
788.6691	0.0035
788.8411	0.0087
789.013	-0.008
789.1849	0.0067
789.3568	-0.0169
789.5287	-0.0046
789.7005	0.0067
789.8723	0.0094
790.0442	0.0136
790.2159	0.0151
790.3877	0.0016
790.5595	0.0034
790.7312	0.0102
790.9029	0.0152
791.0746	0.0069
791.2463	0.006
791.4179	0.0052
791.5896	0.0049
791.7612	0.0018
791.9328	0.0046
792.1044	-0.0177
792.2759	-0.0073
792.4474	0.0011
792.619	-0.001
792.7905	-0.0005
792.9619	0.0038
793.1334	0.0012
793.3048	0.008
793.4762	0.0135
793.6476	0.0091
793.819	-0.0065
793.9904	0.0054
794.1617	-0.0041
794.333	0.0174
794.5043	-0.002
794.6756	-0.0133
794.8469	0.0055
795.0181	0.011
795.1893	0.0036
795.3605	0.0066
795.5317	-0.0054
795.7029	-0.006
795.874	0.0035
796.0452	0.0046
796.2163	0.0027
796.3873	0.0066
796.5584	0.0264
796.7294	0.0039
796.9005	0.0096
797.0715	0.0172
797.2425	0.0073
797.4134	-0.0024
797.5844	0.0144
797.7553	0.0054
797.9262	0.0054
798.0971	-0.0029
798.2679	-0.0102
798.4388	-0.0106
798.6096	0.0061
798.7804	0.0071
798.9512	0.0052
799.122	0.0165
799.2927	0.0041
799.4635	0.0003
799.6342	-0.0166
799.8049	-0.0063
799.9755	-0.0164
800.1462	0.0081
800.3168	0.0065
800.4874	0.002
800.658	0.0155
800.8286	0.0062
800.9991	0.0073
801.1696	0.0092
801.3402	0.0071
801.5106	-0.0015
801.6811	0.0103
801.8516	0.0133
802.022	0.0147
802.1924	0.0234
802.3628	0.0199
802.5332	0.0144
802.7035	0.0233
802.8739	-0.0028
803.0442	0.0045
803.2145	0.0106
803.3847	-0.0083
803.555	0.004
803.7252	0.0006
803.8954	-0.0014
804.0656	-0.0025
804.2358	-0.0005
804.4059	0.0261
804.5761	0.0062
804.7462	0.0142
804.9163	0.0177
805.0864	-0.0028
805.2564	0.0094
805.4264	0.0216
805.5965	0.006
805.7665	0.0257
805.9364	0.0092
806.1064	0.0271
806.2763	0.0142
806.4462	0.0275
806.6161	0.018
806.786	0.0273
806.9559	0.01
807.1257	-0.0075
807.2955	0.0111
807.4653	0.0043
807.6351	0.0112
807.8048	0.0252
807.9746	0.0133
808.1443	0.0008
808.314	0.0103
808.4837	-0.0027
808.6533	0.0071
808.8229	0.0238
808.9926	0.0081
809.1622	0.0217
809.3317	0.0094
809.5013	0.0177
809.6708	0.0138
809.8403	0.0253
810.0098	0.0138
810.1793	0.0104
810.3488	0.0103
810.5182	-0.0092
810.6876	0.0045
810.857	-0.0052
811.0264	0.0139
811.1958	0.0113
811.3651	0.0181
811.5344	-0.0035
811.7037	-0.0012
811.873	0.0086
812.0422	0.0076
812.2115	0.0125
812.3807	0.0094
812.5499	0.0225
812.7191	0.0354
812.8882	-0.0185
813.0574	0.0193
813.2265	0.0338
813.3956	0.0198
813.5646	0.0148
813.7337	0.0138
813.9027	0.0227
814.0718	0.0221
814.2407	0.0247
814.4097	0.0055
814.5787	0.0078
814.7476	0.0125
814.9165	0.0075
815.0854	0.0028
815.2543	-0.0143
815.4232	-0.001
815.592	0.0325
815.7608	0.0195
815.9296	0.0281
816.0984	0.0124
816.2671	0.0028
816.4359	0.0041
816.6046	0.0269
816.7733	0.0005
816.942	0.0037
817.1106	0.0249
817.2793	0.0161
817.4479	0.0343
817.6165	0.0235
817.785	0.0279
817.9536	0.0032
818.1221	0.0139
818.2906	0.0096
818.4591	0.0094
818.6276	-0.0008
818.7961	0.0257
818.9645	0.0069
819.1329	0.0263
819.3013	0.0329
819.4697	0.0343
819.638	-0.0126
819.8064	0.0375
819.9747	0.0097
820.143	-0.0115
820.3113	-0.0176
820.4795	0.0195
820.6477	0.0099
820.816	0.0385
820.9842	0.019
821.1523	0.0097
821.3205	-0.0096
821.4886	0.019
821.6567	0.029
821.8248	0.0385
821.9929	0.0317
822.1609	-0.0076
822.329	0.031
822.497	0.0345
822.665	-0.0068
822.833	-0.0002
823.0009	0.0093
823.1688	-0.0024
823.3367	0.0353
823.5046	0.0174
823.6725	0.05
823.8404	0.0283
824.0082	0.0306
824.176	0.0225
824.3438	0.0337
824.5116	-0.0214
824.6793	0.0149
824.847	-0.0192
825.0147	-0.021
825.1824	0.0309
825.3501	0.0255
825.5177	0.002
825.6854	0.0085
825.853	0.0301
826.0206	-0.0076
826.1881	0.0107
826.3557	-0.0151
826.5232	0.0198
826.6907	-0.0051
826.8582	-0.0065
827.0257	-0.049
827.1931	0.0122
827.3605	0.0025
827.528	0.0121
827.6953	-0.0196
827.8627	0.0054
828.03	0.0312
828.1974	0.0165
828.3647	-0.0079
828.532	0.0018
828.6992	-0.0017
828.8665	0.0095
829.0337	0.0044
829.2009	0.0171
829.3681	0.0018
829.5352	0.0369
829.7024	0.0019
829.8695	-0.008
830.0366	0.041
830.2037	0.0336
830.3707	0.0113
830.5378	0.02
830.7048	-0.0152
830.8718	0.0003
831.0388	-0.0132
831.2057	0.0335
831.3727	0.0266
831.5396	-0.0164
831.7065	-0.0344
831.8734	0.0107
832.0402	0.0217
832.2071	-0.0136
832.3739	0.0052
832.5407	-0.0002
832.7075	-0.0101
832.8742	-0.0171
833.041	-0.014
833.2077	-0.0051
833.3744	0.016
833.541	-0.0266
833.7077	0.0086
833.8743	0.0097
834.0409	0.0096
834.2075	0.0185
834.3741	0.0091
834.5407	0.0159
834.7072	0.0306
834.8737	-0.0347
835.0402	-0.0003
835.2067	-0.0215
835.3731	0.0384
835.5395	-0.0184
835.706	-0.0117
835.8723	-0.0301
836.0387	0.0319
836.2051	-0.0186
836.3714	-0.0117
836.5377	-0.0044
836.704	-0.0385
836.8703	0.0005
837.0365	0.0191
837.2027	-0.013
837.3689	0.0035
837.5351	-0.0187
837.7013	-0.0409
837.8674	-0.0452
838.0335	-0.008
838.1997	-0.0068
838.3657	-0.0618
838.5318	-0.0326
838.6978	0.0234
838.8639	0.0344
839.0299	0.0327
839.1958	-0.0202
839.3618	-0.0071
839.5277	0.0153
839.6937	0.0269
839.8596	-0.072
840.0254	0.0532
840.1913	0.0439
840.3571	-0.0141
840.523	0.0424
840.6888	-0.0069
840.8545	-0.0425
841.0203	0.0094
841.186	0.0031
841.3517	0.0216
841.5174	-0.0274
841.6831	-0.0161
841.8488	0.0152
842.0144	-0.0076
842.18	-0.0228
842.3456	-0.0106
842.5112	-0.0014
842.6767	-0.0451
842.8422	-0.0703
843.0077	-0.0283
843.1732	-0.0231
843.3387	-0.0149
843.5042	-0.0243
843.6696	0.0142
843.835	-0.0132
844.0004	0.0413
844.1657	-0.0323
844.3311	-0.0341
844.4964	-0.1059
844.6617	0.0142
844.827	-0.0318
844.9923	-0.0039
845.1575	0.0315
845.3227	-0.0251
845.4879	0.0495
845.6531	-0.0753
845.8183	-0.055
845.9834	0.0399
846.1485	-0.0196
846.3136	-0.0738
846.4787	-0.0655
846.6438	0.0165
846.8088	-0.0323
846.9738	-0.0273
847.1388	-0.0409
847.3038	0.0101
847.4687	-0.1403
847.6337	-0.0044
847.7986	-0.0084
847.9635	-0.071
848.1284	0.0261
848.2932	0.1054
848.458	-0.0271
848.6228	-0.039
848.7876	0.0531
848.9524	0.0522
849.1172	-0.0715
849.2819	0.0079
849.4466	-0.0903
849.6113	-0.05
849.7759	-0.0499
849.9406	-0.0431
850.1052	-0.0314
850.2698	0.0493
850.4344	-0.0778
850.599	-0.0626
850.7635	0.032
850.928	0.0315
851.0925	-0.0615
851.257	0.0028
851.4215	0.0404
851.5859	-0.016
851.7503	0.0462
851.9147	-0.0354
852.0791	-0.0483
852.2434	-0.0457
852.4078	0.006
852.5721	0.1568
852.7364	-0.0685
852.9007	-0.1591
853.0649	0.0338
853.2291	0.0326
853.3934	-0.0212
853.5575	0.0412
853.7217	-0.0227
853.8859	-0.146
854.05	-0.1587
854.2141	-0.1084
854.3782	-0.0715
854.5423	-0.1827
854.7063	0.1017
854.8703	-0.0381
855.0343	-0.0653
855.1983	-0.1931
855.3623	0.158
855.5262	0.0242
855.6901	-0.0947
855.854	0.0268
856.0179	0.0288
856.1818	0.0545
856.3456	-0.0979
856.5094	-0.0522
856.6732	-0.2137
856.837	0.0609
857.0008	-0.0414
857.1645	-0.1174
857.3282	-0.0439
857.4919	0.0456
857.6556	0.0024
857.8192	0.0327
857.9828	-0.0286
858.1465	0.0937
858.31	-0.0869
858.4736	-0.1541
858.6372	-0.3814
858.8007	-0.2453
858.9642	0.1058
859.1277	0.0601
859.2911	0.0898
859.4546	0.0533
859.618	-0.3876
859.7814	-0.0146
859.9448	-0.0659
860.1081	0.0421
860.2715	0.1191
860.4348	-0.1497
860.5981	-0.002
860.7614	-0.0166
860.9246	-0.3282
861.0879	-0.0927
861.2511	-0.0134
861.4143	-0.2581
861.5774	0.0468
861.7406	-0.1559
861.9037	-0.0359
862.0668	-0.0222
862.2299	-0.3264
862.393	-0.642
862.556	-0.0994
862.7191	-0.0591
862.8821	0.056
863.0451	0.2032
863.208	0.1569
863.371	-0.1284
863.5339	-0.1934
863.6968	0.5915
863.8597	0.3126
864.0225	-0.1251
864.1854	0.2117
864.3482	-0.0392
864.511	0.1862
864.6737	-0.0578
864.8365	-0.1416
864.9992	-0.2783
865.1619	-0.5821
865.3246	-0.0955
865.4873	-0.0069
865.65	-0.3397
865.8126	-0.0334
865.9752	0.1669
866.1378	-0
866.3004	0.1399
866.4629	0.2359
866.6254	-0.4147
866.7879	-0.0226
866.9504	-0.4606
867.1129	-0
867.2753	-0.0732
867.4377	0.1502
867.6001	-0.1849
867.7625	-0.0427
867.9249	-0.4417
868.0872	-0.1722
868.2495	-0.0084
868.4118	-0.0633
868.5741	-0.6273
868.7363	-0.2954
868.8986	-0.0098
869.0608	-0.2593
869.223	0.3891
869.3851	-0
869.5473	-0
869.7094	0.0991
869.8715	-0.2283
870.0336	-0
870.1957	-0.5561
870.3577	-1.2339
870.5197	0.5366
870.6817	-0.4346
870.8437	0.1552
871.0057	-0
871.1676	-0.6703
871.3295	0.4408
871.4914	-0
871.6533	-0.4904
871.8151	-0.216
871.977	-0
872.1388	-0
872.3006	-0.2793
872.4623	-0
872.6241	0.7753
872.7858	0.5259
872.9475	0.0961
873.1092	0.1211
873.2709	0.1828
873.4325	-0.103
873.5941	0.3867
873.7557	0.1854
873.9173	-0
874.0789	1.282
874.2404	-0.7939
874.4019	-0.1546
874.5634	-0.2488
874.7249	-0.2588
874.8863	-0.2035
875.0478	0.6593
875.2092	-0
875.3706	-0.0674
875.5319	-0.7429
875.6933	0.1997
875.8546	-0.4852
876.0159	0.2797
876.1772	-0
876.3385	-0
876.4997	0.4616
876.6609	-0.3246
876.8221	-0
876.9833	0.2037
877.1445	-0
877.3056	0.301
877.4667	-0.4862
877.6278	0.0359
877.7889	-0.4284
877.9499	-0
878.111	-0.2683
878.272	-0
878.433	-0
878.5939	-0
878.7549	0.0728
878.9158	-0.6406
879.0767	-0
879.2376	-0
879.3984	-0.3036
879.5593	-0
879.7201	-0.1707
879.8809	-0.7455
880.0417	-0.0388
880.2024	0.6125
880.3632	-0.764
880.5239	0.2107
880.6846	-0.0639
880.8452	-2.5533
881.0059	-1.2068
881.1665	-0
881.3271	-0
881.4877	-0
881.6483	-0.723
881.8088	-0.4193
881.9693	-0
882.1298	-0
882.2903	-0
