Data from MonoPyChalIsomerACN10uM380nmA_Absorbance_13-38-30-849.txt Node
Date: Fri Jul 05 13:38:30 BST 2024
User: LASERRRRR
Spectrometer: FLMT03099
Trigger mode: 0
Integration Time (sec): 1.000000E-1
Scans to average: 1
Electric dark correction enabled: true
Nonlinearity correction enabled: false
Boxcar width: 0
XAxis mode: Wavelengths
Number of Pixels in Spectrum: 3648
>>>>>Begin Spectral Data<<<<<
179.3399	-0.4619
179.5586	-0.4619
179.7771	-0.4619
179.9957	-0
180.2143	-0
180.4329	-0.2819
180.6514	0.5559
180.8699	-0
181.0885	-0
181.307	0.2999
181.5255	-1.1244
181.744	-0.8072
181.9625	-0
182.181	-0
182.3994	0.3266
182.6179	-0
182.8363	-0.2956
183.0547	0.0641
183.2732	0.0556
183.4916	0.2425
183.71	0.1007
183.9284	-0.0681
184.1467	-0.1261
184.3651	0.0048
184.5835	-0.022
184.8018	0.4022
185.0201	0.1931
185.2385	0.123
185.4568	1.0024
185.6751	0.442
185.8934	0.2683
186.1117	0.0776
186.3299	0.0037
186.5482	0.1232
186.7664	0.0245
186.9847	0.0431
187.2029	0.2484
187.4211	-0.0393
187.6393	0.3445
187.8575	0.1306
188.0757	0.1547
188.2939	0.0334
188.512	0.4291
188.7302	-0.0058
188.9483	0.1508
189.1665	0.2124
189.3846	0.2989
189.6027	0.109
189.8208	0.1787
190.0389	0.1012
190.257	0.5198
190.475	0.1076
190.6931	0.3782
190.9111	0.3367
191.1292	0.1814
191.3472	0.6338
191.5652	0.2952
191.7832	0.2017
192.0012	0.4297
192.2192	0.3042
192.4371	0.5415
192.6551	0.4642
192.873	0.5055
193.091	0.3484
193.3089	2.2409
193.5268	0.5663
193.7447	0.6432
193.9626	0.3165
194.1805	0.6042
194.3984	0.8665
194.6162	0.7745
194.8341	0.61
195.0519	0.5612
195.2697	0.7523
195.4875	0.7353
195.7054	0.7923
195.9231	0.7128
196.1409	0.7643
196.3587	0.8472
196.5765	0.8231
196.7942	0.7713
197.012	0.8307
197.2297	0.9619
197.4474	0.8608
197.6651	0.6956
197.8828	0.6578
198.1005	0.8598
198.3182	1.087
198.5358	1.0328
198.7535	0.763
198.9711	0.7074
199.1888	0.8767
199.4064	0.9245
199.624	0.9948
199.8416	0.8055
200.0592	0.8908
200.2767	0.8696
200.4943	0.947
200.7119	0.9011
200.9294	0.8542
201.1469	0.8158
201.3645	0.8064
201.582	0.847
201.7995	0.8146
202.017	0.9484
202.2344	0.7079
202.4519	0.8968
202.6694	0.8171
202.8868	0.861
203.1042	1.0139
203.3217	1.0147
203.5391	1.109
203.7565	0.6951
203.9739	0.6674
204.1913	0.7381
204.4086	0.8826
204.626	0.8198
204.8433	0.945
205.0607	0.724
205.278	0.9124
205.4953	0.7845
205.7126	0.8689
205.9299	1.2409
206.1472	0.8773
206.3644	0.9226
206.5817	0.893
206.7989	0.8642
207.0162	0.8093
207.2334	0.9733
207.4506	0.7828
207.6678	0.865
207.885	0.9859
208.1022	0.7752
208.3194	0.8174
208.5365	0.7797
208.7537	0.8195
208.9708	0.6862
209.1879	0.7446
209.405	0.8728
209.6222	0.8979
209.8392	0.7971
210.0563	0.9048
210.2734	0.8148
210.4905	0.7759
210.7075	0.7958
210.9245	0.8059
211.1416	0.9738
211.3586	0.8391
211.5756	0.7261
211.7926	0.7681
212.0096	0.7978
212.2265	0.7732
212.4435	0.7706
212.6604	0.8503
212.8774	0.8089
213.0943	0.8218
213.3112	0.7249
213.5281	0.7949
213.745	0.7752
213.9619	0.737
214.1788	0.7253
214.3956	0.7179
214.6125	0.6703
214.8293	0.6316
215.0461	0.7086
215.2629	0.6886
215.4798	0.6976
215.6965	0.6097
215.9133	0.6602
216.1301	0.6105
216.3469	0.6466
216.5636	0.6449
216.7803	0.6453
216.9971	0.6806
217.2138	0.5435
217.4305	0.622
217.6472	0.5928
217.8639	0.6103
218.0805	0.6101
218.2972	0.5968
218.5138	0.596
218.7305	0.5893
218.9471	0.5828
219.1637	0.5933
219.3803	0.5514
219.5969	0.5299
219.8135	0.5054
220.0301	0.5859
220.2466	0.5993
220.4632	0.5607
220.6797	0.5285
220.8962	0.5057
221.1127	0.5342
221.3292	0.5089
221.5457	0.4807
221.7622	0.5402
221.9787	0.5249
222.1951	0.5155
222.4116	0.5591
222.628	0.4944
222.8444	0.5227
223.0608	0.5544
223.2772	0.517
223.4936	0.5272
223.71	0.496
223.9264	0.5405
224.1427	0.5042
224.3591	0.5076
224.5754	0.5484
224.7917	0.5175
225.008	0.5007
225.2243	0.5308
225.4406	0.5637
225.6569	0.5369
225.8732	0.5314
226.0894	0.5183
226.3057	0.5621
226.5219	0.5215
226.7381	0.525
226.9543	0.533
227.1705	0.5445
227.3867	0.573
227.6029	0.5644
227.8191	0.5477
228.0352	0.5531
228.2513	0.5697
228.4675	0.5835
228.6836	0.5415
228.8997	0.5247
229.1158	0.5885
229.3319	0.5505
229.548	0.5625
229.764	0.5558
229.9801	0.5508
230.1961	0.5736
230.4121	0.5552
230.6282	0.5625
230.8442	0.5323
231.0602	0.5591
231.2761	0.5733
231.4921	0.564
231.7081	0.5513
231.924	0.5597
232.14	0.5669
232.3559	0.5583
232.5718	0.5574
232.7877	0.5547
233.0036	0.5581
233.2195	0.5882
233.4353	0.5461
233.6512	0.5651
233.867	0.5504
234.0829	0.5705
234.2987	0.5502
234.5145	0.5516
234.7303	0.5438
234.9461	0.5672
235.1619	0.5497
235.3776	0.5589
235.5934	0.5502
235.8091	0.5385
236.0249	0.5381
236.2406	0.5542
236.4563	0.5376
236.672	0.561
236.8877	0.5554
237.1034	0.5581
237.319	0.5325
237.5347	0.555
237.7503	0.5389
237.966	0.5223
238.1816	0.538
238.3972	0.5317
238.6128	0.5489
238.8284	0.5329
239.0439	0.5307
239.2595	0.5255
239.475	0.5247
239.6906	0.5469
239.9061	0.5172
240.1216	0.5002
240.3371	0.5357
240.5526	0.4839
240.7681	0.51
240.9836	0.4983
241.199	0.5154
241.4145	0.5026
241.6299	0.4948
241.8453	0.481
242.0607	0.4999
242.2761	0.4639
242.4915	0.479
242.7069	0.4634
242.9223	0.453
243.1376	0.4394
243.353	0.4378
243.5683	0.4387
243.7836	0.4229
243.9989	0.4136
244.2142	0.4102
244.4295	0.3999
244.6448	0.3861
244.86	0.3721
245.0753	0.3736
245.2905	0.3522
245.5057	0.3523
245.721	0.3562
245.9362	0.3413
246.1514	0.3334
246.3665	0.3326
246.5817	0.3418
246.7969	0.3156
247.012	0.3022
247.2271	0.3014
247.4423	0.3137
247.6574	0.3005
247.8725	0.2908
248.0876	0.2731
248.3026	0.2707
248.5177	0.2889
248.7328	0.2684
248.9478	0.2683
249.1628	0.2597
249.3779	0.2691
249.5929	0.2486
249.8079	0.2607
250.0228	0.2455
250.2378	0.2449
250.4528	0.2498
250.6677	0.2244
250.8827	0.2335
251.0976	0.2343
251.3125	0.2323
251.5274	0.2168
251.7423	0.2347
251.9572	0.2171
252.172	0.2345
252.3869	0.2225
252.6017	0.2077
252.8166	0.2063
253.0314	0.1988
253.2462	0.2178
253.461	0.2054
253.6758	0.1986
253.8906	0.2139
254.1053	0.1907
254.3201	0.1943
254.5348	0.2069
254.7496	0.2077
254.9643	0.1938
255.179	0.1992
255.3937	0.201
255.6083	0.2062
255.823	0.1977
256.0377	0.1913
256.2523	0.2059
256.467	0.1802
256.6816	0.2027
256.8962	0.1901
257.1108	0.1849
257.3254	0.1941
257.54	0.1891
257.7545	0.195
257.9691	0.1961
258.1836	0.1833
258.3981	0.1926
258.6127	0.203
258.8272	0.1875
259.0417	0.1986
259.2561	0.1876
259.4706	0.1844
259.6851	0.1902
259.8995	0.1841
260.114	0.1941
260.3284	0.1892
260.5428	0.1776
260.7572	0.1961
260.9716	0.1961
261.186	0.1822
261.4003	0.1822
261.6147	0.1825
261.829	0.1915
262.0433	0.1831
262.2577	0.182
262.472	0.1835
262.6863	0.186
262.9005	0.1895
263.1148	0.1728
263.3291	0.1711
263.5433	0.1803
263.7576	0.1934
263.9718	0.1893
264.186	0.1928
264.4002	0.1862
264.6144	0.1747
264.8286	0.1911
265.0427	0.179
265.2569	0.1845
265.471	0.1726
265.6851	0.1774
265.8993	0.1888
266.1134	0.1773
266.3275	0.177
266.5415	0.1741
266.7556	0.1796
266.9697	0.1831
267.1837	0.1777
267.3978	0.1877
267.6118	0.1794
267.8258	0.2057
268.0398	0.1745
268.2538	0.1736
268.4677	0.1851
268.6817	0.1869
268.8957	0.1859
269.1096	0.186
269.3235	0.1804
269.5374	0.1785
269.7514	0.1717
269.9652	0.1607
270.1791	0.1832
270.393	0.1663
270.6068	0.1739
270.8207	0.1697
271.0345	0.165
271.2483	0.1751
271.4622	0.1787
271.676	0.1689
271.8897	0.1702
272.1035	0.1628
272.3173	0.1695
272.531	0.1671
272.7448	0.1644
272.9585	0.166
273.1722	0.1727
273.3859	0.1731
273.5996	0.1683
273.8133	0.1795
274.0269	0.1734
274.2406	0.1622
274.4542	0.1555
274.6679	0.1565
274.8815	0.1627
275.0951	0.1698
275.3087	0.1686
275.5223	0.1801
275.7358	0.1651
275.9494	0.1835
276.1629	0.1589
276.3765	0.1552
276.59	0.1783
276.8035	0.1679
277.017	0.1653
277.2305	0.1685
277.444	0.1831
277.6574	0.1594
277.8709	0.1697
278.0843	0.1609
278.2978	0.1681
278.5112	0.1653
278.7246	0.1654
278.938	0.1646
279.1513	0.1709
279.3647	0.1726
279.5781	0.1565
279.7914	0.1735
280.0047	0.1848
280.2181	0.169
280.4314	0.1767
280.6447	0.1787
280.8579	0.1855
281.0712	0.1855
281.2845	0.1867
281.4977	0.173
281.711	0.1654
281.9242	0.1757
282.1374	0.1745
282.3506	0.1712
282.5638	0.1804
282.7769	0.1736
282.9901	0.1731
283.2033	0.1963
283.4164	0.1917
283.6295	0.1703
283.8426	0.1719
284.0557	0.1849
284.2688	0.1856
284.4819	0.1726
284.695	0.1803
284.908	0.1838
285.1211	0.1692
285.3341	0.1714
285.5471	0.1847
285.7601	0.182
285.9731	0.1798
286.1861	0.1766
286.3991	0.1744
286.612	0.1837
286.825	0.1746
287.0379	0.1741
287.2508	0.1779
287.4637	0.1776
287.6766	0.1664
287.8895	0.1764
288.1024	0.1958
288.3152	0.1902
288.5281	0.1691
288.7409	0.1683
288.9538	0.1779
289.1666	0.179
289.3794	0.1703
289.5922	0.1713
289.8049	0.1779
290.0177	0.1778
290.2304	0.1766
290.4432	0.1815
290.6559	0.1823
290.8686	0.1765
291.0813	0.1814
291.294	0.1746
291.5067	0.1822
291.7194	0.1719
291.932	0.1996
292.1447	0.184
292.3573	0.1763
292.5699	0.1916
292.7825	0.1827
292.9951	0.1803
293.2077	0.1719
293.4203	0.1664
293.6328	0.1823
293.8454	0.1806
294.0579	0.17
294.2704	0.176
294.4829	0.1687
294.6954	0.1791
294.9079	0.1759
295.1204	0.1762
295.3328	0.1739
295.5453	0.1766
295.7577	0.1765
295.9701	0.1738
296.1825	0.1602
296.3949	0.1646
296.6073	0.1675
296.8197	0.1718
297.0321	0.1862
297.2444	0.1574
297.4567	0.1753
297.6691	0.1778
297.8814	0.1693
298.0937	0.1725
298.306	0.185
298.5182	0.166
298.7305	0.1761
298.9428	0.1754
299.155	0.1821
299.3672	0.1755
299.5794	0.172
299.7916	0.17
300.0038	0.1724
300.216	0.1735
300.4282	0.1646
300.6403	0.1632
300.8525	0.1735
301.0646	0.1701
301.2767	0.1736
301.4888	0.1749
301.7009	0.1654
301.913	0.1724
302.125	0.1724
302.3371	0.1629
302.5491	0.1622
302.7612	0.1767
302.9732	0.1729
303.1852	0.1777
303.3972	0.1713
303.6092	0.1674
303.8211	0.166
304.0331	0.156
304.245	0.1715
304.457	0.1576
304.6689	0.1641
304.8808	0.1639
305.0927	0.1564
305.3046	0.1575
305.5164	0.1734
305.7283	0.1564
305.9401	0.1526
306.152	0.1591
306.3638	0.1647
306.5756	0.1516
306.7874	0.1544
306.9992	0.1477
307.2109	0.1462
307.4227	0.1367
307.6344	0.157
307.8462	0.1333
308.0579	0.1477
308.2696	0.1391
308.4813	0.136
308.693	0.1398
308.9046	0.15
309.1163	0.1303
309.328	0.1284
309.5396	0.1251
309.7512	0.1286
309.9628	0.1231
310.1744	0.1222
310.386	0.1184
310.5976	0.1137
310.8091	0.1245
311.0207	0.1213
311.2322	0.1274
311.4437	0.1152
311.6552	0.1125
311.8667	0.1204
312.0782	0.1038
312.2897	0.1122
312.5012	0.1236
312.7126	0.1036
312.924	0.1063
313.1355	0.1222
313.3469	0.1094
313.5583	0.1122
313.7696	0.1085
313.981	0.1137
314.1924	0.1061
314.4037	0.1147
314.6151	0.1218
314.8264	0.1009
315.0377	0.1036
315.249	0.1095
315.4603	0.1143
315.6716	0.1067
315.8828	0.1033
316.0941	0.0963
316.3053	0.1033
316.5165	0.0973
316.7277	0.0949
316.9389	0.112
317.1501	0.0904
317.3613	0.0994
317.5724	0.0802
317.7836	0.1033
317.9947	0.101
318.2058	0.0994
318.417	0.0964
318.6281	0.094
318.8391	0.0991
319.0502	0.0997
319.2613	0.103
319.4723	0.1055
319.6834	0.1099
319.8944	0.0934
320.1054	0.1085
320.3164	0.1153
320.5274	0.1005
320.7383	0.1073
320.9493	0.1003
321.1602	0.1118
321.3712	0.0819
321.5821	0.1098
321.793	0.1091
322.0039	0.107
322.2148	0.1036
322.4257	0.1097
322.6365	0.1138
322.8474	0.1097
323.0582	0.1033
323.269	0.0993
323.4798	0.1205
323.6906	0.1018
323.9014	0.1169
324.1122	0.105
324.3229	0.0941
324.5337	0.0999
324.7444	0.0974
324.9551	0.122
325.1658	0.1083
325.3765	0.1054
325.5872	0.103
325.7979	0.1031
326.0085	0.1052
326.2192	0.1212
326.4298	0.1046
326.6404	0.0971
326.851	0.0994
327.0616	0.0944
327.2722	0.1183
327.4828	0.1054
327.6933	0.0968
327.9039	0.1054
328.1144	0.1222
328.3249	0.1016
328.5354	0.1056
328.7459	0.1098
328.9564	0.0938
329.1669	0.1203
329.3773	0.1036
329.5878	0.1121
329.7982	0.0959
330.0086	0.0977
330.219	0.1118
330.4294	0.1035
330.6398	0.103
330.8502	0.0957
331.0605	0.1117
331.2708	0.1085
331.4812	0.1214
331.6915	0.1085
331.9018	0.1091
332.1121	0.1124
332.3224	0.1115
332.5326	0.1124
332.7429	0.1115
332.9531	0.1149
333.1633	0.1086
333.3735	0.1108
333.5837	0.0993
333.7939	0.1056
334.0041	0.114
334.2143	0.1182
334.4244	0.1085
334.6346	0.1038
334.8447	0.109
335.0548	0.1056
335.2649	0.1004
335.475	0.135
335.685	0.1094
335.8951	0.1219
336.1051	0.0992
336.3152	0.1148
336.5252	0.1191
336.7352	0.1245
336.9452	0.1127
337.1552	0.1266
337.3652	0.0997
337.5751	0.1088
337.7851	0.1183
337.995	0.1065
338.2049	0.11
338.4148	0.1115
338.6247	0.1127
338.8346	0.1177
339.0445	0.1118
339.2543	0.1167
339.4642	0.1136
339.674	0.1089
339.8838	0.1062
340.0936	0.1131
340.3034	0.1274
340.5132	0.1108
340.7229	0.1121
340.9327	0.1152
341.1424	0.1194
341.3522	0.1293
341.5619	0.1199
341.7716	0.1117
341.9813	0.1261
342.1909	0.1155
342.4006	0.1275
342.6102	0.1214
342.8199	0.1288
343.0295	0.1333
343.2391	0.1225
343.4487	0.132
343.6583	0.1242
343.8679	0.1222
344.0774	0.1189
344.287	0.1303
344.4965	0.1296
344.706	0.136
344.9155	0.133
345.125	0.133
345.3345	0.1297
345.544	0.1214
345.7534	0.1266
345.9629	0.1159
346.1723	0.1286
346.3817	0.1321
346.5911	0.1308
346.8005	0.1441
347.0099	0.1193
347.2193	0.142
347.4286	0.1213
347.638	0.1269
347.8473	0.1335
348.0566	0.1157
348.2659	0.1296
348.4752	0.1297
348.6845	0.1255
348.8937	0.1351
349.103	0.1385
349.3122	0.1331
349.5214	0.1411
349.7306	0.1404
349.9398	0.1463
350.149	0.1369
350.3582	0.1364
350.5674	0.1497
350.7765	0.1389
350.9856	0.1336
351.1948	0.144
351.4039	0.1343
351.613	0.131
351.822	0.1506
352.0311	0.1581
352.2402	0.1438
352.4492	0.1527
352.6582	0.1538
352.8672	0.1428
353.0762	0.158
353.2852	0.1437
353.4942	0.1362
353.7032	0.1487
353.9121	0.1653
354.1211	0.1539
354.33	0.1633
354.5389	0.1568
354.7478	0.144
354.9567	0.1495
355.1655	0.1383
355.3744	0.1633
355.5833	0.1495
355.7921	0.171
356.0009	0.1466
356.2097	0.1828
356.4185	0.1656
356.6273	0.1622
356.8361	0.162
357.0448	0.1528
357.2536	0.1538
357.4623	0.1708
357.671	0.1533
357.8797	0.1559
358.0884	0.1698
358.2971	0.1601
358.5057	0.1781
358.7144	0.1618
358.923	0.1632
359.1316	0.1698
359.3402	0.1608
359.5488	0.1674
359.7574	0.1746
359.966	0.1741
360.1746	0.1648
360.3831	0.1855
360.5916	0.1653
360.8002	0.171
361.0087	0.1825
361.2172	0.1652
361.4256	0.1731
361.6341	0.1775
361.8426	0.1764
362.051	0.1813
362.2594	0.1782
362.4678	0.1836
362.6762	0.2104
362.8846	0.1848
363.093	0.1699
363.3014	0.1834
363.5097	0.17
363.718	0.1749
363.9264	0.206
364.1347	0.1807
364.343	0.1911
364.5513	0.1918
364.7595	0.2057
364.9678	0.2021
365.176	0.1924
365.3842	0.1887
365.5925	0.2051
365.8007	0.1907
366.0089	0.1883
366.217	0.1882
366.4252	0.196
366.6333	0.2009
366.8415	0.1997
367.0496	0.1876
367.2577	0.2101
367.4658	0.2056
367.6739	0.2064
367.882	0.211
368.09	0.2073
368.2981	0.2095
368.5061	0.202
368.7141	0.2119
368.9221	0.2279
369.1301	0.1966
369.3381	0.2057
369.5461	0.2153
369.754	0.2161
369.962	0.2117
370.1699	0.2308
370.3778	0.229
370.5857	0.2014
370.7936	0.2059
371.0015	0.206
371.2093	0.2261
371.4172	0.2269
371.625	0.2038
371.8328	0.2168
372.0406	0.217
372.2484	0.2037
372.4562	0.2129
372.664	0.2064
372.8717	0.2304
373.0795	0.1897
373.2872	0.2298
373.4949	0.2184
373.7026	0.2359
373.9103	0.2319
374.118	0.2338
374.3256	0.2224
374.5333	0.226
374.7409	0.2339
374.9485	0.2428
375.1561	0.2344
375.3637	0.2271
375.5713	0.2211
375.7789	0.2405
375.9864	0.2377
376.194	0.238
376.4015	0.2478
376.609	0.236
376.8165	0.2315
377.024	0.2283
377.2315	0.2233
377.4389	0.2397
377.6464	0.2442
377.8538	0.2393
378.0612	0.223
378.2686	0.2471
378.476	0.2503
378.6834	0.2312
378.8908	0.2407
379.0981	0.2461
379.3055	0.2491
379.5128	0.2341
379.7201	0.2389
379.9274	0.2224
380.1347	0.2423
380.342	0.2514
380.5492	0.2522
380.7565	0.2439
380.9637	0.2646
381.1709	0.2484
381.3781	0.2329
381.5853	0.2646
381.7925	0.2551
381.9997	0.254
382.2068	0.2704
382.4139	0.247
382.6211	0.2334
382.8282	0.2434
383.0353	0.2488
383.2424	0.244
383.4494	0.2524
383.6565	0.2599
383.8635	0.2344
384.0706	0.2631
384.2776	0.2658
384.4846	0.2428
384.6916	0.2446
384.8986	0.2448
385.1055	0.2613
385.3125	0.2506
385.5194	0.2469
385.7263	0.2639
385.9333	0.2453
386.1402	0.2445
386.347	0.2411
386.5539	0.2559
386.7608	0.2638
386.9676	0.2328
387.1744	0.2539
387.3813	0.2318
387.5881	0.2336
387.7948	0.2247
388.0016	0.2602
388.2084	0.2517
388.4151	0.2317
388.6219	0.258
388.8286	0.2536
389.0353	0.2869
389.242	0.2493
389.4487	0.2486
389.6553	0.2335
389.862	0.2365
390.0686	0.2175
390.2753	0.2508
390.4819	0.2483
390.6885	0.2229
390.8951	0.2396
391.1016	0.2326
391.3082	0.2415
391.5147	0.2378
391.7213	0.2255
391.9278	0.214
392.1343	0.2367
392.3408	0.2365
392.5473	0.2269
392.7537	0.2202
392.9602	0.223
393.1666	0.235
393.373	0.2183
393.5794	0.2378
393.7858	0.2142
393.9922	0.1994
394.1986	0.2306
394.4049	0.2289
394.6113	0.2341
394.8176	0.2307
395.0239	0.222
395.2302	0.2115
395.4365	0.2194
395.6428	0.219
395.8491	0.2045
396.0553	0.2154
396.2615	0.2171
396.4678	0.217
396.674	0.2004
396.8802	0.2226
397.0863	0.2298
397.2925	0.1936
397.4987	0.1981
397.7048	0.1946
397.9109	0.2218
398.117	0.201
398.3231	0.1976
398.5292	0.2278
398.7353	0.2211
398.9413	0.2092
399.1474	0.2069
399.3534	0.222
399.5594	0.1957
399.7654	0.2173
399.9714	0.2299
400.1774	0.2149
400.3833	0.1966
400.5893	0.2159
400.7952	0.2149
401.0011	0.1912
401.207	0.2309
401.4129	0.2146
401.6188	0.2031
401.8247	0.199
402.0305	0.207
402.2364	0.2044
402.4422	0.2181
402.648	0.22
402.8538	0.2154
403.0596	0.2177
403.2654	0.2178
403.4711	0.2001
403.6768	0.2207
403.8826	0.2179
404.0883	0.2003
404.294	0.2062
404.4997	0.219
404.7054	0.2344
404.911	0.1903
405.1167	0.2139
405.3223	0.2198
405.5279	0.2126
405.7335	0.2289
405.9391	0.222
406.1447	0.2064
406.3502	0.2062
406.5558	0.2052
406.7613	0.2175
406.9668	0.2112
407.1724	0.1928
407.3778	0.2077
407.5833	0.2068
407.7888	0.2148
407.9942	0.2143
408.1997	0.2097
408.4051	0.2165
408.6105	0.2156
408.8159	0.2184
409.0213	0.2028
409.2267	0.2208
409.432	0.2006
409.6374	0.2196
409.8427	0.1995
410.048	0.2096
410.2533	0.2111
410.4586	0.2082
410.6639	0.1868
410.8691	0.192
411.0744	0.2009
411.2796	0.1916
411.4848	0.2073
411.69	0.201
411.8952	0.2421
412.1004	0.2046
412.3056	0.2177
412.5107	0.1977
412.7158	0.2185
412.921	0.2027
413.1261	0.2169
413.3312	0.1967
413.5362	0.2018
413.7413	0.2051
413.9464	0.1884
414.1514	0.2005
414.3564	0.1887
414.5614	0.1979
414.7664	0.1978
414.9714	0.2094
415.1764	0.203
415.3813	0.2194
415.5863	0.2044
415.7912	0.2001
415.9961	0.1965
416.201	0.2051
416.4059	0.201
416.6108	0.1948
416.8156	0.1948
417.0205	0.2053
417.2253	0.184
417.4301	0.1932
417.6349	0.1948
417.8397	0.1951
418.0445	0.2147
418.2492	0.2067
418.454	0.2085
418.6587	0.2046
418.8634	0.1911
419.0681	0.1782
419.2728	0.1819
419.4775	0.2033
419.6822	0.1824
419.8868	0.1706
420.0915	0.1991
420.2961	0.1944
420.5007	0.1791
420.7053	0.1869
420.9099	0.2014
421.1144	0.1832
421.319	0.1787
421.5235	0.1824
421.728	0.1828
421.9325	0.182
422.137	0.198
422.3415	0.1847
422.546	0.1672
422.7504	0.1747
422.9549	0.1807
423.1593	0.1801
423.3637	0.2003
423.5681	0.1686
423.7725	0.1713
423.9769	0.1767
424.1812	0.1724
424.3856	0.1728
424.5899	0.1699
424.7942	0.1788
424.9985	0.1772
425.2028	0.1688
425.4071	0.1846
425.6113	0.1536
425.8156	0.1797
426.0198	0.1794
426.224	0.1564
426.4282	0.1707
426.6324	0.1605
426.8366	0.1628
427.0407	0.1701
427.2449	0.1653
427.449	0.166
427.6531	0.1394
427.8572	0.1509
428.0613	0.1526
428.2654	0.1673
428.4694	0.1553
428.6735	0.1544
428.8775	0.1645
429.0815	0.1628
429.2855	0.1449
429.4895	0.15
429.6935	0.1464
429.8975	0.156
430.1014	0.1363
430.3053	0.1226
430.5093	0.1412
430.7132	0.1303
430.9171	0.1351
431.1209	0.1413
431.3248	0.1318
431.5286	0.1479
431.7325	0.1336
431.9363	0.1295
432.1401	0.1406
432.3439	0.1176
432.5477	0.098
432.7514	0.1185
432.9552	0.1286
433.1589	0.1097
433.3627	0.1255
433.5664	0.1179
433.7701	0.1124
433.9737	0.1078
434.1774	0.0921
434.3811	0.1098
434.5847	0.116
434.7883	0.0966
434.9919	0.1078
435.1955	0.1009
435.3991	0.1049
435.6027	0.1075
435.8062	0.1102
436.0098	0.094
436.2133	0.1086
436.4168	0.0932
436.6203	0.0935
436.8238	0.1179
437.0272	0.0993
437.2307	0.0948
437.4341	0.0971
437.6375	0.097
437.841	0.0876
438.0443	0.0981
438.2477	0.0906
438.4511	0.0766
438.6545	0.0822
438.8578	0.0949
439.0611	0.0903
439.2644	0.0902
439.4677	0.0776
439.671	0.0754
439.8743	0.0815
440.0775	0.0835
440.2808	0.0648
440.484	0.0526
440.6872	0.0643
440.8904	0.0652
441.0936	0.078
441.2967	0.0683
441.4999	0.0742
441.703	0.0699
441.9062	0.0575
442.1093	0.0678
442.3124	0.0619
442.5155	0.0602
442.7185	0.0579
442.9216	0.0385
443.1246	0.0734
443.3276	0.0526
443.5307	0.0567
443.7337	0.0701
443.9366	0.0538
444.1396	0.05
444.3426	0.0509
444.5455	0.0487
444.7484	0.0528
444.9513	0.0548
445.1542	0.0571
445.3571	0.0534
445.56	0.055
445.7628	0.0343
445.9657	0.0437
446.1685	0.058
446.3713	0.0452
446.5741	0.0527
446.7769	0.0313
446.9797	0.0418
447.1824	0.0487
447.3852	0.0224
447.5879	0.0412
447.7906	0.0481
447.9933	0.0317
448.196	0.0305
448.3986	0.031
448.6013	0.0264
448.8039	0.0093
449.0066	0.0262
449.2092	0.0411
449.4118	0.0462
449.6143	0.0323
449.8169	0.0281
450.0195	0.0243
450.222	0.0087
450.4245	0.0228
450.627	0.0341
450.8295	0.0318
451.032	0.0187
451.2345	0.032
451.4369	0.0238
451.6394	0.0099
451.8418	0.0038
452.0442	0.0187
452.2466	0.0431
452.449	0.0178
452.6513	0.0214
452.8537	0.0067
453.056	0.0047
453.2583	0.0252
453.4607	0.0077
453.663	0.0108
453.8652	0.0336
454.0675	0.0064
454.2697	0.0202
454.472	0.0139
454.6742	0.0159
454.8764	0.0094
455.0786	0.0116
455.2808	0.0139
455.4829	0.0186
455.6851	0.0293
455.8872	0.0191
456.0893	0.0276
456.2915	-0.004
456.4935	0.0144
456.6956	0.0147
456.8977	0.0161
457.0997	0.0144
457.3018	0.0015
457.5038	0.0029
457.7058	0.0039
457.9078	0.0144
458.1098	0.0249
458.3117	0.0148
458.5137	0.0041
458.7156	0.0072
458.9175	-0.0044
459.1194	-0.0079
459.3213	-0.0008
459.5232	-0.0078
459.725	-0.0084
459.9269	-0.0025
460.1287	0.0077
460.3305	0.0056
460.5323	0.0093
460.7341	0.0049
460.9359	0.0133
461.1376	0.0103
461.3394	0.0135
461.5411	0.0081
461.7428	-0.0056
461.9445	0.0126
462.1462	0.011
462.3479	-0.0019
462.5495	0.0124
462.7512	-0.0024
462.9528	0.0071
463.1544	0.0015
463.356	0.0029
463.5576	0.003
463.7592	0.0037
463.9607	0.0083
464.1623	0.0187
464.3638	0.0017
464.5653	-0.016
464.7668	-0.0018
464.9683	0.0044
465.1697	0.0197
465.3712	-0.0082
465.5726	-0.0079
465.7741	0.0022
465.9755	-0.0082
466.1769	-0.0011
466.3782	0.0092
466.5796	-0.0104
466.7809	0.0119
466.9823	0.0092
467.1836	-0.0027
467.3849	0.0033
467.5862	-0.0122
467.7875	0.0033
467.9887	0.0094
468.19	-0.0016
468.3912	0.0095
468.5924	-0.0073
468.7936	-0.0139
468.9948	0.0078
469.196	-0.0013
469.3972	-0.0171
469.5983	0.0086
469.7994	-0.0094
470.0006	0.003
470.2017	-0.0144
470.4027	-0.0055
470.6038	0.0042
470.8049	-0.0225
471.0059	-0.0125
471.2069	-0.0276
471.408	0.0237
471.6089	0.0041
471.8099	0.0062
472.0109	-0.0095
472.2119	-0.0066
472.4128	-0.02
472.6137	-0.0047
472.8146	-0.0177
473.0155	-0.0192
473.2164	-0.0096
473.4173	0.0026
473.6181	0.0066
473.819	-0.0011
474.0198	-0.0184
474.2206	-0.0088
474.4214	0.0049
474.6222	-0.0102
474.8229	-0.0126
475.0237	-0.028
475.2244	-0.0083
475.4251	-0.0027
475.6258	-0.0046
475.8265	0.0009
476.0272	0.0057
476.2278	-0.0104
476.4285	0.0017
476.6291	-0.0123
476.8297	-0.0014
477.0303	-0.0115
477.2309	0.0013
477.4315	-0.0126
477.632	-0.0066
477.8326	-0.0036
478.0331	-0.0126
478.2336	0.0115
478.4341	-0.007
478.6346	-0.021
478.8351	-0.009
479.0355	-0.003
479.236	-0.0174
479.4364	-0.0033
479.6368	-0.0038
479.8372	-0.0115
480.0376	-0.0165
480.2379	-0.0226
480.4383	-0.011
480.6386	0.003
480.8389	0.0004
481.0392	-0.0083
481.2395	-0.0089
481.4398	0.009
481.6401	-0.0126
481.8403	-0.0055
482.0405	0.005
482.2408	-0.0094
482.441	0.0014
482.6411	-0.0101
482.8413	-0.0154
483.0415	-0.0157
483.2416	-0.0035
483.4417	-0.0069
483.6419	-0.0039
483.8419	-0.0011
484.042	-0.0028
484.2421	0.0034
484.4422	-0.0074
484.6422	-0.0049
484.8422	-0.011
485.0422	-0.0058
485.2422	0.0013
485.4422	-0.01
485.6422	-0.0097
485.8421	-0.0069
486.042	-0.0061
486.242	-0.0081
486.4419	-0.0103
486.6417	-0.0153
486.8416	-0.0151
487.0415	-0.0109
487.2413	-0.0068
487.4411	-0.0069
487.641	-0.0123
487.8408	0.0013
488.0405	-0.0189
488.2403	-0.0097
488.4401	-0.0041
488.6398	-0.0032
488.8395	-0.0192
489.0392	-0.0011
489.2389	-0.0081
489.4386	-0.0107
489.6383	-0.0022
489.8379	-0.0039
490.0376	-0.008
490.2372	-0.0161
490.4368	-0.0218
490.6364	-0.0174
490.836	-0.0187
491.0355	-0.0064
491.2351	-0.0081
491.4346	-0.0088
491.6341	-0.0181
491.8336	0.0006
492.0331	-0.0182
492.2326	-0.0174
492.432	-0.0095
492.6315	-0.0111
492.8309	-0.0149
493.0303	-0.0152
493.2297	-0.0063
493.4291	-0.0141
493.6284	-0.0064
493.8278	-0.003
494.0271	0.0067
494.2264	0.0013
494.4257	-0.0158
494.625	-0.0074
494.8243	-0.0222
495.0236	-0.0086
495.2228	-0.0023
495.422	-0.0098
495.6213	-0.002
495.8205	-0.0139
496.0196	-0.0072
496.2188	-0.004
496.418	-0.0045
496.6171	-0.0076
496.8162	-0.0124
497.0153	-0.0058
497.2144	-0.0126
497.4135	-0.0038
497.6126	-0.0221
497.8116	-0.0112
498.0107	-0.0104
498.2097	-0.0238
498.4087	-0.0131
498.6077	-0.0065
498.8067	-0.0054
499.0056	-0.0047
499.2046	-0.0112
499.4035	-0.0208
499.6024	-0.0086
499.8013	-0.0111
500.0002	-0.0146
500.199	-0.0143
500.3979	-0.0183
500.5967	-0.0231
500.7956	-0.0005
500.9944	-0.0066
501.1932	-0.0133
501.3919	-0.0091
501.5907	-0.0166
501.7895	-0.0186
501.9882	-0.0113
502.1869	-0.0046
502.3856	-0.0226
502.5843	-0.0054
502.783	-0.0113
502.9816	-0.0067
503.1803	-0.0167
503.3789	-0.0152
503.5775	-0.0022
503.7761	-0.0188
503.9747	-0.0135
504.1732	-0.0145
504.3718	-0.0194
504.5703	-0.0127
504.7689	-0.0175
504.9674	-0.0134
505.1658	-0.0148
505.3643	-0.016
505.5628	-0.0122
505.7612	-0.0148
505.9597	-0.0031
506.1581	-0.0058
506.3565	-0.001
506.5549	-0.0107
506.7532	-0.0191
506.9516	-0.0169
507.1499	-0.0155
507.3482	-0.0189
507.5465	-0.0187
507.7448	-0.0152
507.9431	-0.0129
508.1414	-0.0074
508.3396	-0.0127
508.5379	-0.0126
508.7361	-0.0166
508.9343	-0.0079
509.1325	-0.0004
509.3306	-0.0077
509.5288	-0.0193
509.7269	-0.019
509.9251	-0.0174
510.1232	-0.0145
510.3213	-0.0021
510.5193	-0.0081
510.7174	-0.0178
510.9154	-0.0139
511.1135	-0.019
511.3115	-0.0133
511.5095	-0.0127
511.7075	-0.0002
511.9055	-0.0127
512.1034	-0.0162
512.3014	-0.0064
512.4993	0.0005
512.6972	-0.0122
512.8951	-0.0217
513.093	-0.006
513.2908	-0.007
513.4887	-0.0093
513.6865	-0.0061
513.8844	-0.0149
514.0822	-0.0136
514.2799	-0.0229
514.4777	-0.0125
514.6755	-0.014
514.8732	-0.0113
515.0709	-0.0089
515.2687	-0.009
515.4664	-0.0053
515.664	-0.0122
515.8617	-0.0111
516.0594	-0.0238
516.257	-0.0038
516.4546	-0.0065
516.6522	0.0058
516.8498	-0.0169
517.0474	-0.0018
517.2449	-0.0045
517.4425	-0.0272
517.64	-0.0145
517.8375	0.0045
518.035	0.0025
518.2325	-0.0094
518.43	-0.0046
518.6274	-0.0096
518.8249	-0.0165
519.0223	-0.0045
519.2197	-0.0066
519.4171	-0.0099
519.6145	-0.0157
519.8118	-0.008
520.0092	-0.0108
520.2065	-0.014
520.4038	-0.0121
520.6011	-0.0065
520.7984	-0.0134
520.9956	-0.0128
521.1929	-0.0123
521.3901	-0.0034
521.5874	-0.0048
521.7846	-0.0105
521.9818	-0.0052
522.1789	-0.0161
522.3761	-0.0126
522.5732	-0.0151
522.7704	-0.0084
522.9675	-0.0069
523.1646	-0.0148
523.3617	-0.0169
523.5587	-0.0062
523.7558	-0.0129
523.9528	-0.0141
524.1498	-0.0097
524.3468	-0.006
524.5438	-0.0171
524.7408	-0.0139
524.9378	-0.0047
525.1347	-0.0042
525.3316	-0.0096
525.5285	-0.0121
525.7254	-0.01
525.9223	-0.0086
526.1192	-0.0107
526.316	-0.0208
526.5129	-0.0087
526.7097	-0.0039
526.9065	-0.0158
527.1033	-0.0219
527.3	-0.0047
527.4968	-0.0134
527.6935	-0.0063
527.8903	-0.0114
528.087	-0.0169
528.2837	-0.0108
528.4804	-0.0062
528.677	-0.009
528.8737	0.0034
529.0703	-0.0032
529.2669	-0.0073
529.4635	-0.017
529.6601	-0.0084
529.8567	-0.0149
530.0532	-0.0169
530.2498	-0.007
530.4463	-0.0117
530.6428	-0.0113
530.8393	-0.0025
531.0358	-0.0078
531.2322	-0.008
531.4287	-0.0035
531.6251	-0.0145
531.8215	0.0035
532.0179	-0.0048
532.2143	-0.0022
532.4107	-0.0038
532.607	-0.0013
532.8034	-0.0001
532.9997	-0.009
533.196	-0.0102
533.3923	-0.0086
533.5886	-0.0055
533.7848	-0.0012
533.9811	-0.0054
534.1773	-0.0052
534.3735	0.0116
534.5697	-0.0074
534.7659	-0.004
534.9621	0.002
535.1582	-0.0113
535.3544	-0.0144
535.5505	-0.015
535.7466	-0.0081
535.9427	-0.0109
536.1387	-0.0093
536.3348	-0.0061
536.5308	-0.0058
536.7269	-0.0121
536.9229	-0.0069
537.1189	-0.0016
537.3148	-0.0068
537.5108	-0.0075
537.7068	-0.0098
537.9027	-0.0126
538.0986	-0.0091
538.2945	-0.0084
538.4904	-0.003
538.6863	-0.0096
538.8821	-0.0059
539.078	-0.0091
539.2738	-0.0074
539.4696	-0.0118
539.6654	-0.0008
539.8611	0.005
540.0569	-0.0031
540.2526	-0.0054
540.4484	-0.0088
540.6441	0.0062
540.8398	-0.0029
541.0355	-0.0031
541.2311	-0.0059
541.4268	-0.0095
541.6224	0.002
541.818	-0.0042
542.0136	-0.0107
542.2092	-0.0083
542.4048	-0.0031
542.6003	-0.0009
542.7959	-0.0103
542.9914	-0.0042
543.1869	-0.0081
543.3824	-0.0027
543.5779	-0.0104
543.7734	-0.0119
543.9688	-0.0151
544.1642	0.0044
544.3596	-0.0076
544.555	-0.0023
544.7504	-0.0039
544.9458	-0.0035
545.1411	-0.0009
545.3365	-0.0104
545.5318	-0.011
545.7271	0.001
545.9224	-0.0107
546.1177	-0.0043
546.3129	-0.0014
546.5081	-0.0053
546.7034	-0.0026
546.8986	-0.0127
547.0938	-0.0063
547.289	-0.0023
547.4841	-0.0044
547.6793	-0.0041
547.8744	-0.0144
548.0695	-0.0017
548.2646	-0.0114
548.4597	-0.0006
548.6548	-0.0042
548.8498	0.0052
549.0448	-0.0045
549.2399	-0.0028
549.4349	0.0039
549.6298	0.0005
549.8248	0.0072
550.0198	-0.0049
550.2147	0.003
550.4096	-0.0086
550.6045	-0.0114
550.7994	-0.0038
550.9943	-0.0044
551.1892	-0.0064
551.384	0.0045
551.5788	-0.0053
551.7737	-0.0016
551.9685	0.0007
552.1632	-0.0027
552.358	-0.0014
552.5528	0.0042
552.7475	-0.006
552.9422	-0.0033
553.1369	0.0008
553.3316	-0.0071
553.5263	-0.0039
553.7209	0.0071
553.9156	-0.0046
554.1102	-0.0077
554.3048	-0.0045
554.4994	0.0129
554.694	-0.0118
554.8885	-0.0012
555.0831	-0.0088
555.2776	-0.0043
555.4721	0.0008
555.6666	-0.0127
555.8611	0.0053
556.0555	-0.0063
556.25	0.0004
556.4444	-0.0104
556.6388	-0.0026
556.8332	-0.0045
557.0276	-0.0031
557.222	-0.0021
557.4163	-0.0047
557.6107	-0.0052
557.805	0.0042
557.9993	-0.0056
558.1936	0.0028
558.3879	0.0058
558.5821	-0.0003
558.7764	-0.0141
558.9706	-0.0068
559.1648	-0.0026
559.359	-0.0057
559.5532	-0.0067
559.7473	0.0063
559.9415	0.0058
560.1356	-0.0093
560.3297	-0.0129
560.5238	-0.0061
560.7179	-0.0121
560.9119	-0.0008
561.106	-0.004
561.3	-0.0101
561.494	0.0026
561.688	-0.0015
561.882	-0.0169
562.076	-0.0097
562.2699	0.0059
562.4639	0.0023
562.6578	-0.0064
562.8517	-0.0009
563.0456	0.0054
563.2395	0.0062
563.4333	-0.0002
563.6272	0.0028
563.821	-0.0111
564.0148	0.005
564.2086	-0.0107
564.4024	-0.0085
564.5961	-0.0024
564.7899	0.0006
564.9836	0.0025
565.1773	-0.008
565.371	0.004
565.5647	-0.0003
565.7584	0.0059
565.952	-0.0034
566.1456	-0.004
566.3393	-0.0028
566.5329	-0.0019
566.7264	-0.0028
566.92	-0.0039
567.1136	0.0064
567.3071	-0.0043
567.5006	0.0028
567.6941	0.0061
567.8876	0.0034
568.0811	-0.0034
568.2745	0.0024
568.468	0.0076
568.6614	0.0032
568.8548	-0.008
569.0482	0.0012
569.2416	-0.0066
569.4349	-0.0013
569.6283	0.007
569.8216	0.0025
570.0149	-0.0015
570.2082	-0.0017
570.4015	0.0054
570.5947	0.004
570.788	0.0027
570.9812	0.0016
571.1744	-0.0062
571.3676	-0.0061
571.5608	-0.0069
571.754	-0.0019
571.9471	0.0049
572.1402	-0.0031
572.3333	0.005
572.5264	-0.001
572.7195	-0.0032
572.9126	-0.0031
573.1057	-0.0039
573.2987	-0.0063
573.4917	0.0064
573.6847	-0.0077
573.8777	0.0083
574.0707	0.0044
574.2636	0.0002
574.4566	-0.0001
574.6495	0
574.8424	-0.0038
575.0353	-0.0039
575.2281	0.0067
575.421	0.0029
575.6138	-0.0033
575.8067	-0.0014
575.9995	-0.0015
576.1923	-0.0019
576.385	0.0006
576.5778	-0
576.7706	-0
576.9633	-0.0017
577.156	0.0034
577.3487	0.0043
577.5414	0.0004
577.734	-0.0076
577.9267	-0.0006
578.1193	-0.0087
578.3119	-0.002
578.5045	-0.0018
578.6971	-0.0004
578.8897	0.002
579.0822	0.0084
579.2747	0.0033
579.4673	-0.0023
579.6598	0.0017
579.8522	-0.0094
580.0447	-0.0013
580.2372	0.0042
580.4296	0.0039
580.622	0.0034
580.8144	0.0001
581.0068	-0.0024
581.1992	-0.0074
581.3915	-0.0095
581.5839	-0.0059
581.7762	-0.0044
581.9685	-0.0002
582.1608	0.0004
582.353	0.0009
582.5453	0.0021
582.7375	0.004
582.9298	-0.003
583.122	-0.0022
583.3142	0.0029
583.5063	0.0015
583.6985	0.0004
583.8906	0.0008
584.0827	-0.0018
584.2749	0.0022
584.4669	-0
584.659	-0.0066
584.8511	0.0007
585.0431	-0.0009
585.2352	-0.0036
585.4272	0.0012
585.6192	0.0029
585.8111	-0.0051
586.0031	0.0016
586.195	0.0025
586.387	0.0034
586.5789	-0.0038
586.7708	0.0011
586.9627	0.0045
587.1545	-0.0039
587.3464	0.003
587.5382	-0
587.73	0.0049
587.9218	0.0057
588.1136	-0.0051
588.3053	0.0011
588.4971	-0.0042
588.6888	-0.0105
588.8805	-0.0029
589.0722	0.0077
589.2639	0.0034
589.4556	0.0014
589.6472	-0.0009
589.8389	-0.0004
590.0305	-0.0094
590.2221	0.0005
590.4137	-0.0098
590.6052	-0.0004
590.7968	-0.0012
590.9883	0.0008
591.1798	-0.0041
591.3713	-0.0027
591.5628	-0.0006
591.7543	0.0036
591.9458	-0.0021
592.1372	0.0094
592.3286	0.0143
592.52	0.0099
592.7114	-0.0036
592.9028	0.0021
593.0941	-0.0006
593.2855	0.0022
593.4768	-0.0054
593.6681	-0.0077
593.8594	-0.0017
594.0506	-0.0006
594.2419	0.0056
594.4331	0.0033
594.6244	0.0021
594.8156	-0.0077
595.0067	0.0036
595.1979	0.0072
595.3891	-0.0008
595.5802	0.0022
595.7713	-0.0016
595.9624	-0.0026
596.1535	0.0085
596.3446	0.0017
596.5357	0.0057
596.7267	0.0066
596.9177	0.0009
597.1087	-0.0042
597.2997	-0.0013
597.4907	0.0097
597.6817	-0.0022
597.8726	0.0053
598.0635	-0.0003
598.2544	-0.0042
598.4453	-0.0044
598.6362	-0.0027
598.827	-0.0022
599.0179	-0.0011
599.2087	0.0025
599.3995	0.002
599.5903	0.0024
599.7811	0.0028
599.9718	-0.0023
600.1626	-0.0044
600.3533	-0.0035
600.544	0.0009
600.7347	-0.0011
600.9254	0.0026
601.116	-0.0071
601.3067	0.0018
601.4973	-0.0045
601.6879	-0.0005
601.8785	-0.0096
602.0691	0.0031
602.2596	0.0017
602.4502	0.0022
602.6407	0.0014
602.8312	0.0016
603.0217	-0.0036
603.2122	-0.0019
603.4027	-0.0014
603.5931	0.0016
603.7835	-0.0042
603.9739	-0.0045
604.1643	-0.0061
604.3547	-0.0025
604.5451	0.0027
604.7354	0.001
604.9257	-0.0001
605.116	-0.0039
605.3063	0.0028
605.4966	0.0054
605.6869	0.0021
605.8771	0.0071
606.0673	0.0066
606.2575	0.0054
606.4477	0.0099
606.6379	-0.0007
606.8281	0.0046
607.0182	-0.0026
607.2083	0.0134
607.3985	0.0059
607.5885	-0.0041
607.7786	0.0056
607.9687	-0.0034
608.1587	0.0034
608.3488	0.0026
608.5388	-0.0004
608.7288	-0.0033
608.9187	-0.0028
609.1087	0.002
609.2986	-0.005
609.4886	0.0024
609.6785	0.0042
609.8684	0.0061
610.0582	-0.0001
610.2481	0.0026
610.4379	-0.001
610.6278	-0.0016
610.8176	0.0027
611.0074	-0.0007
611.1971	0.0001
611.3869	-0.0049
611.5766	-0.007
611.7664	0.0054
611.9561	0.0104
612.1458	-0.0011
612.3354	-0.0055
612.5251	0.0025
612.7147	0.0056
612.9044	0.0101
613.094	-0.0052
613.2836	0.0047
613.4731	-0.0007
613.6627	-0.0019
613.8522	0.0044
614.0417	0.0052
614.2313	-0.004
614.4207	-0.009
614.6102	-0.0014
614.7997	-0.0065
614.9891	-0.0004
615.1785	-0.0008
615.3679	-0.0026
615.5573	0.0034
615.7467	0.0027
615.9361	-0.007
616.1254	-0.0025
616.3147	0.0059
616.504	0.0077
616.6933	-0.0001
616.8826	0.0043
617.0718	0.0002
617.2611	0.0048
617.4503	-0.0009
617.6395	-0.007
617.8287	0.0076
618.0179	0.003
618.207	0.0102
618.3961	0.0074
618.5853	0.0016
618.7744	0.0085
618.9634	0.005
619.1525	0.005
619.3416	0.003
619.5306	0.0004
619.7196	0.0027
619.9086	0.0029
620.0976	0.0058
620.2866	0.0018
620.4755	0.0051
620.6645	0.0012
620.8534	0.0086
621.0423	0.0005
621.2312	0.008
621.42	-0.0006
621.6089	-0.0033
621.7977	0.0109
621.9865	-0.0035
622.1753	-0.0049
622.3641	-0.0025
622.5529	0.0089
622.7416	0.004
622.9303	-0.0026
623.1191	0.0055
623.3078	-0.0014
623.4964	0.0054
623.6851	0.0025
623.8737	0.0028
624.0624	0.0001
624.251	0.0016
624.4396	0.0077
624.6282	0.0015
624.8167	0.0006
625.0053	-0.0008
625.1938	0.0062
625.3823	0.0017
625.5708	0.0024
625.7593	-0.0017
625.9477	-0.0039
626.1362	-0.0062
626.3246	-0.0022
626.513	0.0089
626.7014	0.0096
626.8898	-0.0052
627.0781	0.0025
627.2665	0.0008
627.4548	0.0008
627.6431	-0.0003
627.8314	0.0011
628.0197	0.0096
628.2079	-0.0068
628.3962	0.0003
628.5844	0.0023
628.7726	0.0025
628.9608	0.0032
629.1489	0.0077
629.3371	0.0054
629.5252	0.0049
629.7134	0.0068
629.9015	0.0002
630.0895	0.0042
630.2776	0.0064
630.4657	-0.0003
630.6537	0.0002
630.8417	-0.0011
631.0297	0.0011
631.2177	0.0024
631.4057	-0.0106
631.5936	-0.0012
631.7815	0.0004
631.9695	-0.0017
632.1574	0.0078
632.3452	0.0211
632.5331	0.0063
632.7209	0.0072
632.9088	0.0073
633.0966	0.0118
633.2844	0.0024
633.4722	-0.0026
633.6599	0.0031
633.8477	0.0005
634.0354	0.0009
634.2231	-0.0024
634.4108	-0.0039
634.5985	-0.0039
634.7861	-0.0019
634.9738	0.0001
635.1614	-0.0036
635.349	0.0027
635.5366	0.0049
635.7242	-0.0005
635.9117	0.0028
636.0993	0.0044
636.2868	0.0065
636.4743	-0.002
636.6618	0.0095
636.8492	-0.0008
637.0367	-0.0022
637.2241	0.0002
637.4115	-0.0043
637.5989	-0.0025
637.7863	-0.0055
637.9737	0.0006
638.161	-0.0071
638.3484	0.001
638.5357	0.0009
638.723	-0.0039
638.9103	0.008
639.0975	0.0034
639.2848	0.0011
639.472	0.0028
639.6592	0.0061
639.8464	0.0064
640.0336	0.0087
640.2208	0.0007
640.4079	-0.0019
640.595	0.0052
640.7821	0.0041
640.9692	0.0001
641.1563	-0.001
641.3434	0.0025
641.5304	-0.0054
641.7174	-0.0017
641.9044	-0.0011
642.0914	0.0029
642.2784	-0.0012
642.4653	-0.0025
642.6523	-0.0023
642.8392	-0.001
643.0261	0.0077
643.213	-0.0007
643.3999	-0.0019
643.5867	-0.0045
643.7735	0.0049
643.9604	-0.0055
644.1472	-0.0024
644.3339	-0.0007
644.5207	-0.0007
644.7075	-0.0077
644.8942	0.0019
645.0809	0.0096
645.2676	0.0046
645.4543	0.0024
645.6409	-0.0001
645.8276	-0
646.0142	-0.0008
646.2008	-0.0104
646.3874	-0.009
646.574	-0.0027
646.7605	-0.0057
646.9471	-0.0141
647.1336	0.0008
647.3201	0.0048
647.5066	-0.0024
647.6931	0.0093
647.8795	-0.0022
648.0659	0.0009
648.2524	0.0084
648.4388	-0.002
648.6252	-0.0023
648.8115	0.0015
648.9979	-0.0028
649.1842	-0.0002
649.3705	0.0076
649.5568	0.0006
649.7431	0.0009
649.9294	-0.0049
650.1156	-0.0006
650.3018	0.002
650.488	-0.0019
650.6742	0.0024
650.8604	-0
651.0466	-0.0087
651.2327	0.0024
651.4188	-0.0001
651.6049	-0.0049
651.791	-0.0016
651.9771	-0.0018
652.1632	0.0025
652.3492	0.0057
652.5352	-0.0017
652.7212	-0.0021
652.9072	0.011
653.0932	0.0001
653.2791	-0.0049
653.465	0.0002
653.651	-0.0046
653.8369	-0.0029
654.0227	-0.0073
654.2086	-0.0014
654.3944	-0.0026
654.5803	-0.0065
654.7661	0.0011
654.9519	0.0038
655.1377	-0.0055
655.3234	-0.0043
655.5092	-0.0049
655.6949	-0.0094
655.8806	-0.0019
656.0663	0.0053
656.2519	-0.005
656.4376	-0.0029
656.6232	0.001
656.8088	-0.0007
656.9945	0.001
657.18	-0.0031
657.3656	0.0029
657.5511	-0.0031
657.7367	-0.0031
657.9222	0.0042
658.1077	0.0004
658.2932	-0.0004
658.4786	-0.0084
658.6641	-0.0015
658.8495	-0.0017
659.0349	-0.0015
659.2203	-0.0028
659.4057	-0.0022
659.591	0.0013
659.7764	-0.0022
659.9617	-0.0046
660.147	0.0018
660.3323	0.0008
660.5176	-0.0041
660.7028	0.0068
660.888	0.0013
661.0733	-0.0002
661.2585	-0.0054
661.4436	-0.0018
661.6288	-0.0072
661.8139	-0.0065
661.9991	0.0029
662.1842	-0.002
662.3693	0.0001
662.5544	0.0002
662.7394	0.001
662.9245	-0.0046
663.1095	-0.0025
663.2945	0.003
663.4795	-0.005
663.6644	0.0012
663.8494	-0.0053
664.0343	0.0004
664.2193	-0.0095
664.4042	0.0006
664.589	-0.0058
664.7739	-0.0066
664.9587	-0.0001
665.1436	0.0005
665.3284	0.0077
665.5132	0.0021
665.698	0.0021
665.8827	0.0073
666.0675	0.0027
666.2522	-0.0042
666.4369	0.0035
666.6216	0.0116
666.8063	0.0066
666.9909	-0.0001
667.1756	-0.0041
667.3602	0.0043
667.5448	0.0044
667.7294	0.0081
667.9139	0.0108
668.0985	0.0121
668.283	0.0021
668.4675	0.0006
668.652	0.0031
668.8365	-0.0026
669.0209	0.006
669.2054	-0.0026
669.3898	-0.0091
669.5742	0.0075
669.7586	0.0045
669.943	0.0027
670.1273	0.0097
670.3117	0.0065
670.496	0.0086
670.6803	0.0112
670.8646	0.0086
671.0488	0.0023
671.2331	0.0097
671.4173	0.0082
671.6015	0.0027
671.7857	0.0052
671.9699	0.0083
672.1541	0.0061
672.3382	0.0067
672.5223	0.0005
672.7064	0.0008
672.8905	0.0102
673.0746	0.0037
673.2587	-0.0022
673.4427	0.003
673.6267	0.0107
673.8107	0.0107
673.9947	0.0061
674.1787	0.001
674.3626	0.0033
674.5465	0.0063
674.7304	0.0084
674.9143	0.0013
675.0982	0.0054
675.2821	-0.0025
675.4659	0.0021
675.6497	0.0027
675.8335	-0.001
676.0173	0.005
676.2011	0.0034
676.3849	0.0011
676.5686	-0.0035
676.7523	-0.0017
676.936	0.0016
677.1197	0.001
677.3034	-0.005
677.487	0.0044
677.6706	0.0022
677.8542	0.007
678.0378	-0.004
678.2214	-0.0006
678.405	-0.0015
678.5885	-0.0026
678.772	0.0011
678.9555	-0.0023
679.139	-0.0021
679.3225	-0.0048
679.5059	-0.0065
679.6894	0.0042
679.8728	0.0064
680.0562	-0.0077
680.2395	-0.0084
680.4229	-0.0078
680.6062	0.0049
680.7896	0.0049
680.9729	-0.0083
681.1562	0.0015
681.3394	0.0002
681.5227	-0.0086
681.7059	0.0006
681.8891	0.0016
682.0723	-0.0019
682.2555	-0.0024
682.4387	-0.003
682.6218	-0.0003
682.805	0.0005
682.9881	-0.0035
683.1712	-0.0022
683.3542	-0.0076
683.5373	0.0068
683.7203	-0.011
683.9034	-0.0005
684.0864	-0.0036
684.2694	-0.0037
684.4523	0.0069
684.6353	-0.0103
684.8182	0.0002
685.0011	-0.0078
685.184	0.0032
685.3669	0.0024
685.5498	0.0023
685.7326	-0.0013
685.9154	-0.0033
686.0982	0.0112
686.281	0.0022
686.4638	0.0031
686.6465	0.0067
686.8293	-0.0035
687.012	0.0051
687.1947	-0.0011
687.3774	0.0018
687.56	-0.002
687.7427	0.0047
687.9253	-0.0085
688.1079	-0.0032
688.2905	0.0046
688.4731	-0.0009
688.6556	-0.0011
688.8382	-0.0068
689.0207	0.0042
689.2032	-0.0056
689.3857	-0.0053
689.5681	0.0048
689.7506	-0.0053
689.933	0.0026
690.1154	-0.0073
690.2978	-0.0029
690.4802	0.0078
690.6626	-0.0091
690.8449	-0.0036
691.0272	-0.0018
691.2095	-0.0053
691.3918	-0.0027
691.5741	0.0046
691.7563	0.0025
691.9386	-0.0007
692.1208	-0.0008
692.303	0.0039
692.4852	-0.0059
692.6673	0.0034
692.8495	0.0025
693.0316	-0.0004
693.2137	0.0057
693.3958	0.0094
693.5778	-0.0015
693.7599	0.0038
693.9419	-0.0027
694.1239	0.0091
694.3059	-0.0006
694.4879	0.0104
694.6699	0.0072
694.8518	0.0055
695.0337	-0.0015
695.2157	0.0063
695.3975	-0.0011
695.5794	-0.0001
695.7613	0.0061
695.9431	0.0022
696.1249	0.0043
696.3067	0.0034
696.4885	0.0018
696.6703	-0.0007
696.852	-0.0022
697.0337	0.0027
697.2154	-0.0042
697.3971	0.003
697.5788	-0.0042
697.7605	-0.0038
697.9421	0.0041
698.1237	-0.0035
698.3053	-0.0051
698.4869	0.0022
698.6685	-0.0079
698.85	-0.0004
699.0315	0.0112
699.213	-0.004
699.3945	-0.0017
699.576	0.0046
699.7575	0.0091
699.9389	0.0132
700.1203	0.001
700.3017	0.0021
700.4831	-0.0051
700.6645	0.0001
700.8458	0.0089
701.0271	-0.0046
701.2084	0.0115
701.3897	-0.0001
701.571	0.0109
701.7523	-0.0051
701.9335	0.0006
702.1147	-0.0099
702.2959	0.0005
702.4771	-0.0042
702.6583	-0.0009
702.8394	-0.0065
703.0205	-0.0007
703.2016	-0.0006
703.3827	0.0048
703.5638	0.0006
703.7449	0.0021
703.9259	0.0174
704.1069	0.0016
704.2879	0.001
704.4689	0.0009
704.6499	0.0031
704.8308	0.0045
705.0117	0.0028
705.1927	0.0068
705.3735	0.0049
705.5544	-0.0031
705.7353	-0.0014
705.9161	-0.0007
706.0969	0.0007
706.2777	0.0078
706.4585	-0.0041
706.6393	-0.0026
706.82	0.0007
707.0007	-0.0014
707.1815	0.0026
707.3621	0.0158
707.5428	0.0042
707.7235	0.0047
707.9041	0.0049
708.0847	-0.0083
708.2653	-0.0073
708.4459	-0.011
708.6265	0.0034
708.807	0.0017
708.9875	0.0002
709.168	0.006
709.3485	-0.0002
709.529	0.0005
709.7095	-0.0129
709.8899	-0.0007
710.0703	-0.0076
710.2507	-0.002
710.4311	0.0027
710.6115	-0.0017
710.7918	-0.0042
710.9721	-0.0021
711.1524	-0.0138
711.3327	0.0035
711.513	-0.0051
711.6932	-0.0025
711.8735	0.0051
712.0537	0.0017
712.2339	-0.0053
712.4141	-0.0058
712.5942	-0.0006
712.7744	-0.0009
712.9545	-0.0135
713.1346	-0.011
713.3147	-0.0114
713.4947	-0.0109
713.6748	-0.0012
713.8548	-0.0015
714.0348	-0.005
714.2148	-0.0067
714.3948	0.0091
714.5748	0.0022
714.7547	-0.0106
714.9346	0.0094
715.1145	-0.0039
715.2944	-0.0015
715.4743	-0.0049
715.6541	-0.0073
715.834	0.0048
716.0138	-0.0008
716.1936	-0.0122
716.3733	-0.0073
716.5531	0.0022
716.7328	-0.0049
716.9126	-0.0078
717.0923	-0.0016
717.2719	-0.004
717.4516	0.004
717.6312	-0.0014
717.8109	-0.0051
717.9905	0.0062
718.1701	-0.0046
718.3496	-0.003
718.5292	0.004
718.7087	0.003
718.8882	0.0014
719.0677	0.0115
719.2472	-0.0092
719.4267	0.0007
719.6061	-0.0004
719.7856	0.0025
719.965	-0.0019
720.1443	-0.0017
720.3237	0.005
720.5031	0.0031
720.6824	0.0068
720.8617	0.0045
721.041	0.014
721.2203	0.0145
721.3995	0.0016
721.5788	0.007
721.758	0.0071
721.9372	-0.0004
722.1164	0.0061
722.2956	0.007
722.4747	-0.0012
722.6538	-0.0034
722.8329	0.0178
723.012	0.0083
723.1911	0.0044
723.3702	0.0147
723.5492	0.0044
723.7282	0.0031
723.9072	0.0031
724.0862	-0.0026
724.2652	-0.0069
724.4441	0.0023
724.623	-0.0039
724.8019	-0.0029
724.9808	0.0018
725.1597	-0.006
725.3385	0.004
725.5174	-0.003
725.6962	0.002
725.875	-0.0011
726.0538	0.0108
726.2325	-0.0119
726.4112	-0.0051
726.59	-0.0044
726.7687	-0.0022
726.9474	0.0007
727.126	0.0042
727.3047	-0.004
727.4833	-0.0005
727.6619	0.002
727.8405	-0.0076
728.0191	0.0046
728.1976	0.0012
728.3762	-0.002
728.5547	0.0018
728.7332	-0.0163
728.9116	0.0027
729.0901	-0.0005
729.2686	-0.0109
729.447	-0.0104
729.6254	0.002
729.8038	-0.0007
729.9821	-0.014
730.1605	-0.0054
730.3388	-0.0036
730.5171	-0.002
730.6954	-0.008
730.8737	0.0104
731.0519	0.0027
731.2302	0.0048
731.4084	0.0072
731.5866	0.0112
731.7648	0.0009
731.9429	0.007
732.1211	-0.0128
732.2992	-0.0004
732.4773	-0.0004
732.6554	-0.0048
732.8335	0.0038
733.0115	0.004
733.1896	0.0163
733.3676	-0.004
733.5456	0.0057
733.7235	0.009
733.9015	-0.0046
734.0794	-0.0046
734.2574	-0.0014
734.4353	-0.0056
734.6131	0.0052
734.791	0.0025
734.9689	0.0033
735.1467	0.0023
735.3245	-0.011
735.5023	-0.0067
735.68	-0.0043
735.8578	0.0043
736.0355	-0.0132
736.2132	-0.0094
736.3909	0.0013
736.5686	-0.004
736.7463	-0.001
736.9239	-0.0054
737.1015	-0.0018
737.2791	0.0074
737.4567	-0.0038
737.6343	-0.006
737.8118	-0.002
737.9894	0.0043
738.1669	-0.009
738.3444	-0.0066
738.5218	0.0007
738.6993	-0.0033
738.8767	-0.0079
739.0541	0.0134
739.2315	-0.0091
739.4089	-0.0067
739.5863	0.0036
739.7636	-0.0061
739.9409	0.0033
740.1182	0.0067
740.2955	-0.0017
740.4728	0.0054
740.65	-0.0048
740.8272	-0.0099
741.0044	-0.0104
741.1816	-0.0021
741.3588	-0.0046
741.5359	0.0009
741.7131	-0.0082
741.8902	-0.0094
742.0673	-0.001
742.2444	-0.0048
742.4214	-0.0094
742.5985	-0.004
742.7755	-0.0094
742.9525	-0.0201
743.1295	-0.0063
743.3064	-0.0019
743.4834	-0.0065
743.6603	-0.0127
743.8372	-0.0099
744.0141	0.0011
744.191	0.0028
744.3678	-0.0049
744.5446	-0.0041
744.7215	-0.0009
744.8982	0.0041
745.075	-0.0095
745.2518	0.0023
745.4285	-0.001
745.6052	-0.0001
745.7819	-0.0008
745.9586	-0.0003
746.1353	-0.0041
746.3119	-0.0054
746.4885	0.003
746.6651	0.0027
746.8417	0.0043
747.0183	0.0053
747.1948	0.001
747.3714	0.0118
747.5479	0.0024
747.7244	0.001
747.9008	0.0104
748.0773	0.0003
748.2537	0.0013
748.4301	-0.0038
748.6065	0.007
748.7829	-0.0013
748.9593	-0.008
749.1356	0.0002
749.3119	0.0124
749.4882	-0.0056
749.6645	-0.0022
749.8408	-0.0053
750.017	-0.0001
750.1933	0.0103
750.3695	-0.0043
750.5457	0.0131
750.7218	0.0009
750.898	0.0122
751.0741	0.0025
751.2502	0.0077
751.4263	0.0025
751.6024	0.0034
751.7784	-0.0116
751.9545	-0.0117
752.1305	0.0033
752.3065	-0.0091
752.4825	0.0005
752.6584	-0.0082
752.8344	-0.0064
753.0103	-0.0059
753.1862	-0.0054
753.3621	-0.0114
753.5379	-0.0088
753.7138	-0.0112
753.8896	-0.0089
754.0654	0.0045
754.2412	0.0097
754.417	-0.0044
754.5927	-0.008
754.7685	-0.0045
754.9442	-0.0065
755.1199	0.0063
755.2956	-0.0039
755.4712	0.0047
755.6469	-0.0047
755.8225	-0.0059
755.9981	-0.0039
756.1736	-0.0137
756.3492	-0.0054
756.5248	0.002
756.7003	0.0019
756.8758	0.0084
757.0513	-0.0135
757.2267	-0.0044
757.4022	-0.0043
757.5776	-0.0097
757.753	0.0001
757.9284	-0.0009
758.1038	0.0119
758.2791	0.0083
758.4545	-0.0082
758.6298	0.0006
758.8051	0.0101
758.9803	0.0109
759.1556	0.0007
759.3308	0.0063
759.506	0.0081
759.6812	0.0105
759.8564	0.013
760.0316	-0.003
760.2067	0.0151
760.3819	0.0025
760.557	0.0085
760.732	-0.0018
760.9071	-0.0106
761.0821	-0.0002
761.2572	0.001
761.4322	-0.0095
761.6072	-0.0022
761.7821	-0.0081
761.9571	-0.0016
762.132	-0.0045
762.3069	-0.0137
762.4818	-0.0112
762.6567	-0.0032
762.8316	-0.0077
763.0064	-0.0084
763.1812	-0.0035
763.356	-0.0113
763.5308	0.0021
763.7055	0.0044
763.8803	-0.0067
764.055	0.0022
764.2297	0.0042
764.4044	-0.0084
764.579	0.001
764.7537	-0.0109
764.9283	0.0079
765.1029	-0.0052
765.2775	0.0032
765.4521	-0.0007
765.6266	-0.0008
765.8011	-0.0144
765.9756	-0.0001
766.1501	0.0035
766.3246	0.0047
766.4991	0.0124
766.6735	-0.0003
766.8479	-0.0077
767.0223	0.0076
767.1967	-0.0031
767.371	0.0011
767.5454	-0.001
767.7197	0.003
767.894	-0.0013
768.0683	-0.0023
768.2425	0.0024
768.4168	0.014
768.591	0.0012
768.7652	0.0059
768.9394	-0.0025
769.1135	0.0036
769.2877	0.0104
769.4618	0.0054
769.6359	0.0021
769.81	0.0002
769.984	0.0032
770.1581	0.0028
770.3321	-0.0028
770.5061	-0.0025
770.6801	-0.0079
770.8541	0.0017
771.028	0.005
771.202	-0.0105
771.3759	0.0028
771.5498	-0.0012
771.7236	0.0092
771.8975	-0.0047
772.0713	0.0054
772.2451	0.0021
772.4189	0.0093
772.5927	0.0149
772.7665	-0.0025
772.9402	0.0039
773.1139	-0.0023
773.2876	0.0026
773.4613	0.0026
773.635	0.0087
773.8086	-0.0084
773.9822	-0
774.1558	0.013
774.3294	-0.0082
774.503	0.0012
774.6765	0.0099
774.8501	0.009
775.0236	0.0094
775.1971	0.019
775.3705	0.0028
775.544	0.0078
775.7174	-0.0031
775.8908	0.0039
776.0642	-0.0094
776.2376	0.001
776.4109	-0.0119
776.5843	0.0048
776.7576	0.0137
776.9309	0.015
777.1041	0.0078
777.2774	0.0093
777.4506	-0.0034
777.6238	-0.0021
777.797	0.0072
777.9702	-0.0019
778.1434	-0.006
778.3165	-0.0111
778.4896	-0.013
778.6627	0.0084
778.8358	0.0024
779.0089	-0.0119
779.1819	-0.0127
779.3549	0.0087
779.5279	-0.004
779.7009	0.0143
779.8739	0.0094
780.0468	-0.0057
780.2197	0.0054
780.3926	0.0066
780.5655	-0.0048
780.7384	0.0048
780.9112	-0.003
781.0841	-0.0061
781.2569	-0.0045
781.4297	0.0007
781.6024	0.0114
781.7752	0.0123
781.9479	0.0068
782.1206	0.0004
782.2933	-0.008
782.466	0.0209
782.6386	0.0069
782.8113	0.0065
782.9839	0.0117
783.1565	0.0168
783.329	0.0129
783.5016	0.0075
783.6741	0.0095
783.8466	-0.0053
784.0191	0.0145
784.1916	0.0012
784.3641	0.01
784.5365	0.0061
784.7089	-0.0045
784.8813	-0.0126
785.0537	-0.0076
785.2261	-0.0035
785.3984	-0.0023
785.5707	-0.0047
785.743	0.0036
785.9153	-0.0118
786.0876	0.0024
786.2598	0.0031
786.432	-0.0182
786.6042	0.0061
786.7764	-0.0054
786.9486	0.0093
787.1207	0.0001
787.2928	0.0018
787.4649	0.0078
787.637	0.0192
787.8091	-0.0018
787.9811	-0.0056
788.1532	-0.0016
788.3252	0.0203
788.4972	-0.0079
788.6691	0.0011
788.8411	0.0069
789.013	-0.009
789.1849	0.0058
789.3568	0.001
789.5287	-0.0018
789.7005	-0.0092
789.8723	-0.0036
790.0442	0.0198
790.2159	0.0176
790.3877	-0.0071
790.5595	-0.0129
790.7312	0.0124
790.9029	-0.0061
791.0746	-0.0127
791.2463	0.0048
791.4179	0.0017
791.5896	0.0063
791.7612	0.0138
791.9328	0.0092
792.1044	-0.0087
792.2759	-0.0099
792.4474	-0.0022
792.619	0.0058
792.7905	0.0171
792.9619	-0.0003
793.1334	0.0147
793.3048	0.0199
793.4762	0.0167
793.6476	0.0094
793.819	0.0095
793.9904	0.0023
794.1617	-0.0086
794.333	0.007
794.5043	-0.0051
794.6756	-0.0023
794.8469	-0.0141
795.0181	-0.0118
795.1893	0.0077
795.3605	0.0195
795.5317	0.0036
795.7029	-0.0012
795.874	-0.0027
796.0452	-0.0014
796.2163	0.006
796.3873	0.0121
796.5584	0.0229
796.7294	-0.0114
796.9005	0.0124
797.0715	0.0051
797.2425	-0.0017
797.4134	0.0107
797.5844	0.0124
797.7553	-0.003
797.9262	-0.0016
798.0971	-0.0124
798.2679	0.0068
798.4388	-0.0098
798.6096	0.0036
798.7804	0.0099
798.9512	0.0066
799.122	-0.0107
799.2927	0.0226
799.4635	0.0171
799.6342	-0.0225
799.8049	-0.0035
799.9755	-0.0047
800.1462	-0.0019
800.3168	0.0062
800.4874	0.0082
800.658	0.0132
800.8286	-0.001
800.9991	0.0104
801.1696	0.0161
801.3402	0.0117
801.5106	0.0061
801.6811	-0.0024
801.8516	0.0313
802.022	0.0043
802.1924	0.0173
802.3628	0.009
802.5332	-0.0022
802.7035	0.0321
802.8739	0.0175
803.0442	0.0056
803.2145	0.0177
803.3847	-0.0067
803.555	0.0245
803.7252	0.0078
803.8954	-0.0122
804.0656	-0.0134
804.2358	0.0015
804.4059	0.0178
804.5761	0.0061
804.7462	0.0161
804.9163	0.0142
805.0864	-0.0107
805.2564	0.0118
805.4264	0.0125
805.5965	-0.0027
805.7665	0.0056
805.9364	0.0225
806.1064	0.0339
806.2763	0.0054
806.4462	0.0156
806.6161	0.0109
806.786	0.02
806.9559	-0.0125
807.1257	0.0115
807.2955	0.0043
807.4653	0.0064
807.6351	0.0155
807.8048	0.0138
807.9746	0.0127
808.1443	0.0163
808.314	0.0191
808.4837	0.01
808.6533	0.02
808.8229	0.0197
808.9926	0.0215
809.1622	0.0264
809.3317	0.0077
809.5013	0.0114
809.6708	0.0332
809.8403	0.0325
810.0098	0.0118
810.1793	0.0293
810.3488	0.0166
810.5182	-0.0005
810.6876	0.0212
810.857	0.0075
811.0264	0.0613
811.1958	0.0117
811.3651	0.0298
811.5344	0.0161
811.7037	0.0232
811.873	0.0019
812.0422	0.0147
812.2115	0.0143
812.3807	0.0178
812.5499	0.0093
812.7191	0.0203
812.8882	-0.0084
813.0574	0.012
813.2265	-0.0083
813.3956	0.0123
813.5646	0.03
813.7337	0.0118
813.9027	0.032
814.0718	0.0318
814.2407	0.0564
814.4097	0.0093
814.5787	-0.0006
814.7476	0.0158
814.9165	0.0211
815.0854	0.0147
815.2543	0.012
815.4232	0.0116
815.592	0.0323
815.7608	0.0231
815.9296	0.0189
816.0984	0.0164
816.2671	0.0287
816.4359	0.0188
816.6046	0.0172
816.7733	0.0055
816.942	0.0313
817.1106	0.0363
817.2793	0.0124
817.4479	0.0391
817.6165	0.015
817.785	0.0112
817.9536	-0.0039
818.1221	0.0376
818.2906	0.0237
818.4591	0.0156
818.6276	0.0068
818.7961	0.0273
818.9645	0.0256
819.1329	0.0152
819.3013	0.0159
819.4697	0.0414
819.638	0.0402
819.8064	0.0131
819.9747	0.0217
820.143	0.0278
820.3113	0.0059
820.4795	0.0263
820.6477	0.0035
820.816	0.0102
820.9842	0.0154
821.1523	0.0143
821.3205	0.0141
821.4886	0.0121
821.6567	0.0239
821.8248	0.0187
821.9929	0.0292
822.1609	0.0288
822.329	0.0693
822.497	0.0302
822.665	0.0149
822.833	0.0157
823.0009	0.0011
823.1688	-0.0008
823.3367	0.0503
823.5046	0.02
823.6725	0.0392
823.8404	-0.0109
824.0082	0.0107
824.176	0.0298
824.3438	0.0254
824.5116	0.0162
824.6793	0.0176
824.847	0.0169
825.0147	-0.0004
825.1824	0.0254
825.3501	0.0358
825.5177	-0.0057
825.6854	-0.0017
825.853	0.017
826.0206	0.0147
826.1881	0.0349
826.3557	-0.0248
826.5232	0.025
826.6907	-0.0102
826.8582	0.0156
827.0257	-0.0132
827.1931	0.0114
827.3605	0.0217
827.528	-0.0133
827.6953	0.0078
827.8627	-0.0129
828.03	0.0533
828.1974	-0.0111
828.3647	-0.0337
828.532	0.0005
828.6992	0.004
828.8665	0.0101
829.0337	0.0061
829.2009	0.0147
829.3681	0.0204
829.5352	0.0114
829.7024	-0.0037
829.8695	-0.0203
830.0366	0.0465
830.2037	-0
830.3707	0.0161
830.5378	0.0202
830.7048	0.02
830.8718	-0.0038
831.0388	-0.0011
831.2057	0.0315
831.3727	0.0584
831.5396	-0.0134
831.7065	0.0158
831.8734	0.0143
832.0402	-0.01
832.2071	0.0358
832.3739	-0.0018
832.5407	-0.0036
832.7075	-0.0159
832.8742	-0.018
833.041	-0.0163
833.2077	0.0297
833.3744	0.0224
833.541	-0.009
833.7077	-0.0462
833.8743	0.0026
834.0409	0.0423
834.2075	-0.0044
834.3741	0.0081
834.5407	0.0262
834.7072	-0.0283
834.8737	-0.0079
835.0402	0.046
835.2067	0.0224
835.3731	0.0182
835.5395	0.0647
835.706	0.0105
835.8723	0.0022
836.0387	0.0381
836.2051	-0.0123
836.3714	0.0356
836.5377	0.0097
836.704	-0.0222
836.8703	0.0078
837.0365	0.021
837.2027	0.0023
837.3689	0.0268
837.5351	-0.0162
837.7013	-0.0296
837.8674	-0.0138
838.0335	0.0174
838.1997	0.0225
838.3657	-0.053
838.5318	0.0178
838.6978	0.0423
838.8639	0.0437
839.0299	0.0266
839.1958	0.0016
839.3618	-0.0217
839.5277	-0.006
839.6937	0.0109
839.8596	0.0271
840.0254	0.0602
840.1913	0.0352
840.3571	0.057
840.523	0.003
840.6888	0.0362
840.8545	-0.0076
841.0203	0.017
841.186	-0.0093
841.3517	0.0573
841.5174	-0.0043
841.6831	0.0488
841.8488	0.0395
842.0144	0.0352
842.18	0.0457
842.3456	0.0454
842.5112	-0.0322
842.6767	-0.001
842.8422	0.0208
843.0077	-0.0458
843.1732	-0.0023
843.3387	0.0209
843.5042	0.0047
843.6696	-0.0235
843.835	0.0098
844.0004	0.0548
844.1657	0.0333
844.3311	-0.0384
844.4964	-0.0519
844.6617	0.0532
844.827	0.0202
844.9923	0.0295
845.1575	0.0308
845.3227	-0.0034
845.4879	-0.0166
845.6531	-0.0421
845.8183	-0.0848
845.9834	-0.0159
846.1485	-0.0181
846.3136	-0.0162
846.4787	-0.0358
846.6438	0.0335
846.8088	-0.0585
846.9738	-0.1075
847.1388	-0.0028
847.3038	-0.0134
847.4687	-0.0919
847.6337	0.0379
847.7986	0.0432
847.9635	0.0074
848.1284	0.0491
848.2932	0.0739
848.458	-0.0734
848.6228	0.069
848.7876	0.0305
848.9524	-0.0564
849.1172	-0.12
849.2819	0.0274
849.4466	0.0172
849.6113	-0.0663
849.7759	-0.0138
849.9406	0.0052
850.1052	0.0264
850.2698	0.0254
850.4344	-0.0689
850.599	-0.056
850.7635	0.1406
850.928	0.0875
851.0925	0.111
851.257	0.0881
851.4215	0.0883
851.5859	-0.0172
851.7503	-0.0046
851.9147	0.0414
852.0791	0.022
852.2434	-0.0346
852.4078	0.0603
852.5721	0.0873
852.7364	-0.0238
852.9007	-0.0037
853.0649	-0.0358
853.2291	-0.0219
853.3934	-0.0623
853.5575	0.1385
853.7217	-0.0665
853.8859	-0.1359
854.05	-0.1235
854.2141	0.0553
854.3782	0.0808
854.5423	-0.0373
854.7063	0.0765
854.8703	0.0785
855.0343	-0.0476
855.1983	-0.0719
855.3623	0.1351
855.5262	0.0055
855.6901	-0.0096
855.854	0.0105
856.0179	0.0067
856.1818	-0.0623
856.3456	-0.063
856.5094	-0.1063
856.6732	-0.0618
856.837	0.1562
857.0008	0.0383
857.1645	-0.003
857.3282	0.0111
857.4919	0.0804
857.6556	-0.075
857.8192	-0.064
857.9828	-0.0167
858.1465	0.1157
858.31	-0.0303
858.4736	-0.0668
858.6372	-0.2647
858.8007	-0.1656
858.9642	-0.0434
859.1277	0.0697
859.2911	0.0754
859.4546	0.0145
859.618	-0.4639
859.7814	0.0976
859.9448	0.0457
860.1081	0.0811
860.2715	0.1632
860.4348	0.2904
860.5981	0.1852
860.7614	0.0937
860.9246	-0.1491
861.0879	-0.1225
861.2511	0.0809
861.4143	-0.0403
861.5774	0.112
861.7406	-0.1874
861.9037	0.0879
862.0668	0.4492
862.2299	-0.0072
862.393	-0.4687
862.556	-0.0472
862.7191	-0.1715
862.8821	-0.0184
863.0451	0.0981
863.208	-0.0243
863.371	-0
863.5339	-0.152
863.6968	-0.0511
863.8597	0.1639
864.0225	0.0922
864.1854	0.162
864.3482	0.5961
864.511	0.0712
864.6737	-0.0129
864.8365	0.5054
864.9992	-0.5658
865.1619	-0.5374
865.3246	-0.1243
865.4873	0.1588
865.65	-0.2419
865.8126	0.5904
865.9752	-0.1053
866.1378	-0.2688
866.3004	-0
866.4629	0.2455
866.6254	-0.1277
866.7879	-0.0947
866.9504	0.6149
867.1129	-0
867.2753	0.314
867.4377	0.2404
867.6001	0.2254
867.7625	0.1584
867.9249	0.5763
868.0872	0.0361
868.2495	0.0248
868.4118	0.032
868.5741	0.4654
868.7363	1.1291
868.8986	-0.0664
869.0608	-0.0464
869.223	0.8924
869.3851	-0
869.5473	-0.4078
869.7094	0.3002
869.8715	-0.5187
870.0336	-0.3136
870.1957	-0.3936
870.3577	-1.1489
870.5197	0.0177
870.6817	-0.4679
870.8437	-0.0259
871.0057	-0
871.1676	-0
871.3295	-0.5054
871.4914	-0.8577
871.6533	-0.1883
871.8151	-0.3952
871.977	1.3304
872.1388	-0
872.3006	-0
872.4623	0
872.6241	0.2295
872.7858	0.2028
872.9475	-0.1341
873.1092	0.0759
873.2709	-0.1183
873.4325	-0.1543
873.5941	-0.3861
873.7557	-0
873.9173	-0.0522
874.0789	0.1926
874.2404	-0
874.4019	-0.024
874.5634	0.1879
874.7249	-0.0758
874.8863	0.0346
875.0478	-0.0807
875.2092	-0.7108
875.3706	-0
875.5319	-0.7805
875.6933	-0.0365
875.8546	-0.1352
876.0159	0.2243
876.1772	-0
876.3385	-0
876.4997	0.1349
876.6609	-0.4959
876.8221	-0.3424
876.9833	-0.1069
877.1445	-0
877.3056	0.3706
877.4667	-0
877.6278	0.4166
877.7889	-0.5961
877.9499	-0
878.111	-0
878.272	-1.1654
878.433	-0
878.5939	0.5951
878.7549	-0.1591
878.9158	-0.294
879.0767	0.1998
879.2376	-0
879.3984	0.117
879.5593	-0
879.7201	-0.1244
879.8809	-0.6665
880.0417	-0.184
880.2024	0.3375
880.3632	-0.7121
880.5239	0.3462
880.6846	0.4484
880.8452	-2.4232
881.0059	-0
881.1665	-0.1926
881.3271	-0
881.4877	-0.2754
881.6483	-0.2637
881.8088	-0.2782
881.9693	0.1774
882.1298	0.1774
882.2903	0.1774
