Data from MonoPyChalIsomerACN10uM380nmA_Absorbance_13-38-34-049.txt Node
Date: Fri Jul 05 13:38:34 BST 2024
User: LASERRRRR
Spectrometer: FLMT03099
Trigger mode: 0
Integration Time (sec): 1.000000E-1
Scans to average: 1
Electric dark correction enabled: true
Nonlinearity correction enabled: false
Boxcar width: 0
XAxis mode: Wavelengths
Number of Pixels in Spectrum: 3648
>>>>>Begin Spectral Data<<<<<
179.3399	-0.3216
179.5586	-0.3216
179.7771	-0.3216
179.9957	2.2529
180.2143	-0.671
180.4329	0.0423
180.6514	-0
180.8699	0.5798
181.0885	0.6194
181.307	0.3985
181.5255	-0
181.744	-0.1276
181.9625	-0.0908
182.181	-0
182.3994	0.9581
182.6179	-0
182.8363	0.5671
183.0547	0.3918
183.2732	-0.0066
183.4916	0.2223
183.71	0.1548
183.9284	0.321
184.1467	0.3378
184.3651	0.0916
184.5835	0.0648
184.8018	0.3039
185.0201	0.1806
185.2385	-0.0819
185.4568	0.2671
185.6751	-0.0576
185.8934	0.2247
186.1117	0.0204
186.3299	0.0434
186.5482	0.0853
186.7664	-0.1536
186.9847	0.025
187.2029	0.0876
187.4211	0.1887
187.6393	-0.0035
187.8575	0.0459
188.0757	0.4144
188.2939	0.0521
188.512	0.0191
188.7302	-0.032
188.9483	0.1025
189.1665	0.0965
189.3846	-0.118
189.6027	0.106
189.8208	0.2394
190.0389	-0.0019
190.257	0.3208
190.475	0.2244
190.6931	0.1416
190.9111	0.3648
191.1292	0.1205
191.3472	0.5113
191.5652	0.3728
191.7832	0.661
192.0012	0.4316
192.2192	0.5899
192.4371	0.5633
192.6551	0.5997
192.873	0.5118
193.091	0.5015
193.3089	0.6281
193.5268	0.4749
193.7447	0.6619
193.9626	0.5471
194.1805	0.5947
194.3984	0.9103
194.6162	0.8011
194.8341	0.432
195.0519	0.5963
195.2697	1.0023
195.4875	0.9109
195.7054	0.8012
195.9231	0.6415
196.1409	0.6903
196.3587	0.7583
196.5765	0.7685
196.7942	0.8107
197.012	0.6441
197.2297	0.89
197.4474	0.9458
197.6651	0.6074
197.8828	0.6914
198.1005	0.9918
198.3182	0.8264
198.5358	0.818
198.7535	0.7214
198.9711	0.81
199.1888	0.9
199.4064	1.0539
199.624	0.9816
199.8416	0.7935
200.0592	0.8816
200.2767	0.9999
200.4943	0.729
200.7119	0.8364
200.9294	1.0512
201.1469	0.7565
201.3645	0.7584
201.582	0.7751
201.7995	0.8204
202.017	0.7911
202.2344	0.7299
202.4519	1.2046
202.6694	0.9488
202.8868	0.8948
203.1042	1.0397
203.3217	0.9079
203.5391	0.7722
203.7565	0.8648
203.9739	0.8753
204.1913	0.7111
204.4086	0.8954
204.626	0.8086
204.8433	0.855
205.0607	0.7324
205.278	0.7595
205.4953	0.7333
205.7126	0.8667
205.9299	1.1628
206.1472	0.8507
206.3644	0.8006
206.5817	0.9076
206.7989	0.9893
207.0162	0.8254
207.2334	0.8632
207.4506	0.7567
207.6678	0.7555
207.885	0.9718
208.1022	0.826
208.3194	0.7977
208.5365	0.7966
208.7537	0.8249
208.9708	0.7363
209.1879	0.8539
209.405	0.8709
209.6222	0.8569
209.8392	0.8135
210.0563	0.8701
210.2734	0.9182
210.4905	0.8805
210.7075	0.904
210.9245	0.8085
211.1416	0.9908
211.3586	0.8355
211.5756	0.7697
211.7926	0.9235
212.0096	0.7836
212.2265	0.803
212.4435	0.766
212.6604	0.8602
212.8774	0.7474
213.0943	0.8152
213.3112	0.7876
213.5281	0.7589
213.745	0.7157
213.9619	0.7698
214.1788	0.7006
214.3956	0.6552
214.6125	0.627
214.8293	0.7141
215.0461	0.6621
215.2629	0.6555
215.4798	0.6813
215.6965	0.6458
215.9133	0.7047
216.1301	0.6279
216.3469	0.6587
216.5636	0.6642
216.7803	0.6468
216.9971	0.7138
217.2138	0.6324
217.4305	0.6137
217.6472	0.6208
217.8639	0.6469
218.0805	0.5983
218.2972	0.5962
218.5138	0.5804
218.7305	0.5741
218.9471	0.5872
219.1637	0.555
219.3803	0.5539
219.5969	0.5329
219.8135	0.511
220.0301	0.5542
220.2466	0.5626
220.4632	0.5267
220.6797	0.5058
220.8962	0.5237
221.1127	0.526
221.3292	0.5232
221.5457	0.5295
221.7622	0.53
221.9787	0.5245
222.1951	0.5116
222.4116	0.5618
222.628	0.5322
222.8444	0.5223
223.0608	0.5254
223.2772	0.4984
223.4936	0.5491
223.71	0.5098
223.9264	0.5401
224.1427	0.5093
224.3591	0.5373
224.5754	0.5439
224.7917	0.5508
225.008	0.5512
225.2243	0.5082
225.4406	0.5639
225.6569	0.5065
225.8732	0.5545
226.0894	0.5518
226.3057	0.5377
226.5219	0.5355
226.7381	0.5568
226.9543	0.567
227.1705	0.5589
227.3867	0.5063
227.6029	0.5802
227.8191	0.5333
228.0352	0.5513
228.2513	0.5566
228.4675	0.58
228.6836	0.5504
228.8997	0.5281
229.1158	0.5646
229.3319	0.5605
229.548	0.5626
229.764	0.5172
229.9801	0.5458
230.1961	0.5644
230.4121	0.5422
230.6282	0.5475
230.8442	0.5276
231.0602	0.561
231.2761	0.5568
231.4921	0.5722
231.7081	0.5594
231.924	0.5267
232.14	0.5532
232.3559	0.5454
232.5718	0.5839
232.7877	0.5634
233.0036	0.5358
233.2195	0.5503
233.4353	0.5276
233.6512	0.5484
233.867	0.5684
234.0829	0.5438
234.2987	0.5553
234.5145	0.5563
234.7303	0.5504
234.9461	0.5723
235.1619	0.5451
235.3776	0.5352
235.5934	0.5466
235.8091	0.5157
236.0249	0.5449
236.2406	0.5329
236.4563	0.5513
236.672	0.5512
236.8877	0.541
237.1034	0.5403
237.319	0.5235
237.5347	0.5563
237.7503	0.5139
237.966	0.5456
238.1816	0.5389
238.3972	0.5266
238.6128	0.5561
238.8284	0.5524
239.0439	0.5655
239.2595	0.5482
239.475	0.534
239.6906	0.5433
239.9061	0.5193
240.1216	0.5071
240.3371	0.5581
240.5526	0.5144
240.7681	0.5273
240.9836	0.5085
241.199	0.5149
241.4145	0.503
241.6299	0.4681
241.8453	0.4895
242.0607	0.4972
242.2761	0.4589
242.4915	0.4523
242.7069	0.4797
242.9223	0.456
243.1376	0.4419
243.353	0.4481
243.5683	0.4613
243.7836	0.4225
243.9989	0.4355
244.2142	0.4067
244.4295	0.4106
244.6448	0.4119
244.86	0.3908
245.0753	0.376
245.2905	0.3902
245.5057	0.3646
245.721	0.3537
245.9362	0.3487
246.1514	0.354
246.3665	0.341
246.5817	0.3285
246.7969	0.3351
247.012	0.3121
247.2271	0.2974
247.4423	0.3265
247.6574	0.3022
247.8725	0.3063
248.0876	0.2815
248.3026	0.2825
248.5177	0.2844
248.7328	0.2685
248.9478	0.2672
249.1628	0.2562
249.3779	0.2647
249.5929	0.2512
249.8079	0.2613
250.0228	0.2468
250.2378	0.2477
250.4528	0.2603
250.6677	0.2234
250.8827	0.2398
251.0976	0.2449
251.3125	0.2196
251.5274	0.2097
251.7423	0.2241
251.9572	0.2305
252.172	0.2229
252.3869	0.2177
252.6017	0.2101
252.8166	0.2011
253.0314	0.2023
253.2462	0.1922
253.461	0.2143
253.6758	0.211
253.8906	0.1993
254.1053	0.1906
254.3201	0.2161
254.5348	0.2033
254.7496	0.2111
254.9643	0.1969
255.179	0.1988
255.3937	0.2004
255.6083	0.2028
255.823	0.192
256.0377	0.1818
256.2523	0.1902
256.467	0.1808
256.6816	0.1926
256.8962	0.2029
257.1108	0.1844
257.3254	0.1893
257.54	0.1881
257.7545	0.1828
257.9691	0.1918
258.1836	0.1994
258.3981	0.2089
258.6127	0.1862
258.8272	0.1808
259.0417	0.1815
259.2561	0.1877
259.4706	0.1964
259.6851	0.1857
259.8995	0.1815
260.114	0.1911
260.3284	0.1914
260.5428	0.1747
260.7572	0.1825
260.9716	0.182
261.186	0.1722
261.4003	0.1877
261.6147	0.1775
261.829	0.187
262.0433	0.1881
262.2577	0.1809
262.472	0.1829
262.6863	0.1752
262.9005	0.1856
263.1148	0.1813
263.3291	0.1693
263.5433	0.1816
263.7576	0.1879
263.9718	0.1864
264.186	0.1894
264.4002	0.1823
264.6144	0.1804
264.8286	0.1908
265.0427	0.1744
265.2569	0.187
265.471	0.1795
265.6851	0.1674
265.8993	0.1855
266.1134	0.1681
266.3275	0.1813
266.5415	0.1851
266.7556	0.187
266.9697	0.1963
267.1837	0.1959
267.3978	0.183
267.6118	0.1992
267.8258	0.2064
268.0398	0.1727
268.2538	0.1991
268.4677	0.1937
268.6817	0.1701
268.8957	0.1781
269.1096	0.1748
269.3235	0.1954
269.5374	0.1906
269.7514	0.1802
269.9652	0.1796
270.1791	0.1722
270.393	0.1831
270.6068	0.1797
270.8207	0.1736
271.0345	0.1787
271.2483	0.1753
271.4622	0.1712
271.676	0.1837
271.8897	0.1661
272.1035	0.1744
272.3173	0.1877
272.531	0.1733
272.7448	0.1796
272.9585	0.1726
273.1722	0.1787
273.3859	0.1709
273.5996	0.158
273.8133	0.1761
274.0269	0.1697
274.2406	0.1744
274.4542	0.1806
274.6679	0.1641
274.8815	0.1733
275.0951	0.1807
275.3087	0.182
275.5223	0.1812
275.7358	0.1784
275.9494	0.1728
276.1629	0.1637
276.3765	0.1835
276.59	0.1645
276.8035	0.1728
277.017	0.1821
277.2305	0.1772
277.444	0.1817
277.6574	0.1757
277.8709	0.1874
278.0843	0.1806
278.2978	0.1691
278.5112	0.1682
278.7246	0.1792
278.938	0.1766
279.1513	0.1827
279.3647	0.1846
279.5781	0.174
279.7914	0.1777
280.0047	0.1865
280.2181	0.1812
280.4314	0.1848
280.6447	0.1803
280.8579	0.186
281.0712	0.1827
281.2845	0.1878
281.4977	0.1758
281.711	0.1855
281.9242	0.182
282.1374	0.1755
282.3506	0.1759
282.5638	0.1874
282.7769	0.1789
282.9901	0.1916
283.2033	0.1833
283.4164	0.1887
283.6295	0.1736
283.8426	0.1743
284.0557	0.1846
284.2688	0.1817
284.4819	0.1825
284.695	0.1829
284.908	0.1878
285.1211	0.1831
285.3341	0.1814
285.5471	0.1741
285.7601	0.182
285.9731	0.1762
286.1861	0.1663
286.3991	0.1876
286.612	0.1727
286.825	0.1778
287.0379	0.1761
287.2508	0.1739
287.4637	0.1852
287.6766	0.1758
287.8895	0.1789
288.1024	0.1809
288.3152	0.1868
288.5281	0.1663
288.7409	0.1814
288.9538	0.1754
289.1666	0.1826
289.3794	0.1864
289.5922	0.1784
289.8049	0.1797
290.0177	0.1716
290.2304	0.181
290.4432	0.1804
290.6559	0.1867
290.8686	0.176
291.0813	0.1726
291.294	0.1777
291.5067	0.1798
291.7194	0.1688
291.932	0.1939
292.1447	0.1814
292.3573	0.1748
292.5699	0.1719
292.7825	0.1804
292.9951	0.1652
293.2077	0.1723
293.4203	0.1691
293.6328	0.1671
293.8454	0.1753
294.0579	0.1754
294.2704	0.1664
294.4829	0.1594
294.6954	0.177
294.9079	0.1688
295.1204	0.1656
295.3328	0.1684
295.5453	0.163
295.7577	0.1715
295.9701	0.1687
296.1825	0.1703
296.3949	0.1736
296.6073	0.1694
296.8197	0.1516
297.0321	0.1755
297.2444	0.1498
297.4567	0.1589
297.6691	0.1747
297.8814	0.1571
298.0937	0.1683
298.306	0.1745
298.5182	0.1769
298.7305	0.1703
298.9428	0.1666
299.155	0.1624
299.3672	0.1642
299.5794	0.163
299.7916	0.1683
300.0038	0.1715
300.216	0.1714
300.4282	0.1617
300.6403	0.1609
300.8525	0.1643
301.0646	0.1618
301.2767	0.1664
301.4888	0.1583
301.7009	0.1614
301.913	0.1595
302.125	0.1662
302.3371	0.1559
302.5491	0.1551
302.7612	0.1696
302.9732	0.1709
303.1852	0.1695
303.3972	0.1691
303.6092	0.1655
303.8211	0.1456
304.0331	0.1466
304.245	0.1512
304.457	0.1426
304.6689	0.1545
304.8808	0.1622
305.0927	0.1451
305.3046	0.1499
305.5164	0.1566
305.7283	0.1432
305.9401	0.1573
306.152	0.1482
306.3638	0.1612
306.5756	0.1412
306.7874	0.1451
306.9992	0.1425
307.2109	0.1501
307.4227	0.1385
307.6344	0.1427
307.8462	0.135
308.0579	0.1351
308.2696	0.1365
308.4813	0.1405
308.693	0.141
308.9046	0.1429
309.1163	0.1195
309.328	0.1321
309.5396	0.1198
309.7512	0.1258
309.9628	0.1255
310.1744	0.1242
310.386	0.1277
310.5976	0.1242
310.8091	0.1298
311.0207	0.1245
311.2322	0.1232
311.4437	0.1264
311.6552	0.1195
311.8667	0.12
312.0782	0.1104
312.2897	0.1022
312.5012	0.1186
312.7126	0.106
312.924	0.1091
313.1355	0.1201
313.3469	0.1059
313.5583	0.1212
313.7696	0.1135
313.981	0.1145
314.1924	0.1108
314.4037	0.1086
314.6151	0.1158
314.8264	0.1054
315.0377	0.1033
315.249	0.1079
315.4603	0.1183
315.6716	0.1088
315.8828	0.0946
316.0941	0.1015
316.3053	0.1034
316.5165	0.0886
316.7277	0.0936
316.9389	0.1157
317.1501	0.0998
317.3613	0.1102
317.5724	0.0892
317.7836	0.1112
317.9947	0.1111
318.2058	0.1045
318.417	0.097
318.6281	0.1019
318.8391	0.1004
319.0502	0.0964
319.2613	0.1067
319.4723	0.1174
319.6834	0.1145
319.8944	0.1011
320.1054	0.1037
320.3164	0.1186
320.5274	0.1065
320.7383	0.1085
320.9493	0.1065
321.1602	0.1247
321.3712	0.0892
321.5821	0.123
321.793	0.107
322.0039	0.1207
322.2148	0.1034
322.4257	0.1131
322.6365	0.1247
322.8474	0.1133
323.0582	0.101
323.269	0.1096
323.4798	0.1202
323.6906	0.1072
323.9014	0.1119
324.1122	0.1238
324.3229	0.1109
324.5337	0.1145
324.7444	0.1002
324.9551	0.122
325.1658	0.1158
325.3765	0.1129
325.5872	0.1142
325.7979	0.1052
326.0085	0.1052
326.2192	0.1176
326.4298	0.1204
326.6404	0.1012
326.851	0.1023
327.0616	0.1089
327.2722	0.1165
327.4828	0.1156
327.6933	0.1048
327.9039	0.1101
328.1144	0.1232
328.3249	0.1124
328.5354	0.1209
328.7459	0.1135
328.9564	0.0985
329.1669	0.1218
329.3773	0.1085
329.5878	0.1109
329.7982	0.1094
330.0086	0.1106
330.219	0.1079
330.4294	0.1077
330.6398	0.1037
330.8502	0.1152
331.0605	0.1272
331.2708	0.1065
331.4812	0.1223
331.6915	0.1242
331.9018	0.1136
332.1121	0.0979
332.3224	0.1084
332.5326	0.118
332.7429	0.1187
332.9531	0.1313
333.1633	0.1124
333.3735	0.1135
333.5837	0.1185
333.7939	0.1131
334.0041	0.1272
334.2143	0.1235
334.4244	0.1195
334.6346	0.0978
334.8447	0.1202
335.0548	0.112
335.2649	0.1095
335.475	0.1195
335.685	0.1129
335.8951	0.1314
336.1051	0.1316
336.3152	0.1223
336.5252	0.1157
336.7352	0.1267
336.9452	0.1181
337.1552	0.1254
337.3652	0.1208
337.5751	0.1143
337.7851	0.1162
337.995	0.1151
338.2049	0.1187
338.4148	0.1235
338.6247	0.1308
338.8346	0.1297
339.0445	0.1104
339.2543	0.1184
339.4642	0.1305
339.674	0.1126
339.8838	0.1244
340.0936	0.1193
340.3034	0.1423
340.5132	0.1388
340.7229	0.1342
340.9327	0.124
341.1424	0.1301
341.3522	0.1399
341.5619	0.133
341.7716	0.1253
341.9813	0.1327
342.1909	0.118
342.4006	0.1438
342.6102	0.1346
342.8199	0.134
343.0295	0.1384
343.2391	0.1295
343.4487	0.1311
343.6583	0.1318
343.8679	0.122
344.0774	0.1297
344.287	0.1366
344.4965	0.1296
344.706	0.1296
344.9155	0.1383
345.125	0.1316
345.3345	0.1363
345.544	0.118
345.7534	0.1398
345.9629	0.1286
346.1723	0.1372
346.3817	0.1398
346.5911	0.1347
346.8005	0.1552
347.0099	0.1332
347.2193	0.141
347.4286	0.1327
347.638	0.143
347.8473	0.1537
348.0566	0.1476
348.2659	0.1435
348.4752	0.1387
348.6845	0.1332
348.8937	0.1286
349.103	0.1401
349.3122	0.1346
349.5214	0.1398
349.7306	0.1522
349.9398	0.1461
350.149	0.1417
350.3582	0.1371
350.5674	0.1638
350.7765	0.1462
350.9856	0.1505
351.1948	0.1404
351.4039	0.1462
351.613	0.1287
351.822	0.1535
352.0311	0.146
352.2402	0.1509
352.4492	0.1513
352.6582	0.1478
352.8672	0.1391
353.0762	0.1463
353.2852	0.1556
353.4942	0.1443
353.7032	0.1581
353.9121	0.1402
354.1211	0.1505
354.33	0.1456
354.5389	0.1402
354.7478	0.1493
354.9567	0.144
355.1655	0.1398
355.3744	0.1651
355.5833	0.1573
355.7921	0.1638
356.0009	0.1586
356.2097	0.1608
356.4185	0.1778
356.6273	0.1686
356.8361	0.1626
357.0448	0.1543
357.2536	0.1529
357.4623	0.144
357.671	0.1618
357.8797	0.1734
358.0884	0.1635
358.2971	0.1724
358.5057	0.1624
358.7144	0.1648
358.923	0.1585
359.1316	0.168
359.3402	0.1636
359.5488	0.1718
359.7574	0.1533
359.966	0.1827
360.1746	0.1902
360.3831	0.1818
360.5916	0.1664
360.8002	0.1789
361.0087	0.1706
361.2172	0.179
361.4256	0.183
361.6341	0.1837
361.8426	0.1763
362.051	0.1734
362.2594	0.1857
362.4678	0.1805
362.6762	0.1857
362.8846	0.1857
363.093	0.1768
363.3014	0.1821
363.5097	0.1683
363.718	0.1772
363.9264	0.1811
364.1347	0.1946
364.343	0.1811
364.5513	0.2026
364.7595	0.2092
364.9678	0.1856
365.176	0.1848
365.3842	0.1833
365.5925	0.1909
365.8007	0.1782
366.0089	0.1872
366.217	0.1847
366.4252	0.2004
366.6333	0.2002
366.8415	0.1905
367.0496	0.1816
367.2577	0.1995
367.4658	0.1911
367.6739	0.2017
367.882	0.1911
368.09	0.1992
368.2981	0.214
368.5061	0.1914
368.7141	0.2079
368.9221	0.1875
369.1301	0.201
369.3381	0.2063
369.5461	0.1976
369.754	0.1968
369.962	0.2004
370.1699	0.1953
370.3778	0.2201
370.5857	0.1986
370.7936	0.2041
371.0015	0.1986
371.2093	0.1995
371.4172	0.2052
371.625	0.1928
371.8328	0.2084
372.0406	0.2131
372.2484	0.2002
372.4562	0.2096
372.664	0.2004
372.8717	0.216
373.0795	0.2069
373.2872	0.203
373.4949	0.2051
373.7026	0.2128
373.9103	0.2079
374.118	0.2249
374.3256	0.2156
374.5333	0.2139
374.7409	0.205
374.9485	0.2362
375.1561	0.2214
375.3637	0.2178
375.5713	0.209
375.7789	0.2095
375.9864	0.225
376.194	0.2012
376.4015	0.229
376.609	0.2291
376.8165	0.2238
377.024	0.2068
377.2315	0.2024
377.4389	0.2235
377.6464	0.2271
377.8538	0.2147
378.0612	0.2135
378.2686	0.2231
378.476	0.2336
378.6834	0.2306
378.8908	0.2146
379.0981	0.2354
379.3055	0.2257
379.5128	0.224
379.7201	0.2281
379.9274	0.2122
380.1347	0.2295
380.342	0.2471
380.5492	0.2181
380.7565	0.2197
380.9637	0.2303
381.1709	0.2182
381.3781	0.2211
381.5853	0.2387
381.7925	0.2292
381.9997	0.2355
382.2068	0.2343
382.4139	0.2345
382.6211	0.2238
382.8282	0.2159
383.0353	0.2296
383.2424	0.2336
383.4494	0.2354
383.6565	0.2223
383.8635	0.2174
384.0706	0.2186
384.2776	0.2366
384.4846	0.2302
384.6916	0.2348
384.8986	0.2249
385.1055	0.2394
385.3125	0.241
385.5194	0.1963
385.7263	0.236
385.9333	0.2308
386.1402	0.2427
386.347	0.2433
386.5539	0.2106
386.7608	0.2263
386.9676	0.2134
387.1744	0.2307
387.3813	0.2223
387.5881	0.2285
387.7948	0.2218
388.0016	0.2161
388.2084	0.23
388.4151	0.2141
388.6219	0.2187
388.8286	0.228
389.0353	0.2266
389.242	0.2167
389.4487	0.2166
389.6553	0.2199
389.862	0.1965
390.0686	0.221
390.2753	0.2223
390.4819	0.2298
390.6885	0.2104
390.8951	0.2155
391.1016	0.2168
391.3082	0.209
391.5147	0.2162
391.7213	0.215
391.9278	0.2019
392.1343	0.208
392.3408	0.2133
392.5473	0.2185
392.7537	0.2054
392.9602	0.2098
393.1666	0.1899
393.373	0.2154
393.5794	0.2177
393.7858	0.2036
393.9922	0.182
394.1986	0.2185
394.4049	0.2046
394.6113	0.1897
394.8176	0.1832
395.0239	0.1968
395.2302	0.2042
395.4365	0.1964
395.6428	0.1986
395.8491	0.1869
396.0553	0.1925
396.2615	0.2036
396.4678	0.2
396.674	0.1812
396.8802	0.186
397.0863	0.2043
397.2925	0.1825
397.4987	0.1752
397.7048	0.1924
397.9109	0.2051
398.117	0.1855
398.3231	0.1906
398.5292	0.1959
398.7353	0.2001
398.9413	0.185
399.1474	0.183
399.3534	0.1973
399.5594	0.1787
399.7654	0.1926
399.9714	0.193
400.1774	0.1994
400.3833	0.1839
400.5893	0.1925
400.7952	0.1822
401.0011	0.1935
401.207	0.1946
401.4129	0.1814
401.6188	0.1883
401.8247	0.1917
402.0305	0.1719
402.2364	0.1782
402.4422	0.2019
402.648	0.1858
402.8538	0.1959
403.0596	0.181
403.2654	0.1991
403.4711	0.1936
403.6768	0.1826
403.8826	0.1936
404.0883	0.1892
404.294	0.1891
404.4997	0.1938
404.7054	0.1947
404.911	0.1762
405.1167	0.1979
405.3223	0.1968
405.5279	0.1897
405.7335	0.2005
405.9391	0.191
406.1447	0.1924
406.3502	0.2015
406.5558	0.1865
406.7613	0.1759
406.9668	0.1972
407.1724	0.1736
407.3778	0.1827
407.5833	0.1854
407.7888	0.16
407.9942	0.1989
408.1997	0.1724
408.4051	0.1914
408.6105	0.1938
408.8159	0.1816
409.0213	0.1719
409.2267	0.1968
409.432	0.1834
409.6374	0.189
409.8427	0.1745
410.048	0.1884
410.2533	0.1886
410.4586	0.186
410.6639	0.1637
410.8691	0.1682
411.0744	0.1763
411.2796	0.174
411.4848	0.1924
411.69	0.1645
411.8952	0.1801
412.1004	0.1704
412.3056	0.2005
412.5107	0.1762
412.7158	0.1997
412.921	0.1942
413.1261	0.194
413.3312	0.1625
413.5362	0.1757
413.7413	0.1745
413.9464	0.1762
414.1514	0.2023
414.3564	0.1799
414.5614	0.1546
414.7664	0.1829
414.9714	0.2037
415.1764	0.1808
415.3813	0.1803
415.5863	0.1715
415.7912	0.1768
415.9961	0.1825
416.201	0.1859
416.4059	0.1748
416.6108	0.1537
416.8156	0.1922
417.0205	0.1674
417.2253	0.1741
417.4301	0.191
417.6349	0.1783
417.8397	0.1708
418.0445	0.1608
418.2492	0.1679
418.454	0.1761
418.6587	0.1789
418.8634	0.1727
419.0681	0.1617
419.2728	0.1573
419.4775	0.1648
419.6822	0.1719
419.8868	0.1439
420.0915	0.1662
420.2961	0.1464
420.5007	0.1578
420.7053	0.1777
420.9099	0.1709
421.1144	0.1721
421.319	0.1522
421.5235	0.1772
421.728	0.1664
421.9325	0.1608
422.137	0.1783
422.3415	0.1617
422.546	0.162
422.7504	0.1692
422.9549	0.1734
423.1593	0.1636
423.3637	0.1579
423.5681	0.1587
423.7725	0.1487
423.9769	0.1593
424.1812	0.1479
424.3856	0.1452
424.5899	0.1713
424.7942	0.149
424.9985	0.1595
425.2028	0.1375
425.4071	0.1686
425.6113	0.1313
425.8156	0.1679
426.0198	0.1387
426.224	0.1469
426.4282	0.1431
426.6324	0.1352
426.8366	0.1454
427.0407	0.1224
427.2449	0.1481
427.449	0.1411
427.6531	0.1263
427.8572	0.142
428.0613	0.1411
428.2654	0.1496
428.4694	0.1354
428.6735	0.144
428.8775	0.152
429.0815	0.1485
429.2855	0.1247
429.4895	0.1475
429.6935	0.1243
429.8975	0.1338
430.1014	0.1297
430.3053	0.1308
430.5093	0.1285
430.7132	0.112
430.9171	0.1147
431.1209	0.1202
431.3248	0.1238
431.5286	0.1129
431.7325	0.1126
431.9363	0.1118
432.1401	0.1163
432.3439	0.1071
432.5477	0.1051
432.7514	0.0942
432.9552	0.1028
433.1589	0.1076
433.3627	0.1074
433.5664	0.1054
433.7701	0.104
433.9737	0.1092
434.1774	0.1019
434.3811	0.0912
434.5847	0.0894
434.7883	0.0927
434.9919	0.0946
435.1955	0.0889
435.3991	0.0918
435.6027	0.0966
435.8062	0.0888
436.0098	0.0861
436.2133	0.0942
436.4168	0.0773
436.6203	0.0886
436.8238	0.0935
437.0272	0.0764
437.2307	0.1019
437.4341	0.0851
437.6375	0.086
437.841	0.0829
438.0443	0.0868
438.2477	0.0854
438.4511	0.0716
438.6545	0.0791
438.8578	0.083
439.0611	0.0687
439.2644	0.0754
439.4677	0.0639
439.671	0.0547
439.8743	0.0751
440.0775	0.0707
440.2808	0.0597
440.484	0.0603
440.6872	0.0503
440.8904	0.0605
441.0936	0.0796
441.2967	0.076
441.4999	0.063
441.703	0.0541
441.9062	0.0487
442.1093	0.0566
442.3124	0.0562
442.5155	0.04
442.7185	0.0475
442.9216	0.0342
443.1246	0.066
443.3276	0.0463
443.5307	0.0477
443.7337	0.0586
443.9366	0.0502
444.1396	0.0402
444.3426	0.0476
444.5455	0.0575
444.7484	0.0432
444.9513	0.0552
445.1542	0.0553
445.3571	0.0336
445.56	0.0519
445.7628	0.0293
445.9657	0.0281
446.1685	0.0398
446.3713	0.0507
446.5741	0.0461
446.7769	0.0187
446.9797	0.0442
447.1824	0.0298
447.3852	0.04
447.5879	0.0364
447.7906	0.0506
447.9933	0.0444
448.196	0.0209
448.3986	0.0208
448.6013	0.0292
448.8039	0.0145
449.0066	0.0078
449.2092	0.0356
449.4118	0.0389
449.6143	0.0244
449.8169	0.0362
450.0195	0.0152
450.222	0.0148
450.4245	0.0165
450.627	0.0318
450.8295	0.0184
451.032	0.0145
451.2345	0.0264
451.4369	0.0169
451.6394	0.0334
451.8418	0.0149
452.0442	0.0127
452.2466	0.0222
452.449	0.0039
452.6513	0.0155
452.8537	0.0112
453.056	0.0002
453.2583	0.0132
453.4607	0.0129
453.663	-0.0019
453.8652	0.0245
454.0675	-0.0066
454.2697	0.0155
454.472	0.0095
454.6742	0.0229
454.8764	0.0178
455.0786	0.0297
455.2808	0.003
455.4829	0.0199
455.6851	0.0069
455.8872	0.019
456.0893	0.0264
456.2915	-0.0034
456.4935	0.0077
456.6956	0.0045
456.8977	0.0146
457.0997	0.0183
457.3018	-0.0033
457.5038	0.0017
457.7058	0.0112
457.9078	-0.0075
458.1098	0.0177
458.3117	0.0064
458.5137	0.003
458.7156	0.0184
458.9175	0.0091
459.1194	0.0015
459.3213	0.0081
459.5232	0.0153
459.725	-0.0058
459.9269	0.0015
460.1287	-0.0036
460.3305	0.0001
460.5323	0.0063
460.7341	-0.0105
460.9359	0.004
461.1376	0.0103
461.3394	0.0034
461.5411	0.0012
461.7428	-0.0024
461.9445	0.0044
462.1462	0.0155
462.3479	-0.0038
462.5495	0.0069
462.7512	0.0076
462.9528	-0.0029
463.1544	-0.0226
463.356	0.0086
463.5576	0.0037
463.7592	0.0044
463.9607	0.0056
464.1623	0.0041
464.3638	0.0107
464.5653	-0.0268
464.7668	0.009
464.9683	0.0052
465.1697	0.0039
465.3712	-0.013
465.5726	-0.0134
465.7741	0.0006
465.9755	-0.0082
466.1769	-0.0027
466.3782	-0.0071
466.5796	-0.0046
466.7809	0.0038
466.9823	-0.0145
467.1836	-0.0007
467.3849	-0.0031
467.5862	-0.0132
467.7875	-0.0061
467.9887	0.0072
468.19	-0.0222
468.3912	-0.0121
468.5924	-0.0032
468.7936	-0.003
468.9948	0.0069
469.196	0.0064
469.3972	-0.0031
469.5983	0.0051
469.7994	-0.0242
470.0006	-0.0155
470.2017	-0.0156
470.4027	-0.0168
470.6038	0.0041
470.8049	-0.0108
471.0059	-0.0064
471.2069	-0.0225
471.408	0.0111
471.6089	0.0063
471.8099	-0.0063
472.0109	0.0064
472.2119	-0.0193
472.4128	-0.0324
472.6137	0.0042
472.8146	-0.021
473.0155	-0.0116
473.2164	-0.0034
473.4173	-0.0027
473.6181	-0.0027
473.819	0.0033
474.0198	-0.0338
474.2206	-0.012
474.4214	-0.0157
474.6222	0.0016
474.8229	-0.01
475.0237	-0.0265
475.2244	-0.0093
475.4251	-0.0092
475.6258	-0.0019
475.8265	-0.011
476.0272	0.0023
476.2278	0.0077
476.4285	-0.0022
476.6291	-0.0215
476.8297	-0.0188
477.0303	-0.0065
477.2309	-0.0045
477.4315	-0.0101
477.632	-0.0107
477.8326	-0.0079
478.0331	-0.0115
478.2336	-0.0015
478.4341	-0.0084
478.6346	-0.001
478.8351	-0.0096
479.0355	-0.0179
479.236	-0.0123
479.4364	-0.0074
479.6368	-0.0017
479.8372	-0.0097
480.0376	-0.0011
480.2379	-0.0207
480.4383	-0.0171
480.6386	-0.0136
480.8389	-0.0009
481.0392	-0.0116
481.2395	-0.0126
481.4398	-0.007
481.6401	0.001
481.8403	-0.0141
482.0405	-0.0144
482.2408	-0.0144
482.441	0.0095
482.6411	-0.006
482.8413	-0.0072
483.0415	-0.0106
483.2416	-0.0124
483.4417	0.0017
483.6419	-0.0035
483.8419	-0.0117
484.042	-0.0013
484.2421	0.0062
484.4422	-0.0052
484.6422	-0.01
484.8422	-0.0059
485.0422	-0.0095
485.2422	-0.0014
485.4422	-0.0231
485.6422	-0.0105
485.8421	-0.0089
486.042	-0.0096
486.242	-0.0092
486.4419	-0.0098
486.6417	-0.0215
486.8416	-0.0061
487.0415	-0.0037
487.2413	-0.0104
487.4411	-0.0073
487.641	-0.0082
487.8408	0.0035
488.0405	-0.0051
488.2403	-0.0063
488.4401	-0.001
488.6398	0.0012
488.8395	-0.0034
489.0392	-0.008
489.2389	-0.0174
489.4386	-0.0015
489.6383	-0.0055
489.8379	-0.0019
490.0376	-0.0069
490.2372	-0.0166
490.4368	-0.0079
490.6364	-0.011
490.836	-0.0165
491.0355	-0.0085
491.2351	-0.0096
491.4346	-0.0027
491.6341	-0.0126
491.8336	-0.01
492.0331	-0.0155
492.2326	-0.018
492.432	-0.0028
492.6315	-0.0066
492.8309	-0.0132
493.0303	-0.0141
493.2297	-0.0047
493.4291	-0.0071
493.6284	-0.0064
493.8278	0.0024
494.0271	-0.0064
494.2264	0.0014
494.4257	-0.0142
494.625	0.0021
494.8243	-0.0224
495.0236	-0.0133
495.2228	-0.0184
495.422	0.001
495.6213	-0.003
495.8205	-0.0064
496.0196	-0.0078
496.2188	-0.0074
496.418	-0.0216
496.6171	-0.0068
496.8162	-0.0122
497.0153	-0.0041
497.2144	-0.0091
497.4135	-0.0118
497.6126	-0.0151
497.8116	-0.0128
498.0107	-0.0078
498.2097	-0.0127
498.4087	-0.0139
498.6077	-0.0074
498.8067	-0.0211
499.0056	0.0064
499.2046	-0.0085
499.4035	-0.0271
499.6024	-0.0057
499.8013	-0.0085
500.0002	-0.0078
500.199	-0.0117
500.3979	-0.0072
500.5967	-0.0326
500.7956	-0.0076
500.9944	-0.0093
501.1932	-0.0105
501.3919	-0.0046
501.5907	-0.0105
501.7895	-0.0066
501.9882	-0.0167
502.1869	0.0037
502.3856	-0.0206
502.5843	-0.0088
502.783	-0.0114
502.9816	-0.0081
503.1803	-0.0201
503.3789	-0.0172
503.5775	-0.0051
503.7761	-0.0116
503.9747	-0.0083
504.1732	-0.0134
504.3718	-0.0014
504.5703	-0.0185
504.7689	-0.0093
504.9674	-0.011
505.1658	-0.0141
505.3643	-0.0018
505.5628	-0.0138
505.7612	-0.0154
505.9597	-0.0025
506.1581	-0.0077
506.3565	0.0058
506.5549	-0.0127
506.7532	-0.0089
506.9516	-0.0061
507.1499	-0.006
507.3482	-0.0222
507.5465	-0.0136
507.7448	-0.0043
507.9431	-0.0163
508.1414	-0.0066
508.3396	-0.0115
508.5379	-0.0032
508.7361	-0.0178
508.9343	-0.0111
509.1325	-0.0064
509.3306	-0.0094
509.5288	-0.0088
509.7269	-0.0137
509.9251	-0.0029
510.1232	-0.0186
510.3213	-0.0021
510.5193	-0.002
510.7174	-0.0227
510.9154	-0.009
511.1135	-0.0131
511.3115	-0.0078
511.5095	-0.0107
511.7075	-0.0041
511.9055	-0.0139
512.1034	-0.0177
512.3014	-0.0024
512.4993	-0.0038
512.6972	0.0058
512.8951	-0.0164
513.093	-0.0088
513.2908	-0.0046
513.4887	-0.0025
513.6865	-0.0023
513.8844	-0.006
514.0822	-0.0141
514.2799	-0.0138
514.4777	-0.0095
514.6755	-0.0132
514.8732	-0.0193
515.0709	-0.0147
515.2687	-0.0154
515.4664	-0.0089
515.664	-0.0107
515.8617	-0.005
516.0594	-0.0163
516.257	-0.0032
516.4546	-0.0166
516.6522	-0.0069
516.8498	-0.0109
517.0474	0.0008
517.2449	-0.0108
517.4425	-0.0192
517.64	-0.013
517.8375	-0.0005
518.035	-0.0016
518.2325	-0.0109
518.43	-0.0069
518.6274	-0.014
518.8249	-0.0166
519.0223	0.0001
519.2197	-0.015
519.4171	-0.0088
519.6145	-0.0195
519.8118	-0.0034
520.0092	-0.0078
520.2065	-0.0102
520.4038	-0.0213
520.6011	-0.0114
520.7984	-0.0217
520.9956	-0.0092
521.1929	-0.0045
521.3901	-0.0095
521.5874	-0.0094
521.7846	-0.005
521.9818	-0.0064
522.1789	-0.018
522.3761	-0.0097
522.5732	-0.0047
522.7704	-0.0056
522.9675	-0.0052
523.1646	-0.0189
523.3617	-0.0141
523.5587	-0.0043
523.7558	-0.0002
523.9528	-0.0197
524.1498	-0.0101
524.3468	-0.0097
524.5438	-0.0148
524.7408	0.0013
524.9378	0.002
525.1347	0.0003
525.3316	0.0031
525.5285	-0.0079
525.7254	-0.0096
525.9223	-0.0136
526.1192	-0.0089
526.316	-0.0214
526.5129	-0.0015
526.7097	-0.0138
526.9065	-0.009
527.1033	-0.0038
527.3	-0.0044
527.4968	-0.0059
527.6935	-0.0045
527.8903	-0.0156
528.087	-0.0138
528.2837	-0.0089
528.4804	-0.005
528.677	-0.0019
528.8737	0.0064
529.0703	-0.0071
529.2669	-0.0055
529.4635	-0.0109
529.6601	-0.0058
529.8567	-0.0087
530.0532	-0.0118
530.2498	-0.0087
530.4463	-0.009
530.6428	-0.0018
530.8393	0.002
531.0358	-0.0107
531.2322	-0.0116
531.4287	-0.0119
531.6251	-0.0162
531.8215	0.0006
532.0179	-0.0101
532.2143	0.0018
532.4107	-0.0031
532.607	-0.003
532.8034	-0.0032
532.9997	-0.0047
533.196	-0.0093
533.3923	-0.0153
533.5886	-0.0107
533.7848	-0.0141
533.9811	-0.0053
534.1773	0.0025
534.3735	0.0057
534.5697	-0.0057
534.7659	0.0003
534.9621	-0.0008
535.1582	-0.0106
535.3544	-0.0148
535.5505	-0.0126
535.7466	-0.0015
535.9427	-0.0056
536.1387	-0.0172
536.3348	-0.0088
536.5308	0.0032
536.7269	-0.0185
536.9229	-0.0068
537.1189	-0.0041
537.3148	-0.0039
537.5108	-0.0161
537.7068	-0.0023
537.9027	-0.0123
538.0986	-0.0118
538.2945	-0.015
538.4904	-0.0071
538.6863	-0.0014
538.8821	-0.0087
539.078	-0.0061
539.2738	0.0007
539.4696	-0.0111
539.6654	-0.0024
539.8611	0.0082
540.0569	-0.0055
540.2526	-0.0163
540.4484	-0.0075
540.6441	-0.0063
540.8398	-0.0021
541.0355	-0.0083
541.2311	-0.0094
541.4268	-0.0172
541.6224	0.0001
541.818	-0.0097
542.0136	-0.0089
542.2092	-0.0029
542.4048	0.0019
542.6003	-0.0039
542.7959	-0.0046
542.9914	-0.0201
543.1869	-0.0062
543.3824	-0.0028
543.5779	-0.0093
543.7734	-0.0112
543.9688	0.0015
544.1642	0.004
544.3596	-0.0003
544.555	-0.0167
544.7504	-0.006
544.9458	-0.005
545.1411	-0.0042
545.3365	-0.0024
545.5318	-0.0082
545.7271	-0.0036
545.9224	-0.0009
546.1177	-0.0046
546.3129	0.0029
546.5081	-0.0154
546.7034	-0.0051
546.8986	-0.0143
547.0938	-0.0079
547.289	-0.0073
547.4841	-0.0036
547.6793	0.0033
547.8744	-0.0127
548.0695	-0.0048
548.2646	-0.0123
548.4597	0.0011
548.6548	-0.0042
548.8498	-0.0021
549.0448	0.0051
549.2399	-0.0018
549.4349	0.0031
549.6298	0.003
549.8248	0.0016
550.0198	-0.0046
550.2147	0.0003
550.4096	-0.0042
550.6045	-0.0026
550.7994	0.0019
550.9943	-0.0035
551.1892	-0.0064
551.384	0.0023
551.5788	-0.0129
551.7737	-0.0042
551.9685	-0.0005
552.1632	-0.0013
552.358	-0.0037
552.5528	-0.0035
552.7475	0.0018
552.9422	-0.0008
553.1369	0.0042
553.3316	0.005
553.5263	-0.0072
553.7209	0.0078
553.9156	-0.0006
554.1102	-0.0052
554.3048	-0.0024
554.4994	0.0013
554.694	-0.0075
554.8885	0.0011
555.0831	-0.0059
555.2776	-0.0064
555.4721	-0.0095
555.6666	-0.0061
555.8611	0.0005
556.0555	-0.0054
556.25	-0.0061
556.4444	-0.0108
556.6388	-0.0021
556.8332	-0.0115
557.0276	-0.0143
557.222	-0.0076
557.4163	-0.0071
557.6107	-0.007
557.805	-0.006
557.9993	-0.01
558.1936	-0.0005
558.3879	-0.0051
558.5821	-0.0012
558.7764	-0.0081
558.9706	-0.006
559.1648	-0.0006
559.359	-0.0033
559.5532	-0.0141
559.7473	-0.0037
559.9415	0.0007
560.1356	-0.0113
560.3297	-0.0099
560.5238	-0.003
560.7179	-0.0108
560.9119	0.0026
561.106	-0.0006
561.3	-0.0016
561.494	-0.005
561.688	0.002
561.882	-0.0126
562.076	-0.0078
562.2699	-0.0027
562.4639	0.0067
562.6578	0.0005
562.8517	0.0021
563.0456	-0.0007
563.2395	-0.0006
563.4333	-0.0016
563.6272	0.0084
563.821	-0.0104
564.0148	-0.0004
564.2086	-0.0075
564.4024	-0.0062
564.5961	-0.0084
564.7899	0.0002
564.9836	-0.0104
565.1773	-0.0014
565.371	0.0043
565.5647	0.0032
565.7584	-0.0052
565.952	0.0045
566.1456	0.0026
566.3393	-0.0042
566.5329	-0.0081
566.7264	-0.0013
566.92	-0.0052
567.1136	-0.0011
567.3071	-0.0068
567.5006	0.004
567.6941	-0.0049
567.8876	-0.002
568.0811	-0.0047
568.2745	0.0004
568.468	-0.0057
568.6614	-0.0031
568.8548	-0.0042
569.0482	-0.0005
569.2416	0.0019
569.4349	-0.0041
569.6283	0.0002
569.8216	-0.0049
570.0149	-0.0065
570.2082	0.0004
570.4015	0.0057
570.5947	0.0021
570.788	0.0034
570.9812	0.0024
571.1744	-0.0023
571.3676	-0.0063
571.5608	-0.0042
571.754	0.003
571.9471	-0.0017
572.1402	0.0009
572.3333	-0.0007
572.5264	-0.0058
572.7195	0.0006
572.9126	-0.0007
573.1057	-0.0014
573.2987	-0.0037
573.4917	0.0051
573.6847	-0.0054
573.8777	0.0005
574.0707	0.0052
574.2636	-0.0053
574.4566	-0.0008
574.6495	0.0038
574.8424	-0.0049
575.0353	-0.0022
575.2281	0.005
575.421	0.0044
575.6138	0.0059
575.8067	-0.0028
575.9995	0.0003
576.1923	0.0026
576.385	0.0007
576.5778	-0.0042
576.7706	0.0041
576.9633	-0.0052
577.156	0.0057
577.3487	0.0014
577.5414	-0.001
577.734	-0.0064
577.9267	0.0038
578.1193	-0.0032
578.3119	-0.0035
578.5045	0.0078
578.6971	-0.0029
578.8897	0.0048
579.0822	0.0018
579.2747	0.003
579.4673	0.0051
579.6598	-0.0024
579.8522	-0.0021
580.0447	-0.0098
580.2372	0.0024
580.4296	0.0052
580.622	-0.0038
580.8144	-0.0012
581.0068	-0.0052
581.1992	-0.0141
581.3915	-0.0093
581.5839	-0.0077
581.7762	-0.0078
581.9685	-0.0011
582.1608	0.0013
582.353	-0.0037
582.5453	0.0018
582.7375	0.0029
582.9298	0.0028
583.122	0.0017
583.3142	0.0012
583.5063	-0.0015
583.6985	0.0007
583.8906	-0.0044
584.0827	-0.004
584.2749	0.0055
584.4669	0.004
584.659	-0.0019
584.8511	-0.0037
585.0431	-0.0005
585.2352	-0.0019
585.4272	0.0004
585.6192	0.0015
585.8111	0.0001
586.0031	-0.0056
586.195	-0.0001
586.387	0.0044
586.5789	0.0044
586.7708	0.0018
586.9627	0.0057
587.1545	-0.0045
587.3464	0.0045
587.5382	0.0063
587.73	0.0031
587.9218	0.0065
588.1136	-0.0025
588.3053	0.0032
588.4971	-0.0082
588.6888	-0.0097
588.8805	-0.0054
589.0722	0.004
589.2639	-0.0028
589.4556	0.0024
589.6472	-0.0006
589.8389	-0.009
590.0305	-0.0047
590.2221	-0.0014
590.4137	-0.0091
590.6052	0.0048
590.7968	0
590.9883	0.0044
591.1798	-0.0006
591.3713	0.0038
591.5628	0.0046
591.7543	0.0079
591.9458	0.001
592.1372	0.0016
592.3286	0.0099
592.52	0.0101
592.7114	-0.0053
592.9028	-0.001
593.0941	0.0027
593.2855	0.0016
593.4768	-0.0065
593.6681	-0.0048
593.8594	0.0028
594.0506	0.0047
594.2419	0.0109
594.4331	0.0024
594.6244	0.0085
594.8156	-0.0037
595.0067	-0.005
595.1979	0.0031
595.3891	0.0001
595.5802	0.0001
595.7713	-0.0029
595.9624	-0.0084
596.1535	0.0088
596.3446	0.0011
596.5357	-0.0024
596.7267	0.0051
596.9177	0.0046
597.1087	-0.0007
597.2997	-0.0003
597.4907	-0.0076
597.6817	-0.0002
597.8726	-0.0004
598.0635	-0.0055
598.2544	0.0019
598.4453	-0.005
598.6362	-0.0026
598.827	-0.0075
599.0179	0.0039
599.2087	0.0017
599.3995	0.0017
599.5903	0.0007
599.7811	0.0045
599.9718	0.0009
600.1626	0.0017
600.3533	-0.0093
600.544	0.0036
600.7347	0.0048
600.9254	0.0011
601.116	-0.0095
601.3067	-0.0006
601.4973	-0.0045
601.6879	0.0003
601.8785	-0.0024
602.0691	0.0021
602.2596	0.0028
602.4502	0.0032
602.6407	0.0021
602.8312	0.0034
603.0217	-0.0126
603.2122	-0.0047
603.4027	0.0014
603.5931	-0.0005
603.7835	-0.0064
603.9739	-0.0056
604.1643	-0.0068
604.3547	-0.012
604.5451	0.0031
604.7354	-0.0005
604.9257	-0.0027
605.116	-0.0053
605.3063	0.0009
605.4966	0.0094
605.6869	0.004
605.8771	0.0008
606.0673	0.0012
606.2575	0.0081
606.4477	0.006
606.6379	-0.0007
606.8281	0.0062
607.0182	-0.0031
607.2083	0.0117
607.3985	0.0028
607.5885	0.0003
607.7786	0.0041
607.9687	-0.0071
608.1587	0.0034
608.3488	-0.0059
608.5388	-0.0017
608.7288	0.001
608.9187	0.0031
609.1087	-0.0026
609.2986	-0.0004
609.4886	0.0028
609.6785	0.0002
609.8684	0.0096
610.0582	0.0037
610.2481	0.01
610.4379	0.0005
610.6278	0.0016
610.8176	0.0018
611.0074	-0.0035
611.1971	-0.0046
611.3869	-0.0003
611.5766	-0.009
611.7664	0.0025
611.9561	0.0059
612.1458	0.0009
612.3354	-0.0057
612.5251	-0.0023
612.7147	0.0046
612.9044	0.0066
613.094	-0.0031
613.2836	0.0011
613.4731	-0.0009
613.6627	-0.0096
613.8522	0.0053
614.0417	-0
614.2313	-0.0051
614.4207	-0.0103
614.6102	-0.0026
614.7997	-0.0038
614.9891	-0.0074
615.1785	-0.0017
615.3679	-0.0083
615.5573	0.0046
615.7467	-0.0038
615.9361	-0.0036
616.1254	-0.0003
616.3147	0.0007
616.504	0.0044
616.6933	0.0026
616.8826	0.0048
617.0718	0.0045
617.2611	0.0076
617.4503	-0.0008
617.6395	0.0035
617.8287	-0.0029
618.0179	0.0017
618.207	0.0113
618.3961	0.0076
618.5853	-0.0005
618.7744	0.011
618.9634	0.0065
619.1525	0.0004
619.3416	0.0027
619.5306	0.0067
619.7196	0.0006
619.9086	-0.0005
620.0976	0.0023
620.2866	0.0055
620.4755	0.0059
620.6645	0.0067
620.8534	0.0067
621.0423	0.0089
621.2312	0.0106
621.42	-0.0065
621.6089	-0.0053
621.7977	0.0039
621.9865	-0.0036
622.1753	0.0037
622.3641	0.0022
622.5529	0.0096
622.7416	-0.0025
622.9303	-0.0053
623.1191	0.0046
623.3078	-0.0009
623.4964	0.0044
623.6851	-0.0021
623.8737	-0.0007
624.0624	0.0036
624.251	-0.0066
624.4396	-0.0039
624.6282	-0.004
624.8167	-0.0054
625.0053	0.0041
625.1938	0.0115
625.3823	0.002
625.5708	0.0034
625.7593	-0.0064
625.9477	-0.0044
626.1362	-0.0009
626.3246	-0.0043
626.513	0.0032
626.7014	0.0058
626.8898	0.0053
627.0781	0.004
627.2665	0
627.4548	0.0014
627.6431	0.0028
627.8314	0.0012
628.0197	-0.0008
628.2079	-0.005
628.3962	-0.0007
628.5844	0.01
628.7726	0.0103
628.9608	0.0106
629.1489	0.0069
629.3371	0.0039
629.5252	-0.0004
629.7134	0.0075
629.9015	0.0017
630.0895	-0.0044
630.2776	0.0033
630.4657	-0.0019
630.6537	0.0011
630.8417	0.0065
631.0297	0.0032
631.2177	-0.0008
631.4057	-0.0037
631.5936	-0.0025
631.7815	0.0006
631.9695	0.0011
632.1574	0.0103
632.3452	0.0046
632.5331	0.0011
632.7209	-0.0014
632.9088	0.0103
633.0966	0.0123
633.2844	0.0044
633.4722	0.0026
633.6599	0.0044
633.8477	0.0021
634.0354	0.0002
634.2231	-0.0009
634.4108	0.005
634.5985	0.0092
634.7861	-0.0006
634.9738	-0.0104
635.1614	0.0028
635.349	0.0029
635.5366	0.0031
635.7242	-0.0005
635.9117	0.0068
636.0993	0.0041
636.2868	0.0083
636.4743	0.0004
636.6618	0.0141
636.8492	-0.0001
637.0367	0.002
637.2241	-0.0026
637.4115	-0.003
637.5989	-0.0013
637.7863	-0
637.9737	-0.0095
638.161	-0.0008
638.3484	-0.0013
638.5357	0.0093
638.723	0.0002
638.9103	0.0067
639.0975	0.002
639.2848	-0.0016
639.472	-0.0081
639.6592	0.0101
639.8464	0.0068
640.0336	0.0048
640.2208	-0.0026
640.4079	0.0016
640.595	0.0049
640.7821	-0.0044
640.9692	-0.0012
641.1563	-0.0011
641.3434	0.0023
641.5304	0.0031
641.7174	-0.0004
641.9044	-0.0037
642.0914	-0
642.2784	-0.0043
642.4653	0.0068
642.6523	-0.0009
642.8392	0.0002
643.0261	0.007
643.213	-0.0034
643.3999	-0.0016
643.5867	-0.0016
643.7735	0.0008
643.9604	-0.0043
644.1472	-0.0079
644.3339	0.002
644.5207	0.0031
644.7075	-0.0053
644.8942	0.0009
645.0809	-0.0008
645.2676	0.0068
645.4543	0.0044
645.6409	-0.0002
645.8276	0.0013
646.0142	0.004
646.2008	-0.0054
646.3874	-0.0082
646.574	-0.0029
646.7605	-0.0008
646.9471	-0.0109
647.1336	-0.0036
647.3201	0.0003
647.5066	-0.0003
647.6931	0.0025
647.8795	0.0022
648.0659	0.0022
648.2524	0.01
648.4388	-0.0021
648.6252	0.0019
648.8115	0.0014
648.9979	0.0036
649.1842	-0.002
649.3705	0.003
649.5568	0.0068
649.7431	0.0061
649.9294	-0.0066
650.1156	-0.0012
650.3018	-0.0098
650.488	0.0013
650.6742	0.0058
650.8604	0.003
651.0466	-0.005
651.2327	-0.0044
651.4188	-0.0013
651.6049	-0.0002
651.791	-0.0049
651.9771	-0.0006
652.1632	0.0055
652.3492	0.0048
652.5352	-0.0044
652.7212	0.0045
652.9072	0.0027
653.0932	-0.0041
653.2791	-0.0085
653.465	-0.0023
653.651	-0.0059
653.8369	-0.0033
654.0227	-0.0002
654.2086	-0.0062
654.3944	0.0044
654.5803	-0.0053
654.7661	-0.0086
654.9519	-0.0018
655.1377	-0.0047
655.3234	-0.0024
655.5092	-0.0042
655.6949	-0.0029
655.8806	-0.0048
656.0663	-0.0008
656.2519	-0.0071
656.4376	-0.005
656.6232	0.002
656.8088	-0.0027
656.9945	-0.0017
657.18	-0.0008
657.3656	0.0051
657.5511	-0.0016
657.7367	-0.0044
657.9222	0.0064
658.1077	0.0046
658.2932	0.0024
658.4786	-0.0134
658.6641	-0.0046
658.8495	-0.0075
659.0349	-0.0038
659.2203	-0.0028
659.4057	0.0007
659.591	-0.0027
659.7764	0.0007
659.9617	0.0063
660.147	-0.0011
660.3323	0.001
660.5176	0.006
660.7028	-0.005
660.888	0.0018
661.0733	-0.0021
661.2585	-0.0142
661.4436	0.0005
661.6288	-0.0058
661.8139	-0.0084
661.9991	0.0019
662.1842	-0.0074
662.3693	-0.0014
662.5544	-0.0072
662.7394	-0.0048
662.9245	-0.0056
663.1095	-0.0007
663.2945	-0.002
663.4795	-0.0069
663.6644	-0.0019
663.8494	0.005
664.0343	0.0032
664.2193	-0.0049
664.4042	0.0028
664.589	-0.0111
664.7739	-0.0012
664.9587	-0.0016
665.1436	-0.0047
665.3284	0.0019
665.5132	0.0008
665.698	-0.0011
665.8827	0.0018
666.0675	0
666.2522	0.0004
666.4369	0.0022
666.6216	0.0076
666.8063	0.0029
666.9909	0.0065
667.1756	-0.0004
667.3602	-0.004
667.5448	0.0013
667.7294	0.0105
667.9139	0.0051
668.0985	0.0113
668.283	-0.0016
668.4675	-0.0003
668.652	0.0045
668.8365	0.0007
669.0209	0.009
669.2054	0.0041
669.3898	-0.0006
669.5742	0.0004
669.7586	0.0046
669.943	0.007
670.1273	0.0049
670.3117	0.0048
670.496	0.0056
670.6803	0.012
670.8646	0.0103
671.0488	-0.0016
671.2331	0.0073
671.4173	0.0032
671.6015	0.0002
671.7857	0.0065
671.9699	0.0018
672.1541	0.0093
672.3382	0.0078
672.5223	0.0002
672.7064	-0.0003
672.8905	0.0054
673.0746	0.002
673.2587	0.0044
673.4427	0.0032
673.6267	0.0039
673.8107	0.0076
673.9947	0.0008
674.1787	0.0089
674.3626	-0.0086
674.5465	0.0002
674.7304	0.0048
674.9143	-0.0013
675.0982	0.0094
675.2821	-0.0075
675.4659	0.0037
675.6497	-0.0027
675.8335	-0.0053
676.0173	0.0035
676.2011	0.001
676.3849	0.0047
676.5686	-0.0043
676.7523	0.0066
676.936	-0.0042
677.1197	0.0009
677.3034	0.0005
677.487	0.0027
677.6706	0.0055
677.8542	0.005
678.0378	0.0027
678.2214	0.0015
678.405	-0.0003
678.5885	-0.0088
678.772	-0.0037
678.9555	0.0036
679.139	0.0043
679.3225	0.0061
679.5059	-0.0041
679.6894	0.0013
679.8728	0.0023
680.0562	-0.0091
680.2395	-0.0088
680.4229	-0.003
680.6062	-0.0001
680.7896	0.0029
680.9729	-0.0072
681.1562	0.0003
681.3394	-0.0031
681.5227	-0.0055
681.7059	-0.0068
681.8891	0.0017
682.0723	0.0034
682.2555	-0.0036
682.4387	-0.0082
682.6218	-0.0053
682.805	-0.0019
682.9881	0.0023
683.1712	-0.0068
683.3542	0.0004
683.5373	0.0043
683.7203	-0.0079
683.9034	-0.0002
684.0864	-0.0078
684.2694	-0.0033
684.4523	0.0034
684.6353	-0.0057
684.8182	-0.0031
685.0011	-0.006
685.184	-0.0003
685.3669	-0.0005
685.5498	0.0035
685.7326	0.0022
685.9154	-0.0028
686.0982	0.011
686.281	0.0097
686.4638	0.0038
686.6465	-0.0011
686.8293	0.005
687.012	0.0035
687.1947	-0.0117
687.3774	-0.0043
687.56	-0.0039
687.7427	0.0109
687.9253	-0.0066
688.1079	-0.0008
688.2905	0.0013
688.4731	-0.0021
688.6556	-0.0053
688.8382	0.0017
689.0207	0.003
689.2032	-0.0059
689.3857	-0.0042
689.5681	0.0052
689.7506	-0.0031
689.933	0.0059
690.1154	-0.0004
690.2978	0.0026
690.4802	0.0052
690.6626	-0.0154
690.8449	0.0023
691.0272	-0.0006
691.2095	-0.0081
691.3918	-0.0073
691.5741	0.0027
691.7563	0.0042
691.9386	-0.0006
692.1208	0.002
692.303	0.0021
692.4852	-0.0006
692.6673	0.0024
692.8495	-0.0006
693.0316	0.0026
693.2137	0.0028
693.3958	0.0116
693.5778	0.0088
693.7599	0.0045
693.9419	-0.0017
694.1239	0.0081
694.3059	-0.0065
694.4879	0.0113
694.6699	0.0029
694.8518	0.0112
695.0337	-0.003
695.2157	0.0024
695.3975	-0.0063
695.5794	0.0037
695.7613	0.0084
695.9431	0.0078
696.1249	0.0038
696.3067	0.008
696.4885	0.007
696.6703	-0.0088
696.852	-0.0032
697.0337	-0.0014
697.2154	0.0012
697.3971	-0.0017
697.5788	-0.0011
697.7605	-0.0038
697.9421	0.0024
698.1237	-0.0054
698.3053	-0.0011
698.4869	-0.0018
698.6685	-0.0154
698.85	-0.0017
699.0315	0.0047
699.213	-0.0031
699.3945	-0.0007
699.576	0.012
699.7575	0.0087
699.9389	0.0101
700.1203	0.0011
700.3017	-0.0032
700.4831	0.0012
700.6645	0.0092
700.8458	0.0109
701.0271	-0
701.2084	0.0019
701.3897	-0.0007
701.571	0.0092
701.7523	-0.0004
701.9335	0.0016
702.1147	-0.0049
702.2959	-0.0017
702.4771	0.0002
702.6583	0.0024
702.8394	-0.0075
703.0205	-0.001
703.2016	-0.0023
703.3827	-0.0007
703.5638	0.0087
703.7449	0.0066
703.9259	0.0133
704.1069	0.0004
704.2879	0.0064
704.4689	0.008
704.6499	0.0047
704.8308	0.0004
705.0117	0.0024
705.1927	0.0031
705.3735	-0.0017
705.5544	0.0004
705.7353	-0.0069
705.9161	0
706.0969	-0.0044
706.2777	-0.0025
706.4585	-0.0023
706.6393	0.0027
706.82	-0.0086
707.0007	-0.0017
707.1815	0.0069
707.3621	0.0074
707.5428	0.0038
707.7235	0.0101
707.9041	0.0052
708.0847	-0.0001
708.2653	0.0021
708.4459	-0.0081
708.6265	0.009
708.807	0.0043
708.9875	0.0061
709.168	0.0031
709.3485	-0.0016
709.529	-0.0046
709.7095	-0.0092
709.8899	0.0004
710.0703	-0.0074
710.2507	-0.0002
710.4311	-0.0035
710.6115	-0.0117
710.7918	-0.0073
710.9721	-0.0032
711.1524	-0.0077
711.3327	0.001
711.513	-0.0005
711.6932	-0.0058
711.8735	0.0074
712.0537	0.002
712.2339	-0.0033
712.4141	-0.0149
712.5942	-0.0118
712.7744	-0.0073
712.9545	-0.0134
713.1346	-0.0182
713.3147	-0.0166
713.4947	-0.0106
713.6748	0.0004
713.8548	0.0008
714.0348	-0.0045
714.2148	-0.0077
714.3948	0.0141
714.5748	-0.0077
714.7547	-0.0016
714.9346	0.0045
715.1145	-0.0091
715.2944	-0.0135
715.4743	-0.0061
715.6541	-0.0035
715.834	-0.0013
716.0138	-0.0036
716.1936	-0.0137
716.3733	-0.0075
716.5531	0.0042
716.7328	-0.0028
716.9126	-0.0095
717.0923	0.0026
717.2719	-0.0051
717.4516	-0.0006
717.6312	-0.0042
717.8109	-0.0093
717.9905	0.0004
718.1701	-0.0054
718.3496	-0.0111
718.5292	-0.005
718.7087	0.0067
718.8882	-0
719.0677	0.0094
719.2472	-0.0017
719.4267	-0.0067
719.6061	-0.005
719.7856	-0.0047
719.965	0.0011
720.1443	-0.0066
720.3237	0.0136
720.5031	0.0029
720.6824	0.0107
720.8617	0.0033
721.041	-0.0014
721.2203	0.016
721.3995	0.0103
721.5788	0.0113
721.758	0.0061
721.9372	0.0033
722.1164	0.0046
722.2956	0.005
722.4747	0.0029
722.6538	0.0026
722.8329	0.0163
723.012	0.0102
723.1911	0.012
723.3702	0.0078
723.5492	0.0083
723.7282	0.001
723.9072	-0.0006
724.0862	-0.0037
724.2652	-0.0049
724.4441	-0.008
724.623	-0.001
724.8019	0.0035
724.9808	0.0026
725.1597	-0.0053
725.3385	0.0053
725.5174	-0.003
725.6962	-0.0038
725.875	-0.0024
726.0538	0.0062
726.2325	-0.0026
726.4112	-0.0003
726.59	-0.007
726.7687	-0.0098
726.9474	0.0034
727.126	-0.0076
727.3047	-0.0069
727.4833	-0.0021
727.6619	-0.0067
727.8405	-0.0083
728.0191	-0.0112
728.1976	0.0045
728.3762	-0.0009
728.5547	0.0008
728.7332	-0.0094
728.9116	0.0002
729.0901	0.0016
729.2686	-0.005
729.447	-0.0028
729.6254	-0.0044
729.8038	-0.0012
729.9821	-0.0113
730.1605	-0.0038
730.3388	0.0036
730.5171	0.004
730.6954	-0.0114
730.8737	0.005
731.0519	-0.0009
731.2302	0.0037
731.4084	0.006
731.5866	0.0006
731.7648	0.0053
731.9429	-0.0027
732.1211	0.0008
732.2992	0.0017
732.4773	0.006
732.6554	0.0072
732.8335	0.0059
733.0115	0.0041
733.1896	0.0083
733.3676	-0.0009
733.5456	0.0085
733.7235	0.0096
733.9015	-0.0015
734.0794	-0.0018
734.2574	0.0066
734.4353	0.0008
734.6131	0.0008
734.791	0.0085
734.9689	0.0027
735.1467	0.0061
735.3245	-0.0037
735.5023	-0.0034
735.68	-0.0063
735.8578	0.003
736.0355	-0.0132
736.2132	-0.0133
736.3909	-0.0095
736.5686	-0.0139
736.7463	-0.0002
736.9239	-0.0074
737.1015	-0.0053
737.2791	0.0039
737.4567	-0.0073
737.6343	-0.001
737.8118	-0.0069
737.9894	0.002
738.1669	-0.0146
738.3444	-0.0062
738.5218	-0.0026
738.6993	0.0023
738.8767	-0.0004
739.0541	0.0047
739.2315	-0.0103
739.4089	-0.0038
739.5863	-0.0031
739.7636	-0.005
739.9409	0.0018
740.1182	0.0032
740.2955	-0.0005
740.4728	-0.0008
740.65	-0.0053
740.8272	-0.0006
741.0044	-0.0096
741.1816	0.0023
741.3588	-0.0117
741.5359	-0.0023
741.7131	-0.0138
741.8902	-0.0006
742.0673	0.0027
742.2444	-0.0165
742.4214	-0.012
742.5985	-0.004
742.7755	-0.0051
742.9525	-0.0182
743.1295	-0.0054
743.3064	-0.0002
743.4834	-0.0007
743.6603	-0.0033
743.8372	-0.0088
744.0141	-0.001
744.191	-0.0056
744.3678	-0.0021
744.5446	0.0011
744.7215	-0.0008
744.8982	-0.0046
745.075	-0.0078
745.2518	0.0109
745.4285	0.0074
745.6052	-0.0075
745.7819	0.0071
745.9586	-0.0008
746.1353	0.0009
746.3119	0.0026
746.4885	0.0019
746.6651	-0.0043
746.8417	0.0023
747.0183	0.0071
747.1948	-0.0013
747.3714	0.0074
747.5479	0.0052
747.7244	0.0004
747.9008	0.0075
748.0773	-0.0028
748.2537	-0.0042
748.4301	-0.0061
748.6065	0.0033
748.7829	0.001
748.9593	0.0002
749.1356	-0.0037
749.3119	0.02
749.4882	-0.0076
749.6645	0.0074
749.8408	-0.0048
750.017	-0.0043
750.1933	0.0019
750.3695	0.0001
750.5457	0.0116
750.7218	0.0093
750.898	0.0013
751.0741	-0.0043
751.2502	0.0105
751.4263	-0.0063
751.6024	-0.0064
751.7784	-0.0032
751.9545	-0.0038
752.1305	0.0061
752.3065	-0.0005
752.4825	0.0031
752.6584	-0.0043
752.8344	-0.0021
753.0103	-0.0051
753.1862	-0.0055
753.3621	-0.0012
753.5379	-0.0074
753.7138	-0.0033
753.8896	-0.0034
754.0654	0.0071
754.2412	0.0046
754.417	-0.0035
754.5927	-0.0106
754.7685	-0.0007
754.9442	-0.0035
755.1199	0.0068
755.2956	-0.0027
755.4712	0.0117
755.6469	0.0008
755.8225	-0.0082
755.9981	-0.0104
756.1736	-0.0043
756.3492	0.0001
756.5248	-0.0038
756.7003	-0.0023
756.8758	0.0095
757.0513	-0.0097
757.2267	0.0004
757.4022	-0.0016
757.5776	0.0029
757.753	0.0052
757.9284	-0.0032
758.1038	0.0085
758.2791	0.0037
758.4545	-0.0108
758.6298	0.0009
758.8051	0.0027
758.9803	0.004
759.1556	0.0088
759.3308	0.0077
759.506	0.014
759.6812	0.0142
759.8564	0.0062
760.0316	0.0069
760.2067	0.0046
760.3819	0.0083
760.557	0.0157
760.732	0.0019
760.9071	-0.0057
761.0821	-0.0008
761.2572	0.0104
761.4322	-0.0061
761.6072	-0.0011
761.7821	-0.0043
761.9571	0.0083
762.132	-0.0063
762.3069	-0.0172
762.4818	-0.0052
762.6567	-0.0023
762.8316	-0.0035
763.0064	0.0048
763.1812	-0.0013
763.356	-0.0101
763.5308	0.0021
763.7055	0.008
763.8803	0.0046
764.055	-0.0052
764.2297	-0.005
764.4044	0.0004
764.579	-0.002
764.7537	-0.0074
764.9283	0.0011
765.1029	0.0021
765.2775	-0.0037
765.4521	-0.0078
765.6266	-0.0087
765.8011	-0.0029
765.9756	-0.0013
766.1501	0.0041
766.3246	0.0038
766.4991	-0.0033
766.6735	-0.0078
766.8479	-0.0085
767.0223	0.0027
767.1967	0.0008
767.371	0.0023
767.5454	-0.0021
767.7197	0.0063
767.894	-0.0014
768.0683	-0.0073
768.2425	-0.0061
768.4168	0.0038
768.591	0.0098
768.7652	0.0051
768.9394	0.0073
769.1135	0.0044
769.2877	0.0022
769.4618	-0.0023
769.6359	-0.0044
769.81	-0.0056
769.984	-0.0075
770.1581	-0.0103
770.3321	0.001
770.5061	0.0021
770.6801	-0.0036
770.8541	-0.0029
771.028	0.0016
771.202	0.0037
771.3759	0.0086
771.5498	-0.006
771.7236	0.0075
771.8975	-0.0053
772.0713	0.0162
772.2451	-0.0008
772.4189	0.0135
772.5927	0.0104
772.7665	0.0056
772.9402	-0.0089
773.1139	-0.0008
773.2876	-0.0089
773.4613	0.0063
773.635	0.0025
773.8086	-0.0097
773.9822	0.0103
774.1558	0.0039
774.3294	-0.0091
774.503	-0.0016
774.6765	-0.0045
774.8501	0.0147
775.0236	0.018
775.1971	0.0065
775.3705	-0.0146
775.544	0.0077
775.7174	-0.0096
775.8908	-0.0006
776.0642	-0.0067
776.2376	0.0021
776.4109	0.0062
776.5843	-0.0067
776.7576	0.0037
776.9309	0.0047
777.1041	0.009
777.2774	0.0016
777.4506	-0.0027
777.6238	-0.012
777.797	-0.0095
777.9702	-0.0038
778.1434	0.0035
778.3165	-0.019
778.4896	0.0014
778.6627	0.005
778.8358	-0.0013
779.0089	-0.0046
779.1819	-0.0092
779.3549	0.0138
779.5279	0.0136
779.7009	0.0004
779.8739	0.0083
780.0468	0.0007
780.2197	0.0037
780.3926	-0.0088
780.5655	-0.0075
780.7384	0.0081
780.9112	0.0024
781.0841	-0.0133
781.2569	0.0098
781.4297	0.0034
781.6024	0.0116
781.7752	0.0118
781.9479	0.0103
782.1206	-0.0039
782.2933	-0.0108
782.466	0.0098
782.6386	0.0094
782.8113	0.0102
782.9839	0.001
783.1565	0.0215
783.329	0.0105
783.5016	0.014
783.6741	0.0064
783.8466	-0.0032
784.0191	0.0086
784.1916	-0.004
784.3641	0.0003
784.5365	0.0023
784.7089	-0.0042
784.8813	-0.0074
785.0537	0.0059
785.2261	0.0015
785.3984	-0.0035
785.5707	-0.0086
785.743	-0.0063
785.9153	0.0002
786.0876	-0.0029
786.2598	-0.0093
786.432	-0.0087
786.6042	0.0067
786.7764	-0.0061
786.9486	-0.0035
787.1207	-0.002
787.2928	0.0084
787.4649	0.0062
787.637	0.0034
787.8091	0.0069
787.9811	-0.0134
788.1532	0.0089
788.3252	0.004
788.4972	0.006
788.6691	-0.0064
788.8411	0.0098
789.013	-0.0031
789.1849	0.0092
789.3568	-0.0039
789.5287	-0.0031
789.7005	0.0062
789.8723	0.0021
790.0442	0.0187
790.2159	0.0036
790.3877	0.0065
790.5595	-0.0111
790.7312	0.0026
790.9029	0.0066
791.0746	0.0044
791.2463	0.0058
791.4179	0.0236
791.5896	-0.0055
791.7612	0.0164
791.9328	0.0155
792.1044	0.004
792.2759	-0.0181
792.4474	0.0033
792.619	0.0094
792.7905	0.0049
792.9619	0.0097
793.1334	0.0125
793.3048	0.0148
793.4762	0.0054
793.6476	0.0096
793.819	-0.0025
793.9904	0.0117
794.1617	-0.0038
794.333	0.0008
794.5043	0.0029
794.6756	-0.0057
794.8469	0.0007
795.0181	0.0017
795.1893	-0.0006
795.3605	0.0051
795.5317	-0.006
795.7029	-0.002
795.874	0.0047
796.0452	0.0004
796.2163	0.0039
796.3873	0.0196
796.5584	0.018
796.7294	0.0065
796.9005	0.0202
797.0715	0.0191
797.2425	0.0074
797.4134	-0.0064
797.5844	0.014
797.7553	-0.0102
797.9262	0.0039
798.0971	0.0044
798.2679	-0.0077
798.4388	-0.0181
798.6096	-0.0009
798.7804	0.0076
798.9512	-0.0088
799.122	-0.002
799.2927	0.0137
799.4635	0.0142
799.6342	-0.0047
799.8049	0.0228
799.9755	-0.0128
800.1462	0.0108
800.3168	0.0106
800.4874	0.0012
800.658	0.0321
800.8286	0.0026
800.9991	0.0225
801.1696	0.0166
801.3402	0.0183
801.5106	0.0009
801.6811	0.0038
801.8516	0.0228
802.022	0.0069
802.1924	0.0036
802.3628	0.0149
802.5332	0.0079
802.7035	0.0239
802.8739	0.0147
803.0442	-0.0012
803.2145	0.0059
803.3847	-0.0109
803.555	0.0026
803.7252	-0.0151
803.8954	0.0034
804.0656	0.0019
804.2358	0.0044
804.4059	0.0265
804.5761	0.002
804.7462	0.0155
804.9163	0.0129
805.0864	-0.0053
805.2564	0.0145
805.4264	0.0222
805.5965	0.0151
805.7665	0.0138
805.9364	0.0345
806.1064	0.0333
806.2763	0.0102
806.4462	0.0367
806.6161	0.0097
806.786	0.0336
806.9559	-0.0053
807.1257	0.0208
807.2955	0.0051
807.4653	0.0079
807.6351	0.0063
807.8048	0.0029
807.9746	0.0209
808.1443	0.0191
808.314	0.02
808.4837	0.0051
808.6533	0.0058
808.8229	0.0237
808.9926	0.0116
809.1622	0.0098
809.3317	0.0026
809.5013	0.0006
809.6708	0.0267
809.8403	0.0113
810.0098	0.0026
810.1793	0.0095
810.3488	0.0049
810.5182	0.0088
810.6876	0.0301
810.857	-0.0039
811.0264	0.0323
811.1958	0.0293
811.3651	0.0218
811.5344	0.0157
811.7037	-0.003
811.873	0.0243
812.0422	0.0126
812.2115	0.0169
812.3807	0.0155
812.5499	0.0132
812.7191	0.0096
812.8882	0.0093
813.0574	0.0026
813.2265	-0.0053
813.3956	0.0083
813.5646	0.0242
813.7337	0.0024
813.9027	0.0232
814.0718	0.0196
814.2407	0.0202
814.4097	0.0148
814.5787	0.0072
814.7476	0.0095
814.9165	0.0071
815.0854	-0.0005
815.2543	0.0082
815.4232	-0.0005
815.592	0.0154
815.7608	0.0191
815.9296	0.0202
816.0984	0.0236
816.2671	0.0082
816.4359	0.0086
816.6046	0.0099
816.7733	-0.0105
816.942	0.0093
817.1106	0.0104
817.2793	0.0186
817.4479	0.0266
817.6165	0.0263
817.785	0.0312
817.9536	-0.0112
818.1221	0.0135
818.2906	0.0231
818.4591	0.0054
818.6276	0.0052
818.7961	0.0309
818.9645	0.025
819.1329	0.0195
819.3013	0.0245
819.4697	0.0315
819.638	0.0053
819.8064	0.0275
819.9747	0.0541
820.143	0.0048
820.3113	0.0183
820.4795	0.0209
820.6477	0.0081
820.816	0.0294
820.9842	0.0092
821.1523	-0.0002
821.3205	0.0105
821.4886	0.0115
821.6567	0.007
821.8248	0.0207
821.9929	0.0282
822.1609	0.0143
822.329	0.0282
822.497	0.0292
822.665	0.0053
822.833	-0.0006
823.0009	0.0185
823.1688	0.0337
823.3367	0.0522
823.5046	0.0047
823.6725	0.0365
823.8404	-0.0007
824.0082	0.0165
824.176	0.0178
824.3438	0.0098
824.5116	-0.0114
824.6793	0.0165
824.847	0.0018
825.0147	0.0193
825.1824	0.0488
825.3501	0.0254
825.5177	-0.0038
825.6854	-0.0016
825.853	0.012
826.0206	-0.01
826.1881	0.0146
826.3557	-0.0073
826.5232	0.0098
826.6907	0.0038
826.8582	0.0088
827.0257	-0.0188
827.1931	0.0262
827.3605	0.0042
827.528	-0.0026
827.6953	-0.011
827.8627	0.0025
828.03	0.041
828.1974	-0.0196
828.3647	-0.0055
828.532	-0.0018
828.6992	0.0041
828.8665	0.0084
829.0337	0.0177
829.2009	0.035
829.3681	-0.0099
829.5352	0.0487
829.7024	0.004
829.8695	-0.0638
830.0366	0.059
830.2037	-0.0079
830.3707	-0.0215
830.5378	0.0422
830.7048	0.0318
830.8718	0.0068
831.0388	0.0002
831.2057	0.0176
831.3727	0.0199
831.5396	-0.0055
831.7065	0.019
831.8734	0.0089
832.0402	0.0038
832.2071	0.0198
832.3739	-0.0134
832.5407	0.0148
832.7075	-0.001
832.8742	-0.0196
833.041	0.0049
833.2077	0.0279
833.3744	0.0232
833.541	-0.017
833.7077	-0.0205
833.8743	-0.038
834.0409	0.0228
834.2075	-0.0117
834.3741	0.0127
834.5407	-0.0004
834.7072	0.0298
834.8737	-0.0077
835.0402	0.0009
835.2067	0.0065
835.3731	0.0303
835.5395	0.0152
835.706	0.0352
835.8723	0.0505
836.0387	0.0105
836.2051	0.0425
836.3714	0.017
836.5377	-0.008
836.704	-0.0172
836.8703	0.0112
837.0365	0.0656
837.2027	-0.0276
837.3689	0.008
837.5351	0.0055
837.7013	-0.0023
837.8674	-0.0293
838.0335	-0.0173
838.1997	-0.0242
838.3657	-0.0401
838.5318	0.0304
838.6978	0.0394
838.8639	0.0464
839.0299	0.04
839.1958	0.0228
839.3618	-0.0589
839.5277	0.002
839.6937	0.0642
839.8596	-0.0362
840.0254	0.012
840.1913	0.0428
840.3571	0.1104
840.523	-0.0172
840.6888	0.0489
840.8545	-0.0195
841.0203	0.0293
841.186	-0.0406
841.3517	0.0466
841.5174	0.0246
841.6831	-0.0271
841.8488	0.0224
842.0144	0.0355
842.18	0.003
842.3456	0.0185
842.5112	0.0158
842.6767	-0.0151
842.8422	0.0134
843.0077	0.0402
843.1732	-0.0156
843.3387	0.0049
843.5042	-0.0482
843.6696	-0.0138
843.835	-0.0071
844.0004	0.0274
844.1657	-0.0231
844.3311	-0.0022
844.4964	-0.0491
844.6617	-0.0019
844.827	0.011
844.9923	0.0027
845.1575	0.0364
845.3227	0.0241
845.4879	-0.0373
845.6531	-0.0711
845.8183	-0.0866
845.9834	0.0577
846.1485	0.0047
846.3136	-0.0709
846.4787	-0.031
846.6438	0.0815
846.8088	-0.0149
846.9738	0.0063
847.1388	0.0466
847.3038	-0.0535
847.4687	-0.1309
847.6337	0.0123
847.7986	0.0004
847.9635	-0.0154
848.1284	-0.0117
848.2932	0.125
848.458	0.0092
848.6228	0.0631
848.7876	0.0402
848.9524	0.0164
849.1172	-0.0778
849.2819	-0.0065
849.4466	0.0298
849.6113	-0.1032
849.7759	0.0383
849.9406	-0.0602
850.1052	0.0323
850.2698	-0.0031
850.4344	-0.0352
850.599	-0.0732
850.7635	0.1067
850.928	-0.0542
851.0925	0.0346
851.257	0.0376
851.4215	0.0551
851.5859	0.0141
851.7503	0.0258
851.9147	0.053
852.0791	-0.0358
852.2434	0.0025
852.4078	0.0946
852.5721	0.1494
852.7364	-0.0512
852.9007	-0.1163
853.0649	-0.0442
853.2291	0.0239
853.3934	-0.0616
853.5575	0.1538
853.7217	-0.1193
853.8859	-0.1937
854.05	-0.0562
854.2141	0.1234
854.3782	0.0154
854.5423	0.0714
854.7063	0.1202
854.8703	-0.0233
855.0343	-0.0523
855.1983	-0.1456
855.3623	0.2654
855.5262	0.2457
855.6901	-0.0136
855.854	0.0154
856.0179	0.1378
856.1818	0.0188
856.3456	-0.1013
856.5094	-0.1263
856.6732	0.0104
856.837	-0.0406
857.0008	0.3139
857.1645	-0.0638
857.3282	-0.0451
857.4919	0.0377
857.6556	0.1131
857.8192	0.1175
857.9828	0.1524
858.1465	0.0424
858.31	-0.0705
858.4736	-0.1235
858.6372	-0.0198
858.8007	-0.1945
858.9642	-0.0208
859.1277	-0.0097
859.2911	0.0253
859.4546	0.1618
859.618	-0.3033
859.7814	-0.0497
859.9448	0.0931
860.1081	-0.0846
860.2715	0.132
860.4348	0.3549
860.5981	0.0412
860.7614	0.0235
860.9246	-0.1581
861.0879	-0.2263
861.2511	-0.0259
861.4143	-0.2357
861.5774	0.1135
861.7406	0.0475
861.9037	0.1199
862.0668	0.3393
862.2299	-0.1388
862.393	-0.6387
862.556	0.0067
862.7191	-0.0514
862.8821	-0.2155
863.0451	0.4699
863.208	0.3472
863.371	0.0152
863.5339	-0.0601
863.6968	0.0486
863.8597	0.3305
864.0225	-0.0039
864.1854	-0.1085
864.3482	-0.1807
864.511	0.2818
864.6737	0.5694
864.8365	-0.1152
864.9992	-0.3432
865.1619	-0.4169
865.3246	0.0845
865.4873	0.3451
865.65	-0.3485
865.8126	-0.0052
865.9752	0.1271
866.1378	-0.2601
866.3004	-0.2125
866.4629	0.221
866.6254	-0.1631
866.7879	0.3799
866.9504	-0
867.1129	-0
867.2753	1.0276
867.4377	0.1368
867.6001	-0.5987
867.7625	0.435
867.9249	-0.8576
868.0872	0.1461
868.2495	0.1608
868.4118	0.415
868.5741	-0.4691
868.7363	0.3565
868.8986	-0.257
869.0608	-0.0213
869.223	0.1353
869.3851	-0
869.5473	0.0798
869.7094	0.3461
869.8715	-0.2734
870.0336	-0
870.1957	-0.7319
870.3577	-1.4542
870.5197	0.1841
870.6817	0.0283
870.8437	-0.1442
871.0057	-0.7924
871.1676	-0
871.3295	-0.1694
871.4914	-0.6414
871.6533	-0.2977
871.8151	-0.2201
871.977	-0
872.1388	-0
872.3006	-0
872.4623	-0
872.6241	0.0115
872.7858	-0
872.9475	-0.1768
873.1092	-0
873.2709	-0
873.4325	-0
873.5941	0.2133
873.7557	-0
873.9173	0.827
874.0789	-0.4268
874.2404	-0.7765
874.4019	0.1528
874.5634	-0.0556
874.7249	-0.2005
874.8863	-0.2511
875.0478	-0.0587
875.2092	-0.4352
875.3706	-0
875.5319	-0.6454
875.6933	-0
875.8546	0.2898
876.0159	-0
876.1772	0.4527
876.3385	-0
876.4997	-0
876.6609	-0.4723
876.8221	-0.3485
876.9833	0.9345
877.1445	-0
877.3056	0.9182
877.4667	0.5504
877.6278	-0
877.7889	-0.3964
877.9499	-0
878.111	-0
878.272	-0.0726
878.433	-0.0744
878.5939	-0
878.7549	-0.1214
878.9158	-0.2795
879.0767	-0
879.2376	-0
879.3984	-0.2959
879.5593	-0
879.7201	0.4174
879.8809	-0.5471
880.0417	-0.1165
880.2024	-0.0541
880.3632	-0
880.5239	1.074
880.6846	0.3624
880.8452	-2.5763
881.0059	-1.0414
881.1665	-0.1285
881.3271	-0
881.4877	-0
881.6483	-0.5223
881.8088	-0.3061
881.9693	-0
882.1298	-0
882.2903	-0
