Data from MonoPyChalIsomerACN10uM380nmA_Absorbance_13-38-28-849.txt Node
Date: Fri Jul 05 13:38:28 BST 2024
User: LASERRRRR
Spectrometer: FLMT03099
Trigger mode: 0
Integration Time (sec): 1.000000E-1
Scans to average: 1
Electric dark correction enabled: true
Nonlinearity correction enabled: false
Boxcar width: 0
XAxis mode: Wavelengths
Number of Pixels in Spectrum: 3648
>>>>>Begin Spectral Data<<<<<
179.3399	-0.2304
179.5586	-0.2304
179.7771	-0.2304
179.9957	-0
180.2143	0.2684
180.4329	0.2841
180.6514	-0
180.8699	-0
181.0885	-0.0557
181.307	0.1694
181.5255	-0.407
181.744	-0
181.9625	-0
182.181	-0
182.3994	-0
182.6179	-0
182.8363	-0.2962
183.0547	-0.0677
183.2732	-0.0231
183.4916	0.3191
183.71	0.305
183.9284	0.2367
184.1467	-0.0832
184.3651	0.0785
184.5835	0.0332
184.8018	-0.0481
185.0201	0.1236
185.2385	0.0972
185.4568	1.0063
185.6751	0.0693
185.8934	0.1142
186.1117	0.1056
186.3299	0.1781
186.5482	0.1178
186.7664	-0.161
186.9847	0.0436
187.2029	0.0485
187.4211	-0.0698
187.6393	0.0166
187.8575	0.2008
188.0757	0.2623
188.2939	0.025
188.512	0.1764
188.7302	0.0567
188.9483	-0.0534
189.1665	0.0956
189.3846	0.0553
189.6027	0.161
189.8208	0.0671
190.0389	-0.0084
190.257	0.2453
190.475	0.4391
190.6931	0.4027
190.9111	0.4856
191.1292	0.1654
191.3472	0.3556
191.5652	0.2213
191.7832	0.1736
192.0012	0.6816
192.2192	0.4282
192.4371	0.542
192.6551	0.5025
192.873	0.4363
193.091	0.3767
193.3089	0.4561
193.5268	0.4451
193.7447	0.8335
193.9626	0.4524
194.1805	0.566
194.3984	0.9077
194.6162	0.528
194.8341	0.7287
195.0519	0.5456
195.2697	0.6018
195.4875	0.6482
195.7054	0.9993
195.9231	0.5978
196.1409	0.7713
196.3587	0.5328
196.5765	0.6357
196.7942	0.6267
197.012	0.813
197.2297	0.5544
197.4474	0.706
197.6651	0.633
197.8828	0.8006
198.1005	0.7992
198.3182	0.6663
198.5358	0.9272
198.7535	0.8704
198.9711	0.7008
199.1888	0.9097
199.4064	1.2843
199.624	0.8038
199.8416	0.7969
200.0592	0.6811
200.2767	0.8408
200.4943	0.9418
200.7119	1.0748
200.9294	0.8278
201.1469	0.6994
201.3645	0.7076
201.582	0.7051
201.7995	0.9499
202.017	0.984
202.2344	0.7644
202.4519	0.9545
202.6694	0.6519
202.8868	0.6919
203.1042	0.9119
203.3217	0.9813
203.5391	0.9129
203.7565	0.6549
203.9739	0.7341
204.1913	0.7154
204.4086	0.8464
204.626	1.0101
204.8433	0.7172
205.0607	0.7608
205.278	0.7909
205.4953	0.7565
205.7126	0.9042
205.9299	1.1415
206.1472	0.8905
206.3644	0.7409
206.5817	0.8316
206.7989	0.7848
207.0162	0.8045
207.2334	0.9698
207.4506	0.7739
207.6678	0.695
207.885	0.8824
208.1022	0.7845
208.3194	0.7652
208.5365	0.8728
208.7537	0.8928
208.9708	0.8002
209.1879	0.8211
209.405	0.8815
209.6222	1.0815
209.8392	0.7438
210.0563	0.7309
210.2734	0.8195
210.4905	0.7278
210.7075	0.8637
210.9245	0.735
211.1416	0.9557
211.3586	0.8482
211.5756	0.7603
211.7926	0.751
212.0096	0.7671
212.2265	0.7804
212.4435	0.7521
212.6604	0.8527
212.8774	0.7567
213.0943	0.8094
213.3112	0.7534
213.5281	0.7205
213.745	0.7239
213.9619	0.7249
214.1788	0.6689
214.3956	0.6611
214.6125	0.7026
214.8293	0.6294
215.0461	0.7101
215.2629	0.6325
215.4798	0.6857
215.6965	0.6177
215.9133	0.6765
216.1301	0.6116
216.3469	0.6794
216.5636	0.686
216.7803	0.6032
216.9971	0.6921
217.2138	0.6054
217.4305	0.6032
217.6472	0.6069
217.8639	0.6446
218.0805	0.6064
218.2972	0.6318
218.5138	0.5901
218.7305	0.5675
218.9471	0.5788
219.1637	0.5611
219.3803	0.5583
219.5969	0.5424
219.8135	0.53
220.0301	0.5675
220.2466	0.5914
220.4632	0.5571
220.6797	0.5038
220.8962	0.54
221.1127	0.5039
221.3292	0.5103
221.5457	0.5197
221.7622	0.521
221.9787	0.5341
222.1951	0.5402
222.4116	0.5205
222.628	0.5081
222.8444	0.5531
223.0608	0.5173
223.2772	0.5153
223.4936	0.5429
223.71	0.5147
223.9264	0.5281
224.1427	0.557
224.3591	0.5205
224.5754	0.5264
224.7917	0.5693
225.008	0.5358
225.2243	0.5261
225.4406	0.5666
225.6569	0.5175
225.8732	0.5361
226.0894	0.5112
226.3057	0.5592
226.5219	0.5435
226.7381	0.5496
226.9543	0.5325
227.1705	0.588
227.3867	0.5164
227.6029	0.5524
227.8191	0.5654
228.0352	0.5654
228.2513	0.5556
228.4675	0.5717
228.6836	0.544
228.8997	0.5395
229.1158	0.5732
229.3319	0.5669
229.548	0.5407
229.764	0.5449
229.9801	0.5713
230.1961	0.5594
230.4121	0.5613
230.6282	0.5635
230.8442	0.518
231.0602	0.5504
231.2761	0.5786
231.4921	0.5798
231.7081	0.5648
231.924	0.5534
232.14	0.5639
232.3559	0.5369
232.5718	0.5741
232.7877	0.5659
233.0036	0.5304
233.2195	0.5493
233.4353	0.5483
233.6512	0.5412
233.867	0.5639
234.0829	0.5359
234.2987	0.5589
234.5145	0.571
234.7303	0.5699
234.9461	0.5794
235.1619	0.5721
235.3776	0.5533
235.5934	0.5653
235.8091	0.5235
236.0249	0.5658
236.2406	0.5466
236.4563	0.5407
236.672	0.572
236.8877	0.5554
237.1034	0.5348
237.319	0.5463
237.5347	0.5607
237.7503	0.5375
237.966	0.5719
238.1816	0.5377
238.3972	0.511
238.6128	0.5337
238.8284	0.5449
239.0439	0.5338
239.2595	0.52
239.475	0.5459
239.6906	0.524
239.9061	0.5114
240.1216	0.5077
240.3371	0.5222
240.5526	0.5157
240.7681	0.5303
240.9836	0.4939
241.199	0.4988
241.4145	0.4671
241.6299	0.4741
241.8453	0.4828
242.0607	0.4832
242.2761	0.4546
242.4915	0.4596
242.7069	0.4656
242.9223	0.4336
243.1376	0.4476
243.353	0.4279
243.5683	0.4329
243.7836	0.3954
243.9989	0.4126
244.2142	0.3584
244.4295	0.4031
244.6448	0.3996
244.86	0.3797
245.0753	0.3757
245.2905	0.3537
245.5057	0.3481
245.721	0.3475
245.9362	0.3379
246.1514	0.3413
246.3665	0.3202
246.5817	0.3212
246.7969	0.3168
247.012	0.3047
247.2271	0.2964
247.4423	0.3114
247.6574	0.2892
247.8725	0.2882
248.0876	0.2719
248.3026	0.2697
248.5177	0.2814
248.7328	0.2641
248.9478	0.2498
249.1628	0.2648
249.3779	0.2592
249.5929	0.252
249.8079	0.2568
250.0228	0.2377
250.2378	0.243
250.4528	0.2523
250.6677	0.2282
250.8827	0.2356
251.0976	0.2487
251.3125	0.2322
251.5274	0.202
251.7423	0.2107
251.9572	0.2255
252.172	0.2211
252.3869	0.2141
252.6017	0.2128
252.8166	0.2089
253.0314	0.1884
253.2462	0.2118
253.461	0.213
253.6758	0.201
253.8906	0.2019
254.1053	0.2019
254.3201	0.1992
254.5348	0.2183
254.7496	0.2152
254.9643	0.186
255.179	0.1932
255.3937	0.1966
255.6083	0.1984
255.823	0.1926
256.0377	0.1971
256.2523	0.2042
256.467	0.1796
256.6816	0.2068
256.8962	0.198
257.1108	0.1797
257.3254	0.1991
257.54	0.1829
257.7545	0.1886
257.9691	0.1916
258.1836	0.186
258.3981	0.1902
258.6127	0.1969
258.8272	0.1812
259.0417	0.1746
259.2561	0.1765
259.4706	0.1948
259.6851	0.1784
259.8995	0.1825
260.114	0.1792
260.3284	0.1812
260.5428	0.1792
260.7572	0.181
260.9716	0.1804
261.186	0.1769
261.4003	0.1843
261.6147	0.1843
261.829	0.1722
262.0433	0.1807
262.2577	0.1809
262.472	0.1821
262.6863	0.1854
262.9005	0.1816
263.1148	0.1778
263.3291	0.1779
263.5433	0.1853
263.7576	0.1859
263.9718	0.1802
264.186	0.1726
264.4002	0.1833
264.6144	0.1874
264.8286	0.1887
265.0427	0.1814
265.2569	0.1895
265.471	0.1841
265.6851	0.1746
265.8993	0.169
266.1134	0.163
266.3275	0.1902
266.5415	0.1683
266.7556	0.1856
266.9697	0.1769
267.1837	0.1795
267.3978	0.185
267.6118	0.1856
267.8258	0.1923
268.0398	0.1686
268.2538	0.1817
268.4677	0.176
268.6817	0.1691
268.8957	0.1673
269.1096	0.1806
269.3235	0.1793
269.5374	0.1752
269.7514	0.1624
269.9652	0.1663
270.1791	0.1603
270.393	0.1577
270.6068	0.1738
270.8207	0.1619
271.0345	0.1599
271.2483	0.1677
271.4622	0.1661
271.676	0.1698
271.8897	0.1494
272.1035	0.1661
272.3173	0.1575
272.531	0.1432
272.7448	0.1652
272.9585	0.1473
273.1722	0.1607
273.3859	0.1591
273.5996	0.148
273.8133	0.1689
274.0269	0.1614
274.2406	0.1496
274.4542	0.1633
274.6679	0.1461
274.8815	0.1658
275.0951	0.1706
275.3087	0.1723
275.5223	0.1712
275.7358	0.1616
275.9494	0.1656
276.1629	0.1561
276.3765	0.1543
276.59	0.1601
276.8035	0.1599
277.017	0.1628
277.2305	0.1525
277.444	0.1598
277.6574	0.1436
277.8709	0.1659
278.0843	0.1524
278.2978	0.157
278.5112	0.149
278.7246	0.1562
278.938	0.1616
279.1513	0.1767
279.3647	0.1736
279.5781	0.1622
279.7914	0.1555
280.0047	0.1713
280.2181	0.1568
280.4314	0.1616
280.6447	0.1561
280.8579	0.1576
281.0712	0.1658
281.2845	0.172
281.4977	0.1759
281.711	0.1463
281.9242	0.1685
282.1374	0.1721
282.3506	0.1541
282.5638	0.1703
282.7769	0.164
282.9901	0.1715
283.2033	0.1767
283.4164	0.1716
283.6295	0.1583
283.8426	0.1596
284.0557	0.1743
284.2688	0.1832
284.4819	0.1684
284.695	0.1661
284.908	0.1694
285.1211	0.1612
285.3341	0.1846
285.5471	0.1758
285.7601	0.1659
285.9731	0.159
286.1861	0.1813
286.3991	0.1779
286.612	0.1752
286.825	0.179
287.0379	0.1765
287.2508	0.1763
287.4637	0.1853
287.6766	0.1772
287.8895	0.1744
288.1024	0.1993
288.3152	0.1801
288.5281	0.1829
288.7409	0.1706
288.9538	0.1881
289.1666	0.1917
289.3794	0.181
289.5922	0.1698
289.8049	0.1809
290.0177	0.1776
290.2304	0.1829
290.4432	0.1745
290.6559	0.1834
290.8686	0.1938
291.0813	0.188
291.294	0.196
291.5067	0.2036
291.7194	0.1807
291.932	0.1936
292.1447	0.1698
292.3573	0.1622
292.5699	0.183
292.7825	0.1784
292.9951	0.1785
293.2077	0.1758
293.4203	0.1945
293.6328	0.181
293.8454	0.1892
294.0579	0.1897
294.2704	0.1864
294.4829	0.1658
294.6954	0.1859
294.9079	0.1848
295.1204	0.1858
295.3328	0.1854
295.5453	0.1822
295.7577	0.1907
295.9701	0.1758
296.1825	0.1773
296.3949	0.1779
296.6073	0.1809
296.8197	0.1705
297.0321	0.188
297.2444	0.1583
297.4567	0.1842
297.6691	0.1821
297.8814	0.1758
298.0937	0.1846
298.306	0.1811
298.5182	0.1801
298.7305	0.1885
298.9428	0.1736
299.155	0.1878
299.3672	0.1788
299.5794	0.1734
299.7916	0.1692
300.0038	0.1758
300.216	0.1824
300.4282	0.1844
300.6403	0.1735
300.8525	0.178
301.0646	0.175
301.2767	0.1831
301.4888	0.1877
301.7009	0.1867
301.913	0.1834
302.125	0.1701
302.3371	0.1715
302.5491	0.1832
302.7612	0.1771
302.9732	0.1886
303.1852	0.1769
303.3972	0.1888
303.6092	0.1677
303.8211	0.1611
304.0331	0.1602
304.245	0.1599
304.457	0.1597
304.6689	0.1711
304.8808	0.1677
305.0927	0.1562
305.3046	0.1608
305.5164	0.1706
305.7283	0.1618
305.9401	0.1643
306.152	0.158
306.3638	0.155
306.5756	0.159
306.7874	0.1604
306.9992	0.1649
307.2109	0.1553
307.4227	0.1452
307.6344	0.1433
307.8462	0.1487
308.0579	0.1405
308.2696	0.1378
308.4813	0.145
308.693	0.1434
308.9046	0.1449
309.1163	0.1388
309.328	0.1269
309.5396	0.1261
309.7512	0.127
309.9628	0.13
310.1744	0.1184
310.386	0.1241
310.5976	0.1248
310.8091	0.1195
311.0207	0.1215
311.2322	0.1287
311.4437	0.1057
311.6552	0.1211
311.8667	0.1158
312.0782	0.1136
312.2897	0.116
312.5012	0.117
312.7126	0.1116
312.924	0.1054
313.1355	0.1249
313.3469	0.1062
313.5583	0.112
313.7696	0.1052
313.981	0.1062
314.1924	0.1047
314.4037	0.1009
314.6151	0.104
314.8264	0.0982
315.0377	0.0977
315.249	0.0994
315.4603	0.1047
315.6716	0.1001
315.8828	0.095
316.0941	0.0948
316.3053	0.0976
316.5165	0.0998
316.7277	0.093
316.9389	0.1002
317.1501	0.0999
317.3613	0.0968
317.5724	0.0814
317.7836	0.0946
317.9947	0.0907
318.2058	0.0918
318.417	0.085
318.6281	0.0876
318.8391	0.0879
319.0502	0.0823
319.2613	0.0986
319.4723	0.0968
319.6834	0.1042
319.8944	0.0808
320.1054	0.0993
320.3164	0.0981
320.5274	0.0777
320.7383	0.0823
320.9493	0.0941
321.1602	0.1082
321.3712	0.0932
321.5821	0.1082
321.793	0.1025
322.0039	0.0937
322.2148	0.0914
322.4257	0.0974
322.6365	0.1024
322.8474	0.0973
323.0582	0.0941
323.269	0.1084
323.4798	0.0985
323.6906	0.1038
323.9014	0.1025
324.1122	0.1001
324.3229	0.0926
324.5337	0.0912
324.7444	0.1025
324.9551	0.1109
325.1658	0.1005
325.3765	0.1027
325.5872	0.1068
325.7979	0.0998
326.0085	0.0954
326.2192	0.1081
326.4298	0.0907
326.6404	0.0884
326.851	0.093
327.0616	0.0861
327.2722	0.0987
327.4828	0.1044
327.6933	0.0967
327.9039	0.0953
328.1144	0.1044
328.3249	0.1091
328.5354	0.0844
328.7459	0.0961
328.9564	0.0838
329.1669	0.0997
329.3773	0.1006
329.5878	0.1014
329.7982	0.0936
330.0086	0.0956
330.219	0.0953
330.4294	0.102
330.6398	0.108
330.8502	0.0974
331.0605	0.0953
331.2708	0.0961
331.4812	0.0964
331.6915	0.0989
331.9018	0.1038
332.1121	0.0974
332.3224	0.1019
332.5326	0.1017
332.7429	0.0987
332.9531	0.1103
333.1633	0.1094
333.3735	0.1053
333.5837	0.0907
333.7939	0.0986
334.0041	0.1224
334.2143	0.1028
334.4244	0.1024
334.6346	0.0948
334.8447	0.1177
335.0548	0.0979
335.2649	0.0941
335.475	0.1064
335.685	0.1008
335.8951	0.1125
336.1051	0.1144
336.3152	0.1065
336.5252	0.0996
336.7352	0.1046
336.9452	0.1144
337.1552	0.1112
337.3652	0.0992
337.5751	0.1057
337.7851	0.1104
337.995	0.1024
338.2049	0.1208
338.4148	0.106
338.6247	0.1144
338.8346	0.097
339.0445	0.0941
339.2543	0.101
339.4642	0.1148
339.674	0.1022
339.8838	0.105
340.0936	0.107
340.3034	0.1147
340.5132	0.1149
340.7229	0.1079
340.9327	0.0998
341.1424	0.1113
341.3522	0.1153
341.5619	0.107
341.7716	0.1066
341.9813	0.1108
342.1909	0.1038
342.4006	0.1089
342.6102	0.1281
342.8199	0.1142
343.0295	0.1228
343.2391	0.1246
343.4487	0.121
343.6583	0.1218
343.8679	0.1193
344.0774	0.1237
344.287	0.1272
344.4965	0.1177
344.706	0.1129
344.9155	0.1168
345.125	0.1137
345.3345	0.1305
345.544	0.1247
345.7534	0.1178
345.9629	0.1243
346.1723	0.1262
346.3817	0.1167
346.5911	0.1335
346.8005	0.1206
347.0099	0.123
347.2193	0.135
347.4286	0.118
347.638	0.1293
347.8473	0.1276
348.0566	0.1328
348.2659	0.1331
348.4752	0.1281
348.6845	0.1127
348.8937	0.1253
349.103	0.1388
349.3122	0.1243
349.5214	0.1243
349.7306	0.141
349.9398	0.1293
350.149	0.1329
350.3582	0.1254
350.5674	0.1473
350.7765	0.1306
350.9856	0.1344
351.1948	0.1309
351.4039	0.119
351.613	0.1336
351.822	0.1426
352.0311	0.1529
352.2402	0.1453
352.4492	0.1487
352.6582	0.1339
352.8672	0.1343
353.0762	0.138
353.2852	0.1367
353.4942	0.1357
353.7032	0.1298
353.9121	0.1408
354.1211	0.1474
354.33	0.15
354.5389	0.1563
354.7478	0.1442
354.9567	0.1552
355.1655	0.1332
355.3744	0.1506
355.5833	0.1483
355.7921	0.1738
356.0009	0.1595
356.2097	0.1616
356.4185	0.1564
356.6273	0.162
356.8361	0.1619
357.0448	0.1576
357.2536	0.1448
357.4623	0.1464
357.671	0.1548
357.8797	0.1585
358.0884	0.1655
358.2971	0.1475
358.5057	0.1719
358.7144	0.1655
358.923	0.1641
359.1316	0.1829
359.3402	0.1672
359.5488	0.1682
359.7574	0.1628
359.966	0.1762
360.1746	0.1737
360.3831	0.1832
360.5916	0.1716
360.8002	0.1625
361.0087	0.1823
361.2172	0.1637
361.4256	0.1833
361.6341	0.1811
361.8426	0.1994
362.051	0.1806
362.2594	0.1919
362.4678	0.1826
362.6762	0.1994
362.8846	0.1838
363.093	0.1828
363.3014	0.1701
363.5097	0.1774
363.718	0.192
363.9264	0.1876
364.1347	0.1707
364.343	0.2009
364.5513	0.1934
364.7595	0.1962
364.9678	0.1923
365.176	0.1984
365.3842	0.1907
365.5925	0.1814
365.8007	0.1899
366.0089	0.1892
366.217	0.1809
366.4252	0.2028
366.6333	0.2123
366.8415	0.1908
367.0496	0.1962
367.2577	0.2232
367.4658	0.2275
367.6739	0.2077
367.882	0.213
368.09	0.2073
368.2981	0.2357
368.5061	0.2003
368.7141	0.2284
368.9221	0.209
369.1301	0.2107
369.3381	0.2159
369.5461	0.2195
369.754	0.2122
369.962	0.214
370.1699	0.2239
370.3778	0.2254
370.5857	0.2202
370.7936	0.2098
371.0015	0.2226
371.2093	0.2199
371.4172	0.2424
371.625	0.2167
371.8328	0.2201
372.0406	0.2287
372.2484	0.2284
372.4562	0.2353
372.664	0.2499
372.8717	0.2445
373.0795	0.208
373.2872	0.2282
373.4949	0.2324
373.7026	0.2218
373.9103	0.2379
374.118	0.2474
374.3256	0.2584
374.5333	0.241
374.7409	0.2341
374.9485	0.2567
375.1561	0.2381
375.3637	0.2522
375.5713	0.2478
375.7789	0.2396
375.9864	0.2339
376.194	0.2435
376.4015	0.2586
376.609	0.2525
376.8165	0.2389
377.024	0.2484
377.2315	0.2335
377.4389	0.2604
377.6464	0.2495
377.8538	0.2444
378.0612	0.2312
378.2686	0.2571
378.476	0.2622
378.6834	0.2567
378.8908	0.2571
379.0981	0.2549
379.3055	0.262
379.5128	0.2425
379.7201	0.2673
379.9274	0.2514
380.1347	0.2639
380.342	0.294
380.5492	0.2632
380.7565	0.2512
380.9637	0.2632
381.1709	0.271
381.3781	0.2718
381.5853	0.2704
381.7925	0.275
381.9997	0.2693
382.2068	0.2656
382.4139	0.2718
382.6211	0.2488
382.8282	0.2613
383.0353	0.2588
383.2424	0.2487
383.4494	0.2922
383.6565	0.2435
383.8635	0.2681
384.0706	0.2712
384.2776	0.2771
384.4846	0.265
384.6916	0.2669
384.8986	0.2787
385.1055	0.2811
385.3125	0.2667
385.5194	0.2569
385.7263	0.2709
385.9333	0.2679
386.1402	0.2866
386.347	0.2574
386.5539	0.2639
386.7608	0.2723
386.9676	0.2579
387.1744	0.2692
387.3813	0.2565
387.5881	0.254
387.7948	0.261
388.0016	0.2808
388.2084	0.2637
388.4151	0.2688
388.6219	0.2777
388.8286	0.2795
389.0353	0.2872
389.242	0.2594
389.4487	0.2511
389.6553	0.2537
389.862	0.2384
390.0686	0.2545
390.2753	0.2611
390.4819	0.2788
390.6885	0.2675
390.8951	0.2463
391.1016	0.2663
391.3082	0.2689
391.5147	0.2427
391.7213	0.255
391.9278	0.2536
392.1343	0.2301
392.3408	0.2685
392.5473	0.2415
392.7537	0.244
392.9602	0.2466
393.1666	0.2461
393.373	0.2534
393.5794	0.2436
393.7858	0.2343
393.9922	0.2225
394.1986	0.2508
394.4049	0.2474
394.6113	0.2466
394.8176	0.2443
395.0239	0.2216
395.2302	0.2491
395.4365	0.2296
395.6428	0.2452
395.8491	0.2351
396.0553	0.249
396.2615	0.219
396.4678	0.2168
396.674	0.2144
396.8802	0.2355
397.0863	0.2376
397.2925	0.2272
397.4987	0.2445
397.7048	0.2294
397.9109	0.2305
398.117	0.2253
398.3231	0.2259
398.5292	0.2386
398.7353	0.2303
398.9413	0.2402
399.1474	0.239
399.3534	0.2353
399.5594	0.2122
399.7654	0.2505
399.9714	0.231
400.1774	0.2194
400.3833	0.2268
400.5893	0.236
400.7952	0.236
401.0011	0.2241
401.207	0.2306
401.4129	0.2161
401.6188	0.2257
401.8247	0.2466
402.0305	0.2108
402.2364	0.2213
402.4422	0.2273
402.648	0.2304
402.8538	0.232
403.0596	0.2102
403.2654	0.2363
403.4711	0.2232
403.6768	0.2424
403.8826	0.2339
404.0883	0.2297
404.294	0.2412
404.4997	0.2254
404.7054	0.23
404.911	0.23
405.1167	0.2447
405.3223	0.2371
405.5279	0.245
405.7335	0.2405
405.9391	0.2394
406.1447	0.225
406.3502	0.2499
406.5558	0.2093
406.7613	0.2229
406.9668	0.2323
407.1724	0.2271
407.3778	0.2206
407.5833	0.2195
407.7888	0.2338
407.9942	0.247
408.1997	0.2256
408.4051	0.2268
408.6105	0.2229
408.8159	0.2281
409.0213	0.2234
409.2267	0.2269
409.432	0.2161
409.6374	0.2236
409.8427	0.215
410.048	0.2317
410.2533	0.2293
410.4586	0.2295
410.6639	0.2261
410.8691	0.2184
411.0744	0.2338
411.2796	0.2232
411.4848	0.2167
411.69	0.2322
411.8952	0.2367
412.1004	0.2184
412.3056	0.2358
412.5107	0.2144
412.7158	0.2493
412.921	0.2241
413.1261	0.2196
413.3312	0.2109
413.5362	0.2292
413.7413	0.2106
413.9464	0.2075
414.1514	0.222
414.3564	0.2208
414.5614	0.1996
414.7664	0.2252
414.9714	0.2148
415.1764	0.2183
415.3813	0.2205
415.5863	0.2322
415.7912	0.2229
415.9961	0.222
416.201	0.2211
416.4059	0.2518
416.6108	0.2318
416.8156	0.2098
417.0205	0.215
417.2253	0.1919
417.4301	0.2304
417.6349	0.2264
417.8397	0.2154
418.0445	0.2416
418.2492	0.2138
418.454	0.2182
418.6587	0.2091
418.8634	0.2316
419.0681	0.1987
419.2728	0.1987
419.4775	0.2148
419.6822	0.2116
419.8868	0.1816
420.0915	0.2001
420.2961	0.2165
420.5007	0.2015
420.7053	0.2334
420.9099	0.2121
421.1144	0.2083
421.319	0.1923
421.5235	0.2106
421.728	0.2189
421.9325	0.1955
422.137	0.2148
422.3415	0.1966
422.546	0.2333
422.7504	0.1988
422.9549	0.2249
423.1593	0.2033
423.3637	0.2102
423.5681	0.1868
423.7725	0.1927
423.9769	0.2007
424.1812	0.2005
424.3856	0.1863
424.5899	0.2062
424.7942	0.1902
424.9985	0.1836
425.2028	0.1847
425.4071	0.2089
425.6113	0.1813
425.8156	0.1761
426.0198	0.1857
426.224	0.1752
426.4282	0.1774
426.6324	0.1877
426.8366	0.1974
427.0407	0.1806
427.2449	0.1797
427.449	0.183
427.6531	0.1503
427.8572	0.1671
428.0613	0.1811
428.2654	0.1769
428.4694	0.1747
428.6735	0.1713
428.8775	0.191
429.0815	0.1713
429.2855	0.1625
429.4895	0.1704
429.6935	0.1677
429.8975	0.1575
430.1014	0.1612
430.3053	0.1601
430.5093	0.1807
430.7132	0.1403
430.9171	0.1383
431.1209	0.1486
431.3248	0.1503
431.5286	0.1508
431.7325	0.149
431.9363	0.1325
432.1401	0.1423
432.3439	0.13
432.5477	0.1353
432.7514	0.1359
432.9552	0.1531
433.1589	0.1065
433.3627	0.1144
433.5664	0.1282
433.7701	0.1307
433.9737	0.128
434.1774	0.1216
434.3811	0.1192
434.5847	0.1304
434.7883	0.112
434.9919	0.1131
435.1955	0.1098
435.3991	0.1274
435.6027	0.1144
435.8062	0.1069
436.0098	0.1066
436.2133	0.1086
436.4168	0.1001
436.6203	0.1
436.8238	0.1145
437.0272	0.1094
437.2307	0.1036
437.4341	0.1144
437.6375	0.1124
437.841	0.0957
438.0443	0.1053
438.2477	0.1069
438.4511	0.0904
438.6545	0.0827
438.8578	0.0999
439.0611	0.0795
439.2644	0.0815
439.4677	0.0681
439.671	0.0902
439.8743	0.092
440.0775	0.1027
440.2808	0.0759
440.484	0.0692
440.6872	0.0592
440.8904	0.0718
441.0936	0.1173
441.2967	0.0868
441.4999	0.0683
441.703	0.0616
441.9062	0.0724
442.1093	0.0578
442.3124	0.0819
442.5155	0.0484
442.7185	0.0559
442.9216	0.0501
443.1246	0.0881
443.3276	0.0682
443.5307	0.0579
443.7337	0.0624
443.9366	0.059
444.1396	0.0617
444.3426	0.0493
444.5455	0.0583
444.7484	0.0537
444.9513	0.0506
445.1542	0.0631
445.3571	0.0455
445.56	0.0532
445.7628	0.0486
445.9657	0.0404
446.1685	0.058
446.3713	0.0421
446.5741	0.0538
446.7769	0.032
446.9797	0.0493
447.1824	0.0578
447.3852	0.0536
447.5879	0.0503
447.7906	0.0436
447.9933	0.041
448.196	0.0256
448.3986	0.0353
448.6013	0.0357
448.8039	0.0248
449.0066	0.0423
449.2092	0.0372
449.4118	0.0414
449.6143	0.0377
449.8169	0.0364
450.0195	0.021
450.222	0.0091
450.4245	0.0131
450.627	0.0373
450.8295	0.0346
451.032	0.0321
451.2345	0.0303
451.4369	0.0294
451.6394	0.0392
451.8418	0.0179
452.0442	0.0195
452.2466	0.0356
452.449	0
452.6513	0.0251
452.8537	0.0134
453.056	0.0099
453.2583	0.0073
453.4607	0.018
453.663	0.0115
453.8652	0.0262
454.0675	0.0167
454.2697	0.0265
454.472	-0.0034
454.6742	0.028
454.8764	0.0122
455.0786	0.0245
455.2808	0.0258
455.4829	0.0258
455.6851	0.0085
455.8872	0.0103
456.0893	0.0151
456.2915	-0.0053
456.4935	0.0112
456.6956	-0.0015
456.8977	0.01
457.0997	0.0031
457.3018	0.0051
457.5038	0.0113
457.7058	0.0031
457.9078	0.0044
458.1098	0.0013
458.3117	0.0214
458.5137	0.0066
458.7156	0.0181
458.9175	-0.0079
459.1194	0.0042
459.3213	0.0115
459.5232	-0.0127
459.725	-0.0056
459.9269	0.0091
460.1287	0.003
460.3305	0.0156
460.5323	0.0024
460.7341	0.007
460.9359	0.0065
461.1376	0.013
461.3394	0.0012
461.5411	-0.001
461.7428	-0.0056
461.9445	0.0147
462.1462	0.0097
462.3479	-0.0079
462.5495	0.0046
462.7512	0.0016
462.9528	0.017
463.1544	-0.0041
463.356	0.0009
463.5576	0.0025
463.7592	-0.0053
463.9607	-0.0061
464.1623	0.0057
464.3638	0.004
464.5653	-0.0074
464.7668	-0.006
464.9683	0.0081
465.1697	0.0185
465.3712	-0.0166
465.5726	-0.01
465.7741	-0.0012
465.9755	-0.0067
466.1769	-0.0033
466.3782	0.0157
466.5796	-0.0047
466.7809	0.0094
466.9823	-0.0058
467.1836	-0.0159
467.3849	-0.0015
467.5862	-0.0008
467.7875	-0.0117
467.9887	0.0193
468.19	0.0008
468.3912	-0.0053
468.5924	-0.005
468.7936	-0.0153
468.9948	0.0005
469.196	0.0039
469.3972	-0.0054
469.5983	0.0104
469.7994	-0.0106
470.0006	0.0022
470.2017	-0.0057
470.4027	-0.0013
470.6038	0.0035
470.8049	-0.011
471.0059	-0.0079
471.2069	-0.0308
471.408	0.0016
471.6089	0.0063
471.8099	-0.0091
472.0109	0.0085
472.2119	-0.0198
472.4128	-0.0192
472.6137	-0.0029
472.8146	-0.0064
473.0155	0.002
473.2164	-0.0125
473.4173	0.0067
473.6181	0.0012
473.819	-0.0026
474.0198	-0.0145
474.2206	-0.0001
474.4214	-0.0127
474.6222	0.002
474.8229	-0.0036
475.0237	-0.019
475.2244	-0.0037
475.4251	-0.0099
475.6258	-0.0103
475.8265	-0.0054
476.0272	0.0103
476.2278	0.0025
476.4285	-0.0048
476.6291	-0.0117
476.8297	-0.0082
477.0303	-0.0068
477.2309	-0.0119
477.4315	-0.017
477.632	-0.0004
477.8326	-0.0137
478.0331	0.0022
478.2336	-0.0089
478.4341	-0.0079
478.6346	-0.0032
478.8351	-0.0054
479.0355	-0.0048
479.236	-0.0035
479.4364	0.0072
479.6368	-0.0049
479.8372	-0.0104
480.0376	-0.011
480.2379	-0.0225
480.4383	-0.0147
480.6386	0.0077
480.8389	-0.0013
481.0392	-0.0097
481.2395	-0.01
481.4398	-0.0018
481.6401	0.0046
481.8403	-0.0119
482.0405	-0.0151
482.2408	-0.0101
482.441	0.0056
482.6411	-0.0119
482.8413	-0.0095
483.0415	-0.0126
483.2416	-0.0145
483.4417	-0.0054
483.6419	-0.0067
483.8419	-0.0161
484.042	-0.0012
484.2421	0.0034
484.4422	-0.016
484.6422	-0.011
484.8422	-0.0085
485.0422	-0.0162
485.2422	-0.0019
485.4422	-0.009
485.6422	-0.0069
485.8421	-0.0058
486.042	-0.01
486.242	-0.0085
486.4419	-0.0203
486.6417	-0.0207
486.8416	-0.0139
487.0415	-0.005
487.2413	-0.0058
487.4411	-0.0132
487.641	-0.0178
487.8408	-0.0029
488.0405	-0.011
488.2403	-0.0106
488.4401	0.0054
488.6398	-0.0129
488.8395	-0.0132
489.0392	-0.003
489.2389	-0.0154
489.4386	-0.0127
489.6383	-0.0114
489.8379	0.0028
490.0376	-0.0028
490.2372	-0.0135
490.4368	-0.0235
490.6364	-0.0157
490.836	-0.0109
491.0355	-0.0146
491.2351	-0.0056
491.4346	-0.0178
491.6341	-0.0222
491.8336	-0.0054
492.0331	-0.0301
492.2326	-0.0118
492.432	-0.0138
492.6315	-0.013
492.8309	-0.0294
493.0303	-0.0121
493.2297	-0.0078
493.4291	-0.0165
493.6284	-0.0078
493.8278	-0.0087
494.0271	-0.0091
494.2264	0.0015
494.4257	-0.011
494.625	-0.0175
494.8243	-0.029
495.0236	-0.0186
495.2228	-0.0202
495.422	-0.0089
495.6213	-0.0131
495.8205	-0.0118
496.0196	-0.0052
496.2188	-0.0019
496.418	-0.0111
496.6171	-0.0162
496.8162	-0.0169
497.0153	-0.0052
497.2144	-0.014
497.4135	-0.0022
497.6126	-0.022
497.8116	-0.0072
498.0107	-0.0124
498.2097	-0.0206
498.4087	-0.0199
498.6077	0.0029
498.8067	-0.0104
499.0056	-0.0049
499.2046	-0.0123
499.4035	-0.0212
499.6024	-0.0132
499.8013	-0.0058
500.0002	-0.0189
500.199	-0.0108
500.3979	-0.0095
500.5967	-0.0284
500.7956	-0.0146
500.9944	-0.0113
501.1932	-0.017
501.3919	-0.0177
501.5907	-0.0206
501.7895	-0.006
501.9882	-0.0184
502.1869	-0.0152
502.3856	-0.0195
502.5843	-0.0229
502.783	-0.0057
502.9816	-0.0128
503.1803	-0.0159
503.3789	-0.0229
503.5775	-0.0011
503.7761	-0.0154
503.9747	-0.0114
504.1732	-0.0144
504.3718	-0.0064
504.5703	-0.009
504.7689	-0.005
504.9674	-0.001
505.1658	-0.0189
505.3643	-0.0106
505.5628	-0.0073
505.7612	-0.0121
505.9597	-0.0123
506.1581	-0.0126
506.3565	0.0069
506.5549	-0.008
506.7532	-0.0256
506.9516	-0.0111
507.1499	-0.0175
507.3482	-0.0283
507.5465	-0.0126
507.7448	-0.0006
507.9431	-0.0132
508.1414	-0.011
508.3396	-0.0031
508.5379	-0.0125
508.7361	-0.013
508.9343	-0.0122
509.1325	-0.0137
509.3306	-0.0111
509.5288	-0.0107
509.7269	-0.0148
509.9251	-0.0052
510.1232	-0.0171
510.3213	-0.0081
510.5193	-0.0015
510.7174	-0.0212
510.9154	-0.0102
511.1135	-0.019
511.3115	-0.0162
511.5095	-0.0063
511.7075	-0.0115
511.9055	-0.0065
512.1034	-0.0113
512.3014	-0.0004
512.4993	-0.0091
512.6972	-0.013
512.8951	-0.0137
513.093	-0.0005
513.2908	-0.0038
513.4887	-0.0043
513.6865	-0.0147
513.8844	-0.0087
514.0822	-0.0094
514.2799	-0.0167
514.4777	-0.0094
514.6755	-0.0122
514.8732	-0.0101
515.0709	-0.008
515.2687	-0.0147
515.4664	-0.0182
515.664	-0.0103
515.8617	-0.0182
516.0594	-0.0221
516.257	-0.0093
516.4546	-0.0218
516.6522	-0.0031
516.8498	-0.0096
517.0474	-0.0007
517.2449	-0.0063
517.4425	-0.0183
517.64	-0.007
517.8375	-0.0056
518.035	-0.005
518.2325	-0.0065
518.43	-0.0269
518.6274	-0.0083
518.8249	-0.0175
519.0223	-0.0004
519.2197	-0.009
519.4171	-0.0146
519.6145	-0.0118
519.8118	-0.0058
520.0092	-0.0115
520.2065	-0.008
520.4038	-0.0244
520.6011	-0.0061
520.7984	-0.0197
520.9956	-0.0172
521.1929	-0.0294
521.3901	-0.0047
521.5874	-0.0105
521.7846	-0.0027
521.9818	-0.0076
522.1789	-0.0054
522.3761	-0.0144
522.5732	-0.0111
522.7704	-0.0139
522.9675	-0.0202
523.1646	-0.0153
523.3617	-0.0121
523.5587	-0.0072
523.7558	-0.0106
523.9528	-0.018
524.1498	-0.0049
524.3468	-0.0124
524.5438	-0.0159
524.7408	-0.0108
524.9378	-0.002
525.1347	-0.0106
525.3316	0.003
525.5285	-0.0233
525.7254	-0.0064
525.9223	-0.0088
526.1192	-0.0122
526.316	-0.0114
526.5129	-0.0026
526.7097	-0.0222
526.9065	-0.0064
527.1033	-0.0172
527.3	-0.0134
527.4968	-0.0112
527.6935	0.0004
527.8903	-0.0233
528.087	-0.0138
528.2837	-0.0111
528.4804	-0.0086
528.677	-0.0143
528.8737	0.0003
529.0703	-0.0098
529.2669	-0.0152
529.4635	-0.021
529.6601	-0.0114
529.8567	-0.0099
530.0532	-0.013
530.2498	-0.0073
530.4463	-0.004
530.6428	-0.0013
530.8393	-0.0011
531.0358	-0.0139
531.2322	-0.0082
531.4287	-0.0056
531.6251	-0.0145
531.8215	-0.0027
532.0179	-0.0029
532.2143	0.001
532.4107	-0.004
532.607	-0.0108
532.8034	-0.0066
532.9997	-0.0021
533.196	-0.0091
533.3923	-0.005
533.5886	-0.006
533.7848	-0.0027
533.9811	-0.0111
534.1773	-0.0053
534.3735	0.0019
534.5697	-0.0036
534.7659	-0.014
534.9621	-0.0054
535.1582	-0.0163
535.3544	-0.0121
535.5505	-0.0148
535.7466	0.0048
535.9427	-0.0119
536.1387	-0.0077
536.3348	-0.0051
536.5308	-0.0007
536.7269	-0.0192
536.9229	-0.0038
537.1189	-0.0023
537.3148	-0.0053
537.5108	-0.01
537.7068	-0.0081
537.9027	-0.0118
538.0986	-0.0075
538.2945	0.0017
538.4904	-0.0136
538.6863	-0.0041
538.8821	-0.006
539.078	-0.0149
539.2738	-0.0045
539.4696	-0.0095
539.6654	-0.0053
539.8611	-0.0012
540.0569	-0.0102
540.2526	-0.0046
540.4484	-0.0048
540.6441	-0.0016
540.8398	-0.0022
541.0355	0
541.2311	0.0006
541.4268	-0.0164
541.6224	-0.0052
541.818	-0.0023
542.0136	-0.0125
542.2092	-0.0097
542.4048	0.0054
542.6003	-0.0083
542.7959	-0.0105
542.9914	-0.0125
543.1869	-0.0045
543.3824	-0.0088
543.5779	-0.0154
543.7734	-0.001
543.9688	-0.0157
544.1642	0.0074
544.3596	-0.0018
544.555	-0.013
544.7504	-0.0015
544.9458	-0.0015
545.1411	-0.0078
545.3365	-0.0005
545.5318	-0.0067
545.7271	-0.0009
545.9224	-0.0113
546.1177	-0.0025
546.3129	-0.0094
546.5081	-0.0025
546.7034	-0.0053
546.8986	-0.0112
547.0938	-0.0044
547.289	-0.012
547.4841	0.0021
547.6793	0.0065
547.8744	-0.0138
548.0695	-0.007
548.2646	-0.0039
548.4597	-0.0022
548.6548	-0.0065
548.8498	-0.0037
549.0448	-0.0009
549.2399	-0.0049
549.4349	0.0079
549.6298	0.0017
549.8248	0.0014
550.0198	-0.0019
550.2147	-0.0119
550.4096	-0.0066
550.6045	-0.0097
550.7994	0.0116
550.9943	-0.0042
551.1892	-0.0067
551.384	-0.0026
551.5788	-0.0119
551.7737	-0.003
551.9685	-0.0019
552.1632	0.0014
552.358	-0.0085
552.5528	-0.0011
552.7475	-0.0016
552.9422	-0.0019
553.1369	-0.0052
553.3316	0.0014
553.5263	-0.0041
553.7209	0.0039
553.9156	0.0067
554.1102	-0.0122
554.3048	-0.0033
554.4994	-0.0013
554.694	-0.006
554.8885	0.0003
555.0831	-0.0064
555.2776	-0.0103
555.4721	-0.0017
555.6666	-0.0091
555.8611	0.007
556.0555	-0.0011
556.25	0.0023
556.4444	-0.0135
556.6388	0.0012
556.8332	-0.0017
557.0276	0.0013
557.222	-0.0007
557.4163	-0.004
557.6107	-0.0134
557.805	0.0024
557.9993	-0.0063
558.1936	-0.0129
558.3879	-0.0141
558.5821	0.0008
558.7764	-0.0071
558.9706	0.0025
559.1648	-0.0052
559.359	-0.0012
559.5532	-0.0081
559.7473	-0.0083
559.9415	0.0027
560.1356	-0.0034
560.3297	-0.017
560.5238	0.0024
560.7179	-0.005
560.9119	-0.0009
561.106	-0.0028
561.3	-0.0084
561.494	0.0012
561.688	-0.0014
561.882	-0.005
562.076	0.002
562.2699	0.0014
562.4639	-0.0014
562.6578	0.0003
562.8517	-0.004
563.0456	0.0084
563.2395	-0.003
563.4333	0.0033
563.6272	-0.0025
563.821	-0.0003
564.0148	-0.0033
564.2086	-0.01
564.4024	-0.0065
564.5961	-0.0076
564.7899	0.0005
564.9836	0.0037
565.1773	-0.0082
565.371	0.0027
565.5647	-0.0007
565.7584	-0.0117
565.952	-0.0071
566.1456	0.0011
566.3393	-0.0077
566.5329	-0.0035
566.7264	-0.0137
566.92	-0.0107
567.1136	0.003
567.3071	-0.0108
567.5006	-0.0034
567.6941	0.0019
567.8876	-0.0038
568.0811	-0.0011
568.2745	0.01
568.468	0.0115
568.6614	-0.0002
568.8548	-0.0026
569.0482	-0.0098
569.2416	0.005
569.4349	-0.0038
569.6283	-0.0086
569.8216	-0.0073
570.0149	-0.0005
570.2082	-0.0006
570.4015	0.0066
570.5947	-0.0015
570.788	-0.0021
570.9812	-0.0014
571.1744	-0.0109
571.3676	-0.015
571.5608	-0.0019
571.754	0.004
571.9471	0.0033
572.1402	-0.004
572.3333	-0.0057
572.5264	-0.004
572.7195	0.0008
572.9126	0.0006
573.1057	-0.0056
573.2987	0.0003
573.4917	0.0049
573.6847	-0.0067
573.8777	-0.0026
574.0707	0.0083
574.2636	0.003
574.4566	-0.0112
574.6495	0.0049
574.8424	-0.003
575.0353	0.0029
575.2281	0.0047
575.421	-0.0017
575.6138	0.008
575.8067	-0.0029
575.9995	0.0068
576.1923	0.0074
576.385	0.0021
576.5778	-0.0051
576.7706	-0.0003
576.9633	-0.0032
577.156	0.003
577.3487	0.0024
577.5414	0.0023
577.734	-0.003
577.9267	0.0048
578.1193	-0.0047
578.3119	-0.003
578.5045	0.0027
578.6971	0.0014
578.8897	0.0033
579.0822	0.0037
579.2747	0.005
579.4673	0.0014
579.6598	-0.0085
579.8522	-0.001
580.0447	-0.0034
580.2372	-0.0004
580.4296	0.0035
580.622	-0.0014
580.8144	0.0008
581.0068	-0.006
581.1992	-0.012
581.3915	-0.0092
581.5839	-0.0068
581.7762	-0.0108
581.9685	-0.0006
582.1608	0.0022
582.353	-0.0008
582.5453	0.0019
582.7375	0.0012
582.9298	0.0018
583.122	0.0006
583.3142	0.0023
583.5063	0.0004
583.6985	0.0035
583.8906	-0.0003
584.0827	0.001
584.2749	-0.0001
584.4669	-0.0056
584.659	0.0049
584.8511	0
585.0431	-0.0001
585.2352	0.0056
585.4272	0.0017
585.6192	0.0016
585.8111	-0.0067
586.0031	0.0024
586.195	0.0037
586.387	0.003
586.5789	-0.0072
586.7708	0.0111
586.9627	-0.0056
587.1545	-0.0051
587.3464	0.0013
587.5382	0.0014
587.73	0.0052
587.9218	0.0012
588.1136	-0.0048
588.3053	0.0067
588.4971	-0.0026
588.6888	-0.0087
588.8805	0.0083
589.0722	0.0069
589.2639	0.0033
589.4556	-0.0038
589.6472	-0.0023
589.8389	-0.0096
590.0305	-0.0032
590.2221	0.009
590.4137	-0.0105
590.6052	0.0007
590.7968	-0.0061
590.9883	0.0023
591.1798	0.0001
591.3713	-0.0037
591.5628	0.0078
591.7543	0.0043
591.9458	-0.0014
592.1372	0.0079
592.3286	0.0063
592.52	0.001
592.7114	0.0023
592.9028	-0.0009
593.0941	-0.0043
593.2855	-0.0022
593.4768	-0.0078
593.6681	-0.0002
593.8594	-0.0035
594.0506	0.003
594.2419	0.0129
594.4331	0.0115
594.6244	0.0084
594.8156	-0.0052
595.0067	0.0038
595.1979	0.002
595.3891	-0.002
595.5802	-0.004
595.7713	-0.0071
595.9624	0.0031
596.1535	0.0083
596.3446	0.0053
596.5357	0.0007
596.7267	0.0029
596.9177	0.0009
597.1087	-0.0051
597.2997	-0.0068
597.4907	0.0027
597.6817	-0.0046
597.8726	-0
598.0635	-0.0039
598.2544	0.0007
598.4453	-0.0035
598.6362	-0.0032
598.827	-0.0064
599.0179	0.0004
599.2087	0.008
599.3995	-0.0085
599.5903	-0.0031
599.7811	0.0011
599.9718	0.0014
600.1626	-0.0087
600.3533	-0.0052
600.544	0.0021
600.7347	-0.0077
600.9254	-0.001
601.116	-0.0071
601.3067	0.0029
601.4973	0.0011
601.6879	0.0037
601.8785	0.0036
602.0691	0.0013
602.2596	-0.0003
602.4502	0.0032
602.6407	-0.0035
602.8312	-0.0023
603.0217	-0.0086
603.2122	-0.0036
603.4027	0.0006
603.5931	-0.003
603.7835	-0.0045
603.9739	-0.0005
604.1643	0.0011
604.3547	-0.0109
604.5451	0.0035
604.7354	0.0002
604.9257	-0.0016
605.116	-0.0042
605.3063	0.0033
605.4966	0.0045
605.6869	0.0046
605.8771	0.005
606.0673	0.0075
606.2575	0.0056
606.4477	0.0035
606.6379	0.0035
606.8281	-0.0015
607.0182	0.0049
607.2083	0.0121
607.3985	-0.0019
607.5885	-0.0012
607.7786	0.0025
607.9687	-0.0003
608.1587	0.0085
608.3488	0.0055
608.5388	-0.0003
608.7288	0.0023
608.9187	-0.0059
609.1087	-0.0001
609.2986	-0.0058
609.4886	-0.0037
609.6785	-0.005
609.8684	0.003
610.0582	-0.0022
610.2481	0.0002
610.4379	0.0031
610.6278	0.0013
610.8176	0.0039
611.0074	-0.0026
611.1971	-0.0003
611.3869	-0.007
611.5766	-0
611.7664	0.0024
611.9561	-0.002
612.1458	0.0078
612.3354	-0.0004
612.5251	0.0013
612.7147	0.0055
612.9044	0.0031
613.094	-0.0072
613.2836	0.0082
613.4731	-0.0044
613.6627	-0.0059
613.8522	-0.0009
614.0417	0.0032
614.2313	-0.0055
614.4207	-0.0017
614.6102	0.0003
614.7997	-0.0048
614.9891	-0.0011
615.1785	-0.0039
615.3679	-0.0052
615.5573	0.0088
615.7467	-0.0025
615.9361	-0.0038
616.1254	0.0006
616.3147	0.0048
616.504	0.0029
616.6933	0.0038
616.8826	0.0011
617.0718	0.0016
617.2611	-0.0059
617.4503	-0.0076
617.6395	-0.0081
617.8287	0.002
618.0179	0.0023
618.207	0.0061
618.3961	0.0014
618.5853	0.0035
618.7744	0.002
618.9634	0.0078
619.1525	0.0011
619.3416	0.0053
619.5306	0.0029
619.7196	0.0024
619.9086	-0.0041
620.0976	0.0125
620.2866	0.0013
620.4755	0.0004
620.6645	0.0101
620.8534	0.0022
621.0423	0.0103
621.2312	0.0062
621.42	0.0048
621.6089	0.001
621.7977	0.0052
621.9865	-0.0053
622.1753	0.0051
622.3641	0.0001
622.5529	0.0055
622.7416	0.0044
622.9303	-0.0027
623.1191	0.0082
623.3078	-0.0016
623.4964	0.0024
623.6851	-0.0017
623.8737	0.0087
624.0624	0.0051
624.251	0.002
624.4396	-0.0014
624.6282	0.0027
624.8167	0.0049
625.0053	-0.0005
625.1938	0.0041
625.3823	0.0014
625.5708	0.0034
625.7593	0.0002
625.9477	-0.0049
626.1362	-0.0061
626.3246	-0.0054
626.513	0.0045
626.7014	0.0038
626.8898	-0.0013
627.0781	-0.0006
627.2665	-0.003
627.4548	0.0087
627.6431	0.0034
627.8314	0.0095
628.0197	0.0076
628.2079	-0.0044
628.3962	0.0048
628.5844	0.0026
628.7726	0.0062
628.9608	0.0044
629.1489	0.0016
629.3371	0.0067
629.5252	-0.0015
629.7134	0.0146
629.9015	-0.0021
630.0895	0.0005
630.2776	0.0025
630.4657	0.0019
630.6537	0.001
630.8417	-0.0025
631.0297	0.0047
631.2177	-0.0005
631.4057	-0.0044
631.5936	0.0004
631.7815	-0.0011
631.9695	0.0016
632.1574	0.0008
632.3452	0.014
632.5331	0.0063
632.7209	0.0029
632.9088	0.0013
633.0966	0.0104
633.2844	0.0025
633.4722	0.0037
633.6599	0.0069
633.8477	0.0112
634.0354	-0.0001
634.2231	-0.0081
634.4108	0.0035
634.5985	0.0096
634.7861	-0.0027
634.9738	0.0035
635.1614	0.0016
635.349	0.0029
635.5366	-0.0019
635.7242	0.0037
635.9117	0.0132
636.0993	0.0058
636.2868	0.0029
636.4743	-0.0004
636.6618	0.0124
636.8492	0.0021
637.0367	0.0024
637.2241	-0.0001
637.4115	-0.0005
637.5989	0.0004
637.7863	-0.0006
637.9737	-0.0037
638.161	-0.0079
638.3484	-0.0006
638.5357	0.0063
638.723	-0.0025
638.9103	-0.0004
639.0975	0.0007
639.2848	0.0001
639.472	-0.0006
639.6592	0.0033
639.8464	0.0093
640.0336	0.0033
640.2208	0.0026
640.4079	0.001
640.595	0.0006
640.7821	-0.0053
640.9692	-0.0014
641.1563	-0.0042
641.3434	-0.0013
641.5304	-0.0014
641.7174	-0.0015
641.9044	-0.0075
642.0914	0.0002
642.2784	-0.001
642.4653	0.0054
642.6523	-0.0008
642.8392	-0.0053
643.0261	0.0039
643.213	0.0001
643.3999	-0.006
643.5867	-0.0014
643.7735	-0.0075
643.9604	-0.0103
644.1472	-0.0054
644.3339	0.0024
644.5207	-0.0094
644.7075	-0.0053
644.8942	0.0017
645.0809	0.0072
645.2676	0.0043
645.4543	0.0016
645.6409	0.0055
645.8276	-0.0024
646.0142	0.001
646.2008	-0.0078
646.3874	-0.0072
646.574	0.0015
646.7605	-0.0072
646.9471	-0.0104
647.1336	-0.0037
647.3201	0.0085
647.5066	-0.0017
647.6931	0.0082
647.8795	0.0004
648.0659	0.0043
648.2524	0.0084
648.4388	-0.0012
648.6252	-0.0053
648.8115	0.0021
648.9979	-0.0025
649.1842	0.0016
649.3705	0.001
649.5568	0.005
649.7431	0.0091
649.9294	-0.0006
650.1156	0.0031
650.3018	0.0037
650.488	0.0067
650.6742	0.0054
650.8604	0.0011
651.0466	-0.0062
651.2327	-0.0041
651.4188	0.0047
651.6049	-0.0057
651.791	-0.0021
651.9771	0.0089
652.1632	0.0046
652.3492	0.0007
652.5352	-0.0021
652.7212	-0.0005
652.9072	-0.0044
653.0932	-0.0004
653.2791	-0.008
653.465	-0.002
653.651	-0.0103
653.8369	-0.0017
654.0227	-0.0041
654.2086	0.0027
654.3944	-0.0004
654.5803	-0.0021
654.7661	-0.0063
654.9519	-0.0008
655.1377	-0.0082
655.3234	-0.0067
655.5092	-0.0062
655.6949	-0.0049
655.8806	-0.0022
656.0663	-0.0028
656.2519	-0.0011
656.4376	-0.0028
656.6232	0.0014
656.8088	-0.0027
656.9945	-0.0035
657.18	-0.0005
657.3656	0.002
657.5511	-0.0033
657.7367	0.0045
657.9222	0.0026
658.1077	0.0016
658.2932	0.0017
658.4786	-0.0059
658.6641	-0.0059
658.8495	0.0032
659.0349	-0.0079
659.2203	0.006
659.4057	0.0037
659.591	-0.0059
659.7764	-0.0068
659.9617	0.0014
660.147	-0.0031
660.3323	-0.0028
660.5176	0.0042
660.7028	0.0021
660.888	-0.0027
661.0733	-0.0068
661.2585	-0.0052
661.4436	-0.0076
661.6288	-0.0052
661.8139	-0.0049
661.9991	-0.0037
662.1842	-0.006
662.3693	-0.0045
662.5544	-0.0018
662.7394	0.0005
662.9245	-0.0045
663.1095	-0.0062
663.2945	-0.0033
663.4795	-0.0018
663.6644	0.0031
663.8494	-0.0006
664.0343	0.0056
664.2193	-0.0032
664.4042	0
664.589	-0.0063
664.7739	0
664.9587	-0.007
665.1436	-0.0066
665.3284	0.0027
665.5132	-0.0082
665.698	0.0009
665.8827	0.0016
666.0675	0.0032
666.2522	0.0009
666.4369	0.009
666.6216	0.0052
666.8063	0.004
666.9909	0.0015
667.1756	-0.0021
667.3602	0.0003
667.5448	-0.0056
667.7294	0.0034
667.9139	-0.0002
668.0985	0.0067
668.283	0.001
668.4675	0.0001
668.652	-0.0004
668.8365	-0.0034
669.0209	0.0037
669.2054	0.0044
669.3898	-0.0014
669.5742	-0.0004
669.7586	0.0069
669.943	0.0104
670.1273	0.0057
670.3117	0.0069
670.496	-0.0006
670.6803	0.0103
670.8646	0.0065
671.0488	0.0016
671.2331	0.0075
671.4173	0.0034
671.6015	0.0011
671.7857	0.0012
671.9699	0.0064
672.1541	0.0034
672.3382	0.0039
672.5223	0.0026
672.7064	0.0087
672.8905	0.0031
673.0746	0.0018
673.2587	-0.0001
673.4427	0.0036
673.6267	0.0099
673.8107	0.0056
673.9947	0.0027
674.1787	0.002
674.3626	-0.0048
674.5465	0.0021
674.7304	0.0042
674.9143	0.004
675.0982	0.0028
675.2821	-0.0082
675.4659	0.002
675.6497	0.0041
675.8335	0.0045
676.0173	-0.0014
676.2011	0.0106
676.3849	0.0108
676.5686	0.002
676.7523	0.0069
676.936	-0.0014
677.1197	-0.0029
677.3034	-0.0032
677.487	0.0055
677.6706	0
677.8542	0.0062
678.0378	0.0021
678.2214	-0.0006
678.405	0.0058
678.5885	-0.0059
678.772	0.0066
678.9555	-0.0093
679.139	-0.0025
679.3225	-0.0016
679.5059	-0.0031
679.6894	-0.0008
679.8728	0.0063
680.0562	-0.0106
680.2395	-0.0076
680.4229	-0.0089
680.6062	0.0067
680.7896	-0.0021
680.9729	-0.008
681.1562	-0.0032
681.3394	0.0068
681.5227	-0.0107
681.7059	-0.006
681.8891	-0.0067
682.0723	0.0024
682.2555	-0.0008
682.4387	-0.0033
682.6218	-0.0053
682.805	0.0087
682.9881	-0.0002
683.1712	-0.0066
683.3542	-0.0008
683.5373	0.0051
683.7203	-0.0002
683.9034	-0.0014
684.0864	-0.0081
684.2694	-0.0081
684.4523	0.0065
684.6353	-0.0073
684.8182	-0.0032
685.0011	-0.0062
685.184	0.0011
685.3669	-0.0024
685.5498	-0.0003
685.7326	0.0009
685.9154	-0.0017
686.0982	0.0088
686.281	0.0114
686.4638	0.0008
686.6465	0.0043
686.8293	-0.0038
687.012	0.0045
687.1947	-0.008
687.3774	0.0065
687.56	-0.0027
687.7427	0.0034
687.9253	-0.0046
688.1079	0.0039
688.2905	0.0064
688.4731	-0.0026
688.6556	-0.0116
688.8382	0.0065
689.0207	0.0002
689.2032	-0.0076
689.3857	-0
689.5681	0.0049
689.7506	-0.0062
689.933	-0.0072
690.1154	0.0028
690.2978	-0.0029
690.4802	0.0044
690.6626	-0.0118
690.8449	-0.007
691.0272	0.0075
691.2095	-0.0089
691.3918	-0.0009
691.5741	0.0037
691.7563	-0.0001
691.9386	0.0076
692.1208	-0.0015
692.303	0.0079
692.4852	-0.0058
692.6673	0.0032
692.8495	0.0015
693.0316	-0.0005
693.2137	0.0031
693.3958	0.002
693.5778	0.0098
693.7599	-0.0021
693.9419	-0.0024
694.1239	0.0036
694.3059	-0.0007
694.4879	0.0084
694.6699	0.0149
694.8518	0.0085
695.0337	-0.0074
695.2157	0.0139
695.3975	-0.0045
695.5794	0.0055
695.7613	0.0022
695.9431	0.0026
696.1249	0.0017
696.3067	0.0089
696.4885	0.0018
696.6703	-0.0087
696.852	-0.0043
697.0337	-0.0023
697.2154	-0.001
697.3971	-0.0021
697.5788	0.0039
697.7605	-0.0044
697.9421	0.0056
698.1237	-0.0004
698.3053	0
698.4869	-0.0024
698.6685	-0.01
698.85	-0.0015
699.0315	0.01
699.213	-0.0012
699.3945	0.0062
699.576	0.0053
699.7575	0.0038
699.9389	0.0128
700.1203	0.0025
700.3017	-0.002
700.4831	0.0004
700.6645	0
700.8458	0.0129
701.0271	0.0057
701.2084	0.0069
701.3897	0.0083
701.571	0.0048
701.7523	0.0012
701.9335	-0.0015
702.1147	-0.001
702.2959	0.0038
702.4771	0.0025
702.6583	-0.0018
702.8394	-0.0011
703.0205	0.0022
703.2016	0.0004
703.3827	0.0016
703.5638	0.0172
703.7449	0.0049
703.9259	0.0162
704.1069	-0.0021
704.2879	0.0067
704.4689	0.0043
704.6499	0
704.8308	-0.0007
705.0117	0.0014
705.1927	0.0008
705.3735	-0.0058
705.5544	-0.0041
705.7353	-0.0033
705.9161	-0.0021
706.0969	-0.0115
706.2777	0.0026
706.4585	0.0002
706.6393	0.004
706.82	-0.0011
707.0007	0.0022
707.1815	0.0059
707.3621	0.0081
707.5428	0.0059
707.7235	0.0081
707.9041	-0.0019
708.0847	-0.0036
708.2653	-0.0086
708.4459	-0.0164
708.6265	0.0066
708.807	0.0019
708.9875	-0.0007
709.168	-0.0046
709.3485	-0.0007
709.529	-0.0037
709.7095	-0.0115
709.8899	0.001
710.0703	-0.0047
710.2507	-0.0057
710.4311	-0.0013
710.6115	-0.0137
710.7918	-0.0073
710.9721	-0.0044
711.1524	-0.0054
711.3327	0.0046
711.513	0.001
711.6932	0.0001
711.8735	0.0078
712.0537	-0.0021
712.2339	-0.0051
712.4141	-0.0067
712.5942	-0.0061
712.7744	0.0014
712.9545	-0.0127
713.1346	-0.0109
713.3147	-0.0065
713.4947	-0.0093
713.6748	-0.0104
713.8548	-0.0043
714.0348	-0.0032
714.2148	-0.0067
714.3948	0.0106
714.5748	-0.005
714.7547	-0.0035
714.9346	0.0015
715.1145	-0.0058
715.2944	-0.0072
715.4743	-0.0063
715.6541	0.0014
715.834	-0.0018
716.0138	-0.0006
716.1936	-0.0062
716.3733	-0.0075
716.5531	0.0087
716.7328	-0.0044
716.9126	-0.0134
717.0923	-0.0013
717.2719	-0.0051
717.4516	0.006
717.6312	0.0055
717.8109	-0.0116
717.9905	0.0034
718.1701	-0.0047
718.3496	-0.0065
718.5292	-0.001
718.7087	0.0045
718.8882	0.0043
719.0677	0.0049
719.2472	0.0021
719.4267	0.0035
719.6061	-0.0026
719.7856	0.0008
719.965	0.0018
720.1443	-0.002
720.3237	0.0104
720.5031	0.004
720.6824	0.0123
720.8617	-0.0027
721.041	-0.0036
721.2203	0.015
721.3995	0.0083
721.5788	0.0108
721.758	0.0081
721.9372	-0.0006
722.1164	0.011
722.2956	0.0101
722.4747	-0.0003
722.6538	-0.0016
722.8329	0.0105
723.012	0.0022
723.1911	0.0042
723.3702	0.0014
723.5492	0.001
723.7282	-0.0023
723.9072	0.0043
724.0862	-0.004
724.2652	-0.0015
724.4441	-0.0026
724.623	0.0005
724.8019	-0.0018
724.9808	0.0091
725.1597	-0.0138
725.3385	0.0059
725.5174	0.0075
725.6962	0.0021
725.875	-0.0015
726.0538	0.0053
726.2325	0.005
726.4112	0.0031
726.59	0.0005
726.7687	-0.007
726.9474	0.0007
727.126	0.0001
727.3047	-0.0054
727.4833	0.0024
727.6619	-0.0019
727.8405	-0.0123
728.0191	-0.0102
728.1976	-0.0067
728.3762	-0.0022
728.5547	0.0018
728.7332	-0.0056
728.9116	-0.0026
729.0901	0.0006
729.2686	-0.0121
729.447	-0.0058
729.6254	-0.0029
729.8038	-0.0035
729.9821	-0.0182
730.1605	-0.0031
730.3388	0.0011
730.5171	-0.0065
730.6954	-0.0071
730.8737	0.0021
731.0519	0.0033
731.2302	0.0051
731.4084	0.0107
731.5866	0.0017
731.7648	0.0027
731.9429	-0.0022
732.1211	-0.0027
732.2992	-0.0006
732.4773	-0.0008
732.6554	0.0027
732.8335	0.0031
733.0115	0.0082
733.1896	0.009
733.3676	-0.0067
733.5456	0.0053
733.7235	0.0146
733.9015	-0.0114
734.0794	-0.0033
734.2574	-0.0127
734.4353	-0.001
734.6131	0.0096
734.791	0.0037
734.9689	-0.0016
735.1467	0.0053
735.3245	-0.0097
735.5023	-0.0082
735.68	-0.0079
735.8578	-0.0033
736.0355	-0.0274
736.2132	-0.0165
736.3909	-0.0045
736.5686	-0.0114
736.7463	-0.0005
736.9239	-0.0081
737.1015	-0.0135
737.2791	0.0004
737.4567	-0.0022
737.6343	-0.0058
737.8118	0.0027
737.9894	-0.0026
738.1669	-0.0052
738.3444	-0.0139
738.5218	0.0045
738.6993	-0.0072
738.8767	-0.0042
739.0541	0.0105
739.2315	-0.0164
739.4089	-0.004
739.5863	0.0057
739.7636	-0.0108
739.9409	-0.005
740.1182	-0.0028
740.2955	0.0037
740.4728	0.0056
740.65	-0.006
740.8272	-0.0062
741.0044	-0.0086
741.1816	-0.0021
741.3588	0.0013
741.5359	0.0028
741.7131	-0.0141
741.8902	-0.0019
742.0673	0.0019
742.2444	-0.004
742.4214	-0.0105
742.5985	-0.0036
742.7755	-0.0082
742.9525	-0.016
743.1295	-0.0046
743.3064	-0.0072
743.4834	-0.0018
743.6603	-0.0037
743.8372	-0.0053
744.0141	0.0012
744.191	0.007
744.3678	0.0014
744.5446	-0.0033
744.7215	0.0015
744.8982	-0.0053
745.075	-0.0119
745.2518	-0.0022
745.4285	0.003
745.6052	-0.0042
745.7819	0.0067
745.9586	-0.0049
746.1353	0.0007
746.3119	-0.0004
746.4885	0.0004
746.6651	0.0024
746.8417	0.0015
747.0183	0.0112
747.1948	0.0026
747.3714	0.0018
747.5479	0.0069
747.7244	-0.0005
747.9008	0.0067
748.0773	-0.0081
748.2537	-0.0042
748.4301	-0.0094
748.6065	0.0083
748.7829	0.0045
748.9593	0.006
749.1356	0.0011
749.3119	0.0014
749.4882	-0.0048
749.6645	0.0089
749.8408	0.0009
750.017	0.0001
750.1933	0.005
750.3695	-0.0032
750.5457	0.0116
750.7218	-0.0012
750.898	0.0112
751.0741	0.0007
751.2502	-0.0018
751.4263	-0.0055
751.6024	0.0037
751.7784	-0.0007
751.9545	-0.0031
752.1305	-0.0089
752.3065	0.0032
752.4825	0.0064
752.6584	-0.0075
752.8344	0.0041
753.0103	-0.0053
753.1862	-0.0026
753.3621	-0.0065
753.5379	-0.0056
753.7138	0.0017
753.8896	-0.0109
754.0654	0.0041
754.2412	0.0017
754.417	-0.0044
754.5927	0.0047
754.7685	-0.0053
754.9442	-0.0099
755.1199	0.0079
755.2956	-0.0062
755.4712	0
755.6469	0.0043
755.8225	-0.0002
755.9981	-0.0062
756.1736	0.0041
756.3492	-0.0083
756.5248	-0.0071
756.7003	0.0035
756.8758	0.0032
757.0513	-0.0124
757.2267	-0.0052
757.4022	-0.0076
757.5776	-0.009
757.753	-0.0004
757.9284	-0.0036
758.1038	0.0087
758.2791	0.0091
758.4545	-0.0093
758.6298	0.004
758.8051	0.007
758.9803	-0.0027
759.1556	0.0043
759.3308	0.003
759.506	0.0071
759.6812	0.011
759.8564	0.0149
760.0316	0.0042
760.2067	0.0093
760.3819	0.0021
760.557	0.0135
760.732	0.0029
760.9071	-0.0087
761.0821	0.0037
761.2572	0.0009
761.4322	-0.0084
761.6072	-0.0088
761.7821	-0.0054
761.9571	-0.0043
762.132	-0.0031
762.3069	-0.0019
762.4818	-0.0094
762.6567	-0.0056
762.8316	0.0027
763.0064	-0.0051
763.1812	0.0036
763.356	-0.0074
763.5308	-0.0037
763.7055	0.0006
763.8803	-0.0052
764.055	-0.0045
764.2297	0.0044
764.4044	0.0089
764.579	-0.0011
764.7537	-0.0077
764.9283	0.0043
765.1029	-0.0049
765.2775	-0.0039
765.4521	-0.0097
765.6266	-0.0084
765.8011	-0.004
765.9756	-0.0005
766.1501	0.0106
766.3246	-0.0052
766.4991	-0.0007
766.6735	0.0055
766.8479	0.0029
767.0223	0.0135
767.1967	0.0074
767.371	-0.007
767.5454	-0.0111
767.7197	-0.0022
767.894	-0.0074
768.0683	-0.0014
768.2425	-0.0031
768.4168	0.0038
768.591	0.0008
768.7652	-0.0004
768.9394	0.0023
769.1135	0.0028
769.2877	0.0097
769.4618	0.0049
769.6359	-0.0078
769.81	0.0091
769.984	-0.0014
770.1581	-0.0058
770.3321	-0.0049
770.5061	-0.0056
770.6801	-0.004
770.8541	-0.0024
771.028	0.0116
771.202	-0.0097
771.3759	0.0021
771.5498	0.0093
771.7236	0.0063
771.8975	0.0054
772.0713	0.0012
772.2451	-0.0024
772.4189	0.0126
772.5927	0.0042
772.7665	0.0025
772.9402	0.0083
773.1139	0.0113
773.2876	-0.006
773.4613	0.0116
773.635	0.0106
773.8086	-0.0101
773.9822	-0.0083
774.1558	0.0084
774.3294	-0.0077
774.503	-0.0036
774.6765	0.0075
774.8501	0.0023
775.0236	0.0196
775.1971	0.0056
775.3705	-0.007
775.544	0.0131
775.7174	-0.0061
775.8908	0.0002
776.0642	0.0028
776.2376	-0.0017
776.4109	-0.0027
776.5843	0.0004
776.7576	0.006
776.9309	0.0009
777.1041	0.003
777.2774	0.0055
777.4506	0.0063
777.6238	-0.0076
777.797	-0.0014
777.9702	-0.0027
778.1434	-0.0014
778.3165	-0.0077
778.4896	-0.0003
778.6627	-0.0076
778.8358	-0.0019
779.0089	-0.0024
779.1819	-0.0037
779.3549	0.0133
779.5279	0.0126
779.7009	-0.0005
779.8739	-0.0027
780.0468	-0.0015
780.2197	0.0017
780.3926	-0.0005
780.5655	-0.0033
780.7384	-0.0038
780.9112	0.0022
781.0841	-0.0184
781.2569	-0.0029
781.4297	-0.0052
781.6024	0.0076
781.7752	0.0038
781.9479	0.0032
782.1206	0.0066
782.2933	-0.0082
782.466	-0.0043
782.6386	0.0082
782.8113	-0.0056
782.9839	0.0167
783.1565	0.0215
783.329	0.0058
783.5016	0.012
783.6741	0.0056
783.8466	-0.008
784.0191	0.0166
784.1916	-0.0044
784.3641	0.0014
784.5365	0.0055
784.7089	-0.0078
784.8813	-0.015
785.0537	-0.0007
785.2261	-0.0061
785.3984	-0.0114
785.5707	-0.0041
785.743	-0.0015
785.9153	-0.0173
786.0876	0.0081
786.2598	-0.0039
786.432	-0.0179
786.6042	-0.0019
786.7764	-0.0011
786.9486	0.0087
787.1207	-0.0127
787.2928	0.001
787.4649	0.0101
787.637	0.01
787.8091	-0.0075
787.9811	0.0045
788.1532	0.0073
788.3252	0.0027
788.4972	0.0019
788.6691	0.0027
788.8411	0.0037
789.013	-0.0081
789.1849	0.0055
789.3568	0.0045
789.5287	-0.0094
789.7005	-0.003
789.8723	0.0021
790.0442	0.0363
790.2159	0.0081
790.3877	0.0027
790.5595	-0.0027
790.7312	0.0174
790.9029	0.0091
791.0746	0.0015
791.2463	0.0271
791.4179	0.0035
791.5896	0.0071
791.7612	0.0049
791.9328	0.0118
792.1044	-0.0042
792.2759	-0.011
792.4474	0.0024
792.619	0.004
792.7905	0.0061
792.9619	0.0002
793.1334	0.0146
793.3048	0.0062
793.4762	0.0058
793.6476	0.0093
793.819	0.0113
793.9904	0.0055
794.1617	-0.0059
794.333	-0.0016
794.5043	0.0031
794.6756	-0.0014
794.8469	0.0076
795.0181	0.0091
795.1893	-0.0095
795.3605	0.0203
795.5317	-0.0164
795.7029	-0.0008
795.874	0.0179
796.0452	-0.0005
796.2163	0.0055
796.3873	0.0177
796.5584	0.003
796.7294	0.0074
796.9005	0.0081
797.0715	0.004
797.2425	-0.0226
797.4134	-0.0029
797.5844	0.0188
797.7553	-0.0186
797.9262	0.0028
798.0971	-0.0072
798.2679	-0.0089
798.4388	-0.001
798.6096	-0.0118
798.7804	0.0074
798.9512	-0.0048
799.122	-0.0007
799.2927	0.0002
799.4635	0.0081
799.6342	-0.015
799.8049	-0.0002
799.9755	0.0014
800.1462	-0.0034
800.3168	0.0108
800.4874	0.008
800.658	0.0296
800.8286	0.0089
800.9991	0.0174
801.1696	0.0121
801.3402	0.0089
801.5106	0.0037
801.6811	0.004
801.8516	0.0061
802.022	0.0079
802.1924	0.019
802.3628	0.0072
802.5332	0.012
802.7035	0.0109
802.8739	0
803.0442	-0.0092
803.2145	0.0065
803.3847	-0.0043
803.555	0.0088
803.7252	-0.0126
803.8954	-0.0144
804.0656	-0.0185
804.2358	-0.0024
804.4059	0.0051
804.5761	0.0063
804.7462	0.0143
804.9163	0.0212
805.0864	0.0005
805.2564	0.0149
805.4264	0.0296
805.5965	-0.0042
805.7665	0.0107
805.9364	0.0192
806.1064	0.0416
806.2763	0.0146
806.4462	0.0283
806.6161	0.0026
806.786	0.0228
806.9559	-0.0081
807.1257	-0.0035
807.2955	-0.0056
807.4653	-0.0054
807.6351	-0.0128
807.8048	0.0107
807.9746	0.0164
808.1443	0.0277
808.314	-0.0092
808.4837	0.0129
808.6533	0.0126
808.8229	0.0295
808.9926	-0.0034
809.1622	0.0082
809.3317	0.0025
809.5013	0.0028
809.6708	0.0131
809.8403	0.0166
810.0098	-0.0028
810.1793	0.0136
810.3488	-0.0022
810.5182	0.0058
810.6876	0.01
810.857	-0.0021
811.0264	0.0365
811.1958	0.007
811.3651	0.0212
811.5344	0.0067
811.7037	0.0196
811.873	-0.0046
812.0422	0.018
812.2115	0.0219
812.3807	-0.0107
812.5499	0.0104
812.7191	0.0173
812.8882	-0.0104
813.0574	0.0121
813.2265	0.0155
813.3956	0.0291
813.5646	0.0053
813.7337	0.0062
813.9027	0.0406
814.0718	0.0299
814.2407	0.0318
814.4097	0.0003
814.5787	-0.0143
814.7476	0.0066
814.9165	0.0381
815.0854	0.0275
815.2543	0.0064
815.4232	0.0291
815.592	0.015
815.7608	0.016
815.9296	0.022
816.0984	0.036
816.2671	0.0307
816.4359	0.0009
816.6046	0.0038
816.7733	0.0087
816.942	-0.005
817.1106	0.0318
817.2793	0.0459
817.4479	0.0068
817.6165	0.0292
817.785	0.0128
817.9536	-0.0052
818.1221	0.0068
818.2906	0.0166
818.4591	-0.0032
818.6276	-0.0169
818.7961	0.0326
818.9645	0.0253
819.1329	0.0194
819.3013	0.0502
819.4697	0.0359
819.638	0.0207
819.8064	0.0267
819.9747	0.0207
820.143	0.0135
820.3113	0.0026
820.4795	0.0241
820.6477	0.0077
820.816	0.0139
820.9842	-0.0134
821.1523	0.0241
821.3205	-0.0115
821.4886	0.0022
821.6567	0.0216
821.8248	0.0198
821.9929	0.0307
822.1609	0.0126
822.329	0.0202
822.497	0.0272
822.665	-0.0174
822.833	0.0012
823.0009	0.0076
823.1688	0.048
823.3367	0.0355
823.5046	0.0208
823.6725	0.0429
823.8404	0.0004
824.0082	0.0071
824.176	0.0336
824.3438	-0.0023
824.5116	-0.0168
824.6793	0.0315
824.847	-0.0194
825.0147	-0.0072
825.1824	0.0276
825.3501	0.0165
825.5177	-0.0216
825.6854	0.0031
825.853	0.0245
826.0206	-0.0064
826.1881	0.0087
826.3557	-0.0144
826.5232	0.0283
826.6907	-0.0387
826.8582	0.0152
827.0257	0.0005
827.1931	0.0338
827.3605	0.0133
827.528	0.0033
827.6953	-0.0151
827.8627	0.0231
828.03	0.0309
828.1974	-0.0009
828.3647	-0.0216
828.532	-0.0121
828.6992	0.0075
828.8665	0.0246
829.0337	0.025
829.2009	0.0132
829.3681	-0.0095
829.5352	0.0071
829.7024	0.006
829.8695	-0.0218
830.0366	0.0413
830.2037	-0.0276
830.3707	0.0302
830.5378	-0.0172
830.7048	0.0253
830.8718	-0.0165
831.0388	-0.0293
831.2057	0.0049
831.3727	0.0307
831.5396	-0.0178
831.7065	0.0105
831.8734	0.0182
832.0402	-0.014
832.2071	0.0103
832.3739	-0.0335
832.5407	0.0234
832.7075	-0.0183
832.8742	-0.0156
833.041	-0.0394
833.2077	-0.0024
833.3744	0.0281
833.541	0.0249
833.7077	-0.0177
833.8743	-0.0229
834.0409	0.0291
834.2075	-0.0252
834.3741	0.0063
834.5407	0.0216
834.7072	0.0045
834.8737	0.0128
835.0402	-0.0112
835.2067	0.027
835.3731	0.019
835.5395	-0.0031
835.706	-0.0424
835.8723	0.0321
836.0387	0.0441
836.2051	-0.0223
836.3714	0.0132
836.5377	-0.0181
836.704	-0.0256
836.8703	0.0182
837.0365	-0.0178
837.2027	-0.0155
837.3689	0.0172
837.5351	-0.0007
837.7013	-0.0158
837.8674	-0.0472
838.0335	0.022
838.1997	-0.0358
838.3657	-0.0411
838.5318	0.0045
838.6978	0.0037
838.8639	0.0639
839.0299	0.0141
839.1958	-0.025
839.3618	0.0339
839.5277	0.0211
839.6937	0.0564
839.8596	-0.0289
840.0254	0.0372
840.1913	0.0583
840.3571	0.0318
840.523	0.0541
840.6888	0.001
840.8545	-0.0412
841.0203	-0.0034
841.186	-0.0008
841.3517	0.0046
841.5174	0.0271
841.6831	-0.0065
841.8488	-0.0035
842.0144	0.0333
842.18	0.0182
842.3456	0.0173
842.5112	-0.0312
842.6767	-0.0366
842.8422	-0.0198
843.0077	-0.0249
843.1732	-0.041
843.3387	0.007
843.5042	-0.0137
843.6696	-0.0188
843.835	-0.0158
844.0004	-0.0086
844.1657	0.0113
844.3311	-0.0465
844.4964	-0.0733
844.6617	0.0023
844.827	0.0107
844.9923	-0.0123
845.1575	-0.0418
845.3227	0.0013
845.4879	0.0185
845.6531	-0.0383
845.8183	-0.0402
845.9834	-0.0011
846.1485	0.0001
846.3136	-0.0364
846.4787	-0.0299
846.6438	0.1048
846.8088	0.0145
846.9738	-0.044
847.1388	-0.0138
847.3038	-0.0234
847.4687	-0.1094
847.6337	0.038
847.7986	0.0478
847.9635	0.05
848.1284	0.0826
848.2932	0.0127
848.458	0.0506
848.6228	0.0244
848.7876	0.0734
848.9524	-0.0593
849.1172	-0.0556
849.2819	0.0863
849.4466	-0.1031
849.6113	-0.1551
849.7759	-0.0097
849.9406	-0.0345
850.1052	0.0634
850.2698	-0.0379
850.4344	-0.0654
850.599	-0.0878
850.7635	0.0569
850.928	-0.0866
851.0925	-0.0093
851.257	0.0754
851.4215	-0.0073
851.5859	-0.0592
851.7503	-0.006
851.9147	0.0018
852.0791	-0.064
852.2434	-0.0994
852.4078	0.04
852.5721	0.0479
852.7364	-0.0814
852.9007	-0.1732
853.0649	-0.0265
853.2291	-0.0537
853.3934	-0.0044
853.5575	0.0896
853.7217	-0.0543
853.8859	-0.0781
854.05	-0.045
854.2141	0.027
854.3782	-0.0655
854.5423	-0.1462
854.7063	0.1175
854.8703	-0.173
855.0343	-0.0799
855.1983	-0.2457
855.3623	0.1076
855.5262	-0.0391
855.6901	0.0076
855.854	-0.0039
856.0179	0.0802
856.1818	0.0906
856.3456	-0.0686
856.5094	-0.1178
856.6732	-0.0458
856.837	-0.0671
857.0008	0.0943
857.1645	-0.0375
857.3282	-0.0561
857.4919	-0.0537
857.6556	-0.0781
857.8192	-0.0063
857.9828	-0.0455
858.1465	0.0163
858.31	-0.0298
858.4736	-0.0581
858.6372	-0.221
858.8007	-0.1103
858.9642	0.019
859.1277	-0.0844
859.2911	0.2656
859.4546	-0.0193
859.618	-0.3857
859.7814	-0.0383
859.9448	0.0709
860.1081	0.2238
860.2715	0.1242
860.4348	0.0707
860.5981	-0.0926
860.7614	0.0293
860.9246	-0.1318
861.0879	-0.2873
861.2511	0.108
861.4143	0.0694
861.5774	0.0608
861.7406	-0.089
861.9037	-0.1497
862.0668	-0.0316
862.2299	0.145
862.393	-0.6885
862.556	-0.0557
862.7191	-0.2996
862.8821	0.03
863.0451	0.1575
863.208	0.0261
863.371	0.0577
863.5339	-0.1433
863.6968	0.0258
863.8597	0.0125
864.0225	-0.0282
864.1854	-0.3346
864.3482	0.1419
864.511	-0.0083
864.6737	-0.1243
864.8365	-0.0212
864.9992	-0.0681
865.1619	-0.5512
865.3246	0.3973
865.4873	0.0997
865.65	-0.3432
865.8126	-0.0849
865.9752	0.0584
866.1378	-0.2618
866.3004	0.1496
866.4629	0.159
866.6254	-0.2641
866.7879	0.2554
866.9504	-0.379
867.1129	-0
867.2753	0.1116
867.4377	0.5723
867.6001	0.0177
867.7625	-0.1611
867.9249	0.301
868.0872	-0.1452
868.2495	-0.0172
868.4118	-0.1744
868.5741	-0.4211
868.7363	0.0485
868.8986	-0.3437
869.0608	-0.0309
869.223	1.3293
869.3851	-0
869.5473	-0
869.7094	0.1639
869.8715	-0.6637
870.0336	-0.6912
870.1957	0.3962
870.3577	-0
870.5197	-0.0995
870.6817	-0.3653
870.8437	-0.3198
871.0057	-0
871.1676	-0.4991
871.3295	0.0808
871.4914	-0
871.6533	-0.5249
871.8151	-0.4911
871.977	-0
872.1388	-0
872.3006	-0
872.4623	-0
872.6241	0.4517
872.7858	0.0438
872.9475	-0.3187
873.1092	-0.0983
873.2709	2.3617
873.4325	-0.2673
873.5941	-0.4846
873.7557	0.0942
873.9173	-0
874.0789	-0.8099
874.2404	-0.7476
874.4019	0.0516
874.5634	-0.2229
874.7249	-0.0084
874.8863	-0
875.0478	0.0122
875.2092	-0
875.3706	0.0878
875.5319	0.3945
875.6933	-0
875.8546	0.05
876.0159	0.4575
876.1772	0.3837
876.3385	-0
876.4997	0.0005
876.6609	-0.5767
876.8221	0.0384
876.9833	0.0369
877.1445	-0
877.3056	0.1394
877.4667	-0.1286
877.6278	-0
877.7889	-0.5574
877.9499	-0
878.111	1.7924
878.272	-0
878.433	-0
878.5939	0.0754
878.7549	-0.0109
878.9158	-1.1003
879.0767	-0
879.2376	-0
879.3984	-0
879.5593	-0
879.7201	-0.3559
879.8809	-0.4991
880.0417	-0.0517
880.2024	0.2655
880.3632	-0
880.5239	0.4072
880.6846	-0.0584
880.8452	-2.5711
881.0059	-0
881.1665	0.301
881.3271	-0.4261
881.4877	-0
881.6483	-0.3589
881.8088	-0.3993
881.9693	-0
882.1298	-0
882.2903	-0
