Data from MonoPyChalIsomerACN10uM380nmA_Absorbance_13-38-28-573.txt Node
Date: Fri Jul 05 13:38:28 BST 2024
User: LASERRRRR
Spectrometer: FLMT03099
Trigger mode: 0
Integration Time (sec): 1.000000E-1
Scans to average: 1
Electric dark correction enabled: true
Nonlinearity correction enabled: false
Boxcar width: 0
XAxis mode: Wavelengths
Number of Pixels in Spectrum: 3648
>>>>>Begin Spectral Data<<<<<
179.3399	0.5091
179.5586	0.5091
179.7771	0.5091
179.9957	-0.4284
180.2143	-0.4599
180.4329	-0.212
180.6514	1.6039
180.8699	-0
181.0885	-0.1785
181.307	0.2254
181.5255	-0.1015
181.744	-0
181.9625	-0
182.181	-0
182.3994	-0
182.6179	-0.0792
182.8363	0.0669
183.0547	-0.2675
183.2732	0.0751
183.4916	0.1346
183.71	0.1115
183.9284	0.2604
184.1467	-0.1334
184.3651	0.204
184.5835	0.0485
184.8018	0.3766
185.0201	0.0107
185.2385	0.1241
185.4568	0.145
185.6751	-0.1152
185.8934	0.5006
186.1117	0.106
186.3299	0.0308
186.5482	0.0333
186.7664	-0.053
186.9847	0.0977
187.2029	0.0416
187.4211	-0.0641
187.6393	0.2426
187.8575	0.2111
188.0757	0.2472
188.2939	0.1686
188.512	0.6198
188.7302	-0.1426
188.9483	0.0274
189.1665	0.1616
189.3846	0.1912
189.6027	0.1187
189.8208	0.3491
190.0389	0.0245
190.257	0.0156
190.475	0.3287
190.6931	0.2468
190.9111	0.2223
191.1292	0.3299
191.3472	0.2564
191.5652	0.2504
191.7832	0.1819
192.0012	0.4732
192.2192	0.4061
192.4371	0.7518
192.6551	0.5822
192.873	0.3732
193.091	0.474
193.3089	0.4328
193.5268	0.4892
193.7447	0.5044
193.9626	0.5871
194.1805	0.6229
194.3984	0.8681
194.6162	0.5154
194.8341	0.6745
195.0519	0.637
195.2697	0.7393
195.4875	0.628
195.7054	0.8068
195.9231	0.6147
196.1409	0.6202
196.3587	0.6723
196.5765	0.6858
196.7942	0.8363
197.012	1.0047
197.2297	0.8185
197.4474	0.9442
197.6651	0.5419
197.8828	0.7685
198.1005	0.9401
198.3182	0.7342
198.5358	0.9741
198.7535	0.8015
198.9711	0.6288
199.1888	0.7514
199.4064	1.0693
199.624	0.9156
199.8416	0.7587
200.0592	1.2342
200.2767	0.8272
200.4943	0.8697
200.7119	0.9621
200.9294	0.9038
201.1469	0.7091
201.3645	0.6848
201.582	0.6836
201.7995	0.9504
202.017	0.823
202.2344	0.6911
202.4519	1.0714
202.6694	0.7056
202.8868	0.8817
203.1042	0.9605
203.3217	1.0524
203.5391	0.9043
203.7565	0.8289
203.9739	0.8821
204.1913	0.7545
204.4086	0.8537
204.626	0.8903
204.8433	0.7961
205.0607	0.745
205.278	0.826
205.4953	0.6981
205.7126	0.8937
205.9299	1.0661
206.1472	0.894
206.3644	0.7839
206.5817	0.8067
206.7989	1.1403
207.0162	0.8173
207.2334	0.8284
207.4506	0.8295
207.6678	0.7755
207.885	0.8197
208.1022	0.7689
208.3194	0.8669
208.5365	0.758
208.7537	0.8438
208.9708	0.7018
209.1879	0.8855
209.405	0.9639
209.6222	0.948
209.8392	0.7931
210.0563	0.7467
210.2734	0.8357
210.4905	0.9058
210.7075	0.7339
210.9245	0.7587
211.1416	0.9159
211.3586	0.862
211.5756	0.7955
211.7926	0.7864
212.0096	0.8374
212.2265	0.8122
212.4435	0.8225
212.6604	0.8764
212.8774	0.8205
213.0943	0.7408
213.3112	0.7489
213.5281	0.7866
213.745	0.6818
213.9619	0.7831
214.1788	0.6857
214.3956	0.6867
214.6125	0.6438
214.8293	0.6186
215.0461	0.7495
215.2629	0.7148
215.4798	0.6954
215.6965	0.6811
215.9133	0.6995
216.1301	0.6871
216.3469	0.7016
216.5636	0.6328
216.7803	0.691
216.9971	0.6674
217.2138	0.6162
217.4305	0.6251
217.6472	0.5818
217.8639	0.6378
218.0805	0.6247
218.2972	0.5909
218.5138	0.5571
218.7305	0.6294
218.9471	0.5732
219.1637	0.5782
219.3803	0.591
219.5969	0.5376
219.8135	0.519
220.0301	0.5451
220.2466	0.5566
220.4632	0.5166
220.6797	0.5479
220.8962	0.5152
221.1127	0.5016
221.3292	0.5225
221.5457	0.5281
221.7622	0.4971
221.9787	0.536
222.1951	0.5115
222.4116	0.5449
222.628	0.5321
222.8444	0.5335
223.0608	0.5509
223.2772	0.5176
223.4936	0.549
223.71	0.5097
223.9264	0.5717
224.1427	0.5486
224.3591	0.532
224.5754	0.5348
224.7917	0.5617
225.008	0.5277
225.2243	0.5277
225.4406	0.5655
225.6569	0.5322
225.8732	0.5452
226.0894	0.521
226.3057	0.5931
226.5219	0.544
226.7381	0.5454
226.9543	0.5321
227.1705	0.5658
227.3867	0.5229
227.6029	0.5545
227.8191	0.5299
228.0352	0.5665
228.2513	0.5304
228.4675	0.5667
228.6836	0.5728
228.8997	0.5534
229.1158	0.5604
229.3319	0.5496
229.548	0.5997
229.764	0.5549
229.9801	0.5663
230.1961	0.5638
230.4121	0.5562
230.6282	0.5465
230.8442	0.5413
231.0602	0.5667
231.2761	0.5932
231.4921	0.5549
231.7081	0.6058
231.924	0.5932
232.14	0.5768
232.3559	0.5681
232.5718	0.5815
232.7877	0.5752
233.0036	0.5362
233.2195	0.5605
233.4353	0.5333
233.6512	0.5713
233.867	0.5679
234.0829	0.5347
234.2987	0.5446
234.5145	0.5728
234.7303	0.5487
234.9461	0.5627
235.1619	0.5721
235.3776	0.5672
235.5934	0.573
235.8091	0.5453
236.0249	0.5472
236.2406	0.5724
236.4563	0.5512
236.672	0.5841
236.8877	0.5447
237.1034	0.5436
237.319	0.5482
237.5347	0.5376
237.7503	0.5319
237.966	0.5589
238.1816	0.5715
238.3972	0.5595
238.6128	0.5405
238.8284	0.5557
239.0439	0.5399
239.2595	0.5449
239.475	0.5415
239.6906	0.5453
239.9061	0.5327
240.1216	0.5247
240.3371	0.5189
240.5526	0.524
240.7681	0.5156
240.9836	0.4864
241.199	0.5037
241.4145	0.4778
241.6299	0.4885
241.8453	0.4671
242.0607	0.4659
242.2761	0.4541
242.4915	0.4439
242.7069	0.4467
242.9223	0.4483
243.1376	0.4402
243.353	0.425
243.5683	0.422
243.7836	0.4056
243.9989	0.4031
244.2142	0.3824
244.4295	0.3876
244.6448	0.3817
244.86	0.3617
245.0753	0.364
245.2905	0.3651
245.5057	0.337
245.721	0.3282
245.9362	0.3089
246.1514	0.3331
246.3665	0.3206
246.5817	0.3068
246.7969	0.315
247.012	0.3032
247.2271	0.2945
247.4423	0.2917
247.6574	0.3084
247.8725	0.2895
248.0876	0.2537
248.3026	0.2815
248.5177	0.2643
248.7328	0.2629
248.9478	0.2575
249.1628	0.2715
249.3779	0.2428
249.5929	0.2496
249.8079	0.2586
250.0228	0.2428
250.2378	0.2418
250.4528	0.2405
250.6677	0.2238
250.8827	0.2404
251.0976	0.2329
251.3125	0.2229
251.5274	0.2232
251.7423	0.2264
251.9572	0.2123
252.172	0.2227
252.3869	0.2319
252.6017	0.21
252.8166	0.2
253.0314	0.2044
253.2462	0.2037
253.461	0.2014
253.6758	0.2063
253.8906	0.208
254.1053	0.1949
254.3201	0.1951
254.5348	0.2064
254.7496	0.2102
254.9643	0.1868
255.179	0.2059
255.3937	0.1989
255.6083	0.1987
255.823	0.2085
256.0377	0.2036
256.2523	0.1916
256.467	0.1828
256.6816	0.2028
256.8962	0.1854
257.1108	0.1954
257.3254	0.202
257.54	0.1848
257.7545	0.1857
257.9691	0.203
258.1836	0.1897
258.3981	0.2083
258.6127	0.1972
258.8272	0.1878
259.0417	0.2039
259.2561	0.1843
259.4706	0.194
259.6851	0.1791
259.8995	0.1786
260.114	0.1856
260.3284	0.1863
260.5428	0.1698
260.7572	0.1931
260.9716	0.1818
261.186	0.1771
261.4003	0.179
261.6147	0.1849
261.829	0.1828
262.0433	0.1837
262.2577	0.1867
262.472	0.1924
262.6863	0.1767
262.9005	0.1911
263.1148	0.1846
263.3291	0.1705
263.5433	0.1738
263.7576	0.1826
263.9718	0.1812
264.186	0.18
264.4002	0.1796
264.6144	0.1672
264.8286	0.1944
265.0427	0.1858
265.2569	0.1786
265.471	0.179
265.6851	0.1699
265.8993	0.1791
266.1134	0.1772
266.3275	0.1723
266.5415	0.1711
266.7556	0.1886
266.9697	0.1887
267.1837	0.1802
267.3978	0.178
267.6118	0.1971
267.8258	0.1928
268.0398	0.1661
268.2538	0.1845
268.4677	0.1842
268.6817	0.1597
268.8957	0.181
269.1096	0.1738
269.3235	0.1807
269.5374	0.1714
269.7514	0.1806
269.9652	0.1583
270.1791	0.1749
270.393	0.1589
270.6068	0.1726
270.8207	0.1686
271.0345	0.143
271.2483	0.183
271.4622	0.1635
271.676	0.1705
271.8897	0.1662
272.1035	0.1536
272.3173	0.1563
272.531	0.1709
272.7448	0.1635
272.9585	0.1596
273.1722	0.1601
273.3859	0.1618
273.5996	0.148
273.8133	0.1514
274.0269	0.1555
274.2406	0.1547
274.4542	0.171
274.6679	0.1479
274.8815	0.1435
275.0951	0.1531
275.3087	0.1658
275.5223	0.1545
275.7358	0.1584
275.9494	0.157
276.1629	0.1528
276.3765	0.1552
276.59	0.1628
276.8035	0.1638
277.017	0.147
277.2305	0.1567
277.444	0.1696
277.6574	0.1584
277.8709	0.1615
278.0843	0.1597
278.2978	0.1721
278.5112	0.1528
278.7246	0.1552
278.938	0.1658
279.1513	0.1582
279.3647	0.1699
279.5781	0.1583
279.7914	0.1558
280.0047	0.181
280.2181	0.1632
280.4314	0.1675
280.6447	0.1649
280.8579	0.1655
281.0712	0.1675
281.2845	0.1718
281.4977	0.1684
281.711	0.1667
281.9242	0.1628
282.1374	0.1805
282.3506	0.1653
282.5638	0.1686
282.7769	0.1649
282.9901	0.1691
283.2033	0.1644
283.4164	0.1827
283.6295	0.1678
283.8426	0.1697
284.0557	0.1724
284.2688	0.184
284.4819	0.1752
284.695	0.1892
284.908	0.181
285.1211	0.1747
285.3341	0.1726
285.5471	0.1812
285.7601	0.1707
285.9731	0.1662
286.1861	0.1553
286.3991	0.185
286.612	0.185
286.825	0.1864
287.0379	0.1889
287.2508	0.1849
287.4637	0.1858
287.6766	0.175
287.8895	0.1745
288.1024	0.2012
288.3152	0.1832
288.5281	0.1667
288.7409	0.1796
288.9538	0.1669
289.1666	0.1867
289.3794	0.179
289.5922	0.1729
289.8049	0.1854
290.0177	0.1864
290.2304	0.1967
290.4432	0.1798
290.6559	0.1845
290.8686	0.192
291.0813	0.1714
291.294	0.1815
291.5067	0.193
291.7194	0.1932
291.932	0.1898
292.1447	0.1875
292.3573	0.1693
292.5699	0.1907
292.7825	0.1935
292.9951	0.1804
293.2077	0.1802
293.4203	0.1722
293.6328	0.1782
293.8454	0.1968
294.0579	0.1784
294.2704	0.1885
294.4829	0.1775
294.6954	0.1917
294.9079	0.1869
295.1204	0.1809
295.3328	0.1819
295.5453	0.1835
295.7577	0.1933
295.9701	0.1792
296.1825	0.1896
296.3949	0.1819
296.6073	0.1701
296.8197	0.1735
297.0321	0.1955
297.2444	0.1731
297.4567	0.1773
297.6691	0.1867
297.8814	0.1808
298.0937	0.176
298.306	0.1877
298.5182	0.1818
298.7305	0.1809
298.9428	0.1696
299.155	0.1885
299.3672	0.1792
299.5794	0.1791
299.7916	0.1858
300.0038	0.1923
300.216	0.1801
300.4282	0.1808
300.6403	0.177
300.8525	0.1869
301.0646	0.1712
301.2767	0.1801
301.4888	0.1715
301.7009	0.1855
301.913	0.1878
302.125	0.1868
302.3371	0.1857
302.5491	0.1792
302.7612	0.1802
302.9732	0.1869
303.1852	0.1809
303.3972	0.1756
303.6092	0.1752
303.8211	0.1713
304.0331	0.1615
304.245	0.1622
304.457	0.1678
304.6689	0.1723
304.8808	0.1792
305.0927	0.1642
305.3046	0.1701
305.5164	0.17
305.7283	0.1594
305.9401	0.161
306.152	0.154
306.3638	0.1701
306.5756	0.1582
306.7874	0.1572
306.9992	0.1467
307.2109	0.1505
307.4227	0.1402
307.6344	0.1508
307.8462	0.1483
308.0579	0.1479
308.2696	0.1378
308.4813	0.1461
308.693	0.1377
308.9046	0.1429
309.1163	0.132
309.328	0.125
309.5396	0.131
309.7512	0.1301
309.9628	0.1293
310.1744	0.1346
310.386	0.1302
310.5976	0.1264
310.8091	0.1281
311.0207	0.1205
311.2322	0.1214
311.4437	0.1072
311.6552	0.1117
311.8667	0.1198
312.0782	0.1019
312.2897	0.1031
312.5012	0.1145
312.7126	0.1127
312.924	0.1036
313.1355	0.1132
313.3469	0.1059
313.5583	0.1089
313.7696	0.1138
313.981	0.1057
314.1924	0.1065
314.4037	0.0978
314.6151	0.1089
314.8264	0.1144
315.0377	0.0986
315.249	0.1072
315.4603	0.1109
315.6716	0.0981
315.8828	0.091
316.0941	0.1019
316.3053	0.0953
316.5165	0.0988
316.7277	0.0901
316.9389	0.1026
317.1501	0.1057
317.3613	0.1055
317.5724	0.0858
317.7836	0.0999
317.9947	0.0968
318.2058	0.0918
318.417	0.0807
318.6281	0.0868
318.8391	0.096
319.0502	0.0936
319.2613	0.0929
319.4723	0.1055
319.6834	0.1046
319.8944	0.0887
320.1054	0.1077
320.3164	0.0998
320.5274	0.0747
320.7383	0.105
320.9493	0.1053
321.1602	0.1111
321.3712	0.0811
321.5821	0.0959
321.793	0.0857
322.0039	0.094
322.2148	0.0856
322.4257	0.0906
322.6365	0.1044
322.8474	0.0955
323.0582	0.0888
323.269	0.087
323.4798	0.1021
323.6906	0.1109
323.9014	0.1012
324.1122	0.1025
324.3229	0.0874
324.5337	0.0969
324.7444	0.0925
324.9551	0.107
325.1658	0.1046
325.3765	0.0997
325.5872	0.1001
325.7979	0.1005
326.0085	0.105
326.2192	0.1027
326.4298	0.0973
326.6404	0.0878
326.851	0.089
327.0616	0.0893
327.2722	0.1011
327.4828	0.0983
327.6933	0.0882
327.9039	0.1086
328.1144	0.1046
328.3249	0.108
328.5354	0.0907
328.7459	0.1015
328.9564	0.0881
329.1669	0.0923
329.3773	0.0895
329.5878	0.1046
329.7982	0.0912
330.0086	0.0894
330.219	0.1203
330.4294	0.099
330.6398	0.1054
330.8502	0.0917
331.0605	0.1044
331.2708	0.1054
331.4812	0.11
331.6915	0.1015
331.9018	0.0972
332.1121	0.1033
332.3224	0.0828
332.5326	0.1024
332.7429	0.1093
332.9531	0.1223
333.1633	0.1058
333.3735	0.0969
333.5837	0.0981
333.7939	0.1048
334.0041	0.111
334.2143	0.1082
334.4244	0.1009
334.6346	0.089
334.8447	0.115
335.0548	0.0971
335.2649	0.0943
335.475	0.1071
335.685	0.099
335.8951	0.1191
336.1051	0.0972
336.3152	0.1118
336.5252	0.1016
336.7352	0.1128
336.9452	0.1043
337.1552	0.1069
337.3652	0.1046
337.5751	0.098
337.7851	0.1189
337.995	0.0999
338.2049	0.106
338.4148	0.1112
338.6247	0.1065
338.8346	0.0968
339.0445	0.0979
339.2543	0.0975
339.4642	0.1086
339.674	0.1049
339.8838	0.0935
340.0936	0.104
340.3034	0.1155
340.5132	0.1097
340.7229	0.1082
340.9327	0.102
341.1424	0.1018
341.3522	0.123
341.5619	0.1128
341.7716	0.114
341.9813	0.1045
342.1909	0.1162
342.4006	0.1171
342.6102	0.1226
342.8199	0.12
343.0295	0.1233
343.2391	0.1234
343.4487	0.1213
343.6583	0.1091
343.8679	0.1135
344.0774	0.1229
344.287	0.1254
344.4965	0.1132
344.706	0.1101
344.9155	0.1207
345.125	0.1187
345.3345	0.1201
345.544	0.1183
345.7534	0.1238
345.9629	0.1214
346.1723	0.1181
346.3817	0.1133
346.5911	0.1158
346.8005	0.1291
347.0099	0.1163
347.2193	0.1346
347.4286	0.1202
347.638	0.1459
347.8473	0.1357
348.0566	0.1306
348.2659	0.1311
348.4752	0.1189
348.6845	0.1311
348.8937	0.132
349.103	0.1433
349.3122	0.144
349.5214	0.1198
349.7306	0.1398
349.9398	0.1354
350.149	0.1375
350.3582	0.1344
350.5674	0.1485
350.7765	0.1341
350.9856	0.1524
351.1948	0.1259
351.4039	0.1177
351.613	0.1354
351.822	0.1384
352.0311	0.1443
352.2402	0.1387
352.4492	0.1434
352.6582	0.1532
352.8672	0.1287
353.0762	0.1302
353.2852	0.1386
353.4942	0.1465
353.7032	0.142
353.9121	0.1505
354.1211	0.1433
354.33	0.1457
354.5389	0.1471
354.7478	0.1423
354.9567	0.1413
355.1655	0.1217
355.3744	0.1469
355.5833	0.1592
355.7921	0.1656
356.0009	0.1633
356.2097	0.1592
356.4185	0.1561
356.6273	0.1572
356.8361	0.163
357.0448	0.1572
357.2536	0.1455
357.4623	0.1691
357.671	0.1653
357.8797	0.1638
358.0884	0.1633
358.2971	0.1589
358.5057	0.1751
358.7144	0.1617
358.923	0.1532
359.1316	0.1627
359.3402	0.1691
359.5488	0.1761
359.7574	0.1698
359.966	0.1881
360.1746	0.1859
360.3831	0.177
360.5916	0.1804
360.8002	0.173
361.0087	0.1942
361.2172	0.1818
361.4256	0.1875
361.6341	0.1967
361.8426	0.1793
362.051	0.1803
362.2594	0.1806
362.4678	0.1854
362.6762	0.1969
362.8846	0.1832
363.093	0.1815
363.3014	0.1852
363.5097	0.1793
363.718	0.1833
363.9264	0.1889
364.1347	0.173
364.343	0.1919
364.5513	0.2051
364.7595	0.1944
364.9678	0.1865
365.176	0.2038
365.3842	0.2096
365.5925	0.2066
365.8007	0.1913
366.0089	0.2028
366.217	0.2019
366.4252	0.2215
366.6333	0.2104
366.8415	0.2209
367.0496	0.2122
367.2577	0.2194
367.4658	0.216
367.6739	0.2117
367.882	0.2188
368.09	0.2215
368.2981	0.2203
368.5061	0.2041
368.7141	0.2357
368.9221	0.2191
369.1301	0.2151
369.3381	0.2079
369.5461	0.2232
369.754	0.2189
369.962	0.2132
370.1699	0.2311
370.3778	0.2339
370.5857	0.2073
370.7936	0.2239
371.0015	0.2335
371.2093	0.2378
371.4172	0.2464
371.625	0.225
371.8328	0.2281
372.0406	0.2422
372.2484	0.2326
372.4562	0.2288
372.664	0.2295
372.8717	0.2609
373.0795	0.1989
373.2872	0.2274
373.4949	0.2328
373.7026	0.2398
373.9103	0.2474
374.118	0.2461
374.3256	0.238
374.5333	0.2234
374.7409	0.2369
374.9485	0.2501
375.1561	0.2512
375.3637	0.2394
375.5713	0.2549
375.7789	0.2529
375.9864	0.2472
376.194	0.2435
376.4015	0.257
376.609	0.2683
376.8165	0.2415
377.024	0.2416
377.2315	0.2492
377.4389	0.2534
377.6464	0.263
377.8538	0.2596
378.0612	0.2662
378.2686	0.2507
378.476	0.2836
378.6834	0.2688
378.8908	0.2541
379.0981	0.2799
379.3055	0.2648
379.5128	0.2668
379.7201	0.2829
379.9274	0.2551
380.1347	0.2593
380.342	0.2832
380.5492	0.2593
380.7565	0.2596
380.9637	0.2837
381.1709	0.2599
381.3781	0.2737
381.5853	0.2809
381.7925	0.2842
381.9997	0.2883
382.2068	0.2769
382.4139	0.2714
382.6211	0.2586
382.8282	0.2657
383.0353	0.2722
383.2424	0.2644
383.4494	0.296
383.6565	0.2748
383.8635	0.2767
384.0706	0.2791
384.2776	0.2827
384.4846	0.2688
384.6916	0.2815
384.8986	0.2722
385.1055	0.2706
385.3125	0.2603
385.5194	0.2704
385.7263	0.2803
385.9333	0.271
386.1402	0.2827
386.347	0.2701
386.5539	0.28
386.7608	0.2706
386.9676	0.2719
387.1744	0.2811
387.3813	0.2684
387.5881	0.2762
387.7948	0.2741
388.0016	0.2552
388.2084	0.2677
388.4151	0.2544
388.6219	0.2843
388.8286	0.2713
389.0353	0.291
389.242	0.2956
389.4487	0.2658
389.6553	0.2633
389.862	0.2418
390.0686	0.2665
390.2753	0.2923
390.4819	0.2743
390.6885	0.2703
390.8951	0.2658
391.1016	0.2622
391.3082	0.2566
391.5147	0.2596
391.7213	0.2536
391.9278	0.2534
392.1343	0.254
392.3408	0.2585
392.5473	0.2551
392.7537	0.2438
392.9602	0.2383
393.1666	0.2635
393.373	0.2505
393.5794	0.2659
393.7858	0.249
393.9922	0.2414
394.1986	0.2662
394.4049	0.2627
394.6113	0.2468
394.8176	0.2388
395.0239	0.2319
395.2302	0.2507
395.4365	0.2465
395.6428	0.2468
395.8491	0.2282
396.0553	0.2409
396.2615	0.2407
396.4678	0.2313
396.674	0.2199
396.8802	0.2337
397.0863	0.2526
397.2925	0.2363
397.4987	0.2286
397.7048	0.227
397.9109	0.2405
398.117	0.2334
398.3231	0.2363
398.5292	0.2384
398.7353	0.244
398.9413	0.2299
399.1474	0.2214
399.3534	0.2414
399.5594	0.2135
399.7654	0.2553
399.9714	0.2438
400.1774	0.2289
400.3833	0.2228
400.5893	0.2404
400.7952	0.2332
401.0011	0.2357
401.207	0.2501
401.4129	0.2336
401.6188	0.232
401.8247	0.2401
402.0305	0.2166
402.2364	0.2298
402.4422	0.2529
402.648	0.2247
402.8538	0.2318
403.0596	0.2236
403.2654	0.2325
403.4711	0.2368
403.6768	0.229
403.8826	0.2347
404.0883	0.2509
404.294	0.2379
404.4997	0.2493
404.7054	0.2373
404.911	0.216
405.1167	0.2163
405.3223	0.2411
405.5279	0.2363
405.7335	0.2386
405.9391	0.2354
406.1447	0.2402
406.3502	0.2538
406.5558	0.2326
406.7613	0.2294
406.9668	0.2332
407.1724	0.2328
407.3778	0.2603
407.5833	0.2205
407.7888	0.231
407.9942	0.2425
408.1997	0.2317
408.4051	0.2453
408.6105	0.234
408.8159	0.2203
409.0213	0.2256
409.2267	0.2532
409.432	0.2232
409.6374	0.2261
409.8427	0.2174
410.048	0.2331
410.2533	0.2336
410.4586	0.2358
410.6639	0.2127
410.8691	0.2335
411.0744	0.2331
411.2796	0.2248
411.4848	0.2381
411.69	0.2254
411.8952	0.2339
412.1004	0.2088
412.3056	0.2291
412.5107	0.2272
412.7158	0.2307
412.921	0.2241
413.1261	0.232
413.3312	0.2307
413.5362	0.2267
413.7413	0.2057
413.9464	0.2134
414.1514	0.2275
414.3564	0.2112
414.5614	0.2191
414.7664	0.2063
414.9714	0.2269
415.1764	0.2334
415.3813	0.2369
415.5863	0.2205
415.7912	0.2285
415.9961	0.2384
416.201	0.228
416.4059	0.2454
416.6108	0.2226
416.8156	0.246
417.0205	0.2287
417.2253	0.2056
417.4301	0.2446
417.6349	0.2347
417.8397	0.2133
418.0445	0.2158
418.2492	0.2239
418.454	0.2414
418.6587	0.2057
418.8634	0.2081
419.0681	0.2068
419.2728	0.2197
419.4775	0.2179
419.6822	0.1973
419.8868	0.1962
420.0915	0.2114
420.2961	0.2098
420.5007	0.2181
420.7053	0.2213
420.9099	0.213
421.1144	0.2173
421.319	0.2034
421.5235	0.2095
421.728	0.22
421.9325	0.2131
422.137	0.2297
422.3415	0.2009
422.546	0.2178
422.7504	0.1977
422.9549	0.2081
423.1593	0.2153
423.3637	0.2233
423.5681	0.2022
423.7725	0.1955
423.9769	0.1984
424.1812	0.201
424.3856	0.2053
424.5899	0.2147
424.7942	0.1921
424.9985	0.1892
425.2028	0.1808
425.4071	0.2229
425.6113	0.1747
425.8156	0.1949
426.0198	0.1968
426.224	0.1784
426.4282	0.1911
426.6324	0.182
426.8366	0.1867
427.0407	0.1923
427.2449	0.1918
427.449	0.1795
427.6531	0.1696
427.8572	0.1939
428.0613	0.1562
428.2654	0.1936
428.4694	0.1707
428.6735	0.1713
428.8775	0.1801
429.0815	0.1883
429.2855	0.1671
429.4895	0.1706
429.6935	0.1814
429.8975	0.1868
430.1014	0.1541
430.3053	0.1537
430.5093	0.1657
430.7132	0.1657
430.9171	0.159
431.1209	0.1504
431.3248	0.1483
431.5286	0.1634
431.7325	0.1672
431.9363	0.1443
432.1401	0.1549
432.3439	0.1349
432.5477	0.1385
432.7514	0.1156
432.9552	0.1483
433.1589	0.1252
433.3627	0.1364
433.5664	0.1406
433.7701	0.1362
433.9737	0.1319
434.1774	0.1135
434.3811	0.1221
434.5847	0.1413
434.7883	0.1213
434.9919	0.127
435.1955	0.1169
435.3991	0.1222
435.6027	0.1294
435.8062	0.1222
436.0098	0.0988
436.2133	0.1224
436.4168	0.1009
436.6203	0.1179
436.8238	0.1127
437.0272	0.1087
437.2307	0.0969
437.4341	0.1239
437.6375	0.1206
437.841	0.0938
438.0443	0.1214
438.2477	0.1128
438.4511	0.0951
438.6545	0.0965
438.8578	0.1115
439.0611	0.0883
439.2644	0.1018
439.4677	0.084
439.671	0.0726
439.8743	0.0885
440.0775	0.0938
440.2808	0.0849
440.484	0.0797
440.6872	0.0745
440.8904	0.0773
441.0936	0.0962
441.2967	0.0823
441.4999	0.0828
441.703	0.0546
441.9062	0.076
442.1093	0.07
442.3124	0.0862
442.5155	0.0515
442.7185	0.0702
442.9216	0.0478
443.1246	0.0712
443.3276	0.0779
443.5307	0.06
443.7337	0.0527
443.9366	0.0642
444.1396	0.0713
444.3426	0.0587
444.5455	0.0659
444.7484	0.0602
444.9513	0.0474
445.1542	0.074
445.3571	0.0517
445.56	0.0605
445.7628	0.0371
445.9657	0.0583
446.1685	0.0651
446.3713	0.0771
446.5741	0.0453
446.7769	0.0352
446.9797	0.0452
447.1824	0.0563
447.3852	0.0369
447.5879	0.049
447.7906	0.0463
447.9933	0.0395
448.196	0.0334
448.3986	0.0386
448.6013	0.0449
448.8039	0.0258
449.0066	0.0397
449.2092	0.0445
449.4118	0.0303
449.6143	0.0337
449.8169	0.0365
450.0195	0.025
450.222	0.031
450.4245	0.0316
450.627	0.0221
450.8295	0.0289
451.032	0.0305
451.2345	0.0424
451.4369	0.0285
451.6394	0.0301
451.8418	0.0176
452.0442	0.0226
452.2466	0.031
452.449	0.0059
452.6513	0.0211
452.8537	0.0385
453.056	0.0077
453.2583	0.0166
453.4607	0.0219
453.663	0.0122
453.8652	0.0228
454.0675	0.008
454.2697	0.0311
454.472	0.0109
454.6742	0.0261
454.8764	0.0262
455.0786	0.0149
455.2808	0.0245
455.4829	0.0181
455.6851	0.0283
455.8872	0.0319
456.0893	0.0224
456.2915	0.0042
456.4935	0.0279
456.6956	0.0239
456.8977	0.0052
457.0997	0.0088
457.3018	-0.0097
457.5038	0.006
457.7058	0.0106
457.9078	0.0056
458.1098	0.0131
458.3117	0.0211
458.5137	-0.0007
458.7156	0.003
458.9175	-0.0106
459.1194	0.0097
459.3213	0.0168
459.5232	0.0031
459.725	0.0029
459.9269	0.011
460.1287	0.0059
460.3305	0.0036
460.5323	0.0055
460.7341	-0.0071
460.9359	-0.0008
461.1376	0.0248
461.3394	0.0035
461.5411	-0.0006
461.7428	0.0055
461.9445	0.0032
462.1462	0.0367
462.3479	-0.001
462.5495	0.0019
462.7512	0.015
462.9528	0.0037
463.1544	-0.0121
463.356	0.0049
463.5576	0.0052
463.7592	0.0071
463.9607	0.0138
464.1623	0.0133
464.3638	0.0177
464.5653	-0.0105
464.7668	0.0081
464.9683	0.007
465.1697	0.0238
465.3712	0.0097
465.5726	-0.008
465.7741	-0.0029
465.9755	-0.0145
466.1769	0.0098
466.3782	-0.0122
466.5796	0.0017
466.7809	0.0174
466.9823	-0.0008
467.1836	0.0005
467.3849	0.0033
467.5862	0.0112
467.7875	-0.0019
467.9887	0.015
468.19	-0.0001
468.3912	-0.0091
468.5924	-0.0043
468.7936	0.0098
468.9948	0.0066
469.196	0.0051
469.3972	-0.004
469.5983	0.0076
469.7994	-0.0097
470.0006	-0.0094
470.2017	-0.0098
470.4027	-0.0049
470.6038	0.0042
470.8049	-0.007
471.0059	-0.0025
471.2069	-0.0104
471.408	0.0161
471.6089	0.0053
471.8099	-0.0051
472.0109	0.0057
472.2119	0.0146
472.4128	-0.0099
472.6137	0.0105
472.8146	-0.0071
473.0155	0.0017
473.2164	-0.0113
473.4173	0.004
473.6181	0.0193
473.819	0.0026
474.0198	0.0005
474.2206	-0.0117
474.4214	0.003
474.6222	0.0072
474.8229	-0.0101
475.0237	-0.0088
475.2244	-0.0044
475.4251	-0.0032
475.6258	0.0075
475.8265	0
476.0272	0.0163
476.2278	0.0071
476.4285	-0.0034
476.6291	-0.0054
476.8297	0.0182
477.0303	-0.0033
477.2309	0.0036
477.4315	-0.0083
477.632	-0.0019
477.8326	0.0031
478.0331	0.0134
478.2336	0.0102
478.4341	-0.0032
478.6346	0.001
478.8351	-0.0001
479.0355	0.0127
479.236	0.0019
479.4364	0.0173
479.6368	0.0049
479.8372	-0.0026
480.0376	-0.0028
480.2379	-0.0142
480.4383	-0.0142
480.6386	0.0119
480.8389	0.0028
481.0392	0.001
481.2395	-0.0065
481.4398	0.0014
481.6401	0.0038
481.8403	0.0043
482.0405	0
482.2408	0.0046
482.441	0.004
482.6411	-0.0046
482.8413	0.0051
483.0415	-0.0072
483.2416	-0.0071
483.4417	-0.0001
483.6419	-0.0062
483.8419	0.0066
484.042	0.0168
484.2421	0.0044
484.4422	0.0098
484.6422	0.0094
484.8422	0.0005
485.0422	-0.0047
485.2422	0.0001
485.4422	-0.0019
485.6422	-0.013
485.8421	-0.0042
486.042	-0.0009
486.242	-0.0007
486.4419	-0.017
486.6417	-0.001
486.8416	-0.0009
487.0415	0.006
487.2413	-0.0138
487.4411	0.0034
487.641	0
487.8408	0.0187
488.0405	-0.0012
488.2403	-0.0023
488.4401	0.0163
488.6398	0.0007
488.8395	-0.0114
489.0392	0.0058
489.2389	0
489.4386	0.0062
489.6383	0.0087
489.8379	0.0101
490.0376	0.0042
490.2372	0.0004
490.4368	-0.009
490.6364	-0.0049
490.836	-0.0158
491.0355	0.0067
491.2351	0.0012
491.4346	-0.003
491.6341	-0.0112
491.8336	0.0066
492.0331	-0.0111
492.2326	-0.0068
492.432	-0.0022
492.6315	0.009
492.8309	-0.0063
493.0303	-0.0073
493.2297	-0.0001
493.4291	0.0009
493.6284	0.0006
493.8278	0.0128
494.0271	0.0052
494.2264	0.0051
494.4257	-0.0051
494.625	0.0049
494.8243	-0.0088
495.0236	0.0006
495.2228	-0.0136
495.422	0.0054
495.6213	0.0046
495.8205	0.0053
496.0196	-0.0069
496.2188	0.0101
496.418	0.0008
496.6171	-0.0017
496.8162	-0.0062
497.0153	0.0026
497.2144	0.0007
497.4135	0.0035
497.6126	-0.0123
497.8116	-0.0131
498.0107	0.0082
498.2097	-0.007
498.4087	-0.0152
498.6077	-0.0063
498.8067	-0.008
499.0056	0.0105
499.2046	0.0028
499.4035	-0.0192
499.6024	0.0018
499.8013	0.0023
500.0002	-0.015
500.199	0.01
500.3979	-0.0025
500.5967	-0.012
500.7956	0.0027
500.9944	-0.0033
501.1932	-0.0001
501.3919	-0.0046
501.5907	-0.0093
501.7895	-0.0102
501.9882	-0.0096
502.1869	0.0024
502.3856	0.0048
502.5843	-0.0031
502.783	-0.0034
502.9816	-0.0076
503.1803	-0.0136
503.3789	0.0049
503.5775	0.006
503.7761	-0.0034
503.9747	-0.0052
504.1732	0.0004
504.3718	-0.0016
504.5703	-0.0054
504.7689	-0.0089
504.9674	0.0026
505.1658	-0.0077
505.3643	-0.0012
505.5628	0.0001
505.7612	-0.0041
505.9597	0.0094
506.1581	-0.0005
506.3565	0.0179
506.5549	0.0036
506.7532	-0.0028
506.9516	0.0039
507.1499	-0.0004
507.3482	-0.0053
507.5465	-0.0098
507.7448	0.0033
507.9431	0.0019
508.1414	0.0062
508.3396	-0.0101
508.5379	0.0006
508.7361	-0.0071
508.9343	0.0064
509.1325	0.0067
509.3306	0.0048
509.5288	-0.0088
509.7269	0.0004
509.9251	0.0032
510.1232	-0.0065
510.3213	0.0025
510.5193	0.0066
510.7174	-0.0009
510.9154	-0.0002
511.1135	0.0048
511.3115	-0.0014
511.5095	0.0089
511.7075	-0.0016
511.9055	0.0033
512.1034	-0.0085
512.3014	-0.0005
512.4993	0.0071
512.6972	-0.0019
512.8951	-0.0135
513.093	-0.0032
513.2908	0.0034
513.4887	0.0106
513.6865	0.0106
513.8844	0.0034
514.0822	-0.0047
514.2799	-0.0077
514.4777	0.001
514.6755	-0.0002
514.8732	0.0068
515.0709	0.0024
515.2687	-0.0103
515.4664	0.0093
515.664	-0.0013
515.8617	0
516.0594	0
516.257	0.002
516.4546	-0.0136
516.6522	0.004
516.8498	0.0042
517.0474	0.0114
517.2449	0.0088
517.4425	-0.0078
517.64	-0.0038
517.8375	-0.0017
518.035	0.001
518.2325	-0.0007
518.43	0.0022
518.6274	0.0084
518.8249	-0.0114
519.0223	-0.0051
519.2197	-0.0038
519.4171	-0.0014
519.6145	-0.0029
519.8118	-0.0001
520.0092	0.0007
520.2065	0.003
520.4038	-0.0129
520.6011	0.0034
520.7984	-0.0001
520.9956	-0.0005
521.1929	-0.0073
521.3901	0.0052
521.5874	0.0014
521.7846	0.0024
521.9818	-0.0116
522.1789	-0.002
522.3761	0.006
522.5732	-0.008
522.7704	-0.0007
522.9675	0
523.1646	0.0001
523.3617	0.0052
523.5587	0.0025
523.7558	-0.0051
523.9528	0.0102
524.1498	0.009
524.3468	0.0027
524.5438	-0.0037
524.7408	0.0051
524.9378	0.0155
525.1347	0.0029
525.3316	-0.002
525.5285	-0.0037
525.7254	0.0055
525.9223	-0.0037
526.1192	0.0031
526.316	-0.0069
526.5129	0.0125
526.7097	-0.0021
526.9065	-0.0054
527.1033	-0.0068
527.3	0.005
527.4968	-0.0072
527.6935	-0.0046
527.8903	-0.0044
528.087	-0.0045
528.2837	-0.0074
528.4804	-0.001
528.677	-0.0065
528.8737	0.0024
529.0703	0.0053
529.2669	-0.0037
529.4635	-0.0056
529.6601	0.0003
529.8567	-0.0015
530.0532	-0.0134
530.2498	0.0078
530.4463	0.0146
530.6428	0.0081
530.8393	0.008
531.0358	-0.0026
531.2322	-0.0001
531.4287	0.0023
531.6251	-0.0059
531.8215	0.0096
532.0179	0.0042
532.2143	0.0062
532.4107	-0.007
532.607	-0.0046
532.8034	0.0096
532.9997	0.0106
533.196	0.0001
533.3923	-0.005
533.5886	0.0056
533.7848	0.0045
533.9811	0.0029
534.1773	0
534.3735	0.0126
534.5697	0.0035
534.7659	-0.0069
534.9621	0.004
535.1582	-0.0068
535.3544	-0.005
535.5505	-0.0069
535.7466	-0.0002
535.9427	-0.004
536.1387	-0.0021
536.3348	0.0068
536.5308	0.0007
536.7269	-0.0101
536.9229	0.0039
537.1189	-0.0017
537.3148	0.0012
537.5108	-0.005
537.7068	-0.0008
537.9027	0.0067
538.0986	-0.0049
538.2945	-0.0032
538.4904	-0.0014
538.6863	-0.0036
538.8821	-0.0016
539.078	0.007
539.2738	0.0012
539.4696	-0.001
539.6654	0.0082
539.8611	0.0056
540.0569	0.0007
540.2526	0.0019
540.4484	-0.0043
540.6441	0.0152
540.8398	-0.0013
541.0355	0.0065
541.2311	0.0036
541.4268	-0.01
541.6224	0.0084
541.818	-0.0021
542.0136	-0.0075
542.2092	0.005
542.4048	-0.0017
542.6003	0.0028
542.7959	-0.0011
542.9914	-0.0076
543.1869	0.0034
543.3824	0.0078
543.5779	0.0003
543.7734	0
543.9688	-0.006
544.1642	0.007
544.3596	-0.0018
544.555	-0.0022
544.7504	-0.0002
544.9458	-0.0054
545.1411	-0.0016
545.3365	0.0051
545.5318	-0.0043
545.7271	0.0021
545.9224	0.0017
546.1177	-0.0019
546.3129	0.0118
546.5081	-0.0026
546.7034	0.0005
546.8986	0.0054
547.0938	-0.0085
547.289	0.0041
547.4841	0.0028
547.6793	0.0061
547.8744	0.0008
548.0695	0.0029
548.2646	-0.0022
548.4597	0.0137
548.6548	0.01
548.8498	0.0069
549.0448	0.008
549.2399	-0.0001
549.4349	0.0063
549.6298	0.007
549.8248	0.0033
550.0198	0.0017
550.2147	0.0089
550.4096	0.0032
550.6045	0.0045
550.7994	0.0117
550.9943	0.0075
551.1892	0.0036
551.384	-0.0004
551.5788	-0.0079
551.7737	0.0053
551.9685	-0.0061
552.1632	0.0039
552.358	-0.0039
552.5528	-0.0001
552.7475	0.0017
552.9422	0.0042
553.1369	0.0025
553.3316	0.0058
553.5263	0.0015
553.7209	0.0086
553.9156	-0.0003
554.1102	-0.0018
554.3048	0.0016
554.4994	0.0064
554.694	0.0064
554.8885	0.0006
555.0831	-0.0101
555.2776	-0.0041
555.4721	-0.0022
555.6666	0.0002
555.8611	0.013
556.0555	0.0035
556.25	-0.0022
556.4444	-0.0074
556.6388	-0.0004
556.8332	0.0061
557.0276	0.0004
557.222	-0.0045
557.4163	0.0042
557.6107	-0.0035
557.805	0.0068
557.9993	-0.0032
558.1936	0.0003
558.3879	-0.0015
558.5821	0.0047
558.7764	-0.0063
558.9706	0.0024
559.1648	0.0116
559.359	-0.0042
559.5532	-0.0059
559.7473	0.0031
559.9415	0.0032
560.1356	-0.0082
560.3297	-0.0062
560.5238	-0.008
560.7179	0.005
560.9119	-0.0013
561.106	0.0005
561.3	-0.0045
561.494	0.0019
561.688	0.0029
561.882	-0.0075
562.076	-0.0041
562.2699	0.0072
562.4639	0.0028
562.6578	-0.004
562.8517	0.0033
563.0456	0.0083
563.2395	0.0119
563.4333	-0.0073
563.6272	0.0057
563.821	-0.0028
564.0148	-0.0025
564.2086	-0.0095
564.4024	-0.0011
564.5961	-0.0064
564.7899	0.0004
564.9836	0.0054
565.1773	0.002
565.371	0.0061
565.5647	-0.0022
565.7584	-0.0034
565.952	-0.0004
566.1456	0.0064
566.3393	-0.0021
566.5329	-0.0105
566.7264	-0.0006
566.92	-0.0096
567.1136	0.0044
567.3071	0.0036
567.5006	0.0076
567.6941	-0.0026
567.8876	0.0014
568.0811	-0.0022
568.2745	-0.0005
568.468	-0.0044
568.6614	0.0038
568.8548	0.0029
569.0482	-0.0023
569.2416	0.0001
569.4349	-0.0002
569.6283	0.0031
569.8216	-0.0027
570.0149	-0.0036
570.2082	0.0082
570.4015	0.0074
570.5947	0.0052
570.788	0.0025
570.9812	-0.0018
571.1744	0.0037
571.3676	-0.0032
571.5608	-0.0036
571.754	-0.0042
571.9471	0.006
572.1402	0.0021
572.3333	-0.0035
572.5264	-0.0018
572.7195	-0.0029
572.9126	-0.0032
573.1057	0.0035
573.2987	-0.0027
573.4917	0.0049
573.6847	-0.0008
573.8777	0.0113
574.0707	0.0086
574.2636	0.0011
574.4566	-0.0018
574.6495	0.0044
574.8424	-0.0026
575.0353	-0.0018
575.2281	0.0088
575.421	0.0004
575.6138	0.0124
575.8067	-0.0036
575.9995	0.0012
576.1923	0.0045
576.385	0.0033
576.5778	0.0084
576.7706	0.0019
576.9633	0.0043
577.156	0.0079
577.3487	0.0024
577.5414	0.001
577.734	-0.001
577.9267	0.017
578.1193	-0.0065
578.3119	-0
578.5045	0.0022
578.6971	0.0003
578.8897	0.0027
579.0822	-0.002
579.2747	0.0094
579.4673	-0.0027
579.6598	-0.0035
579.8522	-0.0027
580.0447	0.0016
580.2372	-0.0033
580.4296	0.0043
580.622	0.0012
580.8144	-0.005
581.0068	-0.0023
581.1992	-0.0046
581.3915	-0.0044
581.5839	0
581.7762	-0.0016
581.9685	-0
582.1608	0.0071
582.353	0.0009
582.5453	0.0013
582.7375	0.0007
582.9298	0.002
583.122	0.0037
583.3142	-0.0038
583.5063	0.0016
583.6985	0.0041
583.8906	0.0026
584.0827	-0.0053
584.2749	0.0005
584.4669	0.003
584.659	-0.0026
584.8511	0.0015
585.0431	-0.0028
585.2352	0.0056
585.4272	0.0011
585.6192	0.0119
585.8111	0.0018
586.0031	0.0018
586.195	-0.0082
586.387	0.0035
586.5789	0.0034
586.7708	0.0081
586.9627	0.0037
587.1545	-0.0071
587.3464	0.0055
587.5382	0.0059
587.73	0.0069
587.9218	0.0043
588.1136	-0.0024
588.3053	0.0016
588.4971	-0.0046
588.6888	-0.0105
588.8805	0.0033
589.0722	0.0081
589.2639	0.0046
589.4556	0.0004
589.6472	-0.0008
589.8389	-0.0027
590.0305	-0.0153
590.2221	0.002
590.4137	-0.0047
590.6052	0.0062
590.7968	-0.0021
590.9883	0.0041
591.1798	0.0002
591.3713	0.0019
591.5628	0.0089
591.7543	0.0035
591.9458	0.0037
592.1372	0.0082
592.3286	0.0056
592.52	0.006
592.7114	0.0066
592.9028	0.0018
593.0941	0.0032
593.2855	0.0024
593.4768	-0.0078
593.6681	-0.0067
593.8594	0.0001
594.0506	0.0027
594.2419	0.0109
594.4331	0.0099
594.6244	0.0046
594.8156	0.0027
595.0067	0.0125
595.1979	0.001
595.3891	0.0071
595.5802	-0.0047
595.7713	-0.0054
595.9624	-0.0025
596.1535	0.0098
596.3446	-0.001
596.5357	-0.0015
596.7267	0.0076
596.9177	-0.0004
597.1087	-0.0017
597.2997	0.0004
597.4907	-0.0002
597.6817	-0.0041
597.8726	0.0037
598.0635	-0.0067
598.2544	0.0008
598.4453	-0.002
598.6362	-0.0027
598.827	-0.0003
599.0179	0.0064
599.2087	0.0011
599.3995	-0.0031
599.5903	0.0008
599.7811	0.0022
599.9718	0.003
600.1626	-0.0023
600.3533	-0.0051
600.544	-0.001
600.7347	0.0043
600.9254	0.0075
601.116	-0.0054
601.3067	0.0015
601.4973	-0.0067
601.6879	0.0005
601.8785	-0.0047
602.0691	0.0038
602.2596	0.0088
602.4502	0.0033
602.6407	0.0064
602.8312	0.0036
603.0217	-0.0007
603.2122	-0.0017
603.4027	-0.0018
603.5931	-0.0008
603.7835	-0.0059
603.9739	-0.0067
604.1643	-0.0046
604.3547	-0.0072
604.5451	0.0012
604.7354	-0.0011
604.9257	-0.0031
605.116	-0.0019
605.3063	0.005
605.4966	0.0029
605.6869	0.0043
605.8771	0.0028
606.0673	0.0034
606.2575	0.0036
606.4477	0.0038
606.6379	0.0007
606.8281	0.005
607.0182	0.0005
607.2083	0.0119
607.3985	-0.0035
607.5885	0.0051
607.7786	0.0084
607.9687	-0.0015
608.1587	0.0036
608.3488	0.0078
608.5388	0.0019
608.7288	0.0038
608.9187	-0.0041
609.1087	-0.003
609.2986	-0.0043
609.4886	-0.0004
609.6785	0.0002
609.8684	0.0103
610.0582	0.0053
610.2481	0.0053
610.4379	0.0073
610.6278	-0.0005
610.8176	0.0035
611.0074	0.0004
611.1971	-0.0069
611.3869	0.0048
611.5766	-0.0007
611.7664	0.0086
611.9561	-0.0003
612.1458	-0.0029
612.3354	-0.0078
612.5251	0.004
612.7147	0.0066
612.9044	0.0025
613.094	-0.0062
613.2836	-0.0003
613.4731	0.0013
613.6627	-0.0042
613.8522	0.0033
614.0417	0.0022
614.2313	-0.0052
614.4207	-0.0051
614.6102	-0.0008
614.7997	-0.001
614.9891	-0.0033
615.1785	-0.0038
615.3679	-0.0056
615.5573	0.0105
615.7467	-0.0037
615.9361	-0.002
616.1254	-0.0012
616.3147	0.0054
616.504	0.0014
616.6933	0.0021
616.8826	0.006
617.0718	0.0062
617.2611	0.0033
617.4503	0.0005
617.6395	-0.0011
617.8287	0.0101
618.0179	0.0054
618.207	0.006
618.3961	0.0071
618.5853	0.0051
618.7744	0.0072
618.9634	0.0055
619.1525	-0.0002
619.3416	0.0078
619.5306	0.0018
619.7196	0.0024
619.9086	-0.0065
620.0976	0.0086
620.2866	0.0005
620.4755	0.0077
620.6645	0.0055
620.8534	0.0144
621.0423	0.0128
621.2312	0.0045
621.42	0.0026
621.6089	0.0023
621.7977	0.0057
621.9865	-0.0092
622.1753	0.0051
622.3641	-0.0036
622.5529	0.0049
622.7416	0.0079
622.9303	0.0015
623.1191	0.001
623.3078	0.0015
623.4964	0.0073
623.6851	-0.0041
623.8737	-0.0026
624.0624	0.0095
624.251	-0.0004
624.4396	0.0003
624.6282	-0.0004
624.8167	0.0033
625.0053	0.0046
625.1938	0.0017
625.3823	0.0007
625.5708	-0.0018
625.7593	-0.0063
625.9477	-0.0001
626.1362	0.0035
626.3246	0.0044
626.513	0.0052
626.7014	0.0079
626.8898	0.0001
627.0781	0.0049
627.2665	-0.0021
627.4548	0.0101
627.6431	0.0015
627.8314	0.0047
628.0197	0.0129
628.2079	0.0039
628.3962	0.0035
628.5844	0.0061
628.7726	0.0114
628.9608	0.0053
629.1489	0.0077
629.3371	0.011
629.5252	-0.0033
629.7134	0.0086
629.9015	0.0057
630.0895	0.0029
630.2776	0.0064
630.4657	0.0024
630.6537	0.0044
630.8417	-0.0024
631.0297	0.0032
631.2177	0.002
631.4057	0.0034
631.5936	-0.0029
631.7815	0.0008
631.9695	0.0035
632.1574	0.0087
632.3452	0.0108
632.5331	0.0049
632.7209	0.0035
632.9088	0.0135
633.0966	0.01
633.2844	-0.0031
633.4722	0.0038
633.6599	0.0094
633.8477	0.0084
634.0354	0.0066
634.2231	-0.0009
634.4108	-0.0018
634.5985	0.0061
634.7861	-0.0023
634.9738	0.0039
635.1614	-0.0055
635.349	0.0014
635.5366	-0.0002
635.7242	0.009
635.9117	0.005
636.0993	0.0038
636.2868	0.0094
636.4743	0.0022
636.6618	0.0115
636.8492	0.0029
637.0367	0.001
637.2241	-0.0006
637.4115	-0.0056
637.5989	-0.0042
637.7863	0.0044
637.9737	0.0037
638.161	-0.0018
638.3484	-0.0042
638.5357	-0.0019
638.723	-0.0001
638.9103	0.0022
639.0975	-0.0043
639.2848	0.0063
639.472	-0.0001
639.6592	0.0028
639.8464	0.0111
640.0336	0.0048
640.2208	-0.0087
640.4079	0.0008
640.595	-0.0005
640.7821	-0.0013
640.9692	-0.0053
641.1563	0.0015
641.3434	0.004
641.5304	0.0039
641.7174	-0.0015
641.9044	-0.0033
642.0914	0.0063
642.2784	0.0049
642.4653	0.0063
642.6523	0.0015
642.8392	-0.0059
643.0261	0.004
643.213	0.0033
643.3999	-0.003
643.5867	-0.0094
643.7735	0.0064
643.9604	-0.0036
644.1472	-0.0043
644.3339	-0.0031
644.5207	0.0011
644.7075	-0.0007
644.8942	-0.0052
645.0809	0.0006
645.2676	0.012
645.4543	0.0033
645.6409	0.0011
645.8276	-0.0093
646.0142	0.0077
646.2008	-0.0068
646.3874	-0.0029
646.574	0.0047
646.7605	-0.0022
646.9471	-0.0093
647.1336	-0.0021
647.3201	0.0037
647.5066	-0.0033
647.6931	0.0066
647.8795	0.0013
648.0659	0.0044
648.2524	0.0029
648.4388	-0.005
648.6252	-0.0006
648.8115	-0.0016
648.9979	0.0024
649.1842	0.0004
649.3705	-0.0007
649.5568	0.0011
649.7431	0.0006
649.9294	0.0019
650.1156	0.0049
650.3018	-0.0076
650.488	-0.0024
650.6742	0.0057
650.8604	0.0021
651.0466	-0.0043
651.2327	-0.0056
651.4188	0.0052
651.6049	0.0026
651.791	0.0006
651.9771	0.0043
652.1632	0.0041
652.3492	0.0051
652.5352	-0.0063
652.7212	-0.0069
652.9072	0.003
653.0932	-0.0041
653.2791	-0.0101
653.465	-0.0011
653.651	-0.0032
653.8369	-0.0011
654.0227	-0.0057
654.2086	-0.0018
654.3944	0.0065
654.5803	-0
654.7661	-0.011
654.9519	-0.0006
655.1377	-0.0051
655.3234	-0.001
655.5092	-0.0061
655.6949	-0.0067
655.8806	-0.0023
656.0663	-0.0021
656.2519	-0.0042
656.4376	-0.0041
656.6232	-0.0027
656.8088	-0.006
656.9945	-0.0027
657.18	-0.0037
657.3656	-0.0022
657.5511	-0.0017
657.7367	-0.0074
657.9222	0.005
658.1077	0.0037
658.2932	0.0013
658.4786	-0.006
658.6641	-0.0114
658.8495	-0.0015
659.0349	0.0013
659.2203	0.0107
659.4057	0.0087
659.591	0.0033
659.7764	-0.0057
659.9617	0.0047
660.147	-0.0013
660.3323	0.0071
660.5176	0.0065
660.7028	0.0067
660.888	-0.0009
661.0733	0.0007
661.2585	-0.0038
661.4436	-0.002
661.6288	-0.0027
661.8139	-0.0054
661.9991	0.0024
662.1842	0.0005
662.3693	0.0007
662.5544	-0.0026
662.7394	0.0047
662.9245	-0.0051
663.1095	-0.0038
663.2945	0.0007
663.4795	-0.0016
663.6644	0.001
663.8494	0.0056
664.0343	0.0001
664.2193	-0.0124
664.4042	-0.0019
664.589	-0.0009
664.7739	-0.0048
664.9587	-0.0034
665.1436	-0.0013
665.3284	0.0056
665.5132	-0.0051
665.698	0.0036
665.8827	0.0091
666.0675	-0.0007
666.2522	-0.0057
666.4369	0.0055
666.6216	0.0087
666.8063	0.0035
666.9909	0.0028
667.1756	0.0037
667.3602	-0.0012
667.5448	-0.0003
667.7294	0.0073
667.9139	0.0059
668.0985	0.0153
668.283	-0.0032
668.4675	-0.0025
668.652	0.0009
668.8365	0.0013
669.0209	0.0061
669.2054	0.0031
669.3898	0.0023
669.5742	0.0028
669.7586	0.0057
669.943	0.0059
670.1273	0.0002
670.3117	0.005
670.496	0.0125
670.6803	0.0161
670.8646	0.0091
671.0488	0.0031
671.2331	0.006
671.4173	0.0068
671.6015	0.0031
671.7857	0.0038
671.9699	0.0098
672.1541	0.0125
672.3382	0.008
672.5223	0.0088
672.7064	0.0055
672.8905	0.0113
673.0746	-0.0019
673.2587	0.0004
673.4427	-0.0006
673.6267	0.0073
673.8107	0.0092
673.9947	0.0038
674.1787	-0.001
674.3626	-0.0049
674.5465	0.0032
674.7304	0.0043
674.9143	0.0015
675.0982	0.0071
675.2821	0.0014
675.4659	0.0094
675.6497	0.0075
675.8335	-0.0004
676.0173	-0.0003
676.2011	0.0073
676.3849	0.0004
676.5686	-0.0071
676.7523	0.0011
676.936	0.005
677.1197	-0.0007
677.3034	-0.0017
677.487	0.0034
677.6706	0.003
677.8542	0.0091
678.0378	-0.0002
678.2214	-0.0014
678.405	0.0032
678.5885	-0.0068
678.772	0.0035
678.9555	-0.0055
679.139	-0.0086
679.3225	0.0002
679.5059	-0.0077
679.6894	0.0063
679.8728	-0.003
680.0562	-0.0032
680.2395	-0.009
680.4229	-0.0003
680.6062	0.005
680.7896	0.0051
680.9729	-0.0061
681.1562	0.0047
681.3394	-0.0026
681.5227	-0.0102
681.7059	-0.0021
681.8891	-0.0003
682.0723	0.0075
682.2555	0.0008
682.4387	-0.002
682.6218	0.0001
682.805	0.0007
682.9881	0.0035
683.1712	-0.0059
683.3542	-0.0028
683.5373	0.0059
683.7203	-0.0026
683.9034	0.0009
684.0864	-0.0068
684.2694	0.0032
684.4523	0.0037
684.6353	-0.0016
684.8182	-0.0003
685.0011	-0.014
685.184	0.0003
685.3669	-0.003
685.5498	0.005
685.7326	-0.0061
685.9154	-0.0078
686.0982	0.0094
686.281	0.0045
686.4638	0.0089
686.6465	0.0069
686.8293	0.0074
687.012	0.0141
687.1947	-0.009
687.3774	0.0026
687.56	-0.0015
687.7427	0.002
687.9253	-0.0027
688.1079	-0.003
688.2905	0.0056
688.4731	-0.0009
688.6556	-0.0052
688.8382	-0.0003
689.0207	0.0033
689.2032	-0.0085
689.3857	-0.0044
689.5681	-0.0003
689.7506	-0.0038
689.933	-0.0061
690.1154	-0.0016
690.2978	0.0006
690.4802	-0.0012
690.6626	-0.0106
690.8449	-0.0087
691.0272	0.0051
691.2095	-0.0053
691.3918	-0.0029
691.5741	0.004
691.7563	-0.0027
691.9386	0.0029
692.1208	-0.0033
692.303	-0.0008
692.4852	-0.0052
692.6673	-0.0013
692.8495	-0.0007
693.0316	0.0008
693.2137	0.0035
693.3958	0.0094
693.5778	0.0128
693.7599	0.0118
693.9419	0.0024
694.1239	0.0022
694.3059	-0.0052
694.4879	0.0041
694.6699	0.0107
694.8518	0.0036
695.0337	0.0016
695.2157	0.0018
695.3975	0.0045
695.5794	0.0062
695.7613	0.0006
695.9431	-0.0042
696.1249	0.0062
696.3067	0.0093
696.4885	0.0019
696.6703	-0.0082
696.852	0.0006
697.0337	0.0022
697.2154	-0.0026
697.3971	0.0032
697.5788	-0.0003
697.7605	0.0015
697.9421	0.0064
698.1237	-0.0026
698.3053	0.0008
698.4869	-0.007
698.6685	-0.0068
698.85	-0.005
699.0315	0.0016
699.213	-0.0016
699.3945	-0.0082
699.576	0.0097
699.7575	0.0055
699.9389	0.0085
700.1203	-0.0022
700.3017	-0.0079
700.4831	-0.006
700.6645	0.0018
700.8458	0.0112
701.0271	0.0041
701.2084	0.0076
701.3897	-0.0039
701.571	0.0024
701.7523	-0.0072
701.9335	0.0011
702.1147	0.0009
702.2959	0.001
702.4771	0.0002
702.6583	-0.0041
702.8394	-0.0076
703.0205	-0.0045
703.2016	-0.0047
703.3827	0.0032
703.5638	0.0089
703.7449	0.0033
703.9259	0.0081
704.1069	-0.0003
704.2879	-0.0015
704.4689	0.0064
704.6499	0.0121
704.8308	0.0034
705.0117	0.0054
705.1927	0.0075
705.3735	0.0009
705.5544	-0.0027
705.7353	0.0057
705.9161	-0.001
706.0969	-0.0016
706.2777	0.0062
706.4585	-0.0049
706.6393	0.0041
706.82	-0.0009
707.0007	0.0082
707.1815	0.0034
707.3621	0.0115
707.5428	0.0024
707.7235	0.0098
707.9041	0.0038
708.0847	-0.0108
708.2653	0.0017
708.4459	-0.0127
708.6265	0.0021
708.807	-0.0018
708.9875	0.0086
709.168	-0.0003
709.3485	-0.0043
709.529	0.0026
709.7095	-0.0122
709.8899	0.0038
710.0703	-0.0071
710.2507	-0.0005
710.4311	0.0039
710.6115	-0.0057
710.7918	-0.0123
710.9721	-0.0086
711.1524	-0.0091
711.3327	-0.0014
711.513	0.0001
711.6932	0.0039
711.8735	0.0089
712.0537	0.0028
712.2339	0.0017
712.4141	-0.0124
712.5942	0.0001
712.7744	-0.0107
712.9545	-0.0077
713.1346	-0.0074
713.3147	-0.0157
713.4947	-0.0016
713.6748	-0.0012
713.8548	-0.0012
714.0348	-0.0025
714.2148	0.0007
714.3948	0.0046
714.5748	-0.0039
714.7547	0
714.9346	0.0039
715.1145	-0.0004
715.2944	-0.0065
715.4743	0.0007
715.6541	-0.0041
715.834	-0.0046
716.0138	-0.0063
716.1936	-0.0133
716.3733	-0.0032
716.5531	0.004
716.7328	-0.0016
716.9126	-0.0081
717.0923	-0.0026
717.2719	-0.0071
717.4516	-0.0018
717.6312	-0.0028
717.8109	-0.0055
717.9905	0.0065
718.1701	-0.0096
718.3496	-0.0107
718.5292	0.0025
718.7087	-0.002
718.8882	0.0041
719.0677	0.0076
719.2472	-0.0002
719.4267	-0.0062
719.6061	-0.001
719.7856	0.0051
719.965	0.0018
720.1443	-0.0052
720.3237	0.005
720.5031	-0.0041
720.6824	0.0142
720.8617	0.0019
721.041	0.0018
721.2203	0.0173
721.3995	0.0063
721.5788	0.009
721.758	0.0093
721.9372	0.004
722.1164	0.0022
722.2956	0.0119
722.4747	0.0058
722.6538	0.01
722.8329	0.0141
723.012	0.0121
723.1911	0.0105
723.3702	0.0036
723.5492	0.0031
723.7282	-0.003
723.9072	0.0019
724.0862	-0.01
724.2652	-0.0079
724.4441	0.0009
724.623	-0.0032
724.8019	0.0043
724.9808	-0.0017
725.1597	-0.0092
725.3385	0.0095
725.5174	-0.0003
725.6962	-0.0005
725.875	0.0034
726.0538	0.0116
726.2325	-0.0039
726.4112	0.0029
726.59	-0.0058
726.7687	-0.0056
726.9474	0.0047
727.126	0.0038
727.3047	-0.0077
727.4833	-0.0053
727.6619	-0.0051
727.8405	-0.0086
728.0191	0.0013
728.1976	-0.0007
728.3762	-0.0001
728.5547	-0.0006
728.7332	-0.0164
728.9116	-0.0025
729.0901	0.0014
729.2686	-0.0001
729.447	-0.0007
729.6254	0.0013
729.8038	-0.0048
729.9821	-0.0073
730.1605	-0.0036
730.3388	-0.0029
730.5171	0.0027
730.6954	-0.0062
730.8737	-0.0026
731.0519	-0.0022
731.2302	-0.0004
731.4084	0.0082
731.5866	0.0061
731.7648	-0.0016
731.9429	0.0054
732.1211	-0.0048
732.2992	-0.0049
732.4773	0.0087
732.6554	-0.0011
732.8335	0.0043
733.0115	0.0012
733.1896	0.0016
733.3676	-0.003
733.5456	0.0022
733.7235	0.0117
733.9015	-0.0016
734.0794	0.0126
734.2574	-0.0001
734.4353	-0.0012
734.6131	0.006
734.791	0.0006
734.9689	0.0011
735.1467	-0.0046
735.3245	-0.011
735.5023	-0.0099
735.68	0.0018
735.8578	-0.0003
736.0355	-0.0165
736.2132	-0.0072
736.3909	-0.0063
736.5686	-0.01
736.7463	0.0011
736.9239	-0.0056
737.1015	-0.0079
737.2791	0.0061
737.4567	-0.0029
737.6343	-0.0113
737.8118	0.0003
737.9894	-0.0035
738.1669	-0.0044
738.3444	-0.002
738.5218	0.0031
738.6993	-0.0077
738.8767	-0.002
739.0541	0.0081
739.2315	-0.0113
739.4089	-0.0019
739.5863	0.0011
739.7636	-0.0132
739.9409	0.0043
740.1182	-0.0012
740.2955	0.0023
740.4728	0.004
740.65	-0.0027
740.8272	-0.005
741.0044	-0.0043
741.1816	0.0026
741.3588	-0.0025
741.5359	0.0014
741.7131	-0.0047
741.8902	-0.0034
742.0673	0.0004
742.2444	-0.0033
742.4214	-0.0122
742.5985	-0.0014
742.7755	-0.0024
742.9525	-0.0148
743.1295	0.0015
743.3064	-0.0016
743.4834	0.0002
743.6603	-0.0096
743.8372	-0.0065
744.0141	-0.0012
744.191	-0.0027
744.3678	-0.0051
744.5446	-0.0017
744.7215	0.0073
744.8982	-0.0028
745.075	-0.0147
745.2518	0.0064
745.4285	0.0025
745.6052	-0.0042
745.7819	0.0041
745.9586	-0.0006
746.1353	0.0124
746.3119	0.0039
746.4885	-0.0019
746.6651	0.0031
746.8417	-0.0037
747.0183	0.0095
747.1948	0.0087
747.3714	0.0095
747.5479	0.0038
747.7244	0.0005
747.9008	0.0165
748.0773	0.0027
748.2537	-0.0042
748.4301	-0.007
748.6065	0.0036
748.7829	-0.0001
748.9593	-0.0073
749.1356	0.0037
749.3119	0.0059
749.4882	-0.006
749.6645	0.0098
749.8408	-0.0038
750.017	-0.0035
750.1933	-0.0014
750.3695	0.0083
750.5457	0.0092
750.7218	0.0064
750.898	0.0042
751.0741	-0.0043
751.2502	0.0026
751.4263	-0.0012
751.6024	0.0059
751.7784	0.002
751.9545	0.0018
752.1305	-0.0045
752.3065	-0.0028
752.4825	0.0014
752.6584	-0.0081
752.8344	-0.006
753.0103	-0.0058
753.1862	-0.0084
753.3621	-0.0072
753.5379	-0.0017
753.7138	0.0022
753.8896	-0.0085
754.0654	-0.0066
754.2412	0.0078
754.417	-0.0001
754.5927	-0.0123
754.7685	0.0023
754.9442	0.0071
755.1199	0.0053
755.2956	-0.0063
755.4712	0.0046
755.6469	0.0036
755.8225	0.0003
755.9981	-0.0021
756.1736	-0.0012
756.3492	0.0025
756.5248	-0.0048
756.7003	-0.0035
756.8758	0.0132
757.0513	-0.0038
757.2267	-0.0059
757.4022	0.0071
757.5776	-0.0026
757.753	0.0039
757.9284	0.0054
758.1038	0.0138
758.2791	0.0058
758.4545	-0.022
758.6298	0.003
758.8051	0.0051
758.9803	0.0024
759.1556	0.0089
759.3308	-0.0051
759.506	0.0129
759.6812	0.0106
759.8564	0.0155
760.0316	0.0107
760.2067	0.0018
760.3819	-0.0011
760.557	0.0152
760.732	0.0032
760.9071	-0.0027
761.0821	-0.0039
761.2572	0.0097
761.4322	-0.0001
761.6072	-0.0046
761.7821	-0.0128
761.9571	0.0009
762.132	-0.0014
762.3069	-0.0112
762.4818	-0.0136
762.6567	-0.008
762.8316	-0.0008
763.0064	-0.0056
763.1812	-0.0016
763.356	-0.0117
763.5308	-0.0019
763.7055	0.0028
763.8803	-0.0047
764.055	-0.0006
764.2297	0.0043
764.4044	-0.0079
764.579	-0.0096
764.7537	-0.0085
764.9283	0.0007
765.1029	0.0026
765.2775	0.0024
765.4521	-0.0107
765.6266	-0.0036
765.8011	0.0032
765.9756	0.0032
766.1501	0.0016
766.3246	-0.0038
766.4991	-0.0054
766.6735	0.0003
766.8479	-0.009
767.0223	0
767.1967	-0.0061
767.371	-0.0023
767.5454	-0.011
767.7197	0.0002
767.894	0.0036
768.0683	-0.0081
768.2425	0.0067
768.4168	0.0051
768.591	0.0001
768.7652	0.0076
768.9394	-0.0009
769.1135	0.0108
769.2877	0.0153
769.4618	0.0079
769.6359	0.0046
769.81	0.0039
769.984	-0.0035
770.1581	-0.007
770.3321	0.0057
770.5061	-0.007
770.6801	-0.0054
770.8541	-0.0075
771.028	0.0031
771.202	-0.0091
771.3759	0.0063
771.5498	-0.0012
771.7236	0.001
771.8975	0.0047
772.0713	0.0172
772.2451	0.0012
772.4189	0.0048
772.5927	0.0091
772.7665	0.0046
772.9402	0.0012
773.1139	0.0069
773.2876	-0.0018
773.4613	0.0035
773.635	-0.0053
773.8086	-0.0053
773.9822	0.0081
774.1558	0.0151
774.3294	-0.0209
774.503	0.0044
774.6765	-0.008
774.8501	0.0104
775.0236	0.0098
775.1971	0.0149
775.3705	-0.0062
775.544	0.0115
775.7174	-0.0057
775.8908	-0.0082
776.0642	0.0018
776.2376	0.0052
776.4109	-0.0062
776.5843	-0.0038
776.7576	0.016
776.9309	0.0061
777.1041	0.003
777.2774	0.0084
777.4506	0.0075
777.6238	0.0004
777.797	0.0043
777.9702	-0.0038
778.1434	-0.0005
778.3165	-0.0042
778.4896	-0.0145
778.6627	0.0031
778.8358	-0.0036
779.0089	-0.0002
779.1819	-0.0009
779.3549	0.0157
779.5279	0.0037
779.7009	-0.0024
779.8739	0.0036
780.0468	0
780.2197	0.0103
780.3926	0.0073
780.5655	-0.0123
780.7384	0.0012
780.9112	-0.0094
781.0841	-0.0159
781.2569	0.004
781.4297	0
781.6024	0.0092
781.7752	-0.0073
781.9479	-0.0021
782.1206	0.0088
782.2933	-0.0193
782.466	0.0108
782.6386	-0.0031
782.8113	-0.0038
782.9839	0.0042
783.1565	0.0148
783.329	0.0197
783.5016	0.0012
783.6741	0.0029
783.8466	-0.0019
784.0191	0.0201
784.1916	0.0034
784.3641	0.0122
784.5365	0.0094
784.7089	-0.0121
784.8813	0.002
785.0537	-0.0032
785.2261	0.0015
785.3984	-0.0182
785.5707	-0.0106
785.743	0.0028
785.9153	-0.0078
786.0876	-0.0068
786.2598	-0.0045
786.432	-0.0205
786.6042	0.0064
786.7764	-0.0125
786.9486	0.0095
787.1207	0.0007
787.2928	0.001
787.4649	-0.0001
787.637	0.0097
787.8091	-0.0049
787.9811	-0.0071
788.1532	0.0128
788.3252	0.0098
788.4972	0.0012
788.6691	0.0132
788.8411	0.0033
789.013	0.0021
789.1849	0.0128
789.3568	0.003
789.5287	-0.0016
789.7005	-0.0074
789.8723	0.0101
790.0442	0.0195
790.2159	0.004
790.3877	0.0086
790.5595	-0.0037
790.7312	0.0159
790.9029	0.0126
791.0746	0.0079
791.2463	0.0088
791.4179	0.0067
791.5896	-0.0105
791.7612	0.0204
791.9328	0.0055
792.1044	-0.0014
792.2759	-0.0041
792.4474	0.0013
792.619	0.0064
792.7905	0.0002
792.9619	0.0027
793.1334	0.017
793.3048	0.0035
793.4762	0.0134
793.6476	0.0085
793.819	0.0061
793.9904	0.0112
794.1617	-0.006
794.333	-0.0042
794.5043	-0.0089
794.6756	0.011
794.8469	-0.0029
795.0181	-0.0003
795.1893	0.0034
795.3605	0.0133
795.5317	0.0009
795.7029	0.0019
795.874	0.0119
796.0452	0.0025
796.2163	0.0103
796.3873	0.0138
796.5584	0.0174
796.7294	0.0004
796.9005	0.0138
797.0715	0.0099
797.2425	0.001
797.4134	0
797.5844	0.0067
797.7553	0.0063
797.9262	0.0132
798.0971	-0.0015
798.2679	-0.0059
798.4388	-0.0156
798.6096	0.007
798.7804	0.0044
798.9512	0.0106
799.122	-0.0056
799.2927	0.0066
799.4635	0.0078
799.6342	-0.0126
799.8049	-0.005
799.9755	0.0112
800.1462	0.0098
800.3168	0.0043
800.4874	-0.0005
800.658	0.0186
800.8286	0.0175
800.9991	0.0142
801.1696	0.0097
801.3402	0.0101
801.5106	0.013
801.6811	0.0097
801.8516	0.0124
802.022	0.0075
802.1924	0.0146
802.3628	0.0031
802.5332	0.0154
802.7035	0.0203
802.8739	-0.0086
803.0442	-0.0034
803.2145	0.0315
803.3847	0.0057
803.555	-0.0006
803.7252	-0.0046
803.8954	-0.0178
804.0656	-0.002
804.2358	-0.0017
804.4059	0.0318
804.5761	0.002
804.7462	0.017
804.9163	0.0144
805.0864	0.0182
805.2564	0.0087
805.4264	-0.0004
805.5965	0.0111
805.7665	0.0144
805.9364	0.0237
806.1064	0.0276
806.2763	0.0054
806.4462	0.0207
806.6161	-0.001
806.786	0.014
806.9559	-0.0011
807.1257	0.0038
807.2955	-0.0018
807.4653	0.0156
807.6351	0.0008
807.8048	0.0146
807.9746	0.0062
808.1443	0.0053
808.314	0.01
808.4837	-0.0067
808.6533	0.0185
808.8229	0.007
808.9926	0.0083
809.1622	0.0329
809.3317	0.0154
809.5013	0.0063
809.6708	0.0377
809.8403	0.0254
810.0098	0.0145
810.1793	0.0419
810.3488	0.0318
810.5182	-0.0049
810.6876	0.0072
810.857	0.0038
811.0264	0.0333
811.1958	0.0133
811.3651	0.0304
811.5344	0.0162
811.7037	0.0027
811.873	0.0074
812.0422	0.0051
812.2115	0.0104
812.3807	0.0163
812.5499	0.0162
812.7191	0.0134
812.8882	0.013
813.0574	0.0155
813.2265	0.0175
813.3956	0.0047
813.5646	0.0158
813.7337	0
813.9027	0.0248
814.0718	0.0414
814.2407	0.0417
814.4097	-0.0293
814.5787	-0.0066
814.7476	0.0017
814.9165	0.0229
815.0854	0.0241
815.2543	-0.0008
815.4232	0.0154
815.592	0.0213
815.7608	0.0078
815.9296	0.0251
816.0984	0.0279
816.2671	0.0154
816.4359	-0.0071
816.6046	0.0115
816.7733	0.0134
816.942	0.0144
817.1106	0.0194
817.2793	0.0319
817.4479	0.0169
817.6165	0.0328
817.785	0.0214
817.9536	0.0063
818.1221	0.0161
818.2906	0.0329
818.4591	0.0191
818.6276	0.0062
818.7961	0.0235
818.9645	0.0246
819.1329	0.0322
819.3013	0.0316
819.4697	0.05
819.638	0.019
819.8064	0.0185
819.9747	0.0318
820.143	0.0192
820.3113	-0.0068
820.4795	0.0331
820.6477	0.0198
820.816	0.0099
820.9842	0.0177
821.1523	-0.0176
821.3205	0.0011
821.4886	0.0166
821.6567	-0.0035
821.8248	0.035
821.9929	0.0155
822.1609	0.03
822.329	0.0198
822.497	0.0386
822.665	0.0286
822.833	0.0016
823.0009	0.0232
823.1688	-0.0092
823.3367	0.0573
823.5046	-0.0022
823.6725	0.0293
823.8404	0.0281
824.0082	0.0124
824.176	0.0194
824.3438	0.044
824.5116	0.0172
824.6793	0.0342
824.847	0.0174
825.0147	0.0202
825.1824	0.0117
825.3501	0.0232
825.5177	0.0077
825.6854	-0.0085
825.853	0.0136
826.0206	0.0001
826.1881	0.0249
826.3557	-0.0037
826.5232	0.032
826.6907	0.0185
826.8582	0.0046
827.0257	-0.0031
827.1931	0.0373
827.3605	0.0152
827.528	0.0029
827.6953	-0.0254
827.8627	-0.0092
828.03	0.0235
828.1974	-0.0018
828.3647	-0.0156
828.532	-0.0043
828.6992	-0.015
828.8665	0.0241
829.0337	-0.0064
829.2009	0.0588
829.3681	0.0047
829.5352	0.0251
829.7024	0.0066
829.8695	-0.0451
830.0366	0.0551
830.2037	0.0135
830.3707	0.0334
830.5378	0.0137
830.7048	-0.0037
830.8718	-0.0096
831.0388	-0.0011
831.2057	0.0276
831.3727	0.0579
831.5396	0.0259
831.7065	0.0024
831.8734	0.0263
832.0402	0.0322
832.2071	0.0086
832.3739	0.0417
832.5407	-0.0215
832.7075	0.0045
832.8742	-0.0284
833.041	-0.0338
833.2077	0.0062
833.3744	0.0521
833.541	0.0574
833.7077	0.0128
833.8743	0.0114
834.0409	0.0081
834.2075	0.0337
834.3741	0.0001
834.5407	-0.0037
834.7072	0.0236
834.8737	-0.013
835.0402	0.0089
835.2067	0.0134
835.3731	0.0253
835.5395	-0.0012
835.706	-0.0207
835.8723	0.0361
836.0387	0.0251
836.2051	-0.0216
836.3714	-0.0219
836.5377	-0.0087
836.704	-0.0063
836.8703	-0.0224
837.0365	0.0016
837.2027	-0.0424
837.3689	0.0165
837.5351	-0.0168
837.7013	-0.0206
837.8674	-0.022
838.0335	0.023
838.1997	0.015
838.3657	-0.0354
838.5318	0.0112
838.6978	0.0858
838.8639	0.0692
839.0299	0.0159
839.1958	-0.0152
839.3618	-0.0092
839.5277	0.023
839.6937	-0.0216
839.8596	0.038
840.0254	0.0719
840.1913	0.0509
840.3571	0.0683
840.523	-0.0097
840.6888	-0.0182
840.8545	-0.0359
841.0203	0.0254
841.186	-0.0117
841.3517	0.0585
841.5174	0.0521
841.6831	-0.0237
841.8488	0.0516
842.0144	0.0334
842.18	0.0238
842.3456	0.0343
842.5112	0.0136
842.6767	-0.0172
842.8422	-0.0093
843.0077	-0.008
843.1732	0.0229
843.3387	0.0117
843.5042	-0.0068
843.6696	-0.0129
843.835	0.0457
844.0004	0.0707
844.1657	0.0197
844.3311	0.0041
844.4964	-0.0895
844.6617	0.0149
844.827	0.0014
844.9923	-0.0232
845.1575	-0.0127
845.3227	-0.0101
845.4879	0.0024
845.6531	0.0279
845.8183	0.0289
845.9834	-0.0241
846.1485	-0.0158
846.3136	-0.0011
846.4787	-0.0254
846.6438	0.0842
846.8088	-0.0329
846.9738	-0.0517
847.1388	0.019
847.3038	0.0018
847.4687	-0.1809
847.6337	0.041
847.7986	-0.0037
847.9635	-0.0678
848.1284	0.0524
848.2932	0.0761
848.458	-0.0048
848.6228	-0.0053
848.7876	0.0399
848.9524	-0.074
849.1172	-0.0853
849.2819	0.0116
849.4466	-0.0985
849.6113	-0.0697
849.7759	-0.0594
849.9406	-0.0247
850.1052	0.0461
850.2698	-0.0072
850.4344	0.0287
850.599	-0.0862
850.7635	0.1082
850.928	-0.016
851.0925	0.0406
851.257	0.095
851.4215	0.0364
851.5859	-0.0493
851.7503	0.0576
851.9147	0.0545
852.0791	-0.0043
852.2434	-0.0378
852.4078	0.1068
852.5721	0.0683
852.7364	-0.0622
852.9007	-0.0353
853.0649	0.0143
853.2291	-0.0285
853.3934	-0.0287
853.5575	-0.0312
853.7217	-0.1238
853.8859	-0.0193
854.05	0.0278
854.2141	0.0356
854.3782	-0.0843
854.5423	-0.0822
854.7063	0.213
854.8703	0.1245
855.0343	0.0198
855.1983	-0.1252
855.3623	0.0887
855.5262	0.0688
855.6901	0.168
855.854	0.0507
856.0179	0.0596
856.1818	0.1525
856.3456	-0.0769
856.5094	-0.023
856.6732	-0.0687
856.837	0.0894
857.0008	0.0674
857.1645	-0.0483
857.3282	-0.1101
857.4919	0.0966
857.6556	-0.0074
857.8192	-0.0312
857.9828	-0.0244
858.1465	0.0869
858.31	-0.1214
858.4736	-0.2003
858.6372	-0.311
858.8007	-0.1546
858.9642	-0.0344
859.1277	-0.0436
859.2911	0.4057
859.4546	-0.0218
859.618	-0.2149
859.7814	-0.0562
859.9448	0.2764
860.1081	0.1365
860.2715	0.2415
860.4348	-0.1776
860.5981	-0.0311
860.7614	0.2193
860.9246	-0.185
861.0879	-0.075
861.2511	0.0391
861.4143	0.0705
861.5774	0.146
861.7406	0.0705
861.9037	0.0513
862.0668	0.1513
862.2299	-0.2581
862.393	-0.4802
862.556	0.2683
862.7191	-0.178
862.8821	-0.121
863.0451	0.1204
863.208	0.1604
863.371	-0.0656
863.5339	-0.3914
863.6968	0.2825
863.8597	-0.1085
864.0225	0.0255
864.1854	-0.0654
864.3482	0.303
864.511	0.0619
864.6737	0.1217
864.8365	0.2084
864.9992	-0.2424
865.1619	-0
865.3246	-0.1225
865.4873	0.0159
865.65	0.2193
865.8126	0.0789
865.9752	0.1116
866.1378	-0
866.3004	0.7155
866.4629	0.3647
866.6254	0.2064
866.7879	-0.2085
866.9504	-0.1967
867.1129	-0
867.2753	-0.0194
867.4377	0.2647
867.6001	-0.4468
867.7625	0.3622
867.9249	0.31
868.0872	-0
868.2495	-0.005
868.4118	0.171
868.5741	-0.4062
868.7363	-0.2164
868.8986	-0.2592
869.0608	0.1459
869.223	0.0653
869.3851	0.2811
869.5473	-0
869.7094	0.2919
869.8715	-0
870.0336	-0.7782
870.1957	-0.3545
870.3577	-0
870.5197	0.2533
870.6817	-0.3371
870.8437	0.0737
871.0057	0.0669
871.1676	-0
871.3295	-0.2031
871.4914	-0.9592
871.6533	-0.3984
871.8151	-0.1893
871.977	-0.1637
872.1388	-0
872.3006	-0
872.4623	-0
872.6241	0.709
872.7858	0.2064
872.9475	-0
873.1092	-0.2622
873.2709	-0
873.4325	0.8472
873.5941	-0.5955
873.7557	-0.2626
873.9173	-0.8984
874.0789	-0.367
874.2404	-0
874.4019	-0.0253
874.5634	0.2326
874.7249	-0.3392
874.8863	-0.22
875.0478	0.9909
875.2092	-0
875.3706	0.6037
875.5319	-0
875.6933	-0.2435
875.8546	-0.2489
876.0159	-0
876.1772	0.1377
876.3385	-0
876.4997	0.4905
876.6609	0.1585
876.8221	0.0805
876.9833	-0
877.1445	-0
877.3056	0.0131
877.4667	-0
877.6278	-0.3822
877.7889	-0.6713
877.9499	-0
878.111	-0
878.272	-0.8159
878.433	0.4731
878.5939	-0
878.7549	-0.0649
878.9158	-0.4007
879.0767	-0
879.2376	-0
879.3984	0.3257
879.5593	-0
879.7201	0.4122
879.8809	-0
880.0417	-0.4626
880.2024	-0.0102
880.3632	-0.3632
880.5239	0.7985
880.6846	0.1357
880.8452	-2.2095
881.0059	-0
881.1665	-0.2091
881.3271	-0.241
881.4877	-0
881.6483	-0.5337
881.8088	-0.0168
881.9693	-0
882.1298	-0
882.2903	-0
