Data from MonoPyChalIsomerACN10uM380nmA_Absorbance_13-38-30-549.txt Node
Date: Fri Jul 05 13:38:30 BST 2024
User: LASERRRRR
Spectrometer: FLMT03099
Trigger mode: 0
Integration Time (sec): 1.000000E-1
Scans to average: 1
Electric dark correction enabled: true
Nonlinearity correction enabled: false
Boxcar width: 0
XAxis mode: Wavelengths
Number of Pixels in Spectrum: 3648
>>>>>Begin Spectral Data<<<<<
179.3399	-0.1695
179.5586	-0.1695
179.7771	-0.1695
179.9957	0.129
180.2143	0.6077
180.4329	-0.1654
180.6514	0.8379
180.8699	-0
181.0885	0.0407
181.307	0.142
181.5255	-0
181.744	-0
181.9625	-0
182.181	-0.6103
182.3994	-0
182.6179	-0
182.8363	-0.0408
183.0547	0.2137
183.2732	-0.0892
183.4916	0.0104
183.71	0.0645
183.9284	0.2385
184.1467	0.0241
184.3651	-0.0262
184.5835	0.0061
184.8018	-0.1261
185.0201	0.2192
185.2385	0.0988
185.4568	0.294
185.6751	0.0446
185.8934	0.231
186.1117	0.0746
186.3299	0.0354
186.5482	0.0439
186.7664	-0.1002
186.9847	-0.0816
187.2029	0.0386
187.4211	0.0734
187.6393	0.1165
187.8575	-0.0379
188.0757	0.3715
188.2939	0.0286
188.512	0.3387
188.7302	0.0933
188.9483	0.0945
189.1665	0.2399
189.3846	0.1945
189.6027	0.1427
189.8208	0.1717
190.0389	0.1251
190.257	0.1086
190.475	0.0462
190.6931	0.3092
190.9111	0.6472
191.1292	0.2604
191.3472	0.3893
191.5652	0.2221
191.7832	0.2618
192.0012	0.367
192.2192	0.2883
192.4371	0.4675
192.6551	0.3456
192.873	0.4931
193.091	0.3497
193.3089	0.5166
193.5268	0.3661
193.7447	0.478
193.9626	0.5471
194.1805	0.562
194.3984	0.659
194.6162	0.4418
194.8341	0.6067
195.0519	0.6282
195.2697	0.7695
195.4875	0.6042
195.7054	0.8148
195.9231	0.5453
196.1409	0.7238
196.3587	0.741
196.5765	0.6328
196.7942	0.6193
197.012	0.7382
197.2297	0.7317
197.4474	1.1092
197.6651	0.6882
197.8828	0.6914
198.1005	0.7368
198.3182	0.7537
198.5358	0.838
198.7535	0.6859
198.9711	0.6381
199.1888	0.7404
199.4064	1.1156
199.624	0.7164
199.8416	0.7278
200.0592	0.9468
200.2767	0.7603
200.4943	0.9054
200.7119	0.9631
200.9294	0.9903
201.1469	0.7858
201.3645	0.8113
201.582	0.7323
201.7995	0.8075
202.017	0.8409
202.2344	0.686
202.4519	0.8057
202.6694	0.7706
202.8868	0.8584
203.1042	1.1278
203.3217	0.8363
203.5391	0.8709
203.7565	0.6985
203.9739	0.7064
204.1913	0.6942
204.4086	0.9196
204.626	1.0409
204.8433	0.8718
205.0607	0.6864
205.278	0.8298
205.4953	0.7307
205.7126	0.92
205.9299	0.9667
206.1472	0.9545
206.3644	0.7391
206.5817	0.8499
206.7989	0.8288
207.0162	0.7406
207.2334	0.9342
207.4506	0.7502
207.6678	0.841
207.885	0.871
208.1022	0.8741
208.3194	0.809
208.5365	0.7457
208.7537	0.7556
208.9708	0.6851
209.1879	0.8338
209.405	0.7733
209.6222	0.8285
209.8392	0.8001
210.0563	0.8065
210.2734	0.8829
210.4905	0.84
210.7075	0.8445
210.9245	0.7131
211.1416	0.8344
211.3586	0.749
211.5756	0.7349
211.7926	0.7705
212.0096	0.8079
212.2265	0.8184
212.4435	0.7695
212.6604	0.8915
212.8774	0.7604
213.0943	0.7596
213.3112	0.7648
213.5281	0.7869
213.745	0.7257
213.9619	0.7076
214.1788	0.7586
214.3956	0.7003
214.6125	0.6812
214.8293	0.6242
215.0461	0.7064
215.2629	0.6737
215.4798	0.7387
215.6965	0.6533
215.9133	0.7098
216.1301	0.6158
216.3469	0.648
216.5636	0.6452
216.7803	0.6298
216.9971	0.6369
217.2138	0.6263
217.4305	0.6503
217.6472	0.5727
217.8639	0.6088
218.0805	0.6076
218.2972	0.5843
218.5138	0.5258
218.7305	0.5749
218.9471	0.5725
219.1637	0.5464
219.3803	0.5119
219.5969	0.5254
219.8135	0.5539
220.0301	0.5556
220.2466	0.5634
220.4632	0.5328
220.6797	0.5288
220.8962	0.5016
221.1127	0.5286
221.3292	0.6036
221.5457	0.5073
221.7622	0.5236
221.9787	0.5539
222.1951	0.4912
222.4116	0.5294
222.628	0.5375
222.8444	0.533
223.0608	0.5266
223.2772	0.5524
223.4936	0.5612
223.71	0.5059
223.9264	0.5818
224.1427	0.5226
224.3591	0.5212
224.5754	0.5422
224.7917	0.5456
225.008	0.5587
225.2243	0.5107
225.4406	0.5473
225.6569	0.5254
225.8732	0.4971
226.0894	0.5252
226.3057	0.5426
226.5219	0.5462
226.7381	0.535
226.9543	0.5277
227.1705	0.5642
227.3867	0.5136
227.6029	0.5164
227.8191	0.5559
228.0352	0.5553
228.2513	0.5476
228.4675	0.5627
228.6836	0.5514
228.8997	0.5193
229.1158	0.5625
229.3319	0.567
229.548	0.5705
229.764	0.5848
229.9801	0.5557
230.1961	0.5557
230.4121	0.5573
230.6282	0.5475
230.8442	0.5528
231.0602	0.5686
231.2761	0.5821
231.4921	0.5595
231.7081	0.5585
231.924	0.542
232.14	0.5658
232.3559	0.541
232.5718	0.5807
232.7877	0.554
233.0036	0.5454
233.2195	0.5584
233.4353	0.5446
233.6512	0.5405
233.867	0.5705
234.0829	0.5538
234.2987	0.5471
234.5145	0.5703
234.7303	0.5574
234.9461	0.5677
235.1619	0.5572
235.3776	0.547
235.5934	0.5454
235.8091	0.5175
236.0249	0.5267
236.2406	0.5314
236.4563	0.5261
236.672	0.5619
236.8877	0.5399
237.1034	0.546
237.319	0.5308
237.5347	0.545
237.7503	0.532
237.966	0.5423
238.1816	0.5478
238.3972	0.5419
238.6128	0.5225
238.8284	0.537
239.0439	0.5273
239.2595	0.5246
239.475	0.5311
239.6906	0.5277
239.9061	0.522
240.1216	0.5143
240.3371	0.5285
240.5526	0.4991
240.7681	0.5327
240.9836	0.4738
241.199	0.4923
241.4145	0.4963
241.6299	0.4956
241.8453	0.4913
242.0607	0.4854
242.2761	0.4429
242.4915	0.4666
242.7069	0.4762
242.9223	0.4307
243.1376	0.4354
243.353	0.432
243.5683	0.4306
243.7836	0.4041
243.9989	0.4034
244.2142	0.3947
244.4295	0.4003
244.6448	0.3752
244.86	0.3675
245.0753	0.3645
245.2905	0.3529
245.5057	0.3543
245.721	0.3593
245.9362	0.3268
246.1514	0.3465
246.3665	0.3248
246.5817	0.3162
246.7969	0.3202
247.012	0.3182
247.2271	0.3015
247.4423	0.3126
247.6574	0.3045
247.8725	0.2874
248.0876	0.2762
248.3026	0.2845
248.5177	0.2762
248.7328	0.2733
248.9478	0.2546
249.1628	0.265
249.3779	0.261
249.5929	0.259
249.8079	0.2532
250.0228	0.2505
250.2378	0.2492
250.4528	0.2495
250.6677	0.2346
250.8827	0.2375
251.0976	0.2299
251.3125	0.2381
251.5274	0.2192
251.7423	0.211
251.9572	0.2373
252.172	0.2166
252.3869	0.2211
252.6017	0.2103
252.8166	0.1952
253.0314	0.2011
253.2462	0.1989
253.461	0.2146
253.6758	0.1952
253.8906	0.2032
254.1053	0.2044
254.3201	0.2077
254.5348	0.202
254.7496	0.211
254.9643	0.1936
255.179	0.1905
255.3937	0.1905
255.6083	0.1973
255.823	0.192
256.0377	0.1839
256.2523	0.1891
256.467	0.1814
256.6816	0.1956
256.8962	0.1991
257.1108	0.1773
257.3254	0.1989
257.54	0.1891
257.7545	0.1913
257.9691	0.2048
258.1836	0.1894
258.3981	0.1997
258.6127	0.2001
258.8272	0.1869
259.0417	0.1865
259.2561	0.1806
259.4706	0.1728
259.6851	0.1828
259.8995	0.1849
260.114	0.1755
260.3284	0.1777
260.5428	0.1828
260.7572	0.1928
260.9716	0.1969
261.186	0.1871
261.4003	0.1881
261.6147	0.1915
261.829	0.1889
262.0433	0.1868
262.2577	0.1778
262.472	0.1885
262.6863	0.1874
262.9005	0.1966
263.1148	0.1883
263.3291	0.1812
263.5433	0.1845
263.7576	0.1828
263.9718	0.184
264.186	0.1717
264.4002	0.1779
264.6144	0.1831
264.8286	0.1859
265.0427	0.1797
265.2569	0.1749
265.471	0.1819
265.6851	0.1808
265.8993	0.1689
266.1134	0.1692
266.3275	0.1691
266.5415	0.1671
266.7556	0.1934
266.9697	0.1768
267.1837	0.1859
267.3978	0.1831
267.6118	0.193
267.8258	0.1974
268.0398	0.1778
268.2538	0.1889
268.4677	0.1838
268.6817	0.1715
268.8957	0.1957
269.1096	0.1798
269.3235	0.1842
269.5374	0.1728
269.7514	0.1771
269.9652	0.1718
270.1791	0.1822
270.393	0.1763
270.6068	0.1791
270.8207	0.1637
271.0345	0.1682
271.2483	0.1798
271.4622	0.1664
271.676	0.1789
271.8897	0.1602
272.1035	0.161
272.3173	0.1629
272.531	0.1617
272.7448	0.1585
272.9585	0.1634
273.1722	0.1723
273.3859	0.1668
273.5996	0.1612
273.8133	0.1715
274.0269	0.1596
274.2406	0.1627
274.4542	0.1633
274.6679	0.1612
274.8815	0.1634
275.0951	0.1722
275.3087	0.1759
275.5223	0.1631
275.7358	0.1814
275.9494	0.1644
276.1629	0.1571
276.3765	0.1586
276.59	0.1609
276.8035	0.1712
277.017	0.163
277.2305	0.1641
277.444	0.1691
277.6574	0.1596
277.8709	0.1754
278.0843	0.1565
278.2978	0.1631
278.5112	0.1659
278.7246	0.1706
278.938	0.1599
279.1513	0.168
279.3647	0.1831
279.5781	0.1657
279.7914	0.1578
280.0047	0.1751
280.2181	0.171
280.4314	0.1757
280.6447	0.1761
280.8579	0.1834
281.0712	0.1713
281.2845	0.1787
281.4977	0.164
281.711	0.1564
281.9242	0.1703
282.1374	0.1761
282.3506	0.1672
282.5638	0.1838
282.7769	0.1775
282.9901	0.1723
283.2033	0.1865
283.4164	0.1828
283.6295	0.1643
283.8426	0.1606
284.0557	0.1634
284.2688	0.1782
284.4819	0.171
284.695	0.1717
284.908	0.1886
285.1211	0.1795
285.3341	0.1715
285.5471	0.1719
285.7601	0.1766
285.9731	0.1708
286.1861	0.17
286.3991	0.1858
286.612	0.179
286.825	0.1786
287.0379	0.1776
287.2508	0.1842
287.4637	0.1924
287.6766	0.1872
287.8895	0.169
288.1024	0.1896
288.3152	0.1772
288.5281	0.1768
288.7409	0.1849
288.9538	0.1813
289.1666	0.1956
289.3794	0.1865
289.5922	0.1688
289.8049	0.1776
290.0177	0.1753
290.2304	0.1845
290.4432	0.1823
290.6559	0.1663
290.8686	0.1793
291.0813	0.1839
291.294	0.1844
291.5067	0.1846
291.7194	0.1796
291.932	0.1859
292.1447	0.1867
292.3573	0.1684
292.5699	0.1777
292.7825	0.1669
292.9951	0.182
293.2077	0.1882
293.4203	0.1759
293.6328	0.169
293.8454	0.1849
294.0579	0.1718
294.2704	0.1763
294.4829	0.1741
294.6954	0.1819
294.9079	0.1761
295.1204	0.1922
295.3328	0.175
295.5453	0.1818
295.7577	0.1846
295.9701	0.1694
296.1825	0.173
296.3949	0.1708
296.6073	0.1702
296.8197	0.1651
297.0321	0.1811
297.2444	0.1689
297.4567	0.1737
297.6691	0.1806
297.8814	0.173
298.0937	0.1664
298.306	0.1698
298.5182	0.1736
298.7305	0.181
298.9428	0.1616
299.155	0.1817
299.3672	0.1714
299.5794	0.1721
299.7916	0.1744
300.0038	0.1725
300.216	0.1729
300.4282	0.1699
300.6403	0.1598
300.8525	0.1665
301.0646	0.1616
301.2767	0.1722
301.4888	0.1685
301.7009	0.1661
301.913	0.1656
302.125	0.1711
302.3371	0.1691
302.5491	0.1662
302.7612	0.1692
302.9732	0.1727
303.1852	0.168
303.3972	0.1732
303.6092	0.1528
303.8211	0.1718
304.0331	0.1592
304.245	0.147
304.457	0.1555
304.6689	0.1597
304.8808	0.1707
305.0927	0.1612
305.3046	0.1607
305.5164	0.1625
305.7283	0.1531
305.9401	0.1464
306.152	0.1482
306.3638	0.1571
306.5756	0.1572
306.7874	0.1502
306.9992	0.1593
307.2109	0.1519
307.4227	0.1341
307.6344	0.1502
307.8462	0.1372
308.0579	0.1463
308.2696	0.1389
308.4813	0.1433
308.693	0.1368
308.9046	0.1446
309.1163	0.1375
309.328	0.1313
309.5396	0.136
309.7512	0.1248
309.9628	0.1222
310.1744	0.1247
310.386	0.1161
310.5976	0.1206
310.8091	0.1154
311.0207	0.119
311.2322	0.1308
311.4437	0.1206
311.6552	0.1097
311.8667	0.1159
312.0782	0.1088
312.2897	0.1185
312.5012	0.1206
312.7126	0.1032
312.924	0.1023
313.1355	0.121
313.3469	0.1101
313.5583	0.1189
313.7696	0.1085
313.981	0.1084
314.1924	0.1035
314.4037	0.0983
314.6151	0.1192
314.8264	0.0989
315.0377	0.108
315.249	0.1155
315.4603	0.1117
315.6716	0.1076
315.8828	0.0938
316.0941	0.1045
316.3053	0.1022
316.5165	0.1019
316.7277	0.095
316.9389	0.1057
317.1501	0.111
317.3613	0.0961
317.5724	0.0915
317.7836	0.1021
317.9947	0.0948
318.2058	0.0983
318.417	0.0931
318.6281	0.0921
318.8391	0.0905
319.0502	0.092
319.2613	0.1047
319.4723	0.1032
319.6834	0.1077
319.8944	0.0974
320.1054	0.1052
320.3164	0.0992
320.5274	0.1078
320.7383	0.0955
320.9493	0.1084
321.1602	0.1068
321.3712	0.0955
321.5821	0.0986
321.793	0.1144
322.0039	0.0933
322.2148	0.0969
322.4257	0.1067
322.6365	0.1044
322.8474	0.1089
323.0582	0.1047
323.269	0.1125
323.4798	0.113
323.6906	0.1087
323.9014	0.1144
324.1122	0.106
324.3229	0.1006
324.5337	0.101
324.7444	0.1027
324.9551	0.1162
325.1658	0.101
325.3765	0.1074
325.5872	0.1053
325.7979	0.091
326.0085	0.0944
326.2192	0.1052
326.4298	0.1195
326.6404	0.0936
326.851	0.1018
327.0616	0.1028
327.2722	0.0929
327.4828	0.1058
327.6933	0.0965
327.9039	0.114
328.1144	0.109
328.3249	0.1043
328.5354	0.0975
328.7459	0.1058
328.9564	0.0998
329.1669	0.1152
329.3773	0.1079
329.5878	0.1071
329.7982	0.1142
330.0086	0.1021
330.219	0.1071
330.4294	0.1081
330.6398	0.0994
330.8502	0.1045
331.0605	0.1016
331.2708	0.1128
331.4812	0.1181
331.6915	0.109
331.9018	0.118
332.1121	0.1012
332.3224	0.1032
332.5326	0.1162
332.7429	0.1085
332.9531	0.1186
333.1633	0.1111
333.3735	0.1017
333.5837	0.1024
333.7939	0.1028
334.0041	0.1118
334.2143	0.1158
334.4244	0.1088
334.6346	0.1087
334.8447	0.12
335.0548	0.1016
335.2649	0.0933
335.475	0.1099
335.685	0.1061
335.8951	0.1076
336.1051	0.1129
336.3152	0.1207
336.5252	0.1158
336.7352	0.1148
336.9452	0.1184
337.1552	0.1102
337.3652	0.1059
337.5751	0.1093
337.7851	0.1113
337.995	0.0952
338.2049	0.1172
338.4148	0.1032
338.6247	0.1109
338.8346	0.1083
339.0445	0.1091
339.2543	0.1137
339.4642	0.1191
339.674	0.1091
339.8838	0.1231
340.0936	0.1219
340.3034	0.1221
340.5132	0.129
340.7229	0.1163
340.9327	0.1244
341.1424	0.1232
341.3522	0.1222
341.5619	0.1116
341.7716	0.1223
341.9813	0.1204
342.1909	0.1134
342.4006	0.1182
342.6102	0.1245
342.8199	0.1229
343.0295	0.1318
343.2391	0.1231
343.4487	0.1277
343.6583	0.1196
343.8679	0.117
344.0774	0.1237
344.287	0.1326
344.4965	0.1274
344.706	0.1178
344.9155	0.1219
345.125	0.1259
345.3345	0.1311
345.544	0.1101
345.7534	0.1249
345.9629	0.1252
346.1723	0.1296
346.3817	0.1169
346.5911	0.1252
346.8005	0.1344
347.0099	0.1211
347.2193	0.128
347.4286	0.1239
347.638	0.1272
347.8473	0.1371
348.0566	0.1289
348.2659	0.1309
348.4752	0.1296
348.6845	0.1319
348.8937	0.1269
349.103	0.1483
349.3122	0.1251
349.5214	0.1413
349.7306	0.1342
349.9398	0.1441
350.149	0.1447
350.3582	0.1318
350.5674	0.1539
350.7765	0.1304
350.9856	0.1358
351.1948	0.1401
351.4039	0.1234
351.613	0.1305
351.822	0.1406
352.0311	0.1491
352.2402	0.1393
352.4492	0.1507
352.6582	0.1363
352.8672	0.1418
353.0762	0.1535
353.2852	0.1577
353.4942	0.1466
353.7032	0.1566
353.9121	0.1423
354.1211	0.1607
354.33	0.1494
354.5389	0.1473
354.7478	0.1575
354.9567	0.1618
355.1655	0.134
355.3744	0.1515
355.5833	0.148
355.7921	0.1609
356.0009	0.1546
356.2097	0.1737
356.4185	0.1721
356.6273	0.1587
356.8361	0.1757
357.0448	0.1546
357.2536	0.1422
357.4623	0.1482
357.671	0.1573
357.8797	0.1703
358.0884	0.1567
358.2971	0.1598
358.5057	0.1644
358.7144	0.1681
358.923	0.1672
359.1316	0.1675
359.3402	0.1648
359.5488	0.1763
359.7574	0.1692
359.966	0.1684
360.1746	0.1861
360.3831	0.1773
360.5916	0.1706
360.8002	0.1626
361.0087	0.1721
361.2172	0.1697
361.4256	0.1673
361.6341	0.1882
361.8426	0.1765
362.051	0.1819
362.2594	0.1802
362.4678	0.1795
362.6762	0.1932
362.8846	0.1966
363.093	0.1748
363.3014	0.1835
363.5097	0.1756
363.718	0.1867
363.9264	0.1937
364.1347	0.1773
364.343	0.1908
364.5513	0.1974
364.7595	0.1918
364.9678	0.2047
365.176	0.1857
365.3842	0.1904
365.5925	0.188
365.8007	0.1854
366.0089	0.1989
366.217	0.1863
366.4252	0.2233
366.6333	0.2233
366.8415	0.2014
367.0496	0.195
367.2577	0.2044
367.4658	0.2151
367.6739	0.2115
367.882	0.2143
368.09	0.1836
368.2981	0.2113
368.5061	0.1874
368.7141	0.2032
368.9221	0.2095
369.1301	0.207
369.3381	0.2063
369.5461	0.1972
369.754	0.2041
369.962	0.2061
370.1699	0.217
370.3778	0.2133
370.5857	0.2055
370.7936	0.2157
371.0015	0.2212
371.2093	0.2276
371.4172	0.2191
371.625	0.2043
371.8328	0.2044
372.0406	0.2044
372.2484	0.2107
372.4562	0.218
372.664	0.2159
372.8717	0.2254
373.0795	0.2093
373.2872	0.2152
373.4949	0.2187
373.7026	0.232
373.9103	0.2371
374.118	0.231
374.3256	0.2404
374.5333	0.2195
374.7409	0.2179
374.9485	0.2459
375.1561	0.2421
375.3637	0.2255
375.5713	0.2285
375.7789	0.2233
375.9864	0.2287
376.194	0.2369
376.4015	0.2369
376.609	0.2396
376.8165	0.251
377.024	0.2196
377.2315	0.2257
377.4389	0.233
377.6464	0.2425
377.8538	0.2433
378.0612	0.2296
378.2686	0.2348
378.476	0.2571
378.6834	0.2406
378.8908	0.2393
379.0981	0.2551
379.3055	0.2382
379.5128	0.2364
379.7201	0.243
379.9274	0.2411
380.1347	0.2405
380.342	0.265
380.5492	0.2396
380.7565	0.2426
380.9637	0.2598
381.1709	0.2345
381.3781	0.2361
381.5853	0.2609
381.7925	0.2741
381.9997	0.2346
382.2068	0.2645
382.4139	0.2356
382.6211	0.2411
382.8282	0.2439
383.0353	0.2519
383.2424	0.2471
383.4494	0.2609
383.6565	0.2372
383.8635	0.2532
384.0706	0.2664
384.2776	0.2657
384.4846	0.261
384.6916	0.2536
384.8986	0.2612
385.1055	0.2573
385.3125	0.2447
385.5194	0.2334
385.7263	0.2451
385.9333	0.2359
386.1402	0.2448
386.347	0.2589
386.5539	0.2453
386.7608	0.2547
386.9676	0.2251
387.1744	0.2511
387.3813	0.2384
387.5881	0.2591
387.7948	0.2457
388.0016	0.2548
388.2084	0.2296
388.4151	0.2417
388.6219	0.2399
388.8286	0.2381
389.0353	0.2702
389.242	0.2617
389.4487	0.2502
389.6553	0.2316
389.862	0.2254
390.0686	0.2422
390.2753	0.2512
390.4819	0.2463
390.6885	0.2368
390.8951	0.2498
391.1016	0.2201
391.3082	0.2284
391.5147	0.2505
391.7213	0.2401
391.9278	0.2179
392.1343	0.2417
392.3408	0.2355
392.5473	0.2369
392.7537	0.2345
392.9602	0.214
393.1666	0.2262
393.373	0.2252
393.5794	0.2504
393.7858	0.2339
393.9922	0.1973
394.1986	0.2352
394.4049	0.2491
394.6113	0.2195
394.8176	0.2075
395.0239	0.2246
395.2302	0.2088
395.4365	0.2193
395.6428	0.2228
395.8491	0.2294
396.0553	0.2214
396.2615	0.2009
396.4678	0.2242
396.674	0.1841
396.8802	0.2229
397.0863	0.2345
397.2925	0.2045
397.4987	0.1933
397.7048	0.2191
397.9109	0.2094
398.117	0.1974
398.3231	0.1884
398.5292	0.2177
398.7353	0.2246
398.9413	0.2035
399.1474	0.2054
399.3534	0.2124
399.5594	0.1885
399.7654	0.2187
399.9714	0.2353
400.1774	0.2034
400.3833	0.2021
400.5893	0.2105
400.7952	0.2134
401.0011	0.2101
401.207	0.22
401.4129	0.1998
401.6188	0.1955
401.8247	0.1941
402.0305	0.1905
402.2364	0.2105
402.4422	0.2177
402.648	0.2203
402.8538	0.2212
403.0596	0.2182
403.2654	0.2108
403.4711	0.2037
403.6768	0.2194
403.8826	0.2168
404.0883	0.2187
404.294	0.2058
404.4997	0.2165
404.7054	0.2195
404.911	0.2057
405.1167	0.224
405.3223	0.2332
405.5279	0.2227
405.7335	0.2064
405.9391	0.2184
406.1447	0.2008
406.3502	0.2451
406.5558	0.196
406.7613	0.2158
406.9668	0.2143
407.1724	0.2014
407.3778	0.2008
407.5833	0.2079
407.7888	0.2098
407.9942	0.2201
408.1997	0.206
408.4051	0.2131
408.6105	0.2098
408.8159	0.209
409.0213	0.1983
409.2267	0.2199
409.432	0.2053
409.6374	0.2144
409.8427	0.2134
410.048	0.2117
410.2533	0.2127
410.4586	0.2071
410.6639	0.1867
410.8691	0.2273
411.0744	0.219
411.2796	0.2004
411.4848	0.1956
411.69	0.1933
411.8952	0.2109
412.1004	0.1936
412.3056	0.2207
412.5107	0.2074
412.7158	0.2301
412.921	0.1986
413.1261	0.196
413.3312	0.2241
413.5362	0.1873
413.7413	0.1898
413.9464	0.1897
414.1514	0.2184
414.3564	0.2058
414.5614	0.183
414.7664	0.2201
414.9714	0.2103
415.1764	0.2277
415.3813	0.2203
415.5863	0.1916
415.7912	0.2113
415.9961	0.209
416.201	0.1994
416.4059	0.2041
416.6108	0.1959
416.8156	0.2036
417.0205	0.2031
417.2253	0.1966
417.4301	0.1958
417.6349	0.1949
417.8397	0.1972
418.0445	0.2027
418.2492	0.1946
418.454	0.1771
418.6587	0.1831
418.8634	0.2138
419.0681	0.1705
419.2728	0.2093
419.4775	0.1917
419.6822	0.1937
419.8868	0.1752
420.0915	0.2016
420.2961	0.1714
420.5007	0.206
420.7053	0.1859
420.9099	0.1911
421.1144	0.1799
421.319	0.182
421.5235	0.1947
421.728	0.1797
421.9325	0.1924
422.137	0.2101
422.3415	0.1932
422.546	0.1908
422.7504	0.1714
422.9549	0.1944
423.1593	0.181
423.3637	0.2009
423.5681	0.1871
423.7725	0.1762
423.9769	0.1703
424.1812	0.1729
424.3856	0.1938
424.5899	0.1787
424.7942	0.1616
424.9985	0.1624
425.2028	0.1522
425.4071	0.1849
425.6113	0.1717
425.8156	0.1877
426.0198	0.1858
426.224	0.1674
426.4282	0.1631
426.6324	0.1447
426.8366	0.1713
427.0407	0.1607
427.2449	0.1633
427.449	0.152
427.6531	0.1479
427.8572	0.1496
428.0613	0.1581
428.2654	0.1615
428.4694	0.1539
428.6735	0.1506
428.8775	0.1673
429.0815	0.1595
429.2855	0.1428
429.4895	0.1516
429.6935	0.1652
429.8975	0.1399
430.1014	0.1389
430.3053	0.1325
430.5093	0.155
430.7132	0.1292
430.9171	0.1331
431.1209	0.1473
431.3248	0.1419
431.5286	0.1568
431.7325	0.1514
431.9363	0.1445
432.1401	0.1402
432.3439	0.1399
432.5477	0.115
432.7514	0.131
432.9552	0.1302
433.1589	0.1215
433.3627	0.1153
433.5664	0.1202
433.7701	0.1005
433.9737	0.1225
434.1774	0.1153
434.3811	0.105
434.5847	0.1131
434.7883	0.1131
434.9919	0.1184
435.1955	0.1109
435.3991	0.1166
435.6027	0.122
435.8062	0.104
436.0098	0.0994
436.2133	0.1042
436.4168	0.094
436.6203	0.0968
436.8238	0.0993
437.0272	0.1016
437.2307	0.086
437.4341	0.1024
437.6375	0.0998
437.841	0.0735
438.0443	0.0793
438.2477	0.0909
438.4511	0.083
438.6545	0.0892
438.8578	0.0936
439.0611	0.0801
439.2644	0.086
439.4677	0.0836
439.671	0.0912
439.8743	0.0962
440.0775	0.0925
440.2808	0.0721
440.484	0.0671
440.6872	0.0615
440.8904	0.0794
441.0936	0.0758
441.2967	0.0723
441.4999	0.0742
441.703	0.0798
441.9062	0.0587
442.1093	0.0598
442.3124	0.068
442.5155	0.0556
442.7185	0.0677
442.9216	0.0462
443.1246	0.0746
443.3276	0.0563
443.5307	0.0566
443.7337	0.0594
443.9366	0.0622
444.1396	0.0557
444.3426	0.0531
444.5455	0.0484
444.7484	0.0509
444.9513	0.0469
445.1542	0.063
445.3571	0.0417
445.56	0.0442
445.7628	0.045
445.9657	0.0417
446.1685	0.0553
446.3713	0.0446
446.5741	0.0445
446.7769	0.037
446.9797	0.0425
447.1824	0.0393
447.3852	0.0257
447.5879	0.0414
447.7906	0.0366
447.9933	0.033
448.196	0.0292
448.3986	0.0323
448.6013	0.0393
448.8039	0.0215
449.0066	0.023
449.2092	0.0349
449.4118	0.0411
449.6143	0.0357
449.8169	0.0488
450.0195	0.0146
450.222	0.0166
450.4245	0.0205
450.627	0.0385
450.8295	0.032
451.032	0.0158
451.2345	0.0234
451.4369	0.0252
451.6394	0.0186
451.8418	0.003
452.0442	0.0251
452.2466	0.0262
452.449	0.001
452.6513	0.0192
452.8537	0.0142
453.056	0.0014
453.2583	0.0221
453.4607	0.0153
453.663	0.0126
453.8652	0.0267
454.0675	0.0136
454.2697	0.0078
454.472	0.0051
454.6742	0.0136
454.8764	0.0197
455.0786	0.0242
455.2808	0.015
455.4829	0.0131
455.6851	0.0206
455.8872	0.0131
456.0893	0.0312
456.2915	0.0066
456.4935	0.0204
456.6956	0.0056
456.8977	0.025
457.0997	0.0088
457.3018	-0.0159
457.5038	0.0104
457.7058	0.0028
457.9078	-0.0079
458.1098	0.0212
458.3117	-0.0014
458.5137	0.006
458.7156	0.0104
458.9175	-0.0062
459.1194	0.0095
459.3213	-0.0042
459.5232	0.0167
459.725	0.0001
459.9269	0.0015
460.1287	-0.0164
460.3305	0.0002
460.5323	0.009
460.7341	0.0016
460.9359	0.0143
461.1376	0.0092
461.3394	-0.0095
461.5411	0.0053
461.7428	-0.0066
461.9445	0.007
462.1462	0.0072
462.3479	-0.0033
462.5495	0.0121
462.7512	0.0104
462.9528	-0.0132
463.1544	-0.0017
463.356	-0.009
463.5576	0.0042
463.7592	-0.0089
463.9607	0.0045
464.1623	0.0102
464.3638	0.0124
464.5653	-0.0001
464.7668	-0.0015
464.9683	0.0161
465.1697	0.0196
465.3712	-0.0094
465.5726	-0.0074
465.7741	-0.0031
465.9755	-0.0074
466.1769	-0.0015
466.3782	-0.0017
466.5796	-0.0075
466.7809	0.0117
466.9823	-0.0128
467.1836	-0.0074
467.3849	0.0005
467.5862	-0.0017
467.7875	0.0009
467.9887	0.0186
468.19	-0.0115
468.3912	-0.0019
468.5924	-0.0087
468.7936	-0.0047
468.9948	-0.0073
469.196	-0.0032
469.3972	-0.0169
469.5983	0.0052
469.7994	-0.0126
470.0006	0.0009
470.2017	-0.0174
470.4027	-0.0152
470.6038	0.0009
470.8049	-0.0214
471.0059	-0.0222
471.2069	-0.0307
471.408	-0.0045
471.6089	-0.005
471.8099	-0.0045
472.0109	-0.0085
472.2119	-0.0155
472.4128	-0.0335
472.6137	0.0011
472.8146	-0.0213
473.0155	-0.0074
473.2164	-0.0087
473.4173	-0.0065
473.6181	0.0033
473.819	-0.0067
474.0198	-0.0071
474.2206	-0.0112
474.4214	-0.0097
474.6222	-0.0067
474.8229	-0.0106
475.0237	-0.0127
475.2244	-0.0104
475.4251	-0.0057
475.6258	-0.0074
475.8265	-0.0197
476.0272	0.0026
476.2278	-0.0055
476.4285	0.0061
476.6291	-0.0178
476.8297	-0.0163
477.0303	-0.0151
477.2309	-0.0023
477.4315	-0.0139
477.632	-0.0082
477.8326	-0.006
478.0331	-0.0152
478.2336	0.0004
478.4341	-0.0123
478.6346	-0.005
478.8351	-0.0131
479.0355	-0.0065
479.236	-0.0067
479.4364	-0.0019
479.6368	0.0033
479.8372	-0.0177
480.0376	-0.0122
480.2379	-0.028
480.4383	-0.0178
480.6386	0.0012
480.8389	-0.0058
481.0392	-0.0125
481.2395	-0.0054
481.4398	-0.0038
481.6401	-0.0043
481.8403	-0.0146
482.0405	-0.0073
482.2408	-0.0063
482.441	-0.002
482.6411	-0.0008
482.8413	-0.0053
483.0415	-0.0172
483.2416	-0.0103
483.4417	-0.0042
483.6419	-0.0028
483.8419	-0.0071
484.042	0.0023
484.2421	-0.0036
484.4422	-0.0146
484.6422	-0.0074
484.8422	0.0052
485.0422	-0.0113
485.2422	0.0027
485.4422	-0.0133
485.6422	-0.0224
485.8421	0.0026
486.042	-0.0016
486.242	-0.0018
486.4419	-0.0168
486.6417	-0.0069
486.8416	-0.0019
487.0415	-0.0116
487.2413	-0.0156
487.4411	-0.0088
487.641	-0.0143
487.8408	0.001
488.0405	-0.008
488.2403	-0.0173
488.4401	-0.0025
488.6398	-0.0098
488.8395	-0.018
489.0392	0.0022
489.2389	-0.0147
489.4386	-0.0105
489.6383	-0.0002
489.8379	-0.001
490.0376	-0.0179
490.2372	-0.0148
490.4368	-0.0205
490.6364	-0.0216
490.836	-0.0128
491.0355	-0.0079
491.2351	-0.0121
491.4346	-0.0153
491.6341	-0.0103
491.8336	-0.0106
492.0331	-0.0222
492.2326	-0.0192
492.432	-0.0066
492.6315	-0.0131
492.8309	-0.0154
493.0303	-0.0186
493.2297	-0.0123
493.4291	-0.0125
493.6284	-0.003
493.8278	-0.0028
494.0271	0.0048
494.2264	-0.0085
494.4257	-0.0229
494.625	0.004
494.8243	-0.0156
495.0236	-0.0101
495.2228	-0.0184
495.422	-0.0019
495.6213	-0.007
495.8205	-0.0064
496.0196	-0.0063
496.2188	-0.0006
496.418	-0.0139
496.6171	-0.0138
496.8162	-0.0177
497.0153	-0.0005
497.2144	-0.0115
497.4135	-0.0032
497.6126	-0.0164
497.8116	-0.0086
498.0107	-0.0069
498.2097	-0.0199
498.4087	-0.022
498.6077	-0.0032
498.8067	-0.0106
499.0056	-0.0114
499.2046	-0.0114
499.4035	-0.0193
499.6024	-0.011
499.8013	-0.0067
500.0002	-0.0167
500.199	-0.0112
500.3979	-0.0101
500.5967	-0.0264
500.7956	-0.0023
500.9944	-0.0098
501.1932	-0.0111
501.3919	-0.0227
501.5907	-0.0186
501.7895	-0.0002
501.9882	-0.0193
502.1869	-0.0222
502.3856	-0.0129
502.5843	-0.0165
502.783	-0.0126
502.9816	-0.0096
503.1803	-0.0205
503.3789	-0.0237
503.5775	-0.0052
503.7761	-0.0125
503.9747	-0.0073
504.1732	-0.0179
504.3718	-0.0032
504.5703	-0.0124
504.7689	-0.0197
504.9674	-0.0133
505.1658	-0.0151
505.3643	-0.0182
505.5628	-0.0153
505.7612	-0.0059
505.9597	-0.0009
506.1581	-0.0098
506.3565	-0.0006
506.5549	-0.0121
506.7532	-0.0203
506.9516	-0.0057
507.1499	-0.0094
507.3482	-0.0149
507.5465	0.0009
507.7448	-0.0153
507.9431	0.0032
508.1414	-0.0097
508.3396	-0.0185
508.5379	-0.0114
508.7361	-0.0102
508.9343	-0.0108
509.1325	-0.0038
509.3306	-0.0136
509.5288	-0.0133
509.7269	-0.0166
509.9251	-0.0096
510.1232	-0.0179
510.3213	-0.0099
510.5193	-0.0031
510.7174	-0.0221
510.9154	-0.0163
511.1135	-0.0041
511.3115	-0.0135
511.5095	-0.0036
511.7075	-0.0176
511.9055	-0.0159
512.1034	-0.0183
512.3014	-0.0106
512.4993	-0.01
512.6972	-0.0213
512.8951	-0.0197
513.093	-0.0105
513.2908	-0.0074
513.4887	-0.0056
513.6865	-0.01
513.8844	-0.0226
514.0822	-0.0151
514.2799	-0.0138
514.4777	-0.0198
514.6755	-0.0127
514.8732	-0.0075
515.0709	-0.0123
515.2687	-0.0068
515.4664	-0.0087
515.664	-0.0032
515.8617	-0.0071
516.0594	-0.017
516.257	-0.0093
516.4546	-0.0176
516.6522	-0.0122
516.8498	-0.0093
517.0474	-0.0121
517.2449	-0.009
517.4425	-0.0185
517.64	-0.0105
517.8375	-0.009
518.035	0.0038
518.2325	-0.014
518.43	-0.0092
518.6274	-0.0177
518.8249	-0.0138
519.0223	-0.0087
519.2197	-0.0126
519.4171	-0.0141
519.6145	-0.0185
519.8118	0.001
520.0092	-0.0069
520.2065	-0.0106
520.4038	-0.0215
520.6011	-0.0097
520.7984	-0.0134
520.9956	-0.022
521.1929	-0.0198
521.3901	-0.0064
521.5874	-0.007
521.7846	-0.0063
521.9818	-0.0098
522.1789	-0.0131
522.3761	-0.0195
522.5732	-0.0233
522.7704	-0.0098
522.9675	-0.0134
523.1646	-0.0204
523.3617	-0.0113
523.5587	-0.0054
523.7558	-0.0033
523.9528	-0.0039
524.1498	-0.0124
524.3468	-0.0128
524.5438	-0.0144
524.7408	-0.0014
524.9378	-0.0106
525.1347	-0.0096
525.3316	-0.0049
525.5285	-0.0147
525.7254	-0.0123
525.9223	-0.0044
526.1192	-0.0125
526.316	-0.0082
526.5129	-0.0072
526.7097	-0.0055
526.9065	-0.0103
527.1033	-0.0185
527.3	-0.009
527.4968	-0.0148
527.6935	-0.0102
527.8903	-0.0242
528.087	-0.0004
528.2837	-0.0161
528.4804	-0.0038
528.677	-0.0173
528.8737	-0.0036
529.0703	-0.0012
529.2669	-0.0043
529.4635	-0.0071
529.6601	-0.0041
529.8567	-0.0014
530.0532	-0.0183
530.2498	-0.0016
530.4463	-0.0032
530.6428	-0.0124
530.8393	-0.0034
531.0358	-0.0044
531.2322	-0.0016
531.4287	-0.015
531.6251	-0.0104
531.8215	0.0063
532.0179	-0.0091
532.2143	-0.0109
532.4107	-0.0073
532.607	-0.0128
532.8034	-0.003
532.9997	-0.0089
533.196	-0.0071
533.3923	-0.0147
533.5886	-0.0047
533.7848	-0.0015
533.9811	-0.0107
534.1773	-0.0054
534.3735	0.0029
534.5697	-0.017
534.7659	-0.0135
534.9621	-0.0036
535.1582	-0.0155
535.3544	-0.0138
535.5505	0.001
535.7466	-0.0047
535.9427	-0.0066
536.1387	-0.0086
536.3348	-0.0064
536.5308	-0.0067
536.7269	-0.0092
536.9229	-0.0062
537.1189	-0.0092
537.3148	-0.0105
537.5108	-0.014
537.7068	-0.0047
537.9027	-0.0035
538.0986	-0.0143
538.2945	-0.0133
538.4904	-0.0087
538.6863	-0.0153
538.8821	-0.0075
539.078	-0.0075
539.2738	-0.0054
539.4696	-0.0131
539.6654	-0.0019
539.8611	0.0083
540.0569	-0.0077
540.2526	-0.0094
540.4484	-0.0126
540.6441	-0.0022
540.8398	-0.0004
541.0355	0.0037
541.2311	-0.0028
541.4268	-0.0187
541.6224	-0.0014
541.818	0.0007
542.0136	-0.011
542.2092	-0.0098
542.4048	-0.0018
542.6003	-0.0008
542.7959	-0.0169
542.9914	-0.0105
543.1869	-0.0031
543.3824	-0.0083
543.5779	-0.0029
543.7734	-0.0082
543.9688	-0.0137
544.1642	-0.0013
544.3596	-0.0014
544.555	-0.0103
544.7504	-0.0051
544.9458	-0.0105
545.1411	0.0095
545.3365	-0.0025
545.5318	-0.0055
545.7271	-0.0057
545.9224	0.0013
546.1177	-0.0032
546.3129	-0.0056
546.5081	-0.0137
546.7034	-0.0119
546.8986	-0.0158
547.0938	-0.0077
547.289	-0.0072
547.4841	-0.0092
547.6793	0.0027
547.8744	-0.0073
548.0695	0.0012
548.2646	-0.0054
548.4597	0.0048
548.6548	-0.0056
548.8498	0.0032
549.0448	0.0031
549.2399	0.001
549.4349	0.0041
549.6298	0.0009
549.8248	0.0035
550.0198	-0.0044
550.2147	-0.0065
550.4096	-0.0171
550.6045	-0.0069
550.7994	0.0001
550.9943	0.0022
551.1892	-0.0077
551.384	-0.0071
551.5788	-0.0114
551.7737	-0.0056
551.9685	-0.0095
552.1632	-0.0021
552.358	-0.006
552.5528	-0.0047
552.7475	-0.0072
552.9422	0.0005
553.1369	-0.0041
553.3316	0.0022
553.5263	-0.0085
553.7209	0.0022
553.9156	-0.0043
554.1102	-0.0074
554.3048	-0.0096
554.4994	0.0076
554.694	-0.0133
554.8885	0.0016
555.0831	-0.0029
555.2776	-0.0104
555.4721	0.0002
555.6666	-0.0045
555.8611	0.006
556.0555	-0.0018
556.25	0.0041
556.4444	-0.0157
556.6388	0.0017
556.8332	-0.0037
557.0276	-0.0073
557.222	-0.0093
557.4163	-0.0003
557.6107	-0.0172
557.805	0.0077
557.9993	-0.009
558.1936	0.0034
558.3879	-0.0038
558.5821	-0.0005
558.7764	-0.0054
558.9706	-0.0006
559.1648	0.0095
559.359	-0.0109
559.5532	-0.0065
559.7473	-0.0036
559.9415	-0.0021
560.1356	-0.0048
560.3297	-0.0109
560.5238	-0.0055
560.7179	-0.0041
560.9119	0.0048
561.106	-0.0032
561.3	-0.0065
561.494	-0.0027
561.688	-0.0008
561.882	-0.013
562.076	-0.0036
562.2699	-0.0002
562.4639	0.0038
562.6578	-0.0085
562.8517	0.0008
563.0456	0.0066
563.2395	0.0018
563.4333	-0.0026
563.6272	0.0033
563.821	-0.0063
564.0148	0.0027
564.2086	-0.0105
564.4024	-0.0041
564.5961	-0.0027
564.7899	-0.0003
564.9836	-0.0065
565.1773	0.0013
565.371	0.0066
565.5647	0.0045
565.7584	-0.012
565.952	0.0013
566.1456	0.0066
566.3393	-0.0042
566.5329	-0.005
566.7264	0.0005
566.92	-0.0062
567.1136	-0.0026
567.3071	-0.005
567.5006	0.0079
567.6941	0.0023
567.8876	0.0004
568.0811	-0.0035
568.2745	-0.0064
568.468	0.0031
568.6614	-0.0027
568.8548	-0.0099
569.0482	-0.0042
569.2416	0.0009
569.4349	0
569.6283	0.0015
569.8216	0.0005
570.0149	-0.0088
570.2082	0.0016
570.4015	0.0006
570.5947	0.0051
570.788	0.0071
570.9812	0.0026
571.1744	-0.004
571.3676	-0.0107
571.5608	-0.0063
571.754	0.0033
571.9471	-0.0046
572.1402	0.0053
572.3333	0
572.5264	-0.0032
572.7195	-0.0016
572.9126	-0.0079
573.1057	-0.0056
573.2987	-0.0034
573.4917	0.0049
573.6847	0.0007
573.8777	0.0105
574.0707	0.0088
574.2636	-0.0053
574.4566	0.0001
574.6495	-0.001
574.8424	-0.0003
575.0353	0.0048
575.2281	0.0062
575.421	-0.0022
575.6138	0.0058
575.8067	-0.0023
575.9995	0.0082
576.1923	0.0063
576.385	0.0042
576.5778	0.0009
576.7706	-0.0016
576.9633	-0.0004
577.156	0.0008
577.3487	0.0014
577.5414	0.004
577.734	-0.0004
577.9267	0.0067
578.1193	-0.0058
578.3119	-0.007
578.5045	0.0016
578.6971	-0.0007
578.8897	0.0079
579.0822	0.0005
579.2747	0.0082
579.4673	0.0009
579.6598	-0.0024
579.8522	-0.002
580.0447	-0.0048
580.2372	0.0014
580.4296	0.0092
580.622	-0.0033
580.8144	-0.0037
581.0068	-0.0031
581.1992	-0.0091
581.3915	-0.0019
581.5839	-0.0095
581.7762	-0.0054
581.9685	-0.0034
582.1608	0.0032
582.353	-0.0082
582.5453	0.003
582.7375	-0
582.9298	0.0043
583.122	0.0013
583.3142	0.0046
583.5063	-0.0021
583.6985	0.0028
583.8906	-0.0004
584.0827	-0.0065
584.2749	0.0036
584.4669	0.0043
584.659	0.0039
584.8511	-0.0016
585.0431	0
585.2352	0.0024
585.4272	-0.0067
585.6192	0.0047
585.8111	0.0018
586.0031	0.0014
586.195	0.0031
586.387	0.0008
586.5789	0.0042
586.7708	-0.0015
586.9627	-0.0033
587.1545	-0.0064
587.3464	0.0038
587.5382	-0.002
587.73	0.0082
587.9218	0.0007
588.1136	0.0033
588.3053	0.0089
588.4971	-0.0014
588.6888	-0.0099
588.8805	0.0003
589.0722	0.003
589.2639	0.0003
589.4556	-0.0035
589.6472	0.0011
589.8389	-0.0063
590.0305	-0.0096
590.2221	0.0053
590.4137	-0.0066
590.6052	0.0038
590.7968	-0.0047
590.9883	0
591.1798	0.0054
591.3713	0.0008
591.5628	-0.0039
591.7543	0.0048
591.9458	0.0001
592.1372	0.0059
592.3286	0.0063
592.52	0.0071
592.7114	-0.001
592.9028	0.0021
593.0941	-0.0018
593.2855	0.0009
593.4768	-0.0037
593.6681	-0.0066
593.8594	-0.0053
594.0506	-0.0009
594.2419	0.0118
594.4331	0.0008
594.6244	0.0106
594.8156	-0.0067
595.0067	0.0067
595.1979	0.0061
595.3891	-0.0029
595.5802	-0.0051
595.7713	-0.0001
595.9624	-0.0035
596.1535	-0.0008
596.3446	0.0022
596.5357	0.0014
596.7267	0.0024
596.9177	-0.0072
597.1087	-0.0038
597.2997	-0.0056
597.4907	0.0032
597.6817	-0.0014
597.8726	-0.0003
598.0635	-0.0013
598.2544	0.0036
598.4453	-0.0069
598.6362	-0.0027
598.827	-0.0037
599.0179	0.0091
599.2087	0.0007
599.3995	-0.0023
599.5903	-0.0057
599.7811	-0.0024
599.9718	-0.0007
600.1626	-0.0048
600.3533	-0.0115
600.544	0.0029
600.7347	0.0013
600.9254	-0.0004
601.116	-0.0071
601.3067	-0.0019
601.4973	-0.0043
601.6879	-0.0032
601.8785	-0.0053
602.0691	-0.0021
602.2596	0.0036
602.4502	0.0036
602.6407	0.0003
602.8312	-0.0056
603.0217	-0.0073
603.2122	0.0025
603.4027	-0.0039
603.5931	-0.0045
603.7835	-0.0062
603.9739	-0.0031
604.1643	-0.0077
604.3547	-0.0035
604.5451	0.0027
604.7354	-0.0032
604.9257	-0.0012
605.116	-0.0072
605.3063	0.0057
605.4966	0.0055
605.6869	0.0023
605.8771	0.0034
606.0673	0.0109
606.2575	-0.0002
606.4477	0.0014
606.6379	-0.0023
606.8281	-0.0007
607.0182	0.0002
607.2083	0.0119
607.3985	-0.0069
607.5885	-0.0062
607.7786	0.0081
607.9687	-0.0022
608.1587	0.0043
608.3488	0.0028
608.5388	-0.0054
608.7288	0.0036
608.9187	-0.0018
609.1087	-0.0037
609.2986	-0.0055
609.4886	0.0006
609.6785	0.0024
609.8684	0.0021
610.0582	0.0039
610.2481	0.0036
610.4379	0.0025
610.6278	-0.0038
610.8176	0.002
611.0074	-0.0052
611.1971	0.0041
611.3869	0.0006
611.5766	-0.0061
611.7664	0.0076
611.9561	-0.0011
612.1458	0.0026
612.3354	-0.0042
612.5251	0.0087
612.7147	0.0003
612.9044	0.0017
613.094	-0.008
613.2836	0.0067
613.4731	-0.0037
613.6627	-0.0068
613.8522	0.0063
614.0417	0.0004
614.2313	-0.0065
614.4207	-0.0024
614.6102	0.0031
614.7997	-0.0049
614.9891	-0.0109
615.1785	0.0033
615.3679	-0.0059
615.5573	0.0116
615.7467	-0.0084
615.9361	-0.0052
616.1254	-0.0091
616.3147	-0.0031
616.504	0.0041
616.6933	0.0011
616.8826	0.0049
617.0718	-0.0057
617.2611	0.0012
617.4503	-0.0021
617.6395	0.0008
617.8287	-0.0017
618.0179	-0.0009
618.207	0.0075
618.3961	-0.0005
618.5853	0.0033
618.7744	0.0048
618.9634	0.0045
619.1525	0.0038
619.3416	0.0061
619.5306	0.0012
619.7196	-0.0035
619.9086	-0.0008
620.0976	0.002
620.2866	0.001
620.4755	0.0011
620.6645	0.0083
620.8534	0.0083
621.0423	-0.0014
621.2312	0.0094
621.42	0.0046
621.6089	0.0007
621.7977	0.0037
621.9865	-0.0024
622.1753	0.0083
622.3641	-0.0036
622.5529	0.0036
622.7416	0.0061
622.9303	-0.0076
623.1191	0.0098
623.3078	-0.0035
623.4964	0.0056
623.6851	0.0032
623.8737	0.002
624.0624	0.0063
624.251	-0.0083
624.4396	0.0039
624.6282	-0.0027
624.8167	-0.0004
625.0053	0.0066
625.1938	0.0012
625.3823	0.0026
625.5708	-0.0013
625.7593	0.0024
625.9477	-0.001
626.1362	-0.0015
626.3246	0.0042
626.513	0.0042
626.7014	0.0065
626.8898	-0.0025
627.0781	0.0038
627.2665	-0.008
627.4548	0.0099
627.6431	0
627.8314	0.0037
628.0197	0.0032
628.2079	-0.0067
628.3962	-0.0025
628.5844	0.0059
628.7726	0.0087
628.9608	0.0081
629.1489	-0
629.3371	0.0084
629.5252	0.0072
629.7134	0.0167
629.9015	0.0044
630.0895	0.0073
630.2776	0.006
630.4657	0.0023
630.6537	-0.0022
630.8417	-0.0009
631.0297	-0.0011
631.2177	0.0053
631.4057	-0.0088
631.5936	-0.0027
631.7815	-0.0013
631.9695	-0.0033
632.1574	0.0134
632.3452	0.0052
632.5331	0.0021
632.7209	0.0001
632.9088	0.0125
633.0966	0.0034
633.2844	-0.0027
633.4722	0.0059
633.6599	0.0055
633.8477	0.0004
634.0354	-0.0021
634.2231	0.0037
634.4108	-0.0034
634.5985	0.0048
634.7861	-0.0059
634.9738	-0.004
635.1614	-0.0038
635.349	0.0021
635.5366	-0.0033
635.7242	-0.0011
635.9117	0.0104
636.0993	0.0028
636.2868	0.0015
636.4743	0.0002
636.6618	0.0052
636.8492	-0.0004
637.0367	0.0059
637.2241	-0.002
637.4115	-0.0013
637.5989	-0.0017
637.7863	-0.0024
637.9737	-0.004
638.161	-0.0035
638.3484	0.0057
638.5357	0.0057
638.723	-0.0021
638.9103	-0.0023
639.0975	0.0029
639.2848	0.0027
639.472	0.0025
639.6592	0.0065
639.8464	0.0057
640.0336	0.0085
640.2208	-0.0021
640.4079	0.0014
640.595	0.0029
640.7821	-0.0002
640.9692	-0.0064
641.1563	-0.0062
641.3434	0.0016
641.5304	0.0071
641.7174	-0.0061
641.9044	-0.0008
642.0914	0.0009
642.2784	-0.0039
642.4653	0.007
642.6523	-0.003
642.8392	-0.0002
643.0261	-0.0007
643.213	0.0083
643.3999	-0.0078
643.5867	-0.0034
643.7735	-0.0001
643.9604	-0.0079
644.1472	-0.0038
644.3339	-0.0025
644.5207	-0.0017
644.7075	-0.005
644.8942	0.0013
645.0809	0.0055
645.2676	0.0042
645.4543	-0.003
645.6409	0.0045
645.8276	-0.0008
646.0142	-0.0042
646.2008	-0.0027
646.3874	-0.0049
646.574	-0.0014
646.7605	-0.0047
646.9471	-0.0101
647.1336	0.0087
647.3201	0.0023
647.5066	-0.0026
647.6931	0.0072
647.8795	-0.0041
648.0659	0.006
648.2524	0.007
648.4388	-0.0036
648.6252	-0.0034
648.8115	0.001
648.9979	-0.0072
649.1842	0.0028
649.3705	0.0025
649.5568	0.0036
649.7431	0.0059
649.9294	-0.0046
650.1156	-0.0004
650.3018	-0.0066
650.488	0.0022
650.6742	0.0036
650.8604	0.0035
651.0466	-0.0048
651.2327	-0.0022
651.4188	-0.0016
651.6049	0.0001
651.791	-0.0057
651.9771	0.0039
652.1632	0.0051
652.3492	0.0026
652.5352	-0.0022
652.7212	-0.0031
652.9072	0.0042
653.0932	-0.0107
653.2791	-0.0021
653.465	-0.0053
653.651	-0.006
653.8369	-0.0035
654.0227	-0.0078
654.2086	-0.0005
654.3944	0.0021
654.5803	-0.0029
654.7661	-0.0031
654.9519	-0.0007
655.1377	-0.0064
655.3234	-0.0061
655.5092	-0.0039
655.6949	-0.0057
655.8806	-0.0065
656.0663	-0.0035
656.2519	-0.0051
656.4376	-0.0012
656.6232	-0.0003
656.8088	-0.0047
656.9945	-0.0025
657.18	-0.0025
657.3656	-0.0011
657.5511	-0.0029
657.7367	-0.0076
657.9222	0.006
658.1077	-0.0014
658.2932	0.0013
658.4786	-0.0064
658.6641	-0.0032
658.8495	-0.005
659.0349	-0.0031
659.2203	0.0051
659.4057	-0.0021
659.591	0.0047
659.7764	-0.0032
659.9617	-0.0113
660.147	-0.0049
660.3323	0.0004
660.5176	0.0013
660.7028	0.0044
660.888	0.0003
661.0733	-0.0104
661.2585	-0.0034
661.4436	-0.0025
661.6288	-0.0042
661.8139	-0.0018
661.9991	0.0006
662.1842	-0.0029
662.3693	0.0036
662.5544	-0.001
662.7394	-0.0013
662.9245	-0.0095
663.1095	0.003
663.2945	0.0002
663.4795	-0.009
663.6644	-0.0028
663.8494	-0.002
664.0343	-0.0053
664.2193	-0.0115
664.4042	-0.0031
664.589	-0.0003
664.7739	0.002
664.9587	-0.0074
665.1436	0.0004
665.3284	0.0031
665.5132	-0.0037
665.698	0.0082
665.8827	0.0099
666.0675	-0.0042
666.2522	-0.0041
666.4369	0.0079
666.6216	0.0083
666.8063	0.0006
666.9909	0.0034
667.1756	0.0022
667.3602	0.0057
667.5448	-0.0054
667.7294	0.0005
667.9139	0.0074
668.0985	0.0083
668.283	0.0045
668.4675	0.0088
668.652	-0.0051
668.8365	-0.0015
669.0209	0.0062
669.2054	0.0104
669.3898	0.008
669.5742	-0.0007
669.7586	0.0054
669.943	0.0045
670.1273	0.004
670.3117	0.0056
670.496	0.0065
670.6803	0.0118
670.8646	0.0071
671.0488	0.0038
671.2331	0.0051
671.4173	0.007
671.6015	0.0048
671.7857	0.0094
671.9699	0.0045
672.1541	0.0062
672.3382	-0.0028
672.5223	0.0105
672.7064	0.008
672.8905	0.0117
673.0746	0.0017
673.2587	-0.0015
673.4427	0.0018
673.6267	0.0027
673.8107	0.0044
673.9947	0.0036
674.1787	-0.0005
674.3626	-0.0028
674.5465	-0.0003
674.7304	-0.0026
674.9143	0.0013
675.0982	0.005
675.2821	-0.0055
675.4659	0.0084
675.6497	0.0045
675.8335	0.001
676.0173	0.0033
676.2011	0.005
676.3849	-0.0026
676.5686	-0.0044
676.7523	0.0047
676.936	0.0002
677.1197	-0.0015
677.3034	0.0055
677.487	0.003
677.6706	0.0071
677.8542	0.0069
678.0378	-0.0057
678.2214	0.0007
678.405	0.0006
678.5885	-0.0042
678.772	0.0002
678.9555	-0.0035
679.139	-0.0007
679.3225	0.0061
679.5059	0.0058
679.6894	0.0053
679.8728	0.0013
680.0562	-0.0123
680.2395	-0.0075
680.4229	-0.0027
680.6062	0.0083
680.7896	0.0025
680.9729	-0.0078
681.1562	0.0009
681.3394	-0.0009
681.5227	-0.0107
681.7059	-0.0092
681.8891	0.0018
682.0723	-0.0039
682.2555	-0.001
682.4387	-0.0056
682.6218	-0.0049
682.805	0.0037
682.9881	-0.0024
683.1712	0.0014
683.3542	-0.0013
683.5373	0.0056
683.7203	-0.0039
683.9034	0.0026
684.0864	-0.005
684.2694	-0.0038
684.4523	-0.0006
684.6353	-0.0025
684.8182	0.0042
685.0011	-0.0055
685.184	0.0028
685.3669	-0.0088
685.5498	0.0082
685.7326	0.0072
685.9154	0.0009
686.0982	0.0061
686.281	0.0074
686.4638	-0.0001
686.6465	0.0018
686.8293	0.0031
687.012	0.0096
687.1947	-0.0021
687.3774	0.0022
687.56	-0.0005
687.7427	0.0034
687.9253	-0.0018
688.1079	-0.0069
688.2905	0.0082
688.4731	0.0001
688.6556	-0.0079
688.8382	-0.0057
689.0207	0.0017
689.2032	-0.0116
689.3857	-0.0066
689.5681	0.0044
689.7506	-0.0041
689.933	-0.0067
690.1154	-0.0067
690.2978	0.0039
690.4802	0.0022
690.6626	-0.0043
690.8449	-0.0042
691.0272	0.0042
691.2095	-0.0095
691.3918	-0.0028
691.5741	0.0036
691.7563	-0.0024
691.9386	0.0013
692.1208	-0.0017
692.303	-0.0005
692.4852	-0.0006
692.6673	0.0016
692.8495	0.0027
693.0316	-0.0049
693.2137	0.0027
693.3958	0.0052
693.5778	0.0093
693.7599	-0.0007
693.9419	0.0076
694.1239	0.0048
694.3059	-0.0034
694.4879	0.0038
694.6699	0.0123
694.8518	0.0041
695.0337	-0.0009
695.2157	0.0058
695.3975	-0.0026
695.5794	0.0063
695.7613	0.0037
695.9431	-0.0023
696.1249	-0.0007
696.3067	0.0032
696.4885	0.0066
696.6703	-0.0061
696.852	-0.0042
697.0337	0.0062
697.2154	0.0045
697.3971	-0.0022
697.5788	0.0007
697.7605	-0.0016
697.9421	0.0072
698.1237	-0.0024
698.3053	0.0006
698.4869	-0.0113
698.6685	-0.0108
698.85	0.0007
699.0315	0.0033
699.213	-0.0008
699.3945	0.0006
699.576	0.0079
699.7575	0.0038
699.9389	0.0126
700.1203	-0.0056
700.3017	-0.0077
700.4831	-0.0017
700.6645	-0.0016
700.8458	0.006
701.0271	-0.0014
701.2084	0.0114
701.3897	0.0006
701.571	0.0109
701.7523	-0.006
701.9335	-0.0033
702.1147	-0.0016
702.2959	0.003
702.4771	-0.0078
702.6583	-0.0061
702.8394	-0.0083
703.0205	0.0023
703.2016	-0.0093
703.3827	-0.003
703.5638	0.0098
703.7449	0.0039
703.9259	0.015
704.1069	-0.0048
704.2879	0.0006
704.4689	0.0073
704.6499	0.0012
704.8308	0.0026
705.0117	0.0029
705.1927	0.0018
705.3735	0.0023
705.5544	-0.0037
705.7353	-0.0029
705.9161	0.0008
706.0969	-0.0026
706.2777	-0.0021
706.4585	0.001
706.6393	0.0031
706.82	-0.0033
707.0007	-0.0035
707.1815	-0.0024
707.3621	0.0032
707.5428	0.0031
707.7235	-0.0029
707.9041	0.0106
708.0847	-0.0134
708.2653	-0.0058
708.4459	-0.0092
708.6265	0.0068
708.807	0.0036
708.9875	0.0015
709.168	-0.0008
709.3485	-0.0052
709.529	-0.0039
709.7095	-0.0039
709.8899	0.0037
710.0703	-0.0117
710.2507	0.0053
710.4311	-0.0034
710.6115	-0.01
710.7918	-0.0014
710.9721	-0.0052
711.1524	-0.0099
711.3327	-0.0029
711.513	-0.0042
711.6932	0.0006
711.8735	0.0076
712.0537	0.0006
712.2339	-0.0065
712.4141	-0.0019
712.5942	-0.0052
712.7744	-0.0066
712.9545	-0.0168
713.1346	-0.0094
713.3147	-0.0106
713.4947	-0.0052
713.6748	-0.0076
713.8548	-0.0088
714.0348	-0.0114
714.2148	-0.0007
714.3948	0.0075
714.5748	-0.0054
714.7547	0.0039
714.9346	0.003
715.1145	-0.0048
715.2944	-0.0109
715.4743	-0.0042
715.6541	-0.0057
715.834	0.0078
716.0138	-0.0038
716.1936	-0.0139
716.3733	-0.005
716.5531	0.0004
716.7328	-0.0054
716.9126	-0.0047
717.0923	-0.0021
717.2719	-0.0008
717.4516	0.0027
717.6312	-0.0055
717.8109	-0.0063
717.9905	0.004
718.1701	-0.0083
718.3496	-0.0033
718.5292	-0.0002
718.7087	0.0069
718.8882	0.0018
719.0677	0.0118
719.2472	0.001
719.4267	0.0036
719.6061	-0.0078
719.7856	0.0054
719.965	0.0073
720.1443	-0.0076
720.3237	0.0089
720.5031	-0.0023
720.6824	0.0022
720.8617	-0.0007
721.041	0.0108
721.2203	0.0144
721.3995	0.005
721.5788	0.0115
721.758	0.0033
721.9372	0.004
722.1164	0.0008
722.2956	0.0024
722.4747	0.0037
722.6538	0.0056
722.8329	0.019
723.012	0.007
723.1911	-0.0004
723.3702	-0.0002
723.5492	0.0032
723.7282	-0.0017
723.9072	0.0075
724.0862	-0.0064
724.2652	-0.0052
724.4441	0.0003
724.623	0.0002
724.8019	0.0043
724.9808	-0.0062
725.1597	0.0009
725.3385	0.0038
725.5174	-0.0038
725.6962	0.0019
725.875	0.0046
726.0538	0.0099
726.2325	-0.0094
726.4112	0.0017
726.59	-0.0003
726.7687	-0.0082
726.9474	0.0024
727.126	-0.0005
727.3047	-0.0081
727.4833	-0.0002
727.6619	-0.0027
727.8405	-0.0051
728.0191	-0.003
728.1976	0.0022
728.3762	-0.0027
728.5547	-0.0077
728.7332	-0.0117
728.9116	0.002
729.0901	-0.01
729.2686	-0.0122
729.447	-0.0036
729.6254	-0.0053
729.8038	0.0017
729.9821	-0.0149
730.1605	-0.0005
730.3388	-0.0017
730.5171	0.0002
730.6954	-0.0104
730.8737	-0.0026
731.0519	0.0082
731.2302	0.0016
731.4084	0.0027
731.5866	0.0009
731.7648	-0.011
731.9429	-0.0051
732.1211	-0.0099
732.2992	-0.0005
732.4773	0.0011
732.6554	0.0068
732.8335	0.0085
733.0115	0.0032
733.1896	0.0119
733.3676	-0.0029
733.5456	0.0169
733.7235	0.0087
733.9015	-0.006
734.0794	0.005
734.2574	0.0017
734.4353	-0.0017
734.6131	0.0033
734.791	0.0033
734.9689	-0.0016
735.1467	0.0041
735.3245	-0.009
735.5023	-0.0121
735.68	-0.0031
735.8578	0.0028
736.0355	-0.0247
736.2132	-0.0088
736.3909	-0.01
736.5686	-0.0091
736.7463	0.0114
736.9239	-0.0028
737.1015	0.0009
737.2791	-0.0049
737.4567	-0.0013
737.6343	-0.0053
737.8118	-0.0047
737.9894	-0.0023
738.1669	-0.0097
738.3444	0.0006
738.5218	-0.0026
738.6993	-0.0052
738.8767	0.0006
739.0541	0.0026
739.2315	-0.018
739.4089	-0.0056
739.5863	0.0088
739.7636	-0.004
739.9409	0.0002
740.1182	-0
740.2955	0.0076
740.4728	-0.0053
740.65	-0.0093
740.8272	-0.0049
741.0044	-0.0081
741.1816	0.003
741.3588	-0.0081
741.5359	0.0029
741.7131	-0.014
741.8902	-0.0077
742.0673	-0.0053
742.2444	-0.0102
742.4214	-0.0103
742.5985	0.0014
742.7755	-0.008
742.9525	-0.0196
743.1295	-0.0052
743.3064	0.004
743.4834	0.0013
743.6603	-0.0129
743.8372	-0.0125
744.0141	0.0027
744.191	0.0006
744.3678	-0.0096
744.5446	-0.0001
744.7215	-0.0031
744.8982	-0.0081
745.075	-0.0041
745.2518	0.0034
745.4285	0.011
745.6052	-0.0039
745.7819	-0.0006
745.9586	-0.0019
746.1353	0.0019
746.3119	-0.012
746.4885	0.0017
746.6651	-0.0048
746.8417	0.0004
747.0183	0.0007
747.1948	0.001
747.3714	0.009
747.5479	0.0069
747.7244	-0.0026
747.9008	0.0076
748.0773	0.0036
748.2537	0.0006
748.4301	-0.008
748.6065	0.0045
748.7829	0.0069
748.9593	-0.007
749.1356	0.0037
749.3119	0.0075
749.4882	-0.0045
749.6645	0.0072
749.8408	0.0059
750.017	-0.0069
750.1933	0.0072
750.3695	-0.0018
750.5457	0.0049
750.7218	0.0081
750.898	0.01
751.0741	0.0023
751.2502	0.0101
751.4263	-0.002
751.6024	0.0081
751.7784	-0.0007
751.9545	0.0002
752.1305	0.0026
752.3065	-0.007
752.4825	0.0104
752.6584	-0.0138
752.8344	-0.0067
753.0103	-0.0089
753.1862	-0.0046
753.3621	-0.0066
753.5379	-0.0075
753.7138	0.0016
753.8896	0.0029
754.0654	0.0033
754.2412	0.0115
754.417	-0.0011
754.5927	-0.0043
754.7685	-0.0114
754.9442	-0.0006
755.1199	0.0118
755.2956	0.0049
755.4712	0.0067
755.6469	-0.0041
755.8225	-0.0088
755.9981	-0.0066
756.1736	0.0002
756.3492	0.0057
756.5248	-0.0104
756.7003	0.0011
756.8758	0.014
757.0513	-0.0077
757.2267	0.0038
757.4022	-0.0026
757.5776	-0.0116
757.753	0.0008
757.9284	0.0073
758.1038	0.0102
758.2791	0.0086
758.4545	-0.0091
758.6298	0.0103
758.8051	0.0078
758.9803	0.0115
759.1556	0.012
759.3308	0.0012
759.506	0.0114
759.6812	0.0057
759.8564	0.0131
760.0316	0.0033
760.2067	0.0071
760.3819	0.0076
760.557	0.0046
760.732	0.0002
760.9071	-0.0086
761.0821	-0.0031
761.2572	0.0046
761.4322	-0.0044
761.6072	-0.0052
761.7821	-0.0144
761.9571	0.0034
762.132	-0.0114
762.3069	-0.0094
762.4818	-0.0105
762.6567	-0.0014
762.8316	-0.0035
763.0064	-0.0007
763.1812	0
763.356	-0.0153
763.5308	-0.0062
763.7055	0.0119
763.8803	0.0022
764.055	0.0016
764.2297	0.005
764.4044	0.0006
764.579	0.0003
764.7537	-0.0125
764.9283	0.0011
765.1029	-0.003
765.2775	-0.0037
765.4521	-0.0014
765.6266	0.0049
765.8011	-0.0089
765.9756	0.0004
766.1501	-0.0012
766.3246	-0.0006
766.4991	-0.0129
766.6735	-0.0046
766.8479	-0.0061
767.0223	0.0114
767.1967	0.0062
767.371	-0.0008
767.5454	-0.0093
767.7197	0.0103
767.894	0.0028
768.0683	-0.0061
768.2425	0.0034
768.4168	0.0091
768.591	-0.0002
768.7652	0.009
768.9394	-0.0042
769.1135	0.0039
769.2877	0.0046
769.4618	0.0072
769.6359	-0.001
769.81	0.0047
769.984	-0.0007
770.1581	-0.001
770.3321	-0.001
770.5061	-0.0024
770.6801	-0.0031
770.8541	0.0065
771.028	0.004
771.202	-0.0099
771.3759	0.0131
771.5498	-0.0061
771.7236	0.0009
771.8975	0.0091
772.0713	0.0075
772.2451	-0.002
772.4189	0.0041
772.5927	0.0143
772.7665	-0.001
772.9402	0.0018
773.1139	0.0011
773.2876	-0.0073
773.4613	0.0189
773.635	0.0001
773.8086	-0.0073
773.9822	-0.0006
774.1558	-0.0049
774.3294	-0.02
774.503	0.0006
774.6765	0.0019
774.8501	0.0009
775.0236	0.0035
775.1971	0.0028
775.3705	-0.0101
775.544	0.0042
775.7174	-0.0041
775.8908	0.0025
776.0642	-0.0019
776.2376	0.0028
776.4109	-0.0229
776.5843	0.0041
776.7576	-0.0011
776.9309	0.0148
777.1041	0.0086
777.2774	0.0118
777.4506	-0.0058
777.6238	-0.0015
777.797	-0.0008
777.9702	-0.0067
778.1434	0.0068
778.3165	-0.0139
778.4896	-0.0038
778.6627	0.0108
778.8358	-0.0043
779.0089	-0.0017
779.1819	-0.0071
779.3549	0.0137
779.5279	0.0091
779.7009	0.0062
779.8739	0.0068
780.0468	0.0004
780.2197	0.0052
780.3926	-0.0056
780.5655	-0.003
780.7384	-0.0118
780.9112	0.003
781.0841	-0.0108
781.2569	0.0014
781.4297	-0.0002
781.6024	0.0063
781.7752	0.0048
781.9479	0.0103
782.1206	0.0028
782.2933	0.0017
782.466	0.0179
782.6386	0.0071
782.8113	0.0019
782.9839	0.0082
783.1565	0.0171
783.329	0.0146
783.5016	0.0038
783.6741	-0.0014
783.8466	0.0065
784.0191	0.0204
784.1916	0.0053
784.3641	-0.0004
784.5365	0.0053
784.7089	-0.005
784.8813	0.005
785.0537	-0.0013
785.2261	-0.0042
785.3984	-0.0092
785.5707	-0.0079
785.743	0.0102
785.9153	-0.0037
786.0876	0.001
786.2598	0.007
786.432	-0.0113
786.6042	-0.0038
786.7764	-0.01
786.9486	-0.0072
787.1207	-0.0021
787.2928	0.01
787.4649	0.0075
787.637	0.0044
787.8091	0.0076
787.9811	-0.0108
788.1532	0.0009
788.3252	0.0027
788.4972	0.0015
788.6691	-0.0009
788.8411	0.0137
789.013	0
789.1849	0.0027
789.3568	-0.0128
789.5287	-0.0013
789.7005	0.0034
789.8723	0.0047
790.0442	0.0064
790.2159	0.0122
790.3877	0.0065
790.5595	-0.0097
790.7312	0.0046
790.9029	0.0094
791.0746	0.0065
791.2463	-0.0113
791.4179	0.0005
791.5896	-0.0082
791.7612	-0.0001
791.9328	0.0088
792.1044	-0.0072
792.2759	-0.0201
792.4474	0.0042
792.619	0.0159
792.7905	0.0081
792.9619	-0.0022
793.1334	0.0093
793.3048	0.0013
793.4762	0.0188
793.6476	0.0038
793.819	-0.008
793.9904	0.0004
794.1617	-0.0179
794.333	0.0062
794.5043	-0.0104
794.6756	0.0131
794.8469	0.0023
795.0181	-0.0034
795.1893	-0.0108
795.3605	0.0015
795.5317	-0.0083
795.7029	0.0094
795.874	-0.0033
796.0452	-0.0034
796.2163	-0.0084
796.3873	0.0074
796.5584	0.0162
796.7294	0.0071
796.9005	0.0307
797.0715	0.0153
797.2425	-0.0129
797.4134	0.0104
797.5844	0.0011
797.7553	0.0004
797.9262	-0.003
798.0971	-0.0082
798.2679	-0.0119
798.4388	-0.0174
798.6096	-0.006
798.7804	-0.0011
798.9512	-0.0081
799.122	0.0218
799.2927	0.0192
799.4635	0.0144
799.6342	-0.0159
799.8049	-0.0113
799.9755	-0.0054
800.1462	0.0061
800.3168	0.0176
800.4874	-0.0028
800.658	0.0329
800.8286	0.0165
800.9991	0.0098
801.1696	0.0085
801.3402	0.0123
801.5106	0.0081
801.6811	0.0158
801.8516	0.0247
802.022	0.0241
802.1924	0.0129
802.3628	0.0066
802.5332	0.024
802.7035	0.0236
802.8739	0.0067
803.0442	-0.0129
803.2145	0.0186
803.3847	-0.0071
803.555	0.0069
803.7252	-0.0272
803.8954	-0.0199
804.0656	-0.0155
804.2358	0.0067
804.4059	0.0294
804.5761	0.0201
804.7462	0.0253
804.9163	0.0078
805.0864	0.0039
805.2564	0.018
805.4264	0.0153
805.5965	-0.0057
805.7665	0.0198
805.9364	0.0052
806.1064	0.0346
806.2763	0.0213
806.4462	0.031
806.6161	0.0241
806.786	0.0293
806.9559	0.0037
807.1257	0.0012
807.2955	0.0083
807.4653	-0.0015
807.6351	0.0073
807.8048	0.0134
807.9746	0.0137
808.1443	0.0042
808.314	0.0185
808.4837	0.0074
808.6533	0.0119
808.8229	0.0193
808.9926	0.019
809.1622	0.0083
809.3317	-0.015
809.5013	0.0182
809.6708	0.0241
809.8403	0.0021
810.0098	0.0161
810.1793	0.0181
810.3488	0.0212
810.5182	-0.0036
810.6876	0.0126
810.857	0.0028
811.0264	0.0226
811.1958	0.0255
811.3651	0.0064
811.5344	0.0237
811.7037	0.0088
811.873	-0.0177
812.0422	0.0222
812.2115	0.0186
812.3807	0.003
812.5499	0.0293
812.7191	0.0258
812.8882	0.0192
813.0574	0.0079
813.2265	0.0103
813.3956	0.0192
813.5646	0.002
813.7337	0.0007
813.9027	0.0289
814.0718	0.0319
814.2407	0.0304
814.4097	0.0218
814.5787	0.008
814.7476	0.0306
814.9165	0.0085
815.0854	0.0028
815.2543	-0.007
815.4232	0.0068
815.592	0.0071
815.7608	0.0164
815.9296	0.0129
816.0984	0.0298
816.2671	0.0115
816.4359	-0.0086
816.6046	0.0164
816.7733	0.0038
816.942	-0.0095
817.1106	0.0086
817.2793	0.0292
817.4479	0.005
817.6165	0.0211
817.785	0.0225
817.9536	0.0021
818.1221	0.0138
818.2906	0.0161
818.4591	0.0001
818.6276	-0.0083
818.7961	0.0173
818.9645	0.0075
819.1329	0.0045
819.3013	0.0245
819.4697	0.0373
819.638	0.0001
819.8064	0.0073
819.9747	0.0197
820.143	0.0063
820.3113	0.0127
820.4795	0.0212
820.6477	0.0195
820.816	0.0216
820.9842	0.042
821.1523	0.0067
821.3205	0.0341
821.4886	0.0141
821.6567	0.0033
821.8248	0.0149
821.9929	0.0246
822.1609	0.0104
822.329	0.0221
822.497	0.0228
822.665	0.0175
822.833	0.0203
823.0009	0.0561
823.1688	0.0104
823.3367	0.0205
823.5046	0.0079
823.6725	0.0274
823.8404	0.0041
824.0082	0.0309
824.176	-0.0104
824.3438	0.0226
824.5116	-0.002
824.6793	0.0294
824.847	0.0205
825.0147	0.0006
825.1824	0.0343
825.3501	0.0398
825.5177	0.006
825.6854	-0.0101
825.853	0.0081
826.0206	-0.0141
826.1881	0.0102
826.3557	-0.0031
826.5232	0.001
826.6907	-0.0226
826.8582	-0.0154
827.0257	0.0104
827.1931	0.0125
827.3605	-0.0079
827.528	0.0062
827.6953	-0.035
827.8627	0.0049
828.03	0.0111
828.1974	-0.0227
828.3647	-0.0425
828.532	0.0142
828.6992	-0.0062
828.8665	0.004
829.0337	-0.0103
829.2009	-0.0053
829.3681	0.0058
829.5352	0.002
829.7024	0.0029
829.8695	-0.0009
830.0366	0.0541
830.2037	-0.0059
830.3707	0.0193
830.5378	-0.0119
830.7048	0.0185
830.8718	-0.0231
831.0388	-0.0424
831.2057	0.0474
831.3727	0.0177
831.5396	-0.0049
831.7065	-0.0578
831.8734	0.0189
832.0402	-0.0385
832.2071	-0.0004
832.3739	0.0199
832.5407	0.0185
832.7075	0.0233
832.8742	0.0171
833.041	-0.038
833.2077	0.0305
833.3744	0.0782
833.541	0.0014
833.7077	-0.0193
833.8743	0.0082
834.0409	-0.0172
834.2075	0.0021
834.3741	0.0308
834.5407	0.0244
834.7072	0.0092
834.8737	0.011
835.0402	0.0167
835.2067	0.0167
835.3731	-0.0044
835.5395	0.0172
835.706	0.016
835.8723	-0.0236
836.0387	0.0009
836.2051	-0.0101
836.3714	0.03
836.5377	0.0114
836.704	-0.0254
836.8703	0.0381
837.0365	0.0235
837.2027	-0.0139
837.3689	0.0601
837.5351	0.0234
837.7013	-0.0245
837.8674	-0.0707
838.0335	-0.0474
838.1997	0.0027
838.3657	-0.0254
838.5318	-0.0245
838.6978	0.0046
838.8639	0.0334
839.0299	0.0143
839.1958	-0.0263
839.3618	-0.0006
839.5277	-0.0214
839.6937	0.0171
839.8596	-0.0362
840.0254	0.0428
840.1913	0.0223
840.3571	0.0799
840.523	0.0186
840.6888	-0.0199
840.8545	0.0032
841.0203	-0.0041
841.186	0.0142
841.3517	0.0338
841.5174	0.0255
841.6831	0.0022
841.8488	0.034
842.0144	0.0497
842.18	0.0268
842.3456	0.0079
842.5112	0.0319
842.6767	-0.0036
842.8422	0.009
843.0077	-0.0492
843.1732	-0.0491
843.3387	-0.0687
843.5042	-0.0605
843.6696	0.0654
843.835	-0.005
844.0004	0.0519
844.1657	0.0359
844.3311	-0.0161
844.4964	0.0178
844.6617	-0.0192
844.827	-0.0099
844.9923	-0.0087
845.1575	-0.009
845.3227	0.0532
845.4879	0.0129
845.6531	-0.0331
845.8183	-0.1169
845.9834	-0.025
846.1485	-0.0291
846.3136	0.0159
846.4787	-0.0803
846.6438	0.0199
846.8088	-0.0149
846.9738	-0.1014
847.1388	0.0513
847.3038	0.0519
847.4687	-0.1549
847.6337	-0.0235
847.7986	0.0098
847.9635	-0.0482
848.1284	0.0558
848.2932	0.1108
848.458	0.0023
848.6228	0.0351
848.7876	0.0251
848.9524	0.0023
849.1172	-0.0992
849.2819	-0.0146
849.4466	-0.1115
849.6113	-0.098
849.7759	0.0108
849.9406	0.0235
850.1052	0.0683
850.2698	-0.0161
850.4344	-0.0167
850.599	-0.034
850.7635	0.0046
850.928	-0.13
851.0925	0.0538
851.257	0.0454
851.4215	0.019
851.5859	-0.0681
851.7503	0.039
851.9147	0.0295
852.0791	-0.114
852.2434	-0.0305
852.4078	0.0478
852.5721	0.0289
852.7364	-0.0826
852.9007	-0.1359
853.0649	-0.0512
853.2291	-0.0726
853.3934	0.0125
853.5575	-0.0237
853.7217	-0.1043
853.8859	0.1293
854.05	-0.0788
854.2141	0.0195
854.3782	-0.0185
854.5423	-0.1306
854.7063	0.1655
854.8703	0.0415
855.0343	-0.0052
855.1983	-0.1982
855.3623	0.0426
855.5262	-0.0206
855.6901	-0.1363
855.854	0.0775
856.0179	-0.0592
856.1818	0.1251
856.3456	0.0791
856.5094	-0.1172
856.6732	-0.1009
856.837	-0.1137
857.0008	0.0647
857.1645	-0.1225
857.3282	0.1289
857.4919	0.1664
857.6556	0.0823
857.8192	0.0844
857.9828	0.0096
858.1465	0.0645
858.31	-0.0837
858.4736	-0.0528
858.6372	-0.2716
858.8007	-0.1504
858.9642	0.2239
859.1277	0.072
859.2911	0.094
859.4546	0.1744
859.618	-0.2896
859.7814	-0.025
859.9448	0.1209
860.1081	0.0769
860.2715	0.2797
860.4348	-0.0493
860.5981	-0.1716
860.7614	0.1486
860.9246	-0.1129
861.0879	-0.2686
861.2511	0.113
861.4143	-0.1836
861.5774	0.3594
861.7406	-0.0876
861.9037	0.0013
862.0668	-0.0238
862.2299	-0.1336
862.393	-0.515
862.556	-0.0501
862.7191	-0.2922
862.8821	-0.4106
863.0451	0.201
863.208	0.0362
863.371	0.006
863.5339	-0.107
863.6968	-0.0271
863.8597	-0.0699
864.0225	0.1174
864.1854	0.0717
864.3482	0.2834
864.511	0.1586
864.6737	-0.0649
864.8365	0.1755
864.9992	-0.194
865.1619	-0.7377
865.3246	0.4448
865.4873	-0.0496
865.65	-0.2114
865.8126	-0.2662
865.9752	0.2065
866.1378	-0.2601
866.3004	1.2304
866.4629	0.1777
866.6254	-0.0818
866.7879	1.0712
866.9504	0.0938
867.1129	-0
867.2753	0.3045
867.4377	0.4048
867.6001	0.2931
867.7625	0.0625
867.9249	-0.63
868.0872	-0.2125
868.2495	-0.0702
868.4118	-0.4358
868.5741	-0.1898
868.7363	0.699
868.8986	-0
869.0608	0.1594
869.223	0.1026
869.3851	2.1732
869.5473	0.0798
869.7094	0.1807
869.8715	-0.2734
870.0336	-0
870.1957	-0.784
870.3577	-0.2374
870.5197	-0.1498
870.6817	0.2525
870.8437	-0.0542
871.0057	-0
871.1676	1.0864
871.3295	0.3653
871.4914	-0
871.6533	-0.2634
871.8151	-0.4889
871.977	-0
872.1388	-0
872.3006	-0
872.4623	-0
872.6241	0.22
872.7858	-0
872.9475	-0.1768
873.1092	-0.2038
873.2709	0.1742
873.4325	-0.0082
873.5941	-0.53
873.7557	-0
873.9173	-0
874.0789	-0.1782
874.2404	-0.4196
874.4019	0.0402
874.5634	-0.374
874.7249	-0.1176
874.8863	-0.0389
875.0478	0.0386
875.2092	-0
875.3706	-0
875.5319	-0.6259
875.6933	-0
875.8546	0.0076
876.0159	-0.1034
876.1772	-0.0737
876.3385	-0
876.4997	0.1548
876.6609	-0.4423
876.8221	-0
876.9833	0.5921
877.1445	-0.3211
877.3056	0.0203
877.4667	-0.3868
877.6278	-0.008
877.7889	-0.8147
877.9499	-0
878.111	-0.513
878.272	-0.6488
878.433	-0.0945
878.5939	-0
878.7549	0.6644
878.9158	-0.513
879.0767	-0
879.2376	-0
879.3984	-0
879.5593	-0
879.7201	1.106
879.8809	-0.8178
880.0417	-0
880.2024	0.5114
880.3632	-1.1389
880.5239	0.7668
880.6846	-0
880.8452	-2.6284
881.0059	0.699
881.1665	0.5471
881.3271	-0
881.4877	-0.1012
881.6483	-0.8798
881.8088	-0.4725
881.9693	0.5734
882.1298	0.5734
882.2903	0.5734
