Data from MonoPyChalIsomerACN10uM380nmA_Absorbance_13-38-30-449.txt Node
Date: Fri Jul 05 13:38:30 BST 2024
User: LASERRRRR
Spectrometer: FLMT03099
Trigger mode: 0
Integration Time (sec): 1.000000E-1
Scans to average: 1
Electric dark correction enabled: true
Nonlinearity correction enabled: false
Boxcar width: 0
XAxis mode: Wavelengths
Number of Pixels in Spectrum: 3648
>>>>>Begin Spectral Data<<<<<
179.3399	-0.2154
179.5586	-0.2154
179.7771	-0.2154
179.9957	0.2594
180.2143	-0
180.4329	-0.3886
180.6514	-0
180.8699	-0
181.0885	-0.1728
181.307	0.1071
181.5255	-0
181.744	-0
181.9625	-0
182.181	-0.9333
182.3994	-0.0793
182.6179	-0
182.8363	0.1242
183.0547	-0.074
183.2732	-0.1349
183.4916	0.0911
183.71	0.301
183.9284	-0.0061
184.1467	-0.1809
184.3651	-0.047
184.5835	-0.0684
184.8018	0.015
185.0201	0.0604
185.2385	0.1069
185.4568	0.2275
185.6751	0.2468
185.8934	0.1847
186.1117	0.1227
186.3299	-0.0749
186.5482	0.275
186.7664	-0.002
186.9847	0.0214
187.2029	0.0807
187.4211	-0.0013
187.6393	0.1938
187.8575	-0.0419
188.0757	0.1062
188.2939	0.0409
188.512	0.3996
188.7302	-0.036
188.9483	0.4429
189.1665	0.2575
189.3846	-0.2113
189.6027	0.3483
189.8208	0.0996
190.0389	0.0447
190.257	0.1251
190.475	-0.0111
190.6931	0.1902
190.9111	0.2758
191.1292	0.1515
191.3472	0.476
191.5652	0.3319
191.7832	0.1917
192.0012	0.8978
192.2192	0.4446
192.4371	0.5786
192.6551	0.4739
192.873	0.3411
193.091	0.3134
193.3089	0.5184
193.5268	0.3266
193.7447	0.652
193.9626	0.4508
194.1805	1.0092
194.3984	0.739
194.6162	0.4427
194.8341	0.6885
195.0519	0.6201
195.2697	0.9342
195.4875	0.8098
195.7054	0.4776
195.9231	0.6426
196.1409	0.5997
196.3587	0.6283
196.5765	0.7541
196.7942	0.6246
197.012	0.6028
197.2297	0.7662
197.4474	1.0742
197.6651	0.926
197.8828	0.6776
198.1005	0.8257
198.3182	1.0345
198.5358	0.9057
198.7535	0.8973
198.9711	0.689
199.1888	0.8163
199.4064	1.1579
199.624	0.7174
199.8416	0.7523
200.0592	0.7889
200.2767	0.7813
200.4943	0.9279
200.7119	0.9765
200.9294	0.7652
201.1469	0.6709
201.3645	0.7527
201.582	0.6699
201.7995	0.7961
202.017	0.7805
202.2344	0.7215
202.4519	0.9469
202.6694	0.7646
202.8868	0.7178
203.1042	0.9784
203.3217	0.8696
203.5391	0.8252
203.7565	0.773
203.9739	0.8989
204.1913	0.7142
204.4086	0.8446
204.626	0.7975
204.8433	0.7587
205.0607	0.6939
205.278	0.8799
205.4953	0.8102
205.7126	0.7798
205.9299	0.8521
206.1472	0.991
206.3644	0.8829
206.5817	0.9368
206.7989	0.8689
207.0162	0.8475
207.2334	0.8884
207.4506	0.8178
207.6678	0.7931
207.885	0.7825
208.1022	0.8167
208.3194	0.8118
208.5365	0.7743
208.7537	0.8026
208.9708	0.6922
209.1879	0.8082
209.405	0.9037
209.6222	0.9238
209.8392	0.8399
210.0563	0.8209
210.2734	0.9105
210.4905	0.9069
210.7075	0.8239
210.9245	0.7182
211.1416	0.9819
211.3586	0.7513
211.5756	0.7141
211.7926	0.7945
212.0096	0.8162
212.2265	0.7451
212.4435	0.8434
212.6604	0.754
212.8774	0.8469
213.0943	0.8067
213.3112	0.7913
213.5281	0.6903
213.745	0.6863
213.9619	0.6965
214.1788	0.7009
214.3956	0.6519
214.6125	0.6346
214.8293	0.5708
215.0461	0.691
215.2629	0.6514
215.4798	0.6995
215.6965	0.6113
215.9133	0.6806
216.1301	0.658
216.3469	0.7045
216.5636	0.6666
216.7803	0.6438
216.9971	0.6646
217.2138	0.6011
217.4305	0.6334
217.6472	0.5631
217.8639	0.6155
218.0805	0.594
218.2972	0.5955
218.5138	0.5369
218.7305	0.5816
218.9471	0.5727
219.1637	0.5794
219.3803	0.5451
219.5969	0.5337
219.8135	0.5105
220.0301	0.522
220.2466	0.5584
220.4632	0.5546
220.6797	0.5289
220.8962	0.5036
221.1127	0.5575
221.3292	0.5509
221.5457	0.5044
221.7622	0.4827
221.9787	0.5426
222.1951	0.5141
222.4116	0.5331
222.628	0.5084
222.8444	0.5236
223.0608	0.5181
223.2772	0.5061
223.4936	0.5321
223.71	0.5155
223.9264	0.542
224.1427	0.5447
224.3591	0.5328
224.5754	0.5581
224.7917	0.5346
225.008	0.5119
225.2243	0.5073
225.4406	0.5377
225.6569	0.5112
225.8732	0.526
226.0894	0.5339
226.3057	0.533
226.5219	0.5336
226.7381	0.5341
226.9543	0.5363
227.1705	0.5402
227.3867	0.5281
227.6029	0.5711
227.8191	0.5387
228.0352	0.5724
228.2513	0.5501
228.4675	0.5629
228.6836	0.5409
228.8997	0.5427
229.1158	0.5622
229.3319	0.5577
229.548	0.5428
229.764	0.5349
229.9801	0.5919
230.1961	0.5587
230.4121	0.5616
230.6282	0.5334
230.8442	0.5251
231.0602	0.5976
231.2761	0.5413
231.4921	0.5719
231.7081	0.5555
231.924	0.5631
232.14	0.5585
232.3559	0.5294
232.5718	0.585
232.7877	0.5465
233.0036	0.5072
233.2195	0.5766
233.4353	0.5343
233.6512	0.5601
233.867	0.5399
234.0829	0.5586
234.2987	0.5642
234.5145	0.5652
234.7303	0.5521
234.9461	0.5468
235.1619	0.5606
235.3776	0.5483
235.5934	0.5554
235.8091	0.5294
236.0249	0.5681
236.2406	0.5419
236.4563	0.5518
236.672	0.5556
236.8877	0.5404
237.1034	0.5547
237.319	0.5541
237.5347	0.5629
237.7503	0.5395
237.966	0.5446
238.1816	0.5627
238.3972	0.5394
238.6128	0.515
238.8284	0.5328
239.0439	0.5607
239.2595	0.5049
239.475	0.5554
239.6906	0.5157
239.9061	0.5438
240.1216	0.5225
240.3371	0.5383
240.5526	0.4989
240.7681	0.5291
240.9836	0.4837
241.199	0.5025
241.4145	0.4875
241.6299	0.4852
241.8453	0.4733
242.0607	0.4788
242.2761	0.455
242.4915	0.4603
242.7069	0.4506
242.9223	0.4456
243.1376	0.4315
243.353	0.4225
243.5683	0.4464
243.7836	0.3992
243.9989	0.4012
244.2142	0.3747
244.4295	0.4202
244.6448	0.376
244.86	0.3627
245.0753	0.3634
245.2905	0.3481
245.5057	0.3555
245.721	0.3474
245.9362	0.3267
246.1514	0.3358
246.3665	0.305
246.5817	0.3249
246.7969	0.3073
247.012	0.2937
247.2271	0.2998
247.4423	0.2986
247.6574	0.3041
247.8725	0.2912
248.0876	0.279
248.3026	0.276
248.5177	0.2785
248.7328	0.2452
248.9478	0.2518
249.1628	0.2668
249.3779	0.2627
249.5929	0.244
249.8079	0.2745
250.0228	0.2409
250.2378	0.2474
250.4528	0.2545
250.6677	0.2084
250.8827	0.2414
251.0976	0.2328
251.3125	0.2211
251.5274	0.2253
251.7423	0.2271
251.9572	0.2233
252.172	0.2242
252.3869	0.2051
252.6017	0.217
252.8166	0.213
253.0314	0.2049
253.2462	0.1963
253.461	0.2123
253.6758	0.2052
253.8906	0.1947
254.1053	0.1882
254.3201	0.1864
254.5348	0.2131
254.7496	0.2064
254.9643	0.1961
255.179	0.2058
255.3937	0.188
255.6083	0.196
255.823	0.209
256.0377	0.1842
256.2523	0.2041
256.467	0.177
256.6816	0.1985
256.8962	0.188
257.1108	0.1855
257.3254	0.1958
257.54	0.1877
257.7545	0.1886
257.9691	0.1905
258.1836	0.1817
258.3981	0.1915
258.6127	0.1909
258.8272	0.1672
259.0417	0.1892
259.2561	0.1852
259.4706	0.1877
259.6851	0.185
259.8995	0.1856
260.114	0.1919
260.3284	0.1894
260.5428	0.1765
260.7572	0.1912
260.9716	0.1889
261.186	0.1745
261.4003	0.192
261.6147	0.1972
261.829	0.1806
262.0433	0.1877
262.2577	0.1896
262.472	0.1773
262.6863	0.1767
262.9005	0.1825
263.1148	0.1939
263.3291	0.1692
263.5433	0.1742
263.7576	0.1792
263.9718	0.1778
264.186	0.1873
264.4002	0.1815
264.6144	0.1793
264.8286	0.1906
265.0427	0.1837
265.2569	0.1889
265.471	0.1822
265.6851	0.1702
265.8993	0.1875
266.1134	0.1717
266.3275	0.1764
266.5415	0.175
266.7556	0.1712
266.9697	0.1753
267.1837	0.1818
267.3978	0.1875
267.6118	0.1847
267.8258	0.1951
268.0398	0.1696
268.2538	0.1866
268.4677	0.1851
268.6817	0.173
268.8957	0.1957
269.1096	0.1813
269.3235	0.1916
269.5374	0.176
269.7514	0.1784
269.9652	0.1702
270.1791	0.1719
270.393	0.1731
270.6068	0.1789
270.8207	0.1637
271.0345	0.1688
271.2483	0.1726
271.4622	0.1736
271.676	0.1807
271.8897	0.1592
272.1035	0.1678
272.3173	0.1633
272.531	0.1653
272.7448	0.1584
272.9585	0.1533
273.1722	0.1612
273.3859	0.1741
273.5996	0.1575
273.8133	0.1595
274.0269	0.1673
274.2406	0.159
274.4542	0.1652
274.6679	0.1607
274.8815	0.1659
275.0951	0.1614
275.3087	0.1793
275.5223	0.1768
275.7358	0.1598
275.9494	0.1718
276.1629	0.163
276.3765	0.1597
276.59	0.17
276.8035	0.1696
277.017	0.1704
277.2305	0.1601
277.444	0.1698
277.6574	0.1748
277.8709	0.1764
278.0843	0.1626
278.2978	0.1719
278.5112	0.1575
278.7246	0.1603
278.938	0.1751
279.1513	0.1716
279.3647	0.1669
279.5781	0.1708
279.7914	0.1651
280.0047	0.1744
280.2181	0.1674
280.4314	0.1759
280.6447	0.1727
280.8579	0.1788
281.0712	0.176
281.2845	0.1775
281.4977	0.1683
281.711	0.1593
281.9242	0.1654
282.1374	0.1714
282.3506	0.1605
282.5638	0.174
282.7769	0.1726
282.9901	0.1745
283.2033	0.1846
283.4164	0.1812
283.6295	0.1588
283.8426	0.167
284.0557	0.1707
284.2688	0.1872
284.4819	0.1714
284.695	0.1773
284.908	0.1795
285.1211	0.1717
285.3341	0.177
285.5471	0.1703
285.7601	0.1676
285.9731	0.1787
286.1861	0.1811
286.3991	0.1853
286.612	0.1736
286.825	0.1608
287.0379	0.1815
287.2508	0.1698
287.4637	0.1829
287.6766	0.1699
287.8895	0.1794
288.1024	0.1955
288.3152	0.1937
288.5281	0.1652
288.7409	0.1882
288.9538	0.1846
289.1666	0.1726
289.3794	0.1799
289.5922	0.1718
289.8049	0.1815
290.0177	0.1738
290.2304	0.1809
290.4432	0.1765
290.6559	0.1701
290.8686	0.1786
291.0813	0.1798
291.294	0.185
291.5067	0.1822
291.7194	0.1786
291.932	0.1889
292.1447	0.1751
292.3573	0.1628
292.5699	0.1685
292.7825	0.1792
292.9951	0.178
293.2077	0.1761
293.4203	0.18
293.6328	0.1674
293.8454	0.1887
294.0579	0.1624
294.2704	0.1772
294.4829	0.1688
294.6954	0.1811
294.9079	0.1759
295.1204	0.1698
295.3328	0.1778
295.5453	0.1748
295.7577	0.1729
295.9701	0.1777
296.1825	0.1755
296.3949	0.1702
296.6073	0.1701
296.8197	0.171
297.0321	0.183
297.2444	0.1612
297.4567	0.1736
297.6691	0.1791
297.8814	0.1625
298.0937	0.1727
298.306	0.1739
298.5182	0.1707
298.7305	0.176
298.9428	0.1724
299.155	0.1776
299.3672	0.1685
299.5794	0.1685
299.7916	0.1744
300.0038	0.1825
300.216	0.1674
300.4282	0.1694
300.6403	0.1656
300.8525	0.172
301.0646	0.1581
301.2767	0.1746
301.4888	0.1689
301.7009	0.1703
301.913	0.1698
302.125	0.1628
302.3371	0.1672
302.5491	0.1698
302.7612	0.1725
302.9732	0.1725
303.1852	0.1715
303.3972	0.1558
303.6092	0.1681
303.8211	0.1523
304.0331	0.1627
304.245	0.1547
304.457	0.1496
304.6689	0.1599
304.8808	0.1757
305.0927	0.1578
305.3046	0.1599
305.5164	0.1621
305.7283	0.1503
305.9401	0.1549
306.152	0.1534
306.3638	0.1591
306.5756	0.1427
306.7874	0.1547
306.9992	0.1605
307.2109	0.1395
307.4227	0.1378
307.6344	0.152
307.8462	0.1413
308.0579	0.1341
308.2696	0.1495
308.4813	0.1394
308.693	0.127
308.9046	0.1375
309.1163	0.1293
309.328	0.1343
309.5396	0.1288
309.7512	0.1226
309.9628	0.1232
310.1744	0.1269
310.386	0.1234
310.5976	0.1204
310.8091	0.124
311.0207	0.1165
311.2322	0.1196
311.4437	0.1221
311.6552	0.1269
311.8667	0.1234
312.0782	0.1018
312.2897	0.1052
312.5012	0.1218
312.7126	0.1006
312.924	0.1076
313.1355	0.1187
313.3469	0.1028
313.5583	0.105
313.7696	0.122
313.981	0.1052
314.1924	0.1038
314.4037	0.1015
314.6151	0.1112
314.8264	0.0906
315.0377	0.1
315.249	0.1065
315.4603	0.1076
315.6716	0.1065
315.8828	0.0895
316.0941	0.0955
316.3053	0.0967
316.5165	0.0891
316.7277	0.0915
316.9389	0.0951
317.1501	0.0961
317.3613	0.1008
317.5724	0.1011
317.7836	0.1045
317.9947	0.101
318.2058	0.0939
318.417	0.0939
318.6281	0.0921
318.8391	0.095
319.0502	0.0924
319.2613	0.1013
319.4723	0.1068
319.6834	0.1105
319.8944	0.1032
320.1054	0.0993
320.3164	0.0987
320.5274	0.0942
320.7383	0.0989
320.9493	0.0971
321.1602	0.1051
321.3712	0.0974
321.5821	0.1008
321.793	0.1064
322.0039	0.1068
322.2148	0.0954
322.4257	0.0982
322.6365	0.1018
322.8474	0.1082
323.0582	0.0998
323.269	0.1101
323.4798	0.1114
323.6906	0.1057
323.9014	0.0993
324.1122	0.1029
324.3229	0.1003
324.5337	0.1016
324.7444	0.0944
324.9551	0.1067
325.1658	0.1138
325.3765	0.0989
325.5872	0.1091
325.7979	0.1
326.0085	0.1051
326.2192	0.1008
326.4298	0.1063
326.6404	0.0887
326.851	0.0984
327.0616	0.1003
327.2722	0.1052
327.4828	0.1114
327.6933	0.1042
327.9039	0.1079
328.1144	0.1063
328.3249	0.1036
328.5354	0.101
328.7459	0.1095
328.9564	0.1005
329.1669	0.1005
329.3773	0.1102
329.5878	0.0895
329.7982	0.1052
330.0086	0.1049
330.219	0.107
330.4294	0.0931
330.6398	0.105
330.8502	0.0948
331.0605	0.1135
331.2708	0.105
331.4812	0.0977
331.6915	0.1063
331.9018	0.1129
332.1121	0.0947
332.3224	0.1177
332.5326	0.1156
332.7429	0.1099
332.9531	0.1193
333.1633	0.1185
333.3735	0.106
333.5837	0.1078
333.7939	0.1026
334.0041	0.1108
334.2143	0.1087
334.4244	0.112
334.6346	0.0838
334.8447	0.1261
335.0548	0.1043
335.2649	0.1041
335.475	0.1081
335.685	0.1106
335.8951	0.1179
336.1051	0.0983
336.3152	0.1122
336.5252	0.0997
336.7352	0.1213
336.9452	0.1076
337.1552	0.1179
337.3652	0.1008
337.5751	0.1165
337.7851	0.1187
337.995	0.1063
338.2049	0.1211
338.4148	0.115
338.6247	0.1214
338.8346	0.118
339.0445	0.1054
339.2543	0.0988
339.4642	0.1228
339.674	0.1034
339.8838	0.1199
340.0936	0.1161
340.3034	0.1234
340.5132	0.1177
340.7229	0.1117
340.9327	0.1087
341.1424	0.1107
341.3522	0.1229
341.5619	0.1194
341.7716	0.1239
341.9813	0.1054
342.1909	0.1153
342.4006	0.1253
342.6102	0.1276
342.8199	0.1277
343.0295	0.123
343.2391	0.1171
343.4487	0.129
343.6583	0.1195
343.8679	0.1215
344.0774	0.1276
344.287	0.1332
344.4965	0.1191
344.706	0.1264
344.9155	0.1293
345.125	0.1257
345.3345	0.1455
345.544	0.1342
345.7534	0.1346
345.9629	0.1226
346.1723	0.1195
346.3817	0.1191
346.5911	0.1264
346.8005	0.1277
347.0099	0.1326
347.2193	0.14
347.4286	0.1446
347.638	0.1276
347.8473	0.1385
348.0566	0.1351
348.2659	0.141
348.4752	0.1426
348.6845	0.1271
348.8937	0.1237
349.103	0.1345
349.3122	0.1268
349.5214	0.1233
349.7306	0.1398
349.9398	0.1365
350.149	0.1409
350.3582	0.1365
350.5674	0.1691
350.7765	0.1446
350.9856	0.1319
351.1948	0.1412
351.4039	0.1271
351.613	0.129
351.822	0.1403
352.0311	0.1465
352.2402	0.1353
352.4492	0.1495
352.6582	0.1486
352.8672	0.1375
353.0762	0.1502
353.2852	0.1363
353.4942	0.1349
353.7032	0.1577
353.9121	0.1487
354.1211	0.154
354.33	0.1474
354.5389	0.1536
354.7478	0.1447
354.9567	0.1421
355.1655	0.1445
355.3744	0.1523
355.5833	0.1653
355.7921	0.1694
356.0009	0.1476
356.2097	0.165
356.4185	0.166
356.6273	0.1517
356.8361	0.1629
357.0448	0.1517
357.2536	0.1528
357.4623	0.1593
357.671	0.1651
357.8797	0.1547
358.0884	0.1582
358.2971	0.1647
358.5057	0.1613
358.7144	0.1618
358.923	0.1708
359.1316	0.1684
359.3402	0.1671
359.5488	0.1699
359.7574	0.1653
359.966	0.1713
360.1746	0.1752
360.3831	0.1796
360.5916	0.1683
360.8002	0.1609
361.0087	0.1867
361.2172	0.1656
361.4256	0.1697
361.6341	0.1874
361.8426	0.1885
362.051	0.1762
362.2594	0.1824
362.4678	0.1807
362.6762	0.1954
362.8846	0.1893
363.093	0.1702
363.3014	0.1814
363.5097	0.1656
363.718	0.1718
363.9264	0.1713
364.1347	0.1744
364.343	0.2019
364.5513	0.2054
364.7595	0.2025
364.9678	0.1881
365.176	0.1994
365.3842	0.1893
365.5925	0.1958
365.8007	0.21
366.0089	0.2035
366.217	0.1775
366.4252	0.2034
366.6333	0.2056
366.8415	0.1998
367.0496	0.182
367.2577	0.2054
367.4658	0.2164
367.6739	0.1986
367.882	0.2065
368.09	0.2004
368.2981	0.1986
368.5061	0.186
368.7141	0.1998
368.9221	0.2153
369.1301	0.2079
369.3381	0.217
369.5461	0.2249
369.754	0.2086
369.962	0.1978
370.1699	0.2182
370.3778	0.2214
370.5857	0.1979
370.7936	0.2182
371.0015	0.2182
371.2093	0.2245
371.4172	0.238
371.625	0.2159
371.8328	0.2204
372.0406	0.2293
372.2484	0.2269
372.4562	0.2273
372.664	0.2186
372.8717	0.2277
373.0795	0.195
373.2872	0.2256
373.4949	0.2183
373.7026	0.2229
373.9103	0.2228
374.118	0.222
374.3256	0.221
374.5333	0.2099
374.7409	0.2184
374.9485	0.2225
375.1561	0.2255
375.3637	0.245
375.5713	0.2453
375.7789	0.2273
375.9864	0.2374
376.194	0.2169
376.4015	0.2385
376.609	0.2381
376.8165	0.2318
377.024	0.232
377.2315	0.2428
377.4389	0.2383
377.6464	0.2643
377.8538	0.2306
378.0612	0.2371
378.2686	0.2265
378.476	0.2567
378.6834	0.2398
378.8908	0.2507
379.0981	0.2456
379.3055	0.2482
379.5128	0.2366
379.7201	0.2447
379.9274	0.2429
380.1347	0.2471
380.342	0.2551
380.5492	0.2452
380.7565	0.2736
380.9637	0.247
381.1709	0.2543
381.3781	0.2405
381.5853	0.2605
381.7925	0.2642
381.9997	0.2704
382.2068	0.2678
382.4139	0.2589
382.6211	0.2566
382.8282	0.2518
383.0353	0.2559
383.2424	0.2536
383.4494	0.2694
383.6565	0.2526
383.8635	0.259
384.0706	0.263
384.2776	0.2516
384.4846	0.2391
384.6916	0.2656
384.8986	0.2557
385.1055	0.2422
385.3125	0.2573
385.5194	0.2565
385.7263	0.2638
385.9333	0.2551
386.1402	0.2561
386.347	0.2566
386.5539	0.2595
386.7608	0.2674
386.9676	0.2409
387.1744	0.2382
387.3813	0.2481
387.5881	0.2442
387.7948	0.2368
388.0016	0.2663
388.2084	0.2615
388.4151	0.2334
388.6219	0.2551
388.8286	0.2622
389.0353	0.2771
389.242	0.2502
389.4487	0.2275
389.6553	0.2397
389.862	0.2234
390.0686	0.2462
390.2753	0.2336
390.4819	0.2539
390.6885	0.2393
390.8951	0.2346
391.1016	0.2519
391.3082	0.2242
391.5147	0.2407
391.7213	0.2403
391.9278	0.2448
392.1343	0.2252
392.3408	0.2399
392.5473	0.235
392.7537	0.2411
392.9602	0.2292
393.1666	0.2314
393.373	0.2365
393.5794	0.2381
393.7858	0.223
393.9922	0.2196
394.1986	0.2123
394.4049	0.2343
394.6113	0.2176
394.8176	0.2304
395.0239	0.2217
395.2302	0.2149
395.4365	0.2251
395.6428	0.2242
395.8491	0.1999
396.0553	0.2212
396.2615	0.2212
396.4678	0.218
396.674	0.192
396.8802	0.2198
397.0863	0.2222
397.2925	0.2157
397.4987	0.2179
397.7048	0.22
397.9109	0.208
398.117	0.1974
398.3231	0.2099
398.5292	0.2228
398.7353	0.2149
398.9413	0.2085
399.1474	0.2155
399.3534	0.2057
399.5594	0.1962
399.7654	0.2298
399.9714	0.2208
400.1774	0.1989
400.3833	0.2135
400.5893	0.2084
400.7952	0.2174
401.0011	0.2081
401.207	0.2219
401.4129	0.2124
401.6188	0.2075
401.8247	0.2326
402.0305	0.2183
402.2364	0.2007
402.4422	0.2148
402.648	0.2112
402.8538	0.2243
403.0596	0.2044
403.2654	0.2122
403.4711	0.1934
403.6768	0.2206
403.8826	0.2303
404.0883	0.2125
404.294	0.2162
404.4997	0.2105
404.7054	0.2142
404.911	0.2116
405.1167	0.2072
405.3223	0.2148
405.5279	0.2158
405.7335	0.2214
405.9391	0.2231
406.1447	0.2162
406.3502	0.2344
406.5558	0.2061
406.7613	0.2315
406.9668	0.2184
407.1724	0.2019
407.3778	0.1996
407.5833	0.2136
407.7888	0.2149
407.9942	0.2268
408.1997	0.2082
408.4051	0.2181
408.6105	0.2158
408.8159	0.1953
409.0213	0.1993
409.2267	0.2255
409.432	0.1967
409.6374	0.2257
409.8427	0.2129
410.048	0.2044
410.2533	0.2002
410.4586	0.2126
410.6639	0.2045
410.8691	0.1917
411.0744	0.1988
411.2796	0.1821
411.4848	0.2082
411.69	0.2134
411.8952	0.2197
412.1004	0.19
412.3056	0.2078
412.5107	0.1831
412.7158	0.2135
412.921	0.2033
413.1261	0.197
413.3312	0.2014
413.5362	0.223
413.7413	0.2007
413.9464	0.2042
414.1514	0.1869
414.3564	0.2237
414.5614	0.1882
414.7664	0.2089
414.9714	0.2023
415.1764	0.2151
415.3813	0.2128
415.5863	0.2085
415.7912	0.2007
415.9961	0.2047
416.201	0.199
416.4059	0.2252
416.6108	0.2133
416.8156	0.2034
417.0205	0.1771
417.2253	0.1887
417.4301	0.2066
417.6349	0.1855
417.8397	0.1925
418.0445	0.2159
418.2492	0.2061
418.454	0.2087
418.6587	0.1938
418.8634	0.2031
419.0681	0.1877
419.2728	0.1771
419.4775	0.1832
419.6822	0.192
419.8868	0.1896
420.0915	0.2072
420.2961	0.1662
420.5007	0.1857
420.7053	0.1866
420.9099	0.1987
421.1144	0.1887
421.319	0.1948
421.5235	0.1923
421.728	0.1898
421.9325	0.1852
422.137	0.2084
422.3415	0.1844
422.546	0.1957
422.7504	0.1646
422.9549	0.1848
423.1593	0.1851
423.3637	0.1918
423.5681	0.1787
423.7725	0.1625
423.9769	0.1764
424.1812	0.1841
424.3856	0.1836
424.5899	0.187
424.7942	0.1864
424.9985	0.1784
425.2028	0.1809
425.4071	0.1858
425.6113	0.161
425.8156	0.1554
426.0198	0.1819
426.224	0.1607
426.4282	0.1768
426.6324	0.1762
426.8366	0.1655
427.0407	0.162
427.2449	0.1588
427.449	0.1747
427.6531	0.1374
427.8572	0.1638
428.0613	0.1498
428.2654	0.1523
428.4694	0.1518
428.6735	0.1556
428.8775	0.1756
429.0815	0.1657
429.2855	0.1589
429.4895	0.1601
429.6935	0.1622
429.8975	0.1721
430.1014	0.1399
430.3053	0.1399
430.5093	0.1476
430.7132	0.1307
430.9171	0.1456
431.1209	0.1395
431.3248	0.1275
431.5286	0.1371
431.7325	0.142
431.9363	0.1271
432.1401	0.1367
432.3439	0.112
432.5477	0.1209
432.7514	0.1182
432.9552	0.1318
433.1589	0.1138
433.3627	0.1178
433.5664	0.1132
433.7701	0.1119
433.9737	0.1039
434.1774	0.1177
434.3811	0.1086
434.5847	0.1284
434.7883	0.1123
434.9919	0.1082
435.1955	0.1082
435.3991	0.1081
435.6027	0.1133
435.8062	0.0947
436.0098	0.0874
436.2133	0.1153
436.4168	0.1057
436.6203	0.0969
436.8238	0.0968
437.0272	0.0972
437.2307	0.0916
437.4341	0.0939
437.6375	0.1131
437.841	0.0904
438.0443	0.0874
438.2477	0.0965
438.4511	0.0691
438.6545	0.0969
438.8578	0.0921
439.0611	0.094
439.2644	0.0867
439.4677	0.0887
439.671	0.0682
439.8743	0.0857
440.0775	0.0791
440.2808	0.0738
440.484	0.0582
440.6872	0.0617
440.8904	0.0582
441.0936	0.0802
441.2967	0.0695
441.4999	0.0734
441.703	0.0603
441.9062	0.0556
442.1093	0.0676
442.3124	0.0585
442.5155	0.0525
442.7185	0.0743
442.9216	0.0352
443.1246	0.0716
443.3276	0.052
443.5307	0.0545
443.7337	0.065
443.9366	0.0633
444.1396	0.0507
444.3426	0.0591
444.5455	0.0477
444.7484	0.0403
444.9513	0.0412
445.1542	0.0507
445.3571	0.0531
445.56	0.0506
445.7628	0.0381
445.9657	0.037
446.1685	0.0375
446.3713	0.0325
446.5741	0.0467
446.7769	0.0324
446.9797	0.0375
447.1824	0.0397
447.3852	0.0264
447.5879	0.0414
447.7906	0.0536
447.9933	0.038
448.196	0.038
448.3986	0.0224
448.6013	0.0262
448.8039	0.0228
449.0066	0.0311
449.2092	0.0302
449.4118	0.0391
449.6143	0.0224
449.8169	0.0281
450.0195	0.0281
450.222	0.0084
450.4245	0.0231
450.627	0.023
450.8295	0.0252
451.032	0.0369
451.2345	0.0377
451.4369	0.0275
451.6394	0.0251
451.8418	0.0089
452.0442	0.0153
452.2466	0.0326
452.449	-0.0067
452.6513	0.0164
452.8537	0.017
453.056	-0.0071
453.2583	0.015
453.4607	0.0077
453.663	0.0238
453.8652	0.0296
454.0675	0.0062
454.2697	0.0214
454.472	0.001
454.6742	0.0162
454.8764	0.0148
455.0786	0.0322
455.2808	0.0206
455.4829	0.0126
455.6851	0.014
455.8872	0.0166
456.0893	0.0256
456.2915	-0.0041
456.4935	0.0145
456.6956	0.0117
456.8977	0.015
457.0997	0.0096
457.3018	-0.0002
457.5038	0.0089
457.7058	0.0067
457.9078	-0.0112
458.1098	-0.0002
458.3117	0.0051
458.5137	0.0087
458.7156	0.0142
458.9175	0.0053
459.1194	0.0089
459.3213	-0.0014
459.5232	-0.0009
459.725	-0.0044
459.9269	-0.0067
460.1287	-0.0049
460.3305	0.007
460.5323	0.0047
460.7341	0.0117
460.9359	0.0068
461.1376	0.0199
461.3394	0.0019
461.5411	0.0008
461.7428	-0.0056
461.9445	0.0111
462.1462	0.0265
462.3479	0.0127
462.5495	0.0132
462.7512	0.0113
462.9528	-0.0032
463.1544	-0.0174
463.356	0.0013
463.5576	0.0085
463.7592	-0.0081
463.9607	0.005
464.1623	0.0142
464.3638	0.0149
464.5653	-0.0076
464.7668	-0.0047
464.9683	0.0121
465.1697	0.0095
465.3712	-0.0083
465.5726	-0.0025
465.7741	-0.0018
465.9755	-0.0176
466.1769	-0.0083
466.3782	-0.0001
466.5796	-0.0118
466.7809	0.0089
466.9823	-0.0199
467.1836	0.0011
467.3849	-0.0087
467.5862	0.0041
467.7875	-0.0025
467.9887	0.0113
468.19	0.0053
468.3912	-0.02
468.5924	-0.0058
468.7936	0.0054
468.9948	-0.0157
469.196	0.0065
469.3972	-0.0025
469.5983	0.0037
469.7994	-0.0191
470.0006	-0.0014
470.2017	-0.0147
470.4027	-0.017
470.6038	0.0023
470.8049	-0.0219
471.0059	-0.0012
471.2069	-0.0307
471.408	0.0053
471.6089	0.0099
471.8099	0.0039
472.0109	-0.0009
472.2119	-0.0083
472.4128	-0.0213
472.6137	-0.0002
472.8146	-0.0216
473.0155	-0.0057
473.2164	-0.0078
473.4173	0.0027
473.6181	0.0049
473.819	-0.0002
474.0198	-0.0083
474.2206	-0.0135
474.4214	-0.0067
474.6222	-0.0049
474.8229	-0.0077
475.0237	-0.0135
475.2244	-0.0094
475.4251	-0.0058
475.6258	-0.0137
475.8265	0.0001
476.0272	0.0061
476.2278	0.0027
476.4285	-0.0048
476.6291	-0.0191
476.8297	-0.0072
477.0303	-0.0155
477.2309	-0.0093
477.4315	-0.0146
477.632	-0.0157
477.8326	-0.0171
478.0331	0.0044
478.2336	0.0019
478.4341	-0.0029
478.6346	-0.0129
478.8351	-0.0098
479.0355	0.003
479.236	-0.0127
479.4364	-0.0125
479.6368	-0.0058
479.8372	-0.0108
480.0376	-0.0201
480.2379	-0.0216
480.4383	-0.0117
480.6386	-0.0071
480.8389	-0.0156
481.0392	-0.0149
481.2395	-0.015
481.4398	0.0066
481.6401	-0.002
481.8403	-0.0004
482.0405	-0.0183
482.2408	-0.0149
482.441	0.0025
482.6411	-0.0116
482.8413	-0.0041
483.0415	-0.0116
483.2416	-0.0199
483.4417	0.0006
483.6419	-0.0115
483.8419	-0.0146
484.042	0.0048
484.2421	0.0138
484.4422	-0.0017
484.6422	-0.0055
484.8422	-0.011
485.0422	-0.0166
485.2422	-0.0051
485.4422	-0.024
485.6422	-0.0223
485.8421	-0.0067
486.042	-0.0046
486.242	-0.0132
486.4419	-0.008
486.6417	-0.0058
486.8416	-0.0008
487.0415	-0.0099
487.2413	-0.0142
487.4411	-0.0146
487.641	-0.018
487.8408	0.0023
488.0405	-0.0103
488.2403	-0.0138
488.4401	0.0034
488.6398	-0.0036
488.8395	-0.0114
489.0392	-0.0093
489.2389	-0.0168
489.4386	-0.0124
489.6383	-0.0054
489.8379	-0.0053
490.0376	-0.0132
490.2372	-0.0102
490.4368	-0.0107
490.6364	-0.0074
490.836	-0.0135
491.0355	-0.0018
491.2351	-0.0155
491.4346	-0.0097
491.6341	-0.0237
491.8336	-0.0059
492.0331	-0.0185
492.2326	-0.0249
492.432	-0.0018
492.6315	-0.0118
492.8309	-0.0209
493.0303	-0.0177
493.2297	-0.0077
493.4291	-0.003
493.6284	-0.0093
493.8278	-0.0047
494.0271	-0.0049
494.2264	-0.008
494.4257	-0.0124
494.625	-0.0088
494.8243	-0.0217
495.0236	-0.0139
495.2228	-0.0155
495.422	-0.0083
495.6213	-0.0072
495.8205	-0.0096
496.0196	-0.0103
496.2188	0.008
496.418	-0.02
496.6171	-0.0095
496.8162	-0.0155
497.0153	-0.005
497.2144	-0.0119
497.4135	-0.0065
497.6126	-0.0192
497.8116	-0.0228
498.0107	-0.003
498.2097	-0.0238
498.4087	-0.0105
498.6077	-0.0116
498.8067	-0.0127
499.0056	-0.0045
499.2046	-0.0164
499.4035	-0.0235
499.6024	-0.0065
499.8013	-0.0047
500.0002	-0.0164
500.199	-0.0059
500.3979	-0.0195
500.5967	-0.0168
500.7956	-0.0085
500.9944	-0.0123
501.1932	-0.0167
501.3919	-0.0133
501.5907	-0.0148
501.7895	-0.0096
501.9882	-0.0166
502.1869	-0.0198
502.3856	-0.0155
502.5843	-0.0199
502.783	-0.0227
502.9816	-0.0085
503.1803	-0.0195
503.3789	-0.0197
503.5775	-0.0024
503.7761	-0.011
503.9747	-0.0122
504.1732	-0.0118
504.3718	-0.0068
504.5703	-0.01
504.7689	-0.0175
504.9674	-0.0092
505.1658	-0.0269
505.3643	-0.0128
505.5628	-0.0119
505.7612	-0.0187
505.9597	0.0025
506.1581	-0.0186
506.3565	0.0036
506.5549	-0.0214
506.7532	-0.0192
506.9516	-0.0124
507.1499	-0.001
507.3482	-0.0206
507.5465	-0.0184
507.7448	-0.0131
507.9431	-0.0063
508.1414	-0.0138
508.3396	-0.003
508.5379	-0.0086
508.7361	-0.0126
508.9343	-0.006
509.1325	-0.0027
509.3306	-0.0117
509.5288	-0.0027
509.7269	-0.0059
509.9251	-0.0001
510.1232	-0.0202
510.3213	-0.0062
510.5193	-0.0027
510.7174	-0.0225
510.9154	-0.0197
511.1135	-0.0141
511.3115	-0.0238
511.5095	-0.0209
511.7075	-0.0088
511.9055	-0.01
512.1034	-0.0314
512.3014	-0.0075
512.4993	-0.0059
512.6972	-0.0177
512.8951	-0.0227
513.093	-0.0065
513.2908	0.0004
513.4887	-0.0051
513.6865	-0.0076
513.8844	-0.0078
514.0822	-0.0072
514.2799	-0.0168
514.4777	-0.014
514.6755	-0.0171
514.8732	-0.0152
515.0709	-0.0116
515.2687	-0.015
515.4664	-0.0067
515.664	-0.0056
515.8617	-0.0102
516.0594	-0.0184
516.257	-0.0015
516.4546	-0.0208
516.6522	-0.0044
516.8498	-0.0081
517.0474	-0.0078
517.2449	-0.0131
517.4425	-0.0198
517.64	-0.0174
517.8375	-0.0082
518.035	-0.0105
518.2325	-0.0169
518.43	-0.0154
518.6274	-0.015
518.8249	-0.0191
519.0223	-0.0117
519.2197	-0.0201
519.4171	-0.013
519.6145	-0.0147
519.8118	-0.0054
520.0092	-0.0103
520.2065	-0.0106
520.4038	-0.0157
520.6011	-0.0046
520.7984	-0.0201
520.9956	-0.0198
521.1929	-0.0114
521.3901	-0.0013
521.5874	-0.0133
521.7846	-0.0069
521.9818	-0.0096
522.1789	-0.0186
522.3761	-0.0104
522.5732	-0.0152
522.7704	-0.0244
522.9675	-0.0088
523.1646	-0.0088
523.3617	-0.0068
523.5587	-0.009
523.7558	-0.0086
523.9528	-0.0134
524.1498	-0.0143
524.3468	-0.0116
524.5438	-0.0193
524.7408	-0.0151
524.9378	-0.0061
525.1347	-0.0089
525.3316	-0.0081
525.5285	-0.016
525.7254	-0.0119
525.9223	-0.0124
526.1192	-0.0121
526.316	-0.0213
526.5129	-0.0044
526.7097	-0.009
526.9065	-0.0108
527.1033	-0.0192
527.3	-0.0108
527.4968	-0.0114
527.6935	-0.0125
527.8903	-0.0218
528.087	-0.0072
528.2837	-0.0081
528.4804	-0.0053
528.677	-0.0167
528.8737	0.0004
529.0703	-0.0033
529.2669	-0.0039
529.4635	-0.0062
529.6601	-0.0056
529.8567	-0.0129
530.0532	-0.004
530.2498	-0.0007
530.4463	-0.0005
530.6428	-0.0123
530.8393	0.004
531.0358	-0.008
531.2322	-0.0172
531.4287	-0.0215
531.6251	-0.0139
531.8215	-0.0105
532.0179	-0.0068
532.2143	-0.0035
532.4107	-0.0154
532.607	-0.0146
532.8034	0.0006
532.9997	-0.0074
533.196	-0.0055
533.3923	-0.0093
533.5886	-0.0091
533.7848	-0.0144
533.9811	0.0031
534.1773	-0.0014
534.3735	-0.0095
534.5697	-0.0077
534.7659	-0.0009
534.9621	-0.0089
535.1582	-0.0105
535.3544	-0.0138
535.5505	-0.0143
535.7466	-0.0031
535.9427	-0.0128
536.1387	-0.0106
536.3348	-0.0158
536.5308	0.0004
536.7269	-0.024
536.9229	-0.0058
537.1189	-0.0067
537.3148	0.0002
537.5108	-0.0126
537.7068	-0.0083
537.9027	-0.0005
538.0986	-0.0173
538.2945	-0.0119
538.4904	-0.0124
538.6863	-0.0121
538.8821	-0.0042
539.078	-0.0085
539.2738	-0.0017
539.4696	-0.0129
539.6654	-0.0022
539.8611	0.0051
540.0569	-0.0088
540.2526	-0.0144
540.4484	-0.0006
540.6441	0.0062
540.8398	-0.0039
541.0355	0.0013
541.2311	-0.0086
541.4268	-0.013
541.6224	-0.0054
541.818	-0.0069
542.0136	-0.0099
542.2092	-0.0003
542.4048	-0.0001
542.6003	-0.0077
542.7959	-0.0112
542.9914	0.0063
543.1869	-0.0072
543.3824	-0.0072
543.5779	-0.0111
543.7734	-0.0054
543.9688	-0.0178
544.1642	-0.0118
544.3596	-0.0052
544.555	-0.0102
544.7504	-0.0074
544.9458	-0.0116
545.1411	-0.0028
545.3365	-0.0019
545.5318	-0.0044
545.7271	-0.0043
545.9224	-0.013
546.1177	0.0036
546.3129	0.0045
546.5081	-0.0118
546.7034	-0.0037
546.8986	-0.0058
547.0938	0.001
547.289	-0.0096
547.4841	-0.0003
547.6793	-0.0049
547.8744	-0.0105
548.0695	-0.004
548.2646	-0.012
548.4597	0.0011
548.6548	-0.0035
548.8498	0.0047
549.0448	-0.0058
549.2399	-0.0089
549.4349	0.0111
549.6298	-0.0036
549.8248	-0.0029
550.0198	-0.0017
550.2147	0.0019
550.4096	-0.0124
550.6045	-0.0019
550.7994	-0.0013
550.9943	-0.0028
551.1892	-0.0146
551.384	0.0002
551.5788	-0.0154
551.7737	0.0028
551.9685	-0.0037
552.1632	0.0011
552.358	-0.0048
552.5528	0.0051
552.7475	-0.0071
552.9422	-0.0018
553.1369	-0.0043
553.3316	0.0017
553.5263	-0.011
553.7209	-0
553.9156	-0.0019
554.1102	-0.0047
554.3048	-0.0005
554.4994	-0.0031
554.694	-0.0103
554.8885	0.0016
555.0831	-0.0111
555.2776	-0.008
555.4721	-0.0118
555.6666	-0.0038
555.8611	0.0025
556.0555	-0.0027
556.25	-0.0038
556.4444	-0.0128
556.6388	-0.002
556.8332	-0.0043
557.0276	-0.0062
557.222	-0.0073
557.4163	-0.0021
557.6107	-0.0099
557.805	0.0084
557.9993	-0.0017
558.1936	-0.0068
558.3879	-0.0104
558.5821	-0.0007
558.7764	-0.0038
558.9706	-0.0016
559.1648	0.0055
559.359	-0.0055
559.5532	-0.015
559.7473	0.0045
559.9415	-0.0128
560.1356	-0.0036
560.3297	-0.0019
560.5238	-0.0062
560.7179	-0.0095
560.9119	-0.0052
561.106	0.0024
561.3	-0.0123
561.494	-0.0025
561.688	-0.0078
561.882	-0.0099
562.076	0.0014
562.2699	0.0019
562.4639	-0.0012
562.6578	-0.0039
562.8517	0.0054
563.0456	0.0003
563.2395	-0.0059
563.4333	0.002
563.6272	0.0048
563.821	-0.0038
564.0148	-0.002
564.2086	-0.0116
564.4024	-0.0102
564.5961	-0.003
564.7899	-0.0017
564.9836	-0.0056
565.1773	-0.011
565.371	0.0028
565.5647	0.0035
565.7584	-0.0007
565.952	-0.0035
566.1456	0.0008
566.3393	-0.0073
566.5329	-0.012
566.7264	-0.0049
566.92	-0.0104
567.1136	0.006
567.3071	0.0008
567.5006	-0.0028
567.6941	0.0026
567.8876	-0.008
568.0811	0.0018
568.2745	-0.0023
568.468	-0.0035
568.6614	-0.0012
568.8548	-0.0022
569.0482	-0.0083
569.2416	-0.0012
569.4349	-0.0011
569.6283	0.006
569.8216	-0.0073
570.0149	-0.0072
570.2082	0.0062
570.4015	0.0038
570.5947	0.0049
570.788	-0.0042
570.9812	0.0032
571.1744	-0.0069
571.3676	-0.002
571.5608	-0.0007
571.754	0.0037
571.9471	0.0013
572.1402	-0.0002
572.3333	-0.0015
572.5264	-0.0046
572.7195	-0.0047
572.9126	0.0053
573.1057	-0.0028
573.2987	-0.0054
573.4917	0.0022
573.6847	-0.0111
573.8777	0.0058
574.0707	0.0054
574.2636	-0.0023
574.4566	-0.0039
574.6495	0.0051
574.8424	-0.0058
575.0353	-0.0013
575.2281	0.0075
575.421	-0.0031
575.6138	0.0029
575.8067	-0.0052
575.9995	0.0043
576.1923	0.0038
576.385	0.0019
576.5778	-0.0032
576.7706	-0.0066
576.9633	0.0027
577.156	0.0049
577.3487	0.0021
577.5414	-0.0005
577.734	-0.007
577.9267	-0.0021
578.1193	-0.0079
578.3119	-0.0057
578.5045	0.0034
578.6971	0.0024
578.8897	0.0059
579.0822	0.0003
579.2747	0.0011
579.4673	-0.0054
579.6598	0.0029
579.8522	0.0005
580.0447	0.0001
580.2372	0.0027
580.4296	0.0043
580.622	-0.002
580.8144	0.0026
581.0068	-0.0072
581.1992	-0.0147
581.3915	-0.0072
581.5839	-0.0063
581.7762	-0.0085
581.9685	-0.0019
582.1608	0.0128
582.353	-0.0048
582.5453	0.0053
582.7375	0.0046
582.9298	0.0037
583.122	0.0032
583.3142	-0.0055
583.5063	-0.0004
583.6985	-0.0012
583.8906	-0.0038
584.0827	-0.0015
584.2749	0.0035
584.4669	0.0055
584.659	-0.0014
584.8511	-0.0037
585.0431	-0.005
585.2352	0.0078
585.4272	0.0029
585.6192	0.0046
585.8111	-0.0038
586.0031	0
586.195	0.0008
586.387	0.0047
586.5789	0.0003
586.7708	0.0018
586.9627	-0.0017
587.1545	-0.0091
587.3464	0.0032
587.5382	0.004
587.73	0.0112
587.9218	0.0021
588.1136	-0.0023
588.3053	0.0046
588.4971	-0.0051
588.6888	-0.0052
588.8805	-0.003
589.0722	0.0014
589.2639	0.0004
589.4556	0.0024
589.6472	-0.0007
589.8389	-0.0115
590.0305	-0.0126
590.2221	0.0049
590.4137	-0.0055
590.6052	0.0083
590.7968	-0.0049
590.9883	0.0031
591.1798	-0.0018
591.3713	0.0024
591.5628	0.0054
591.7543	0.0052
591.9458	-0.0034
592.1372	0.0065
592.3286	0.0117
592.52	0.0006
592.7114	0.0015
592.9028	-0.0014
593.0941	0.0025
593.2855	-0.0035
593.4768	-0.0061
593.6681	-0.0016
593.8594	0.0008
594.0506	-0.001
594.2419	0.0121
594.4331	0.0034
594.6244	0.0053
594.8156	-0.0062
595.0067	0.0007
595.1979	-0.0036
595.3891	0.0044
595.5802	-0.0045
595.7713	-0.0038
595.9624	-0.0069
596.1535	0.0025
596.3446	-0.0029
596.5357	-0.0064
596.7267	0.0056
596.9177	-0.0033
597.1087	-0.0022
597.2997	0.002
597.4907	-0
597.6817	-0.0044
597.8726	-0.001
598.0635	-0.0032
598.2544	0.004
598.4453	-0.0052
598.6362	-0.0066
598.827	-0.0019
599.0179	0.0009
599.2087	0.0005
599.3995	0.0065
599.5903	0.0059
599.7811	0.0009
599.9718	-0.0011
600.1626	0.0003
600.3533	-0.0045
600.544	-0.0005
600.7347	0.0003
600.9254	0.0044
601.116	-0.008
601.3067	-0.0011
601.4973	-0.0056
601.6879	-0.0041
601.8785	-0.0093
602.0691	0.0038
602.2596	0.001
602.4502	0.001
602.6407	0.0006
602.8312	-0.002
603.0217	-0.005
603.2122	-0.0027
603.4027	0.0038
603.5931	-0.0095
603.7835	-0.0067
603.9739	-0.0004
604.1643	-0.0083
604.3547	-0.0011
604.5451	0.0017
604.7354	-0.0044
604.9257	-0.0002
605.116	-0.0041
605.3063	0.0044
605.4966	0.0033
605.6869	-0.0003
605.8771	0.0063
606.0673	0.0082
606.2575	-0.0015
606.4477	0.0066
606.6379	-0.0017
606.8281	-0.0039
607.0182	-0.005
607.2083	0.015
607.3985	0.0004
607.5885	0.0033
607.7786	0.0021
607.9687	0.0016
608.1587	0.01
608.3488	0.0056
608.5388	0.0054
608.7288	-0.0063
608.9187	-0.0032
609.1087	-0.003
609.2986	-0.0063
609.4886	-0.0013
609.6785	0.0026
609.8684	0.0098
610.0582	0.0007
610.2481	-0.0001
610.4379	0.0028
610.6278	0.0011
610.8176	-0.004
611.0074	0.0006
611.1971	0.0012
611.3869	0.003
611.5766	-0.0101
611.7664	0.0079
611.9561	0.001
612.1458	0.0015
612.3354	-0.0058
612.5251	0.0018
612.7147	-0.0001
612.9044	0.0082
613.094	-0.0058
613.2836	0.0043
613.4731	-0.0007
613.6627	-0.0125
613.8522	0.0047
614.0417	0.0004
614.2313	-0.0079
614.4207	-0.0048
614.6102	-0.0002
614.7997	-0.0042
614.9891	-0.0007
615.1785	0.0024
615.3679	-0.0057
615.5573	0.0073
615.7467	-0.0025
615.9361	-0.0052
616.1254	-0.0022
616.3147	-0.0016
616.504	-0.002
616.6933	0.0028
616.8826	0.0011
617.0718	-0.0015
617.2611	0.003
617.4503	-0.0022
617.6395	-0.0017
617.8287	-0.0062
618.0179	-0.0003
618.207	0.0117
618.3961	0.0098
618.5853	0.0049
618.7744	0.0097
618.9634	0.0063
619.1525	0.0027
619.3416	0.0045
619.5306	0.0046
619.7196	0.0007
619.9086	-0.0049
620.0976	0.0045
620.2866	-0.0002
620.4755	0.0061
620.6645	0.0043
620.8534	0.0031
621.0423	0.0037
621.2312	0.0054
621.42	-0.0011
621.6089	-0.0042
621.7977	0.008
621.9865	-0.0059
622.1753	0.0019
622.3641	-0.0053
622.5529	0.0007
622.7416	0.0057
622.9303	-0.0022
623.1191	0.0111
623.3078	-0.0049
623.4964	0.0035
623.6851	0.0029
623.8737	-0.0045
624.0624	0.0062
624.251	0.0006
624.4396	0.0026
624.6282	-0.0054
624.8167	0.0073
625.0053	-0.0021
625.1938	0.0059
625.3823	0.0067
625.5708	0.0064
625.7593	-0.0055
625.9477	0.0004
626.1362	-0.0054
626.3246	0.0001
626.513	0.0001
626.7014	0.0054
626.8898	-0.0014
627.0781	0.0031
627.2665	-0.0012
627.4548	0.0027
627.6431	0.0087
627.8314	0.0033
628.0197	0.0082
628.2079	-0.0023
628.3962	0.0021
628.5844	0.0002
628.7726	0.0019
628.9608	0.0047
629.1489	0.0035
629.3371	0.0097
629.5252	0.0014
629.7134	0.0042
629.9015	-0.0032
630.0895	-0.0022
630.2776	0.01
630.4657	-0.0009
630.6537	0.0008
630.8417	0.0026
631.0297	-0.0026
631.2177	0.0003
631.4057	-0.0039
631.5936	0.0009
631.7815	-0.0028
631.9695	0.0036
632.1574	0.0078
632.3452	0.0115
632.5331	0.0006
632.7209	-0.002
632.9088	0.0134
633.0966	0.0137
633.2844	-0.0032
633.4722	0.0056
633.6599	0.0088
633.8477	0.0066
634.0354	0.0044
634.2231	0.0006
634.4108	0.0043
634.5985	0.0006
634.7861	0.0003
634.9738	0.0048
635.1614	-0.0021
635.349	-0.001
635.5366	0.0017
635.7242	0.0034
635.9117	-0.0015
636.0993	0.0006
636.2868	0.0108
636.4743	0.0024
636.6618	0.0155
636.8492	0.0053
637.0367	0.0019
637.2241	-0.0046
637.4115	-0.0066
637.5989	-0.0017
637.7863	-0.0025
637.9737	-0.002
638.161	-0.0014
638.3484	-0.0042
638.5357	0.0086
638.723	0.003
638.9103	0.0032
639.0975	0.0058
639.2848	0.0056
639.472	-0.003
639.6592	0.0066
639.8464	0.0107
640.0336	0.0083
640.2208	-0.0043
640.4079	0.0049
640.595	-0.0008
640.7821	0.001
640.9692	-0.0053
641.1563	0.0021
641.3434	-0.0021
641.5304	0.0053
641.7174	-0.011
641.9044	-0.0021
642.0914	-0.0033
642.2784	0.0053
642.4653	0.0005
642.6523	0.0026
642.8392	0.0001
643.0261	0.0078
643.213	0.0036
643.3999	-0.0046
643.5867	-0.003
643.7735	0.0015
643.9604	-0.0057
644.1472	-0.0041
644.3339	-0.0093
644.5207	-0.0022
644.7075	-0.0027
644.8942	0.0009
645.0809	-0.0008
645.2676	0.009
645.4543	0.0011
645.6409	0.0053
645.8276	-0.0016
646.0142	-0.0002
646.2008	-0.0115
646.3874	-0.0027
646.574	0.0025
646.7605	-0.0035
646.9471	-0.011
647.1336	-0.0044
647.3201	0.0006
647.5066	-0.0041
647.6931	0.0094
647.8795	-0.001
648.0659	0.0085
648.2524	0.0032
648.4388	-0.0073
648.6252	0.0052
648.8115	-0.0038
648.9979	-0.0046
649.1842	-0.0011
649.3705	0.006
649.5568	0.0003
649.7431	0.0035
649.9294	0.0012
650.1156	0.004
650.3018	-0.0094
650.488	0.004
650.6742	-0.0043
650.8604	-0.0005
651.0466	-0.0053
651.2327	0.002
651.4188	0.0001
651.6049	-0.0037
651.791	-0.001
651.9771	0.0028
652.1632	0.0019
652.3492	-0.0061
652.5352	-0.0011
652.7212	-0.0087
652.9072	0.004
653.0932	-0.0058
653.2791	-0.0003
653.465	0.0044
653.651	-0.0119
653.8369	-0.0054
654.0227	-0.004
654.2086	0.0013
654.3944	0.0011
654.5803	-0.0016
654.7661	-0.0044
654.9519	-0.0022
655.1377	-0.0022
655.3234	-0.0086
655.5092	-0.0046
655.6949	-0.0042
655.8806	-0.0028
656.0663	-0.0051
656.2519	-0.0014
656.4376	-0.0067
656.6232	-0.0033
656.8088	0.0028
656.9945	-0.0009
657.18	-0.0008
657.3656	0.0009
657.5511	-0.005
657.7367	-0.0045
657.9222	-0.0015
658.1077	-0.0022
658.2932	0.0048
658.4786	-0.0083
658.6641	-0.0004
658.8495	-0.001
659.0349	-0.0086
659.2203	-0.0024
659.4057	0.0003
659.591	-0.0011
659.7764	0.0001
659.9617	-0.0023
660.147	0.0013
660.3323	-0.0014
660.5176	0.0016
660.7028	0.0113
660.888	-0.0038
661.0733	0.0016
661.2585	-0.014
661.4436	-0.0044
661.6288	-0.0067
661.8139	-0.0005
661.9991	0.0047
662.1842	-0.0076
662.3693	0.0023
662.5544	-0.0033
662.7394	0.0021
662.9245	-0.0086
663.1095	-0.0026
663.2945	0.0008
663.4795	-0.0015
663.6644	0.0022
663.8494	0.0036
664.0343	0.002
664.2193	-0.007
664.4042	0.0002
664.589	-0.0067
664.7739	-0.0034
664.9587	-0.0043
665.1436	-0.0024
665.3284	0.0023
665.5132	-0.0082
665.698	0.0011
665.8827	0.0084
666.0675	-0.0017
666.2522	-0.003
666.4369	0.0052
666.6216	0.0039
666.8063	0
666.9909	-0.0001
667.1756	-0.0067
667.3602	0.0007
667.5448	0.002
667.7294	0.0025
667.9139	0.004
668.0985	0.0077
668.283	0.0035
668.4675	0.0063
668.652	0.0009
668.8365	-0.0023
669.0209	0.0077
669.2054	0.0129
669.3898	-0.0032
669.5742	0.0005
669.7586	0.0042
669.943	0.001
670.1273	0.0088
670.3117	0.008
670.496	0.006
670.6803	0.0135
670.8646	0.0027
671.0488	-0.0012
671.2331	0.0048
671.4173	0.0074
671.6015	-0.0003
671.7857	0.0018
671.9699	0.0044
672.1541	0.0028
672.3382	0.0041
672.5223	0.0053
672.7064	0.0026
672.8905	0.0102
673.0746	0.0066
673.2587	-0.0026
673.4427	0.0047
673.6267	0.0051
673.8107	0.0102
673.9947	0.0012
674.1787	-0.0025
674.3626	-0.0061
674.5465	0.0089
674.7304	-0.0004
674.9143	-0.0003
675.0982	0.0039
675.2821	-0.0049
675.4659	0.0086
675.6497	-0.0027
675.8335	0.0002
676.0173	0.0104
676.2011	0.0015
676.3849	0.007
676.5686	-0.002
676.7523	0.0069
676.936	-0.0031
677.1197	0.0023
677.3034	0.0025
677.487	0.0008
677.6706	0.0057
677.8542	0.0076
678.0378	-0.0003
678.2214	-0.0019
678.405	0.0024
678.5885	-0.0032
678.772	0.0019
678.9555	-0.0082
679.139	0.0007
679.3225	-0.0022
679.5059	-0.004
679.6894	0.0083
679.8728	0.0013
680.0562	-0.0084
680.2395	-0.0071
680.4229	-0.0016
680.6062	0.0021
680.7896	-0.0013
680.9729	-0.003
681.1562	0.0085
681.3394	0.0029
681.5227	-0.0016
681.7059	-0.0008
681.8891	-0.0036
682.0723	0.0064
682.2555	-0.0026
682.4387	-0.0036
682.6218	-0.004
682.805	0.0062
682.9881	0.0067
683.1712	-0.0043
683.3542	-0.003
683.5373	0.0032
683.7203	-0.0059
683.9034	-0.0048
684.0864	-0.0053
684.2694	-0.0122
684.4523	0.0031
684.6353	-0.0078
684.8182	-0.0013
685.0011	-0.0083
685.184	-0.0017
685.3669	-0.0034
685.5498	0.0015
685.7326	0.001
685.9154	-0.001
686.0982	0.0059
686.281	0.0079
686.4638	0.0079
686.6465	0.0038
686.8293	-0.0037
687.012	0.0077
687.1947	-0.0073
687.3774	0.0077
687.56	0.0007
687.7427	0.0011
687.9253	-0.0006
688.1079	0.0048
688.2905	0.0047
688.4731	-0.0029
688.6556	-0.0046
688.8382	-0.0022
689.0207	0.0016
689.2032	-0.0069
689.3857	-0.0039
689.5681	-0.0018
689.7506	-0.0011
689.933	-0.0011
690.1154	-0.0017
690.2978	-0.004
690.4802	-0.0004
690.6626	-0.0132
690.8449	0.0015
691.0272	0.0028
691.2095	-0.0032
691.3918	-0.0059
691.5741	0.0027
691.7563	-0.001
691.9386	0.0012
692.1208	0.0014
692.303	-0.0038
692.4852	-0.004
692.6673	-0.0037
692.8495	0.0026
693.0316	0.0002
693.2137	0.0016
693.3958	0.0027
693.5778	0.001
693.7599	0.0016
693.9419	-0.0027
694.1239	0.0051
694.3059	0.0011
694.4879	0.0116
694.6699	0.0093
694.8518	0.0001
695.0337	0.0005
695.2157	0.0076
695.3975	0.0037
695.5794	0.0058
695.7613	0.0044
695.9431	0.0032
696.1249	0.0062
696.3067	0.0001
696.4885	0.0069
696.6703	-0.0082
696.852	0.0074
697.0337	-0.0044
697.2154	-0.0039
697.3971	-0.0061
697.5788	-0.005
697.7605	-0.0005
697.9421	-0.0033
698.1237	-0.0007
698.3053	0.0008
698.4869	-0.0095
698.6685	-0.0137
698.85	-0.0101
699.0315	0.0069
699.213	-0.0006
699.3945	0.0006
699.576	0.0093
699.7575	0.0048
699.9389	0.0048
700.1203	-0.0017
700.3017	-0.0036
700.4831	-0.005
700.6645	0.0002
700.8458	0.0146
701.0271	0.0017
701.2084	0.0034
701.3897	0.0029
701.571	0.0084
701.7523	-0.0055
701.9335	-0.0008
702.1147	-0.0056
702.2959	-0.0039
702.4771	0.0023
702.6583	-0.0032
702.8394	-0.0008
703.0205	-0.0034
703.2016	-0.0034
703.3827	-0.005
703.5638	0.0068
703.7449	0.0015
703.9259	0.0127
704.1069	0.0006
704.2879	0.0037
704.4689	0.0051
704.6499	0.0025
704.8308	-0.0011
705.0117	0.0067
705.1927	0.005
705.3735	0.0007
705.5544	-0.0003
705.7353	0.0023
705.9161	-0.0048
706.0969	-0.0016
706.2777	-0.0024
706.4585	-0.0007
706.6393	-0.0026
706.82	-0.0042
707.0007	-0.0012
707.1815	-0
707.3621	0.0078
707.5428	0.0095
707.7235	0.0045
707.9041	0.0037
708.0847	-0.008
708.2653	-0.0024
708.4459	-0.0163
708.6265	0.0055
708.807	0.0068
708.9875	-0.0075
709.168	-0.0019
709.3485	-0.0047
709.529	-0.004
709.7095	-0.0128
709.8899	0.0017
710.0703	-0.0117
710.2507	0.0021
710.4311	0.0016
710.6115	-0.0128
710.7918	-0.0095
710.9721	-0.0022
711.1524	-0.0071
711.3327	-0.0015
711.513	-0.0005
711.6932	-0.0003
711.8735	0.0032
712.0537	-0.0007
712.2339	-0.0023
712.4141	-0.0077
712.5942	-0.0003
712.7744	-0.0037
712.9545	-0.0086
713.1346	-0.0091
713.3147	-0.0108
713.4947	-0.0071
713.6748	-0.0001
713.8548	0.0042
714.0348	-0.0055
714.2148	0.0031
714.3948	0.0078
714.5748	-0.0047
714.7547	-0.0025
714.9346	-0.0008
715.1145	-0.0055
715.2944	-0.0003
715.4743	-0.0021
715.6541	-0.0006
715.834	0.0038
716.0138	-0.0059
716.1936	-0.0111
716.3733	-0.0082
716.5531	0.0039
716.7328	-0.0021
716.9126	-0.0077
717.0923	-0.0032
717.2719	-0.0025
717.4516	0.0044
717.6312	0.0062
717.8109	-0.0072
717.9905	0.0091
718.1701	0.0007
718.3496	-0.0009
718.5292	0.003
718.7087	0.002
718.8882	0.0047
719.0677	0.0031
719.2472	-0.0051
719.4267	0.0007
719.6061	-0.0006
719.7856	0.0009
719.965	-0.0009
720.1443	-0.0046
720.3237	0.0098
720.5031	0.0081
720.6824	0.0084
720.8617	0.0042
721.041	0.0109
721.2203	0.0119
721.3995	0.0055
721.5788	0.0117
721.758	0.011
721.9372	-0.0001
722.1164	0.0056
722.2956	0.0128
722.4747	0.0051
722.6538	-0.0024
722.8329	0.019
723.012	0.0089
723.1911	-0.0006
723.3702	0.0079
723.5492	0.0019
723.7282	-0.0028
723.9072	0.0028
724.0862	-0.0031
724.2652	-0.0012
724.4441	-0.0083
724.623	0.0004
724.8019	0
724.9808	0.0047
725.1597	-0.0038
725.3385	0.004
725.5174	0.0051
725.6962	-0.0032
725.875	-0.0037
726.0538	0.004
726.2325	-0.0022
726.4112	-0.0021
726.59	-0.0056
726.7687	-0.0091
726.9474	0.0042
727.126	-0.0038
727.3047	-0.0053
727.4833	-0.0021
727.6619	-0.0068
727.8405	-0.0075
728.0191	-0.0014
728.1976	0.0062
728.3762	-0.0041
728.5547	0.0019
728.7332	-0.0054
728.9116	-0.0019
729.0901	-0.0004
729.2686	-0.0074
729.447	-0.0091
729.6254	-0.0029
729.8038	0.0002
729.9821	-0.0111
730.1605	0.0075
730.3388	-0.0049
730.5171	0.0056
730.6954	-0.006
730.8737	-0.0004
731.0519	0.0072
731.2302	0.004
731.4084	0.0083
731.5866	0.0036
731.7648	-0.0031
731.9429	0.0034
732.1211	-0.0091
732.2992	-0.0057
732.4773	0.0025
732.6554	0.0037
732.8335	0.0047
733.0115	0.0106
733.1896	0.0094
733.3676	-0.0014
733.5456	0.0091
733.7235	0.0061
733.9015	-0.0015
734.0794	0.0035
734.2574	0.0042
734.4353	0.0074
734.6131	0.0086
734.791	0.004
734.9689	0.0022
735.1467	-0.0046
735.3245	-0.0088
735.5023	-0.0153
735.68	-0.0077
735.8578	-0.0015
736.0355	-0.0174
736.2132	-0.0072
736.3909	-0.0041
736.5686	-0.0079
736.7463	-0.0003
736.9239	-0.0018
737.1015	-0.0061
737.2791	0.0035
737.4567	-0.0048
737.6343	-0.0053
737.8118	-0.0035
737.9894	-0.0045
738.1669	-0.0104
738.3444	-0.0069
738.5218	-0.0016
738.6993	-0.0003
738.8767	-0.0043
739.0541	0.0002
739.2315	-0.006
739.4089	-0.0011
739.5863	0.0003
739.7636	-0.0108
739.9409	0
740.1182	0.0015
740.2955	0.0033
740.4728	-0.0084
740.65	-0.0071
740.8272	-0.005
741.0044	-0.0087
741.1816	-0.0032
741.3588	-0.0119
741.5359	-0.006
741.7131	-0.0137
741.8902	-0.0042
742.0673	-0.0085
742.2444	-0.0132
742.4214	-0.0135
742.5985	-0.0116
742.7755	-0.0052
742.9525	-0.012
743.1295	0.0008
743.3064	-0.0018
743.4834	-0.0017
743.6603	-0.0133
743.8372	-0.0084
744.0141	-0.0025
744.191	-0.002
744.3678	-0.0079
744.5446	0.0017
744.7215	-0.001
744.8982	0.0003
745.075	-0.0065
745.2518	0.0086
745.4285	0.0003
745.6052	-0.0035
745.7819	0.0099
745.9586	0.0023
746.1353	-0
746.3119	0.0006
746.4885	0.0003
746.6651	-0.0013
746.8417	0.0046
747.0183	0.0039
747.1948	0.0044
747.3714	0.0003
747.5479	0.0039
747.7244	-0.0033
747.9008	0.011
748.0773	-0.0059
748.2537	-0.0048
748.4301	-0.0044
748.6065	-0.0008
748.7829	0.0019
748.9593	0.0009
749.1356	-0.0045
749.3119	0.0038
749.4882	-0.0144
749.6645	0.0138
749.8408	-0.0023
750.017	-0.0054
750.1933	-0.0018
750.3695	-0.0076
750.5457	0.0098
750.7218	0.006
750.898	0.0125
751.0741	0.0031
751.2502	0.0023
751.4263	-0.0089
751.6024	0.006
751.7784	-0.0017
751.9545	-0.0033
752.1305	0.0023
752.3065	-0.0014
752.4825	0.0102
752.6584	-0.0068
752.8344	-0.0085
753.0103	-0.0104
753.1862	-0.0093
753.3621	-0.0061
753.5379	-0.0124
753.7138	-0.0053
753.8896	-0.0069
754.0654	-0.0023
754.2412	-0.0002
754.417	-0.0009
754.5927	-0.0065
754.7685	-0.0006
754.9442	-0.0015
755.1199	0.0088
755.2956	-0.0053
755.4712	-0.001
755.6469	-0.0044
755.8225	-0.009
755.9981	-0
756.1736	-0.0039
756.3492	-0.0013
756.5248	-0.009
756.7003	0.0019
756.8758	0.0064
757.0513	-0.0165
757.2267	-0.0036
757.4022	-0.0041
757.5776	-0.0048
757.753	0.0059
757.9284	-0.0008
758.1038	0.012
758.2791	0.0067
758.4545	-0.0116
758.6298	-0.0006
758.8051	-0.0008
758.9803	-0.0025
759.1556	0.0075
759.3308	-0.0011
759.506	0.0152
759.6812	0.0069
759.8564	0.0094
760.0316	-0.0012
760.2067	0.0106
760.3819	0.0013
760.557	0.0116
760.732	0.0004
760.9071	-0.0061
761.0821	-0.0043
761.2572	0.0126
761.4322	-0.0076
761.6072	0.0043
761.7821	-0.0148
761.9571	0.0089
762.132	-0.0032
762.3069	-0.0099
762.4818	-0.0102
762.6567	-0.0088
762.8316	-0.0121
763.0064	-0.0055
763.1812	-0.0043
763.356	-0.0088
763.5308	0.006
763.7055	0.0047
763.8803	-0.0012
764.055	-0.0017
764.2297	0.0061
764.4044	-0.002
764.579	-0.0033
764.7537	-0.0143
764.9283	0.0064
765.1029	-0.005
765.2775	-0.0119
765.4521	-0.004
765.6266	-0.0023
765.8011	-0.0006
765.9756	0.0081
766.1501	0.0023
766.3246	-0.0047
766.4991	-0.0091
766.6735	0.0049
766.8479	-0.0142
767.0223	0.0202
767.1967	-0.0038
767.371	0.0029
767.5454	0.0004
767.7197	-0.0007
767.894	-0.0064
768.0683	-0.0065
768.2425	0.0007
768.4168	0.0063
768.591	0.0018
768.7652	0.0027
768.9394	0.0046
769.1135	0.0055
769.2877	-0.0001
769.4618	0.0006
769.6359	-0.0083
769.81	0.0026
769.984	-0.0034
770.1581	-0.0027
770.3321	-0.0044
770.5061	-0.0048
770.6801	-0.0007
770.8541	-0.0075
771.028	0.0129
771.202	-0.0204
771.3759	0.0129
771.5498	0.0001
771.7236	0.0023
771.8975	-0.0044
772.0713	0.0056
772.2451	0.0072
772.4189	-0.0038
772.5927	0.0138
772.7665	0.0002
772.9402	-0.0012
773.1139	-0.0019
773.2876	-0.0023
773.4613	0.0136
773.635	0.0104
773.8086	-0.0005
773.9822	0.0036
774.1558	0.0051
774.3294	-0.0107
774.503	-0.0005
774.6765	0.0136
774.8501	0.0022
775.0236	0.0104
775.1971	0.0062
775.3705	-0.0102
775.544	0.0083
775.7174	-0.0148
775.8908	-0.0039
776.0642	0.0026
776.2376	0.0005
776.4109	-0.0166
776.5843	-0.0035
776.7576	-0.0005
776.9309	0.0033
777.1041	0.0105
777.2774	0.0081
777.4506	0.0078
777.6238	-0.0042
777.797	-0.0048
777.9702	-0.0062
778.1434	-0.0096
778.3165	-0.0059
778.4896	-0.0084
778.6627	-0.0002
778.8358	-0.0043
779.0089	-0.0077
779.1819	-0.0075
779.3549	0.0007
779.5279	0.0013
779.7009	-0.0033
779.8739	0.0006
780.0468	-0.002
780.2197	-0.0063
780.3926	-0.0016
780.5655	-0.0026
780.7384	-0.0042
780.9112	0.0018
781.0841	-0.0063
781.2569	0.0081
781.4297	0.0082
781.6024	0.0003
781.7752	0.0194
781.9479	0.0029
782.1206	-0.0037
782.2933	-0.008
782.466	0.0088
782.6386	0.0098
782.8113	0.0047
782.9839	0.0081
783.1565	0.0106
783.329	0.0112
783.5016	0.0221
783.6741	0.005
783.8466	-0.0082
784.0191	0.0125
784.1916	-0.0141
784.3641	0.0106
784.5365	0.003
784.7089	-0.0067
784.8813	-0.003
785.0537	0.0026
785.2261	-0.016
785.3984	-0.0112
785.5707	-0.0068
785.743	-0.0196
785.9153	-0.0021
786.0876	0.0013
786.2598	-0.0096
786.432	-0.0165
786.6042	0.01
786.7764	-0.0001
786.9486	0.0016
787.1207	-0.0028
787.2928	0.0093
787.4649	0.0012
787.637	0.0037
787.8091	0.0015
787.9811	-0.0039
788.1532	-0.0062
788.3252	0.0081
788.4972	-0.0076
788.6691	0.0127
788.8411	0.0084
789.013	-0.0087
789.1849	0.0002
789.3568	0.0011
789.5287	-0.0005
789.7005	-0.0085
789.8723	-0.0045
790.0442	0.0154
790.2159	0.0037
790.3877	0.0135
790.5595	-0.0152
790.7312	0.014
790.9029	0.0082
791.0746	0.0049
791.2463	-0.0005
791.4179	0.0012
791.5896	-0.0031
791.7612	0.0132
791.9328	-0.0039
792.1044	0.0004
792.2759	-0.0062
792.4474	-0.005
792.619	0.0071
792.7905	0.0163
792.9619	0.0098
793.1334	0.0264
793.3048	0.0111
793.4762	-0.0026
793.6476	0.0126
793.819	-0.0034
793.9904	0.0188
794.1617	-0.0196
794.333	0.0037
794.5043	-0.0063
794.6756	-0.007
794.8469	0.0105
795.0181	-0.007
795.1893	0.0038
795.3605	0.0105
795.5317	-0.0086
795.7029	-0.0094
795.874	0.0051
796.0452	0.0039
796.2163	0.012
796.3873	0.0108
796.5584	0.0142
796.7294	-0.0057
796.9005	0.0034
797.0715	0.011
797.2425	0.0098
797.4134	-0.0131
797.5844	0.0189
797.7553	-0.024
797.9262	-0.0048
798.0971	-0.0087
798.2679	-0.0069
798.4388	-0.0177
798.6096	0.008
798.7804	0.016
798.9512	0.0162
799.122	-0.0126
799.2927	0.0143
799.4635	0.0066
799.6342	-0.0011
799.8049	0.0121
799.9755	0.0045
800.1462	0.0089
800.3168	-0.0026
800.4874	0.0042
800.658	0.0244
800.8286	0.0213
800.9991	0.0241
801.1696	0.0029
801.3402	0.0046
801.5106	0.0138
801.6811	0.0061
801.8516	0.0173
802.022	0.0158
802.1924	-0.0019
802.3628	0.0163
802.5332	0.0172
802.7035	0.018
802.8739	0.01
803.0442	0.0131
803.2145	0.0133
803.3847	-0.0205
803.555	0.0012
803.7252	0.0037
803.8954	-0.0065
804.0656	0.0019
804.2358	0.0019
804.4059	0.0197
804.5761	0.0073
804.7462	0.0266
804.9163	0.0134
805.0864	-0.0145
805.2564	-0.0097
805.4264	0.0106
805.5965	-0.012
805.7665	0.007
805.9364	-0.0028
806.1064	0.0259
806.2763	0.0062
806.4462	0.0201
806.6161	0.0266
806.786	0.0294
806.9559	0.0038
807.1257	0.0095
807.2955	0.0193
807.4653	-0.0089
807.6351	0.0156
807.8048	0.0101
807.9746	-0.0048
808.1443	0.0227
808.314	0.0098
808.4837	0.0049
808.6533	0.0073
808.8229	0.0301
808.9926	0.0142
809.1622	0.0001
809.3317	0.0041
809.5013	0.0019
809.6708	0.0328
809.8403	0.0157
810.0098	0.0207
810.1793	0.0143
810.3488	0.0155
810.5182	-0.0069
810.6876	0.0332
810.857	0.0044
811.0264	0.0297
811.1958	0.0225
811.3651	0.0192
811.5344	0.0055
811.7037	-0.0019
811.873	-0.0028
812.0422	0.0143
812.2115	0.0002
812.3807	0.0045
812.5499	0.0231
812.7191	0.0102
812.8882	-0.0097
813.0574	0.0015
813.2265	0.0002
813.3956	-0.0073
813.5646	0.0272
813.7337	-0.0019
813.9027	0.0419
814.0718	0.0478
814.2407	0.023
814.4097	0.0115
814.5787	0.0046
814.7476	0.0007
814.9165	0.0132
815.0854	0.0208
815.2543	0.0145
815.4232	0.0225
815.592	0.0236
815.7608	0.0201
815.9296	-0.003
816.0984	0.019
816.2671	0.0058
816.4359	0.0225
816.6046	0.0126
816.7733	0.0315
816.942	0.0052
817.1106	0.032
817.2793	0.0296
817.4479	0.028
817.6165	0.0183
817.785	0.0133
817.9536	-0.0041
818.1221	0.0152
818.2906	-0.002
818.4591	0.0041
818.6276	0.0136
818.7961	0.0247
818.9645	0.0157
819.1329	0.0066
819.3013	0.0355
819.4697	0.0258
819.638	0.0464
819.8064	0.0186
819.9747	0.0511
820.143	0.0457
820.3113	0.023
820.4795	0.0385
820.6477	0.0246
820.816	0.0224
820.9842	0.0167
821.1523	0.0152
821.3205	-0.0044
821.4886	0.0145
821.6567	0.0067
821.8248	0.0175
821.9929	0.0174
822.1609	0.0258
822.329	0.0237
822.497	0.0255
822.665	0.003
822.833	-0.0086
823.0009	0.0159
823.1688	0.019
823.3367	0.0295
823.5046	0.015
823.6725	0.0366
823.8404	0.0038
824.0082	0.0117
824.176	0.0254
824.3438	0.0018
824.5116	-0.0097
824.6793	0.0295
824.847	-0.0172
825.0147	-0.0057
825.1824	0.0081
825.3501	0.0205
825.5177	-0.0002
825.6854	0.0033
825.853	0.0346
826.0206	-0.0251
826.1881	0.0037
826.3557	-0.0016
826.5232	0.0479
826.6907	-0.0165
826.8582	-0.0109
827.0257	-0.0187
827.1931	0.0235
827.3605	0.0239
827.528	-0.0153
827.6953	0.0103
827.8627	-0.0117
828.03	0.0365
828.1974	-0.009
828.3647	-0.0149
828.532	-0.0133
828.6992	-0.0176
828.8665	0.0193
829.0337	-0.0127
829.2009	0.0135
829.3681	-0.0053
829.5352	0.0283
829.7024	-0.0145
829.8695	-0.0534
830.0366	0.0358
830.2037	0.0008
830.3707	0.0148
830.5378	0.0035
830.7048	0.0108
830.8718	-0.0013
831.0388	-0.0323
831.2057	0.0138
831.3727	0.0446
831.5396	-0.0229
831.7065	0.0021
831.8734	0.0231
832.0402	-0.012
832.2071	0.0009
832.3739	-0.0265
832.5407	0.0288
832.7075	-0.0003
832.8742	-0.0304
833.041	-0.0236
833.2077	-0.0003
833.3744	0.0278
833.541	0.0028
833.7077	-0.035
833.8743	0.0057
834.0409	0.0053
834.2075	0.0087
834.3741	-0.0148
834.5407	-0.014
834.7072	-0.0047
834.8737	-0.0334
835.0402	-0.0016
835.2067	-0.0071
835.3731	0.0413
835.5395	0.0062
835.706	0.0284
835.8723	0.0084
836.0387	0.0254
836.2051	-0.0146
836.3714	0.0025
836.5377	-0.0017
836.704	-0.0191
836.8703	0.0434
837.0365	-0.0125
837.2027	0.0081
837.3689	0.0028
837.5351	-0.004
837.7013	-0.0315
837.8674	-0.0388
838.0335	-0.0113
838.1997	0.0054
838.3657	0.0023
838.5318	-0.0132
838.6978	0.0404
838.8639	0.0466
839.0299	0.0048
839.1958	0.0172
839.3618	0.0428
839.5277	0.0118
839.6937	-0.0205
839.8596	-0.0451
840.0254	0.0812
840.1913	0.0702
840.3571	0.0342
840.523	-0.0083
840.6888	-0.0032
840.8545	0.0254
841.0203	0.0248
841.186	0.01
841.3517	0.06
841.5174	0.036
841.6831	0.0034
841.8488	0.0023
842.0144	-0.0261
842.18	0.0395
842.3456	0.0481
842.5112	0.0109
842.6767	0.0016
842.8422	-0.011
843.0077	-0.074
843.1732	0.0065
843.3387	-0.0128
843.5042	-0.0165
843.6696	-0.017
843.835	0.024
844.0004	0.0277
844.1657	0.0329
844.3311	-0.0828
844.4964	-0.0284
844.6617	-0.0285
844.827	-0.0307
844.9923	-0.026
845.1575	0.0315
845.3227	-0.0073
845.4879	-0.0094
845.6531	-0.0639
845.8183	-0.0323
845.9834	0.0225
846.1485	0.0039
846.3136	-0.063
846.4787	-0.0989
846.6438	0.1404
846.8088	-0.0779
846.9738	-0.0327
847.1388	-0.0305
847.3038	-0.0096
847.4687	-0.0492
847.6337	0.0373
847.7986	0.0268
847.9635	0.0023
848.1284	0.0161
848.2932	0.088
848.458	-0.0157
848.6228	-0.0047
848.7876	0.0827
848.9524	-0.0192
849.1172	-0.0128
849.2819	0.0267
849.4466	-0.0903
849.6113	-0.0652
849.7759	-0.0372
849.9406	0.0203
850.1052	0.1145
850.2698	-0.0491
850.4344	0.0296
850.599	-0.0174
850.7635	0.0785
850.928	-0.0212
851.0925	0.0031
851.257	0.0439
851.4215	0.0784
851.5859	-0.0117
851.7503	0.0213
851.9147	-0.0414
852.0791	-0.0691
852.2434	-0.0657
852.4078	0.0266
852.5721	0.0579
852.7364	-0.0685
852.9007	-0.1988
853.0649	0.0031
853.2291	-0.0414
853.3934	-0.0101
853.5575	-0.0135
853.7217	-0.0972
853.8859	-0.1219
854.05	-0.0533
854.2141	-0.0704
854.3782	-0.1444
854.5423	-0.1125
854.7063	0.1497
854.8703	-0.02
855.0343	-0.1397
855.1983	-0.0322
855.3623	0.0921
855.5262	0.045
855.6901	-0.0808
855.854	-0.0884
856.0179	-0.0182
856.1818	0.2362
856.3456	-0.0432
856.5094	-0.0905
856.6732	-0.0747
856.837	-0.0592
857.0008	0.1251
857.1645	-0.0761
857.3282	-0.0131
857.4919	-0.0379
857.6556	-0.0177
857.8192	-0.0953
857.9828	0.0342
858.1465	0.0842
858.31	-0.1892
858.4736	0.1656
858.6372	-0.2367
858.8007	-0.1276
858.9642	0.1961
859.1277	0.0879
859.2911	0.0623
859.4546	-0.0572
859.618	-0.4331
859.7814	-0.0242
859.9448	0.1645
860.1081	-0.0565
860.2715	0.1259
860.4348	-0.1015
860.5981	0.1681
860.7614	0.1158
860.9246	-0.0539
861.0879	0.0049
861.2511	0.0405
861.4143	-0.3567
861.5774	0.6194
861.7406	-0.1143
861.9037	-0.0711
862.0668	-0.0468
862.2299	-0.1918
862.393	-0.5249
862.556	-0.0308
862.7191	-0.0981
862.8821	-0.0039
863.0451	0.0817
863.208	0.2213
863.371	0.2272
863.5339	-0.1137
863.6968	-0.0259
863.8597	-0.0865
864.0225	-0.1833
864.1854	0.3101
864.3482	-0.05
864.511	0.1477
864.6737	-0.091
864.8365	-0.1728
864.9992	-0.6716
865.1619	-0.0344
865.3246	-0.2158
865.4873	0.1702
865.65	0.0418
865.8126	-0.0407
865.9752	-0.0181
866.1378	0.2242
866.3004	0.4299
866.4629	0.4485
866.6254	-0.4095
866.7879	-0.0979
866.9504	0.1709
867.1129	-0
867.2753	0.1348
867.4377	0.0432
867.6001	0.0434
867.7625	0.6938
867.9249	-0.2518
868.0872	0.2598
868.2495	0.0906
868.4118	-0.4672
868.5741	-0.4537
868.7363	-0.2801
868.8986	0.1263
869.0608	-0.2456
869.223	0.2629
869.3851	-0
869.5473	-0
869.7094	0.1252
869.8715	-0.1599
870.0336	-0.2814
870.1957	-0.6516
870.3577	-0
870.5197	0.2149
870.6817	0.301
870.8437	-0.1284
871.0057	-0.2916
871.1676	-0.6012
871.3295	-0.4857
871.4914	-0
871.6533	-0.3218
871.8151	-0.4206
871.977	-0
872.1388	-0
872.3006	-0.3135
872.4623	-0
872.6241	-0
872.7858	0.5738
872.9475	0.0961
873.1092	-0.2353
873.2709	-0
873.4325	-0.1909
873.5941	-0
873.7557	-0
873.9173	-0
874.0789	-0.4082
874.2404	-0
874.4019	0.4819
874.5634	-0.0528
874.7249	-0.1497
874.8863	-0.1894
875.0478	-0
875.2092	-0
875.3706	1.0908
875.5319	-0.838
875.6933	-0
875.8546	0.5357
876.0159	-0
876.1772	0.4024
876.3385	-0
876.4997	0.4116
876.6609	-0.2586
876.8221	-0.5265
876.9833	-0.0834
877.1445	-0
877.3056	0.1435
877.4667	-0
877.6278	-0
877.7889	-0.4624
877.9499	-0
878.111	-0
878.272	-0
878.433	-0
878.5939	0.2238
878.7549	0.2242
878.9158	-0.8843
879.0767	-0
879.2376	-0
879.3984	-0.1305
879.5593	-0
879.7201	0.3945
879.8809	-0.1567
880.0417	-0
880.2024	0.4463
880.3632	-0.6888
880.5239	-0
880.6846	-0.0176
880.8452	-2.437
881.0059	-1.0531
881.1665	0.3954
881.3271	-0.3469
881.4877	0.346
881.6483	-0.5098
881.8088	-0.5528
881.9693	-0
882.1298	-0
882.2903	-0
