Data from MonoPyChalIsomerACN10uM380nmA_Absorbance_13-38-29-049.txt Node
Date: Fri Jul 05 13:38:29 BST 2024
User: LASERRRRR
Spectrometer: FLMT03099
Trigger mode: 0
Integration Time (sec): 1.000000E-1
Scans to average: 1
Electric dark correction enabled: true
Nonlinearity correction enabled: false
Boxcar width: 0
XAxis mode: Wavelengths
Number of Pixels in Spectrum: 3648
>>>>>Begin Spectral Data<<<<<
179.3399	-0.2394
179.5586	-0.2394
179.7771	-0.2394
179.9957	0.0625
180.2143	-0
180.4329	0.4888
180.6514	-0
180.8699	-0
181.0885	0.0148
181.307	-0.105
181.5255	-0.9789
181.744	-0
181.9625	0.2355
182.181	-0.8155
182.3994	-0.2536
182.6179	-0
182.8363	-0.1594
183.0547	0.1823
183.2732	0.2694
183.4916	0.1045
183.71	0.0721
183.9284	0.267
184.1467	-0.0413
184.3651	0.1733
184.5835	-0.0783
184.8018	0.0057
185.0201	0.2859
185.2385	-0.1118
185.4568	-0.0139
185.6751	-0.017
185.8934	0.4438
186.1117	0.031
186.3299	-0.1961
186.5482	0.194
186.7664	-0.1806
186.9847	-0.0675
187.2029	0.1551
187.4211	0.0797
187.6393	0.181
187.8575	-0.0287
188.0757	0.1935
188.2939	0.0664
188.512	0.0886
188.7302	0.0179
188.9483	0.1885
189.1665	0.2075
189.3846	-0.3811
189.6027	0.1556
189.8208	0.1539
190.0389	0.1012
190.257	0.1598
190.475	0.4295
190.6931	0.1584
190.9111	0.3182
191.1292	0.165
191.3472	0.5423
191.5652	0.2772
191.7832	0.1934
192.0012	0.5122
192.2192	0.4324
192.4371	0.6413
192.6551	0.2966
192.873	0.2964
193.091	0.3407
193.3089	0.4435
193.5268	0.5146
193.7447	0.6378
193.9626	0.4779
194.1805	0.4883
194.3984	0.9752
194.6162	0.6717
194.8341	0.8136
195.0519	0.5572
195.2697	0.9734
195.4875	0.6272
195.7054	0.6299
195.9231	0.4809
196.1409	0.6993
196.3587	0.6172
196.5765	0.6721
196.7942	0.7003
197.012	0.6309
197.2297	0.6616
197.4474	1.2998
197.6651	0.4935
197.8828	0.7015
198.1005	1.3759
198.3182	0.6395
198.5358	1.2728
198.7535	0.7324
198.9711	0.6741
199.1888	0.7468
199.4064	1.0512
199.624	0.6864
199.8416	0.7663
200.0592	0.7132
200.2767	0.7629
200.4943	0.6729
200.7119	0.9553
200.9294	0.8188
201.1469	0.8495
201.3645	0.6679
201.582	0.6741
201.7995	0.8945
202.017	0.68
202.2344	0.6795
202.4519	0.8708
202.6694	0.9852
202.8868	0.6812
203.1042	1.1405
203.3217	0.7671
203.5391	0.823
203.7565	0.6261
203.9739	0.726
204.1913	0.7054
204.4086	0.906
204.626	0.8451
204.8433	0.7927
205.0607	0.7044
205.278	0.7758
205.4953	0.7324
205.7126	0.8967
205.9299	1.1881
206.1472	0.8468
206.3644	0.7653
206.5817	0.8704
206.7989	0.8471
207.0162	0.8569
207.2334	0.7713
207.4506	0.7029
207.6678	0.8039
207.885	0.7959
208.1022	0.9207
208.3194	0.8878
208.5365	0.8005
208.7537	0.7991
208.9708	0.7748
209.1879	0.7866
209.405	0.8959
209.6222	0.8377
209.8392	0.7758
210.0563	0.7687
210.2734	0.833
210.4905	0.7241
210.7075	0.8024
210.9245	0.7602
211.1416	0.8359
211.3586	0.8805
211.5756	0.7745
211.7926	0.7577
212.0096	0.8016
212.2265	0.7875
212.4435	0.7453
212.6604	0.7909
212.8774	0.7682
213.0943	0.7752
213.3112	0.7366
213.5281	0.7746
213.745	0.6777
213.9619	0.6971
214.1788	0.6751
214.3956	0.6878
214.6125	0.6726
214.8293	0.6545
215.0461	0.7449
215.2629	0.663
215.4798	0.6706
215.6965	0.6349
215.9133	0.7132
216.1301	0.6215
216.3469	0.6435
216.5636	0.6307
216.7803	0.6201
216.9971	0.6543
217.2138	0.5737
217.4305	0.6087
217.6472	0.606
217.8639	0.671
218.0805	0.6334
218.2972	0.5612
218.5138	0.5609
218.7305	0.5918
218.9471	0.5473
219.1637	0.5814
219.3803	0.5506
219.5969	0.5389
219.8135	0.4976
220.0301	0.5484
220.2466	0.5415
220.4632	0.5658
220.6797	0.4912
220.8962	0.5094
221.1127	0.5316
221.3292	0.5309
221.5457	0.4919
221.7622	0.5103
221.9787	0.5243
222.1951	0.5097
222.4116	0.5387
222.628	0.532
222.8444	0.5456
223.0608	0.5235
223.2772	0.5407
223.4936	0.5243
223.71	0.4949
223.9264	0.5648
224.1427	0.5485
224.3591	0.5466
224.5754	0.5076
224.7917	0.5065
225.008	0.5281
225.2243	0.5025
225.4406	0.5449
225.6569	0.531
225.8732	0.5435
226.0894	0.5417
226.3057	0.5337
226.5219	0.5585
226.7381	0.5317
226.9543	0.5256
227.1705	0.5353
227.3867	0.5512
227.6029	0.5477
227.8191	0.5482
228.0352	0.5393
228.2513	0.5864
228.4675	0.5803
228.6836	0.5473
228.8997	0.5434
229.1158	0.5523
229.3319	0.5659
229.548	0.5486
229.764	0.5351
229.9801	0.5717
230.1961	0.5517
230.4121	0.5815
230.6282	0.5625
230.8442	0.5314
231.0602	0.578
231.2761	0.5575
231.4921	0.5749
231.7081	0.562
231.924	0.5739
232.14	0.5434
232.3559	0.5443
232.5718	0.5659
232.7877	0.5581
233.0036	0.5267
233.2195	0.5497
233.4353	0.5461
233.6512	0.5462
233.867	0.585
234.0829	0.5512
234.2987	0.5477
234.5145	0.5393
234.7303	0.543
234.9461	0.5557
235.1619	0.5461
235.3776	0.5593
235.5934	0.5506
235.8091	0.5319
236.0249	0.5547
236.2406	0.535
236.4563	0.5587
236.672	0.563
236.8877	0.5477
237.1034	0.5382
237.319	0.5527
237.5347	0.5812
237.7503	0.5473
237.966	0.5293
238.1816	0.5575
238.3972	0.5443
238.6128	0.5347
238.8284	0.5376
239.0439	0.5572
239.2595	0.5416
239.475	0.5578
239.6906	0.5476
239.9061	0.544
240.1216	0.5339
240.3371	0.5277
240.5526	0.5133
240.7681	0.5129
240.9836	0.4704
241.199	0.4944
241.4145	0.4889
241.6299	0.4869
241.8453	0.4673
242.0607	0.4828
242.2761	0.4619
242.4915	0.4721
242.7069	0.4486
242.9223	0.4528
243.1376	0.4242
243.353	0.4343
243.5683	0.4347
243.7836	0.3979
243.9989	0.3979
244.2142	0.3835
244.4295	0.3906
244.6448	0.3984
244.86	0.3663
245.0753	0.3683
245.2905	0.358
245.5057	0.3663
245.721	0.3355
245.9362	0.3326
246.1514	0.3423
246.3665	0.3203
246.5817	0.3111
246.7969	0.3024
247.012	0.2957
247.2271	0.2884
247.4423	0.2976
247.6574	0.3095
247.8725	0.2832
248.0876	0.2847
248.3026	0.2795
248.5177	0.2715
248.7328	0.2716
248.9478	0.2675
249.1628	0.2677
249.3779	0.2569
249.5929	0.2419
249.8079	0.2652
250.0228	0.2495
250.2378	0.2295
250.4528	0.2403
250.6677	0.2177
250.8827	0.236
251.0976	0.2346
251.3125	0.2178
251.5274	0.2094
251.7423	0.2174
251.9572	0.2069
252.172	0.2141
252.3869	0.2105
252.6017	0.2183
252.8166	0.203
253.0314	0.2091
253.2462	0.1914
253.461	0.2125
253.6758	0.2185
253.8906	0.2089
254.1053	0.1869
254.3201	0.1971
254.5348	0.2189
254.7496	0.2031
254.9643	0.1947
255.179	0.1973
255.3937	0.1896
255.6083	0.1942
255.823	0.2094
256.0377	0.1858
256.2523	0.2001
256.467	0.1766
256.6816	0.2025
256.8962	0.1809
257.1108	0.1811
257.3254	0.1995
257.54	0.1869
257.7545	0.1818
257.9691	0.2026
258.1836	0.1897
258.3981	0.2184
258.6127	0.1956
258.8272	0.1817
259.0417	0.1916
259.2561	0.1872
259.4706	0.1713
259.6851	0.1932
259.8995	0.1818
260.114	0.1832
260.3284	0.1853
260.5428	0.1716
260.7572	0.1839
260.9716	0.1867
261.186	0.1755
261.4003	0.1872
261.6147	0.1891
261.829	0.1834
262.0433	0.1801
262.2577	0.1716
262.472	0.1808
262.6863	0.1789
262.9005	0.1861
263.1148	0.1846
263.3291	0.1699
263.5433	0.1886
263.7576	0.1842
263.9718	0.1851
264.186	0.1849
264.4002	0.1657
264.6144	0.1758
264.8286	0.198
265.0427	0.19
265.2569	0.178
265.471	0.1665
265.6851	0.1732
265.8993	0.1874
266.1134	0.176
266.3275	0.184
266.5415	0.1745
266.7556	0.1881
266.9697	0.1832
267.1837	0.1786
267.3978	0.1838
267.6118	0.1873
267.8258	0.1966
268.0398	0.1758
268.2538	0.1927
268.4677	0.1792
268.6817	0.1684
268.8957	0.1869
269.1096	0.1824
269.3235	0.1807
269.5374	0.1764
269.7514	0.1561
269.9652	0.1701
270.1791	0.1614
270.393	0.17
270.6068	0.175
270.8207	0.1597
271.0345	0.151
271.2483	0.166
271.4622	0.1605
271.676	0.1726
271.8897	0.1632
272.1035	0.147
272.3173	0.1506
272.531	0.1555
272.7448	0.1612
272.9585	0.1599
273.1722	0.1582
273.3859	0.159
273.5996	0.1472
273.8133	0.1633
274.0269	0.1693
274.2406	0.1371
274.4542	0.1662
274.6679	0.1482
274.8815	0.1604
275.0951	0.1626
275.3087	0.1766
275.5223	0.1637
275.7358	0.161
275.9494	0.1614
276.1629	0.152
276.3765	0.1556
276.59	0.1614
276.8035	0.1562
277.017	0.1631
277.2305	0.1647
277.444	0.1568
277.6574	0.1408
277.8709	0.1632
278.0843	0.1553
278.2978	0.1605
278.5112	0.1596
278.7246	0.1572
278.938	0.16
279.1513	0.1675
279.3647	0.1792
279.5781	0.1706
279.7914	0.1569
280.0047	0.1774
280.2181	0.164
280.4314	0.1666
280.6447	0.1615
280.8579	0.1712
281.0712	0.1782
281.2845	0.1781
281.4977	0.1755
281.711	0.1559
281.9242	0.1651
282.1374	0.1642
282.3506	0.1714
282.5638	0.1668
282.7769	0.1762
282.9901	0.171
283.2033	0.167
283.4164	0.1618
283.6295	0.1599
283.8426	0.1661
284.0557	0.1682
284.2688	0.1892
284.4819	0.1808
284.695	0.1776
284.908	0.1891
285.1211	0.163
285.3341	0.1752
285.5471	0.1832
285.7601	0.179
285.9731	0.1759
286.1861	0.1607
286.3991	0.1826
286.612	0.1763
286.825	0.1783
287.0379	0.1874
287.2508	0.1709
287.4637	0.1813
287.6766	0.1633
287.8895	0.1901
288.1024	0.1898
288.3152	0.1885
288.5281	0.1775
288.7409	0.1782
288.9538	0.1736
289.1666	0.1741
289.3794	0.1816
289.5922	0.1782
289.8049	0.1885
290.0177	0.1885
290.2304	0.1782
290.4432	0.1852
290.6559	0.1796
290.8686	0.1832
291.0813	0.1706
291.294	0.1736
291.5067	0.1908
291.7194	0.1737
291.932	0.1909
292.1447	0.183
292.3573	0.1822
292.5699	0.1854
292.7825	0.1881
292.9951	0.1753
293.2077	0.1868
293.4203	0.1762
293.6328	0.1781
293.8454	0.1883
294.0579	0.1818
294.2704	0.1869
294.4829	0.1737
294.6954	0.1827
294.9079	0.1766
295.1204	0.179
295.3328	0.1942
295.5453	0.1938
295.7577	0.1821
295.9701	0.1694
296.1825	0.1828
296.3949	0.1702
296.6073	0.1777
296.8197	0.1737
297.0321	0.1941
297.2444	0.175
297.4567	0.1728
297.6691	0.1847
297.8814	0.1679
298.0937	0.1712
298.306	0.1804
298.5182	0.1867
298.7305	0.1906
298.9428	0.1712
299.155	0.1797
299.3672	0.1788
299.5794	0.1681
299.7916	0.1774
300.0038	0.1805
300.216	0.1802
300.4282	0.1818
300.6403	0.1689
300.8525	0.1807
301.0646	0.1722
301.2767	0.1819
301.4888	0.177
301.7009	0.1666
301.913	0.1786
302.125	0.1677
302.3371	0.1674
302.5491	0.1824
302.7612	0.183
302.9732	0.1701
303.1852	0.1816
303.3972	0.1826
303.6092	0.1653
303.8211	0.1706
304.0331	0.1575
304.245	0.1631
304.457	0.1596
304.6689	0.1653
304.8808	0.1703
305.0927	0.1634
305.3046	0.1755
305.5164	0.1632
305.7283	0.1549
305.9401	0.1549
306.152	0.1637
306.3638	0.1629
306.5756	0.1524
306.7874	0.1547
306.9992	0.1592
307.2109	0.1527
307.4227	0.1378
307.6344	0.1561
307.8462	0.1381
308.0579	0.1427
308.2696	0.136
308.4813	0.1414
308.693	0.1369
308.9046	0.1412
309.1163	0.1261
309.328	0.1281
309.5396	0.1248
309.7512	0.1253
309.9628	0.1279
310.1744	0.1184
310.386	0.1163
310.5976	0.1249
310.8091	0.1191
311.0207	0.122
311.2322	0.118
311.4437	0.1191
311.6552	0.1135
311.8667	0.118
312.0782	0.1078
312.2897	0.1053
312.5012	0.1106
312.7126	0.1116
312.924	0.0963
313.1355	0.1116
313.3469	0.1153
313.5583	0.111
313.7696	0.114
313.981	0.1057
314.1924	0.0986
314.4037	0.1077
314.6151	0.112
314.8264	0.0936
315.0377	0.1065
315.249	0.1018
315.4603	0.1112
315.6716	0.1058
315.8828	0.0897
316.0941	0.0957
316.3053	0.0919
316.5165	0.0874
316.7277	0.0938
316.9389	0.115
317.1501	0.0937
317.3613	0.1027
317.5724	0.0972
317.7836	0.1028
317.9947	0.0924
318.2058	0.0991
318.417	0.0884
318.6281	0.0816
318.8391	0.0981
319.0502	0.0903
319.2613	0.1028
319.4723	0.101
319.6834	0.094
319.8944	0.0918
320.1054	0.1039
320.3164	0.095
320.5274	0.0861
320.7383	0.0998
320.9493	0.0889
321.1602	0.1057
321.3712	0.0891
321.5821	0.096
321.793	0.1014
322.0039	0.0866
322.2148	0.0875
322.4257	0.1043
322.6365	0.1022
322.8474	0.0988
323.0582	0.0933
323.269	0.0998
323.4798	0.1022
323.6906	0.092
323.9014	0.1039
324.1122	0.0943
324.3229	0.092
324.5337	0.0959
324.7444	0.0932
324.9551	0.1139
325.1658	0.0983
325.3765	0.1004
325.5872	0.0994
325.7979	0.0986
326.0085	0.0964
326.2192	0.0889
326.4298	0.1087
326.6404	0.0978
326.851	0.0893
327.0616	0.0932
327.2722	0.0999
327.4828	0.0948
327.6933	0.0953
327.9039	0.1121
328.1144	0.1102
328.3249	0.1043
328.5354	0.0943
328.7459	0.0989
328.9564	0.1034
329.1669	0.098
329.3773	0.0938
329.5878	0.1004
329.7982	0.096
330.0086	0.0932
330.219	0.1011
330.4294	0.0947
330.6398	0.1028
330.8502	0.0933
331.0605	0.1032
331.2708	0.1014
331.4812	0.1183
331.6915	0.0975
331.9018	0.1031
332.1121	0.1003
332.3224	0.1093
332.5326	0.1072
332.7429	0.1032
332.9531	0.1148
333.1633	0.1008
333.3735	0.0945
333.5837	0.0962
333.7939	0.0956
334.0041	0.1193
334.2143	0.113
334.4244	0.102
334.6346	0.0903
334.8447	0.1111
335.0548	0.0965
335.2649	0.0958
335.475	0.1072
335.685	0.1006
335.8951	0.1146
336.1051	0.1063
336.3152	0.1148
336.5252	0.0989
336.7352	0.119
336.9452	0.1044
337.1552	0.0968
337.3652	0.0909
337.5751	0.105
337.7851	0.1182
337.995	0.0928
338.2049	0.114
338.4148	0.1095
338.6247	0.1066
338.8346	0.1044
339.0445	0.1033
339.2543	0.11
339.4642	0.1131
339.674	0.1
339.8838	0.1062
340.0936	0.1076
340.3034	0.1184
340.5132	0.1078
340.7229	0.1107
340.9327	0.1
341.1424	0.1053
341.3522	0.1216
341.5619	0.1175
341.7716	0.1117
341.9813	0.1139
342.1909	0.116
342.4006	0.1266
342.6102	0.1226
342.8199	0.1187
343.0295	0.1193
343.2391	0.1285
343.4487	0.1236
343.6583	0.1236
343.8679	0.1118
344.0774	0.1178
344.287	0.1262
344.4965	0.1057
344.706	0.1195
344.9155	0.1156
345.125	0.1213
345.3345	0.1226
345.544	0.1181
345.7534	0.1295
345.9629	0.1315
346.1723	0.1316
346.3817	0.1174
346.5911	0.119
346.8005	0.1265
347.0099	0.1216
347.2193	0.1382
347.4286	0.1185
347.638	0.1394
347.8473	0.1273
348.0566	0.1374
348.2659	0.1343
348.4752	0.1344
348.6845	0.1218
348.8937	0.1298
349.103	0.1381
349.3122	0.1351
349.5214	0.1377
349.7306	0.1362
349.9398	0.1382
350.149	0.1192
350.3582	0.1311
350.5674	0.1408
350.7765	0.1457
350.9856	0.1271
351.1948	0.1393
351.4039	0.1168
351.613	0.1389
351.822	0.129
352.0311	0.1479
352.2402	0.1519
352.4492	0.1506
352.6582	0.1523
352.8672	0.1398
353.0762	0.1575
353.2852	0.1505
353.4942	0.1336
353.7032	0.1367
353.9121	0.1507
354.1211	0.163
354.33	0.1534
354.5389	0.1544
354.7478	0.1405
354.9567	0.1431
355.1655	0.1387
355.3744	0.141
355.5833	0.1515
355.7921	0.1768
356.0009	0.1621
356.2097	0.1659
356.4185	0.1703
356.6273	0.1625
356.8361	0.1532
357.0448	0.1459
357.2536	0.1532
357.4623	0.1496
357.671	0.1611
357.8797	0.1681
358.0884	0.1613
358.2971	0.1722
358.5057	0.162
358.7144	0.1593
358.923	0.1785
359.1316	0.1689
359.3402	0.1548
359.5488	0.1719
359.7574	0.1708
359.966	0.1582
360.1746	0.1636
360.3831	0.1795
360.5916	0.1695
360.8002	0.1669
361.0087	0.1854
361.2172	0.1849
361.4256	0.1843
361.6341	0.1809
361.8426	0.1803
362.051	0.1834
362.2594	0.1775
362.4678	0.1756
362.6762	0.2013
362.8846	0.1787
363.093	0.1855
363.3014	0.1845
363.5097	0.175
363.718	0.1751
363.9264	0.1941
364.1347	0.1698
364.343	0.1994
364.5513	0.2013
364.7595	0.2101
364.9678	0.1938
365.176	0.1916
365.3842	0.1917
365.5925	0.1932
365.8007	0.1868
366.0089	0.1934
366.217	0.1776
366.4252	0.2062
366.6333	0.2018
366.8415	0.2028
367.0496	0.2016
367.2577	0.2234
367.4658	0.2195
367.6739	0.2139
367.882	0.2158
368.09	0.2057
368.2981	0.2116
368.5061	0.2052
368.7141	0.2171
368.9221	0.2275
369.1301	0.1985
369.3381	0.2163
369.5461	0.2183
369.754	0.2218
369.962	0.2286
370.1699	0.2169
370.3778	0.2213
370.5857	0.2127
370.7936	0.2148
371.0015	0.2082
371.2093	0.2263
371.4172	0.2422
371.625	0.2197
371.8328	0.2253
372.0406	0.2317
372.2484	0.2149
372.4562	0.2222
372.664	0.2409
372.8717	0.2502
373.0795	0.2109
373.2872	0.2448
373.4949	0.2321
373.7026	0.2395
373.9103	0.2361
374.118	0.2424
374.3256	0.2285
374.5333	0.2483
374.7409	0.2277
374.9485	0.2471
375.1561	0.2474
375.3637	0.2314
375.5713	0.2524
375.7789	0.2346
375.9864	0.2337
376.194	0.2334
376.4015	0.2447
376.609	0.246
376.8165	0.2543
377.024	0.2555
377.2315	0.2451
377.4389	0.2536
377.6464	0.2497
377.8538	0.2569
378.0612	0.243
378.2686	0.2493
378.476	0.2622
378.6834	0.2535
378.8908	0.2547
379.0981	0.2561
379.3055	0.2549
379.5128	0.2472
379.7201	0.253
379.9274	0.2611
380.1347	0.255
380.342	0.2681
380.5492	0.242
380.7565	0.2556
380.9637	0.2555
381.1709	0.2496
381.3781	0.2551
381.5853	0.2751
381.7925	0.2695
381.9997	0.2765
382.2068	0.2667
382.4139	0.2658
382.6211	0.2664
382.8282	0.2617
383.0353	0.264
383.2424	0.2666
383.4494	0.2825
383.6565	0.2649
383.8635	0.2641
384.0706	0.2677
384.2776	0.2722
384.4846	0.2619
384.6916	0.2797
384.8986	0.2604
385.1055	0.282
385.3125	0.2765
385.5194	0.2623
385.7263	0.266
385.9333	0.2709
386.1402	0.2612
386.347	0.2721
386.5539	0.2466
386.7608	0.27
386.9676	0.2552
387.1744	0.2686
387.3813	0.2616
387.5881	0.2741
387.7948	0.2584
388.0016	0.2719
388.2084	0.26
388.4151	0.2649
388.6219	0.2738
388.8286	0.2585
389.0353	0.2966
389.242	0.2646
389.4487	0.2479
389.6553	0.2589
389.862	0.2374
390.0686	0.2532
390.2753	0.2606
390.4819	0.273
390.6885	0.247
390.8951	0.2535
391.1016	0.2527
391.3082	0.2292
391.5147	0.2787
391.7213	0.2574
391.9278	0.2356
392.1343	0.2464
392.3408	0.2573
392.5473	0.2513
392.7537	0.2492
392.9602	0.2511
393.1666	0.2561
393.373	0.2364
393.5794	0.2429
393.7858	0.2381
393.9922	0.2359
394.1986	0.2588
394.4049	0.2517
394.6113	0.2382
394.8176	0.2386
395.0239	0.2297
395.2302	0.2306
395.4365	0.2265
395.6428	0.2326
395.8491	0.2427
396.0553	0.2449
396.2615	0.2467
396.4678	0.2273
396.674	0.2382
396.8802	0.2206
397.0863	0.2483
397.2925	0.2306
397.4987	0.212
397.7048	0.2182
397.9109	0.2387
398.117	0.2162
398.3231	0.222
398.5292	0.2371
398.7353	0.2464
398.9413	0.219
399.1474	0.2189
399.3534	0.231
399.5594	0.2232
399.7654	0.2378
399.9714	0.2499
400.1774	0.2272
400.3833	0.2298
400.5893	0.2251
400.7952	0.2319
401.0011	0.2266
401.207	0.2321
401.4129	0.234
401.6188	0.2264
401.8247	0.2245
402.0305	0.2225
402.2364	0.2048
402.4422	0.2407
402.648	0.2349
402.8538	0.2324
403.0596	0.2033
403.2654	0.2356
403.4711	0.2278
403.6768	0.2369
403.8826	0.2136
404.0883	0.2388
404.294	0.2476
404.4997	0.2396
404.7054	0.2342
404.911	0.221
405.1167	0.223
405.3223	0.2458
405.5279	0.2195
405.7335	0.2254
405.9391	0.25
406.1447	0.219
406.3502	0.2382
406.5558	0.2107
406.7613	0.2133
406.9668	0.2279
407.1724	0.2178
407.3778	0.2114
407.5833	0.2255
407.7888	0.2257
407.9942	0.2338
408.1997	0.2292
408.4051	0.214
408.6105	0.2201
408.8159	0.2347
409.0213	0.232
409.2267	0.2323
409.432	0.2191
409.6374	0.2338
409.8427	0.2305
410.048	0.2403
410.2533	0.2157
410.4586	0.2261
410.6639	0.2218
410.8691	0.2204
411.0744	0.2081
411.2796	0.2099
411.4848	0.2309
411.69	0.221
411.8952	0.2478
412.1004	0.2113
412.3056	0.2373
412.5107	0.2186
412.7158	0.2375
412.921	0.2202
413.1261	0.2191
413.3312	0.2138
413.5362	0.2211
413.7413	0.228
413.9464	0.2263
414.1514	0.2358
414.3564	0.2104
414.5614	0.1921
414.7664	0.2223
414.9714	0.2036
415.1764	0.2191
415.3813	0.236
415.5863	0.2226
415.7912	0.2301
415.9961	0.2243
416.201	0.2254
416.4059	0.2379
416.6108	0.2131
416.8156	0.2289
417.0205	0.2176
417.2253	0.2136
417.4301	0.2175
417.6349	0.224
417.8397	0.2241
418.0445	0.2199
418.2492	0.2156
418.454	0.2104
418.6587	0.2118
418.8634	0.2179
419.0681	0.1997
419.2728	0.2089
419.4775	0.2166
419.6822	0.2111
419.8868	0.1853
420.0915	0.2163
420.2961	0.1982
420.5007	0.2078
420.7053	0.2091
420.9099	0.2061
421.1144	0.2006
421.319	0.194
421.5235	0.2075
421.728	0.2158
421.9325	0.1966
422.137	0.2087
422.3415	0.1951
422.546	0.2078
422.7504	0.1997
422.9549	0.1923
423.1593	0.2151
423.3637	0.2085
423.5681	0.1979
423.7725	0.1862
423.9769	0.178
424.1812	0.1932
424.3856	0.1882
424.5899	0.2011
424.7942	0.1851
424.9985	0.1925
425.2028	0.1776
425.4071	0.2025
425.6113	0.1765
425.8156	0.1981
426.0198	0.1906
426.224	0.1881
426.4282	0.1644
426.6324	0.1719
426.8366	0.1689
427.0407	0.1907
427.2449	0.1896
427.449	0.1923
427.6531	0.1668
427.8572	0.1637
428.0613	0.1667
428.2654	0.1789
428.4694	0.1549
428.6735	0.168
428.8775	0.1837
429.0815	0.1741
429.2855	0.1526
429.4895	0.1592
429.6935	0.1772
429.8975	0.1722
430.1014	0.1457
430.3053	0.1533
430.5093	0.1618
430.7132	0.1481
430.9171	0.1419
431.1209	0.1596
431.3248	0.1435
431.5286	0.1487
431.7325	0.1464
431.9363	0.1325
432.1401	0.1489
432.3439	0.1373
432.5477	0.1126
432.7514	0.1272
432.9552	0.131
433.1589	0.1201
433.3627	0.1178
433.5664	0.147
433.7701	0.1179
433.9737	0.126
434.1774	0.1243
434.3811	0.1229
434.5847	0.1274
434.7883	0.1194
434.9919	0.1222
435.1955	0.1058
435.3991	0.112
435.6027	0.1019
435.8062	0.1082
436.0098	0.1007
436.2133	0.115
436.4168	0.0993
436.6203	0.1084
436.8238	0.1081
437.0272	0.1045
437.2307	0.0934
437.4341	0.1185
437.6375	0.0999
437.841	0.0882
438.0443	0.1107
438.2477	0.1048
438.4511	0.0883
438.6545	0.085
438.8578	0.1034
439.0611	0.092
439.2644	0.094
439.4677	0.0839
439.671	0.0735
439.8743	0.0991
440.0775	0.0901
440.2808	0.094
440.484	0.0581
440.6872	0.0675
440.8904	0.0727
441.0936	0.1123
441.2967	0.0643
441.4999	0.0783
441.703	0.0739
441.9062	0.0688
442.1093	0.0777
442.3124	0.0695
442.5155	0.0485
442.7185	0.0693
442.9216	0.0425
443.1246	0.0764
443.3276	0.0513
443.5307	0.048
443.7337	0.0666
443.9366	0.0692
444.1396	0.0731
444.3426	0.0753
444.5455	0.0571
444.7484	0.0445
444.9513	0.0444
445.1542	0.0513
445.3571	0.0454
445.56	0.047
445.7628	0.0406
445.9657	0.0492
446.1685	0.0472
446.3713	0.0524
446.5741	0.0534
446.7769	0.0419
446.9797	0.0497
447.1824	0.0494
447.3852	0.0294
447.5879	0.0548
447.7906	0.0353
447.9933	0.0455
448.196	0.0421
448.3986	0.0265
448.6013	0.0335
448.8039	0.0208
449.0066	0.0323
449.2092	0.0334
449.4118	0.0447
449.6143	0.0414
449.8169	0.0401
450.0195	0.0338
450.222	0.0141
450.4245	0.0227
450.627	0.0313
450.8295	0.0394
451.032	0.0306
451.2345	0.0312
451.4369	0.0289
451.6394	0.0367
451.8418	0.012
452.0442	0.0198
452.2466	0.0371
452.449	0.0127
452.6513	0.0183
452.8537	0.0181
453.056	0.0147
453.2583	0.0252
453.4607	0.0187
453.663	0.0081
453.8652	0.0204
454.0675	0.0187
454.2697	0.026
454.472	0.0032
454.6742	0.0252
454.8764	0.0104
455.0786	0.0363
455.2808	0.004
455.4829	0.0106
455.6851	0.0247
455.8872	0.0127
456.0893	0.0251
456.2915	-0.005
456.4935	0.0161
456.6956	0.0156
456.8977	0.023
457.0997	0.0065
457.3018	-0.0123
457.5038	0.0172
457.7058	0.0094
457.9078	0.0045
458.1098	0.0058
458.3117	0.0166
458.5137	0.0005
458.7156	0.0002
458.9175	0.0099
459.1194	0.0135
459.3213	0.0069
459.5232	0.0036
459.725	-0.0195
459.9269	-0.0075
460.1287	0.0054
460.3305	0.007
460.5323	0.0043
460.7341	0.0119
460.9359	-0.0152
461.1376	0.0046
461.3394	-0.0067
461.5411	0.0005
461.7428	0.0139
461.9445	0.0083
462.1462	0.017
462.3479	0.0039
462.5495	0.0003
462.7512	-0.0026
462.9528	0.0037
463.1544	-0.0143
463.356	-0.0077
463.5576	0.0215
463.7592	-0.0065
463.9607	0.003
464.1623	0.0071
464.3638	0.0064
464.5653	-0.003
464.7668	-0.0034
464.9683	-0.0011
465.1697	-0.0059
465.3712	-0.0096
465.5726	-0.0056
465.7741	-0.0039
465.9755	-0.0079
466.1769	-0.0069
466.3782	-0.0027
466.5796	-0.0142
466.7809	0.0134
466.9823	-0.0063
467.1836	-0.0011
467.3849	0.001
467.5862	-0
467.7875	0.0031
467.9887	0.0086
468.19	-0.0128
468.3912	-0.0182
468.5924	-0.0116
468.7936	-0.0026
468.9948	-0.0154
469.196	0.0065
469.3972	-0.0109
469.5983	0.0004
469.7994	-0.0206
470.0006	-0.0043
470.2017	-0.009
470.4027	-0.0165
470.6038	-0.017
470.8049	-0.0183
471.0059	-0.0218
471.2069	-0.0109
471.408	0.0092
471.6089	-0.0067
471.8099	-0.0023
472.0109	-0.0041
472.2119	-0.0159
472.4128	-0.0214
472.6137	0.003
472.8146	-0.0245
473.0155	0.0015
473.2164	0.003
473.4173	0.0029
473.6181	0.0035
473.819	-0.0045
474.0198	-0.0159
474.2206	-0.0007
474.4214	-0.0228
474.6222	-0.0105
474.8229	0.0003
475.0237	-0.0135
475.2244	-0.0149
475.4251	0.0062
475.6258	-0.0009
475.8265	-0.0141
476.0272	0.0112
476.2278	-0.0004
476.4285	0.0043
476.6291	-0.0081
476.8297	-0.0052
477.0303	-0.0086
477.2309	-0.0139
477.4315	-0.0097
477.632	-0.0061
477.8326	-0.0088
478.0331	-0.0018
478.2336	-0.0063
478.4341	-0.0152
478.6346	-0.0135
478.8351	-0.0129
479.0355	-0.0029
479.236	-0.0052
479.4364	-0.0109
479.6368	-0.0093
479.8372	-0.0188
480.0376	-0.008
480.2379	-0.0189
480.4383	-0.0083
480.6386	-0.0051
480.8389	-0.0051
481.0392	-0.0079
481.2395	-0.0158
481.4398	-0.0001
481.6401	0.0001
481.8403	-0.0098
482.0405	-0.008
482.2408	-0.0149
482.441	0.0098
482.6411	0.0015
482.8413	-0.0113
483.0415	-0.0193
483.2416	-0.0127
483.4417	-0.0082
483.6419	-0.0046
483.8419	-0.0139
484.042	0.0005
484.2421	-0.0004
484.4422	-0.0056
484.6422	-0.0139
484.8422	-0.0074
485.0422	-0.0093
485.2422	0.002
485.4422	-0.0185
485.6422	-0.0166
485.8421	-0.0105
486.042	-0.0023
486.242	-0.0208
486.4419	-0.0153
486.6417	-0.0178
486.8416	-0.01
487.0415	-0.011
487.2413	-0.0083
487.4411	-0.007
487.641	-0.0227
487.8408	-0.0022
488.0405	-0.0164
488.2403	-0.0093
488.4401	-0.0077
488.6398	-0.0039
488.8395	-0.0204
489.0392	0.0072
489.2389	-0.0129
489.4386	-0.0099
489.6383	-0.0068
489.8379	0.001
490.0376	-0.0109
490.2372	-0.0139
490.4368	-0.0134
490.6364	-0.0108
490.836	-0.0087
491.0355	-0.0093
491.2351	-0.0061
491.4346	-0.0126
491.6341	-0.0143
491.8336	-0.0098
492.0331	-0.0169
492.2326	-0.0211
492.432	-0.0133
492.6315	-0.0084
492.8309	-0.0101
493.0303	-0.0123
493.2297	-0.0107
493.4291	-0.0134
493.6284	-0.0057
493.8278	-0.0022
494.0271	-0.0005
494.2264	-0.0114
494.4257	-0.0139
494.625	-0.0117
494.8243	-0.018
495.0236	-0.0104
495.2228	-0.0117
495.422	-0.0088
495.6213	-0.0188
495.8205	-0.0065
496.0196	-0.0043
496.2188	-0.0087
496.418	-0.0147
496.6171	-0.009
496.8162	-0.0135
497.0153	-0.0007
497.2144	-0.0145
497.4135	-0.0063
497.6126	-0.0216
497.8116	-0.0171
498.0107	-0.0024
498.2097	-0.0165
498.4087	-0.0164
498.6077	-0.006
498.8067	-0.0185
499.0056	0.0009
499.2046	-0.0115
499.4035	-0.0249
499.6024	-0.0067
499.8013	-0.003
500.0002	-0.0069
500.199	-0.0095
500.3979	-0.0135
500.5967	-0.0294
500.7956	-0.0012
500.9944	-0.0067
501.1932	-0.0146
501.3919	-0.0125
501.5907	-0.017
501.7895	-0.0122
501.9882	-0.0182
502.1869	-0.0111
502.3856	-0.0211
502.5843	-0.0103
502.783	-0.0141
502.9816	-0.0135
503.1803	-0.0219
503.3789	-0.0109
503.5775	-0.0035
503.7761	-0.0141
503.9747	-0.0094
504.1732	-0.0053
504.3718	-0.0153
504.5703	-0.0137
504.7689	-0.0102
504.9674	-0.0144
505.1658	-0.0153
505.3643	-0.019
505.5628	-0.0111
505.7612	-0.0094
505.9597	-0.0056
506.1581	-0.013
506.3565	-0.0013
506.5549	-0.005
506.7532	-0.0194
506.9516	-0.0083
507.1499	-0.0086
507.3482	-0.0208
507.5465	-0.0161
507.7448	-0.0057
507.9431	-0.0094
508.1414	-0.0053
508.3396	-0.0157
508.5379	-0.0033
508.7361	-0.0096
508.9343	-0.0077
509.1325	-0.0001
509.3306	-0.0171
509.5288	-0.0137
509.7269	-0.0201
509.9251	-0.0069
510.1232	-0.0101
510.3213	-0.0141
510.5193	-0.0069
510.7174	-0.0217
510.9154	-0.006
511.1135	-0.0106
511.3115	-0.0155
511.5095	-0.0004
511.7075	-0.0065
511.9055	-0.0135
512.1034	-0.0162
512.3014	-0.0125
512.4993	0.0019
512.6972	-0.0116
512.8951	-0.0176
513.093	-0.0089
513.2908	-0.0148
513.4887	0.0029
513.6865	-0.0184
513.8844	-0.0096
514.0822	-0.017
514.2799	-0.015
514.4777	-0.0149
514.6755	-0.0119
514.8732	-0.0154
515.0709	-0.0203
515.2687	-0.0166
515.4664	-0.006
515.664	-0.0076
515.8617	-0.0094
516.0594	-0.0176
516.257	-0.0088
516.4546	-0.0102
516.6522	-0.0061
516.8498	-0.0048
517.0474	-0.0056
517.2449	-0.0021
517.4425	-0.0165
517.64	-0.0056
517.8375	-0.0009
518.035	-0.0126
518.2325	-0.0244
518.43	-0.011
518.6274	-0.0186
518.8249	-0.0141
519.0223	-0.007
519.2197	-0.0068
519.4171	-0.0135
519.6145	-0.013
519.8118	-0.0053
520.0092	-0.0041
520.2065	-0.0078
520.4038	-0.0274
520.6011	-0.0126
520.7984	-0.0099
520.9956	-0.0234
521.1929	-0.0232
521.3901	-0.0019
521.5874	-0.0153
521.7846	-0.0132
521.9818	-0.0115
522.1789	-0.0138
522.3761	-0.0099
522.5732	-0.0141
522.7704	-0.0197
522.9675	-0.0116
523.1646	-0.0155
523.3617	-0.0131
523.5587	-0.0082
523.7558	-0.0103
523.9528	-0.0121
524.1498	-0.01
524.3468	-0.013
524.5438	-0.007
524.7408	-0.0152
524.9378	-0.0051
525.1347	-0.0114
525.3316	-0.0136
525.5285	-0.0073
525.7254	-0.0105
525.9223	-0.0043
526.1192	-0.0086
526.316	-0.0168
526.5129	-0.0057
526.7097	-0.0035
526.9065	-0.0086
527.1033	-0.0162
527.3	-0.0018
527.4968	-0.009
527.6935	0.0023
527.8903	-0.0136
528.087	-0.0116
528.2837	-0.0111
528.4804	-0.0101
528.677	-0.0021
528.8737	-0.0073
529.0703	-0.0027
529.2669	-0.012
529.4635	-0.0128
529.6601	-0.0154
529.8567	-0.0126
530.0532	-0.0308
530.2498	-0.0095
530.4463	-0.0144
530.6428	-0.0104
530.8393	-0.0044
531.0358	-0.0096
531.2322	-0.0104
531.4287	-0.0195
531.6251	-0.012
531.8215	-0.0001
532.0179	0.0088
532.2143	-0.0011
532.4107	-0.0131
532.607	0.001
532.8034	0.0083
532.9997	-0.0052
533.196	-0.0003
533.3923	-0.0057
533.5886	-0.0007
533.7848	-0.0033
533.9811	-0.011
534.1773	-0.0034
534.3735	0.0044
534.5697	-0.0033
534.7659	-0.0152
534.9621	-0.002
535.1582	-0.0102
535.3544	-0.0085
535.5505	-0.0117
535.7466	-0.0114
535.9427	-0.0036
536.1387	-0.0166
536.3348	-0.0091
536.5308	0.0032
536.7269	-0.0168
536.9229	-0.0052
537.1189	-0.0007
537.3148	-0.0052
537.5108	-0.0094
537.7068	-0.0055
537.9027	-0.0064
538.0986	-0.0047
538.2945	-0.0148
538.4904	-0.0152
538.6863	-0.0044
538.8821	-0.0133
539.078	-0.0093
539.2738	0.0026
539.4696	-0.0081
539.6654	-0.005
539.8611	0.0013
540.0569	-0.0058
540.2526	-0.0073
540.4484	-0.0111
540.6441	0.0043
540.8398	-0.0022
541.0355	-0.0047
541.2311	-0.018
541.4268	-0.0152
541.6224	-0.0026
541.818	-0.0046
542.0136	-0.0187
542.2092	-0.0025
542.4048	0.0006
542.6003	-0.0056
542.7959	-0.0087
542.9914	0.0004
543.1869	-0.0076
543.3824	-0.0051
543.5779	-0.0024
543.7734	-0.0084
543.9688	-0.0098
544.1642	0.0147
544.3596	0.0036
544.555	-0.0078
544.7504	-0.0072
544.9458	-0.0107
545.1411	-0.0053
545.3365	-0.0071
545.5318	-0.0026
545.7271	-0.0023
545.9224	-0.007
546.1177	-0.0076
546.3129	-0.0057
546.5081	-0.0079
546.7034	-0.0041
546.8986	-0.0051
547.0938	-0.0126
547.289	-0.0077
547.4841	-0.0055
547.6793	0.0127
547.8744	-0.0084
548.0695	-0.0042
548.2646	-0.011
548.4597	-0.0039
548.6548	0.0024
548.8498	0.0039
549.0448	0.0108
549.2399	-0.0007
549.4349	-0
549.6298	-0.0054
549.8248	-0.0034
550.0198	-0.0028
550.2147	-0.0068
550.4096	-0.0141
550.6045	-0.0057
550.7994	0.0023
550.9943	-0.0029
551.1892	-0.0073
551.384	-0.0034
551.5788	-0.0106
551.7737	0.0059
551.9685	-0.0072
552.1632	0.0026
552.358	-0.0007
552.5528	-0.0023
552.7475	0.0061
552.9422	0.0032
553.1369	0.0045
553.3316	0.0085
553.5263	-0.0042
553.7209	0.0039
553.9156	-0.0079
554.1102	-0.0113
554.3048	-0.0028
554.4994	0.0086
554.694	-0.006
554.8885	0.0045
555.0831	-0.0071
555.2776	-0.0093
555.4721	-0.0069
555.6666	-0.0069
555.8611	0.0081
556.0555	-0.0074
556.25	0
556.4444	-0.0157
556.6388	0.0003
556.8332	-0.0014
557.0276	-0.0089
557.222	-0.0082
557.4163	0.0021
557.6107	-0.0095
557.805	0.0034
557.9993	-0.0073
558.1936	-0.0042
558.3879	-0.0022
558.5821	-0.0047
558.7764	-0.0054
558.9706	-0.0051
559.1648	0.0022
559.359	-0.0053
559.5532	-0.0102
559.7473	-0.0047
559.9415	-0.0086
560.1356	-0.0042
560.3297	-0.0156
560.5238	-0.0091
560.7179	-0.0053
560.9119	-0.0008
561.106	0.0005
561.3	-0.008
561.494	-0.0003
561.688	-0.0107
561.882	-0.0073
562.076	-0.0057
562.2699	0.0035
562.4639	-0.006
562.6578	0.0031
562.8517	-0.0054
563.0456	-0.0019
563.2395	0.0049
563.4333	0.008
563.6272	0.0053
563.821	-0.0014
564.0148	-0.0075
564.2086	-0.0119
564.4024	-0.0077
564.5961	-0.0038
564.7899	0.0018
564.9836	-0.0031
565.1773	-0.001
565.371	0.0021
565.5647	-0.0065
565.7584	-0.0034
565.952	0.0015
566.1456	-0.0002
566.3393	-0.0097
566.5329	-0.0139
566.7264	-0.002
566.92	-0.0098
567.1136	-0.0015
567.3071	-0.0101
567.5006	-0.0047
567.6941	0.0032
567.8876	-0.002
568.0811	-0.0013
568.2745	0.0043
568.468	0.0013
568.6614	0.0036
568.8548	0.0102
569.0482	-0.0109
569.2416	0.0036
569.4349	-0.0048
569.6283	0.0041
569.8216	-0.0023
570.0149	-0.0098
570.2082	0.0012
570.4015	0.0097
570.5947	0.01
570.788	0.0016
570.9812	0.0031
571.1744	-0.0031
571.3676	-0.0073
571.5608	-0.0033
571.754	0.006
571.9471	0.0023
572.1402	-0.0035
572.3333	-0.0089
572.5264	-0.0052
572.7195	0.0029
572.9126	-0.0047
573.1057	-0.0003
573.2987	0.0042
573.4917	0.0038
573.6847	-0.0059
573.8777	0.0043
574.0707	0.0013
574.2636	-0.0055
574.4566	-0.0043
574.6495	0.0059
574.8424	-0.0014
575.0353	0.0036
575.2281	0.0047
575.421	0.0065
575.6138	0.0046
575.8067	0.002
575.9995	0.0059
576.1923	0.0085
576.385	-0.0016
576.5778	-0.0011
576.7706	0
576.9633	0.0005
577.156	0.008
577.3487	0.0039
577.5414	0.0034
577.734	-0.0083
577.9267	0.0059
578.1193	-0.0098
578.3119	-0.0035
578.5045	-0.0035
578.6971	-0.0016
578.8897	0.0019
579.0822	-0.0005
579.2747	0.0063
579.4673	-0.0073
579.6598	-0.0052
579.8522	-0.0036
580.0447	-0.0037
580.2372	-0.0016
580.4296	0.0022
580.622	-0.0009
580.8144	0.0009
581.0068	-0.0055
581.1992	-0.0101
581.3915	-0.005
581.5839	-0.0052
581.7762	-0.0088
581.9685	-0.0031
582.1608	0.0044
582.353	0.0015
582.5453	0.0002
582.7375	0.0017
582.9298	0.0002
583.122	0.0026
583.3142	-0.0032
583.5063	0.0022
583.6985	0.0014
583.8906	-0.0019
584.0827	-0.0026
584.2749	-0.0009
584.4669	-0.0005
584.659	-0.0023
584.8511	-0.0016
585.0431	-0.0024
585.2352	0.0013
585.4272	0.0018
585.6192	-0.0002
585.8111	-0.0049
586.0031	0.0033
586.195	-0.0032
586.387	-0.0016
586.5789	0.0008
586.7708	0.0041
586.9627	-0.0019
587.1545	-0.0063
587.3464	0.0035
587.5382	-0.0009
587.73	0.0026
587.9218	0.0019
588.1136	-0.0044
588.3053	0.0063
588.4971	-0.0065
588.6888	-0.0063
588.8805	0.0047
589.0722	-0.0009
589.2639	-0.0001
589.4556	-0.0014
589.6472	-0.008
589.8389	-0.0075
590.0305	-0.0079
590.2221	-0.0008
590.4137	-0.0052
590.6052	0.0008
590.7968	-0.0018
590.9883	0.0028
591.1798	0.0058
591.3713	0.0042
591.5628	0.0056
591.7543	0.0064
591.9458	0.0001
592.1372	0.0037
592.3286	0.0037
592.52	0.0019
592.7114	-0.003
592.9028	0.001
593.0941	-0.0041
593.2855	0.0004
593.4768	-0.0097
593.6681	-0.0034
593.8594	-0.0076
594.0506	0.0018
594.2419	0.0117
594.4331	0.0033
594.6244	-0.0012
594.8156	-0.0058
595.0067	0.0037
595.1979	-0.0027
595.3891	0.0011
595.5802	-0.0016
595.7713	0.0005
595.9624	-0.0031
596.1535	0.0102
596.3446	-0.0005
596.5357	0.0017
596.7267	0.0042
596.9177	0.0002
597.1087	-0.0018
597.2997	-0.0036
597.4907	0.009
597.6817	-0.0037
597.8726	-0.001
598.0635	0.0039
598.2544	-0.0009
598.4453	-0.0057
598.6362	-0.0094
598.827	-0.0084
599.0179	0.0002
599.2087	0.0053
599.3995	-0.002
599.5903	0.0025
599.7811	-0.0004
599.9718	-0.0021
600.1626	-0.001
600.3533	-0.0077
600.544	0.0056
600.7347	-0.0008
600.9254	0.0032
601.116	-0.0047
601.3067	-0.0058
601.4973	0.0009
601.6879	0.0115
601.8785	-0.0124
602.0691	-0.002
602.2596	0.0054
602.4502	0.0033
602.6407	0.0034
602.8312	0.0056
603.0217	-0.0047
603.2122	-0.002
603.4027	-0.0036
603.5931	-0.0001
603.7835	-0.0029
603.9739	-0.0059
604.1643	-0.0054
604.3547	-0.0034
604.5451	-0.0002
604.7354	-0.005
604.9257	-0.0045
605.116	-0.0051
605.3063	0.0053
605.4966	-0.0001
605.6869	0.0031
605.8771	0.0076
606.0673	-0.0021
606.2575	0.0091
606.4477	0.0036
606.6379	0.0053
606.8281	0.0023
607.0182	-0.0065
607.2083	0.0095
607.3985	-0.0069
607.5885	0.0054
607.7786	0.0039
607.9687	0.0054
608.1587	0.0078
608.3488	0.005
608.5388	-0.0006
608.7288	0.0054
608.9187	-0.0006
609.1087	-0.0026
609.2986	-0.0066
609.4886	-0.0001
609.6785	0.0016
609.8684	0.0031
610.0582	0.0063
610.2481	0.0047
610.4379	0.0048
610.6278	-0.003
610.8176	0.0018
611.0074	-0.0044
611.1971	-0.0009
611.3869	-0.0058
611.5766	-0.0071
611.7664	0.0125
611.9561	0.0017
612.1458	0.0023
612.3354	-0.0054
612.5251	-0
612.7147	-0.0023
612.9044	0.0095
613.094	-0.0074
613.2836	-0.0017
613.4731	-0.0058
613.6627	-0.0009
613.8522	0.0022
614.0417	-0.0033
614.2313	-0.0036
614.4207	-0.0087
614.6102	-0.0022
614.7997	0.0003
614.9891	-0.0029
615.1785	0.0016
615.3679	-0.0064
615.5573	0.0097
615.7467	-0.0003
615.9361	0.0003
616.1254	0.0048
616.3147	-0.0011
616.504	0.0054
616.6933	0.0065
616.8826	-0.0039
617.0718	0.0001
617.2611	0.0003
617.4503	0.0031
617.6395	0.0019
617.8287	0.0008
618.0179	-0.0035
618.207	0.0157
618.3961	0.0023
618.5853	0.0004
618.7744	0.0108
618.9634	0.0088
619.1525	0.006
619.3416	0.0013
619.5306	0.0015
619.7196	0.011
619.9086	0.0101
620.0976	0.0088
620.2866	0.0003
620.4755	0.0059
620.6645	0.0092
620.8534	0.0147
621.0423	0.0169
621.2312	0.0034
621.42	-0.0008
621.6089	0.0008
621.7977	-0.0013
621.9865	-0.0075
622.1753	0.0069
622.3641	0.0014
622.5529	0.0098
622.7416	0.0026
622.9303	-0.0021
623.1191	0.0055
623.3078	-0.0001
623.4964	-0.0029
623.6851	-0.0005
623.8737	-0.0028
624.0624	0.0079
624.251	-0.0007
624.4396	-0.0065
624.6282	-0.0032
624.8167	0.0044
625.0053	0.0092
625.1938	0.006
625.3823	0.0037
625.5708	-0.0029
625.7593	-0.0048
625.9477	-0.0025
626.1362	-0.0042
626.3246	0.0048
626.513	-0.002
626.7014	0.0093
626.8898	-0.0048
627.0781	0.0031
627.2665	-0.005
627.4548	0.0093
627.6431	0.0016
627.8314	0.0049
628.0197	0.0102
628.2079	-0.0048
628.3962	0.0037
628.5844	0.0063
628.7726	-0.0006
628.9608	0.0069
629.1489	0.0011
629.3371	0.0066
629.5252	-0.0035
629.7134	0.0091
629.9015	-0.0032
630.0895	0.0044
630.2776	0.0055
630.4657	-0.0015
630.6537	0.0021
630.8417	-0.0014
631.0297	0.0022
631.2177	0.0086
631.4057	-0.0013
631.5936	0.0034
631.7815	-0.0034
631.9695	-0.0019
632.1574	0.0083
632.3452	0.0041
632.5331	-0.0025
632.7209	0.0001
632.9088	0.0194
633.0966	0.0053
633.2844	-0.0032
633.4722	0.0036
633.6599	0.0046
633.8477	0.0051
634.0354	-0.0042
634.2231	0.002
634.4108	-0.0007
634.5985	0.0052
634.7861	0.0038
634.9738	0.0033
635.1614	0.0031
635.349	0.008
635.5366	-0.0023
635.7242	0.0013
635.9117	0.01
636.0993	-0.0001
636.2868	0.006
636.4743	0.0017
636.6618	0.0113
636.8492	0.0085
637.0367	-0.0023
637.2241	-0.0008
637.4115	-0.0044
637.5989	-0.0045
637.7863	-0.0015
637.9737	-0.0077
638.161	0.0007
638.3484	-0.0026
638.5357	0.0042
638.723	-0.006
638.9103	0.0031
639.0975	0.0053
639.2848	0.0026
639.472	0.0004
639.6592	0.0045
639.8464	0.0056
640.0336	0.011
640.2208	-0.0058
640.4079	0.0012
640.595	0.0034
640.7821	0.0015
640.9692	-0.0021
641.1563	0.0017
641.3434	-0.0015
641.5304	-0.0001
641.7174	0.0007
641.9044	-0.0001
642.0914	0.0042
642.2784	0.0039
642.4653	0.0018
642.6523	-0.0026
642.8392	-0.0052
643.0261	0.0106
643.213	0.0042
643.3999	-0.004
643.5867	-0.006
643.7735	0.0013
643.9604	-0.0094
644.1472	0.0004
644.3339	-0.0005
644.5207	-0.0036
644.7075	0.0019
644.8942	0.0013
645.0809	0.009
645.2676	0.0075
645.4543	0.0009
645.6409	0.0017
645.8276	-0.003
646.0142	0.0015
646.2008	-0.008
646.3874	-0.0016
646.574	-0.0034
646.7605	-0.0069
646.9471	-0.0121
647.1336	-0.0042
647.3201	0.0044
647.5066	-0.0041
647.6931	0.0026
647.8795	-0.0048
648.0659	0.0015
648.2524	0.0046
648.4388	-0.0115
648.6252	-0.0025
648.8115	-0.003
648.9979	0.0016
649.1842	0.0059
649.3705	0.0042
649.5568	-0.0007
649.7431	0.0115
649.9294	0.0004
650.1156	0.0044
650.3018	-0.0014
650.488	0.0035
650.6742	0.0039
650.8604	-0.003
651.0466	-0.0062
651.2327	0.001
651.4188	0.0041
651.6049	-0.0019
651.791	-0.0021
651.9771	0.0018
652.1632	0.0086
652.3492	-0.0013
652.5352	0.0032
652.7212	-0.0064
652.9072	0.0046
653.0932	-0.0021
653.2791	-0.0098
653.465	-0
653.651	-0.0093
653.8369	-0.0091
654.0227	-0.006
654.2086	-0.0055
654.3944	0.0066
654.5803	0.0013
654.7661	-0.0052
654.9519	-0.0056
655.1377	-0.0046
655.3234	-0.0026
655.5092	-0.0013
655.6949	-0.0077
655.8806	-0.0029
656.0663	0.0004
656.2519	-0.0019
656.4376	-0.0074
656.6232	-0.0024
656.8088	-0.0043
656.9945	-0.0002
657.18	-0.0047
657.3656	-0.0041
657.5511	-0.0028
657.7367	-0.0039
657.9222	-0.0043
658.1077	0.0002
658.2932	0.0005
658.4786	-0.008
658.6641	-0.0017
658.8495	-0.003
659.0349	-0.0034
659.2203	-0.0006
659.4057	0.0021
659.591	-0.0017
659.7764	-0.0054
659.9617	0.0018
660.147	-0.0007
660.3323	0.002
660.5176	0.0086
660.7028	0.0057
660.888	0.0012
661.0733	0.0018
661.2585	-0.0081
661.4436	-0.0015
661.6288	-0.003
661.8139	-0.0008
661.9991	0.0066
662.1842	-0.0052
662.3693	0.0026
662.5544	-0.0092
662.7394	-0.0026
662.9245	-0.0016
663.1095	-0.0022
663.2945	0.0047
663.4795	-0.0045
663.6644	0.001
663.8494	0.0016
664.0343	0.0044
664.2193	-0.01
664.4042	-0.0011
664.589	-0.0038
664.7739	-0.0038
664.9587	-0.0098
665.1436	0.0023
665.3284	-0.0033
665.5132	-0.001
665.698	0.0024
665.8827	0.0078
666.0675	0.0019
666.2522	-0.0006
666.4369	0.0051
666.6216	0.0126
666.8063	0.0047
666.9909	0.0051
667.1756	0.0009
667.3602	-0.004
667.5448	0.0058
667.7294	0.0124
667.9139	0.0071
668.0985	0.0109
668.283	0.0022
668.4675	0.0098
668.652	0.003
668.8365	0.0065
669.0209	0.005
669.2054	0.0056
669.3898	-0.0025
669.5742	0.0079
669.7586	0.0058
669.943	0.0044
670.1273	0.0043
670.3117	0.0073
670.496	0.0123
670.6803	0.0101
670.8646	0.0026
671.0488	-0.0063
671.2331	0.0106
671.4173	0.0095
671.6015	0.0046
671.7857	0.0096
671.9699	0.003
672.1541	0.0127
672.3382	0.0135
672.5223	0.0032
672.7064	0.007
672.8905	0.0037
673.0746	0.0106
673.2587	-0.0005
673.4427	0.0004
673.6267	0.0093
673.8107	0.0099
673.9947	0.0047
674.1787	0.003
674.3626	-0.0139
674.5465	-0.0004
674.7304	0.0023
674.9143	-0.0022
675.0982	0.0055
675.2821	-0.0033
675.4659	0.0008
675.6497	0.0035
675.8335	0.0003
676.0173	0.0005
676.2011	0.0053
676.3849	0.0012
676.5686	-0.0019
676.7523	0.0029
676.936	0.0018
677.1197	0.0043
677.3034	-0.0013
677.487	0.0006
677.6706	0.0036
677.8542	-0.0052
678.0378	-0.006
678.2214	0.0009
678.405	0.0035
678.5885	-0.0052
678.772	-0.0011
678.9555	-0.0079
679.139	-0.0073
679.3225	-0.003
679.5059	0.0065
679.6894	0.0047
679.8728	-0.0006
680.0562	-0.0059
680.2395	-0.004
680.4229	-0.0081
680.6062	0.0077
680.7896	-0.0029
680.9729	-0.0092
681.1562	0.0045
681.3394	0.0024
681.5227	-0.0101
681.7059	-0.0001
681.8891	0.0003
682.0723	0.0083
682.2555	0.0033
682.4387	-0.0042
682.6218	-0.009
682.805	0.004
682.9881	0.0046
683.1712	-0.007
683.3542	-0.0065
683.5373	0.0058
683.7203	-0.0039
683.9034	-0.0061
684.0864	-0.0071
684.2694	-0.0003
684.4523	0.0014
684.6353	-0.006
684.8182	0.0007
685.0011	-0.009
685.184	0.0044
685.3669	-0
685.5498	0.0061
685.7326	0.0029
685.9154	-0.0062
686.0982	0.0081
686.281	0.0037
686.4638	0.0102
686.6465	0.003
686.8293	0.0013
687.012	0.009
687.1947	-0.0035
687.3774	0.0026
687.56	0.0006
687.7427	0.0018
687.9253	0.0008
688.1079	-0.003
688.2905	0.004
688.4731	-0.0023
688.6556	-0.0065
688.8382	-0.0028
689.0207	0.0086
689.2032	-0.0046
689.3857	-0.0054
689.5681	0.006
689.7506	-0.0059
689.933	-0.0001
690.1154	0.0028
690.2978	-0.0049
690.4802	0.0019
690.6626	-0.0051
690.8449	-0.0043
691.0272	0.0069
691.2095	0.0004
691.3918	-0.0037
691.5741	0.0041
691.7563	0.004
691.9386	-0.0006
692.1208	0.001
692.303	0.0037
692.4852	0.0001
692.6673	-0.0019
692.8495	0.0063
693.0316	-0.0013
693.2137	0.0024
693.3958	0.0046
693.5778	0.0047
693.7599	0.0005
693.9419	-0.0021
694.1239	0.0062
694.3059	0.0053
694.4879	0.0057
694.6699	0.0079
694.8518	0.0014
695.0337	0.0002
695.2157	0.0084
695.3975	-0.002
695.5794	0.0103
695.7613	0.0096
695.9431	-0.001
696.1249	0.0018
696.3067	0.001
696.4885	0.0062
696.6703	-0.0058
696.852	-0.0027
697.0337	0.0028
697.2154	-0.003
697.3971	-0.0042
697.5788	-0.0019
697.7605	-0.0025
697.9421	-0.0039
698.1237	-0.001
698.3053	-0.0036
698.4869	-0.0072
698.6685	-0.0085
698.85	-0.0017
699.0315	0.0068
699.213	-0.0016
699.3945	-0.0031
699.576	0.0003
699.7575	0.006
699.9389	0.0079
700.1203	-0.0008
700.3017	-0.0002
700.4831	-0.0019
700.6645	-0.0002
700.8458	0.0096
701.0271	0.0016
701.2084	0.0091
701.3897	-0
701.571	0.0115
701.7523	-0.0074
701.9335	-0.0012
702.1147	-0.0042
702.2959	0.0049
702.4771	-0.0014
702.6583	-0.001
702.8394	-0.0061
703.0205	0.0036
703.2016	-0.0115
703.3827	0.0046
703.5638	0.008
703.7449	-0.0013
703.9259	0.0133
704.1069	-0.0005
704.2879	-0.0007
704.4689	0.0029
704.6499	0.0067
704.8308	0.0055
705.0117	0.0075
705.1927	0.005
705.3735	-0.0005
705.5544	0.002
705.7353	0.0016
705.9161	-0.0027
706.0969	-0.0039
706.2777	0.0029
706.4585	-0.0029
706.6393	0.0014
706.82	-0.0056
707.0007	0.0011
707.1815	-0.0002
707.3621	0.0074
707.5428	0.0068
707.7235	0.0069
707.9041	0.0071
708.0847	-0.0108
708.2653	-0.0083
708.4459	-0.0075
708.6265	0.0065
708.807	0.0053
708.9875	0.0029
709.168	-0.0019
709.3485	0.0042
709.529	0.0004
709.7095	-0.0102
709.8899	-0.0001
710.0703	-0.0066
710.2507	-0.0082
710.4311	-0.0022
710.6115	-0.0139
710.7918	-0.0074
710.9721	-0.0024
711.1524	-0.0047
711.3327	-0.0026
711.513	-0.0052
711.6932	-0.007
711.8735	0.0044
712.0537	0.0008
712.2339	0.0009
712.4141	-0.0142
712.5942	-0.008
712.7744	-0.0042
712.9545	-0.0118
713.1346	-0.0118
713.3147	-0.0047
713.4947	-0.0074
713.6748	-0.0074
713.8548	-0.0026
714.0348	-0.0018
714.2148	-0.0079
714.3948	0.0094
714.5748	-0.005
714.7547	-0.0061
714.9346	-0.0015
715.1145	-0.0035
715.2944	-0.0105
715.4743	-0.0044
715.6541	0.0013
715.834	-0.0052
716.0138	-0.0093
716.1936	-0.0121
716.3733	-0.0072
716.5531	0.0014
716.7328	-0.0034
716.9126	-0.0009
717.0923	-0.0001
717.2719	-0.0017
717.4516	-0.0038
717.6312	0.004
717.8109	-0.0058
717.9905	0.0067
718.1701	-0.0013
718.3496	-0.0011
718.5292	-0.0019
718.7087	0.0029
718.8882	-0.0031
719.0677	0.0061
719.2472	-0.0058
719.4267	-0.0015
719.6061	-0.0043
719.7856	-0.0008
719.965	0.0057
720.1443	-0.0017
720.3237	0.0112
720.5031	0.0011
720.6824	0.0081
720.8617	0.0008
721.041	0.0076
721.2203	0.012
721.3995	0.0115
721.5788	0.0075
721.758	0.0041
721.9372	0.0071
722.1164	0.0008
722.2956	0.0107
722.4747	0.0072
722.6538	-0.0036
722.8329	0.0148
723.012	0.0094
723.1911	0.003
723.3702	0.004
723.5492	0.0121
723.7282	0.002
723.9072	0.0024
724.0862	0.0013
724.2652	-0.005
724.4441	-0.0096
724.623	-0.0029
724.8019	-0.0055
724.9808	-0.0079
725.1597	-0.0039
725.3385	0.0069
725.5174	0.0063
725.6962	0.0007
725.875	0.0019
726.0538	0.011
726.2325	-0.0025
726.4112	-0.0039
726.59	-0.0007
726.7687	-0.0034
726.9474	0.0069
727.126	-0
727.3047	-0.0028
727.4833	0.0033
727.6619	-0.0032
727.8405	-0.0104
728.0191	-0.0026
728.1976	-0.0024
728.3762	0.0031
728.5547	0.0027
728.7332	-0.0078
728.9116	-0.0018
729.0901	0.0036
729.2686	-0.0092
729.447	-0.0038
729.6254	-0.0024
729.8038	-0.0026
729.9821	-0.006
730.1605	-0.0009
730.3388	-0.0025
730.5171	0.0038
730.6954	-0.0121
730.8737	0.001
731.0519	-0.0001
731.2302	-0.0059
731.4084	0.0026
731.5866	0.0054
731.7648	-0.0102
731.9429	-0.0058
732.1211	-0.0054
732.2992	0.0056
732.4773	0.006
732.6554	0.0038
732.8335	0.0074
733.0115	0.0031
733.1896	0.0097
733.3676	-0.0055
733.5456	0.0071
733.7235	0.013
733.9015	-0.001
734.0794	0.0002
734.2574	0.0009
734.4353	0.002
734.6131	0.0036
734.791	0.0024
734.9689	0.0014
735.1467	0.0028
735.3245	-0.0063
735.5023	-0.0114
735.68	-0.0104
735.8578	0.0018
736.0355	-0.0122
736.2132	-0.0084
736.3909	0.0011
736.5686	-0.0069
736.7463	0.0077
736.9239	-0.0005
737.1015	-0.0098
737.2791	0.0038
737.4567	-0.0006
737.6343	-0.0055
737.8118	-0.0036
737.9894	-0.0084
738.1669	-0.0012
738.3444	-0.009
738.5218	-0.005
738.6993	-0.0057
738.8767	0.0004
739.0541	0.0066
739.2315	-0.016
739.4089	-0.007
739.5863	0.0053
739.7636	-0.005
739.9409	-0.0021
740.1182	-0.0027
740.2955	0
740.4728	-0.0106
740.65	-0.0044
740.8272	-0.007
741.0044	-0.0061
741.1816	-0.0068
741.3588	-0.0014
741.5359	-0.0083
741.7131	-0.0087
741.8902	-0.0023
742.0673	0.0023
742.2444	-0.0103
742.4214	-0.0109
742.5985	-0.0124
742.7755	-0.0115
742.9525	-0.0222
743.1295	-0.0057
743.3064	-0.0043
743.4834	0.0019
743.6603	-0.0053
743.8372	-0.0123
744.0141	-0.0032
744.191	0.0043
744.3678	0.0037
744.5446	-0.0026
744.7215	-0.0036
744.8982	-0.0061
745.075	-0.0072
745.2518	0.005
745.4285	0.0012
745.6052	-0.0052
745.7819	0.0014
745.9586	-0.0042
746.1353	0.0059
746.3119	-0.0017
746.4885	-0.0046
746.6651	0
746.8417	0.0066
747.0183	-0.0002
747.1948	0.002
747.3714	0.0056
747.5479	0.0081
747.7244	0.0086
747.9008	0.0099
748.0773	0.0015
748.2537	-0.0011
748.4301	-0.0153
748.6065	-0.0012
748.7829	0.0101
748.9593	-0.0056
749.1356	0.0083
749.3119	0.0016
749.4882	-0.0025
749.6645	0.007
749.8408	0.0035
750.017	-0.0035
750.1933	0.0043
750.3695	0.0015
750.5457	0.0022
750.7218	0.0053
750.898	0.0107
751.0741	-0.0068
751.2502	0.0012
751.4263	-0.0018
751.6024	0.0045
751.7784	0.001
751.9545	0.0041
752.1305	-0.0039
752.3065	-0.0044
752.4825	0.0061
752.6584	-0.0071
752.8344	-0.0115
753.0103	-0.0089
753.1862	-0.0155
753.3621	-0.0156
753.5379	-0.0153
753.7138	-0.0064
753.8896	-0.001
754.0654	0.0006
754.2412	0.0129
754.417	-0
754.5927	-0.0038
754.7685	0.0028
754.9442	0.0015
755.1199	0.0025
755.2956	-0.0015
755.4712	0.0122
755.6469	0.004
755.8225	-0.0053
755.9981	0.0014
756.1736	0.0038
756.3492	-0.0011
756.5248	0.0007
756.7003	-0.0046
756.8758	0.0078
757.0513	-0.0091
757.2267	-0.0055
757.4022	0.0008
757.5776	-0.0122
757.753	0.0025
757.9284	-0.0002
758.1038	0.0112
758.2791	0.0023
758.4545	-0.0056
758.6298	0.0025
758.8051	0.0069
758.9803	0.0062
759.1556	0.0067
759.3308	-0.0055
759.506	0.0153
759.6812	0.0132
759.8564	0.0227
760.0316	-0.0004
760.2067	0.0046
760.3819	0.0021
760.557	0.0066
760.732	0.0014
760.9071	-0.0137
761.0821	0.006
761.2572	0.003
761.4322	-0.012
761.6072	-0.01
761.7821	-0.0048
761.9571	0.001
762.132	-0.0045
762.3069	-0.0077
762.4818	-0.007
762.6567	-0.0042
762.8316	-0.0054
763.0064	0.0007
763.1812	-0.0035
763.356	-0.0137
763.5308	-0.0045
763.7055	0.0046
763.8803	-0.0113
764.055	-0.0103
764.2297	-0.0045
764.4044	-0.0148
764.579	-0.0052
764.7537	-0.007
764.9283	-0.0014
765.1029	-0.0089
765.2775	0.0021
765.4521	-0.004
765.6266	-0.0053
765.8011	-0.0049
765.9756	-0.0024
766.1501	0.0003
766.3246	0.006
766.4991	-0.0043
766.6735	-0.0063
766.8479	-0.0032
767.0223	0.0046
767.1967	0.0023
767.371	-0.0024
767.5454	0.0032
767.7197	-0.0007
767.894	-0.0067
768.0683	-0.0115
768.2425	0.0072
768.4168	-0.0055
768.591	0.004
768.7652	0.0081
768.9394	0.0016
769.1135	0.0094
769.2877	0.0076
769.4618	0.0105
769.6359	0.0011
769.81	0.0072
769.984	-0.0045
770.1581	-0.0016
770.3321	0.0019
770.5061	-0.0008
770.6801	-0.0047
770.8541	0.0013
771.028	-0.0024
771.202	-0.0106
771.3759	0.0066
771.5498	-0.0044
771.7236	0.0108
771.8975	0.0065
772.0713	0.0041
772.2451	0.0046
772.4189	0.0081
772.5927	0.0119
772.7665	0.006
772.9402	0.0044
773.1139	-0.0039
773.2876	0.0021
773.4613	0.0018
773.635	0.0012
773.8086	-0.0129
773.9822	-0.0049
774.1558	0.0025
774.3294	-0.0094
774.503	-0.0031
774.6765	-0.0014
774.8501	0.0103
775.0236	0.0018
775.1971	-0.0008
775.3705	-0.0001
775.544	0.0016
775.7174	-0.0034
775.8908	0.0018
776.0642	-0.0013
776.2376	0.0034
776.4109	-0
776.5843	0.0016
776.7576	-0.0038
776.9309	0.0156
777.1041	0.008
777.2774	0.014
777.4506	0.002
777.6238	-0.0061
777.797	-0.0096
777.9702	0.0034
778.1434	0.002
778.3165	-0.0069
778.4896	0.004
778.6627	0.0054
778.8358	0.0013
779.0089	0.0037
779.1819	-0.0067
779.3549	0.0082
779.5279	0.0064
779.7009	0.0064
779.8739	-0.0039
780.0468	0.0068
780.2197	0.004
780.3926	0.0044
780.5655	0.001
780.7384	0.0014
780.9112	0.0059
781.0841	-0.0114
781.2569	-0.0063
781.4297	0.0017
781.6024	0.0029
781.7752	0.0114
781.9479	0.0066
782.1206	0.008
782.2933	-0.007
782.466	0.0081
782.6386	0.0149
782.8113	0.0056
782.9839	0.0106
783.1565	0.0231
783.329	0.006
783.5016	0.0014
783.6741	0.0065
783.8466	-0.0072
784.0191	0.0137
784.1916	-0.0044
784.3641	0.0021
784.5365	-0.0027
784.7089	-0.0041
784.8813	-0.0111
785.0537	-0.004
785.2261	-0.0106
785.3984	-0.0044
785.5707	-0.0072
785.743	0.0023
785.9153	-0.025
786.0876	-0.0063
786.2598	-0.0013
786.432	-0.0208
786.6042	0.0049
786.7764	0.0049
786.9486	0.0102
787.1207	-0.0052
787.2928	0.0041
787.4649	0.0142
787.637	0.004
787.8091	-0.0034
787.9811	-0.0071
788.1532	-0.0027
788.3252	0.0132
788.4972	-0.0024
788.6691	0.0087
788.8411	0.0081
789.013	-0.0098
789.1849	0.0043
789.3568	-0.0015
789.5287	-0.0094
789.7005	-0.013
789.8723	0.0113
790.0442	0.0178
790.2159	0.0058
790.3877	0.0011
790.5595	-0.0062
790.7312	0.0058
790.9029	0.0081
791.0746	0.0006
791.2463	0.012
791.4179	0.0062
791.5896	-0.0022
791.7612	0.009
791.9328	0.0058
792.1044	0.0065
792.2759	-0.0069
792.4474	-0.0018
792.619	0.0037
792.7905	0.003
792.9619	0.0053
793.1334	0.0044
793.3048	0.0175
793.4762	0.0117
793.6476	0.011
793.819	-0.0071
793.9904	0.013
794.1617	-0.0056
794.333	-0.0133
794.5043	0.0014
794.6756	0.0125
794.8469	0.0018
795.0181	0.0028
795.1893	0.0038
795.3605	0.0028
795.5317	0.0037
795.7029	0.0087
795.874	0.0015
796.0452	0.0049
796.2163	-0.0012
796.3873	0.0166
796.5584	0.0143
796.7294	-0.002
796.9005	0.016
797.0715	0.0154
797.2425	-0.0067
797.4134	-0.0013
797.5844	0.013
797.7553	-0.0115
797.9262	0.013
798.0971	-0.0114
798.2679	0.0002
798.4388	-0.0023
798.6096	0.0042
798.7804	0.017
798.9512	0.0037
799.122	-0.0002
799.2927	0.018
799.4635	0.0175
799.6342	-0.0069
799.8049	0.0072
799.9755	0.0076
800.1462	0.0181
800.3168	0.0195
800.4874	0.0025
800.658	0.023
800.8286	0.002
800.9991	0.0145
801.1696	0.0071
801.3402	0.0214
801.5106	0.0035
801.6811	0.0104
801.8516	0.0119
802.022	0.0016
802.1924	0.0072
802.3628	0.0142
802.5332	0.0085
802.7035	0.0236
802.8739	0.0085
803.0442	-0.0056
803.2145	0.0119
803.3847	-0.0297
803.555	0.0152
803.7252	-0.0141
803.8954	-0.0027
804.0656	-0.009
804.2358	0.0044
804.4059	0.0206
804.5761	-0.0013
804.7462	0.0018
804.9163	-0.0009
805.0864	0.0073
805.2564	0.01
805.4264	0.0308
805.5965	0.0045
805.7665	0.027
805.9364	0.0104
806.1064	0.037
806.2763	0.0201
806.4462	0.0334
806.6161	0.007
806.786	0.0173
806.9559	-0.0162
807.1257	0.0127
807.2955	0.0048
807.4653	0.0044
807.6351	0.0014
807.8048	0.0028
807.9746	0.0076
808.1443	0.0161
808.314	0.0107
808.4837	-0.0054
808.6533	0.0128
808.8229	0.0292
808.9926	0.0052
809.1622	0.0236
809.3317	-0.0052
809.5013	0.0023
809.6708	0.0154
809.8403	0.0215
810.0098	0.0168
810.1793	0.0113
810.3488	0.0166
810.5182	-0.0008
810.6876	0.012
810.857	0.0019
811.0264	0.0238
811.1958	0.0075
811.3651	0.0168
811.5344	0.0053
811.7037	0.0026
811.873	0.0016
812.0422	-0.0034
812.2115	-0.0075
812.3807	-0.0054
812.5499	0.0181
812.7191	0.0089
812.8882	-0.0034
813.0574	0.0047
813.2265	-0.0073
813.3956	0.027
813.5646	0.0236
813.7337	0.0061
813.9027	0.0096
814.0718	0.0357
814.2407	0.0503
814.4097	0.0067
814.5787	-0.0129
814.7476	0.0173
814.9165	0.0099
815.0854	0.0322
815.2543	0.0078
815.4232	0.0204
815.592	0.0392
815.7608	0.0243
815.9296	0.0068
816.0984	0.0198
816.2671	0.0078
816.4359	-0.0072
816.6046	0.0365
816.7733	0.0061
816.942	-0.0096
817.1106	0.0165
817.2793	0.0163
817.4479	0.0217
817.6165	0.0249
817.785	0.0243
817.9536	-0.001
818.1221	0.0019
818.2906	0.018
818.4591	0.0256
818.6276	-0
818.7961	0.0131
818.9645	0.0239
819.1329	0.0226
819.3013	0.0367
819.4697	0.0449
819.638	0.0196
819.8064	0.0277
819.9747	0.0116
820.143	-0.0022
820.3113	-0.0168
820.4795	0.036
820.6477	0.0219
820.816	0.0277
820.9842	-0.0155
821.1523	0.018
821.3205	-0.0007
821.4886	0.0004
821.6567	0.0194
821.8248	0.0323
821.9929	0.0087
822.1609	-0
822.329	0.0377
822.497	0.0324
822.665	0.0092
822.833	-0.0004
823.0009	0.0239
823.1688	0.0204
823.3367	0.0559
823.5046	0.0204
823.6725	0.0368
823.8404	-0.0004
824.0082	0.0075
824.176	0.0124
824.3438	0.0109
824.5116	-0.0177
824.6793	-0.0105
824.847	0.0109
825.0147	0.0034
825.1824	0.0075
825.3501	0.0332
825.5177	-0.0022
825.6854	-0.0148
825.853	0.0393
826.0206	-0.0236
826.1881	0.0109
826.3557	-0.014
826.5232	0.0338
826.6907	-0.0194
826.8582	-0.0023
827.0257	-0.0238
827.1931	0.0133
827.3605	0.0222
827.528	0.0108
827.6953	-0.0389
827.8627	-0.0111
828.03	0.0514
828.1974	0.0052
828.3647	0.0073
828.532	-0.0146
828.6992	0.012
828.8665	0.0053
829.0337	0.0082
829.2009	-0.0079
829.3681	-0.0131
829.5352	0.0412
829.7024	-0.0106
829.8695	-0.0127
830.0366	0.0249
830.2037	-0.0041
830.3707	0.0264
830.5378	-0.0043
830.7048	0.0071
830.8718	0.0351
831.0388	-0.0278
831.2057	0.0135
831.3727	-0.0062
831.5396	-0.0248
831.7065	0.0087
831.8734	0.036
832.0402	-0.0293
832.2071	-0.0111
832.3739	-0.0245
832.5407	0.0158
832.7075	-0.0006
832.8742	-0.0079
833.041	-0.0195
833.2077	-0.003
833.3744	0.0573
833.541	-0.006
833.7077	-0.0025
833.8743	-0.0071
834.0409	-0.0049
834.2075	-0.015
834.3741	0.0176
834.5407	0.0323
834.7072	0.0162
834.8737	-0.0276
835.0402	-0.006
835.2067	0.0088
835.3731	0.0127
835.5395	0.0284
835.706	0.0399
835.8723	-0.0043
836.0387	0.0344
836.2051	-0.0164
836.3714	0.0182
836.5377	0.0299
836.704	-0.0323
836.8703	0.023
837.0365	-0.0303
837.2027	0.0084
837.3689	-0.0061
837.5351	0.0023
837.7013	-0.0335
837.8674	-0.0163
838.0335	-0.0233
838.1997	0.0016
838.3657	-0.0607
838.5318	-0.0171
838.6978	0.026
838.8639	-0
839.0299	-0.034
839.1958	0.0333
839.3618	-0.0068
839.5277	-0.0168
839.6937	0.0058
839.8596	-0.0398
840.0254	0.0353
840.1913	0.0379
840.3571	0.0142
840.523	0.0162
840.6888	-0.0377
840.8545	-0.0448
841.0203	0.0124
841.186	0.0238
841.3517	0.023
841.5174	-0
841.6831	-0.022
841.8488	0.0375
842.0144	0.0055
842.18	-0.0026
842.3456	0.0291
842.5112	0.0051
842.6767	-0.0285
842.8422	-0.03
843.0077	-0.001
843.1732	0.0314
843.3387	0.008
843.5042	-0.0172
843.6696	0.0299
843.835	0.0154
844.0004	0.0482
844.1657	0.0601
844.3311	-0.0384
844.4964	-0.0633
844.6617	0.017
844.827	-0.0204
844.9923	0.0081
845.1575	-0.022
845.3227	0.0093
845.4879	0.016
845.6531	-0.0838
845.8183	-0.0682
845.9834	0.0324
846.1485	-0.0254
846.3136	-0.0318
846.4787	-0.03
846.6438	0.0546
846.8088	-0.0626
846.9738	-0.0322
847.1388	-0.0391
847.3038	-0.025
847.4687	-0.1265
847.6337	0.0309
847.7986	0.004
847.9635	0.0305
848.1284	0.0678
848.2932	0.0222
848.458	0.0069
848.6228	0.0562
848.7876	0.0586
848.9524	-0.0713
849.1172	-0.0996
849.2819	-0.0284
849.4466	-0.0896
849.6113	-0.0863
849.7759	-0.0562
849.9406	0.0229
850.1052	0.0633
850.2698	-0.0328
850.4344	0.0119
850.599	-0.0664
850.7635	0.1062
850.928	0.0416
851.0925	0.1135
851.257	0.0018
851.4215	-0.0333
851.5859	-0.0669
851.7503	0.0418
851.9147	-0.0286
852.0791	-0.0164
852.2434	-0.0934
852.4078	0.0528
852.5721	0.0513
852.7364	-0.066
852.9007	-0.2677
853.0649	0.002
853.2291	0.0391
853.3934	-0.0397
853.5575	-0.0124
853.7217	-0.0545
853.8859	-0.1477
854.05	-0.0499
854.2141	0.0955
854.3782	-0.1862
854.5423	-0.0397
854.7063	0.1347
854.8703	-0.0189
855.0343	-0.0504
855.1983	-0.0954
855.3623	0.1123
855.5262	0.1122
855.6901	0.0382
855.854	0.0669
856.0179	0.0112
856.1818	0.3214
856.3456	0.0173
856.5094	-0.111
856.6732	-0
856.837	0.0111
857.0008	0.0539
857.1645	-0.0594
857.3282	0.0283
857.4919	-0.0187
857.6556	-0.0538
857.8192	-0.0286
857.9828	0.1551
858.1465	-0.0039
858.31	-0.0631
858.4736	-0.0189
858.6372	-0.1522
858.8007	-0.1923
858.9642	0.0911
859.1277	-0.0651
859.2911	-0.0836
859.4546	0.0265
859.618	-0.2626
859.7814	0.0137
859.9448	-0.017
860.1081	0.0564
860.2715	0.0694
860.4348	-0.0438
860.5981	0.0242
860.7614	0.0976
860.9246	-0.2556
861.0879	0.1245
861.2511	0.0189
861.4143	-0.2061
861.5774	0.5322
861.7406	-0.192
861.9037	-0.027
862.0668	-0.2037
862.2299	-0.2037
862.393	0.0392
862.556	-0.2001
862.7191	-0.2234
862.8821	0.0942
863.0451	0.2249
863.208	0.0485
863.371	-0.0385
863.5339	-0.2767
863.6968	0.3102
863.8597	-0.1357
864.0225	0.0503
864.1854	-0.2103
864.3482	-0.1754
864.511	0.0817
864.6737	0.0341
864.8365	0.039
864.9992	0.3226
865.1619	-0.68
865.3246	0.2448
865.4873	-0.024
865.65	-0.2051
865.8126	-0.2229
865.9752	0.279
866.1378	-0.1834
866.3004	-0
866.4629	0.2319
866.6254	-0.0743
866.7879	0.051
866.9504	-0.111
867.1129	-0
867.2753	0.2999
867.4377	0.0647
867.6001	-0.3154
867.7625	-0.1418
867.9249	-0
868.0872	0.5491
868.2495	0.4406
868.4118	-0.2677
868.5741	-0.2797
868.7363	0.0471
868.8986	-0.3553
869.0608	-0.1891
869.223	0.276
869.3851	-0
869.5473	-0
869.7094	-0.061
869.8715	-0.1741
870.0336	-0
870.1957	-0.5002
870.3577	-0
870.5197	-0.3173
870.6817	-0.0752
870.8437	-0.079
871.0057	-0.4337
871.1676	-0
871.3295	-0.3858
871.4914	-0
871.6533	-0.4196
871.8151	-0.5919
871.977	-0
872.1388	-0
872.3006	-0
872.4623	-0
872.6241	0.2016
872.7858	0.2727
872.9475	-0.244
873.1092	-0.2319
873.2709	-0
873.4325	0.1121
873.5941	-0.6437
873.7557	-0
873.9173	-0
874.0789	-0.0716
874.2404	-0
874.4019	0.3643
874.5634	-0.1754
874.7249	-0.3048
874.8863	1.0923
875.0478	0.2883
875.2092	-0
875.3706	0.1377
875.5319	0.3774
875.6933	0.5927
875.8546	0.4272
876.0159	0.6131
876.1772	-0.1063
876.3385	-0
876.4997	0.8901
876.6609	0.0454
876.8221	0.1408
876.9833	-0
877.1445	-0
877.3056	0.0244
877.4667	-0.259
877.6278	-0
877.7889	-0.7795
877.9499	-0
878.111	-0
878.272	-0
878.433	-0
878.5939	-0
878.7549	-0.0768
878.9158	-0.8204
879.0767	-0
879.2376	-0
879.3984	0.117
879.5593	-0
879.7201	-0.2064
879.8809	-0.1737
880.0417	-0.184
880.2024	-0.0788
880.3632	1.1139
880.5239	0.0326
880.6846	-0.1491
880.8452	-2.4031
881.0059	-1.3304
881.1665	0.2794
881.3271	-0.1041
881.4877	-0.5857
881.6483	-0.3146
881.8088	-0.0576
881.9693	0.7444
882.1298	0.7444
882.2903	0.7444
