Data from MonoPyChalIsomerACN10uM380nmA_Absorbance_13-38-32-349.txt Node
Date: Fri Jul 05 13:38:32 BST 2024
User: LASERRRRR
Spectrometer: FLMT03099
Trigger mode: 0
Integration Time (sec): 1.000000E-1
Scans to average: 1
Electric dark correction enabled: true
Nonlinearity correction enabled: false
Boxcar width: 0
XAxis mode: Wavelengths
Number of Pixels in Spectrum: 3648
>>>>>Begin Spectral Data<<<<<
179.3399	-0
179.5586	-0
179.7771	-0
179.9957	0.2214
180.2143	-0
180.4329	-0
180.6514	-0
180.8699	-0
181.0885	0.0782
181.307	-0.2068
181.5255	-0
181.744	-0.1617
181.9625	-0
182.181	-1.0459
182.3994	0.0877
182.6179	0.917
182.8363	-0
183.0547	-0.1694
183.2732	-0.0631
183.4916	0.3379
183.71	0.2971
183.9284	-0.0751
184.1467	-0.1217
184.3651	0.0729
184.5835	-0.0041
184.8018	0.1821
185.0201	-0.0502
185.2385	-0.0744
185.4568	0.1647
185.6751	0.0901
185.8934	0.1707
186.1117	-0.0525
186.3299	0.1264
186.5482	0.0426
186.7664	-0.1896
186.9847	-0.101
187.2029	0.2318
187.4211	-0.096
187.6393	0.0509
187.8575	-0.1813
188.0757	0.1592
188.2939	0.1527
188.512	0.4765
188.7302	-0.0697
188.9483	-0.012
189.1665	0.1793
189.3846	-0.0115
189.6027	0.192
189.8208	0.179
190.0389	0.0628
190.257	0.0642
190.475	0.2881
190.6931	0.3866
190.9111	0.2896
191.1292	0.0882
191.3472	0.418
191.5652	0.2121
191.7832	0.2704
192.0012	0.4076
192.2192	0.2841
192.4371	0.5053
192.6551	0.4647
192.873	0.3834
193.091	0.3335
193.3089	0.5912
193.5268	0.4012
193.7447	0.4309
193.9626	0.55
194.1805	0.5305
194.3984	0.8217
194.6162	0.3684
194.8341	0.4377
195.0519	0.5823
195.2697	0.6679
195.4875	0.7626
195.7054	0.6681
195.9231	0.4812
196.1409	0.7778
196.3587	0.8855
196.5765	0.7567
196.7942	0.8716
197.012	0.727
197.2297	0.483
197.4474	0.7799
197.6651	0.6291
197.8828	0.6512
198.1005	0.8806
198.3182	0.7073
198.5358	0.7492
198.7535	0.6523
198.9711	0.6711
199.1888	0.8232
199.4064	0.9909
199.624	0.7504
199.8416	0.6048
200.0592	0.8588
200.2767	0.7515
200.4943	0.8416
200.7119	0.8964
200.9294	0.8639
201.1469	0.7811
201.3645	0.6319
201.582	0.7559
201.7995	0.7438
202.017	0.8101
202.2344	0.748
202.4519	1.0513
202.6694	0.927
202.8868	0.7424
203.1042	0.9757
203.3217	0.8592
203.5391	0.8018
203.7565	0.7715
203.9739	0.8224
204.1913	0.6662
204.4086	0.8753
204.626	0.9278
204.8433	0.7521
205.0607	0.8192
205.278	0.7909
205.4953	0.7877
205.7126	0.8659
205.9299	0.9329
206.1472	0.8744
206.3644	0.7433
206.5817	0.701
206.7989	0.8616
207.0162	0.7233
207.2334	0.8932
207.4506	0.7187
207.6678	0.827
207.885	0.9785
208.1022	0.8009
208.3194	0.888
208.5365	0.7914
208.7537	0.7819
208.9708	0.7377
209.1879	0.8382
209.405	0.815
209.6222	0.9161
209.8392	0.7718
210.0563	0.8036
210.2734	0.8172
210.4905	0.7702
210.7075	0.825
210.9245	0.7158
211.1416	0.7888
211.3586	0.7955
211.5756	0.7361
211.7926	0.8346
212.0096	0.755
212.2265	0.68
212.4435	0.807
212.6604	0.8261
212.8774	0.7486
213.0943	0.7903
213.3112	0.7382
213.5281	0.719
213.745	0.6397
213.9619	0.7058
214.1788	0.6291
214.3956	0.7138
214.6125	0.6546
214.8293	0.643
215.0461	0.7378
215.2629	0.6851
215.4798	0.6639
215.6965	0.6629
215.9133	0.7044
216.1301	0.6412
216.3469	0.7223
216.5636	0.6564
216.7803	0.6092
216.9971	0.647
217.2138	0.5703
217.4305	0.5986
217.6472	0.5894
217.8639	0.6426
218.0805	0.6295
218.2972	0.5977
218.5138	0.5737
218.7305	0.5861
218.9471	0.5399
219.1637	0.602
219.3803	0.5645
219.5969	0.5119
219.8135	0.4937
220.0301	0.5342
220.2466	0.5588
220.4632	0.4999
220.6797	0.4791
220.8962	0.4893
221.1127	0.5095
221.3292	0.5443
221.5457	0.5016
221.7622	0.483
221.9787	0.5095
222.1951	0.4983
222.4116	0.5165
222.628	0.5115
222.8444	0.5269
223.0608	0.5173
223.2772	0.529
223.4936	0.5295
223.71	0.518
223.9264	0.5435
224.1427	0.5016
224.3591	0.5154
224.5754	0.5484
224.7917	0.5564
225.008	0.5369
225.2243	0.4903
225.4406	0.5412
225.6569	0.5369
225.8732	0.5414
226.0894	0.5246
226.3057	0.5258
226.5219	0.5875
226.7381	0.519
226.9543	0.5236
227.1705	0.5354
227.3867	0.5043
227.6029	0.5244
227.8191	0.5711
228.0352	0.5432
228.2513	0.5358
228.4675	0.5538
228.6836	0.5454
228.8997	0.5386
229.1158	0.5349
229.3319	0.5282
229.548	0.5458
229.764	0.5342
229.9801	0.5547
230.1961	0.5305
230.4121	0.5197
230.6282	0.5534
230.8442	0.5546
231.0602	0.5377
231.2761	0.5626
231.4921	0.5567
231.7081	0.5652
231.924	0.5561
232.14	0.571
232.3559	0.5475
232.5718	0.5539
232.7877	0.5518
233.0036	0.5256
233.2195	0.5549
233.4353	0.5496
233.6512	0.547
233.867	0.5187
234.0829	0.5211
234.2987	0.5286
234.5145	0.5434
234.7303	0.5565
234.9461	0.5756
235.1619	0.567
235.3776	0.5152
235.5934	0.5577
235.8091	0.5104
236.0249	0.5436
236.2406	0.5546
236.4563	0.5373
236.672	0.5662
236.8877	0.5215
237.1034	0.524
237.319	0.5111
237.5347	0.5328
237.7503	0.5412
237.966	0.5491
238.1816	0.5276
238.3972	0.5389
238.6128	0.5134
238.8284	0.5515
239.0439	0.5492
239.2595	0.505
239.475	0.5507
239.6906	0.5194
239.9061	0.5219
240.1216	0.5022
240.3371	0.5253
240.5526	0.5292
240.7681	0.5296
240.9836	0.4786
241.199	0.4819
241.4145	0.4827
241.6299	0.4791
241.8453	0.484
242.0607	0.4847
242.2761	0.4563
242.4915	0.4739
242.7069	0.4505
242.9223	0.4516
243.1376	0.4356
243.353	0.4332
243.5683	0.435
243.7836	0.4147
243.9989	0.4093
244.2142	0.3804
244.4295	0.3995
244.6448	0.3869
244.86	0.3861
245.0753	0.3773
245.2905	0.3675
245.5057	0.3564
245.721	0.3581
245.9362	0.333
246.1514	0.3395
246.3665	0.3232
246.5817	0.3093
246.7969	0.3215
247.012	0.3156
247.2271	0.292
247.4423	0.3068
247.6574	0.296
247.8725	0.2877
248.0876	0.2759
248.3026	0.2808
248.5177	0.283
248.7328	0.2755
248.9478	0.2547
249.1628	0.2662
249.3779	0.2702
249.5929	0.2457
249.8079	0.265
250.0228	0.2423
250.2378	0.2548
250.4528	0.2417
250.6677	0.2354
250.8827	0.2286
251.0976	0.2381
251.3125	0.2218
251.5274	0.2243
251.7423	0.2228
251.9572	0.2341
252.172	0.2164
252.3869	0.2249
252.6017	0.2089
252.8166	0.2094
253.0314	0.1966
253.2462	0.2005
253.461	0.2127
253.6758	0.2102
253.8906	0.2032
254.1053	0.1892
254.3201	0.1893
254.5348	0.2171
254.7496	0.2027
254.9643	0.1865
255.179	0.2063
255.3937	0.194
255.6083	0.1991
255.823	0.208
256.0377	0.1904
256.2523	0.2008
256.467	0.1728
256.6816	0.1867
256.8962	0.1961
257.1108	0.186
257.3254	0.1859
257.54	0.1917
257.7545	0.1871
257.9691	0.2012
258.1836	0.1861
258.3981	0.2071
258.6127	0.1971
258.8272	0.1788
259.0417	0.1948
259.2561	0.1859
259.4706	0.1807
259.6851	0.195
259.8995	0.1854
260.114	0.1839
260.3284	0.1794
260.5428	0.17
260.7572	0.1836
260.9716	0.1871
261.186	0.202
261.4003	0.1786
261.6147	0.1772
261.829	0.1815
262.0433	0.1778
262.2577	0.1764
262.472	0.1903
262.6863	0.1875
262.9005	0.195
263.1148	0.1757
263.3291	0.1593
263.5433	0.1828
263.7576	0.191
263.9718	0.1808
264.186	0.1734
264.4002	0.181
264.6144	0.1874
264.8286	0.1885
265.0427	0.1745
265.2569	0.1893
265.471	0.1865
265.6851	0.1823
265.8993	0.1862
266.1134	0.1756
266.3275	0.1728
266.5415	0.187
266.7556	0.1955
266.9697	0.1788
267.1837	0.1884
267.3978	0.1776
267.6118	0.1906
267.8258	0.1938
268.0398	0.1672
268.2538	0.1956
268.4677	0.1809
268.6817	0.1775
268.8957	0.1858
269.1096	0.1748
269.3235	0.1747
269.5374	0.1727
269.7514	0.1767
269.9652	0.1801
270.1791	0.1736
270.393	0.1643
270.6068	0.172
270.8207	0.1597
271.0345	0.1682
271.2483	0.1875
271.4622	0.1719
271.676	0.1712
271.8897	0.1752
272.1035	0.1607
272.3173	0.1771
272.531	0.1673
272.7448	0.1557
272.9585	0.1657
273.1722	0.1765
273.3859	0.175
273.5996	0.169
273.8133	0.1769
274.0269	0.1607
274.2406	0.1644
274.4542	0.1629
274.6679	0.1607
274.8815	0.1642
275.0951	0.1739
275.3087	0.1727
275.5223	0.1814
275.7358	0.1797
275.9494	0.1695
276.1629	0.1622
276.3765	0.1681
276.59	0.1761
276.8035	0.1776
277.017	0.1775
277.2305	0.1538
277.444	0.1802
277.6574	0.1689
277.8709	0.1803
278.0843	0.1675
278.2978	0.1641
278.5112	0.1683
278.7246	0.1712
278.938	0.1841
279.1513	0.1681
279.3647	0.185
279.5781	0.1768
279.7914	0.1723
280.0047	0.1752
280.2181	0.1743
280.4314	0.1858
280.6447	0.1812
280.8579	0.1766
281.0712	0.1868
281.2845	0.1824
281.4977	0.1847
281.711	0.1634
281.9242	0.1738
282.1374	0.1811
282.3506	0.177
282.5638	0.1779
282.7769	0.1764
282.9901	0.1751
283.2033	0.1858
283.4164	0.1926
283.6295	0.1619
283.8426	0.1648
284.0557	0.1785
284.2688	0.1912
284.4819	0.182
284.695	0.1794
284.908	0.1861
285.1211	0.1725
285.3341	0.179
285.5471	0.1865
285.7601	0.1791
285.9731	0.1717
286.1861	0.1704
286.3991	0.188
286.612	0.1838
286.825	0.1769
287.0379	0.1804
287.2508	0.1818
287.4637	0.176
287.6766	0.1701
287.8895	0.1809
288.1024	0.1779
288.3152	0.1787
288.5281	0.1638
288.7409	0.1822
288.9538	0.1799
289.1666	0.1758
289.3794	0.1735
289.5922	0.1665
289.8049	0.1734
290.0177	0.1631
290.2304	0.1839
290.4432	0.1781
290.6559	0.1734
290.8686	0.1734
291.0813	0.1678
291.294	0.1751
291.5067	0.1794
291.7194	0.1721
291.932	0.1907
292.1447	0.1659
292.3573	0.173
292.5699	0.1631
292.7825	0.1701
292.9951	0.1697
293.2077	0.1702
293.4203	0.1696
293.6328	0.1618
293.8454	0.1858
294.0579	0.1703
294.2704	0.1803
294.4829	0.1631
294.6954	0.1785
294.9079	0.1718
295.1204	0.1719
295.3328	0.1666
295.5453	0.1669
295.7577	0.1701
295.9701	0.161
296.1825	0.1651
296.3949	0.1732
296.6073	0.1634
296.8197	0.1524
297.0321	0.1695
297.2444	0.1577
297.4567	0.1718
297.6691	0.1752
297.8814	0.1626
298.0937	0.1714
298.306	0.1695
298.5182	0.1682
298.7305	0.1812
298.9428	0.1522
299.155	0.1748
299.3672	0.1619
299.5794	0.1549
299.7916	0.1681
300.0038	0.1677
300.216	0.165
300.4282	0.1722
300.6403	0.1643
300.8525	0.1664
301.0646	0.1651
301.2767	0.1592
301.4888	0.1617
301.7009	0.1701
301.913	0.166
302.125	0.1551
302.3371	0.1554
302.5491	0.1549
302.7612	0.168
302.9732	0.1633
303.1852	0.1635
303.3972	0.1627
303.6092	0.1554
303.8211	0.1583
304.0331	0.1596
304.245	0.1612
304.457	0.1556
304.6689	0.149
304.8808	0.161
305.0927	0.1424
305.3046	0.1528
305.5164	0.154
305.7283	0.1567
305.9401	0.1437
306.152	0.1515
306.3638	0.1524
306.5756	0.1481
306.7874	0.1472
306.9992	0.1448
307.2109	0.1436
307.4227	0.124
307.6344	0.1434
307.8462	0.1344
308.0579	0.1348
308.2696	0.1336
308.4813	0.129
308.693	0.1322
308.9046	0.1367
309.1163	0.1228
309.328	0.1298
309.5396	0.1207
309.7512	0.1362
309.9628	0.1357
310.1744	0.1239
310.386	0.118
310.5976	0.1235
310.8091	0.1214
311.0207	0.1108
311.2322	0.1268
311.4437	0.0995
311.6552	0.1114
311.8667	0.1251
312.0782	0.0988
312.2897	0.1069
312.5012	0.1129
312.7126	0.0955
312.924	0.1035
313.1355	0.1189
313.3469	0.1081
313.5583	0.1015
313.7696	0.1213
313.981	0.1058
314.1924	0.0984
314.4037	0.107
314.6151	0.1131
314.8264	0.0942
315.0377	0.0988
315.249	0.107
315.4603	0.1204
315.6716	0.1083
315.8828	0.1041
316.0941	0.105
316.3053	0.104
316.5165	0.0957
316.7277	0.0913
316.9389	0.108
317.1501	0.104
317.3613	0.1083
317.5724	0.0932
317.7836	0.1099
317.9947	0.1036
318.2058	0.1042
318.417	0.0922
318.6281	0.0984
318.8391	0.1034
319.0502	0.0984
319.2613	0.1026
319.4723	0.1125
319.6834	0.1168
319.8944	0.0874
320.1054	0.0986
320.3164	0.1112
320.5274	0.1006
320.7383	0.1053
320.9493	0.1083
321.1602	0.1136
321.3712	0.0911
321.5821	0.1025
321.793	0.1018
322.0039	0.0994
322.2148	0.1072
322.4257	0.0999
322.6365	0.1205
322.8474	0.1078
323.0582	0.1085
323.269	0.1038
323.4798	0.1074
323.6906	0.1078
323.9014	0.0967
324.1122	0.1136
324.3229	0.0977
324.5337	0.1069
324.7444	0.0972
324.9551	0.1211
325.1658	0.113
325.3765	0.1083
325.5872	0.11
325.7979	0.1049
326.0085	0.113
326.2192	0.1196
326.4298	0.1101
326.6404	0.1036
326.851	0.0874
327.0616	0.0916
327.2722	0.1034
327.4828	0.1168
327.6933	0.1005
327.9039	0.1203
328.1144	0.1096
328.3249	0.1156
328.5354	0.1028
328.7459	0.1105
328.9564	0.1059
329.1669	0.1058
329.3773	0.1084
329.5878	0.1066
329.7982	0.0923
330.0086	0.1022
330.219	0.1152
330.4294	0.1029
330.6398	0.1009
330.8502	0.1023
331.0605	0.1068
331.2708	0.1163
331.4812	0.11
331.6915	0.1093
331.9018	0.1106
332.1121	0.1116
332.3224	0.1058
332.5326	0.1171
332.7429	0.1162
332.9531	0.1233
333.1633	0.1141
333.3735	0.1157
333.5837	0.1093
333.7939	0.1088
334.0041	0.1199
334.2143	0.1193
334.4244	0.1145
334.6346	0.1043
334.8447	0.1069
335.0548	0.1163
335.2649	0.1055
335.475	0.1216
335.685	0.1124
335.8951	0.1199
336.1051	0.1243
336.3152	0.1235
336.5252	0.1075
336.7352	0.1327
336.9452	0.1135
337.1552	0.1197
337.3652	0.1055
337.5751	0.104
337.7851	0.1099
337.995	0.1076
338.2049	0.1104
338.4148	0.1096
338.6247	0.1213
338.8346	0.1084
339.0445	0.1006
339.2543	0.1056
339.4642	0.1155
339.674	0.1062
339.8838	0.105
340.0936	0.1191
340.3034	0.1264
340.5132	0.1251
340.7229	0.1169
340.9327	0.1122
341.1424	0.1032
341.3522	0.1289
341.5619	0.1297
341.7716	0.1225
341.9813	0.1349
342.1909	0.1144
342.4006	0.1264
342.6102	0.134
342.8199	0.1222
343.0295	0.1449
343.2391	0.1366
343.4487	0.1426
343.6583	0.1184
343.8679	0.119
344.0774	0.1323
344.287	0.1425
344.4965	0.118
344.706	0.1354
344.9155	0.1242
345.125	0.133
345.3345	0.1531
345.544	0.1146
345.7534	0.1225
345.9629	0.1328
346.1723	0.1261
346.3817	0.1266
346.5911	0.1262
346.8005	0.1326
347.0099	0.1284
347.2193	0.1269
347.4286	0.1296
347.638	0.1484
347.8473	0.1387
348.0566	0.1276
348.2659	0.1321
348.4752	0.135
348.6845	0.1245
348.8937	0.1395
349.103	0.1369
349.3122	0.121
349.5214	0.1297
349.7306	0.1487
349.9398	0.145
350.149	0.1448
350.3582	0.1413
350.5674	0.1482
350.7765	0.1437
350.9856	0.1396
351.1948	0.1427
351.4039	0.1226
351.613	0.1339
351.822	0.1467
352.0311	0.1401
352.2402	0.1485
352.4492	0.158
352.6582	0.1483
352.8672	0.146
353.0762	0.147
353.2852	0.1425
353.4942	0.151
353.7032	0.1514
353.9121	0.155
354.1211	0.1384
354.33	0.15
354.5389	0.1475
354.7478	0.1495
354.9567	0.1391
355.1655	0.1436
355.3744	0.1408
355.5833	0.165
355.7921	0.1809
356.0009	0.1555
356.2097	0.1753
356.4185	0.1655
356.6273	0.1597
356.8361	0.1694
357.0448	0.1508
357.2536	0.1503
357.4623	0.1686
357.671	0.1608
357.8797	0.1631
358.0884	0.1658
358.2971	0.1579
358.5057	0.18
358.7144	0.1667
358.923	0.1681
359.1316	0.1647
359.3402	0.1691
359.5488	0.1677
359.7574	0.1566
359.966	0.1719
360.1746	0.167
360.3831	0.1782
360.5916	0.1548
360.8002	0.1541
361.0087	0.1791
361.2172	0.1781
361.4256	0.1706
361.6341	0.1805
361.8426	0.1837
362.051	0.1761
362.2594	0.1875
362.4678	0.1721
362.6762	0.1905
362.8846	0.1758
363.093	0.1687
363.3014	0.1744
363.5097	0.1728
363.718	0.1824
363.9264	0.1836
364.1347	0.1679
364.343	0.1868
364.5513	0.1902
364.7595	0.2086
364.9678	0.1961
365.176	0.1898
365.3842	0.1736
365.5925	0.1832
365.8007	0.2007
366.0089	0.202
366.217	0.1806
366.4252	0.1925
366.6333	0.1956
366.8415	0.1856
367.0496	0.1817
367.2577	0.1996
367.4658	0.1993
367.6739	0.2107
367.882	0.2101
368.09	0.1786
368.2981	0.1928
368.5061	0.196
368.7141	0.2043
368.9221	0.2046
369.1301	0.2166
369.3381	0.2005
369.5461	0.2043
369.754	0.2001
369.962	0.2128
370.1699	0.2191
370.3778	0.201
370.5857	0.2046
370.7936	0.1964
371.0015	0.2017
371.2093	0.218
371.4172	0.2251
371.625	0.2022
371.8328	0.2058
372.0406	0.2045
372.2484	0.1998
372.4562	0.2173
372.664	0.2152
372.8717	0.2268
373.0795	0.2007
373.2872	0.2166
373.4949	0.2034
373.7026	0.2196
373.9103	0.2186
374.118	0.2257
374.3256	0.2245
374.5333	0.2058
374.7409	0.1943
374.9485	0.2266
375.1561	0.2252
375.3637	0.2202
375.5713	0.2284
375.7789	0.2145
375.9864	0.2034
376.194	0.2229
376.4015	0.2384
376.609	0.2167
376.8165	0.229
377.024	0.2208
377.2315	0.2029
377.4389	0.2133
377.6464	0.2264
377.8538	0.2252
378.0612	0.2289
378.2686	0.2239
378.476	0.2336
378.6834	0.2292
378.8908	0.2413
379.0981	0.2332
379.3055	0.2423
379.5128	0.2132
379.7201	0.2282
379.9274	0.2039
380.1347	0.2336
380.342	0.2461
380.5492	0.2121
380.7565	0.2351
380.9637	0.2289
381.1709	0.2312
381.3781	0.236
381.5853	0.2448
381.7925	0.2485
381.9997	0.2386
382.2068	0.2499
382.4139	0.2398
382.6211	0.2436
382.8282	0.2315
383.0353	0.2313
383.2424	0.2352
383.4494	0.2451
383.6565	0.2294
383.8635	0.2411
384.0706	0.245
384.2776	0.2396
384.4846	0.2446
384.6916	0.2394
384.8986	0.2266
385.1055	0.2338
385.3125	0.2332
385.5194	0.235
385.7263	0.2504
385.9333	0.2427
386.1402	0.2381
386.347	0.2515
386.5539	0.2359
386.7608	0.2367
386.9676	0.2264
387.1744	0.2425
387.3813	0.2213
387.5881	0.2559
387.7948	0.2301
388.0016	0.2208
388.2084	0.2304
388.4151	0.2145
388.6219	0.2191
388.8286	0.2326
389.0353	0.2431
389.242	0.229
389.4487	0.2387
389.6553	0.2143
389.862	0.1962
390.0686	0.2214
390.2753	0.2263
390.4819	0.2336
390.6885	0.2268
390.8951	0.2334
391.1016	0.2152
391.3082	0.2126
391.5147	0.2244
391.7213	0.2266
391.9278	0.2091
392.1343	0.209
392.3408	0.2096
392.5473	0.2195
392.7537	0.2176
392.9602	0.2074
393.1666	0.2214
393.373	0.216
393.5794	0.233
393.7858	0.2096
393.9922	0.1988
394.1986	0.2097
394.4049	0.2167
394.6113	0.2055
394.8176	0.1943
395.0239	0.2253
395.2302	0.2027
395.4365	0.1987
395.6428	0.1971
395.8491	0.1885
396.0553	0.1908
396.2615	0.1923
396.4678	0.2154
396.674	0.1804
396.8802	0.1997
397.0863	0.221
397.2925	0.1936
397.4987	0.1983
397.7048	0.1893
397.9109	0.2098
398.117	0.184
398.3231	0.1855
398.5292	0.2074
398.7353	0.2019
398.9413	0.2061
399.1474	0.1931
399.3534	0.1925
399.5594	0.1782
399.7654	0.2219
399.9714	0.2005
400.1774	0.1923
400.3833	0.1909
400.5893	0.2137
400.7952	0.1988
401.0011	0.1949
401.207	0.2022
401.4129	0.2035
401.6188	0.2029
401.8247	0.1822
402.0305	0.1957
402.2364	0.1925
402.4422	0.1972
402.648	0.2077
402.8538	0.2086
403.0596	0.2043
403.2654	0.1986
403.4711	0.1921
403.6768	0.1983
403.8826	0.192
404.0883	0.1967
404.294	0.1995
404.4997	0.1878
404.7054	0.1955
404.911	0.1721
405.1167	0.1983
405.3223	0.2008
405.5279	0.1853
405.7335	0.2064
405.9391	0.2141
406.1447	0.1887
406.3502	0.2051
406.5558	0.1969
406.7613	0.2043
406.9668	0.193
407.1724	0.1835
407.3778	0.1787
407.5833	0.1734
407.7888	0.1767
407.9942	0.2052
408.1997	0.1852
408.4051	0.1676
408.6105	0.2037
408.8159	0.1909
409.0213	0.1817
409.2267	0.2079
409.432	0.1968
409.6374	0.2038
409.8427	0.1802
410.048	0.1826
410.2533	0.1963
410.4586	0.198
410.6639	0.1837
410.8691	0.1785
411.0744	0.1924
411.2796	0.1846
411.4848	0.2021
411.69	0.1771
411.8952	0.1984
412.1004	0.2006
412.3056	0.1937
412.5107	0.1762
412.7158	0.1987
412.921	0.1804
413.1261	0.1918
413.3312	0.1672
413.5362	0.1875
413.7413	0.171
413.9464	0.1766
414.1514	0.1884
414.3564	0.1745
414.5614	0.1676
414.7664	0.1668
414.9714	0.1893
415.1764	0.1798
415.3813	0.2027
415.5863	0.1769
415.7912	0.1618
415.9961	0.1753
416.201	0.1891
416.4059	0.199
416.6108	0.1619
416.8156	0.1943
417.0205	0.1671
417.2253	0.1752
417.4301	0.1882
417.6349	0.1721
417.8397	0.1739
418.0445	0.1901
418.2492	0.181
418.454	0.1768
418.6587	0.1776
418.8634	0.1833
419.0681	0.1717
419.2728	0.1554
419.4775	0.1807
419.6822	0.1607
419.8868	0.1521
420.0915	0.1663
420.2961	0.1539
420.5007	0.1635
420.7053	0.1634
420.9099	0.1826
421.1144	0.1619
421.319	0.1665
421.5235	0.1731
421.728	0.1774
421.9325	0.172
422.137	0.1887
422.3415	0.1579
422.546	0.1641
422.7504	0.1654
422.9549	0.1659
423.1593	0.169
423.3637	0.1979
423.5681	0.1609
423.7725	0.1446
423.9769	0.1584
424.1812	0.1472
424.3856	0.1422
424.5899	0.1699
424.7942	0.1661
424.9985	0.1746
425.2028	0.1553
425.4071	0.1639
425.6113	0.1392
425.8156	0.1661
426.0198	0.1628
426.224	0.1346
426.4282	0.1418
426.6324	0.1474
426.8366	0.155
427.0407	0.1567
427.2449	0.15
427.449	0.1674
427.6531	0.1425
427.8572	0.1424
428.0613	0.1299
428.2654	0.1332
428.4694	0.1297
428.6735	0.1384
428.8775	0.1477
429.0815	0.1569
429.2855	0.1445
429.4895	0.149
429.6935	0.1295
429.8975	0.1464
430.1014	0.1331
430.3053	0.1157
430.5093	0.1307
430.7132	0.1178
430.9171	0.1198
431.1209	0.1361
431.3248	0.113
431.5286	0.1356
431.7325	0.12
431.9363	0.1128
432.1401	0.1312
432.3439	0.1091
432.5477	0.0894
432.7514	0.1037
432.9552	0.1192
433.1589	0.098
433.3627	0.0908
433.5664	0.1097
433.7701	0.101
433.9737	0.1036
434.1774	0.1027
434.3811	0.0885
434.5847	0.1094
434.7883	0.1015
434.9919	0.1029
435.1955	0.0927
435.3991	0.0976
435.6027	0.0979
435.8062	0.0996
436.0098	0.0859
436.2133	0.0935
436.4168	0.0869
436.6203	0.0772
436.8238	0.0957
437.0272	0.0873
437.2307	0.0841
437.4341	0.0931
437.6375	0.0904
437.841	0.0748
438.0443	0.0987
438.2477	0.083
438.4511	0.0816
438.6545	0.0838
438.8578	0.1034
439.0611	0.0762
439.2644	0.0655
439.4677	0.0644
439.671	0.0634
439.8743	0.0842
440.0775	0.0735
440.2808	0.0731
440.484	0.0531
440.6872	0.0543
440.8904	0.0654
441.0936	0.0754
441.2967	0.047
441.4999	0.0772
441.703	0.0539
441.9062	0.0485
442.1093	0.0691
442.3124	0.0559
442.5155	0.0432
442.7185	0.0425
442.9216	0.031
443.1246	0.0677
443.3276	0.0503
443.5307	0.0464
443.7337	0.0572
443.9366	0.0451
444.1396	0.0418
444.3426	0.0458
444.5455	0.0511
444.7484	0.0466
444.9513	0.0368
445.1542	0.0491
445.3571	0.0478
445.56	0.0571
445.7628	0.0277
445.9657	0.0333
446.1685	0.0426
446.3713	0.0454
446.5741	0.0398
446.7769	0.0454
446.9797	0.0358
447.1824	0.0322
447.3852	0.0314
447.5879	0.0334
447.7906	0.0356
447.9933	0.0362
448.196	0.0301
448.3986	0.0215
448.6013	0.0133
448.8039	0.011
449.0066	0.0143
449.2092	0.0311
449.4118	0.0326
449.6143	0.0297
449.8169	0.0303
450.0195	0.021
450.222	0.0085
450.4245	0.0165
450.627	0.0354
450.8295	0.013
451.032	0.005
451.2345	0.0272
451.4369	0.0235
451.6394	0.026
451.8418	0.0118
452.0442	-0.0032
452.2466	0.0247
452.449	0.0034
452.6513	0.0095
452.8537	0.0153
453.056	-0.004
453.2583	0.0396
453.4607	0.0089
453.663	0.0149
453.8652	0.007
454.0675	-0.0043
454.2697	0.0057
454.472	0.0204
454.6742	0.0028
454.8764	0.0147
455.0786	0.0111
455.2808	0.0051
455.4829	0.016
455.6851	0.0197
455.8872	0.025
456.0893	0.0065
456.2915	-0.0127
456.4935	0.0209
456.6956	0.017
456.8977	0.0092
457.0997	0.0045
457.3018	-0.012
457.5038	0.004
457.7058	0.0071
457.9078	0
458.1098	0.0098
458.3117	0.0113
458.5137	0.008
458.7156	-0.0157
458.9175	0.0015
459.1194	-0.0022
459.3213	0.0064
459.5232	0.0053
459.725	-0.0089
459.9269	-0.0054
460.1287	-0.0035
460.3305	-0.0048
460.5323	0.012
460.7341	0.0011
460.9359	0
461.1376	0.0091
461.3394	-0.0153
461.5411	-0.0095
461.7428	-0.0076
461.9445	0.0017
462.1462	0.0065
462.3479	-0.011
462.5495	0.0081
462.7512	-0.0096
462.9528	-0.009
463.1544	-0.0064
463.356	0.0068
463.5576	0.001
463.7592	-0.014
463.9607	0.0089
464.1623	0.0073
464.3638	0.0139
464.5653	-0.0218
464.7668	0.0006
464.9683	-0.0005
465.1697	0.0112
465.3712	-0.0059
465.5726	-0.0115
465.7741	-0.0094
465.9755	-0.0148
466.1769	-0.0006
466.3782	-0.0121
466.5796	-0.0082
466.7809	-0.0018
466.9823	-0.0087
467.1836	-0.0066
467.3849	0.012
467.5862	-0.0027
467.7875	-0.0258
467.9887	0.0082
468.19	-0.0022
468.3912	-0.0121
468.5924	-0.0204
468.7936	-0.0094
468.9948	-0.0048
469.196	-0.0039
469.3972	-0.0302
469.5983	-0.0091
469.7994	-0.0107
470.0006	-0.0002
470.2017	-0.0114
470.4027	-0.0087
470.6038	-0.0041
470.8049	-0.0238
471.0059	-0.0193
471.2069	-0.0295
471.408	0.0016
471.6089	0.0036
471.8099	-0.0116
472.0109	0.0025
472.2119	-0.0031
472.4128	-0.0156
472.6137	0.0095
472.8146	-0.0161
473.0155	-0.0139
473.2164	-0.0143
473.4173	-0.0108
473.6181	0.0037
473.819	-0.0143
474.0198	-0.0099
474.2206	-0.0221
474.4214	-0.0012
474.6222	-0.0077
474.8229	-0.0095
475.0237	-0.0155
475.2244	-0.0015
475.4251	0.0046
475.6258	-0.005
475.8265	-0.0012
476.0272	-0.0082
476.2278	-0.0048
476.4285	-0.005
476.6291	-0.0164
476.8297	-0.0182
477.0303	-0.0115
477.2309	-0.0105
477.4315	-0.0223
477.632	-0.0057
477.8326	-0.0017
478.0331	0.0003
478.2336	-0.0015
478.4341	-0.0177
478.6346	-0.0027
478.8351	-0.0127
479.0355	-0.0004
479.236	-0.0159
479.4364	-0.0093
479.6368	0.0071
479.8372	-0.0132
480.0376	-0.0061
480.2379	-0.0421
480.4383	-0.0092
480.6386	-0.0006
480.8389	-0.0092
481.0392	-0.0161
481.2395	-0.0081
481.4398	-0.0024
481.6401	-0.0057
481.8403	-0.0046
482.0405	-0.0221
482.2408	-0.0154
482.441	0.0108
482.6411	-0.0142
482.8413	-0.0109
483.0415	-0.0192
483.2416	-0.0213
483.4417	-0.0003
483.6419	-0.011
483.8419	-0.0172
484.042	0.003
484.2421	-0.0054
484.4422	-0.0057
484.6422	-0.0067
484.8422	-0.0056
485.0422	-0.0174
485.2422	-0.0046
485.4422	-0.0219
485.6422	-0.0193
485.8421	-0.0056
486.042	-0.0111
486.242	-0.0064
486.4419	-0.0182
486.6417	-0.0208
486.8416	-0.0039
487.0415	-0.0021
487.2413	-0.0117
487.4411	-0.0107
487.641	-0.0115
487.8408	-0.0091
488.0405	-0.0137
488.2403	-0.0182
488.4401	0.0087
488.6398	-0.007
488.8395	-0.0027
489.0392	-0.011
489.2389	-0.0128
489.4386	-0.009
489.6383	-0.0086
489.8379	-0.0017
490.0376	-0.0146
490.2372	-0.0204
490.4368	-0.0216
490.6364	-0.0091
490.836	-0.0066
491.0355	-0.0099
491.2351	-0.0175
491.4346	-0.0085
491.6341	-0.018
491.8336	-0.0019
492.0331	-0.0266
492.2326	-0.0074
492.432	-0.0204
492.6315	-0.0039
492.8309	-0.0213
493.0303	-0.0121
493.2297	-0.0135
493.4291	-0.0085
493.6284	-0.0132
493.8278	-0.015
494.0271	-0.0082
494.2264	-0.0103
494.4257	-0.024
494.625	-0.0016
494.8243	-0.0183
495.0236	-0.0051
495.2228	-0.0218
495.422	-0.0038
495.6213	-0.0167
495.8205	-0.0054
496.0196	-0.0112
496.2188	-0.0085
496.418	-0.016
496.6171	-0.0154
496.8162	-0.0165
497.0153	-0.0083
497.2144	-0.0112
497.4135	-0.0025
497.6126	-0.02
497.8116	-0.0181
498.0107	-0.0099
498.2097	-0.0191
498.4087	-0.0156
498.6077	-0.0075
498.8067	-0.0098
499.0056	-0.0146
499.2046	-0.0118
499.4035	-0.0145
499.6024	-0.0104
499.8013	-0.0108
500.0002	-0.0183
500.199	-0.0072
500.3979	-0.0153
500.5967	-0.0248
500.7956	-0.0041
500.9944	-0.0129
501.1932	-0.0137
501.3919	-0.0128
501.5907	-0.0145
501.7895	-0.0166
501.9882	-0.0171
502.1869	-0.0111
502.3856	-0.0178
502.5843	-0.0112
502.783	-0.0177
502.9816	-0.007
503.1803	-0.0131
503.3789	-0.0247
503.5775	-0.001
503.7761	-0.0166
503.9747	-0.0026
504.1732	-0.0143
504.3718	-0.0083
504.5703	-0.0131
504.7689	-0.0119
504.9674	-0.0124
505.1658	-0.0204
505.3643	-0.0067
505.5628	-0.0154
505.7612	-0.0167
505.9597	-0.0046
506.1581	-0.0213
506.3565	-0.0005
506.5549	-0.0156
506.7532	-0.021
506.9516	-0.0074
507.1499	-0.0076
507.3482	-0.0265
507.5465	-0.0159
507.7448	-0.023
507.9431	-0.0062
508.1414	-0.0088
508.3396	-0.0244
508.5379	-0.0067
508.7361	-0.0102
508.9343	-0.0006
509.1325	-0.002
509.3306	-0.0086
509.5288	-0.0182
509.7269	-0.0137
509.9251	-0.0213
510.1232	-0.0229
510.3213	-0.003
510.5193	-0.0027
510.7174	-0.0225
510.9154	-0.0127
511.1135	-0.0114
511.3115	-0.0122
511.5095	-0.0104
511.7075	-0.0096
511.9055	-0.0131
512.1034	-0.0143
512.3014	-0.0101
512.4993	-0.013
512.6972	-0.0162
512.8951	-0.0176
513.093	-0.0118
513.2908	-0.0143
513.4887	-0.0149
513.6865	-0.0127
513.8844	-0.0164
514.0822	-0.0128
514.2799	-0.0196
514.4777	-0.0195
514.6755	-0.0316
514.8732	-0.0116
515.0709	-0.012
515.2687	-0.0192
515.4664	0.0025
515.664	-0.0131
515.8617	-0.0159
516.0594	-0.0213
516.257	-0.02
516.4546	-0.0164
516.6522	-0.004
516.8498	-0.0197
517.0474	-0.0112
517.2449	0.0009
517.4425	-0.0229
517.64	-0.0095
517.8375	-0.0033
518.035	-0.0086
518.2325	-0.0121
518.43	-0.0081
518.6274	-0.013
518.8249	-0.0038
519.0223	-0.0138
519.2197	-0.0111
519.4171	-0.0151
519.6145	-0.0128
519.8118	0.0027
520.0092	-0.0175
520.2065	-0.0173
520.4038	-0.0231
520.6011	-0.0163
520.7984	-0.0143
520.9956	-0.0081
521.1929	-0.0263
521.3901	-0.0046
521.5874	-0.0126
521.7846	-0.0197
521.9818	-0.0179
522.1789	-0.0221
522.3761	-0.0108
522.5732	-0.0132
522.7704	-0.0152
522.9675	-0.0171
523.1646	-0.0264
523.3617	-0.0087
523.5587	0.0056
523.7558	-0.016
523.9528	-0.0152
524.1498	-0.0073
524.3468	-0.0173
524.5438	-0.0137
524.7408	-0.0218
524.9378	-0.012
525.1347	-0.0126
525.3316	-0.0045
525.5285	-0.0166
525.7254	-0.0048
525.9223	-0.0189
526.1192	-0.0163
526.316	-0.0199
526.5129	0.0007
526.7097	-0.0114
526.9065	-0.0067
527.1033	-0.0138
527.3	-0.004
527.4968	-0.0127
527.6935	-0.0008
527.8903	-0.0271
528.087	-0.0092
528.2837	-0.0141
528.4804	-0.0077
528.677	-0.0186
528.8737	-0.0072
529.0703	-0.0092
529.2669	-0.0063
529.4635	-0.0131
529.6601	-0.0119
529.8567	-0.008
530.0532	-0.0234
530.2498	-0.005
530.4463	-0.0066
530.6428	-0.0084
530.8393	-0.0039
531.0358	-0.0091
531.2322	-0.0136
531.4287	-0.0148
531.6251	-0.0163
531.8215	-0.0003
532.0179	-0.0135
532.2143	-0.0008
532.4107	0.0016
532.607	-0.0151
532.8034	-0.002
532.9997	-0.0045
533.196	-0.01
533.3923	-0.0209
533.5886	-0.0084
533.7848	-0.0069
533.9811	-0.0087
534.1773	-0.0096
534.3735	-0.0033
534.5697	-0.0138
534.7659	-0.0084
534.9621	-0.0121
535.1582	-0.0085
535.3544	-0.0114
535.5505	-0.0063
535.7466	-0.0089
535.9427	-0.0121
536.1387	-0.0071
536.3348	-0.0124
536.5308	-0.011
536.7269	-0.0253
536.9229	-0.0086
537.1189	-0.0044
537.3148	-0.0151
537.5108	-0.0097
537.7068	-0.0026
537.9027	-0.0012
538.0986	-0.0084
538.2945	-0.0102
538.4904	-0.0074
538.6863	-0.0105
538.8821	-0.0138
539.078	-0.0091
539.2738	-0.0043
539.4696	-0.0132
539.6654	-0.006
539.8611	-0.0013
540.0569	-0.0095
540.2526	-0.0095
540.4484	-0.0087
540.6441	-0.0033
540.8398	-0.0058
541.0355	0.0002
541.2311	-0.0006
541.4268	-0.0141
541.6224	-0.0032
541.818	-0.0054
542.0136	-0.014
542.2092	-0.0009
542.4048	0.0047
542.6003	-0.0014
542.7959	-0.007
542.9914	-0.0129
543.1869	-0.0026
543.3824	-0.0119
543.5779	-0.0088
543.7734	-0.0101
543.9688	-0.0091
544.1642	-0.0032
544.3596	-0.0047
544.555	-0.0061
544.7504	-0.0102
544.9458	-0.0107
545.1411	-0.0064
545.3365	-0.0032
545.5318	-0.0103
545.7271	-0.0095
545.9224	-0.0139
546.1177	-0.0082
546.3129	0.0034
546.5081	-0.0119
546.7034	-0.0008
546.8986	-0.011
547.0938	-0.0084
547.289	-0.009
547.4841	-0.0017
547.6793	0.0111
547.8744	-0.0163
548.0695	-0.0115
548.2646	-0.0124
548.4597	-0.0023
548.6548	0.0046
548.8498	-0.0008
549.0448	0.0028
549.2399	-0.0096
549.4349	0.0033
549.6298	0.005
549.8248	0.0032
550.0198	-0.0063
550.2147	-0.0109
550.4096	-0.0088
550.6045	0.0009
550.7994	-0.0007
550.9943	0.0027
551.1892	-0.0112
551.384	0.0025
551.5788	-0.0073
551.7737	0.0037
551.9685	-0.0055
552.1632	-0.0042
552.358	-0.0115
552.5528	-0.0057
552.7475	-0.0054
552.9422	0.0015
553.1369	-0.0068
553.3316	0.0018
553.5263	-0.0136
553.7209	0.0139
553.9156	-0.0082
554.1102	-0.0092
554.3048	-0.003
554.4994	0.0056
554.694	-0.0092
554.8885	-0.0053
555.0831	-0.0085
555.2776	-0.0027
555.4721	-0.0114
555.6666	-0.0038
555.8611	0.0102
556.0555	-0.0105
556.25	-0.0038
556.4444	-0.0111
556.6388	-0.0012
556.8332	-0.0081
557.0276	-0.0048
557.222	-0.0037
557.4163	-0.0043
557.6107	-0.0077
557.805	-0.002
557.9993	-0.0034
558.1936	-0.0055
558.3879	-0.0062
558.5821	-0.0065
558.7764	-0.0064
558.9706	-0.0032
559.1648	-0.0083
559.359	-0.012
559.5532	-0.0026
559.7473	-0.0001
559.9415	0.0022
560.1356	-0.0088
560.3297	-0.016
560.5238	-0.0113
560.7179	-0.009
560.9119	-0.0052
561.106	-0.009
561.3	-0.0142
561.494	0.0001
561.688	-0.0037
561.882	-0.0125
562.076	-0.0078
562.2699	0.0013
562.4639	-0.0018
562.6578	-0.0017
562.8517	-0.0046
563.0456	-0.0037
563.2395	0.0009
563.4333	-0.0058
563.6272	-0.0001
563.821	-0.0032
564.0148	-0.0039
564.2086	-0.0069
564.4024	-0.0067
564.5961	-0.0038
564.7899	0.0011
564.9836	-0.01
565.1773	-0.0024
565.371	0.0031
565.5647	0.0035
565.7584	0.0043
565.952	0.0005
566.1456	-0.0007
566.3393	-0.0061
566.5329	-0.0071
566.7264	-0.0048
566.92	-0.0103
567.1136	0.0017
567.3071	-0.0092
567.5006	-0.0027
567.6941	0.0005
567.8876	-0.0047
568.0811	-0.0044
568.2745	-0.0014
568.468	-0.0054
568.6614	0.0022
568.8548	-0.0022
569.0482	-0.0078
569.2416	-0.0034
569.4349	-0.0046
569.6283	0.0033
569.8216	-0.0062
570.0149	-0.004
570.2082	0.0029
570.4015	0.0061
570.5947	0.0019
570.788	0.0002
570.9812	-0.0028
571.1744	-0.0049
571.3676	-0.0069
571.5608	-0.0052
571.754	0.0041
571.9471	-0.0074
572.1402	0.0005
572.3333	-0.0052
572.5264	-0.0016
572.7195	-0.0026
572.9126	-0.0015
573.1057	-0.0031
573.2987	0.0002
573.4917	0.0013
573.6847	-0.0113
573.8777	0.0073
574.0707	0.0054
574.2636	-0.0053
574.4566	0.0007
574.6495	0.0028
574.8424	0.0032
575.0353	-0.0066
575.2281	0.0027
575.421	0.0023
575.6138	0.0003
575.8067	0.005
575.9995	0.0004
576.1923	0.0071
576.385	0.0024
576.5778	-0.0005
576.7706	-0.0007
576.9633	0.0029
577.156	0.0019
577.3487	-0.006
577.5414	0.003
577.734	0.002
577.9267	-0.0005
578.1193	-0.0057
578.3119	-0.005
578.5045	-0.0007
578.6971	0.001
578.8897	0.0018
579.0822	-0.0036
579.2747	0.0024
579.4673	-0
579.6598	-0.0031
579.8522	-0.0079
580.0447	-0.0093
580.2372	-0.0058
580.4296	0.0055
580.622	-0.0031
580.8144	-0.0072
581.0068	-0.0096
581.1992	-0.0134
581.3915	-0.0128
581.5839	-0.0086
581.7762	-0.0056
581.9685	-0.0072
582.1608	0.0033
582.353	-0.0014
582.5453	-0.0013
582.7375	0.0005
582.9298	0.0021
583.122	0.0001
583.3142	-0.0028
583.5063	-0.0008
583.6985	-0.0043
583.8906	-0.0028
584.0827	-0.0083
584.2749	0.0022
584.4669	-0.0016
584.659	0.0008
584.8511	-0.0042
585.0431	-0.0021
585.2352	0.006
585.4272	-0.0009
585.6192	0.0005
585.8111	0.0042
586.0031	-0.0087
586.195	-0.0046
586.387	0.0037
586.5789	0.0008
586.7708	0.0033
586.9627	0.0046
587.1545	-0.0016
587.3464	0.0043
587.5382	0.0014
587.73	-0.0006
587.9218	0.0059
588.1136	-0.0046
588.3053	0.0096
588.4971	-0.0052
588.6888	-0.0111
588.8805	-0.0025
589.0722	0.0009
589.2639	0.003
589.4556	-0.0012
589.6472	-0.0032
589.8389	-0.0084
590.0305	-0.0076
590.2221	0.0024
590.4137	-0.0066
590.6052	0.001
590.7968	-0.0029
590.9883	0.0002
591.1798	-0.0045
591.3713	-0.005
591.5628	0.0015
591.7543	0.0015
591.9458	-0.0018
592.1372	0.0071
592.3286	0.0017
592.52	0.0048
592.7114	-0.0046
592.9028	0.0006
593.0941	-0.0003
593.2855	0.0062
593.4768	-0.0088
593.6681	-0.0081
593.8594	-0.0052
594.0506	-0.0028
594.2419	0.0097
594.4331	-0.0006
594.6244	0.0114
594.8156	-0.0057
595.0067	0.0053
595.1979	0.0068
595.3891	0.0031
595.5802	-0.0034
595.7713	0.0017
595.9624	-0.0078
596.1535	0.0086
596.3446	-0.0014
596.5357	-0.0021
596.7267	-0.0006
596.9177	-0.0016
597.1087	-0.0049
597.2997	-0.0041
597.4907	0.0065
597.6817	0
597.8726	0.0007
598.0635	-0.0058
598.2544	-0.0025
598.4453	-0.0016
598.6362	-0.0035
598.827	-0.0076
599.0179	0.0032
599.2087	0.0041
599.3995	0.0039
599.5903	0.0003
599.7811	-0.0004
599.9718	0.0006
600.1626	-0.0061
600.3533	-0.0083
600.544	0.0022
600.7347	-0.0004
600.9254	0.0008
601.116	-0.0065
601.3067	-0.0039
601.4973	-0.0006
601.6879	0.0021
601.8785	-0.0049
602.0691	0.0045
602.2596	-0.0046
602.4502	0.0055
602.6407	-0.0008
602.8312	-0.0009
603.0217	-0.011
603.2122	-0.0054
603.4027	-0.0024
603.5931	-0.0001
603.7835	-0.0077
603.9739	0.0016
604.1643	-0.0054
604.3547	-0.0087
604.5451	0.0005
604.7354	-0.0016
604.9257	-0.0015
605.116	-0.0059
605.3063	0.0071
605.4966	0.001
605.6869	0.0048
605.8771	0.0047
606.0673	0.0024
606.2575	0.0059
606.4477	0.0072
606.6379	0.0006
606.8281	-0.0026
607.0182	-0.0023
607.2083	0.0127
607.3985	-0.001
607.5885	0.0013
607.7786	0.0085
607.9687	-0.0033
608.1587	0.0036
608.3488	0.0013
608.5388	0.0018
608.7288	0.0023
608.9187	-0.0026
609.1087	0.0024
609.2986	-0.0061
609.4886	0.0004
609.6785	-0.0052
609.8684	0.0023
610.0582	0.003
610.2481	-0.0037
610.4379	0.0062
610.6278	-0.0028
610.8176	0.0045
611.0074	0.0007
611.1971	-0.0053
611.3869	-0.0043
611.5766	-0.007
611.7664	0.0066
611.9561	0.0029
612.1458	0.0008
612.3354	-0.0091
612.5251	-0.0022
612.7147	0.0044
612.9044	0.0042
613.094	-0.0047
613.2836	0.0081
613.4731	-0.0061
613.6627	-0.004
613.8522	-0.0005
614.0417	0.0005
614.2313	-0.0062
614.4207	-0.0076
614.6102	-0.0004
614.7997	-0.0034
614.9891	-0.0021
615.1785	-0.0016
615.3679	-0.0032
615.5573	0
615.7467	-0.0043
615.9361	-0.0011
616.1254	-0.0028
616.3147	-0.0047
616.504	0.0034
616.6933	-0.001
616.8826	0.0031
617.0718	0.0065
617.2611	0.0039
617.4503	-0.0002
617.6395	-0.0013
617.8287	0.0014
618.0179	-0.0074
618.207	0.0063
618.3961	-0.0005
618.5853	-0.0012
618.7744	0.0075
618.9634	0.0018
619.1525	0.0051
619.3416	-0.0002
619.5306	-0.0011
619.7196	-0.0017
619.9086	-0.0018
620.0976	0.0008
620.2866	-0.0034
620.4755	0.0016
620.6645	0.0031
620.8534	0.0088
621.0423	0.0111
621.2312	0.0081
621.42	0.0043
621.6089	0.0034
621.7977	0.0025
621.9865	-0.0099
622.1753	0.0042
622.3641	-0.0061
622.5529	0.0022
622.7416	0.0019
622.9303	-0.0029
623.1191	0.0047
623.3078	-0.0091
623.4964	-0.0002
623.6851	-0.0025
623.8737	-0.0027
624.0624	0.0058
624.251	0.0006
624.4396	-0.0006
624.6282	-0.0021
624.8167	0.0006
625.0053	-0.0016
625.1938	0.0111
625.3823	-0.0009
625.5708	0.0038
625.7593	-0.0094
625.9477	-0.005
626.1362	-0.0033
626.3246	-0.0016
626.513	0.0025
626.7014	0.0066
626.8898	0.0017
627.0781	0.0051
627.2665	-0.006
627.4548	0.0067
627.6431	0.0025
627.8314	0.0057
628.0197	0.0057
628.2079	-0.0015
628.3962	0.0035
628.5844	0.0032
628.7726	0.0076
628.9608	0.0026
629.1489	0.0004
629.3371	0.0091
629.5252	-0.0001
629.7134	0.0106
629.9015	-0.0092
630.0895	0.0003
630.2776	0.0025
630.4657	-0.0039
630.6537	0.0069
630.8417	-0.0041
631.0297	-0.0094
631.2177	-0.0028
631.4057	-0.0083
631.5936	-0.0024
631.7815	-0.0006
631.9695	-0.0009
632.1574	0.0047
632.3452	0.0117
632.5331	0.001
632.7209	0.0001
632.9088	0.0054
633.0966	0.0085
633.2844	-0.0076
633.4722	-0.0015
633.6599	0.009
633.8477	-0.0015
634.0354	0.0003
634.2231	-0.0034
634.4108	0.0008
634.5985	0.0028
634.7861	-0.0015
634.9738	-0.0015
635.1614	-0.0028
635.349	0.0025
635.5366	-0.0007
635.7242	0.0024
635.9117	0.0039
636.0993	0.0001
636.2868	0.0051
636.4743	-0.0024
636.6618	0.0152
636.8492	0.0005
637.0367	0.0026
637.2241	-0.0017
637.4115	-0.0034
637.5989	0.0013
637.7863	-0.0048
637.9737	-0.0031
638.161	-0.0014
638.3484	-0.0034
638.5357	-0.0023
638.723	0.0006
638.9103	0.0004
639.0975	0.0003
639.2848	0.0001
639.472	-0.0015
639.6592	0.0032
639.8464	0.0063
640.0336	0.0031
640.2208	-0.0026
640.4079	-0.0044
640.595	0.0005
640.7821	-0.0011
640.9692	0.0016
641.1563	-0.0008
641.3434	-0.0099
641.5304	-0.0017
641.7174	-0.0072
641.9044	-0.0085
642.0914	0.0016
642.2784	-0.0004
642.4653	0.003
642.6523	-0.0018
642.8392	-0.0046
643.0261	0.0081
643.213	-0.0024
643.3999	-0.0123
643.5867	-0.0075
643.7735	-0.0031
643.9604	-0.0094
644.1472	0.0017
644.3339	-0.0046
644.5207	-0.001
644.7075	-0.0039
644.8942	-0.0006
645.0809	0.0071
645.2676	-0.0006
645.4543	-0.0004
645.6409	0.0024
645.8276	-0.004
646.0142	-0.0018
646.2008	-0.001
646.3874	-0.0011
646.574	0.0014
646.7605	-0.0069
646.9471	-0.0072
647.1336	-0.0045
647.3201	-0.0005
647.5066	-0.0044
647.6931	0.002
647.8795	-0.0024
648.0659	0.0081
648.2524	0.0042
648.4388	0.0001
648.6252	-0.0034
648.8115	-0.0001
648.9979	-0.0074
649.1842	0.0042
649.3705	0.0014
649.5568	0.0006
649.7431	0.0047
649.9294	-0.0007
650.1156	0.0033
650.3018	-0.0031
650.488	-0.0011
650.6742	-0.0024
650.8604	0.0008
651.0466	-0.003
651.2327	0.0012
651.4188	-0.0038
651.6049	-0.0038
651.791	-0.0097
651.9771	0.0061
652.1632	0.0031
652.3492	0.0027
652.5352	0.0006
652.7212	-0.0043
652.9072	0.0006
653.0932	-0.0032
653.2791	-0.0047
653.465	0.0011
653.651	-0.0101
653.8369	-0.0066
654.0227	-0.0094
654.2086	-0.0041
654.3944	0.002
654.5803	-0.0039
654.7661	-0.0085
654.9519	0.0017
655.1377	-0.0067
655.3234	-0.0032
655.5092	-0.0076
655.6949	-0.01
655.8806	0.0014
656.0663	-0.0067
656.2519	0.0024
656.4376	-0.0064
656.6232	0.003
656.8088	-0.0009
656.9945	-0.0094
657.18	-0.003
657.3656	-0.0017
657.5511	-0.0087
657.7367	-0.0066
657.9222	0.0051
658.1077	-0.0051
658.2932	-0.0008
658.4786	-0.003
658.6641	-0.0011
658.8495	-0.0048
659.0349	-0.0054
659.2203	0.0025
659.4057	-0
659.591	-0.0111
659.7764	-0.01
659.9617	0.0011
660.147	-0.0037
660.3323	-0.0045
660.5176	0.0061
660.7028	-0.0053
660.888	0.0005
661.0733	0.0017
661.2585	-0.0128
661.4436	0.0012
661.6288	-0.005
661.8139	-0.0059
661.9991	-0.0003
662.1842	0.0003
662.3693	-0.0041
662.5544	-0.0127
662.7394	-0.0085
662.9245	-0.0105
663.1095	-0.0053
663.2945	0.0004
663.4795	-0.0079
663.6644	0.0009
663.8494	0.0009
664.0343	-0.0066
664.2193	-0.0078
664.4042	0.0001
664.589	-0.0001
664.7739	-0.0041
664.9587	-0.0084
665.1436	-0.0008
665.3284	0.0054
665.5132	-0.0043
665.698	0.0011
665.8827	0.0064
666.0675	0.0041
666.2522	-0.0104
666.4369	0.0075
666.6216	0.0058
666.8063	-0.0056
666.9909	-0.0037
667.1756	-0.0005
667.3602	0.0006
667.5448	-0.0039
667.7294	0.0059
667.9139	0.002
668.0985	0.0161
668.283	-0.0014
668.4675	0.0037
668.652	0.0011
668.8365	-0.001
669.0209	0.0085
669.2054	0.0082
669.3898	-0.0043
669.5742	-0.0038
669.7586	0.002
669.943	0.0087
670.1273	0.0011
670.3117	0
670.496	0.0066
670.6803	0.0162
670.8646	0.0019
671.0488	-0.0006
671.2331	0.0096
671.4173	0.0072
671.6015	0.0012
671.7857	0.0057
671.9699	0.0022
672.1541	0.0025
672.3382	0.0055
672.5223	0.014
672.7064	-0.003
672.8905	0.0104
673.0746	0.0073
673.2587	0.001
673.4427	0.0015
673.6267	0.0027
673.8107	0.0079
673.9947	-0.0009
674.1787	-0.0026
674.3626	-0.0065
674.5465	-0.0041
674.7304	-0.0043
674.9143	0.0056
675.0982	0.0047
675.2821	-0.0071
675.4659	0.0054
675.6497	0.0006
675.8335	-0.0046
676.0173	0.004
676.2011	0.0008
676.3849	0
676.5686	-0.0061
676.7523	0.0067
676.936	-0.0027
677.1197	-0.001
677.3034	-0.0026
677.487	0.0033
677.6706	-0.0045
677.8542	0.0008
678.0378	0.0013
678.2214	-0.0023
678.405	0.0003
678.5885	0.0006
678.772	0.0011
678.9555	-0.0118
679.139	-0.0069
679.3225	-0.0013
679.5059	-0.0009
679.6894	-0.0004
679.8728	-0.0032
680.0562	-0.0096
680.2395	-0.0082
680.4229	-0.0025
680.6062	0.0059
680.7896	-0.0005
680.9729	-0.0027
681.1562	0.0016
681.3394	0.0003
681.5227	-0.0092
681.7059	-0.0037
681.8891	-0.0036
682.0723	0.0063
682.2555	-0.003
682.4387	0.001
682.6218	-0.0091
682.805	-0.0017
682.9881	0.0022
683.1712	-0.0096
683.3542	-0.0124
683.5373	0.0054
683.7203	-0.0032
683.9034	-0.0039
684.0864	-0.0032
684.2694	0.0029
684.4523	0.0019
684.6353	-0.0061
684.8182	-0.0038
685.0011	-0.0098
685.184	0.0006
685.3669	-0.0068
685.5498	-0.0001
685.7326	-0.0017
685.9154	-0.0003
686.0982	0.0079
686.281	0.005
686.4638	0.0068
686.6465	-0.0059
686.8293	-0.0031
687.012	0.0037
687.1947	-0.0037
687.3774	-0.0001
687.56	0.0015
687.7427	0.0012
687.9253	-0.003
688.1079	-0.0035
688.2905	0.0029
688.4731	-0.0043
688.6556	-0.0018
688.8382	-0.0003
689.0207	0.0046
689.2032	-0.0013
689.3857	-0.0065
689.5681	-0.0019
689.7506	-0.0049
689.933	-0.0103
690.1154	0.0004
690.2978	-0.0065
690.4802	0.0042
690.6626	-0.0075
690.8449	-0.0051
691.0272	0.0013
691.2095	-0.0075
691.3918	-0.0013
691.5741	0.004
691.7563	0.0025
691.9386	-0.0012
692.1208	-0.0091
692.303	0.0019
692.4852	-0.0056
692.6673	-0.0043
692.8495	-0.0042
693.0316	0.0032
693.2137	0.0016
693.3958	0.0066
693.5778	0.0035
693.7599	0.0004
693.9419	0.0001
694.1239	-0.0004
694.3059	-0.0056
694.4879	0.0039
694.6699	0.0027
694.8518	0.0056
695.0337	-0.003
695.2157	0.0042
695.3975	0.0071
695.5794	0.0021
695.7613	0.0077
695.9431	-0.0028
696.1249	0.0084
696.3067	-0.0028
696.4885	0.0072
696.6703	-0.011
696.852	-0.0036
697.0337	0.0038
697.2154	0.0008
697.3971	0.0002
697.5788	-0.0046
697.7605	-0.0059
697.9421	0.0046
698.1237	-0.0074
698.3053	-0.005
698.4869	-0.0133
698.6685	-0.0081
698.85	-0.0011
699.0315	-0.0006
699.213	-0.006
699.3945	-0.0001
699.576	0.0092
699.7575	0.0095
699.9389	0.0111
700.1203	-0.0009
700.3017	-0.0006
700.4831	0.0015
700.6645	0.0023
700.8458	0.0032
701.0271	-0.002
701.2084	0.0052
701.3897	0.0022
701.571	0.0037
701.7523	-0.0034
701.9335	-0.0032
702.1147	-0.0027
702.2959	-0.0002
702.4771	0.0008
702.6583	-0.0034
702.8394	-0.005
703.0205	0.0005
703.2016	-0.0052
703.3827	0.0018
703.5638	0.0073
703.7449	-0.0007
703.9259	0.0073
704.1069	-0.0019
704.2879	-0.0001
704.4689	0.0111
704.6499	0.0094
704.8308	0.0023
705.0117	0.0045
705.1927	0.0035
705.3735	-0.001
705.5544	-0.0042
705.7353	-0.0009
705.9161	-0.0067
706.0969	-0.0089
706.2777	-0.004
706.4585	-0.0004
706.6393	-0.0003
706.82	-0.0009
707.0007	0.0021
707.1815	0.0015
707.3621	0.0065
707.5428	-0.001
707.7235	0.0014
707.9041	0.0021
708.0847	-0.0069
708.2653	-0.0047
708.4459	-0.0063
708.6265	0.0007
708.807	-0.0054
708.9875	-0.0046
709.168	-0.0005
709.3485	-0.0021
709.529	-0.0014
709.7095	-0.0126
709.8899	-0.0046
710.0703	-0.0058
710.2507	0.0003
710.4311	-0.0067
710.6115	-0.0138
710.7918	-0.0095
710.9721	-0.0068
711.1524	-0.0078
711.3327	-0.0042
711.513	-0.0017
711.6932	0.0022
711.8735	0.0053
712.0537	-0.0012
712.2339	-0.0018
712.4141	-0.0057
712.5942	-0.01
712.7744	-0.0105
712.9545	-0.0123
713.1346	-0.0167
713.3147	-0.0074
713.4947	-0.0177
713.6748	-0.0053
713.8548	-0.0041
714.0348	-0.0035
714.2148	-0.0074
714.3948	0.0061
714.5748	-0.0096
714.7547	0.0087
714.9346	-0.007
715.1145	-0.0064
715.2944	-0.0066
715.4743	-0.0024
715.6541	-0.0104
715.834	-0.0052
716.0138	-0.0042
716.1936	-0.0156
716.3733	-0.0037
716.5531	-0.0006
716.7328	-0.0025
716.9126	-0.0019
717.0923	-0.001
717.2719	-0.0054
717.4516	0.0038
717.6312	-0.0015
717.8109	-0.0031
717.9905	-0.0019
718.1701	-0.0076
718.3496	-0.0099
718.5292	0.01
718.7087	0.0057
718.8882	0.0009
719.0677	0.0017
719.2472	-0.0076
719.4267	0.0015
719.6061	-0.0034
719.7856	-0.0036
719.965	-0.0052
720.1443	-0.0139
720.3237	0.0059
720.5031	-0.0016
720.6824	0.0161
720.8617	-0.0012
721.041	0.0039
721.2203	0.0089
721.3995	0.0082
721.5788	0.0103
721.758	0.0162
721.9372	-0.0015
722.1164	0.0086
722.2956	0.0076
722.4747	0.0027
722.6538	0.0039
722.8329	0.0148
723.012	0.0083
723.1911	-0.0008
723.3702	0.0076
723.5492	0.0121
723.7282	-0.0025
723.9072	0.0048
724.0862	-0.0066
724.2652	-0.0024
724.4441	0.0004
724.623	-0.0008
724.8019	0.0049
724.9808	0.0044
725.1597	0.0013
725.3385	0.0068
725.5174	-0.0033
725.6962	-0.0037
725.875	-0.0013
726.0538	0.0041
726.2325	-0.0023
726.4112	-0.0005
726.59	-0.0039
726.7687	-0.0042
726.9474	0.0029
727.126	0.003
727.3047	-0.0069
727.4833	-0.0066
727.6619	-0.0082
727.8405	-0.01
728.0191	-0.0059
728.1976	0.007
728.3762	-0.0018
728.5547	-0.0033
728.7332	-0.0043
728.9116	-0.0024
729.0901	0
729.2686	-0.0107
729.447	-0.0043
729.6254	-0.0016
729.8038	-0.0013
729.9821	-0.0169
730.1605	0.0012
730.3388	-0.0107
730.5171	-0.0019
730.6954	-0.0057
730.8737	-0.0093
731.0519	0.0011
731.2302	0.0028
731.4084	0.0021
731.5866	0.0068
731.7648	-0.0001
731.9429	0.0025
732.1211	-0.0071
732.2992	-0.0057
732.4773	-0.0037
732.6554	0.0022
732.8335	0.0021
733.0115	0.0106
733.1896	0.0071
733.3676	-0.0073
733.5456	0.0075
733.7235	0.0105
733.9015	0.0017
734.0794	0.0023
734.2574	-0.0033
734.4353	0.0035
734.6131	0.0052
734.791	0.0089
734.9689	-0.0061
735.1467	0.0001
735.3245	-0.012
735.5023	-0.0113
735.68	-0.0024
735.8578	0.0024
736.0355	-0.0186
736.2132	-0.0159
736.3909	-0.0106
736.5686	-0.0121
736.7463	-0.0002
736.9239	-0.0057
737.1015	-0.0115
737.2791	-0.0077
737.4567	-0.0017
737.6343	-0.0085
737.8118	-0.0034
737.9894	-0.0032
738.1669	-0.006
738.3444	-0.0093
738.5218	0.0011
738.6993	-0.002
738.8767	-0.0074
739.0541	0.0008
739.2315	-0.0109
739.4089	-0.0011
739.5863	-0.001
739.7636	-0.019
739.9409	-0.0011
740.1182	-0.005
740.2955	0.002
740.4728	-0.0078
740.65	-0.0042
740.8272	-0.0019
741.0044	-0.0063
741.1816	-0.0031
741.3588	-0.0107
741.5359	-0.0055
741.7131	-0.0092
741.8902	-0.0043
742.0673	-0.0033
742.2444	-0.0062
742.4214	-0.0152
742.5985	-0.0059
742.7755	-0.0059
742.9525	-0.0205
743.1295	-0.0006
743.3064	-0.005
743.4834	0.0008
743.6603	-0.0057
743.8372	-0.0079
744.0141	-0.0028
744.191	-0.01
744.3678	-0.0062
744.5446	-0.0011
744.7215	0.0049
744.8982	-0.0074
745.075	-0.0035
745.2518	-0.0013
745.4285	0.0033
745.6052	0.0007
745.7819	0.0012
745.9586	-0.0023
746.1353	-0.0032
746.3119	-0.0059
746.4885	-0.0023
746.6651	0.0072
746.8417	0.0014
747.0183	0.0023
747.1948	0.0093
747.3714	0.0127
747.5479	-0.0021
747.7244	0.0012
747.9008	0.0062
748.0773	0.0007
748.2537	-0.0052
748.4301	-0.0078
748.6065	0.0071
748.7829	0.003
748.9593	-0.0076
749.1356	-0.0002
749.3119	0.0113
749.4882	-0.0034
749.6645	0.0138
749.8408	-0.0089
750.017	-0.0046
750.1933	0
750.3695	-0.0034
750.5457	0.0123
750.7218	0.0083
750.898	0.0034
751.0741	0.0052
751.2502	-0.0018
751.4263	-0.0023
751.6024	-0.0007
751.7784	0.0003
751.9545	0.0005
752.1305	-0.004
752.3065	-0.0046
752.4825	-0.0019
752.6584	0.0042
752.8344	0.0005
753.0103	-0.0126
753.1862	-0.0048
753.3621	-0.008
753.5379	-0.0049
753.7138	-0.0057
753.8896	-0.0127
754.0654	-0.0007
754.2412	0.0007
754.417	-0.0014
754.5927	-0.0032
754.7685	-0.0095
754.9442	0.0036
755.1199	0.0101
755.2956	-0.0034
755.4712	0.0063
755.6469	-0.0036
755.8225	-0.0071
755.9981	-0.0056
756.1736	0.0018
756.3492	-0.0009
756.5248	-0.0087
756.7003	0.0059
756.8758	-0.004
757.0513	-0.0049
757.2267	-0.007
757.4022	-0.0006
757.5776	-0.0038
757.753	0.0051
757.9284	-0.0098
758.1038	0.0091
758.2791	0.0042
758.4545	-0.0093
758.6298	0.0106
758.8051	-0.0012
758.9803	-0.0034
759.1556	0.0048
759.3308	0.0021
759.506	0.007
759.6812	0.0091
759.8564	0.0122
760.0316	-0.0002
760.2067	0.0029
760.3819	0.0121
760.557	0.0049
760.732	0.0003
760.9071	-0.0174
761.0821	-0.0013
761.2572	0.004
761.4322	-0.0054
761.6072	-0.0053
761.7821	-0.0126
761.9571	0.0013
762.132	-0.0033
762.3069	-0.0036
762.4818	-0.0077
762.6567	-0.011
762.8316	-0.0027
763.0064	-0.0118
763.1812	-0.0037
763.356	-0.0175
763.5308	0.0014
763.7055	-0.0005
763.8803	-0.0055
764.055	0.0064
764.2297	-0.0012
764.4044	-0.0099
764.579	-0.0052
764.7537	-0.0112
764.9283	0.0066
765.1029	-0.0101
765.2775	-0.0056
765.4521	-0.0124
765.6266	-0.0017
765.8011	-0.0039
765.9756	-0.0085
766.1501	0.007
766.3246	-0.0046
766.4991	0.0052
766.6735	-0.0031
766.8479	-0.0107
767.0223	0.0044
767.1967	0.0017
767.371	0.0047
767.5454	-0.0109
767.7197	0.0015
767.894	-0.0009
768.0683	-0.0069
768.2425	0.004
768.4168	-0.0001
768.591	0.0012
768.7652	-0.0026
768.9394	0.0065
769.1135	-0.0006
769.2877	0.0058
769.4618	-0.0007
769.6359	-0.0083
769.81	0.0077
769.984	-0.0042
770.1581	-0.0088
770.3321	0.0017
770.5061	-0.0076
770.6801	-0.0046
770.8541	0.005
771.028	0.0032
771.202	-0.0135
771.3759	0.0032
771.5498	-0.003
771.7236	0.0048
771.8975	-0.0073
772.0713	0.0039
772.2451	0.006
772.4189	0.0124
772.5927	0.0107
772.7665	0.0022
772.9402	-0.0004
773.1139	0.0029
773.2876	-0.0039
773.4613	0.0056
773.635	0.0093
773.8086	-0.0129
773.9822	0.0015
774.1558	0.0109
774.3294	-0.0096
774.503	0.0011
774.6765	-0.0003
774.8501	0.0027
775.0236	0.0027
775.1971	0.004
775.3705	-0.0161
775.544	0.0042
775.7174	-0.0066
775.8908	-0.0004
776.0642	-0.0125
776.2376	-0.0002
776.4109	0.0018
776.5843	0.0097
776.7576	-0.0027
776.9309	0.009
777.1041	0.0008
777.2774	0.0125
777.4506	-0.0041
777.6238	0.0013
777.797	-0.0054
777.9702	-0.0044
778.1434	0.0004
778.3165	-0.0218
778.4896	-0.0012
778.6627	0.0133
778.8358	0.0068
779.0089	-0.0012
779.1819	-0.0056
779.3549	0.015
779.5279	0.0117
779.7009	-0.005
779.8739	0.0064
780.0468	0.0018
780.2197	0.001
780.3926	-0.0112
780.5655	0.0076
780.7384	-0.0204
780.9112	-0.0031
781.0841	-0.0156
781.2569	0.0044
781.4297	0.0006
781.6024	-0.0073
781.7752	-0.0072
781.9479	0.006
782.1206	0.0042
782.2933	-0.0077
782.466	0.0091
782.6386	0.0047
782.8113	0.0048
782.9839	-0.0027
783.1565	0.0153
783.329	-0.0005
783.5016	0.0051
783.6741	0.0027
783.8466	-0.0097
784.0191	0.0055
784.1916	-0.0037
784.3641	-0.0124
784.5365	0.0085
784.7089	-0.0019
784.8813	-0.0162
785.0537	-0.0044
785.2261	-0.01
785.3984	-0.0073
785.5707	-0.0082
785.743	-0.0099
785.9153	-0.011
786.0876	0.0033
786.2598	-0.0204
786.432	-0.0167
786.6042	-0.0001
786.7764	-0.0131
786.9486	-0.0037
787.1207	-0.0136
787.2928	0.0088
787.4649	0.0076
787.637	0.0076
787.8091	-0.0064
787.9811	-0.0043
788.1532	-0.0067
788.3252	0.0079
788.4972	-0.0055
788.6691	0.0023
788.8411	-0.0045
789.013	-0.0084
789.1849	0.0083
789.3568	0.0073
789.5287	-0.0116
789.7005	-0.0084
789.8723	0
790.0442	0.0192
790.2159	-0.0007
790.3877	0.0024
790.5595	-0.0151
790.7312	0.013
790.9029	0.0019
791.0746	-0.0055
791.2463	0.0045
791.4179	-0.002
791.5896	-0.0087
791.7612	-0.002
791.9328	0.0052
792.1044	-0.0132
792.2759	-0.002
792.4474	-0.0071
792.619	0.009
792.7905	0.0157
792.9619	0.0002
793.1334	0.0147
793.3048	0.0067
793.4762	0.0158
793.6476	-0.0009
793.819	0.0098
793.9904	0.0106
794.1617	-0.0138
794.333	0.0068
794.5043	-0.0008
794.6756	-0.0114
794.8469	-0.0082
795.0181	-0.0005
795.1893	0.0057
795.3605	0.0178
795.5317	0.0108
795.7029	-0.015
795.874	-0.0059
796.0452	0.0084
796.2163	0.0048
796.3873	0.0254
796.5584	0.0011
796.7294	-0.0086
796.9005	-0.0003
797.0715	0.0007
797.2425	-0.0151
797.4134	-0.0058
797.5844	-0.0021
797.7553	-0.0052
797.9262	-0.0033
798.0971	-0.0009
798.2679	-0.0061
798.4388	-0.0128
798.6096	-0.0025
798.7804	0.0135
798.9512	0.0125
799.122	0.0034
799.2927	-0.0009
799.4635	0.0115
799.6342	-0.0105
799.8049	-0.0107
799.9755	0.0002
800.1462	-0.0084
800.3168	0.0033
800.4874	0.0159
800.658	0.0079
800.8286	0.0041
800.9991	0.0202
801.1696	0.0133
801.3402	0.0052
801.5106	-0.0181
801.6811	-0.0053
801.8516	0.0099
802.022	0.0058
802.1924	0.0037
802.3628	0.0236
802.5332	0.0118
802.7035	0.0336
802.8739	-0.0004
803.0442	-0.0066
803.2145	0.0132
803.3847	-0.0135
803.555	0.0047
803.7252	-0.0096
803.8954	-0.0116
804.0656	-0.0092
804.2358	0.0046
804.4059	0.0085
804.5761	0.0081
804.7462	0.0234
804.9163	0.0051
805.0864	-0.0065
805.2564	0.0091
805.4264	0.0168
805.5965	0.0036
805.7665	0.018
805.9364	0.0258
806.1064	0.0357
806.2763	0.0184
806.4462	0.0178
806.6161	0.0199
806.786	0.0189
806.9559	0.0041
807.1257	-0.0168
807.2955	-0.0089
807.4653	0.0158
807.6351	-0.0087
807.8048	0.0102
807.9746	0
808.1443	0.0116
808.314	0.0034
808.4837	-0.0019
808.6533	0.0024
808.8229	0.0303
808.9926	0.0123
809.1622	0.0229
809.3317	0.0105
809.5013	0.0033
809.6708	0.0335
809.8403	0.0262
810.0098	0.0116
810.1793	0.0082
810.3488	-0.0047
810.5182	0.0027
810.6876	0.0056
810.857	0.0078
811.0264	0.0228
811.1958	0.0186
811.3651	0.0282
811.5344	-0.0021
811.7037	0.0104
811.873	0.0077
812.0422	-0.0005
812.2115	0.0052
812.3807	-0.0176
812.5499	0.0313
812.7191	0.0098
812.8882	0.0069
813.0574	0.0101
813.2265	-0.004
813.3956	-0.0027
813.5646	0.0106
813.7337	-0.0032
813.9027	0.0306
814.0718	0.043
814.2407	0.0382
814.4097	0.0014
814.5787	0.0145
814.7476	0.0188
814.9165	0.0217
815.0854	0.0072
815.2543	0.0009
815.4232	0.0188
815.592	0.0198
815.7608	0.0045
815.9296	0.0039
816.0984	0.0316
816.2671	0.0148
816.4359	-0.0036
816.6046	0.0153
816.7733	0.0071
816.942	-0.0166
817.1106	0.0144
817.2793	0.0195
817.4479	0.0178
817.6165	0.0432
817.785	-0.0012
817.9536	0
818.1221	0.0016
818.2906	0.018
818.4591	-0.0026
818.6276	0.0131
818.7961	0.0337
818.9645	0.0201
819.1329	0.0129
819.3013	0.0472
819.4697	0.0335
819.638	-0.001
819.8064	0.0153
819.9747	0.0152
820.143	0.0206
820.3113	-0.023
820.4795	0.0039
820.6477	0.0038
820.816	-0.0048
820.9842	-0.0103
821.1523	-0.0057
821.3205	0.013
821.4886	0.0008
821.6567	0.0153
821.8248	0.007
821.9929	0.0183
822.1609	0.0189
822.329	0.0266
822.497	0.0389
822.665	0.0008
822.833	-0.0011
823.0009	0.0118
823.1688	0.0406
823.3367	0.0368
823.5046	0.033
823.6725	0.0161
823.8404	0.0008
824.0082	0.0016
824.176	0.002
824.3438	0.0204
824.5116	-0.0284
824.6793	0.0071
824.847	-0.0106
825.0147	-0.0004
825.1824	0.0307
825.3501	0.0282
825.5177	0.0159
825.6854	0.0281
825.853	0.0076
826.0206	-0.0151
826.1881	0.0411
826.3557	-0.0301
826.5232	0.0141
826.6907	-0.046
826.8582	-0.0071
827.0257	-0.0091
827.1931	-0.0085
827.3605	0.0059
827.528	-0.0087
827.6953	-0.0142
827.8627	0.0014
828.03	0.0505
828.1974	0.011
828.3647	-0.0235
828.532	-0.0291
828.6992	0.0161
828.8665	0.002
829.0337	-0.006
829.2009	0.0127
829.3681	0.0052
829.5352	0.0134
829.7024	0.0027
829.8695	-0.0255
830.0366	0.031
830.2037	0.0188
830.3707	0.005
830.5378	0.006
830.7048	0.0229
830.8718	-0.0054
831.0388	-0.0124
831.2057	0.0163
831.3727	0.0269
831.5396	-0.0375
831.7065	-0.0358
831.8734	-0.0053
832.0402	-0.0029
832.2071	-0.0257
832.3739	-0.0011
832.5407	0.0183
832.7075	-0.0024
832.8742	0.0112
833.041	-0.0363
833.2077	0.0093
833.3744	0.0274
833.541	0.0061
833.7077	-0.0336
833.8743	-0.04
834.0409	-0.0132
834.2075	0.0032
834.3741	-0.0192
834.5407	-0.0056
834.7072	0.0182
834.8737	-0.0294
835.0402	0.02
835.2067	0.0244
835.3731	0.0302
835.5395	-0.0302
835.706	0.0165
835.8723	-0.012
836.0387	0.0048
836.2051	-0.0203
836.3714	0.0056
836.5377	0.0105
836.704	-0.0459
836.8703	-0.003
837.0365	0.0059
837.2027	-0.0292
837.3689	0.0188
837.5351	0.0046
837.7013	-0.0255
837.8674	-0.0479
838.0335	-0.0192
838.1997	0.0017
838.3657	-0.0576
838.5318	-0.0501
838.6978	0.0545
838.8639	0.0068
839.0299	-0.0371
839.1958	0.0152
839.3618	0.0052
839.5277	-0.0151
839.6937	-0.0153
839.8596	-0.0463
840.0254	0.0017
840.1913	0.0009
840.3571	0.03
840.523	0.0236
840.6888	-0.0183
840.8545	0.003
841.0203	0.0318
841.186	0.0114
841.3517	0.0336
841.5174	0.0243
841.6831	0.0135
841.8488	0.0396
842.0144	-0.017
842.18	-0.0215
842.3456	0.0539
842.5112	0.0166
842.6767	-0.0366
842.8422	0.0142
843.0077	0.0343
843.1732	-0.0045
843.3387	-0.0274
843.5042	-0.0495
843.6696	0.0161
843.835	-0.0479
844.0004	0.0323
844.1657	-0.0214
844.3311	-0.0395
844.4964	-0.0216
844.6617	-0.0533
844.827	-0.0114
844.9923	0.0284
845.1575	-0.0219
845.3227	0.0142
845.4879	-0.0077
845.6531	-0.0371
845.8183	-0.0771
845.9834	-0.0061
846.1485	-0.0253
846.3136	-0.0012
846.4787	-0.087
846.6438	0.052
846.8088	-0.0122
846.9738	-0.0071
847.1388	-0.011
847.3038	-0.0773
847.4687	-0.1506
847.6337	0.0673
847.7986	-0.0181
847.9635	-0.0392
848.1284	-0.008
848.2932	0.1587
848.458	-0.0497
848.6228	0.0627
848.7876	0.0818
848.9524	-0.0827
849.1172	-0.0617
849.2819	-0.0123
849.4466	-0.0771
849.6113	-0.0105
849.7759	-0.0899
849.9406	0.0106
850.1052	0.0754
850.2698	-0.1127
850.4344	0.0286
850.599	-0.0604
850.7635	0.0585
850.928	-0.095
851.0925	-0.0556
851.257	-0.029
851.4215	-0.0332
851.5859	-0.0649
851.7503	0.054
851.9147	0.0084
852.0791	-0.1052
852.2434	0.0097
852.4078	0.0346
852.5721	0.0533
852.7364	-0.1155
852.9007	-0.2795
853.0649	-0.0283
853.2291	-0.0646
853.3934	-0.1439
853.5575	0.0371
853.7217	-0.1636
853.8859	-0.1864
854.05	-0.1596
854.2141	-0.0176
854.3782	-0.1289
854.5423	-0.1518
854.7063	0.0376
854.8703	-0.0894
855.0343	-0.0979
855.1983	-0.1637
855.3623	0.1101
855.5262	0.1306
855.6901	-0.0304
855.854	0.0106
856.0179	0.0469
856.1818	0.0835
856.3456	-0.1203
856.5094	-0.138
856.6732	-0.1386
856.837	0.0003
857.0008	0.0002
857.1645	-0.0458
857.3282	-0.1952
857.4919	0.1892
857.6556	-0.0388
857.8192	-0.061
857.9828	0.1356
858.1465	-0.0225
858.31	-0.2042
858.4736	-0.1022
858.6372	-0.3114
858.8007	-0.1257
858.9642	0.0287
859.1277	0.0064
859.2911	-0.0599
859.4546	-0.0559
859.618	-0.558
859.7814	0.0427
859.9448	0.0709
860.1081	-0.1463
860.2715	0.1311
860.4348	0.0816
860.5981	0.0347
860.7614	-0.0181
860.9246	-0.1084
861.0879	-0.1582
861.2511	0.0355
861.4143	-0.2724
861.5774	0.069
861.7406	-0.1777
861.9037	-0.1145
862.0668	-0.2618
862.2299	-0.3178
862.393	-0.5547
862.556	-0.1169
862.7191	-0.1864
862.8821	0.0402
863.0451	0.1736
863.208	0.0261
863.371	-0.1062
863.5339	0.6234
863.6968	0.064
863.8597	-0.2821
864.0225	-0.0951
864.1854	-0.0255
864.3482	0.3257
864.511	-0.0126
864.6737	-0.0989
864.8365	0.2321
864.9992	-0.5984
865.1619	-0.5652
865.3246	-0.4186
865.4873	0.0756
865.65	0.017
865.8126	0.025
865.9752	-0.105
866.1378	0.1766
866.3004	0.0943
866.4629	0.0203
866.6254	-0.0499
866.7879	-0.0449
866.9504	-0.046
867.1129	-0
867.2753	0.0221
867.4377	0.323
867.6001	-0.158
867.7625	0.2128
867.9249	-0
868.0872	-0.2445
868.2495	0.0724
868.4118	-0.2833
868.5741	-0.4599
868.7363	-0.5885
868.8986	-0.385
869.0608	-0.2525
869.223	0.1269
869.3851	-0
869.5473	-0
869.7094	0.0004
869.8715	-0.2177
870.0336	-0
870.1957	-0.5379
870.3577	-0
870.5197	-0.2031
870.6817	2.4048
870.8437	0.1698
871.0057	-0.0062
871.1676	-0.0375
871.3295	0.0529
871.4914	-0
871.6533	-0.4619
871.8151	-0.4155
871.977	-0
872.1388	-0
872.3006	-0
872.4623	1.2374
872.6241	-0.0769
872.7858	0.5492
872.9475	-0.2792
873.1092	1.4589
873.2709	-0.3416
873.4325	-0.2805
873.5941	-0.4717
873.7557	-0
873.9173	-0.8613
874.0789	-0.8334
874.2404	-0.702
874.4019	0.1557
874.5634	-0.2523
874.7249	-0.2713
874.8863	0.4762
875.0478	0.0478
875.2092	-0
875.3706	-0.1815
875.5319	-0.9777
875.6933	0.8937
875.8546	-0.381
876.0159	-0
876.1772	0.1191
876.3385	-0
876.4997	-0.0975
876.6609	-0.4519
876.8221	0.2627
876.9833	0.0641
877.1445	-0
877.3056	0.2723
877.4667	-0.6742
877.6278	-0
877.7889	-0.6515
877.9499	-0
878.111	-0
878.272	-0
878.433	-0
878.5939	-0
878.7549	-0.1146
878.9158	-0.137
879.0767	0.783
879.2376	-0
879.3984	0.4181
879.5593	-0
879.7201	-0.1905
879.8809	-0.9071
880.0417	-0.2676
880.2024	-0.2326
880.3632	-0.4483
880.5239	0.0005
880.6846	0.014
880.8452	-2.5711
881.0059	-1.786
881.1665	0.0784
881.3271	-0
881.4877	0.0489
881.6483	-0.6055
881.8088	-0.2435
881.9693	1.4665
882.1298	1.4665
882.2903	1.4665
