Data from MonoPyChalIsomerACN10uM380nmA_Absorbance_13-38-31-549.txt Node
Date: Fri Jul 05 13:38:31 BST 2024
User: LASERRRRR
Spectrometer: FLMT03099
Trigger mode: 0
Integration Time (sec): 1.000000E-1
Scans to average: 1
Electric dark correction enabled: true
Nonlinearity correction enabled: false
Boxcar width: 0
XAxis mode: Wavelengths
Number of Pixels in Spectrum: 3648
>>>>>Begin Spectral Data<<<<<
179.3399	0.4702
179.5586	0.4702
179.7771	0.4702
179.9957	0.9007
180.2143	-0
180.4329	0.2176
180.6514	-0
180.8699	0.0308
181.0885	-0.3626
181.307	-0.0405
181.5255	-0
181.744	-0
181.9625	-0.5111
182.181	-0
182.3994	0.4724
182.6179	-0
182.8363	1.2863
183.0547	0.0295
183.2732	-0.0122
183.4916	0.0512
183.71	0.1362
183.9284	-0.0089
184.1467	-0.1868
184.3651	-0.0051
184.5835	-0.2191
184.8018	0.0053
185.0201	0.068
185.2385	-0.1042
185.4568	0.1919
185.6751	0.1259
185.8934	0.464
186.1117	-0.097
186.3299	0.0539
186.5482	-0.0136
186.7664	-0.1648
186.9847	-0.1123
187.2029	0.003
187.4211	0.036
187.6393	0.0743
187.8575	0.1632
188.0757	0.2116
188.2939	0.0246
188.512	-0.2586
188.7302	-0.0063
188.9483	-0.0253
189.1665	0.0028
189.3846	0.4825
189.6027	0.0746
189.8208	0.0473
190.0389	0.0972
190.257	0.1552
190.475	0.0787
190.6931	0.0853
190.9111	0.2211
191.1292	0.0945
191.3472	0.4276
191.5652	0.1909
191.7832	0.223
192.0012	0.4845
192.2192	0.277
192.4371	0.4495
192.6551	0.4181
192.873	0.3758
193.091	0.4239
193.3089	0.5426
193.5268	0.3569
193.7447	0.5721
193.9626	0.3828
194.1805	0.506
194.3984	1.1366
194.6162	0.5832
194.8341	0.5903
195.0519	0.6358
195.2697	0.6382
195.4875	0.6635
195.7054	0.5866
195.9231	0.4964
196.1409	0.7272
196.3587	0.5687
196.5765	0.6592
196.7942	0.789
197.012	0.5932
197.2297	0.719
197.4474	0.7666
197.6651	0.748
197.8828	0.7718
198.1005	0.6303
198.3182	0.8129
198.5358	1.1109
198.7535	0.7406
198.9711	0.5515
199.1888	0.827
199.4064	0.8833
199.624	0.5459
199.8416	0.7186
200.0592	0.9135
200.2767	0.791
200.4943	0.6881
200.7119	0.8617
200.9294	0.7167
201.1469	0.6807
201.3645	0.6145
201.582	0.5331
201.7995	0.7893
202.017	0.7818
202.2344	0.7706
202.4519	0.8189
202.6694	0.7391
202.8868	0.6759
203.1042	1.0311
203.3217	0.906
203.5391	0.9259
203.7565	0.69
203.9739	0.7206
204.1913	0.6549
204.4086	0.6866
204.626	0.7956
204.8433	0.7364
205.0607	0.7604
205.278	0.7104
205.4953	0.8113
205.7126	0.6962
205.9299	0.9167
206.1472	0.8465
206.3644	0.8249
206.5817	0.7772
206.7989	0.8941
207.0162	0.7048
207.2334	0.8473
207.4506	0.6933
207.6678	0.7288
207.885	0.7712
208.1022	0.7405
208.3194	0.7567
208.5365	0.7841
208.7537	0.7752
208.9708	0.6602
209.1879	0.8478
209.405	0.793
209.6222	0.7714
209.8392	0.8383
210.0563	0.7383
210.2734	0.8666
210.4905	0.6841
210.7075	0.7725
210.9245	0.7514
211.1416	0.8639
211.3586	0.8072
211.5756	0.7988
211.7926	0.7933
212.0096	0.7958
212.2265	0.6727
212.4435	0.8461
212.6604	0.7639
212.8774	0.7499
213.0943	0.846
213.3112	0.705
213.5281	0.7599
213.745	0.6467
213.9619	0.6565
214.1788	0.6347
214.3956	0.6684
214.6125	0.6093
214.8293	0.6172
215.0461	0.7521
215.2629	0.6897
215.4798	0.6504
215.6965	0.6627
215.9133	0.6478
216.1301	0.6594
216.3469	0.6747
216.5636	0.6563
216.7803	0.6377
216.9971	0.6457
217.2138	0.6209
217.4305	0.6143
217.6472	0.5867
217.8639	0.6524
218.0805	0.6054
218.2972	0.5312
218.5138	0.5866
218.7305	0.5318
218.9471	0.5495
219.1637	0.5438
219.3803	0.5186
219.5969	0.5138
219.8135	0.5182
220.0301	0.5248
220.2466	0.5796
220.4632	0.5456
220.6797	0.4869
220.8962	0.488
221.1127	0.515
221.3292	0.5301
221.5457	0.5331
221.7622	0.5408
221.9787	0.5183
222.1951	0.505
222.4116	0.5192
222.628	0.5042
222.8444	0.518
223.0608	0.5099
223.2772	0.4949
223.4936	0.5306
223.71	0.4806
223.9264	0.5721
224.1427	0.4988
224.3591	0.5092
224.5754	0.5165
224.7917	0.5055
225.008	0.527
225.2243	0.5239
225.4406	0.5465
225.6569	0.5342
225.8732	0.4813
226.0894	0.5147
226.3057	0.5273
226.5219	0.5434
226.7381	0.5265
226.9543	0.5077
227.1705	0.5424
227.3867	0.5253
227.6029	0.5461
227.8191	0.5532
228.0352	0.5349
228.2513	0.5479
228.4675	0.5532
228.6836	0.5368
228.8997	0.5552
229.1158	0.5568
229.3319	0.5608
229.548	0.5378
229.764	0.5635
229.9801	0.5737
230.1961	0.5574
230.4121	0.5442
230.6282	0.5327
230.8442	0.5354
231.0602	0.5812
231.2761	0.5775
231.4921	0.539
231.7081	0.528
231.924	0.5397
232.14	0.5616
232.3559	0.5501
232.5718	0.5565
232.7877	0.5773
233.0036	0.5448
233.2195	0.5501
233.4353	0.5599
233.6512	0.526
233.867	0.5562
234.0829	0.527
234.2987	0.542
234.5145	0.5361
234.7303	0.5426
234.9461	0.5936
235.1619	0.5793
235.3776	0.5679
235.5934	0.5449
235.8091	0.5354
236.0249	0.5131
236.2406	0.5424
236.4563	0.5383
236.672	0.5581
236.8877	0.5409
237.1034	0.556
237.319	0.5288
237.5347	0.5324
237.7503	0.5234
237.966	0.5396
238.1816	0.5586
238.3972	0.5292
238.6128	0.5158
238.8284	0.529
239.0439	0.5513
239.2595	0.5313
239.475	0.5447
239.6906	0.5236
239.9061	0.5367
240.1216	0.4983
240.3371	0.537
240.5526	0.5046
240.7681	0.5026
240.9836	0.5038
241.199	0.5184
241.4145	0.4873
241.6299	0.5
241.8453	0.4888
242.0607	0.4741
242.2761	0.4622
242.4915	0.4494
242.7069	0.4529
242.9223	0.4338
243.1376	0.4265
243.353	0.4435
243.5683	0.4242
243.7836	0.4177
243.9989	0.4199
244.2142	0.3919
244.4295	0.3924
244.6448	0.3856
244.86	0.3749
245.0753	0.3603
245.2905	0.3602
245.5057	0.3384
245.721	0.3328
245.9362	0.3332
246.1514	0.344
246.3665	0.3229
246.5817	0.3294
246.7969	0.3193
247.012	0.3077
247.2271	0.3035
247.4423	0.3013
247.6574	0.3053
247.8725	0.296
248.0876	0.2727
248.3026	0.2735
248.5177	0.2877
248.7328	0.2675
248.9478	0.2451
249.1628	0.2545
249.3779	0.2695
249.5929	0.2428
249.8079	0.2645
250.0228	0.2576
250.2378	0.2475
250.4528	0.2505
250.6677	0.2362
250.8827	0.2368
251.0976	0.2354
251.3125	0.2172
251.5274	0.2143
251.7423	0.2145
251.9572	0.225
252.172	0.2135
252.3869	0.2397
252.6017	0.2054
252.8166	0.213
253.0314	0.2027
253.2462	0.2041
253.461	0.201
253.6758	0.2105
253.8906	0.2103
254.1053	0.195
254.3201	0.1919
254.5348	0.1966
254.7496	0.2047
254.9643	0.1928
255.179	0.1835
255.3937	0.1889
255.6083	0.2011
255.823	0.2008
256.0377	0.182
256.2523	0.1879
256.467	0.1759
256.6816	0.2012
256.8962	0.1881
257.1108	0.1871
257.3254	0.1932
257.54	0.1768
257.7545	0.1959
257.9691	0.2027
258.1836	0.1677
258.3981	0.1938
258.6127	0.2022
258.8272	0.1948
259.0417	0.1931
259.2561	0.1671
259.4706	0.1931
259.6851	0.1937
259.8995	0.1924
260.114	0.2
260.3284	0.1909
260.5428	0.1757
260.7572	0.1818
260.9716	0.1954
261.186	0.1759
261.4003	0.1803
261.6147	0.1984
261.829	0.1822
262.0433	0.1658
262.2577	0.1729
262.472	0.18
262.6863	0.1634
262.9005	0.1804
263.1148	0.1919
263.3291	0.169
263.5433	0.1834
263.7576	0.1705
263.9718	0.1782
264.186	0.2003
264.4002	0.1779
264.6144	0.1822
264.8286	0.1902
265.0427	0.1875
265.2569	0.1936
265.471	0.1759
265.6851	0.1796
265.8993	0.1796
266.1134	0.1804
266.3275	0.1857
266.5415	0.1809
266.7556	0.1918
266.9697	0.1849
267.1837	0.165
267.3978	0.1834
267.6118	0.1931
267.8258	0.1907
268.0398	0.1717
268.2538	0.1761
268.4677	0.1926
268.6817	0.1746
268.8957	0.1839
269.1096	0.1842
269.3235	0.171
269.5374	0.1716
269.7514	0.1716
269.9652	0.1705
270.1791	0.1686
270.393	0.173
270.6068	0.1868
270.8207	0.1619
271.0345	0.176
271.2483	0.1776
271.4622	0.1704
271.676	0.1714
271.8897	0.1648
272.1035	0.1567
272.3173	0.164
272.531	0.1718
272.7448	0.1581
272.9585	0.1605
273.1722	0.1635
273.3859	0.1665
273.5996	0.1611
273.8133	0.1715
274.0269	0.1695
274.2406	0.1612
274.4542	0.1674
274.6679	0.1614
274.8815	0.1641
275.0951	0.1689
275.3087	0.1756
275.5223	0.1794
275.7358	0.1709
275.9494	0.1656
276.1629	0.161
276.3765	0.1697
276.59	0.1742
276.8035	0.1641
277.017	0.177
277.2305	0.1585
277.444	0.17
277.6574	0.1623
277.8709	0.1657
278.0843	0.168
278.2978	0.1784
278.5112	0.1571
278.7246	0.1736
278.938	0.1707
279.1513	0.1769
279.3647	0.1763
279.5781	0.1688
279.7914	0.1596
280.0047	0.18
280.2181	0.174
280.4314	0.1765
280.6447	0.1758
280.8579	0.1782
281.0712	0.1769
281.2845	0.1729
281.4977	0.179
281.711	0.1592
281.9242	0.1677
282.1374	0.171
282.3506	0.1598
282.5638	0.1729
282.7769	0.1753
282.9901	0.1685
283.2033	0.1772
283.4164	0.1676
283.6295	0.1705
283.8426	0.1669
284.0557	0.1765
284.2688	0.1845
284.4819	0.1755
284.695	0.1687
284.908	0.1853
285.1211	0.1726
285.3341	0.1683
285.5471	0.1867
285.7601	0.1797
285.9731	0.1626
286.1861	0.1853
286.3991	0.1838
286.612	0.1784
286.825	0.1799
287.0379	0.1811
287.2508	0.188
287.4637	0.1742
287.6766	0.1609
287.8895	0.1819
288.1024	0.1884
288.3152	0.1779
288.5281	0.1636
288.7409	0.1869
288.9538	0.167
289.1666	0.1799
289.3794	0.1773
289.5922	0.1669
289.8049	0.172
290.0177	0.1647
290.2304	0.1738
290.4432	0.1843
290.6559	0.1651
290.8686	0.1779
291.0813	0.175
291.294	0.1783
291.5067	0.1788
291.7194	0.1807
291.932	0.1915
292.1447	0.1759
292.3573	0.1663
292.5699	0.1733
292.7825	0.1827
292.9951	0.1658
293.2077	0.1733
293.4203	0.1827
293.6328	0.1746
293.8454	0.1799
294.0579	0.1755
294.2704	0.1639
294.4829	0.1665
294.6954	0.1704
294.9079	0.1759
295.1204	0.1685
295.3328	0.1667
295.5453	0.1864
295.7577	0.171
295.9701	0.1653
296.1825	0.1762
296.3949	0.1655
296.6073	0.1669
296.8197	0.1669
297.0321	0.172
297.2444	0.1664
297.4567	0.1647
297.6691	0.1809
297.8814	0.1548
298.0937	0.1626
298.306	0.1729
298.5182	0.1635
298.7305	0.1799
298.9428	0.1703
299.155	0.1714
299.3672	0.1711
299.5794	0.1713
299.7916	0.1716
300.0038	0.1744
300.216	0.1727
300.4282	0.1787
300.6403	0.1557
300.8525	0.1759
301.0646	0.1557
301.2767	0.1751
301.4888	0.1573
301.7009	0.1613
301.913	0.1646
302.125	0.1592
302.3371	0.1534
302.5491	0.1629
302.7612	0.1736
302.9732	0.1647
303.1852	0.1573
303.3972	0.166
303.6092	0.1659
303.8211	0.1577
304.0331	0.1566
304.245	0.1524
304.457	0.1495
304.6689	0.1668
304.8808	0.1598
305.0927	0.1481
305.3046	0.1526
305.5164	0.1568
305.7283	0.1548
305.9401	0.1541
306.152	0.1528
306.3638	0.1503
306.5756	0.1418
306.7874	0.1592
306.9992	0.146
307.2109	0.1408
307.4227	0.1282
307.6344	0.1524
307.8462	0.1393
308.0579	0.1403
308.2696	0.1298
308.4813	0.126
308.693	0.1406
308.9046	0.1309
309.1163	0.1214
309.328	0.1267
309.5396	0.1266
309.7512	0.1377
309.9628	0.1282
310.1744	0.1307
310.386	0.1279
310.5976	0.1388
310.8091	0.1315
311.0207	0.1177
311.2322	0.1354
311.4437	0.1189
311.6552	0.1213
311.8667	0.1163
312.0782	0.1045
312.2897	0.1042
312.5012	0.1133
312.7126	0.1011
312.924	0.1088
313.1355	0.1159
313.3469	0.1052
313.5583	0.1081
313.7696	0.1092
313.981	0.1047
314.1924	0.0931
314.4037	0.1006
314.6151	0.1215
314.8264	0.0974
315.0377	0.0975
315.249	0.1003
315.4603	0.107
315.6716	0.1065
315.8828	0.0958
316.0941	0.0996
316.3053	0.0956
316.5165	0.0994
316.7277	0.0985
316.9389	0.1028
317.1501	0.1041
317.3613	0.1109
317.5724	0.0869
317.7836	0.101
317.9947	0.0984
318.2058	0.0952
318.417	0.0968
318.6281	0.0853
318.8391	0.1005
319.0502	0.0909
319.2613	0.1082
319.4723	0.1125
319.6834	0.1085
319.8944	0.0917
320.1054	0.1002
320.3164	0.0956
320.5274	0.0965
320.7383	0.0939
320.9493	0.0999
321.1602	0.1124
321.3712	0.0983
321.5821	0.1022
321.793	0.1049
322.0039	0.094
322.2148	0.0911
322.4257	0.1077
322.6365	0.1084
322.8474	0.1094
323.0582	0.1001
323.269	0.1114
323.4798	0.108
323.6906	0.0996
323.9014	0.1034
324.1122	0.1101
324.3229	0.0995
324.5337	0.0944
324.7444	0.0915
324.9551	0.1129
325.1658	0.1095
325.3765	0.1077
325.5872	0.0959
325.7979	0.1091
326.0085	0.1058
326.2192	0.1092
326.4298	0.0999
326.6404	0.1015
326.851	0.1054
327.0616	0.1
327.2722	0.1083
327.4828	0.1147
327.6933	0.1087
327.9039	0.1094
328.1144	0.1159
328.3249	0.1049
328.5354	0.0924
328.7459	0.1034
328.9564	0.1055
329.1669	0.0998
329.3773	0.1122
329.5878	0.1002
329.7982	0.1114
330.0086	0.1017
330.219	0.1121
330.4294	0.1053
330.6398	0.1002
330.8502	0.0983
331.0605	0.1146
331.2708	0.0951
331.4812	0.1137
331.6915	0.1185
331.9018	0.1165
332.1121	0.1031
332.3224	0.1099
332.5326	0.1067
332.7429	0.1071
332.9531	0.1159
333.1633	0.1072
333.3735	0.1018
333.5837	0.1013
333.7939	0.0956
334.0041	0.12
334.2143	0.1202
334.4244	0.1004
334.6346	0.0961
334.8447	0.1141
335.0548	0.1045
335.2649	0.1071
335.475	0.1178
335.685	0.1035
335.8951	0.1157
336.1051	0.1175
336.3152	0.1219
336.5252	0.098
336.7352	0.117
336.9452	0.1178
337.1552	0.1121
337.3652	0.1011
337.5751	0.1162
337.7851	0.1128
337.995	0.1054
338.2049	0.1125
338.4148	0.1091
338.6247	0.1164
338.8346	0.109
339.0445	0.1056
339.2543	0.1201
339.4642	0.1221
339.674	0.1035
339.8838	0.1053
340.0936	0.1227
340.3034	0.1163
340.5132	0.1235
340.7229	0.1183
340.9327	0.1149
341.1424	0.1062
341.3522	0.1312
341.5619	0.1217
341.7716	0.1288
341.9813	0.1099
342.1909	0.1111
342.4006	0.1251
342.6102	0.1391
342.8199	0.1279
343.0295	0.1285
343.2391	0.1381
343.4487	0.1348
343.6583	0.1291
343.8679	0.1187
344.0774	0.1354
344.287	0.1356
344.4965	0.1162
344.706	0.139
344.9155	0.1207
345.125	0.1223
345.3345	0.1355
345.544	0.1289
345.7534	0.128
345.9629	0.1284
346.1723	0.134
346.3817	0.1253
346.5911	0.137
346.8005	0.1307
347.0099	0.132
347.2193	0.1315
347.4286	0.1168
347.638	0.1327
347.8473	0.1338
348.0566	0.1379
348.2659	0.1295
348.4752	0.14
348.6845	0.1302
348.8937	0.1271
349.103	0.1388
349.3122	0.1397
349.5214	0.1261
349.7306	0.135
349.9398	0.135
350.149	0.1508
350.3582	0.1284
350.5674	0.1459
350.7765	0.1447
350.9856	0.1395
351.1948	0.1573
351.4039	0.1221
351.613	0.1408
351.822	0.1393
352.0311	0.1493
352.2402	0.142
352.4492	0.1413
352.6582	0.1486
352.8672	0.144
353.0762	0.144
353.2852	0.1337
353.4942	0.1397
353.7032	0.156
353.9121	0.1482
354.1211	0.1372
354.33	0.1525
354.5389	0.1481
354.7478	0.1459
354.9567	0.1435
355.1655	0.1522
355.3744	0.136
355.5833	0.151
355.7921	0.1698
356.0009	0.1487
356.2097	0.1627
356.4185	0.168
356.6273	0.1588
356.8361	0.1562
357.0448	0.1426
357.2536	0.1509
357.4623	0.1512
357.671	0.1606
357.8797	0.1774
358.0884	0.1644
358.2971	0.1569
358.5057	0.1619
358.7144	0.1805
358.923	0.1652
359.1316	0.1617
359.3402	0.1663
359.5488	0.1559
359.7574	0.1611
359.966	0.1772
360.1746	0.1809
360.3831	0.1752
360.5916	0.1573
360.8002	0.166
361.0087	0.1826
361.2172	0.1839
361.4256	0.1647
361.6341	0.1817
361.8426	0.1759
362.051	0.1743
362.2594	0.1691
362.4678	0.17
362.6762	0.184
362.8846	0.182
363.093	0.1824
363.3014	0.175
363.5097	0.1737
363.718	0.1914
363.9264	0.1821
364.1347	0.1789
364.343	0.1842
364.5513	0.1881
364.7595	0.1755
364.9678	0.1883
365.176	0.1954
365.3842	0.1901
365.5925	0.1841
365.8007	0.1948
366.0089	0.2071
366.217	0.1864
366.4252	0.194
366.6333	0.1916
366.8415	0.1989
367.0496	0.1883
367.2577	0.2029
367.4658	0.2189
367.6739	0.2101
367.882	0.2085
368.09	0.1951
368.2981	0.1968
368.5061	0.1808
368.7141	0.207
368.9221	0.2084
369.1301	0.207
369.3381	0.2143
369.5461	0.1928
369.754	0.2069
369.962	0.2185
370.1699	0.2122
370.3778	0.2124
370.5857	0.1876
370.7936	0.1945
371.0015	0.2072
371.2093	0.211
371.4172	0.2175
371.625	0.1958
371.8328	0.1971
372.0406	0.2053
372.2484	0.2066
372.4562	0.2179
372.664	0.2097
372.8717	0.2272
373.0795	0.2007
373.2872	0.2063
373.4949	0.2107
373.7026	0.2189
373.9103	0.2189
374.118	0.2382
374.3256	0.2039
374.5333	0.2018
374.7409	0.2001
374.9485	0.2316
375.1561	0.2247
375.3637	0.2171
375.5713	0.2259
375.7789	0.2426
375.9864	0.2319
376.194	0.2076
376.4015	0.2319
376.609	0.2219
376.8165	0.2281
377.024	0.2209
377.2315	0.2148
377.4389	0.2381
377.6464	0.2396
377.8538	0.2389
378.0612	0.2305
378.2686	0.2381
378.476	0.2438
378.6834	0.2326
378.8908	0.2421
379.0981	0.2361
379.3055	0.2336
379.5128	0.2383
379.7201	0.2429
379.9274	0.2299
380.1347	0.2354
380.342	0.2336
380.5492	0.2258
380.7565	0.2315
380.9637	0.2381
381.1709	0.2404
381.3781	0.2485
381.5853	0.2556
381.7925	0.2456
381.9997	0.2549
382.2068	0.2482
382.4139	0.2543
382.6211	0.2397
382.8282	0.2368
383.0353	0.2486
383.2424	0.2374
383.4494	0.2475
383.6565	0.2499
383.8635	0.2438
384.0706	0.2313
384.2776	0.2524
384.4846	0.2363
384.6916	0.2593
384.8986	0.2457
385.1055	0.2318
385.3125	0.2387
385.5194	0.2214
385.7263	0.2576
385.9333	0.2344
386.1402	0.2484
386.347	0.2323
386.5539	0.2307
386.7608	0.2558
386.9676	0.231
387.1744	0.2311
387.3813	0.2318
387.5881	0.2478
387.7948	0.2266
388.0016	0.235
388.2084	0.2376
388.4151	0.2229
388.6219	0.2488
388.8286	0.2272
389.0353	0.2598
389.242	0.2355
389.4487	0.2117
389.6553	0.2308
389.862	0.2093
390.0686	0.2377
390.2753	0.2518
390.4819	0.2318
390.6885	0.227
390.8951	0.2405
391.1016	0.2317
391.3082	0.2146
391.5147	0.2373
391.7213	0.2208
391.9278	0.2238
392.1343	0.2117
392.3408	0.2134
392.5473	0.2236
392.7537	0.2241
392.9602	0.2205
393.1666	0.2137
393.373	0.2141
393.5794	0.217
393.7858	0.2127
393.9922	0.1941
394.1986	0.2243
394.4049	0.2169
394.6113	0.2078
394.8176	0.2067
395.0239	0.2145
395.2302	0.208
395.4365	0.2137
395.6428	0.2129
395.8491	0.206
396.0553	0.2072
396.2615	0.2157
396.4678	0.2047
396.674	0.1802
396.8802	0.2068
397.0863	0.2147
397.2925	0.1932
397.4987	0.1884
397.7048	0.2014
397.9109	0.2073
398.117	0.1993
398.3231	0.2011
398.5292	0.2048
398.7353	0.219
398.9413	0.1982
399.1474	0.1991
399.3534	0.1966
399.5594	0.1911
399.7654	0.2216
399.9714	0.2181
400.1774	0.2081
400.3833	0.2038
400.5893	0.207
400.7952	0.2207
401.0011	0.2027
401.207	0.2126
401.4129	0.1949
401.6188	0.2151
401.8247	0.209
402.0305	0.1872
402.2364	0.1922
402.4422	0.2106
402.648	0.2349
402.8538	0.2213
403.0596	0.1818
403.2654	0.2055
403.4711	0.1809
403.6768	0.2044
403.8826	0.2136
404.0883	0.2085
404.294	0.1992
404.4997	0.2085
404.7054	0.183
404.911	0.1867
405.1167	0.206
405.3223	0.2057
405.5279	0.2177
405.7335	0.2077
405.9391	0.208
406.1447	0.1848
406.3502	0.2223
406.5558	0.2045
406.7613	0.2095
406.9668	0.2052
407.1724	0.1902
407.3778	0.1871
407.5833	0.1976
407.7888	0.1953
407.9942	0.2091
408.1997	0.1918
408.4051	0.1858
408.6105	0.1975
408.8159	0.1888
409.0213	0.1857
409.2267	0.191
409.432	0.1956
409.6374	0.2201
409.8427	0.1876
410.048	0.197
410.2533	0.1897
410.4586	0.2011
410.6639	0.1702
410.8691	0.1906
411.0744	0.1892
411.2796	0.1807
411.4848	0.2011
411.69	0.1815
411.8952	0.2091
412.1004	0.1762
412.3056	0.2051
412.5107	0.1793
412.7158	0.2062
412.921	0.1848
413.1261	0.2039
413.3312	0.1885
413.5362	0.2008
413.7413	0.202
413.9464	0.1979
414.1514	0.1921
414.3564	0.1906
414.5614	0.179
414.7664	0.1878
414.9714	0.1969
415.1764	0.1976
415.3813	0.2072
415.5863	0.2189
415.7912	0.1948
415.9961	0.1894
416.201	0.1955
416.4059	0.2005
416.6108	0.1808
416.8156	0.1964
417.0205	0.1822
417.2253	0.1948
417.4301	0.1682
417.6349	0.1756
417.8397	0.1884
418.0445	0.1954
418.2492	0.2041
418.454	0.1862
418.6587	0.1848
418.8634	0.195
419.0681	0.1868
419.2728	0.1765
419.4775	0.1809
419.6822	0.185
419.8868	0.1596
420.0915	0.1854
420.2961	0.177
420.5007	0.176
420.7053	0.1885
420.9099	0.1722
421.1144	0.1824
421.319	0.1738
421.5235	0.1728
421.728	0.1737
421.9325	0.1792
422.137	0.1866
422.3415	0.169
422.546	0.1747
422.7504	0.1647
422.9549	0.1849
423.1593	0.1825
423.3637	0.1667
423.5681	0.1785
423.7725	0.1421
423.9769	0.1579
424.1812	0.1628
424.3856	0.1741
424.5899	0.1834
424.7942	0.1587
424.9985	0.1664
425.2028	0.1542
425.4071	0.1871
425.6113	0.1411
425.8156	0.1581
426.0198	0.1575
426.224	0.1491
426.4282	0.1574
426.6324	0.1354
426.8366	0.1653
427.0407	0.1394
427.2449	0.1473
427.449	0.1561
427.6531	0.1222
427.8572	0.1471
428.0613	0.1474
428.2654	0.1548
428.4694	0.1311
428.6735	0.1446
428.8775	0.154
429.0815	0.147
429.2855	0.1366
429.4895	0.1443
429.6935	0.1458
429.8975	0.1402
430.1014	0.1262
430.3053	0.1198
430.5093	0.1431
430.7132	0.1277
430.9171	0.1381
431.1209	0.1405
431.3248	0.1083
431.5286	0.1214
431.7325	0.1317
431.9363	0.1095
432.1401	0.1236
432.3439	0.1195
432.5477	0.1177
432.7514	0.1077
432.9552	0.1091
433.1589	0.1033
433.3627	0.106
433.5664	0.11
433.7701	0.1118
433.9737	0.1076
434.1774	0.1014
434.3811	0.1037
434.5847	0.0988
434.7883	0.1134
434.9919	0.1047
435.1955	0.0946
435.3991	0.1071
435.6027	0.0924
435.8062	0.1107
436.0098	0.0947
436.2133	0.0858
436.4168	0.0804
436.6203	0.0996
436.8238	0.0936
437.0272	0.09
437.2307	0.0859
437.4341	0.0956
437.6375	0.0881
437.841	0.0751
438.0443	0.0738
438.2477	0.0812
438.4511	0.0758
438.6545	0.0779
438.8578	0.095
439.0611	0.0846
439.2644	0.0764
439.4677	0.0725
439.671	0.0765
439.8743	0.0838
440.0775	0.0878
440.2808	0.0679
440.484	0.0533
440.6872	0.0575
440.8904	0.0485
441.0936	0.0771
441.2967	0.0627
441.4999	0.0619
441.703	0.0672
441.9062	0.0449
442.1093	0.0784
442.3124	0.0648
442.5155	0.0579
442.7185	0.0479
442.9216	0.0455
443.1246	0.0671
443.3276	0.0566
443.5307	0.0572
443.7337	0.0565
443.9366	0.053
444.1396	0.0646
444.3426	0.059
444.5455	0.0412
444.7484	0.0306
444.9513	0.033
445.1542	0.0509
445.3571	0.0479
445.56	0.031
445.7628	0.0316
445.9657	0.0451
446.1685	0.0516
446.3713	0.0417
446.5741	0.0354
446.7769	0.0292
446.9797	0.0349
447.1824	0.0375
447.3852	0.0213
447.5879	0.0498
447.7906	0.0512
447.9933	0.0437
448.196	0.0188
448.3986	0.0309
448.6013	0.0128
448.8039	0.0009
449.0066	0.0231
449.2092	0.0388
449.4118	0.0227
449.6143	0.0218
449.8169	0.0257
450.0195	0.0266
450.222	0.0112
450.4245	0.0166
450.627	0.0314
450.8295	0.027
451.032	0.0227
451.2345	0.0235
451.4369	0.0186
451.6394	0.0171
451.8418	0.0013
452.0442	0.0101
452.2466	0.0312
452.449	0.0056
452.6513	0.0186
452.8537	0.022
453.056	0.0063
453.2583	0.0168
453.4607	0.018
453.663	0.0129
453.8652	0.0125
454.0675	0.0071
454.2697	0.0091
454.472	0.0027
454.6742	0.0182
454.8764	0.0076
455.0786	0.0215
455.2808	0.0009
455.4829	0.0106
455.6851	0.011
455.8872	0.0139
456.0893	0.014
456.2915	-0.0002
456.4935	0.0169
456.6956	0.0104
456.8977	0.0078
457.0997	-0.0081
457.3018	-0.0027
457.5038	0.0071
457.7058	0.0099
457.9078	0.0125
458.1098	0.0129
458.3117	0.0105
458.5137	0.002
458.7156	0.0062
458.9175	-0.0174
459.1194	-0.0098
459.3213	-0.0094
459.5232	0.0001
459.725	0.0039
459.9269	-0.0102
460.1287	-0.0006
460.3305	0.0118
460.5323	0.0062
460.7341	-0.0085
460.9359	0.0024
461.1376	0.0048
461.3394	-0.0013
461.5411	-0.0025
461.7428	0.0012
461.9445	0.0208
462.1462	0.0028
462.3479	-0.0039
462.5495	-0.0014
462.7512	0.0029
462.9528	0.003
463.1544	-0.0162
463.356	-0.0043
463.5576	0.003
463.7592	-0.0141
463.9607	-0.001
464.1623	0.0065
464.3638	0.003
464.5653	-0.0111
464.7668	-0.0087
464.9683	0.0113
465.1697	-0.0066
465.3712	-0.0143
465.5726	-0.016
465.7741	0.0031
465.9755	-0.0022
466.1769	-0.0053
466.3782	0.0046
466.5796	-0.0026
466.7809	0.0083
466.9823	-0.0078
467.1836	-0.0085
467.3849	-0.0086
467.5862	-0.0082
467.7875	-0.0055
467.9887	0.0049
468.19	-0.0008
468.3912	-0.017
468.5924	-0.0115
468.7936	-0.0025
468.9948	-0.006
469.196	-0.0077
469.3972	-0.0119
469.5983	-0.0225
469.7994	-0.0113
470.0006	-0.0229
470.2017	-0.0131
470.4027	-0.0073
470.6038	-0.0008
470.8049	-0.0147
471.0059	-0.005
471.2069	-0.033
471.408	0.0052
471.6089	-0.0016
471.8099	-0.0172
472.0109	0.0041
472.2119	-0.017
472.4128	-0.0128
472.6137	-0.0017
472.8146	-0.0233
473.0155	-0.012
473.2164	-0.0077
473.4173	-0.0006
473.6181	-0.007
473.819	0.0036
474.0198	-0.0155
474.2206	-0.0213
474.4214	-0.0033
474.6222	0.0008
474.8229	-0.0154
475.0237	-0.0045
475.2244	-0.0215
475.4251	-0.0082
475.6258	-0.0135
475.8265	-0
476.0272	0.0054
476.2278	-0.0003
476.4285	-0.006
476.6291	-0.0199
476.8297	-0.0053
477.0303	-0.0089
477.2309	-0.003
477.4315	-0.0191
477.632	-0.0077
477.8326	-0.0171
478.0331	-0.0098
478.2336	0.0068
478.4341	-0.0151
478.6346	-0.0053
478.8351	-0.0145
479.0355	-0.014
479.236	-0.0037
479.4364	-0.0021
479.6368	-0.0119
479.8372	-0.0135
480.0376	0.0024
480.2379	-0.0173
480.4383	-0.0256
480.6386	-0.0055
480.8389	-0.0117
481.0392	-0.0191
481.2395	-0.0174
481.4398	-0.001
481.6401	-0.0079
481.8403	-0.0192
482.0405	-0.0095
482.2408	0.0028
482.441	-0.0019
482.6411	-0.0108
482.8413	-0.0227
483.0415	-0.0081
483.2416	-0.0157
483.4417	-0.0141
483.6419	-0.0236
483.8419	-0.0079
484.042	0.0087
484.2421	-0.0027
484.4422	-0.012
484.6422	-0.0093
484.8422	-0.0067
485.0422	-0.0237
485.2422	0.0013
485.4422	-0.0171
485.6422	-0.0162
485.8421	-0.0015
486.042	-0.0127
486.242	-0.0066
486.4419	-0.0144
486.6417	-0.018
486.8416	-0.0014
487.0415	-0.0107
487.2413	-0.0116
487.4411	-0.0156
487.641	-0.0143
487.8408	-0.0108
488.0405	-0.0117
488.2403	-0.0192
488.4401	-0.0023
488.6398	-0.0059
488.8395	-0.0118
489.0392	-0.0019
489.2389	-0.0184
489.4386	-0.0106
489.6383	-0.0109
489.8379	-0.0146
490.0376	-0.0149
490.2372	-0.0143
490.4368	-0.0237
490.6364	-0.0229
490.836	-0.0156
491.0355	-0.0093
491.2351	-0.018
491.4346	-0.0067
491.6341	-0.0206
491.8336	-0.008
492.0331	-0.0197
492.2326	-0.0188
492.432	-0.0079
492.6315	-0.0081
492.8309	-0.0209
493.0303	-0.024
493.2297	-0.0116
493.4291	-0.0163
493.6284	-0.015
493.8278	-0.0058
494.0271	-0.0154
494.2264	-0.0006
494.4257	-0.0196
494.625	-0.006
494.8243	-0.0183
495.0236	-0.0143
495.2228	-0.0183
495.422	0.0028
495.6213	-0.0153
495.8205	0.0004
496.0196	-0.0165
496.2188	-0.0013
496.418	-0.0098
496.6171	-0.0178
496.8162	-0.0244
497.0153	-0.01
497.2144	-0.0163
497.4135	-0.0085
497.6126	-0.0167
497.8116	-0.0175
498.0107	-0.0114
498.2097	-0.0228
498.4087	-0.0224
498.6077	-0.015
498.8067	-0.0151
499.0056	-0.0051
499.2046	-0.0201
499.4035	-0.024
499.6024	-0.0179
499.8013	-0.0075
500.0002	-0.0182
500.199	-0.0105
500.3979	-0.0159
500.5967	-0.0255
500.7956	-0.0079
500.9944	-0.0122
501.1932	-0.0239
501.3919	-0.0149
501.5907	-0.0198
501.7895	-0.005
501.9882	-0.0124
502.1869	-0.0087
502.3856	-0.0155
502.5843	-0.018
502.783	-0.0251
502.9816	-0.0044
503.1803	-0.0269
503.3789	-0.0204
503.5775	-0.005
503.7761	-0.0135
503.9747	-0.0044
504.1732	-0.0111
504.3718	-0.0147
504.5703	-0.0061
504.7689	-0.0145
504.9674	-0.0071
505.1658	-0.0183
505.3643	-0.0123
505.5628	-0.0067
505.7612	-0.012
505.9597	-0.0045
506.1581	-0.0149
506.3565	-0.0056
506.5549	-0.0162
506.7532	-0.0195
506.9516	-0.0085
507.1499	-0.0084
507.3482	-0.0188
507.5465	-0.0114
507.7448	-0.006
507.9431	-0.0133
508.1414	-0.0057
508.3396	-0.0202
508.5379	-0.009
508.7361	-0.0163
508.9343	-0.0199
509.1325	-0.0064
509.3306	-0.0116
509.5288	-0.0183
509.7269	-0.0178
509.9251	-0.0098
510.1232	-0.0227
510.3213	-0.009
510.5193	-0.0026
510.7174	-0.027
510.9154	-0.0177
511.1135	-0.0173
511.3115	-0.0147
511.5095	-0.0096
511.7075	-0.0155
511.9055	-0.0152
512.1034	-0.012
512.3014	-0.0057
512.4993	-0.0031
512.6972	-0.0124
512.8951	-0.0262
513.093	-0.0115
513.2908	-0.0048
513.4887	-0.0097
513.6865	-0.0156
513.8844	-0.0182
514.0822	-0.0218
514.2799	-0.0111
514.4777	-0.0292
514.6755	-0.0154
514.8732	-0.0129
515.0709	-0.0127
515.2687	-0.0102
515.4664	-0.0067
515.664	-0.0066
515.8617	-0.0166
516.0594	-0.0206
516.257	-0.0041
516.4546	-0.0286
516.6522	-0.0021
516.8498	-0.0078
517.0474	-0.0095
517.2449	-0.0055
517.4425	-0.0283
517.64	-0.0142
517.8375	-0.0038
518.035	-0.0091
518.2325	-0.0141
518.43	-0.018
518.6274	-0.0135
518.8249	-0.0148
519.0223	-0.0003
519.2197	-0.0114
519.4171	-0.0146
519.6145	-0.0162
519.8118	-0.0057
520.0092	-0.0132
520.2065	-0.014
520.4038	-0.026
520.6011	-0.0107
520.7984	-0.0151
520.9956	-0.0053
521.1929	-0.0198
521.3901	-0.0049
521.5874	-0.0198
521.7846	-0.016
521.9818	-0.0174
522.1789	-0.0226
522.3761	-0.0164
522.5732	-0.0101
522.7704	-0.0206
522.9675	-0.0137
523.1646	-0.0192
523.3617	-0.0051
523.5587	-0.014
523.7558	-0.0084
523.9528	-0.0141
524.1498	-0.0129
524.3468	-0.0184
524.5438	-0.0112
524.7408	-0.0146
524.9378	-0.0075
525.1347	-0.0103
525.3316	-0.0081
525.5285	-0.0133
525.7254	-0.0116
525.9223	-0.0008
526.1192	-0.0262
526.316	-0.0176
526.5129	-0.0006
526.7097	-0.0018
526.9065	-0.0109
527.1033	-0.0175
527.3	-0.0166
527.4968	-0.022
527.6935	-0.0108
527.8903	-0.0207
528.087	-0.012
528.2837	-0.0171
528.4804	-0.0139
528.677	-0.0122
528.8737	0.0007
529.0703	-0.0113
529.2669	-0.0075
529.4635	-0.0134
529.6601	-0.0111
529.8567	-0.01
530.0532	-0.0209
530.2498	-0.0134
530.4463	-0.0127
530.6428	-0.0143
530.8393	-0.0031
531.0358	-0.0122
531.2322	-0.0077
531.4287	-0.0161
531.6251	-0.0078
531.8215	0.0025
532.0179	-0.0092
532.2143	-0.0038
532.4107	-0.0151
532.607	-0.0113
532.8034	-0.0068
532.9997	-0.009
533.196	-0.0085
533.3923	-0.0128
533.5886	-0.0103
533.7848	-0.007
533.9811	-0.0106
534.1773	-0.0089
534.3735	-0.0036
534.5697	-0.0125
534.7659	-0.0102
534.9621	-0.0102
535.1582	-0.0161
535.3544	-0.0125
535.5505	-0.0179
535.7466	-0.0082
535.9427	-0.0129
536.1387	-0.0122
536.3348	-0.0072
536.5308	-0.0038
536.7269	-0.0261
536.9229	-0.0121
537.1189	-0
537.3148	-0.0173
537.5108	-0.0191
537.7068	-0.0152
537.9027	-0.0069
538.0986	-0.0043
538.2945	-0.0114
538.4904	-0.0025
538.6863	-0.0085
538.8821	-0.0051
539.078	-0.0063
539.2738	0.0039
539.4696	-0.0141
539.6654	-0.0019
539.8611	0.0006
540.0569	-0.0042
540.2526	-0.0138
540.4484	-0.0083
540.6441	-0.0023
540.8398	-0.0074
541.0355	-0.0021
541.2311	-0.0028
541.4268	-0.0104
541.6224	-0.0026
541.818	-0.0085
542.0136	-0.023
542.2092	-0.0081
542.4048	0.0012
542.6003	-0.0057
542.7959	-0.0115
542.9914	-0.0108
543.1869	-0.0034
543.3824	-0.0137
543.5779	-0.0154
543.7734	-0.0082
543.9688	-0.0121
544.1642	0.0035
544.3596	-0.0073
544.555	-0.011
544.7504	0.0008
544.9458	-0.0095
545.1411	0.0042
545.3365	-0.0018
545.5318	-0.0092
545.7271	-0.0026
545.9224	-0.0036
546.1177	-0.0065
546.3129	-0.0036
546.5081	-0.0067
546.7034	-0.0099
546.8986	-0.015
547.0938	-0.0127
547.289	-0.0077
547.4841	-0.0026
547.6793	0.0014
547.8744	-0.0102
548.0695	-0.0003
548.2646	-0.0188
548.4597	0.0026
548.6548	-0.0055
548.8498	0.0004
549.0448	0.0039
549.2399	0.0005
549.4349	0.0047
549.6298	-0.0054
549.8248	0.0007
550.0198	-0.0078
550.2147	-0.0142
550.4096	-0.0052
550.6045	-0.0104
550.7994	-0.0038
550.9943	-0.0027
551.1892	-0.009
551.384	0.0039
551.5788	-0.0131
551.7737	0.0015
551.9685	0.0006
552.1632	-0.0013
552.358	-0.0121
552.5528	-0.0047
552.7475	-0.0092
552.9422	-0.0094
553.1369	-0.0123
553.3316	0.0069
553.5263	-0.019
553.7209	-0.0023
553.9156	-0.0041
554.1102	-0.0116
554.3048	-0.0052
554.4994	0.0006
554.694	-0.007
554.8885	0.0019
555.0831	-0.011
555.2776	-0.0065
555.4721	-0.0071
555.6666	-0.0078
555.8611	0.0011
556.0555	-0.0015
556.25	0.002
556.4444	-0.0085
556.6388	0.0002
556.8332	-0.0022
557.0276	-0.0068
557.222	-0.0098
557.4163	-0.0037
557.6107	-0.0117
557.805	0.0011
557.9993	-0.0076
558.1936	0.0046
558.3879	0.0064
558.5821	-0.008
558.7764	-0.0051
558.9706	-0.0018
559.1648	-0.0032
559.359	-0.0071
559.5532	-0.0104
559.7473	-0.0088
559.9415	-0.0067
560.1356	-0.0049
560.3297	-0.0174
560.5238	-0.0062
560.7179	-0.0108
560.9119	-0.0095
561.106	-0.0045
561.3	-0.0084
561.494	-0.0005
561.688	-0.0022
561.882	-0.0148
562.076	-0.003
562.2699	-0.0033
562.4639	-0.0078
562.6578	-0.0014
562.8517	-0.0019
563.0456	-0.0077
563.2395	0.0002
563.4333	0.0062
563.6272	-0.0012
563.821	-0.0031
564.0148	-0.0121
564.2086	-0.0124
564.4024	-0.0023
564.5961	-0.0066
564.7899	0.0002
564.9836	-0.0033
565.1773	-0.0099
565.371	-0.0028
565.5647	-0.0001
565.7584	-0.0027
565.952	-0.0018
566.1456	-0.0047
566.3393	0.001
566.5329	-0.0051
566.7264	-0.0075
566.92	-0.0174
567.1136	0.003
567.3071	-0.0086
567.5006	0.0019
567.6941	-0.0039
567.8876	0.0019
568.0811	0.0034
568.2745	0.0019
568.468	-0.0007
568.6614	-0.0044
568.8548	-0.0068
569.0482	-0.0137
569.2416	0.0013
569.4349	-0.007
569.6283	0.0024
569.8216	-0.0006
570.0149	-0.0057
570.2082	0.0106
570.4015	0.0004
570.5947	0.0053
570.788	0.0099
570.9812	0.0068
571.1744	-0.0047
571.3676	-0.0125
571.5608	-0.0032
571.754	-0.0015
571.9471	-0.0009
572.1402	-0.0039
572.3333	-0.0001
572.5264	-0.0071
572.7195	0.0045
572.9126	0.0004
573.1057	-0.0018
573.2987	-0.0028
573.4917	-0.0022
573.6847	-0.0066
573.8777	0.003
574.0707	0.0114
574.2636	-0.0041
574.4566	-0.0023
574.6495	0.0028
574.8424	-0.0027
575.0353	0.0028
575.2281	0.0049
575.421	0.0007
575.6138	0.0035
575.8067	-0.0068
575.9995	0.0063
576.1923	0.0009
576.385	0.0028
576.5778	-0.001
576.7706	-0.0019
576.9633	0.0016
577.156	0.0007
577.3487	-0.0016
577.5414	-0.0022
577.734	-0.0069
577.9267	0.0013
578.1193	-0.0111
578.3119	-0.0069
578.5045	-0.0018
578.6971	0.0012
578.8897	-0.0022
579.0822	0.001
579.2747	0.0024
579.4673	-0.0048
579.6598	-0.0031
579.8522	-0.0046
580.0447	0.0032
580.2372	-0.0029
580.4296	0.0057
580.622	-0.0014
580.8144	-0.0038
581.0068	-0.0022
581.1992	-0.013
581.3915	-0.0017
581.5839	-0.0035
581.7762	-0.0077
581.9685	-0.002
582.1608	-0.0006
582.353	-0.0019
582.5453	-0.0011
582.7375	0.0027
582.9298	-0.0024
583.122	-0.0025
583.3142	0.0071
583.5063	-0.001
583.6985	-0.0026
583.8906	-0.0029
584.0827	-0.0054
584.2749	0.0019
584.4669	0.002
584.659	-0.003
584.8511	-0.0013
585.0431	-0.0039
585.2352	0.0032
585.4272	-0.0078
585.6192	0.0061
585.8111	0.0018
586.0031	0
586.195	-0.0026
586.387	-0.0009
586.5789	-0.001
586.7708	-0.0021
586.9627	-0.0028
587.1545	-0.0012
587.3464	-0.0017
587.5382	0.002
587.73	-0.0002
587.9218	0.006
588.1136	-0.0022
588.3053	-0.0005
588.4971	-0.0082
588.6888	-0.0083
588.8805	0.0019
589.0722	0.0025
589.2639	0.0027
589.4556	-0.0022
589.6472	-0.0047
589.8389	-0.0081
590.0305	-0.0079
590.2221	-0.0045
590.4137	-0.01
590.6052	-0.0002
590.7968	-0.001
590.9883	0.0036
591.1798	-0.0002
591.3713	-0.0009
591.5628	0.0068
591.7543	0.0016
591.9458	-0.0058
592.1372	0.006
592.3286	0.0065
592.52	0.0067
592.7114	-0.0049
592.9028	-0.0005
593.0941	-0.0058
593.2855	0.0007
593.4768	-0.005
593.6681	-0.0032
593.8594	0.0002
594.0506	-0.0018
594.2419	0.0089
594.4331	0.0049
594.6244	0.0058
594.8156	-0.0056
595.0067	0.0025
595.1979	0.0086
595.3891	-0.0003
595.5802	-0.0031
595.7713	-0.0036
595.9624	-0.0118
596.1535	0.0038
596.3446	-0.0013
596.5357	0.0012
596.7267	0.0006
596.9177	0.0016
597.1087	-0.0035
597.2997	-0.0051
597.4907	0.0064
597.6817	-0.0018
597.8726	0.004
598.0635	-0.0069
598.2544	-0.0028
598.4453	-0.0034
598.6362	-0.0058
598.827	-0.0006
599.0179	0.0029
599.2087	0.001
599.3995	-0.0026
599.5903	0.002
599.7811	-0.0015
599.9718	-0.0021
600.1626	-0.0041
600.3533	-0.0062
600.544	0.0017
600.7347	0.0044
600.9254	-0.0005
601.116	-0.0102
601.3067	-0.0033
601.4973	0.0013
601.6879	0.0027
601.8785	-0.0093
602.0691	0.0008
602.2596	0.0007
602.4502	0.004
602.6407	-0.0034
602.8312	0.0033
603.0217	-0.0083
603.2122	-0.0032
603.4027	-0.0081
603.5931	-0.0004
603.7835	-0.0092
603.9739	-0.0025
604.1643	-0.0013
604.3547	-0.0083
604.5451	-0.0004
604.7354	-0.0046
604.9257	0.0027
605.116	-0.0013
605.3063	0.0069
605.4966	-0.0012
605.6869	-0.001
605.8771	0.004
606.0673	0.0067
606.2575	0.0058
606.4477	0.0113
606.6379	0.0028
606.8281	-0.0021
607.0182	-0.0018
607.2083	0.0131
607.3985	-0.0009
607.5885	0.0061
607.7786	0.0035
607.9687	0.0015
608.1587	0.0017
608.3488	-0.0006
608.5388	-0.0001
608.7288	-0.0019
608.9187	-0.0044
609.1087	-0.0056
609.2986	-0.0009
609.4886	-0.0028
609.6785	0.0021
609.8684	0.0008
610.0582	0.0051
610.2481	0.0026
610.4379	-0.0001
610.6278	0.0007
610.8176	-0.0054
611.0074	-0.0096
611.1971	0.0036
611.3869	0.0006
611.5766	-0.0049
611.7664	0.0079
611.9561	-0.0007
612.1458	0.006
612.3354	-0.0032
612.5251	-0.0037
612.7147	0.0024
612.9044	0.0022
613.094	-0.001
613.2836	-0.0019
613.4731	-0.0029
613.6627	-0.0039
613.8522	0.0087
614.0417	-0.0014
614.2313	-0.0041
614.4207	-0.0094
614.6102	-0.0026
614.7997	-0.0073
614.9891	-0.0101
615.1785	-0.0014
615.3679	-0.0056
615.5573	0.0071
615.7467	-0.0036
615.9361	-0.0003
616.1254	0.0069
616.3147	-0.0054
616.504	0.0005
616.6933	0.001
616.8826	0.0062
617.0718	-0.0008
617.2611	0.0045
617.4503	-0.0057
617.6395	0.0012
617.8287	-0.0004
618.0179	0.0025
618.207	0.0047
618.3961	0.0042
618.5853	0.0039
618.7744	0.0041
618.9634	0.0045
619.1525	0.0043
619.3416	-0.0028
619.5306	0.0022
619.7196	-0.0004
619.9086	-0.006
620.0976	0.0072
620.2866	-0.003
620.4755	0.0053
620.6645	0.0045
620.8534	0.0095
621.0423	-0.0013
621.2312	0.0123
621.42	0.0031
621.6089	0.0006
621.7977	0.0032
621.9865	-0.0089
622.1753	0.0026
622.3641	0.0024
622.5529	0.0049
622.7416	0.007
622.9303	-0.0032
623.1191	0.0017
623.3078	-0.0024
623.4964	0.0026
623.6851	-0.0039
623.8737	-0.0008
624.0624	0.0081
624.251	0.0023
624.4396	-0.0037
624.6282	-0.0036
624.8167	0.0015
625.0053	0.0063
625.1938	0.0044
625.3823	-0.0003
625.5708	-0.0024
625.7593	-0.0025
625.9477	-0.0028
626.1362	-0.0045
626.3246	0.0034
626.513	0.0024
626.7014	-0.001
626.8898	-0.0017
627.0781	0
627.2665	-0.0011
627.4548	0.0102
627.6431	0.0037
627.8314	0.0049
628.0197	0.0047
628.2079	-0.0025
628.3962	-0.0031
628.5844	0.0053
628.7726	0.0103
628.9608	0.0066
629.1489	0.0001
629.3371	0.0012
629.5252	0.0014
629.7134	0.006
629.9015	-0.0032
630.0895	-0.001
630.2776	0.0098
630.4657	0.0013
630.6537	0.0015
630.8417	0.0007
631.0297	-0.0057
631.2177	-0.0002
631.4057	-0.0015
631.5936	-0.0039
631.7815	0.0037
631.9695	-0.0021
632.1574	0.0038
632.3452	0.0101
632.5331	0.001
632.7209	0.0024
632.9088	0.0116
633.0966	0.0114
633.2844	-0.0034
633.4722	-0.0018
633.6599	0.0036
633.8477	-0.0034
634.0354	-0.0026
634.2231	-0.0065
634.4108	0.0035
634.5985	-0.0007
634.7861	-0.0011
634.9738	-0.0058
635.1614	-0.0002
635.349	0.0053
635.5366	-0.0043
635.7242	0.0036
635.9117	0.0011
636.0993	0.0046
636.2868	0.0059
636.4743	-0.0031
636.6618	0.0083
636.8492	0.0014
637.0367	0.001
637.2241	-0.0062
637.4115	-0.0053
637.5989	-0.0027
637.7863	-0.0049
637.9737	-0.0083
638.161	-0.0048
638.3484	0.0026
638.5357	0.0031
638.723	-0.0029
638.9103	0.0019
639.0975	0.0102
639.2848	-0.0003
639.472	-0.0016
639.6592	-0.0042
639.8464	0.0064
640.0336	0.0078
640.2208	0.0014
640.4079	-0.0071
640.595	-0.0002
640.7821	-0.0037
640.9692	0.0043
641.1563	0.0019
641.3434	0.0009
641.5304	-0.0042
641.7174	-0.0018
641.9044	-0.0027
642.0914	0.0002
642.2784	-0.0014
642.4653	0.0089
642.6523	-0.0068
642.8392	-0.0013
643.0261	-0.0002
643.213	-0.0028
643.3999	-0.0022
643.5867	-0.0071
643.7735	0.0003
643.9604	-0.0043
644.1472	-0.0051
644.3339	0.0008
644.5207	0.0013
644.7075	-0.0042
644.8942	-0.002
645.0809	0.0034
645.2676	0.0096
645.4543	0.0001
645.6409	0.0005
645.8276	-0.0024
646.0142	0.0064
646.2008	-0.0176
646.3874	-0.0052
646.574	-0.0017
646.7605	-0.0016
646.9471	-0.009
647.1336	-0.0008
647.3201	0.0052
647.5066	-0.002
647.6931	0.0006
647.8795	-0.002
648.0659	0.004
648.2524	0.0063
648.4388	-0.007
648.6252	-0.0012
648.8115	-0.0001
648.9979	0.0019
649.1842	0.0006
649.3705	0.0037
649.5568	0.0038
649.7431	0.0071
649.9294	-0.0085
650.1156	0.003
650.3018	-0.0065
650.488	0.0061
650.6742	0.0012
650.8604	0.0003
651.0466	-0.0074
651.2327	-0.0056
651.4188	-0.001
651.6049	-0.0011
651.791	-0.0027
651.9771	-0.0023
652.1632	0.0049
652.3492	0.0022
652.5352	0.0002
652.7212	0.0025
652.9072	-0.0003
653.0932	-0.0021
653.2791	-0.0115
653.465	-0.001
653.651	-0.0109
653.8369	-0.0123
654.0227	-0.0119
654.2086	-0.0005
654.3944	-0.0019
654.5803	-0.0043
654.7661	-0.0059
654.9519	-0.0005
655.1377	-0.004
655.3234	-0.0077
655.5092	-0.0055
655.6949	-0.0068
655.8806	-0.0035
656.0663	-0.0025
656.2519	-0.0031
656.4376	-0.0064
656.6232	-0.0033
656.8088	-0.0039
656.9945	-0.0046
657.18	-0.0049
657.3656	-0.0041
657.5511	-0.0024
657.7367	-0.0047
657.9222	0.0004
658.1077	0.006
658.2932	0.0012
658.4786	-0.0088
658.6641	-0.0014
658.8495	-0.0015
659.0349	-0.0067
659.2203	0.0058
659.4057	-0.0052
659.591	0.0034
659.7764	-0.0102
659.9617	0.0033
660.147	-0.0018
660.3323	-0.0011
660.5176	0.0025
660.7028	0.0016
660.888	-0.0026
661.0733	-0.0051
661.2585	-0.0012
661.4436	-0.0018
661.6288	-0.0065
661.8139	-0.0084
661.9991	0.0069
662.1842	-0.0043
662.3693	0.0044
662.5544	-0.0069
662.7394	0.005
662.9245	-0.0043
663.1095	-0.0052
663.2945	-0.0008
663.4795	-0.0106
663.6644	0
663.8494	-0.0027
664.0343	0.0009
664.2193	-0.0148
664.4042	-0.0016
664.589	-0.0029
664.7739	-0.0052
664.9587	-0.0091
665.1436	-0.0014
665.3284	0.0002
665.5132	-0.0048
665.698	0.0041
665.8827	0.0051
666.0675	0.0028
666.2522	-0.0051
666.4369	0.0093
666.6216	0.0016
666.8063	0.0019
666.9909	0.0029
667.1756	-0.0021
667.3602	0.0036
667.5448	-0.0011
667.7294	-0.004
667.9139	0.0077
668.0985	0.0071
668.283	0.0034
668.4675	0.0019
668.652	0.0046
668.8365	-0.0022
669.0209	0.0095
669.2054	0.0031
669.3898	0.0006
669.5742	0.0056
669.7586	0.0076
669.943	0.0085
670.1273	0.0043
670.3117	0.0059
670.496	0.0039
670.6803	0.0125
670.8646	0.0086
671.0488	0.0028
671.2331	0.0037
671.4173	0.0049
671.6015	0.0001
671.7857	0.0051
671.9699	0.0059
672.1541	0.0056
672.3382	0
672.5223	0.011
672.7064	0.0029
672.8905	0.0022
673.0746	0.0079
673.2587	0.0009
673.4427	0.0008
673.6267	0.005
673.8107	0.0048
673.9947	-0.0003
674.1787	0.0031
674.3626	-0.0039
674.5465	0.0004
674.7304	-0.0005
674.9143	-0.0028
675.0982	0.0033
675.2821	-0.0106
675.4659	0.0097
675.6497	-0.0003
675.8335	-0.0024
676.0173	0.0077
676.2011	0.0019
676.3849	0.0036
676.5686	-0.003
676.7523	-0.0004
676.936	0.0096
677.1197	-0.0047
677.3034	-0.0105
677.487	0.0006
677.6706	-0.0042
677.8542	0.0031
678.0378	-0.0017
678.2214	0.0052
678.405	0.0062
678.5885	-0.0038
678.772	-0.0011
678.9555	-0.003
679.139	-0.0056
679.3225	-0.0011
679.5059	-0.0032
679.6894	0.0038
679.8728	0.0059
680.0562	-0.0121
680.2395	-0.0073
680.4229	-0.0055
680.6062	-0.0052
680.7896	-0.0019
680.9729	-0.0088
681.1562	-0.0018
681.3394	-0.0067
681.5227	-0.0101
681.7059	-0.009
681.8891	-0.0076
682.0723	0.0001
682.2555	-0.0073
682.4387	-0.0006
682.6218	-0.0064
682.805	0.0097
682.9881	0.0009
683.1712	-0.0072
683.3542	-0.0053
683.5373	-0.0007
683.7203	0.0005
683.9034	0.0016
684.0864	-0.0089
684.2694	-0.0012
684.4523	0.0024
684.6353	-0.0105
684.8182	-0.0074
685.0011	-0.0085
685.184	-0.0009
685.3669	-0.0025
685.5498	0.0118
685.7326	0.0042
685.9154	-0.0098
686.0982	0.0079
686.281	0.008
686.4638	0.0013
686.6465	0.0009
686.8293	0.0055
687.012	0.008
687.1947	-0.0027
687.3774	-0.0007
687.56	-0.0037
687.7427	0.0038
687.9253	-0.0044
688.1079	-0.0049
688.2905	0.0051
688.4731	-0.0017
688.6556	-0.003
688.8382	0.0018
689.0207	0.0035
689.2032	-0.0092
689.3857	-0.01
689.5681	-0.0042
689.7506	-0.006
689.933	-0.0094
690.1154	-0.0012
690.2978	0.003
690.4802	0.0009
690.6626	-0.0172
690.8449	-0.0042
691.0272	0.0027
691.2095	-0.0029
691.3918	-0.0035
691.5741	-0.001
691.7563	-0.0047
691.9386	-0.0007
692.1208	-0.0038
692.303	-0.0056
692.4852	-0.003
692.6673	0.004
692.8495	-0.0043
693.0316	-0.0022
693.2137	0.0008
693.3958	0.0009
693.5778	0.0047
693.7599	-0.0006
693.9419	-0.0012
694.1239	0.0083
694.3059	-0.0008
694.4879	0.0056
694.6699	0.0085
694.8518	0.0013
695.0337	-0.0018
695.2157	0.0062
695.3975	-0.0058
695.5794	0.0142
695.7613	-0.0001
695.9431	-0.001
696.1249	0.0017
696.3067	-0.003
696.4885	0.0036
696.6703	-0.0134
696.852	-0.0008
697.0337	-0.002
697.2154	-0.0046
697.3971	-0.0031
697.5788	-0.0044
697.7605	-0.0074
697.9421	-0.0027
698.1237	-0.0097
698.3053	-0.0051
698.4869	-0.0081
698.6685	-0.0112
698.85	-0.0055
699.0315	0.0023
699.213	-0.0055
699.3945	0.0055
699.576	0.0074
699.7575	0.0056
699.9389	0.0071
700.1203	0.0029
700.3017	-0.0009
700.4831	-0.0049
700.6645	0.0047
700.8458	0.0062
701.0271	0.0005
701.2084	0.008
701.3897	0.0036
701.571	-0.0008
701.7523	-0.0057
701.9335	-0.0003
702.1147	-0.0051
702.2959	0.001
702.4771	0.0004
702.6583	-0.0077
702.8394	-0.0091
703.0205	0.0011
703.2016	-0.0066
703.3827	0.0032
703.5638	0.0093
703.7449	0.0017
703.9259	0.0046
704.1069	0.0022
704.2879	-0.0022
704.4689	0.0019
704.6499	0.0008
704.8308	0.0021
705.0117	0.0024
705.1927	0.0048
705.3735	-0.0027
705.5544	-0.0001
705.7353	0.0066
705.9161	-0.0039
706.0969	-0.0082
706.2777	-0.0051
706.4585	0.0028
706.6393	-0.0003
706.82	0.0045
707.0007	0.0015
707.1815	-0.0029
707.3621	0.0045
707.5428	-0.0017
707.7235	0.0057
707.9041	0.0012
708.0847	-0.0061
708.2653	-0.0067
708.4459	-0.0155
708.6265	0.007
708.807	0.0004
708.9875	0.0039
709.168	-0.0034
709.3485	-0.0037
709.529	-0.0049
709.7095	-0.0114
709.8899	0.0016
710.0703	-0.0049
710.2507	-0.0019
710.4311	-0.0058
710.6115	-0.0121
710.7918	-0.0086
710.9721	0.0016
711.1524	-0.0089
711.3327	-0.0082
711.513	-0.0066
711.6932	-0.0012
711.8735	0.003
712.0537	-0.0015
712.2339	-0.0048
712.4141	-0.0131
712.5942	-0.006
712.7744	-0.0029
712.9545	-0.0127
713.1346	-0.0194
713.3147	-0.004
713.4947	-0.0207
713.6748	-0.0024
713.8548	-0.0073
714.0348	-0.0051
714.2148	-0.0056
714.3948	-0.0012
714.5748	-0.001
714.7547	-0.0063
714.9346	0.0011
715.1145	-0.0066
715.2944	-0.0068
715.4743	-0.0023
715.6541	-0.0067
715.834	0.0091
716.0138	-0.003
716.1936	-0.0188
716.3733	-0.007
716.5531	0.001
716.7328	-0.0003
716.9126	-0.0068
717.0923	-0.0013
717.2719	-0.0023
717.4516	0.0049
717.6312	0.0006
717.8109	-0.002
717.9905	0.0059
718.1701	0.0015
718.3496	-0.0094
718.5292	-0.0047
718.7087	0.0025
718.8882	-0.0069
719.0677	0.0038
719.2472	0.0001
719.4267	0.0026
719.6061	-0.0011
719.7856	0.005
719.965	0.0007
720.1443	-0.008
720.3237	0.0112
720.5031	0.0021
720.6824	0.0088
720.8617	0.0008
721.041	0.0066
721.2203	0.0072
721.3995	0.0024
721.5788	0.013
721.758	0.0062
721.9372	0.0019
722.1164	0.0055
722.2956	0.0021
722.4747	-0.0004
722.6538	0.0025
722.8329	0.0144
723.012	0.0025
723.1911	0.0031
723.3702	0.0016
723.5492	-0
723.7282	-0.0061
723.9072	-0.004
724.0862	-0.0029
724.2652	-0.0062
724.4441	-0.0023
724.623	-0.0037
724.8019	-0.002
724.9808	0.0019
725.1597	-0.0069
725.3385	0.0048
725.5174	-0.0012
725.6962	0.0074
725.875	-0.0026
726.0538	0.0025
726.2325	-0.003
726.4112	0.0015
726.59	0.0012
726.7687	0.002
726.9474	-0.0005
727.126	-0.0074
727.3047	-0.012
727.4833	-0.003
727.6619	-0.0088
727.8405	-0.0142
728.0191	-0.0052
728.1976	0.0004
728.3762	-0.005
728.5547	0.0019
728.7332	-0.0158
728.9116	0.0041
729.0901	-0.0006
729.2686	-0.0116
729.447	-0.0022
729.6254	-0.0043
729.8038	-0.0025
729.9821	-0.0161
730.1605	0.001
730.3388	-0.0042
730.5171	0.0016
730.6954	-0.009
730.8737	0.0069
731.0519	-0.0007
731.2302	0.0001
731.4084	0.0065
731.5866	-0.0013
731.7648	0.0019
731.9429	-0.0024
732.1211	-0.0088
732.2992	-0.0025
732.4773	-0.0085
732.6554	-0.0018
732.8335	0.0059
733.0115	-0.0018
733.1896	0.0083
733.3676	-0.01
733.5456	0.0018
733.7235	-0.0003
733.9015	-0.0027
734.0794	-0.0027
734.2574	-0.0046
734.4353	-0.0014
734.6131	0.0054
734.791	0.0004
734.9689	-0.0007
735.1467	0.0082
735.3245	-0.0119
735.5023	-0.0145
735.68	-0.0015
735.8578	0.0038
736.0355	-0.0244
736.2132	-0.0098
736.3909	-0.003
736.5686	-0.0144
736.7463	-0.0001
736.9239	-0.0118
737.1015	-0.0086
737.2791	0.0027
737.4567	-0.0034
737.6343	-0.0019
737.8118	-0.0092
737.9894	-0.002
738.1669	-0.0106
738.3444	-0.0093
738.5218	0.0029
738.6993	0.0003
738.8767	-0.0089
739.0541	-0.0001
739.2315	-0.0111
739.4089	0.0015
739.5863	0.0026
739.7636	-0.0139
739.9409	-0.0022
740.1182	0.0047
740.2955	0.009
740.4728	-0.0065
740.65	-0.0047
740.8272	-0.0058
741.0044	-0.0091
741.1816	-0.0042
741.3588	-0.0021
741.5359	-0.0065
741.7131	-0.012
741.8902	0.0035
742.0673	-0.0079
742.2444	-0.0109
742.4214	-0.0162
742.5985	-0.0123
742.7755	-0.0068
742.9525	-0.0142
743.1295	-0.013
743.3064	-0.0051
743.4834	-0.0012
743.6603	-0.0064
743.8372	-0.0062
744.0141	-0.0066
744.191	-0.0008
744.3678	-0.0022
744.5446	0.0022
744.7215	0.001
744.8982	-0.0045
745.075	-0.0132
745.2518	0.0011
745.4285	0.0082
745.6052	-0.0031
745.7819	-0.0023
745.9586	0.0034
746.1353	0.0034
746.3119	0.0024
746.4885	-0.0004
746.6651	-0.0042
746.8417	-0.003
747.0183	0.0001
747.1948	-0.0041
747.3714	0.0037
747.5479	0.0077
747.7244	0.0013
747.9008	0.0092
748.0773	-0.0021
748.2537	-0.0048
748.4301	-0.0129
748.6065	0.0063
748.7829	0.0051
748.9593	-0.0025
749.1356	-0.0056
749.3119	0.0076
749.4882	-0.0127
749.6645	0.0128
749.8408	-0.0034
750.017	-0.0069
750.1933	-0.0018
750.3695	-0.0053
750.5457	0.0072
750.7218	-0.0049
750.898	-0.0025
751.0741	0.003
751.2502	0.0076
751.4263	-0.005
751.6024	0.0022
751.7784	-0.0046
751.9545	0.0072
752.1305	-0.0014
752.3065	-0.0106
752.4825	0.0042
752.6584	-0.0132
752.8344	-0.0005
753.0103	-0.0051
753.1862	-0.0029
753.3621	-0.008
753.5379	-0.0044
753.7138	0.0014
753.8896	-0.0041
754.0654	0.0074
754.2412	0.004
754.417	-0.0052
754.5927	-0.0042
754.7685	-0.0009
754.9442	-0.0049
755.1199	-0.0007
755.2956	-0.0087
755.4712	0.0023
755.6469	0.0021
755.8225	-0.0114
755.9981	-0.0063
756.1736	0.0065
756.3492	0.0009
756.5248	-0.0052
756.7003	-0.0008
756.8758	0.0028
757.0513	-0.0015
757.2267	-0.0047
757.4022	0.0033
757.5776	-0.0007
757.753	0.0005
757.9284	0.0024
758.1038	0.0029
758.2791	0.0035
758.4545	-0.0118
758.6298	-0
758.8051	0.0003
758.9803	0.0095
759.1556	0.006
759.3308	0.0021
759.506	0.0159
759.6812	0.0134
759.8564	0.0162
760.0316	-0.0022
760.2067	0.01
760.3819	0.0044
760.557	0.0102
760.732	0.002
760.9071	-0.0154
761.0821	-0.0041
761.2572	0.002
761.4322	-0.0035
761.6072	-0.0031
761.7821	-0.018
761.9571	-0.0013
762.132	-0.0087
762.3069	-0.016
762.4818	-0.0081
762.6567	-0.0096
762.8316	-0.0095
763.0064	-0.0034
763.1812	-0.0131
763.356	-0.0125
763.5308	-0.0069
763.7055	0.0024
763.8803	-0.0065
764.055	0.0006
764.2297	-0.0078
764.4044	-0.0095
764.579	-0.0108
764.7537	-0.0251
764.9283	-0.0003
765.1029	-0.0104
765.2775	-0.0037
765.4521	-0.0114
765.6266	-0.0082
765.8011	-0.0114
765.9756	0.0121
766.1501	0.0092
766.3246	-0.0017
766.4991	-0.0079
766.6735	0.0069
766.8479	-0.0094
767.0223	0.0027
767.1967	-0.0085
767.371	0.0039
767.5454	0.0006
767.7197	0.0055
767.894	-0.0025
768.0683	-0.0111
768.2425	0.0074
768.4168	-0.0045
768.591	0.0111
768.7652	-0.0011
768.9394	0.0052
769.1135	-0.0088
769.2877	0.0101
769.4618	-0.0019
769.6359	0.0035
769.81	0.0007
769.984	-0.0093
770.1581	-0.0032
770.3321	0.0052
770.5061	0.0074
770.6801	-0.0024
770.8541	-0.0022
771.028	0.0029
771.202	-0.011
771.3759	0.0062
771.5498	-0.0035
771.7236	0.0019
771.8975	0.0089
772.0713	0.0067
772.2451	0.0064
772.4189	0.01
772.5927	0.0116
772.7665	-0.003
772.9402	-0.0016
773.1139	0.0093
773.2876	-0.0195
773.4613	0.0082
773.635	0.0052
773.8086	-0.0125
773.9822	0.0013
774.1558	0.0031
774.3294	-0.0203
774.503	0.0009
774.6765	0.0056
774.8501	0.0093
775.0236	0.0171
775.1971	0.0017
775.3705	-0.0132
775.544	0.0062
775.7174	-0.0012
775.8908	-0.0076
776.0642	-0.0059
776.2376	-0.009
776.4109	-0.0188
776.5843	0.001
776.7576	0.0019
776.9309	0.0093
777.1041	0.0088
777.2774	0.003
777.4506	0.0033
777.6238	-0.0142
777.797	-0.0044
777.9702	-0.0033
778.1434	-0.0027
778.3165	-0.0015
778.4896	-0.0023
778.6627	0.0083
778.8358	-0.0005
779.0089	-0.002
779.1819	-0.0005
779.3549	0.006
779.5279	0.008
779.7009	-0.0077
779.8739	0.0032
780.0468	-0.0007
780.2197	0.001
780.3926	-0.0089
780.5655	-0.0077
780.7384	-0.0115
780.9112	0.0043
781.0841	-0.012
781.2569	-0.004
781.4297	0.0065
781.6024	0.0052
781.7752	0.0005
781.9479	0.0124
782.1206	-0.006
782.2933	-0.0135
782.466	0.0133
782.6386	0.0101
782.8113	0.0023
782.9839	0.0018
783.1565	0.0098
783.329	0.001
783.5016	0.0067
783.6741	0.0084
783.8466	-0.0065
784.0191	0.0073
784.1916	-0.0005
784.3641	-0.0129
784.5365	-0.0001
784.7089	0.0025
784.8813	-0.0104
785.0537	-0
785.2261	-0.0064
785.3984	-0.0142
785.5707	-0.009
785.743	0.0025
785.9153	-0.0107
786.0876	-0.005
786.2598	-0.015
786.432	-0.0171
786.6042	0.0032
786.7764	-0.0125
786.9486	0.0061
787.1207	-0.0066
787.2928	0.0003
787.4649	-0.0031
787.637	0.0038
787.8091	-0.0078
787.9811	-0.0064
788.1532	-0.003
788.3252	0.0083
788.4972	-0.0193
788.6691	0.0006
788.8411	0.0034
789.013	-0.0112
789.1849	0.0052
789.3568	-0.0104
789.5287	0.0048
789.7005	-0.0026
789.8723	-0.0059
790.0442	0.0171
790.2159	0.0044
790.3877	0.0052
790.5595	-0.0089
790.7312	0.0024
790.9029	0.0001
791.0746	0.0054
791.2463	0.0005
791.4179	-0.0029
791.5896	-0.0129
791.7612	-0.0026
791.9328	0.0135
792.1044	-0.0031
792.2759	-0.0144
792.4474	-0.0078
792.619	0.0122
792.7905	0.0105
792.9619	0.0108
793.1334	0.0171
793.3048	-0.005
793.4762	0.0111
793.6476	0.0042
793.819	0.0001
793.9904	0.0067
794.1617	-0.0093
794.333	-0.0025
794.5043	-0.0103
794.6756	0.0087
794.8469	0.0056
795.0181	-0.0031
795.1893	-0.0017
795.3605	0.0027
795.5317	-0.0104
795.7029	-0.0093
795.874	-0.0002
796.0452	0.0078
796.2163	0.0012
796.3873	0.0128
796.5584	0.008
796.7294	-0.0039
796.9005	0.0127
797.0715	0.0125
797.2425	0.0005
797.4134	-0.0013
797.5844	0.0089
797.7553	-0.0015
797.9262	-0.0013
798.0971	-0.0173
798.2679	-0.0145
798.4388	-0.0079
798.6096	-0.0019
798.7804	0.0153
798.9512	-0.0072
799.122	0.0025
799.2927	0.0025
799.4635	0.0211
799.6342	-0.0242
799.8049	0.0104
799.9755	-0.0016
800.1462	0.0019
800.3168	0.0161
800.4874	-0.0033
800.658	0.017
800.8286	0.0078
800.9991	0.0107
801.1696	0.0021
801.3402	0.0101
801.5106	0.0059
801.6811	-0.0028
801.8516	0.0182
802.022	0.0039
802.1924	-0.0037
802.3628	0.0076
802.5332	0.0164
802.7035	0.0213
802.8739	-0.0049
803.0442	0.0015
803.2145	-0.0037
803.3847	-0.0114
803.555	0.0013
803.7252	-0.0141
803.8954	-0.0123
804.0656	-0.0069
804.2358	-0.005
804.4059	0.0112
804.5761	0.0144
804.7462	0.0106
804.9163	0.0052
805.0864	-0.0018
805.2564	-0.0189
805.4264	0.015
805.5965	-0.0045
805.7665	0.0211
805.9364	0.0054
806.1064	0.0386
806.2763	0.0069
806.4462	0.0202
806.6161	0.0083
806.786	0.0155
806.9559	0.0059
807.1257	-0.0037
807.2955	-0.0074
807.4653	-0.0084
807.6351	-0.0096
807.8048	-0.0091
807.9746	0.0076
808.1443	0.0076
808.314	-0.0012
808.4837	-0.0035
808.6533	-0.0007
808.8229	0.0279
808.9926	0.0135
809.1622	0.0173
809.3317	0.003
809.5013	-0.0035
809.6708	0.0222
809.8403	0.0199
810.0098	0.0071
810.1793	0.0149
810.3488	0.0043
810.5182	-0.0005
810.6876	0.0238
810.857	0.0081
811.0264	0.0325
811.1958	0.0106
811.3651	0.0262
811.5344	0.0096
811.7037	0.0141
811.873	0.0038
812.0422	0.0106
812.2115	-0.0014
812.3807	0.0151
812.5499	0.0013
812.7191	0.0161
812.8882	0.0034
813.0574	0.0083
813.2265	0.0143
813.3956	0.0176
813.5646	0.0206
813.7337	-0.0154
813.9027	0.0174
814.0718	0.0304
814.2407	0.0294
814.4097	-0.0039
814.5787	-0.0219
814.7476	0.0123
814.9165	0.0076
815.0854	-0.0085
815.2543	0.0096
815.4232	0.028
815.592	-0.0038
815.7608	0.0095
815.9296	0.0222
816.0984	0.0322
816.2671	0.0032
816.4359	0.003
816.6046	0.0152
816.7733	0.0114
816.942	0.0015
817.1106	0.0402
817.2793	-0.0084
817.4479	0.0043
817.6165	0.0165
817.785	0.027
817.9536	0.0215
818.1221	0.0022
818.2906	0.0067
818.4591	0.0122
818.6276	0.0134
818.7961	0.0189
818.9645	0.0238
819.1329	0.0132
819.3013	0.0165
819.4697	0.0362
819.638	0.0225
819.8064	0.0058
819.9747	-0.0004
820.143	-0.0057
820.3113	-0.0108
820.4795	0.0251
820.6477	0.0143
820.816	0.0042
820.9842	0.0146
821.1523	0.0018
821.3205	-0.0011
821.4886	-0.0058
821.6567	0.0021
821.8248	0.0249
821.9929	0.0097
822.1609	0.0172
822.329	0.0258
822.497	0.037
822.665	0.0189
822.833	0.0031
823.0009	0.006
823.1688	-0.0034
823.3367	0.0208
823.5046	0.0112
823.6725	0.0119
823.8404	0.0063
824.0082	0.0083
824.176	0.0051
824.3438	0.0174
824.5116	0.0093
824.6793	-0.0041
824.847	-0.005
825.0147	-0.0022
825.1824	0.0116
825.3501	0.0083
825.5177	0.0013
825.6854	-0.0103
825.853	0.0105
826.0206	-0.0358
826.1881	0.0207
826.3557	-0.0354
826.5232	-0.0112
826.6907	-0.0325
826.8582	-0
827.0257	-0.0212
827.1931	0.0004
827.3605	-0.0032
827.528	-0.007
827.6953	-0.0134
827.8627	0.0304
828.03	0.0637
828.1974	0.0109
828.3647	-0.0207
828.532	-0.0083
828.6992	-0.0035
828.8665	0.0126
829.0337	-0.0251
829.2009	-0.007
829.3681	0.0339
829.5352	0.0191
829.7024	-0.0306
829.8695	-0.035
830.0366	0.0248
830.2037	0.0176
830.3707	0.0181
830.5378	-0.026
830.7048	-0.006
830.8718	0.02
831.0388	-0.0197
831.2057	0.0151
831.3727	0.0218
831.5396	0.0022
831.7065	0.0151
831.8734	0.0425
832.0402	-0.0175
832.2071	-0.0023
832.3739	-0.0084
832.5407	0.0066
832.7075	0.0165
832.8742	-0.0139
833.041	-0.0371
833.2077	0.0055
833.3744	0.0077
833.541	-0.0137
833.7077	0.012
833.8743	0.0019
834.0409	0.018
834.2075	-0.0045
834.3741	-0.0199
834.5407	0.0076
834.7072	-0.0229
834.8737	-0.0252
835.0402	-0.0405
835.2067	0.0018
835.3731	0.0039
835.5395	0.0025
835.706	-0.0215
835.8723	-0.0072
836.0387	-0.0256
836.2051	-0.0035
836.3714	0.0096
836.5377	0.0104
836.704	-0.053
836.8703	0.0148
837.0365	-0.0001
837.2027	-0.0328
837.3689	0.0235
837.5351	-0.0001
837.7013	-0.0483
837.8674	-0.0449
838.0335	-0.0135
838.1997	-0.0382
838.3657	-0.0484
838.5318	-0.0323
838.6978	-0.0177
838.8639	0.0166
839.0299	-0.0211
839.1958	-0.0251
839.3618	0.0183
839.5277	-0.0234
839.6937	0.0024
839.8596	-0.017
840.0254	0.0134
840.1913	0.0361
840.3571	0.0519
840.523	-0.0031
840.6888	-0.0084
840.8545	-0.0405
841.0203	-0.0231
841.186	-0.0035
841.3517	-0.0185
841.5174	-0.007
841.6831	-0.0292
841.8488	0.0211
842.0144	0.0224
842.18	0.0162
842.3456	-0.0166
842.5112	-0.0351
842.6767	-0.0146
842.8422	-0.0086
843.0077	-0.0072
843.1732	0.0129
843.3387	-0.037
843.5042	-0.0116
843.6696	0.035
843.835	-0.0033
844.0004	0.0228
844.1657	0.0431
844.3311	-0.004
844.4964	-0.0589
844.6617	-0.0089
844.827	-0.0389
844.9923	-0.0125
845.1575	0.0307
845.3227	-0.0001
845.4879	-0.0156
845.6531	-0.0601
845.8183	-0.038
845.9834	-0.0529
846.1485	-0.0044
846.3136	-0.0163
846.4787	-0.0214
846.6438	-0.006
846.8088	-0.0721
846.9738	-0.052
847.1388	-0.0762
847.3038	-0.0419
847.4687	-0.2124
847.6337	-0.0502
847.7986	0.0344
847.9635	-0.0731
848.1284	-0.038
848.2932	0.0014
848.458	0.0465
848.6228	-0.0151
848.7876	0.0617
848.9524	-0.0685
849.1172	-0.0054
849.2819	-0.0098
849.4466	-0.132
849.6113	-0.0882
849.7759	0.0331
849.9406	-0.0219
850.1052	0.0195
850.2698	-0.0485
850.4344	0.0346
850.599	-0.033
850.7635	0.0369
850.928	-0.0064
851.0925	-0.0208
851.257	0.0446
851.4215	0.0121
851.5859	-0.0479
851.7503	0.0624
851.9147	-0.0439
852.0791	-0.1166
852.2434	-0.04
852.4078	0.0065
852.5721	0.0351
852.7364	-0.0714
852.9007	-0.2857
853.0649	-0.0902
853.2291	-0.0562
853.3934	-0.1425
853.5575	-0.0126
853.7217	-0.0807
853.8859	-0.1537
854.05	-0.0406
854.2141	-0.1037
854.3782	-0.1458
854.5423	-0.1334
854.7063	0.0285
854.8703	-0.0057
855.0343	-0.1033
855.1983	-0.2358
855.3623	0.0355
855.5262	-0.032
855.6901	-0.0698
855.854	-0.0084
856.0179	0.0272
856.1818	0.1235
856.3456	-0.1077
856.5094	-0.1513
856.6732	-0.0004
856.837	-0.1204
857.0008	0.0319
857.1645	-0.0976
857.3282	-0.2196
857.4919	-0.0597
857.6556	0.0754
857.8192	-0.0528
857.9828	-0.1313
858.1465	0.0321
858.31	-0.2766
858.4736	-0.1066
858.6372	-0.2525
858.8007	-0.1483
858.9642	-0.1262
859.1277	-0.2412
859.2911	0.0432
859.4546	-0.017
859.618	-0.263
859.7814	-0.0909
859.9448	-0.0337
860.1081	0.1494
860.2715	0.1629
860.4348	-0.1409
860.5981	0.014
860.7614	0.1833
860.9246	-0.2602
861.0879	-0.2523
861.2511	0.1234
861.4143	-0.4508
861.5774	0.2759
861.7406	-0.1689
861.9037	-0.1088
862.0668	-0.2123
862.2299	-0.1614
862.393	-0.3186
862.556	-0.0693
862.7191	-0.3995
862.8821	-0.31
863.0451	0.0106
863.208	-0.0045
863.371	-0.1835
863.5339	-0.2524
863.6968	-0.0728
863.8597	-0.0337
864.0225	-0.1324
864.1854	-0.1577
864.3482	0.0922
864.511	-0.0499
864.6737	-0.189
864.8365	0.0069
864.9992	-0.2738
865.1619	0.224
865.3246	0.4688
865.4873	0.0987
865.65	-0.4382
865.8126	0.0154
865.9752	0.0828
866.1378	-0.2629
866.3004	0.5772
866.4629	0.1871
866.6254	0.2706
866.7879	0.444
866.9504	0.6063
867.1129	-0
867.2753	0.2224
867.4377	-0.0413
867.6001	-0.3387
867.7625	0.0065
867.9249	-0.8224
868.0872	-0.0497
868.2495	-0.0065
868.4118	0.065
868.5741	-0.3502
868.7363	-0.3818
868.8986	-0.2069
869.0608	-0.3245
869.223	-0.0475
869.3851	-0
869.5473	-0
869.7094	0.0474
869.8715	-0.7913
870.0336	-0.745
870.1957	-0.9235
870.3577	-0
870.5197	-0.1931
870.6817	-0.5999
870.8437	0.0269
871.0057	-0
871.1676	-0.5755
871.3295	-0.1917
871.4914	-0
871.6533	-0.4582
871.8151	-0.4373
871.977	-0
872.1388	-0
872.3006	-0
872.4623	-0
872.6241	-0.2416
872.7858	0.1051
872.9475	0.3669
873.1092	-0.4713
873.2709	-0
873.4325	-0.1374
873.5941	-0.3368
873.7557	-0
873.9173	0.4546
874.0789	-0.3368
874.2404	-0.2669
874.4019	0.7809
874.5634	-0.3868
874.7249	-0.1852
874.8863	-0.2475
875.0478	0.2865
875.2092	-0
875.3706	0.0625
875.5319	-0.5712
875.6933	0.1613
875.8546	-0.0448
876.0159	0.4681
876.1772	-0
876.3385	-0
876.4997	0.126
876.6609	-0.646
876.8221	-0
876.9833	-0
877.1445	-0
877.3056	-0.1368
877.4667	-0.2007
877.6278	-0
877.7889	-0.7302
877.9499	-0
878.111	-0.6141
878.272	-0
878.433	-0
878.5939	-0
878.7549	0.1229
878.9158	0.6163
879.0767	-0
879.2376	0.7296
879.3984	-0.4007
879.5593	-0
879.7201	-0.1918
879.8809	-0.3951
880.0417	-0.3784
880.2024	-0.2549
880.3632	-1.1303
880.5239	-0.0129
880.6846	0.1672
880.8452	-2.7088
881.0059	-0
881.1665	0.1435
881.3271	-0
881.4877	-0.5146
881.6483	-0.6951
881.8088	-0.521
881.9693	-0
882.1298	-0
882.2903	-0
