Data from MonoPyChalIsomerACN10uM400nmA_Absorbance_12-08-44-728.txt Node
Date: Fri Jul 05 12:08:44 BST 2024
User: LASERRRRR
Spectrometer: FLMT03099
Trigger mode: 0
Integration Time (sec): 1.000000E-1
Scans to average: 1
Electric dark correction enabled: true
Nonlinearity correction enabled: false
Boxcar width: 0
XAxis mode: Wavelengths
Number of Pixels in Spectrum: 3648
>>>>>Begin Spectral Data<<<<<
179.3399	-0.0767
179.5586	-0.0767
179.7771	-0.0767
179.9957	0.8826
180.2143	-0
180.4329	-0
180.6514	-0.7176
180.8699	0.3942
181.0885	-0.0839
181.307	0.2665
181.5255	-0.8511
181.744	0.7972
181.9625	-0.846
182.181	-0.0666
182.3994	-0.4436
182.6179	-0.4509
182.8363	0.0414
183.0547	0.2487
183.2732	0.2137
183.4916	0.1645
183.71	0.0543
183.9284	0.1914
184.1467	-0.1177
184.3651	0.1266
184.5835	0.1852
184.8018	0.2606
185.0201	0.2111
185.2385	0.232
185.4568	0.1869
185.6751	0.1722
185.8934	0.1683
186.1117	-0.0108
186.3299	0.1538
186.5482	-0.0127
186.7664	0.212
186.9847	0.5571
187.2029	0.0596
187.4211	-0.2629
187.6393	-0.0679
187.8575	0.3122
188.0757	0.132
188.2939	-0.0313
188.512	0.1293
188.7302	-0.0224
188.9483	0.0491
189.1665	0.047
189.3846	0.0366
189.6027	0.2891
189.8208	-0.0049
190.0389	0.304
190.257	0.0879
190.475	0.3458
190.6931	0.1369
190.9111	0.5196
191.1292	0.2198
191.3472	0.4607
191.5652	0.2472
191.7832	0.7502
192.0012	0.4773
192.2192	0.4224
192.4371	0.2465
192.6551	0.3677
192.873	0.3818
193.091	0.3813
193.3089	0.3682
193.5268	0.6019
193.7447	0.6663
193.9626	0.64
194.1805	0.649
194.3984	0.3953
194.6162	0.5087
194.8341	0.5508
195.0519	0.6336
195.2697	0.7078
195.4875	0.632
195.7054	0.681
195.9231	0.6185
196.1409	0.3667
196.3587	0.6082
196.5765	0.5441
196.7942	0.8416
197.012	0.9118
197.2297	0.8297
197.4474	0.7761
197.6651	0.6647
197.8828	0.9005
198.1005	0.6416
198.3182	0.7497
198.5358	0.7311
198.7535	0.7318
198.9711	0.5437
199.1888	0.6013
199.4064	0.7794
199.624	0.7504
199.8416	0.7369
200.0592	0.7443
200.2767	0.7636
200.4943	0.667
200.7119	0.6201
200.9294	0.6047
201.1469	0.9871
201.3645	0.7231
201.582	0.719
201.7995	0.9019
202.017	0.7195
202.2344	0.6232
202.4519	0.8624
202.6694	0.8753
202.8868	0.7306
203.1042	0.6289
203.3217	0.8552
203.5391	0.888
203.7565	0.8346
203.9739	0.6454
204.1913	0.9221
204.4086	0.8157
204.626	0.8585
204.8433	0.855
205.0607	0.751
205.278	0.7218
205.4953	0.6378
205.7126	0.72
205.9299	0.8087
206.1472	0.6879
206.3644	0.6337
206.5817	0.6949
206.7989	0.6726
207.0162	0.6897
207.2334	0.8424
207.4506	0.7702
207.6678	0.8602
207.885	0.685
208.1022	0.7344
208.3194	0.8234
208.5365	0.7879
208.7537	0.7578
208.9708	0.7587
209.1879	0.8391
209.405	0.7089
209.6222	0.7619
209.8392	0.7153
210.0563	0.7608
210.2734	0.7574
210.4905	0.8241
210.7075	0.9057
210.9245	0.7311
211.1416	0.7421
211.3586	0.9128
211.5756	0.7486
211.7926	0.7654
212.0096	0.7579
212.2265	0.7404
212.4435	0.7374
212.6604	0.8184
212.8774	0.8103
213.0943	0.7399
213.3112	0.7174
213.5281	0.6284
213.745	0.7488
213.9619	0.6949
214.1788	0.6935
214.3956	0.6929
214.6125	0.6917
214.8293	0.7131
215.0461	0.6662
215.2629	0.6685
215.4798	0.6201
215.6965	0.6834
215.9133	0.6622
216.1301	0.6291
216.3469	0.6574
216.5636	0.6272
216.7803	0.6145
216.9971	0.6093
217.2138	0.6178
217.4305	0.6333
217.6472	0.6247
217.8639	0.5844
218.0805	0.6202
218.2972	0.553
218.5138	0.5625
218.7305	0.5672
218.9471	0.5851
219.1637	0.5981
219.3803	0.4889
219.5969	0.5289
219.8135	0.5776
220.0301	0.5384
220.2466	0.5459
220.4632	0.5455
220.6797	0.5607
220.8962	0.5592
221.1127	0.573
221.3292	0.537
221.5457	0.571
221.7622	0.5572
221.9787	0.52
222.1951	0.5669
222.4116	0.5239
222.628	0.5591
222.8444	0.5541
223.0608	0.5496
223.2772	0.5291
223.4936	0.5734
223.71	0.5762
223.9264	0.5189
224.1427	0.5692
224.3591	0.5775
224.5754	0.5268
224.7917	0.5308
225.008	0.5819
225.2243	0.527
225.4406	0.5485
225.6569	0.5582
225.8732	0.5637
226.0894	0.5582
226.3057	0.5464
226.5219	0.5322
226.7381	0.577
226.9543	0.5781
227.1705	0.615
227.3867	0.5825
227.6029	0.5517
227.8191	0.54
228.0352	0.5542
228.2513	0.5539
228.4675	0.5825
228.6836	0.5692
228.8997	0.5708
229.1158	0.5639
229.3319	0.566
229.548	0.5693
229.764	0.5817
229.9801	0.5762
230.1961	0.5958
230.4121	0.5997
230.6282	0.5796
230.8442	0.5679
231.0602	0.5547
231.2761	0.5409
231.4921	0.5892
231.7081	0.5655
231.924	0.5644
232.14	0.5536
232.3559	0.5638
232.5718	0.5687
232.7877	0.5628
233.0036	0.5821
233.2195	0.5642
233.4353	0.5928
233.6512	0.5829
233.867	0.5647
234.0829	0.5782
234.2987	0.5914
234.5145	0.5398
234.7303	0.5662
234.9461	0.5769
235.1619	0.5532
235.3776	0.5912
235.5934	0.5521
235.8091	0.5699
236.0249	0.5311
236.2406	0.5603
236.4563	0.5554
236.672	0.5672
236.8877	0.5597
237.1034	0.5425
237.319	0.5349
237.5347	0.5606
237.7503	0.5332
237.966	0.5396
238.1816	0.559
238.3972	0.5704
238.6128	0.5535
238.8284	0.5518
239.0439	0.5712
239.2595	0.5535
239.475	0.5535
239.6906	0.5386
239.9061	0.5267
240.1216	0.5216
240.3371	0.5488
240.5526	0.5095
240.7681	0.5264
240.9836	0.5444
241.199	0.4893
241.4145	0.4955
241.6299	0.4801
241.8453	0.4905
242.0607	0.4974
242.2761	0.4693
242.4915	0.4594
242.7069	0.4709
242.9223	0.4698
243.1376	0.4573
243.353	0.4437
243.5683	0.4399
243.7836	0.4286
243.9989	0.4358
244.2142	0.4266
244.4295	0.3838
244.6448	0.3985
244.86	0.3909
245.0753	0.3947
245.2905	0.3734
245.5057	0.3745
245.721	0.3722
245.9362	0.3603
246.1514	0.3446
246.3665	0.332
246.5817	0.3356
246.7969	0.3159
247.012	0.3391
247.2271	0.3459
247.4423	0.3143
247.6574	0.3074
247.8725	0.3019
248.0876	0.3101
248.3026	0.2958
248.5177	0.3
248.7328	0.2883
248.9478	0.2749
249.1628	0.26
249.3779	0.2587
249.5929	0.2849
249.8079	0.2624
250.0228	0.2639
250.2378	0.2638
250.4528	0.2501
250.6677	0.2343
250.8827	0.2415
251.0976	0.234
251.3125	0.2361
251.5274	0.2366
251.7423	0.2268
251.9572	0.2252
252.172	0.2233
252.3869	0.2188
252.6017	0.2302
252.8166	0.2109
253.0314	0.225
253.2462	0.2199
253.461	0.2163
253.6758	0.2197
253.8906	0.2168
254.1053	0.2198
254.3201	0.2167
254.5348	0.211
254.7496	0.2066
254.9643	0.2138
255.179	0.189
255.3937	0.1958
255.6083	0.2072
255.823	0.185
256.0377	0.1871
256.2523	0.199
256.467	0.1958
256.6816	0.1899
256.8962	0.1883
257.1108	0.1994
257.3254	0.1936
257.54	0.1976
257.7545	0.2007
257.9691	0.2065
258.1836	0.1942
258.3981	0.1844
258.6127	0.1899
258.8272	0.1994
259.0417	0.1848
259.2561	0.181
259.4706	0.1846
259.6851	0.19
259.8995	0.1897
260.114	0.1903
260.3284	0.1828
260.5428	0.1838
260.7572	0.1983
260.9716	0.1963
261.186	0.1989
261.4003	0.1811
261.6147	0.1945
261.829	0.1962
262.0433	0.177
262.2577	0.1796
262.472	0.1867
262.6863	0.1858
262.9005	0.1862
263.1148	0.1801
263.3291	0.1795
263.5433	0.1778
263.7576	0.1825
263.9718	0.1795
264.186	0.1828
264.4002	0.195
264.6144	0.1995
264.8286	0.1923
265.0427	0.1878
265.2569	0.1945
265.471	0.1753
265.6851	0.185
265.8993	0.188
266.1134	0.164
266.3275	0.1906
266.5415	0.1869
266.7556	0.1997
266.9697	0.1964
267.1837	0.1933
267.3978	0.1842
267.6118	0.2006
267.8258	0.2109
268.0398	0.2023
268.2538	0.2002
268.4677	0.1946
268.6817	0.1901
268.8957	0.1906
269.1096	0.1848
269.3235	0.1859
269.5374	0.1803
269.7514	0.171
269.9652	0.1803
270.1791	0.1904
270.393	0.1874
270.6068	0.1838
270.8207	0.1879
271.0345	0.1713
271.2483	0.1936
271.4622	0.1954
271.676	0.1735
271.8897	0.1818
272.1035	0.1973
272.3173	0.1761
272.531	0.1689
272.7448	0.1801
272.9585	0.1805
273.1722	0.1893
273.3859	0.1916
273.5996	0.1856
273.8133	0.1793
274.0269	0.1918
274.2406	0.176
274.4542	0.1756
274.6679	0.1871
274.8815	0.1797
275.0951	0.1971
275.3087	0.1747
275.5223	0.1753
275.7358	0.19
275.9494	0.1776
276.1629	0.1833
276.3765	0.1776
276.59	0.1793
276.8035	0.1772
277.017	0.1774
277.2305	0.1915
277.444	0.177
277.6574	0.1856
277.8709	0.1719
278.0843	0.1837
278.2978	0.1791
278.5112	0.1914
278.7246	0.1943
278.938	0.1817
279.1513	0.1925
279.3647	0.1884
279.5781	0.1948
279.7914	0.1931
280.0047	0.1942
280.2181	0.1827
280.4314	0.1863
280.6447	0.1895
280.8579	0.1824
281.0712	0.1941
281.2845	0.1849
281.4977	0.189
281.711	0.1818
281.9242	0.1882
282.1374	0.1867
282.3506	0.1758
282.5638	0.1888
282.7769	0.1839
282.9901	0.1918
283.2033	0.1951
283.4164	0.1798
283.6295	0.1807
283.8426	0.1776
284.0557	0.1906
284.2688	0.1773
284.4819	0.1837
284.695	0.1924
284.908	0.1936
285.1211	0.1855
285.3341	0.1831
285.5471	0.2025
285.7601	0.1905
285.9731	0.1914
286.1861	0.1886
286.3991	0.1772
286.612	0.1889
286.825	0.1912
287.0379	0.1899
287.2508	0.1778
287.4637	0.1878
287.6766	0.1692
287.8895	0.1733
288.1024	0.1928
288.3152	0.1926
288.5281	0.1826
288.7409	0.1764
288.9538	0.1817
289.1666	0.1811
289.3794	0.1769
289.5922	0.1781
289.8049	0.1816
290.0177	0.1723
290.2304	0.1858
290.4432	0.177
290.6559	0.1876
290.8686	0.1873
291.0813	0.1729
291.294	0.1814
291.5067	0.1834
291.7194	0.184
291.932	0.1805
292.1447	0.194
292.3573	0.1844
292.5699	0.194
292.7825	0.1699
292.9951	0.1917
293.2077	0.1857
293.4203	0.1748
293.6328	0.1854
293.8454	0.1706
294.0579	0.1863
294.2704	0.161
294.4829	0.1821
294.6954	0.186
294.9079	0.1714
295.1204	0.1811
295.3328	0.1688
295.5453	0.1739
295.7577	0.1639
295.9701	0.1676
296.1825	0.1678
296.3949	0.1775
296.6073	0.1642
296.8197	0.1763
297.0321	0.1714
297.2444	0.179
297.4567	0.16
297.6691	0.1661
297.8814	0.1763
298.0937	0.1669
298.306	0.1652
298.5182	0.1738
298.7305	0.1816
298.9428	0.1747
299.155	0.1733
299.3672	0.1553
299.5794	0.1727
299.7916	0.1557
300.0038	0.1628
300.216	0.1753
300.4282	0.1715
300.6403	0.1766
300.8525	0.1748
301.0646	0.1787
301.2767	0.1738
301.4888	0.1757
301.7009	0.1671
301.913	0.1734
302.125	0.163
302.3371	0.1766
302.5491	0.1647
302.7612	0.1669
302.9732	0.1594
303.1852	0.1717
303.3972	0.1683
303.6092	0.1649
303.8211	0.1677
304.0331	0.1505
304.245	0.1598
304.457	0.1713
304.6689	0.1576
304.8808	0.1668
305.0927	0.163
305.3046	0.1597
305.5164	0.1565
305.7283	0.1651
305.9401	0.1626
306.152	0.1563
306.3638	0.1584
306.5756	0.1566
306.7874	0.1531
306.9992	0.1422
307.2109	0.1507
307.4227	0.1522
307.6344	0.1411
307.8462	0.1285
308.0579	0.1354
308.2696	0.1457
308.4813	0.1324
308.693	0.1448
308.9046	0.1337
309.1163	0.1303
309.328	0.1335
309.5396	0.1364
309.7512	0.1322
309.9628	0.1396
310.1744	0.1288
310.386	0.1266
310.5976	0.1286
310.8091	0.1211
311.0207	0.125
311.2322	0.1178
311.4437	0.1291
311.6552	0.132
311.8667	0.1163
312.0782	0.1229
312.2897	0.108
312.5012	0.1095
312.7126	0.123
312.924	0.1134
313.1355	0.1279
313.3469	0.1126
313.5583	0.1046
313.7696	0.1117
313.981	0.1145
314.1924	0.1138
314.4037	0.1125
314.6151	0.1102
314.8264	0.1171
315.0377	0.1109
315.249	0.1187
315.4603	0.1133
315.6716	0.1134
315.8828	0.1081
316.0941	0.0951
316.3053	0.1007
316.5165	0.109
316.7277	0.107
316.9389	0.1212
317.1501	0.1084
317.3613	0.1002
317.5724	0.1085
317.7836	0.0964
317.9947	0.1109
318.2058	0.1101
318.417	0.1173
318.6281	0.1044
318.8391	0.106
319.0502	0.1005
319.2613	0.1049
319.4723	0.1073
319.6834	0.1062
319.8944	0.1078
320.1054	0.1011
320.3164	0.1146
320.5274	0.0955
320.7383	0.11
320.9493	0.1075
321.1602	0.1165
321.3712	0.0999
321.5821	0.11
321.793	0.1212
322.0039	0.1022
322.2148	0.1085
322.4257	0.1003
322.6365	0.1187
322.8474	0.0983
323.0582	0.11
323.269	0.121
323.4798	0.1156
323.6906	0.1026
323.9014	0.1096
324.1122	0.1112
324.3229	0.1169
324.5337	0.1248
324.7444	0.1167
324.9551	0.1135
325.1658	0.1178
325.3765	0.1107
325.5872	0.1152
325.7979	0.1157
326.0085	0.1124
326.2192	0.1106
326.4298	0.1182
326.6404	0.1158
326.851	0.1114
327.0616	0.1121
327.2722	0.1176
327.4828	0.1222
327.6933	0.1202
327.9039	0.1067
328.1144	0.1081
328.3249	0.0994
328.5354	0.1096
328.7459	0.1066
328.9564	0.1089
329.1669	0.1249
329.3773	0.1225
329.5878	0.1049
329.7982	0.1216
330.0086	0.1277
330.219	0.1104
330.4294	0.1166
330.6398	0.1127
330.8502	0.1292
331.0605	0.1257
331.2708	0.1066
331.4812	0.1056
331.6915	0.1177
331.9018	0.1183
332.1121	0.1106
332.3224	0.1192
332.5326	0.1141
332.7429	0.1096
332.9531	0.1188
333.1633	0.1185
333.3735	0.1187
333.5837	0.119
333.7939	0.1067
334.0041	0.1308
334.2143	0.1178
334.4244	0.1253
334.6346	0.1066
334.8447	0.1208
335.0548	0.1192
335.2649	0.1197
335.475	0.1155
335.685	0.1063
335.8951	0.1201
336.1051	0.1229
336.3152	0.1161
336.5252	0.1227
336.7352	0.1281
336.9452	0.121
337.1552	0.1309
337.3652	0.1287
337.5751	0.1197
337.7851	0.1205
337.995	0.1258
338.2049	0.1122
338.4148	0.1292
338.6247	0.114
338.8346	0.1335
339.0445	0.1187
339.2543	0.1234
339.4642	0.132
339.674	0.1273
339.8838	0.1183
340.0936	0.1274
340.3034	0.1286
340.5132	0.1186
340.7229	0.1255
340.9327	0.1123
341.1424	0.1265
341.3522	0.1108
341.5619	0.1174
341.7716	0.1367
341.9813	0.1273
342.1909	0.1274
342.4006	0.1265
342.6102	0.1234
342.8199	0.1234
343.0295	0.1308
343.2391	0.1175
343.4487	0.123
343.6583	0.1213
343.8679	0.1352
344.0774	0.1315
344.287	0.1336
344.4965	0.147
344.706	0.1337
344.9155	0.1252
345.125	0.1345
345.3345	0.1384
345.544	0.1486
345.7534	0.1338
345.9629	0.1245
346.1723	0.1305
346.3817	0.1366
346.5911	0.1485
346.8005	0.1455
347.0099	0.135
347.2193	0.1366
347.4286	0.1425
347.638	0.1253
347.8473	0.1352
348.0566	0.1461
348.2659	0.1406
348.4752	0.1363
348.6845	0.1404
348.8937	0.145
349.103	0.1307
349.3122	0.1397
349.5214	0.145
349.7306	0.1437
349.9398	0.1546
350.149	0.1534
350.3582	0.1487
350.5674	0.1415
350.7765	0.1371
350.9856	0.1488
351.1948	0.1393
351.4039	0.1521
351.613	0.141
351.822	0.1517
352.0311	0.1378
352.2402	0.1513
352.4492	0.1423
352.6582	0.1437
352.8672	0.1388
353.0762	0.1587
353.2852	0.1558
353.4942	0.1459
353.7032	0.1498
353.9121	0.1398
354.1211	0.1442
354.33	0.1565
354.5389	0.1566
354.7478	0.1606
354.9567	0.168
355.1655	0.1449
355.3744	0.1502
355.5833	0.1709
355.7921	0.1569
356.0009	0.1594
356.2097	0.1451
356.4185	0.1458
356.6273	0.1563
356.8361	0.1606
357.0448	0.149
357.2536	0.1459
357.4623	0.1684
357.671	0.1554
357.8797	0.1646
358.0884	0.161
358.2971	0.154
358.5057	0.1625
358.7144	0.165
358.923	0.1531
359.1316	0.1693
359.3402	0.1771
359.5488	0.1725
359.7574	0.1734
359.966	0.1647
360.1746	0.1703
360.3831	0.1707
360.5916	0.1879
360.8002	0.1797
361.0087	0.186
361.2172	0.1633
361.4256	0.1794
361.6341	0.1844
361.8426	0.1696
362.051	0.171
362.2594	0.1823
362.4678	0.179
362.6762	0.1655
362.8846	0.1789
363.093	0.1696
363.3014	0.1816
363.5097	0.1827
363.718	0.1894
363.9264	0.1854
364.1347	0.1701
364.343	0.1882
364.5513	0.1959
364.7595	0.193
364.9678	0.1897
365.176	0.2021
365.3842	0.1928
365.5925	0.1772
365.8007	0.1885
366.0089	0.1792
366.217	0.1802
366.4252	0.1718
366.6333	0.1893
366.8415	0.2061
367.0496	0.1841
367.2577	0.2153
367.4658	0.2097
367.6739	0.1997
367.882	0.2002
368.09	0.2222
368.2981	0.2004
368.5061	0.1897
368.7141	0.2005
368.9221	0.1863
369.1301	0.1871
369.3381	0.2083
369.5461	0.2055
369.754	0.1852
369.962	0.2091
370.1699	0.1953
370.3778	0.1994
370.5857	0.2122
370.7936	0.2041
371.0015	0.2049
371.2093	0.2178
371.4172	0.2032
371.625	0.1929
371.8328	0.2131
372.0406	0.2095
372.2484	0.2038
372.4562	0.2154
372.664	0.2014
372.8717	0.1969
373.0795	0.2154
373.2872	0.2146
373.4949	0.2105
373.7026	0.2186
373.9103	0.2109
374.118	0.1986
374.3256	0.2032
374.5333	0.2062
374.7409	0.2081
374.9485	0.2086
375.1561	0.2163
375.3637	0.2123
375.5713	0.2251
375.7789	0.2168
375.9864	0.2004
376.194	0.2102
376.4015	0.2222
376.609	0.2023
376.8165	0.2159
377.024	0.2084
377.2315	0.2194
377.4389	0.2249
377.6464	0.2103
377.8538	0.2114
378.0612	0.2252
378.2686	0.2201
378.476	0.2177
378.6834	0.2414
378.8908	0.2167
379.0981	0.2367
379.3055	0.2247
379.5128	0.2282
379.7201	0.2212
379.9274	0.226
380.1347	0.216
380.342	0.2286
380.5492	0.2202
380.7565	0.2453
380.9637	0.2486
381.1709	0.2178
381.3781	0.2294
381.5853	0.2409
381.7925	0.2315
381.9997	0.2217
382.2068	0.2288
382.4139	0.2249
382.6211	0.232
382.8282	0.2249
383.0353	0.2241
383.2424	0.2431
383.4494	0.2209
383.6565	0.245
383.8635	0.2275
384.0706	0.2333
384.2776	0.2417
384.4846	0.2245
384.6916	0.2462
384.8986	0.2355
385.1055	0.2061
385.3125	0.2305
385.5194	0.2121
385.7263	0.2391
385.9333	0.2138
386.1402	0.2324
386.347	0.2233
386.5539	0.2281
386.7608	0.2218
386.9676	0.2309
387.1744	0.2369
387.3813	0.2205
387.5881	0.2368
387.7948	0.2295
388.0016	0.2204
388.2084	0.219
388.4151	0.2255
388.6219	0.2416
388.8286	0.2237
389.0353	0.2328
389.242	0.2308
389.4487	0.2372
389.6553	0.2171
389.862	0.2388
390.0686	0.2256
390.2753	0.2071
390.4819	0.2175
390.6885	0.2244
390.8951	0.205
391.1016	0.2305
391.3082	0.2292
391.5147	0.207
391.7213	0.2079
391.9278	0.2086
392.1343	0.2072
392.3408	0.2151
392.5473	0.2104
392.7537	0.2019
392.9602	0.2219
393.1666	0.2166
393.373	0.1897
393.5794	0.2019
393.7858	0.1851
393.9922	0.2215
394.1986	0.2179
394.4049	0.2127
394.6113	0.1952
394.8176	0.1916
395.0239	0.2021
395.2302	0.1672
395.4365	0.2046
395.6428	0.2104
395.8491	0.1847
396.0553	0.2035
396.2615	0.1914
396.4678	0.196
396.674	0.1934
396.8802	0.1951
397.0863	0.2054
397.2925	0.1782
397.4987	0.1957
397.7048	0.1836
397.9109	0.2004
398.117	0.1944
398.3231	0.2018
398.5292	0.1954
398.7353	0.2048
398.9413	0.1868
399.1474	0.1841
399.3534	0.186
399.5594	0.2005
399.7654	0.1852
399.9714	0.18
400.1774	0.1833
400.3833	0.1867
400.5893	0.169
400.7952	0.1913
401.0011	0.1917
401.207	0.1806
401.4129	0.1876
401.6188	0.1953
401.8247	0.1842
402.0305	0.1919
402.2364	0.1929
402.4422	0.2039
402.648	0.1903
402.8538	0.2019
403.0596	0.1863
403.2654	0.1893
403.4711	0.1981
403.6768	0.1816
403.8826	0.1953
404.0883	0.1761
404.294	0.1744
404.4997	0.1634
404.7054	0.1732
404.911	0.1908
405.1167	0.1775
405.3223	0.1975
405.5279	0.1968
405.7335	0.2046
405.9391	0.1901
406.1447	0.1932
406.3502	0.1969
406.5558	0.2013
406.7613	0.2162
406.9668	0.187
407.1724	0.1853
407.3778	0.184
407.5833	0.1835
407.7888	0.2003
407.9942	0.1889
408.1997	0.1991
408.4051	0.1943
408.6105	0.1832
408.8159	0.189
409.0213	0.18
409.2267	0.1725
409.432	0.2019
409.6374	0.1859
409.8427	0.1871
410.048	0.1952
410.2533	0.1782
410.4586	0.1654
410.6639	0.192
410.8691	0.1796
411.0744	0.1831
411.2796	0.175
411.4848	0.1961
411.69	0.1829
411.8952	0.1878
412.1004	0.1689
412.3056	0.1849
412.5107	0.179
412.7158	0.1691
412.921	0.1871
413.1261	0.1957
413.3312	0.1629
413.5362	0.1733
413.7413	0.1764
413.9464	0.1874
414.1514	0.1822
414.3564	0.1765
414.5614	0.1696
414.7664	0.1725
414.9714	0.1796
415.1764	0.2004
415.3813	0.1811
415.5863	0.1859
415.7912	0.1784
415.9961	0.2078
416.201	0.1919
416.4059	0.1621
416.6108	0.1648
416.8156	0.1798
417.0205	0.186
417.2253	0.1664
417.4301	0.1784
417.6349	0.1668
417.8397	0.1664
418.0445	0.1646
418.2492	0.1779
418.454	0.1637
418.6587	0.169
418.8634	0.1733
419.0681	0.1795
419.2728	0.1541
419.4775	0.1724
419.6822	0.1754
419.8868	0.1722
420.0915	0.1364
420.2961	0.1627
420.5007	0.1719
420.7053	0.1817
420.9099	0.1713
421.1144	0.1896
421.319	0.1672
421.5235	0.1822
421.728	0.1574
421.9325	0.1611
422.137	0.174
422.3415	0.1523
422.546	0.1538
422.7504	0.1615
422.9549	0.1742
423.1593	0.1517
423.3637	0.1579
423.5681	0.1519
423.7725	0.1597
423.9769	0.1694
424.1812	0.1657
424.3856	0.1539
424.5899	0.1581
424.7942	0.1524
424.9985	0.1816
425.2028	0.135
425.4071	0.1395
425.6113	0.1405
425.8156	0.1577
426.0198	0.1529
426.224	0.1598
426.4282	0.1718
426.6324	0.1651
426.8366	0.151
427.0407	0.1535
427.2449	0.1552
427.449	0.1626
427.6531	0.1109
427.8572	0.1578
428.0613	0.1407
428.2654	0.1203
428.4694	0.1542
428.6735	0.1363
428.8775	0.1313
429.0815	0.1368
429.2855	0.1354
429.4895	0.1168
429.6935	0.1264
429.8975	0.1209
430.1014	0.1239
430.3053	0.1438
430.5093	0.1493
430.7132	0.1191
430.9171	0.1105
431.1209	0.1153
431.3248	0.1366
431.5286	0.1004
431.7325	0.1256
431.9363	0.1087
432.1401	0.1062
432.3439	0.1105
432.5477	0.1332
432.7514	0.1114
432.9552	0.1022
433.1589	0.1173
433.3627	0.1072
433.5664	0.1108
433.7701	0.0938
433.9737	0.098
434.1774	0.1087
434.3811	0.0915
434.5847	0.1152
434.7883	0.1103
434.9919	0.1038
435.1955	0.0953
435.3991	0.096
435.6027	0.0869
435.8062	0.0909
436.0098	0.0804
436.2133	0.0744
436.4168	0.0871
436.6203	0.0889
436.8238	0.0718
437.0272	0.0886
437.2307	0.1137
437.4341	0.0759
437.6375	0.0867
437.841	0.0783
438.0443	0.0791
438.2477	0.0819
438.4511	0.0844
438.6545	0.0874
438.8578	0.0787
439.0611	0.0716
439.2644	0.0551
439.4677	0.0714
439.671	0.0784
439.8743	0.0625
440.0775	0.078
440.2808	0.0751
440.484	0.0465
440.6872	0.0622
440.8904	0.0584
441.0936	0.0537
441.2967	0.042
441.4999	0.0464
441.703	0.063
441.9062	0.0668
442.1093	0.0478
442.3124	0.0598
442.5155	0.0558
442.7185	0.061
442.9216	0.042
443.1246	0.0723
443.3276	0.0594
443.5307	0.0531
443.7337	0.0425
443.9366	0.0571
444.1396	0.0409
444.3426	0.0329
444.5455	0.0501
444.7484	0.0474
444.9513	0.0419
445.1542	0.0399
445.3571	0.0539
445.56	0.0504
445.7628	0.0511
445.9657	0.0349
446.1685	0.0446
446.3713	0.0371
446.5741	0.0349
446.7769	0.0425
446.9797	0.0207
447.1824	0.0229
447.3852	0.0585
447.5879	0.0429
447.7906	0.0492
447.9933	0.0447
448.196	0.0587
448.3986	0.0341
448.6013	0.0231
448.8039	0.0334
449.0066	0.0306
449.2092	0.05
449.4118	0.0199
449.6143	0.0199
449.8169	0.0505
450.0195	0.0145
450.222	0.0196
450.4245	0.0078
450.627	0.0314
450.8295	0.0242
451.032	0.0058
451.2345	0.0234
451.4369	0.0294
451.6394	0.0292
451.8418	0.0029
452.0442	0.0066
452.2466	0.0032
452.449	0.0167
452.6513	0.0285
452.8537	0.0317
453.056	0.0111
453.2583	0.0198
453.4607	0.0169
453.663	0.0316
453.8652	0.0158
454.0675	0.002
454.2697	0.0161
454.472	0.0331
454.6742	0.0056
454.8764	0.0081
455.0786	0.0022
455.2808	-0.0029
455.4829	0.0183
455.6851	0.0214
455.8872	0.0181
456.0893	0.022
456.2915	0.0117
456.4935	-0.0088
456.6956	0.0028
456.8977	0.0007
457.0997	0.0289
457.3018	0.0072
457.5038	0.014
457.7058	0.0171
457.9078	0.0032
458.1098	0.0025
458.3117	0.0225
458.5137	0.004
458.7156	0.0105
458.9175	-0.0012
459.1194	0.0033
459.3213	0.0069
459.5232	-0.0044
459.725	0.002
459.9269	0.0015
460.1287	0.0159
460.3305	0.0129
460.5323	0.0134
460.7341	0.0041
460.9359	-0.0004
461.1376	0.0094
461.3394	-0.0127
461.5411	-0.0001
461.7428	0.0069
461.9445	0.0078
462.1462	0.0044
462.3479	0.0052
462.5495	-0.0037
462.7512	0.0038
462.9528	0.0047
463.1544	0.0068
463.356	-0.0086
463.5576	0.0048
463.7592	-0.0128
463.9607	0.0139
464.1623	0.0002
464.3638	0.0202
464.5653	-0.0061
464.7668	-0.0075
464.9683	0.0053
465.1697	0.0071
465.3712	0.0081
465.5726	0.0094
465.7741	0.0197
465.9755	0.0005
466.1769	0.0011
466.3782	0.0027
466.5796	-0.0123
466.7809	0.0045
466.9823	-0.0012
467.1836	0.0174
467.3849	0.0081
467.5862	-0.0066
467.7875	0.0146
467.9887	0.0001
468.19	0.0119
468.3912	0.0062
468.5924	-0.0012
468.7936	-0.002
468.9948	-0.0113
469.196	0.0109
469.3972	-0.006
469.5983	0.0038
469.7994	-0.0058
470.0006	-0.0214
470.2017	0.0037
470.4027	-0.0086
470.6038	-0.0057
470.8049	0.0118
471.0059	0.0007
471.2069	0.0018
471.408	-0.0092
471.6089	0.0006
471.8099	0.002
472.0109	0.0022
472.2119	0.0104
472.4128	-0.0143
472.6137	0.0013
472.8146	-0.008
473.0155	-0.0043
473.2164	0.0098
473.4173	-0.0043
473.6181	-0.0075
473.819	0.0036
474.0198	-0.0218
474.2206	-0.0067
474.4214	-0.0021
474.6222	-0.0032
474.8229	-0.0016
475.0237	-0.0132
475.2244	-0.0103
475.4251	-0.0013
475.6258	-0.0017
475.8265	-0.0058
476.0272	-0.01
476.2278	-0.0147
476.4285	-0.0166
476.6291	-0.0065
476.8297	-0.0003
477.0303	0.0082
477.2309	-0.0009
477.4315	-0.0108
477.632	-0.0075
477.8326	-0.0006
478.0331	-0.0149
478.2336	-0.0085
478.4341	-0.0111
478.6346	-0.0119
478.8351	-0.0054
479.0355	-0.0171
479.236	-0.0088
479.4364	-0.014
479.6368	0.0055
479.8372	-0.0025
480.0376	-0.0129
480.2379	-0.0118
480.4383	-0.013
480.6386	-0.0054
480.8389	-0.0238
481.0392	0.0049
481.2395	-0.0139
481.4398	-0.0126
481.6401	-0.0004
481.8403	0.007
482.0405	-0.0126
482.2408	-0.0184
482.441	-0.0119
482.6411	-0.0106
482.8413	-0.0144
483.0415	-0.0055
483.2416	-0.0063
483.4417	-0.003
483.6419	-0.0113
483.8419	-0.0042
484.042	0.0005
484.2421	-0.0133
484.4422	-0.0172
484.6422	0.0005
484.8422	0.0058
485.0422	-0.0121
485.2422	-0.011
485.4422	-0.0029
485.6422	-0.0152
485.8421	-0.0015
486.042	0.0056
486.242	-0.0131
486.4419	-0.0004
486.6417	0.0023
486.8416	-0.0008
487.0415	-0.0097
487.2413	-0.009
487.4411	-0.0032
487.641	-0.0109
487.8408	-0.0048
488.0405	-0.007
488.2403	0.0032
488.4401	0.0039
488.6398	-0.0148
488.8395	-0.0074
489.0392	-0.0041
489.2389	-0.0242
489.4386	-0.0062
489.6383	-0.0114
489.8379	-0.0029
490.0376	0.0026
490.2372	-0.0054
490.4368	-0.017
490.6364	-0.0058
490.836	-0.015
491.0355	-0.0193
491.2351	-0.0102
491.4346	-0.0019
491.6341	-0.0012
491.8336	-0.0037
492.0331	-0.0039
492.2326	-0.0051
492.432	-0.0017
492.6315	-0.0102
492.8309	-0.0141
493.0303	-0.0087
493.2297	-0.0013
493.4291	-0.008
493.6284	-0.0156
493.8278	-0.0001
494.0271	-0.006
494.2264	-0.0068
494.4257	-0.0095
494.625	0.0042
494.8243	-0.0036
495.0236	-0.0129
495.2228	-0.0115
495.422	-0.003
495.6213	-0.0084
495.8205	-0.009
496.0196	-0.0086
496.2188	-0.0049
496.418	-0.0156
496.6171	-0.0211
496.8162	-0.0067
497.0153	-0.0006
497.2144	-0.0146
497.4135	-0.0055
497.6126	-0.019
497.8116	-0.0223
498.0107	-0.0081
498.2097	-0.0145
498.4087	-0.0023
498.6077	-0.0148
498.8067	0.0023
499.0056	-0.0078
499.2046	0.0079
499.4035	-0.0157
499.6024	-0.0042
499.8013	-0.0076
500.0002	-0.0047
500.199	-0.0122
500.3979	-0.0014
500.5967	-0.011
500.7956	-0.0062
500.9944	-0.0049
501.1932	-0.0014
501.3919	-0.0116
501.5907	-0.0121
501.7895	-0.0175
501.9882	-0.0152
502.1869	-0.0171
502.3856	-0.0203
502.5843	-0.0092
502.783	-0.0024
502.9816	-0.0004
503.1803	-0.0071
503.3789	-0.0032
503.5775	-0.0168
503.7761	-0.0154
503.9747	-0.0023
504.1732	-0.0114
504.3718	0.0082
504.5703	-0.0052
504.7689	-0.0095
504.9674	-0.0091
505.1658	-0.0099
505.3643	0.0039
505.5628	-0.0009
505.7612	0.0014
505.9597	-0.0128
506.1581	0.0045
506.3565	-0.0116
506.5549	-0.0061
506.7532	-0.002
506.9516	-0.0054
507.1499	-0.0192
507.3482	-0.0012
507.5465	0.0005
507.7448	-0.0012
507.9431	0.0012
508.1414	-0.0141
508.3396	-0.0158
508.5379	-0.0036
508.7361	-0.0101
508.9343	-0.0098
509.1325	0.0037
509.3306	-0.0144
509.5288	-0.0047
509.7269	-0.0009
509.9251	0.0014
510.1232	-0.0039
510.3213	-0.0011
510.5193	-0.0011
510.7174	-0.0132
510.9154	-0.006
511.1135	-0.0108
511.3115	-0.0139
511.5095	-0.0066
511.7075	0.0038
511.9055	-0.0138
512.1034	-0.0141
512.3014	-0.0146
512.4993	0.0034
512.6972	-0.0028
512.8951	0.0027
513.093	-0.0001
513.2908	-0.0013
513.4887	-0.0074
513.6865	0.0021
513.8844	-0.0021
514.0822	-0.0027
514.2799	-0.0182
514.4777	-0.0001
514.6755	0.0025
514.8732	-0.0045
515.0709	-0.006
515.2687	-0.0034
515.4664	0.0048
515.664	-0.017
515.8617	0.0088
516.0594	-0.0002
516.257	-0.0029
516.4546	-0.0118
516.6522	-0.0051
516.8498	-0.0118
517.0474	0.0035
517.2449	-0.0091
517.4425	-0.0118
517.64	-0.0172
517.8375	-0.0026
518.035	0.0001
518.2325	-0.0054
518.43	-0.0099
518.6274	0.0012
518.8249	0.0057
519.0223	0.0055
519.2197	0.0025
519.4171	0.0024
519.6145	-0.0044
519.8118	-0.0123
520.0092	-0.009
520.2065	-0.0108
520.4038	-0.0004
520.6011	0.0002
520.7984	-0.0022
520.9956	0.0015
521.1929	-0.0075
521.3901	-0.0166
521.5874	-0.0066
521.7846	0.0026
521.9818	0.0013
522.1789	-0.0007
522.3761	-0.0001
522.5732	-0.0055
522.7704	0.0011
522.9675	-0.0051
523.1646	-0.0032
523.3617	-0.0075
523.5587	-0.0108
523.7558	-0.0111
523.9528	-0.0036
524.1498	-0.0013
524.3468	-0.0044
524.5438	0.0013
524.7408	-0.0036
524.9378	0.0112
525.1347	-0.0069
525.3316	0.0073
525.5285	-0.0139
525.7254	0.0034
525.9223	-0.0103
526.1192	0.001
526.316	0.0081
526.5129	0.0114
526.7097	-0.0031
526.9065	0.0061
527.1033	-0.0002
527.3	-0.0163
527.4968	-0.0079
527.6935	0.0014
527.8903	0.006
528.087	0.0113
528.2837	0.0011
528.4804	-0.0025
528.677	0.0007
528.8737	-0.0039
529.0703	0.0079
529.2669	-0.0006
529.4635	-0.0008
529.6601	0.0046
529.8567	0.0073
530.0532	0.0041
530.2498	-0.0008
530.4463	0.0013
530.6428	-0.0009
530.8393	0.0024
531.0358	-0.0078
531.2322	0.0112
531.4287	-0.0019
531.6251	0.0063
531.8215	-0.0048
532.0179	-0.006
532.2143	-0.0034
532.4107	0.0008
532.607	0.0016
532.8034	-0.006
532.9997	0.0041
533.196	-0.0054
533.3923	0.0041
533.5886	-0.0064
533.7848	0.0071
533.9811	0.002
534.1773	-0.0063
534.3735	-0.0107
534.5697	-0.0076
534.7659	0.0003
534.9621	0.0003
535.1582	-0.0002
535.3544	-0.004
535.5505	0.0032
535.7466	-0.0034
535.9427	-0.0056
536.1387	-0.0012
536.3348	-0.0131
536.5308	-0.0028
536.7269	0.008
536.9229	-0.0013
537.1189	-0.0132
537.3148	-0.0079
537.5108	0.005
537.7068	-0
537.9027	-0.0066
538.0986	-0.0019
538.2945	0.0026
538.4904	0.0021
538.6863	0.0074
538.8821	0.0037
539.078	0.0068
539.2738	0.0083
539.4696	0
539.6654	-0.0011
539.8611	0.0014
540.0569	0.0016
540.2526	-0.0022
540.4484	0
540.6441	0.0077
540.8398	-0.003
541.0355	0.0077
541.2311	0.0067
541.4268	0.0025
541.6224	0.0099
541.818	-0.0039
542.0136	-0.0091
542.2092	-0.0001
542.4048	0.0007
542.6003	0.0033
542.7959	-0.008
542.9914	0.0075
543.1869	-0.0004
543.3824	-0.0007
543.5779	-0.0028
543.7734	0.0079
543.9688	0.0013
544.1642	0.0007
544.3596	-0.0005
544.555	-0.0025
544.7504	0.0015
544.9458	0.0011
545.1411	0.0103
545.3365	-0.0011
545.5318	0.0058
545.7271	-0.0001
545.9224	0.0043
546.1177	-0.0088
546.3129	0.0004
546.5081	-0.0054
546.7034	0.0002
546.8986	0.0014
547.0938	-0.0007
547.289	0.0001
547.4841	0.0053
547.6793	-0.0061
547.8744	0.0007
548.0695	-0.0013
548.2646	-0.0106
548.4597	-0.0006
548.6548	0.0055
548.8498	-0.0027
549.0448	0.0033
549.2399	-0.0091
549.4349	-0.0006
549.6298	0.0012
549.8248	-0.0024
550.0198	0.0018
550.2147	-0.0047
550.4096	0.0029
550.6045	-0.0023
550.7994	-0.0053
550.9943	0.0082
551.1892	-0.0113
551.384	-0.0017
551.5788	-0.001
551.7737	-0.0013
551.9685	-0.0038
552.1632	0.0037
552.358	-0.003
552.5528	-0.0093
552.7475	-0.0105
552.9422	0.0039
553.1369	0.0013
553.3316	0.0027
553.5263	0.0008
553.7209	0.0063
553.9156	0.0054
554.1102	-0.008
554.3048	-0.0009
554.4994	0.0022
554.694	0.0122
554.8885	0.006
555.0831	0.006
555.2776	0.0011
555.4721	0.0075
555.6666	0.0011
555.8611	0.0037
556.0555	0.01
556.25	0.0101
556.4444	0.012
556.6388	0.0097
556.8332	0.0096
557.0276	0.0078
557.222	0.0046
557.4163	0.0035
557.6107	0.0161
557.805	0.0005
557.9993	-0.0044
558.1936	0.0001
558.3879	0.0088
558.5821	0.016
558.7764	0.0019
558.9706	0.0005
559.1648	0.0052
559.359	0.0055
559.5532	0.0084
559.7473	0.0131
559.9415	0
560.1356	0.0031
560.3297	-0.0013
560.5238	0.0025
560.7179	0.0035
560.9119	0.0034
561.106	0.0079
561.3	0.011
561.494	0.0018
561.688	-0.0019
561.882	0.001
562.076	0.0049
562.2699	0.0075
562.4639	-0.0004
562.6578	0.0019
562.8517	0.0077
563.0456	0.0073
563.2395	0.0093
563.4333	-0.0074
563.6272	-0.0001
563.821	-0.0114
564.0148	0.009
564.2086	-0.0073
564.4024	-0.0031
564.5961	0.0109
564.7899	0.0011
564.9836	0.0049
565.1773	0.0051
565.371	0.0076
565.5647	0.0007
565.7584	0.0066
565.952	-0.0026
566.1456	0.0021
566.3393	-0.0026
566.5329	-0.0013
566.7264	0.0053
566.92	0.0003
567.1136	0.0118
567.3071	0.0055
567.5006	-0.0027
567.6941	0.0041
567.8876	0.0029
568.0811	-0.0014
568.2745	0.0033
568.468	0.0101
568.6614	0.0065
568.8548	0.0012
569.0482	0.0098
569.2416	0.0001
569.4349	-0.0009
569.6283	-0.0025
569.8216	0.0022
570.0149	0.0042
570.2082	0.0075
570.4015	-0.0002
570.5947	0.0058
570.788	0.0053
570.9812	0.0109
571.1744	0.0041
571.3676	-0.0005
571.5608	-0.0018
571.754	-0.0022
571.9471	-0.0045
572.1402	0.0095
572.3333	-0.0014
572.5264	0.0069
572.7195	0.0012
572.9126	0.01
573.1057	0.0023
573.2987	0.004
573.4917	-0.0097
573.6847	-0.0009
573.8777	-0.0041
574.0707	0.0054
574.2636	0.0031
574.4566	-0.0001
574.6495	0.0052
574.8424	0.001
575.0353	-0.0079
575.2281	0.0031
575.421	-0.0017
575.6138	-0.0044
575.8067	-0.0042
575.9995	0.0059
576.1923	0.009
576.385	0.0071
576.5778	-0.0082
576.7706	0.0068
576.9633	-0.0014
577.156	0.0021
577.3487	-0.0049
577.5414	0.0041
577.734	-0.0073
577.9267	-0.0018
578.1193	0.0007
578.3119	-0.0016
578.5045	0.0062
578.6971	-0.0027
578.8897	0.0063
579.0822	0.006
579.2747	0.01
579.4673	0.0068
579.6598	0.0132
579.8522	0.0028
580.0447	0.0015
580.2372	0.0143
580.4296	0.0119
580.622	0.0069
580.8144	0.0037
581.0068	0.0024
581.1992	0.0064
581.3915	-0.0012
581.5839	0.0029
581.7762	0.0023
581.9685	0.0005
582.1608	-0.0019
582.353	-0.0018
582.5453	0.0001
582.7375	-0.0049
582.9298	-0.0052
583.122	-0.001
583.3142	0.0025
583.5063	0.0098
583.6985	-0.003
583.8906	0.0014
584.0827	0.0025
584.2749	-0.0003
584.4669	-0.007
584.659	0.0021
584.8511	0.0001
585.0431	-0.0041
585.2352	-0.0049
585.4272	-0.0057
585.6192	-0.0018
585.8111	-0.0014
586.0031	-0.0032
586.195	-0.006
586.387	0.0017
586.5789	-0.0005
586.7708	0.0017
586.9627	-0.0039
587.1545	0.0047
587.3464	0.009
587.5382	-0.0064
587.73	0.0038
587.9218	0.0021
588.1136	0.0048
588.3053	-0.0058
588.4971	0.0019
588.6888	0.0011
588.8805	-0.0048
589.0722	0.0049
589.2639	0.0029
589.4556	-0.0064
589.6472	-0.0009
589.8389	-0.0036
590.0305	0.0015
590.2221	0.003
590.4137	0.007
590.6052	-0.0001
590.7968	0.005
590.9883	0.0022
591.1798	-0.0042
591.3713	0.0016
591.5628	0.0043
591.7543	0.0101
591.9458	0.0007
592.1372	0.0014
592.3286	0.0012
592.52	0.0027
592.7114	0.008
592.9028	-0.0045
593.0941	0.0044
593.2855	0.0012
593.4768	-0.0058
593.6681	-0.0081
593.8594	0.0017
594.0506	-0.0071
594.2419	0.0028
594.4331	-0.0055
594.6244	0.0038
594.8156	0.0056
595.0067	0.0007
595.1979	0.0026
595.3891	0.0008
595.5802	-0.0021
595.7713	-0.0101
595.9624	0.0041
596.1535	0.0026
596.3446	0.0074
596.5357	0.0062
596.7267	0.0009
596.9177	0.0099
597.1087	0.0154
597.2997	0.0092
597.4907	0.0038
597.6817	0.0052
597.8726	0.0112
598.0635	0.0004
598.2544	0.0063
598.4453	0.0042
598.6362	0.0095
598.827	0.0048
599.0179	-0.0011
599.2087	0.0072
599.3995	0.013
599.5903	0.0059
599.7811	0.0016
599.9718	0.0033
600.1626	0.0034
600.3533	0.0005
600.544	-0.0012
600.7347	0.0044
600.9254	-0.0056
601.116	0.003
601.3067	-0.0119
601.4973	0.001
601.6879	0.0006
601.8785	-0.0005
602.0691	0.0034
602.2596	0.0049
602.4502	0.006
602.6407	-0.0008
602.8312	-0.0044
603.0217	0.0014
603.2122	-0.0033
603.4027	0.0023
603.5931	-0.0003
603.7835	0.0063
603.9739	-0.0017
604.1643	0.0125
604.3547	0.0054
604.5451	0.0007
604.7354	0.002
604.9257	-0.0024
605.116	-0.0006
605.3063	0.0009
605.4966	-0.0011
605.6869	0.0113
605.8771	-0.0009
606.0673	0.0049
606.2575	-0.0008
606.4477	-0.0052
606.6379	0.0101
606.8281	0.0045
607.0182	0.0003
607.2083	0.0042
607.3985	0.0034
607.5885	-0.0007
607.7786	0.0049
607.9687	-0.0026
608.1587	0.0048
608.3488	0.0047
608.5388	0.0145
608.7288	0.0061
608.9187	-0.0007
609.1087	-0.0039
609.2986	0.0014
609.4886	-0.0014
609.6785	0.0022
609.8684	0.0028
610.0582	0.0048
610.2481	0.0034
610.4379	-0.0012
610.6278	-0.0011
610.8176	0.0104
611.0074	0.0025
611.1971	0.0018
611.3869	0.0011
611.5766	0.0049
611.7664	0.0053
611.9561	0.0075
612.1458	-0.001
612.3354	0.009
612.5251	0.0029
612.7147	-0.0029
612.9044	0.007
613.094	0.0129
613.2836	0.0115
613.4731	-0.0009
613.6627	0.0065
613.8522	0.0113
614.0417	0.0091
614.2313	0.0046
614.4207	0.0097
614.6102	0.0014
614.7997	-0.0002
614.9891	0.0056
615.1785	0.0104
615.3679	0.0088
615.5573	0.0137
615.7467	0.0018
615.9361	0.0073
616.1254	0.0049
616.3147	0.0031
616.504	-0.0015
616.6933	0.0043
616.8826	0.0101
617.0718	0.0022
617.2611	0.0042
617.4503	0.0144
617.6395	0.01
617.8287	0.0121
618.0179	0.0046
618.207	0.0063
618.3961	0.0088
618.5853	0.0056
618.7744	0.0087
618.9634	0.0085
619.1525	0.0093
619.3416	0.0146
619.5306	0.0079
619.7196	-0.0007
619.9086	0.0089
620.0976	0.0079
620.2866	0.0068
620.4755	0.0118
620.6645	0.0089
620.8534	0.0071
621.0423	0.0063
621.2312	0.0042
621.42	0.0111
621.6089	0.0141
621.7977	0.0122
621.9865	0.0134
622.1753	0.0074
622.3641	0.0081
622.5529	0.0041
622.7416	0.0013
622.9303	0.0112
623.1191	0.0056
623.3078	0.0029
623.4964	0.0047
623.6851	0.0103
623.8737	0.0163
624.0624	0.0023
624.251	0.0127
624.4396	0.0041
624.6282	0.0071
624.8167	0.0097
625.0053	0.0039
625.1938	0.0104
625.3823	0.0104
625.5708	0.0098
625.7593	0.0087
625.9477	0.0133
626.1362	0.0078
626.3246	0.0019
626.513	0.0033
626.7014	0.0066
626.8898	0.0041
627.0781	-0.0015
627.2665	0.0114
627.4548	0.0079
627.6431	0.001
627.8314	0.0099
628.0197	0.0119
628.2079	0.0037
628.3962	0.007
628.5844	0.0111
628.7726	0.0051
628.9608	0.0077
629.1489	0.0118
629.3371	0.0061
629.5252	0.0038
629.7134	0.005
629.9015	0.0038
630.0895	0.0089
630.2776	0.0026
630.4657	0.0071
630.6537	0.0031
630.8417	0.0105
631.0297	0.01
631.2177	0.0098
631.4057	0.0112
631.5936	0.0063
631.7815	0.0144
631.9695	0.0066
632.1574	0.0091
632.3452	0.0128
632.5331	0.0001
632.7209	0.0118
632.9088	0.0014
633.0966	0.0022
633.2844	0.0077
633.4722	0.0022
633.6599	0.0018
633.8477	0.0063
634.0354	0.0022
634.2231	0.0162
634.4108	0.0068
634.5985	0.006
634.7861	0.006
634.9738	0.0128
635.1614	0.0052
635.349	0.0072
635.5366	0.0109
635.7242	0.0046
635.9117	0.0068
636.0993	0.0037
636.2868	0.0032
636.4743	-0.0021
636.6618	0.0053
636.8492	0.0161
637.0367	0.0031
637.2241	0.0114
637.4115	0.0032
637.5989	0.0142
637.7863	0.0065
637.9737	-0.0015
638.161	0.0166
638.3484	0.0089
638.5357	0.0083
638.723	-0.0026
638.9103	0.006
639.0975	-0.0011
639.2848	0.0086
639.472	-0.0012
639.6592	0.0065
639.8464	0.0133
640.0336	0.0066
640.2208	0.0009
640.4079	0.0035
640.595	0.0002
640.7821	0.0078
640.9692	0.0017
641.1563	0.0059
641.3434	0.005
641.5304	0.008
641.7174	0.0117
641.9044	0.0011
642.0914	-0.0012
642.2784	-0.0104
642.4653	0.0028
642.6523	0.0038
642.8392	0.0041
643.0261	0.0054
643.213	-0.0038
643.3999	-0.0007
643.5867	0.0132
643.7735	0.0025
643.9604	-0.0025
644.1472	-0.003
644.3339	-0.0049
644.5207	0.0097
644.7075	-0.0016
644.8942	0.0019
645.0809	0.0051
645.2676	0.0116
645.4543	0.0103
645.6409	0.0052
645.8276	0.0024
646.0142	0.0078
646.2008	0.0207
646.3874	0.0065
646.574	0.0078
646.7605	0.0082
646.9471	0.0046
647.1336	0.0055
647.3201	0.015
647.5066	0.0013
647.6931	-0.0027
647.8795	0.0021
648.0659	0.0055
648.2524	0.0037
648.4388	0.0021
648.6252	0.0015
648.8115	0.0075
648.9979	-0.0006
649.1842	0.0021
649.3705	-0.0058
649.5568	0.0038
649.7431	0.0108
649.9294	0.0029
650.1156	0.0033
650.3018	0.0053
650.488	0.006
650.6742	0.0044
650.8604	0.0085
651.0466	0.0068
651.2327	0.0102
651.4188	0.0009
651.6049	0.0141
651.791	0.0086
651.9771	0.0052
652.1632	0.0035
652.3492	0.0038
652.5352	0.0063
652.7212	0.0033
652.9072	-0.0057
653.0932	0.0033
653.2791	-0.0026
653.465	0.0045
653.651	0.006
653.8369	0.0037
654.0227	0.0109
654.2086	-0.001
654.3944	0.0048
654.5803	0.0013
654.7661	0.0039
654.9519	-0.0048
655.1377	-0.0002
655.3234	-0.0034
655.5092	-0.005
655.6949	-0.0056
655.8806	-0.0089
656.0663	-0.0005
656.2519	-0.0051
656.4376	0.0027
656.6232	-0.0026
656.8088	0.0052
656.9945	0.0001
657.18	0.0001
657.3656	0.0021
657.5511	-0.0034
657.7367	0.0021
657.9222	0.0032
658.1077	0.0066
658.2932	0.0101
658.4786	-0.0052
658.6641	0.001
658.8495	0.0021
659.0349	0.0048
659.2203	0.0013
659.4057	-0.0046
659.591	-0.0002
659.7764	-0.0015
659.9617	0.0002
660.147	0.006
660.3323	0.0074
660.5176	-0.0021
660.7028	0.0013
660.888	0.0106
661.0733	0.0085
661.2585	0.0011
661.4436	0.0034
661.6288	0.007
661.8139	0.0052
661.9991	-0.0044
662.1842	0.0133
662.3693	-0.003
662.5544	0.0084
662.7394	0.0087
662.9245	0.0066
663.1095	0.0103
663.2945	0.0075
663.4795	0.0034
663.6644	0.0092
663.8494	0.0061
664.0343	0.0038
664.2193	0.0147
664.4042	0.0146
664.589	0.004
664.7739	0.0032
664.9587	0.0083
665.1436	-0.0028
665.3284	0.0078
665.5132	0.0024
665.698	0.0013
665.8827	0.006
666.0675	0.0053
666.2522	0.0098
666.4369	0.0028
666.6216	0.0121
666.8063	0.0073
666.9909	0.0017
667.1756	0.0076
667.3602	0.007
667.5448	0.0101
667.7294	0.0048
667.9139	0.0062
668.0985	0.0053
668.283	0.0014
668.4675	-0.003
668.652	0.0105
668.8365	-0.0075
669.0209	0.0016
669.2054	0.0026
669.3898	0.0012
669.5742	0.0114
669.7586	-0.004
669.943	0.0072
670.1273	0.0092
670.3117	0.0042
670.496	0.0079
670.6803	0.0093
670.8646	0.0063
671.0488	0.0078
671.2331	0.0125
671.4173	0.0141
671.6015	0.003
671.7857	0.0067
671.9699	0.0112
672.1541	0.0006
672.3382	0.0058
672.5223	0.0104
672.7064	0.007
672.8905	0.008
673.0746	0.0041
673.2587	0.0111
673.4427	0.0083
673.6267	0.0025
673.8107	0.017
673.9947	0.0027
674.1787	0.0061
674.3626	0.0172
674.5465	0.0106
674.7304	0.0084
674.9143	0.0068
675.0982	-0.0002
675.2821	0.0088
675.4659	0.0223
675.6497	-0.0023
675.8335	0.014
676.0173	-0.0002
676.2011	0.0054
676.3849	0.0047
676.5686	0.0066
676.7523	0.0078
676.936	-0.002
677.1197	0.0089
677.3034	0.0044
677.487	0.0114
677.6706	0.0166
677.8542	0.0099
678.0378	0.0041
678.2214	0.0057
678.405	0.019
678.5885	0.0139
678.772	0.0098
678.9555	0.0076
679.139	0.0111
679.3225	0.0086
679.5059	0.0051
679.6894	0.008
679.8728	0.0032
680.0562	0.0095
680.2395	0.0095
680.4229	-0.0014
680.6062	-0.0021
680.7896	0.0041
680.9729	0.004
681.1562	0.0128
681.3394	0.0043
681.5227	0.0136
681.7059	0.0017
681.8891	0.0063
682.0723	0.004
682.2555	0.0068
682.4387	0.003
682.6218	0.0022
682.805	0.0062
682.9881	0.0097
683.1712	0.0123
683.3542	0.0037
683.5373	0.014
683.7203	0.0079
683.9034	0.0117
684.0864	0.0016
684.2694	0.0077
684.4523	0.0036
684.6353	0.004
684.8182	0.0044
685.0011	0.0073
685.184	0.0055
685.3669	0.0024
685.5498	0.0038
685.7326	0.0032
685.9154	-0.0015
686.0982	0.01
686.281	0.0009
686.4638	-0.0052
686.6465	0.0126
686.8293	0.0096
687.012	0.0118
687.1947	0.0139
687.3774	0.014
687.56	0.0075
687.7427	0.0178
687.9253	0.0109
688.1079	0.0051
688.2905	0.0058
688.4731	0.006
688.6556	0.0103
688.8382	0.0043
689.0207	0.0026
689.2032	0.0024
689.3857	0.01
689.5681	0.0003
689.7506	-0.0023
689.933	0.0037
690.1154	0.0013
690.2978	-0.0021
690.4802	0.0076
690.6626	0.01
690.8449	0.0107
691.0272	0.005
691.2095	0.0106
691.3918	0.0081
691.5741	0.0207
691.7563	0.0155
691.9386	0.0095
692.1208	-0.0005
692.303	0.0047
692.4852	0.0112
692.6673	0.0063
692.8495	0.0086
693.0316	0.0119
693.2137	0.0106
693.3958	0.0089
693.5778	0.0082
693.7599	0.0151
693.9419	0.011
694.1239	0.0074
694.3059	0.0007
694.4879	0.0064
694.6699	0.0001
694.8518	-0.0062
695.0337	0.0054
695.2157	0.0043
695.3975	0.0091
695.5794	0.0067
695.7613	0.0077
695.9431	0.0086
696.1249	0.0082
696.3067	0.0006
696.4885	0.012
696.6703	0.0112
696.852	0.0048
697.0337	0.0103
697.2154	0.01
697.3971	0.0059
697.5788	0.0152
697.7605	0.0013
697.9421	0.0047
698.1237	0.0169
698.3053	0.0091
698.4869	0.0017
698.6685	0.0052
698.85	0.0111
699.0315	0.0122
699.213	0.0063
699.3945	-0.0037
699.576	0.0108
699.7575	0.0162
699.9389	0.0183
700.1203	0.0116
700.3017	0.0172
700.4831	-0.0001
700.6645	0.0025
700.8458	0.014
701.0271	0.0087
701.2084	0.0025
701.3897	-0.0045
701.571	0.0008
701.7523	-0.0062
701.9335	-0.0029
702.1147	-0.0005
702.2959	0.002
702.4771	0.001
702.6583	-0.0009
702.8394	0.0037
703.0205	-0.004
703.2016	0.0095
703.3827	0.0078
703.5638	0.0149
703.7449	0.0071
703.9259	-0.0017
704.1069	0.0048
704.2879	-0.0011
704.4689	0.0047
704.6499	-0.001
704.8308	0.0048
705.0117	0.0045
705.1927	0.0014
705.3735	-0.0054
705.5544	-0.0063
705.7353	0.003
705.9161	-0.0005
706.0969	0.0063
706.2777	0.0063
706.4585	0
706.6393	0.0168
706.82	0.0051
707.0007	-0.0022
707.1815	-0.0006
707.3621	0.0028
707.5428	0.005
707.7235	0.0024
707.9041	0.0039
708.0847	0.0181
708.2653	0.0053
708.4459	0.0061
708.6265	0.0093
708.807	0.0084
708.9875	0.0195
709.168	0.0158
709.3485	0.0055
709.529	0.0054
709.7095	0.0159
709.8899	0.0072
710.0703	0.007
710.2507	-0.0001
710.4311	0.0059
710.6115	0.0092
710.7918	0.0085
710.9721	0.0088
711.1524	0.0059
711.3327	0.001
711.513	-0.0026
711.6932	-0.0004
711.8735	0.0045
712.0537	0.0017
712.2339	-0.0053
712.4141	-0.0086
712.5942	-0.0038
712.7744	0.0029
712.9545	0.0013
713.1346	0.0053
713.3147	0.0027
713.4947	0.0037
713.6748	0.0008
713.8548	0.0081
714.0348	0.0041
714.2148	-0.0045
714.3948	0.0014
714.5748	0.0024
714.7547	0.0031
714.9346	0.001
715.1145	0.0046
715.2944	0.0011
715.4743	0.0074
715.6541	0.015
715.834	0.0008
716.0138	0.0073
716.1936	0.0055
716.3733	0.0113
716.5531	0.0118
716.7328	0.0016
716.9126	0.0039
717.0923	0.0076
717.2719	0.0088
717.4516	-0.0028
717.6312	0.0019
717.8109	-0.0096
717.9905	0.0055
718.1701	0.003
718.3496	0.0049
718.5292	0.0017
718.7087	-0.0098
718.8882	-0.0036
719.0677	0.0033
719.2472	0.0012
719.4267	0.0036
719.6061	-0.0043
719.7856	0.0029
719.965	-0.0026
720.1443	0.0042
720.3237	0.0125
720.5031	0.0089
720.6824	0.0057
720.8617	0.0047
721.041	-0.0063
721.2203	0.0058
721.3995	0.0005
721.5788	0.0094
721.758	-0.0081
721.9372	0.0124
722.1164	0.0068
722.2956	0.0072
722.4747	0.009
722.6538	0.0094
722.8329	0.004
723.012	0.002
723.1911	-0.0034
723.3702	0.0024
723.5492	0.007
723.7282	0.0107
723.9072	0.0078
724.0862	0.0069
724.2652	0.0075
724.4441	-0.0015
724.623	0.0132
724.8019	-0.0042
724.9808	-0.0015
725.1597	0.0088
725.3385	0.0046
725.5174	-0.0034
725.6962	-0.0053
725.875	0.0004
726.0538	-0.0051
726.2325	0.0092
726.4112	0.0006
726.59	0.0052
726.7687	0.0044
726.9474	-0.0071
727.126	-0.0006
727.3047	-0.006
727.4833	0
727.6619	0.0051
727.8405	0.0014
728.0191	0.0008
728.1976	0.0009
728.3762	0.0013
728.5547	0.0072
728.7332	0.0044
728.9116	-0.01
729.0901	-0.0019
729.2686	0.003
729.447	-0.0088
729.6254	0.0013
729.8038	0.014
729.9821	0.0113
730.1605	0.0033
730.3388	0.005
730.5171	0.0046
730.6954	0.0103
730.8737	0.0019
731.0519	-0.0012
731.2302	0.0077
731.4084	0.0102
731.5866	-0.0032
731.7648	0.0063
731.9429	-0.0054
732.1211	0.0055
732.2992	0.0055
732.4773	-0.007
732.6554	-0.004
732.8335	-0.0088
733.0115	-0.0074
733.1896	0.0047
733.3676	-0.0006
733.5456	0.002
733.7235	-0.0097
733.9015	0.0092
734.0794	0.0031
734.2574	0
734.4353	-0.0013
734.6131	0.0079
734.791	0.004
734.9689	0.02
735.1467	-0.0025
735.3245	0.0061
735.5023	0.011
735.68	0.0101
735.8578	0.0078
736.0355	0.0016
736.2132	0.0054
736.3909	-0.005
736.5686	0.0125
736.7463	0.0055
736.9239	0.0059
737.1015	0.0034
737.2791	0.0044
737.4567	0.0004
737.6343	-0.0026
737.8118	0.0026
737.9894	0.0095
738.1669	0.001
738.3444	-0.0006
738.5218	0.0041
738.6993	0.0051
738.8767	-0.0003
739.0541	0.0051
739.2315	0.001
739.4089	0.0115
739.5863	0.0029
739.7636	0.0044
739.9409	-0.0003
740.1182	0.0105
740.2955	0.0058
740.4728	0.002
740.65	-0.0028
740.8272	-0.0016
741.0044	0.0001
741.1816	0.0054
741.3588	0.0024
741.5359	0.0115
741.7131	0.0008
741.8902	-0.0044
742.0673	0.0166
742.2444	0.007
742.4214	0.009
742.5985	0.0108
742.7755	-0.0041
742.9525	0.0094
743.1295	0.0137
743.3064	0.0031
743.4834	0.0087
743.6603	-0.0103
743.8372	-0.003
744.0141	0.0068
744.191	0.0091
744.3678	-0.007
744.5446	0.0047
744.7215	0.0155
744.8982	0.0116
745.075	-0.0001
745.2518	-0.0041
745.4285	0.0066
745.6052	0.0049
745.7819	-0.0054
745.9586	0.0012
746.1353	-0.0008
746.3119	0.0066
746.4885	-0.0008
746.6651	-0.0029
746.8417	0.0045
747.0183	0.008
747.1948	0.006
747.3714	0.0074
747.5479	-0.0043
747.7244	0.0061
747.9008	0.0031
748.0773	0.0005
748.2537	0.0054
748.4301	-0.0077
748.6065	0.0027
748.7829	0.0026
748.9593	0.0014
749.1356	0.0039
749.3119	0.0084
749.4882	0.0062
749.6645	0.0157
749.8408	0.001
750.017	0.0065
750.1933	0.0153
750.3695	0.0137
750.5457	0.0167
750.7218	0.0078
750.898	0.0117
751.0741	0.0125
751.2502	0.0166
751.4263	0.0092
751.6024	0.0152
751.7784	0.0128
751.9545	0.009
752.1305	0.0089
752.3065	0.0076
752.4825	0.0039
752.6584	0.0066
752.8344	0.0031
753.0103	0.0058
753.1862	0.0089
753.3621	0.0013
753.5379	0.0021
753.7138	0.0131
753.8896	0.005
754.0654	-0.0028
754.2412	-0.0018
754.417	-0.0015
754.5927	0.0092
754.7685	0.0057
754.9442	0.0073
755.1199	0.0013
755.2956	0.01
755.4712	0.0003
755.6469	0.0082
755.8225	0.0152
755.9981	0.0086
756.1736	-0.0066
756.3492	0.0117
756.5248	0.01
756.7003	0.0013
756.8758	0.0079
757.0513	0.0051
757.2267	0.0065
757.4022	0.0003
757.5776	0.0086
757.753	0.0102
757.9284	0.0053
758.1038	-0.0016
758.2791	0.0059
758.4545	0.0155
758.6298	0.0028
758.8051	0.0055
758.9803	0.0087
759.1556	-0.0015
759.3308	0.0049
759.506	0.0153
759.6812	0.0035
759.8564	0.0114
760.0316	0.0087
760.2067	0.0013
760.3819	0.0045
760.557	-0.0042
760.732	0.0114
760.9071	0.0089
761.0821	0.0234
761.2572	0.0113
761.4322	0.0139
761.6072	-0.0043
761.7821	-0.0004
761.9571	0.0023
762.132	0.002
762.3069	0.0107
762.4818	0.0014
762.6567	0.0065
762.8316	0.0113
763.0064	-0.0015
763.1812	0.0141
763.356	0.0053
763.5308	0.0054
763.7055	-0.0006
763.8803	0.0032
764.055	-0.006
764.2297	0.0052
764.4044	0.0053
764.579	0.0021
764.7537	-0.0001
764.9283	0.0044
765.1029	-0
765.2775	-0.0004
765.4521	0.0028
765.6266	-0.0002
765.8011	0.0098
765.9756	-0.0037
766.1501	0.0093
766.3246	0.0017
766.4991	0.0062
766.6735	-0.0019
766.8479	0.0037
767.0223	-0.0102
767.1967	0.0144
767.371	0.0011
767.5454	-0.0055
767.7197	0.0056
767.894	0.0052
768.0683	0.0127
768.2425	0.0095
768.4168	-0.0013
768.591	0.0112
768.7652	0.0016
768.9394	-0.0001
769.1135	0.003
769.2877	0.0037
769.4618	0.0075
769.6359	0.0149
769.81	0.0054
769.984	0.0058
770.1581	0.0068
770.3321	0.013
770.5061	0.0006
770.6801	-0.0003
770.8541	0.0121
771.028	0.0069
771.202	0.0099
771.3759	0.0058
771.5498	0.0206
771.7236	0.0089
771.8975	0.0073
772.0713	0.0069
772.2451	0.0127
772.4189	-0.0051
772.5927	-0.0013
772.7665	-0.0046
772.9402	0.0035
773.1139	0.0162
773.2876	0.0075
773.4613	0.0146
773.635	0.0065
773.8086	0.0031
773.9822	0.0085
774.1558	0.0022
774.3294	0.0197
774.503	-0.004
774.6765	0.0162
774.8501	0.0081
775.0236	0.018
775.1971	0.0212
775.3705	0.0223
775.544	0.0065
775.7174	0.0132
775.8908	0.0186
776.0642	-0.0002
776.2376	0.0075
776.4109	0.0122
776.5843	-0.0014
776.7576	0.0055
776.9309	0.0042
777.1041	0.0167
777.2774	-0.0005
777.4506	0.0095
777.6238	-0.0091
777.797	-0.0033
777.9702	0.0048
778.1434	0.0139
778.3165	-0.0025
778.4896	0.0089
778.6627	0.0014
778.8358	0.0088
779.0089	0.0031
779.1819	-0.0003
779.3549	0.0218
779.5279	0.0028
779.7009	-0.0004
779.8739	-0.0171
780.0468	0.0039
780.2197	0.0092
780.3926	0.006
780.5655	0.0085
780.7384	-0.0093
780.9112	0.0048
781.0841	-0.0101
781.2569	-0.0068
781.4297	-0.0168
781.6024	0.0049
781.7752	-0.0173
781.9479	0.0101
782.1206	0.0019
782.2933	0.01
782.466	-0.0149
782.6386	0.0079
782.8113	-0.0109
782.9839	0.0038
783.1565	0.0057
783.329	0.0008
783.5016	-0.0007
783.6741	0.0138
783.8466	0.0077
784.0191	0.0116
784.1916	-0.0066
784.3641	-0.0011
784.5365	0.0062
784.7089	0.007
784.8813	0.0003
785.0537	0.0065
785.2261	0.0022
785.3984	0.0008
785.5707	0.0035
785.743	0.0122
785.9153	0.0014
786.0876	0.0131
786.2598	0.0018
786.432	0.0055
786.6042	0.0059
786.7764	0.0168
786.9486	0.0054
787.1207	0.0066
787.2928	-0.0004
787.4649	-0.0022
787.637	0.0093
787.8091	0.0069
787.9811	0.006
788.1532	-0.0041
788.3252	-0.0037
788.4972	-0.0046
788.6691	0.0072
788.8411	-0.009
789.013	0.0069
789.1849	0.0247
789.3568	0.0117
789.5287	0.0145
789.7005	0.0034
789.8723	0.0076
790.0442	0.0158
790.2159	-0.0077
790.3877	0.0177
790.5595	0.0151
790.7312	-0.0145
790.9029	0.0238
791.0746	0.0025
791.2463	0.0213
791.4179	0.0028
791.5896	0.0082
791.7612	0.0196
791.9328	0.0208
792.1044	0.0167
792.2759	0.0024
792.4474	0.0159
792.619	0.004
792.7905	0.0199
792.9619	0.0101
793.1334	0.0363
793.3048	0.0123
793.4762	0.0076
793.6476	0.0094
793.819	0.0073
793.9904	0.0042
794.1617	0.0016
794.333	-0.0055
794.5043	0.0222
794.6756	-0.0046
794.8469	0.0085
795.0181	0.0182
795.1893	-0.0055
795.3605	0.0105
795.5317	-0.0008
795.7029	0.0051
795.874	-0.0038
796.0452	0.006
796.2163	0.0019
796.3873	0.0091
796.5584	0.0142
796.7294	-0.0043
796.9005	0.0029
797.0715	0.0025
797.2425	0.0159
797.4134	0.0229
797.5844	0.0107
797.7553	0.012
797.9262	-0.0001
798.0971	0.0142
798.2679	0.0145
798.4388	-0.0072
798.6096	-0.0223
798.7804	0.0093
798.9512	0.0098
799.122	0.0053
799.2927	0.0268
799.4635	0.0239
799.6342	0.0192
799.8049	0.0003
799.9755	0.0145
800.1462	0.0305
800.3168	0.0016
800.4874	-0.0095
800.658	0.0179
800.8286	0.0181
800.9991	0.027
801.1696	0.012
801.3402	0.0117
801.5106	0.0029
801.6811	-0.0093
801.8516	0.0074
802.022	0.0034
802.1924	0.0027
802.3628	-0.0031
802.5332	0.0311
802.7035	-0.008
802.8739	-0.0056
803.0442	0.0064
803.2145	0.0017
803.3847	-0.0061
803.555	-0.0119
803.7252	0.0192
803.8954	-0.0085
804.0656	0.003
804.2358	0.0094
804.4059	0.0138
804.5761	0.0067
804.7462	-0.0045
804.9163	-0.0003
805.0864	0.0003
805.2564	-0.0112
805.4264	-0.0062
805.5965	-0.0072
805.7665	0.0182
805.9364	-0.0065
806.1064	0.0164
806.2763	0.0177
806.4462	0.0213
806.6161	0.0126
806.786	0.016
806.9559	0.0122
807.1257	0.0216
807.2955	0.0183
807.4653	0.0306
807.6351	0.0093
807.8048	-0.0006
807.9746	0.0461
808.1443	-0.0015
808.314	0.0108
808.4837	0.0301
808.6533	0.0181
808.8229	0.0184
808.9926	0.0221
809.1622	0.0113
809.3317	0.0241
809.5013	0.0222
809.6708	0.037
809.8403	0.0132
810.0098	0.0258
810.1793	0.0038
810.3488	-0.0051
810.5182	0.0202
810.6876	0.0297
810.857	0.0031
811.0264	0.0076
811.1958	0.0324
811.3651	-0.0059
811.5344	0.0186
811.7037	-0.0059
811.873	0.0117
812.0422	-0.0028
812.2115	0.0121
812.3807	0.0164
812.5499	0.0074
812.7191	0.0338
812.8882	0.0072
813.0574	0.006
813.2265	0.0514
813.3956	0.0228
813.5646	0.0484
813.7337	-0.0103
813.9027	0.0001
814.0718	0.0229
814.2407	0.0044
814.4097	0.0122
814.5787	0.0176
814.7476	0.0073
814.9165	-0.0108
815.0854	-0.0113
815.2543	0.0122
815.4232	0.0224
815.592	0.0115
815.7608	0.04
815.9296	0.026
816.0984	-0.0157
816.2671	0.0001
816.4359	-0.0046
816.6046	0.0028
816.7733	-0.0031
816.942	-0.0075
817.1106	-0.0039
817.2793	-0.0191
817.4479	-0.0054
817.6165	-0.0051
817.785	0.0082
817.9536	0.0106
818.1221	0.0011
818.2906	-0.008
818.4591	0.0063
818.6276	0.0099
818.7961	0.0044
818.9645	0.0216
819.1329	0.019
819.3013	0.0121
819.4697	0.0189
819.638	-0.0185
819.8064	-0.0077
819.9747	0.0069
820.143	0.01
820.3113	-0.0005
820.4795	0.0101
820.6477	-0.0092
820.816	-0.0274
820.9842	0.0098
821.1523	0.0169
821.3205	-0.0046
821.4886	-0.0173
821.6567	0.0015
821.8248	0.0097
821.9929	0.0216
822.1609	-0.01
822.329	0.0113
822.497	0.0016
822.665	-0.01
822.833	-0.0224
823.0009	-0.0094
823.1688	0.0034
823.3367	0.0165
823.5046	0.0032
823.6725	-0.0109
823.8404	-0.0103
824.0082	-0.0092
824.176	0.0058
824.3438	0.0187
824.5116	0.0266
824.6793	-0.0047
824.847	0.0174
825.0147	0.0112
825.1824	-0.0067
825.3501	0.0061
825.5177	-0.0126
825.6854	-0.0011
825.853	0.0278
826.0206	0.0303
826.1881	0.0083
826.3557	0.0245
826.5232	0.0147
826.6907	0.0128
826.8582	0.0311
827.0257	0.0276
827.1931	0.0221
827.3605	0.0344
827.528	0.0106
827.6953	0.0385
827.8627	0.0072
828.03	0.0421
828.1974	0.0385
828.3647	-0.0038
828.532	0.0025
828.6992	0.0115
828.8665	0.0458
829.0337	0.0123
829.2009	0.0428
829.3681	0.0294
829.5352	-0.0058
829.7024	0.0136
829.8695	0.0351
830.0366	0.0161
830.2037	-0.0037
830.3707	0.0325
830.5378	-0.0066
830.7048	-0.0144
830.8718	0.0007
831.0388	-0.0172
831.2057	0.026
831.3727	0.0368
831.5396	0.0062
831.7065	-0.0071
831.8734	0.0013
832.0402	-0.0426
832.2071	0.0217
832.3739	-0.0105
832.5407	0.0106
832.7075	0.0145
832.8742	0.0247
833.041	-0.0097
833.2077	-0.0081
833.3744	0.056
833.541	0.0485
833.7077	0.0616
833.8743	0.0179
834.0409	0.0179
834.2075	0.0048
834.3741	0.0375
834.5407	0.004
834.7072	-0.024
834.8737	0.0021
835.0402	0.0075
835.2067	-0.0429
835.3731	-0.0053
835.5395	-0.0277
835.706	0.0344
835.8723	0.0062
836.0387	0.0138
836.2051	0.0231
836.3714	-0.0669
836.5377	0.0098
836.704	-0.0519
836.8703	0.0194
837.0365	-0.0369
837.2027	-0.0045
837.3689	-0.0011
837.5351	0.0263
837.7013	-0.0394
837.8674	0.0428
838.0335	0.0025
838.1997	-0.0388
838.3657	-0.0004
838.5318	-0.0098
838.6978	0.0199
838.8639	-0.0102
839.0299	0.0504
839.1958	0.0348
839.3618	-0.023
839.5277	-0.0031
839.6937	0.0135
839.8596	-0.0199
840.0254	-0.0084
840.1913	0.0331
840.3571	0.021
840.523	0.0191
840.6888	0.0361
840.8545	0.0373
841.0203	0.0495
841.186	0.0364
841.3517	0.0054
841.5174	-0.0068
841.6831	0.03
841.8488	0.0274
842.0144	0.0698
842.18	0.0428
842.3456	-0.0097
842.5112	0.0021
842.6767	-0.0085
842.8422	0.0252
843.0077	0.0228
843.1732	-0.0006
843.3387	-0.046
843.5042	-0.0192
843.6696	0.0456
843.835	-0.024
844.0004	-0.0543
844.1657	-0.0165
844.3311	-0.0016
844.4964	-0.0358
844.6617	-0.0367
844.827	0.0717
844.9923	0.0264
845.1575	0.0514
845.3227	-0.0419
845.4879	-0.0037
845.6531	0.0025
845.8183	-0.0145
845.9834	0.0812
846.1485	-0.0749
846.3136	0.0204
846.4787	0.0016
846.6438	0.1062
846.8088	-0.0283
846.9738	0.0089
847.1388	0.0635
847.3038	0.0018
847.4687	0.0661
847.6337	-0.0673
847.7986	0.0842
847.9635	0.0336
848.1284	-0.0431
848.2932	0.0458
848.458	0.0757
848.6228	0.0687
848.7876	0.0251
848.9524	-0.0196
849.1172	0.1222
849.2819	0.0353
849.4466	-0.0073
849.6113	0.0211
849.7759	-0.0147
849.9406	0.0169
850.1052	-0.04
850.2698	0.0263
850.4344	0.0311
850.599	0.0171
850.7635	0.0602
850.928	0.0153
851.0925	0.0375
851.257	0.0213
851.4215	-0.1278
851.5859	0.0125
851.7503	-0.1178
851.9147	0.0715
852.0791	0.0105
852.2434	0.0654
852.4078	-0.1261
852.5721	0.0785
852.7364	-0.0384
852.9007	-0.1585
853.0649	-0.0252
853.2291	0.159
853.3934	0.0116
853.5575	-0.0406
853.7217	0.0404
853.8859	-0.0308
854.05	-0.001
854.2141	0.0937
854.3782	0.0609
854.5423	0.0295
854.7063	-0.0201
854.8703	0.0699
855.0343	0.1152
855.1983	0.0319
855.3623	0.0055
855.5262	0.0818
855.6901	-0.0806
855.854	-0.0017
856.0179	0.042
856.1818	0.0658
856.3456	0.0136
856.5094	0.1281
856.6732	0.0738
856.837	-0.0196
857.0008	-0.2426
857.1645	0.0731
857.3282	0.2558
857.4919	0.0824
857.6556	-0.0139
857.8192	0.0501
857.9828	0.1627
858.1465	-0.0091
858.31	0.0414
858.4736	0.0925
858.6372	-0.066
858.8007	-0.422
858.9642	0.2114
859.1277	-0.128
859.2911	-0.1185
859.4546	0.0571
859.618	-0.2175
859.7814	0.239
859.9448	0.1316
860.1081	0.0914
860.2715	0.19
860.4348	0.1333
860.5981	-0.2053
860.7614	0.0018
860.9246	-0.1396
861.0879	0.022
861.2511	0.1024
861.4143	-0.1696
861.5774	-0.2236
861.7406	-0.1693
861.9037	-0.1701
862.0668	-0.0232
862.2299	0.1319
862.393	-0.0281
862.556	0.4469
862.7191	0.1493
862.8821	-0.2456
863.0451	-0.2145
863.208	0.1856
863.371	-0.6268
863.5339	0.0419
863.6968	-0.2165
863.8597	-0.1458
864.0225	0.0585
864.1854	-0.0312
864.3482	0.1944
864.511	-0.022
864.6737	0.2719
864.8365	0.3776
864.9992	-0.1224
865.1619	-0.2937
865.3246	0.4693
865.4873	-0.0422
865.65	-0.25
865.8126	-0.2343
865.9752	0.049
866.1378	0.2935
866.3004	-0.2797
866.4629	0.3177
866.6254	-0.3331
866.7879	-0.0409
866.9504	-0.0232
867.1129	-0.0773
867.2753	0.7457
867.4377	-0.2564
867.6001	0.5103
867.7625	-0.036
867.9249	-0.4466
868.0872	0.003
868.2495	-0.1033
868.4118	-0.117
868.5741	0.2776
868.7363	-0.2126
868.8986	0.7371
869.0608	-0.3775
869.223	0.003
869.3851	-0.1718
869.5473	0.3842
869.7094	-0.2043
869.8715	0.4046
870.0336	-0
870.1957	-0
870.3577	-0.1683
870.5197	-0.2625
870.6817	1.0383
870.8437	-0.0173
871.0057	-0
871.1676	0.0056
871.3295	-0
871.4914	-0.112
871.6533	-0.0273
871.8151	0.1305
871.977	-0.6675
872.1388	-0
872.3006	0.8537
872.4623	0.3491
872.6241	-0
872.7858	0.2237
872.9475	-0.0161
873.1092	0.2975
873.2709	-0
873.4325	-0.1954
873.5941	0.2115
873.7557	-0.4583
873.9173	-0.2028
874.0789	-0
874.2404	1.2831
874.4019	0.2518
874.5634	-0.4664
874.7249	0.2171
874.8863	-0.2562
875.0478	0.3246
875.2092	-0
875.3706	-0.254
875.5319	-1.1051
875.6933	1.5966
875.8546	-0.0145
876.0159	-0.0178
876.1772	-0.3231
876.3385	-0.301
876.4997	-0
876.6609	-0
876.8221	-0.7845
876.9833	-0
877.1445	-0.1115
877.3056	-0.3277
877.4667	-0.0883
877.6278	-0.0657
877.7889	1.1697
877.9499	-0.0658
878.111	-0
878.272	-0.3105
878.433	-0.0371
878.5939	0.4403
878.7549	0.3585
878.9158	-0.15
879.0767	-0.2095
879.2376	-0.1591
879.3984	0.1786
879.5593	-0.2144
879.7201	0.4046
879.8809	-0.3536
880.0417	1.0744
880.2024	0.2304
880.3632	0.6179
880.5239	-0
880.6846	1.9708
880.8452	-0.3775
881.0059	-0
881.1665	1.341
881.3271	-0.2347
881.4877	-0.4514
881.6483	0.1258
881.8088	-0.1486
881.9693	1.0969
882.1298	1.0969
882.2903	1.0969
