Data from MonoPyChalIsomerACN10uM400nmA_Absorbance_12-08-40-728.txt Node
Date: Fri Jul 05 12:08:40 BST 2024
User: LASERRRRR
Spectrometer: FLMT03099
Trigger mode: 0
Integration Time (sec): 1.000000E-1
Scans to average: 1
Electric dark correction enabled: true
Nonlinearity correction enabled: false
Boxcar width: 0
XAxis mode: Wavelengths
Number of Pixels in Spectrum: 3648
>>>>>Begin Spectral Data<<<<<
179.3399	0.0202
179.5586	0.0202
179.7771	0.0202
179.9957	0.3062
180.2143	-0.8578
180.4329	-0
180.6514	-0.4517
180.8699	0.1525
181.0885	-0.1239
181.307	0.2851
181.5255	-0.6562
181.744	-0
181.9625	0.622
182.181	-0.1155
182.3994	0.427
182.6179	-0.3316
182.8363	-0.3024
183.0547	0.3139
183.2732	0.035
183.4916	0.221
183.71	0.1223
183.9284	-0.0107
184.1467	0.0534
184.3651	0.0254
184.5835	0.1254
184.8018	0.1254
185.0201	0.0602
185.2385	-0.0734
185.4568	0.1168
185.6751	0.0431
185.8934	0.0108
186.1117	0.0699
186.3299	0.1191
186.5482	0.2866
186.7664	0.2357
186.9847	0.1535
187.2029	-0.0193
187.4211	-0.3018
187.6393	-0.0126
187.8575	0.1966
188.0757	0.018
188.2939	0.1123
188.512	0.0699
188.7302	-0.1743
188.9483	0.1628
189.1665	0.1475
189.3846	0.0966
189.6027	0.1829
189.8208	0.0569
190.0389	0.0608
190.257	0.1018
190.475	0.2037
190.6931	0.2043
190.9111	0.2472
191.1292	0.2593
191.3472	0.3718
191.5652	0.0394
191.7832	0.6691
192.0012	0.3714
192.2192	0.5742
192.4371	0.2744
192.6551	0.4087
192.873	0.5265
193.091	0.5747
193.3089	0.3529
193.5268	0.6009
193.7447	0.554
193.9626	0.4679
194.1805	0.6009
194.3984	0.5883
194.6162	0.5868
194.8341	0.6182
195.0519	0.5595
195.2697	0.8033
195.4875	0.566
195.7054	0.634
195.9231	0.8691
196.1409	0.5327
196.3587	0.5602
196.5765	0.5302
196.7942	0.7229
197.012	0.902
197.2297	0.9373
197.4474	0.6281
197.6651	0.7307
197.8828	0.5845
198.1005	0.7216
198.3182	0.7729
198.5358	0.726
198.7535	0.6152
198.9711	0.6379
199.1888	0.81
199.4064	0.9946
199.624	0.7664
199.8416	0.878
200.0592	0.9752
200.2767	0.603
200.4943	0.8206
200.7119	0.7335
200.9294	0.7799
201.1469	0.7392
201.3645	0.6259
201.582	0.5761
201.7995	0.8329
202.017	0.7569
202.2344	0.6562
202.4519	0.7371
202.6694	1.0451
202.8868	0.874
203.1042	0.823
203.3217	0.6324
203.5391	0.6848
203.7565	0.8411
203.9739	0.7673
204.1913	0.9345
204.4086	0.8683
204.626	0.736
204.8433	0.9041
205.0607	0.8789
205.278	0.9194
205.4953	0.8357
205.7126	0.7129
205.9299	0.765
206.1472	0.7429
206.3644	0.6937
206.5817	0.6967
206.7989	0.6742
207.0162	0.8042
207.2334	0.8278
207.4506	0.7137
207.6678	0.7884
207.885	0.6978
208.1022	0.7424
208.3194	0.6471
208.5365	0.7233
208.7537	0.962
208.9708	0.7073
209.1879	0.7776
209.405	0.6892
209.6222	0.863
209.8392	0.8269
210.0563	0.7484
210.2734	0.7377
210.4905	0.7539
210.7075	0.7856
210.9245	0.6986
211.1416	0.7523
211.3586	0.8455
211.5756	0.7677
211.7926	0.7437
212.0096	0.7194
212.2265	0.7469
212.4435	0.7355
212.6604	0.7464
212.8774	0.6968
213.0943	0.7229
213.3112	0.7156
213.5281	0.576
213.745	0.7803
213.9619	0.6723
214.1788	0.7055
214.3956	0.6542
214.6125	0.6249
214.8293	0.7901
215.0461	0.6712
215.2629	0.653
215.4798	0.5998
215.6965	0.6856
215.9133	0.6621
216.1301	0.5783
216.3469	0.6737
216.5636	0.606
216.7803	0.6174
216.9971	0.6581
217.2138	0.6549
217.4305	0.6402
217.6472	0.5995
217.8639	0.6055
218.0805	0.6116
218.2972	0.5545
218.5138	0.6379
218.7305	0.5916
218.9471	0.5705
219.1637	0.5334
219.3803	0.5502
219.5969	0.5833
219.8135	0.5922
220.0301	0.5751
220.2466	0.5444
220.4632	0.5922
220.6797	0.5606
220.8962	0.5708
221.1127	0.5736
221.3292	0.5244
221.5457	0.5934
221.7622	0.557
221.9787	0.5761
222.1951	0.5316
222.4116	0.5436
222.628	0.5959
222.8444	0.5546
223.0608	0.564
223.2772	0.5605
223.4936	0.586
223.71	0.5488
223.9264	0.5604
224.1427	0.5935
224.3591	0.5992
224.5754	0.5515
224.7917	0.5473
225.008	0.5799
225.2243	0.5666
225.4406	0.5618
225.6569	0.568
225.8732	0.5988
226.0894	0.5824
226.3057	0.5637
226.5219	0.583
226.7381	0.5903
226.9543	0.5814
227.1705	0.5648
227.3867	0.5722
227.6029	0.5256
227.8191	0.5696
228.0352	0.5836
228.2513	0.5761
228.4675	0.5597
228.6836	0.5738
228.8997	0.5811
229.1158	0.5321
229.3319	0.5992
229.548	0.576
229.764	0.6109
229.9801	0.5946
230.1961	0.5895
230.4121	0.5832
230.6282	0.5468
230.8442	0.5557
231.0602	0.5597
231.2761	0.5573
231.4921	0.5827
231.7081	0.5751
231.924	0.5663
232.14	0.5809
232.3559	0.5858
232.5718	0.6017
232.7877	0.5849
233.0036	0.6001
233.2195	0.5499
233.4353	0.5743
233.6512	0.5876
233.867	0.5768
234.0829	0.5667
234.2987	0.5945
234.5145	0.5344
234.7303	0.5878
234.9461	0.5724
235.1619	0.5684
235.3776	0.5703
235.5934	0.5444
235.8091	0.582
236.0249	0.5457
236.2406	0.5379
236.4563	0.5753
236.672	0.5497
236.8877	0.5646
237.1034	0.5388
237.319	0.5493
237.5347	0.5569
237.7503	0.542
237.966	0.5258
238.1816	0.5475
238.3972	0.5881
238.6128	0.5398
238.8284	0.5502
239.0439	0.5648
239.2595	0.5508
239.475	0.5481
239.6906	0.53
239.9061	0.522
240.1216	0.543
240.3371	0.5287
240.5526	0.5244
240.7681	0.5273
240.9836	0.5458
241.199	0.5007
241.4145	0.4948
241.6299	0.5094
241.8453	0.4752
242.0607	0.5003
242.2761	0.4801
242.4915	0.4896
242.7069	0.4705
242.9223	0.4692
243.1376	0.4313
243.353	0.4493
243.5683	0.4358
243.7836	0.4092
243.9989	0.4136
244.2142	0.3941
244.4295	0.3788
244.6448	0.3822
244.86	0.3507
245.0753	0.3576
245.2905	0.3763
245.5057	0.3653
245.721	0.3603
245.9362	0.3301
246.1514	0.3284
246.3665	0.3347
246.5817	0.33
246.7969	0.3175
247.012	0.317
247.2271	0.3301
247.4423	0.2908
247.6574	0.3022
247.8725	0.2946
248.0876	0.2786
248.3026	0.2819
248.5177	0.287
248.7328	0.2728
248.9478	0.2686
249.1628	0.2635
249.3779	0.2499
249.5929	0.258
249.8079	0.2507
250.0228	0.2472
250.2378	0.2406
250.4528	0.2392
250.6677	0.2383
250.8827	0.238
251.0976	0.2273
251.3125	0.2422
251.5274	0.2313
251.7423	0.2378
251.9572	0.2296
252.172	0.2184
252.3869	0.225
252.6017	0.2208
252.8166	0.2009
253.0314	0.2106
253.2462	0.2158
253.461	0.2138
253.6758	0.1956
253.8906	0.2161
254.1053	0.2032
254.3201	0.2087
254.5348	0.2158
254.7496	0.188
254.9643	0.1878
255.179	0.1878
255.3937	0.2023
255.6083	0.1897
255.823	0.2022
256.0377	0.195
256.2523	0.1997
256.467	0.1996
256.6816	0.1938
256.8962	0.1982
257.1108	0.1924
257.3254	0.1961
257.54	0.1933
257.7545	0.1951
257.9691	0.1951
258.1836	0.182
258.3981	0.1862
258.6127	0.1908
258.8272	0.1957
259.0417	0.1768
259.2561	0.1881
259.4706	0.1836
259.6851	0.1874
259.8995	0.1874
260.114	0.1772
260.3284	0.1898
260.5428	0.1993
260.7572	0.198
260.9716	0.1816
261.186	0.1836
261.4003	0.1769
261.6147	0.1922
261.829	0.203
262.0433	0.1757
262.2577	0.1738
262.472	0.1892
262.6863	0.1891
262.9005	0.1954
263.1148	0.1853
263.3291	0.1968
263.5433	0.1748
263.7576	0.1925
263.9718	0.1769
264.186	0.1815
264.4002	0.1896
264.6144	0.1813
264.8286	0.1884
265.0427	0.1878
265.2569	0.1883
265.471	0.1896
265.6851	0.1841
265.8993	0.1813
266.1134	0.1838
266.3275	0.1872
266.5415	0.1742
266.7556	0.1939
266.9697	0.1939
267.1837	0.1842
267.3978	0.1924
267.6118	0.1797
267.8258	0.1961
268.0398	0.1952
268.2538	0.1991
268.4677	0.1837
268.6817	0.1827
268.8957	0.2016
269.1096	0.1728
269.3235	0.1843
269.5374	0.1795
269.7514	0.1651
269.9652	0.1773
270.1791	0.1689
270.393	0.1696
270.6068	0.1798
270.8207	0.1789
271.0345	0.1597
271.2483	0.1719
271.4622	0.18
271.676	0.1817
271.8897	0.1718
272.1035	0.171
272.3173	0.1676
272.531	0.1663
272.7448	0.1644
272.9585	0.1658
273.1722	0.163
273.3859	0.1625
273.5996	0.1624
273.8133	0.168
274.0269	0.1617
274.2406	0.1698
274.4542	0.1608
274.6679	0.1681
274.8815	0.1655
275.0951	0.1701
275.3087	0.1697
275.5223	0.1662
275.7358	0.1596
275.9494	0.1681
276.1629	0.1669
276.3765	0.1666
276.59	0.1724
276.8035	0.1582
277.017	0.1685
277.2305	0.157
277.444	0.1732
277.6574	0.1633
277.8709	0.1544
278.0843	0.1766
278.2978	0.1728
278.5112	0.1687
278.7246	0.156
278.938	0.1768
279.1513	0.1795
279.3647	0.1679
279.5781	0.1715
279.7914	0.1805
280.0047	0.1795
280.2181	0.1645
280.4314	0.1708
280.6447	0.1849
280.8579	0.1704
281.0712	0.1728
281.2845	0.179
281.4977	0.174
281.711	0.1709
281.9242	0.1677
282.1374	0.1662
282.3506	0.1732
282.5638	0.1807
282.7769	0.1721
282.9901	0.1787
283.2033	0.1764
283.4164	0.1685
283.6295	0.1847
283.8426	0.1775
284.0557	0.175
284.2688	0.1654
284.4819	0.1798
284.695	0.1765
284.908	0.187
285.1211	0.1811
285.3341	0.1889
285.5471	0.1887
285.7601	0.1906
285.9731	0.1934
286.1861	0.1882
286.3991	0.17
286.612	0.1843
286.825	0.1877
287.0379	0.1805
287.2508	0.1815
287.4637	0.183
287.6766	0.1905
287.8895	0.1941
288.1024	0.1828
288.3152	0.1977
288.5281	0.1764
288.7409	0.1803
288.9538	0.1946
289.1666	0.1889
289.3794	0.1837
289.5922	0.1805
289.8049	0.1752
290.0177	0.1895
290.2304	0.1773
290.4432	0.176
290.6559	0.1999
290.8686	0.1847
291.0813	0.191
291.294	0.1895
291.5067	0.1985
291.7194	0.1793
291.932	0.1838
292.1447	0.1952
292.3573	0.2084
292.5699	0.1951
292.7825	0.1866
292.9951	0.2042
293.2077	0.2041
293.4203	0.1852
293.6328	0.1914
293.8454	0.1904
294.0579	0.2004
294.2704	0.189
294.4829	0.1882
294.6954	0.1958
294.9079	0.1855
295.1204	0.1965
295.3328	0.1799
295.5453	0.1843
295.7577	0.1876
295.9701	0.1833
296.1825	0.188
296.3949	0.1886
296.6073	0.184
296.8197	0.1883
297.0321	0.1796
297.2444	0.1873
297.4567	0.193
297.6691	0.1824
297.8814	0.1894
298.0937	0.1927
298.306	0.1827
298.5182	0.1809
298.7305	0.1773
298.9428	0.1848
299.155	0.1819
299.3672	0.1739
299.5794	0.1896
299.7916	0.1772
300.0038	0.1888
300.216	0.18
300.4282	0.1932
300.6403	0.2009
300.8525	0.1857
301.0646	0.1868
301.2767	0.205
301.4888	0.1848
301.7009	0.1818
301.913	0.182
302.125	0.1769
302.3371	0.1903
302.5491	0.1714
302.7612	0.18
302.9732	0.1767
303.1852	0.1789
303.3972	0.193
303.6092	0.1739
303.8211	0.182
304.0331	0.1759
304.245	0.1642
304.457	0.1737
304.6689	0.1758
304.8808	0.1679
305.0927	0.1804
305.3046	0.1626
305.5164	0.1696
305.7283	0.1717
305.9401	0.1485
306.152	0.1623
306.3638	0.1624
306.5756	0.1567
306.7874	0.1619
306.9992	0.155
307.2109	0.1484
307.4227	0.1614
307.6344	0.1601
307.8462	0.1345
308.0579	0.1484
308.2696	0.1503
308.4813	0.141
308.693	0.1542
308.9046	0.1471
309.1163	0.1395
309.328	0.1376
309.5396	0.1444
309.7512	0.1397
309.9628	0.1258
310.1744	0.1307
310.386	0.1276
310.5976	0.1319
310.8091	0.1302
311.0207	0.1251
311.2322	0.1167
311.4437	0.1185
311.6552	0.1276
311.8667	0.1178
312.0782	0.1125
312.2897	0.1081
312.5012	0.1202
312.7126	0.1231
312.924	0.1075
313.1355	0.1274
313.3469	0.116
313.5583	0.1062
313.7696	0.1159
313.981	0.1079
314.1924	0.1121
314.4037	0.1012
314.6151	0.1092
314.8264	0.1097
315.0377	0.1129
315.249	0.1074
315.4603	0.0994
315.6716	0.1074
315.8828	0.1101
316.0941	0.0936
316.3053	0.0999
316.5165	0.0987
316.7277	0.0916
316.9389	0.1076
317.1501	0.1032
317.3613	0.093
317.5724	0.1049
317.7836	0.0936
317.9947	0.102
318.2058	0.0982
318.417	0.1074
318.6281	0.1003
318.8391	0.091
319.0502	0.0953
319.2613	0.0972
319.4723	0.0965
319.6834	0.0981
319.8944	0.0963
320.1054	0.0917
320.3164	0.1035
320.5274	0.0854
320.7383	0.091
320.9493	0.0905
321.1602	0.1111
321.3712	0.0835
321.5821	0.0993
321.793	0.101
322.0039	0.0985
322.2148	0.1
322.4257	0.0937
322.6365	0.1016
322.8474	0.0955
323.0582	0.1024
323.269	0.1014
323.4798	0.112
323.6906	0.0895
323.9014	0.1007
324.1122	0.1005
324.3229	0.1021
324.5337	0.1078
324.7444	0.1017
324.9551	0.1031
325.1658	0.1154
325.3765	0.1088
325.5872	0.0953
325.7979	0.102
326.0085	0.0846
326.2192	0.0864
326.4298	0.1102
326.6404	0.1058
326.851	0.0992
327.0616	0.105
327.2722	0.0953
327.4828	0.1143
327.6933	0.0975
327.9039	0.1013
328.1144	0.1009
328.3249	0.0917
328.5354	0.0949
328.7459	0.1117
328.9564	0.1012
329.1669	0.1069
329.3773	0.1082
329.5878	0.0973
329.7982	0.094
330.0086	0.0988
330.219	0.0969
330.4294	0.1047
330.6398	0.1092
330.8502	0.1166
331.0605	0.1104
331.2708	0.0949
331.4812	0.1083
331.6915	0.0911
331.9018	0.1068
332.1121	0.1044
332.3224	0.0978
332.5326	0.1108
332.7429	0.0965
332.9531	0.096
333.1633	0.109
333.3735	0.1045
333.5837	0.1081
333.7939	0.0982
334.0041	0.1178
334.2143	0.1173
334.4244	0.117
334.6346	0.083
334.8447	0.1107
335.0548	0.1008
335.2649	0.1056
335.475	0.0981
335.685	0.1005
335.8951	0.1156
336.1051	0.105
336.3152	0.1182
336.5252	0.1076
336.7352	0.115
336.9452	0.1038
337.1552	0.1226
337.3652	0.124
337.5751	0.1146
337.7851	0.0978
337.995	0.1106
338.2049	0.105
338.4148	0.1123
338.6247	0.1087
338.8346	0.1127
339.0445	0.1098
339.2543	0.1196
339.4642	0.1151
339.674	0.1077
339.8838	0.1184
340.0936	0.1197
340.3034	0.1155
340.5132	0.1204
340.7229	0.1243
340.9327	0.1019
341.1424	0.1087
341.3522	0.1111
341.5619	0.1128
341.7716	0.1047
341.9813	0.1192
342.1909	0.1149
342.4006	0.1151
342.6102	0.109
342.8199	0.1046
343.0295	0.115
343.2391	0.1114
343.4487	0.1197
343.6583	0.1232
343.8679	0.1229
344.0774	0.1274
344.287	0.1294
344.4965	0.1217
344.706	0.1257
344.9155	0.1228
345.125	0.1168
345.3345	0.1311
345.544	0.1299
345.7534	0.1331
345.9629	0.1098
346.1723	0.12
346.3817	0.1211
346.5911	0.1296
346.8005	0.1351
347.0099	0.1256
347.2193	0.1314
347.4286	0.1359
347.638	0.1336
347.8473	0.1325
348.0566	0.1264
348.2659	0.1408
348.4752	0.1408
348.6845	0.1338
348.8937	0.1382
349.103	0.1332
349.3122	0.1278
349.5214	0.1349
349.7306	0.1349
349.9398	0.1302
350.149	0.1261
350.3582	0.1373
350.5674	0.1388
350.7765	0.1416
350.9856	0.1341
351.1948	0.1465
351.4039	0.1494
351.613	0.1373
351.822	0.1305
352.0311	0.1485
352.2402	0.1346
352.4492	0.1422
352.6582	0.1453
352.8672	0.1387
353.0762	0.1494
353.2852	0.1535
353.4942	0.1517
353.7032	0.1416
353.9121	0.1328
354.1211	0.1314
354.33	0.145
354.5389	0.1513
354.7478	0.1733
354.9567	0.1475
355.1655	0.1424
355.3744	0.1403
355.5833	0.1754
355.7921	0.1596
356.0009	0.1539
356.2097	0.1395
356.4185	0.1385
356.6273	0.1494
356.8361	0.17
357.0448	0.1419
357.2536	0.1632
357.4623	0.1763
357.671	0.1742
357.8797	0.1618
358.0884	0.1667
358.2971	0.1589
358.5057	0.1691
358.7144	0.1621
358.923	0.1669
359.1316	0.1559
359.3402	0.182
359.5488	0.1739
359.7574	0.1768
359.966	0.1755
360.1746	0.1816
360.3831	0.1583
360.5916	0.1753
360.8002	0.1874
361.0087	0.1854
361.2172	0.1741
361.4256	0.1995
361.6341	0.1704
361.8426	0.1817
362.051	0.1715
362.2594	0.2007
362.4678	0.1753
362.6762	0.1925
362.8846	0.1851
363.093	0.1808
363.3014	0.1875
363.5097	0.1775
363.718	0.1965
363.9264	0.1961
364.1347	0.1965
364.343	0.1884
364.5513	0.1998
364.7595	0.1937
364.9678	0.1942
365.176	0.2001
365.3842	0.1956
365.5925	0.1792
365.8007	0.2017
366.0089	0.2073
366.217	0.2153
366.4252	0.2104
366.6333	0.2037
366.8415	0.2048
367.0496	0.2097
367.2577	0.2166
367.4658	0.2145
367.6739	0.2223
367.882	0.2049
368.09	0.2236
368.2981	0.2065
368.5061	0.2092
368.7141	0.2085
368.9221	0.2192
369.1301	0.2073
369.3381	0.2238
369.5461	0.2301
369.754	0.2117
369.962	0.2112
370.1699	0.2128
370.3778	0.2283
370.5857	0.2218
370.7936	0.2309
371.0015	0.2203
371.2093	0.2421
371.4172	0.2219
371.625	0.2196
371.8328	0.2232
372.0406	0.222
372.2484	0.2249
372.4562	0.2408
372.664	0.2358
372.8717	0.2108
373.0795	0.2209
373.2872	0.2301
373.4949	0.2354
373.7026	0.2358
373.9103	0.2476
374.118	0.2392
374.3256	0.2421
374.5333	0.2398
374.7409	0.2071
374.9485	0.2236
375.1561	0.2434
375.3637	0.2326
375.5713	0.2415
375.7789	0.2427
375.9864	0.2475
376.194	0.2494
376.4015	0.261
376.609	0.2531
376.8165	0.2425
377.024	0.2437
377.2315	0.2287
377.4389	0.2515
377.6464	0.232
377.8538	0.2467
378.0612	0.257
378.2686	0.2505
378.476	0.2572
378.6834	0.2562
378.8908	0.2372
379.0981	0.2615
379.3055	0.2723
379.5128	0.2636
379.7201	0.2669
379.9274	0.2448
380.1347	0.2564
380.342	0.2602
380.5492	0.2775
380.7565	0.2721
380.9637	0.2598
381.1709	0.2642
381.3781	0.2669
381.5853	0.2729
381.7925	0.2773
381.9997	0.2605
382.2068	0.269
382.4139	0.2743
382.6211	0.276
382.8282	0.2448
383.0353	0.258
383.2424	0.2652
383.4494	0.2468
383.6565	0.2616
383.8635	0.2924
384.0706	0.284
384.2776	0.2763
384.4846	0.2645
384.6916	0.2749
384.8986	0.2696
385.1055	0.2546
385.3125	0.2609
385.5194	0.2592
385.7263	0.2784
385.9333	0.2655
386.1402	0.235
386.347	0.2791
386.5539	0.2597
386.7608	0.2708
386.9676	0.2668
387.1744	0.2748
387.3813	0.2803
387.5881	0.277
387.7948	0.2655
388.0016	0.2633
388.2084	0.2759
388.4151	0.2689
388.6219	0.2639
388.8286	0.2534
389.0353	0.2489
389.242	0.2488
389.4487	0.2581
389.6553	0.268
389.862	0.2653
390.0686	0.2575
390.2753	0.2762
390.4819	0.2573
390.6885	0.2674
390.8951	0.262
391.1016	0.2696
391.3082	0.2506
391.5147	0.2672
391.7213	0.2412
391.9278	0.266
392.1343	0.2452
392.3408	0.237
392.5473	0.2524
392.7537	0.2465
392.9602	0.2562
393.1666	0.2416
393.373	0.2146
393.5794	0.2327
393.7858	0.2357
393.9922	0.2607
394.1986	0.2618
394.4049	0.2479
394.6113	0.2334
394.8176	0.241
395.0239	0.2426
395.2302	0.2336
395.4365	0.2202
395.6428	0.2459
395.8491	0.2287
396.0553	0.2288
396.2615	0.245
396.4678	0.2258
396.674	0.2152
396.8802	0.2368
397.0863	0.218
397.2925	0.2286
397.4987	0.2362
397.7048	0.2258
397.9109	0.2385
398.117	0.2141
398.3231	0.2393
398.5292	0.239
398.7353	0.2397
398.9413	0.2124
399.1474	0.2227
399.3534	0.2309
399.5594	0.2309
399.7654	0.2422
399.9714	0.2264
400.1774	0.2181
400.3833	0.2322
400.5893	0.2178
400.7952	0.2364
401.0011	0.2281
401.207	0.2205
401.4129	0.2304
401.6188	0.228
401.8247	0.2251
402.0305	0.2103
402.2364	0.2369
402.4422	0.2208
402.648	0.2243
402.8538	0.2381
403.0596	0.2138
403.2654	0.2342
403.4711	0.214
403.6768	0.2211
403.8826	0.2196
404.0883	0.22
404.294	0.2273
404.4997	0.2176
404.7054	0.2311
404.911	0.2313
405.1167	0.1997
405.3223	0.2244
405.5279	0.2324
405.7335	0.2361
405.9391	0.2417
406.1447	0.2422
406.3502	0.2412
406.5558	0.2286
406.7613	0.2396
406.9668	0.2163
407.1724	0.2273
407.3778	0.2369
407.5833	0.2189
407.7888	0.2185
407.9942	0.2177
408.1997	0.2343
408.4051	0.2224
408.6105	0.2169
408.8159	0.2203
409.0213	0.221
409.2267	0.2326
409.432	0.2327
409.6374	0.2237
409.8427	0.2159
410.048	0.2421
410.2533	0.2148
410.4586	0.1934
410.6639	0.236
410.8691	0.2219
411.0744	0.2229
411.2796	0.2134
411.4848	0.2331
411.69	0.1961
411.8952	0.2152
412.1004	0.2184
412.3056	0.2424
412.5107	0.2121
412.7158	0.2075
412.921	0.2348
413.1261	0.2171
413.3312	0.2226
413.5362	0.2276
413.7413	0.2153
413.9464	0.2339
414.1514	0.228
414.3564	0.2333
414.5614	0.1907
414.7664	0.2375
414.9714	0.2266
415.1764	0.2301
415.3813	0.2057
415.5863	0.2388
415.7912	0.2121
415.9961	0.2461
416.201	0.217
416.4059	0.2039
416.6108	0.2214
416.8156	0.2295
417.0205	0.2065
417.2253	0.2272
417.4301	0.2186
417.6349	0.2231
417.8397	0.226
418.0445	0.2061
418.2492	0.2065
418.454	0.2287
418.6587	0.2277
418.8634	0.2216
419.0681	0.2381
419.2728	0.1967
419.4775	0.2228
419.6822	0.2073
419.8868	0.2152
420.0915	0.1819
420.2961	0.2095
420.5007	0.2101
420.7053	0.2047
420.9099	0.2012
421.1144	0.2266
421.319	0.2078
421.5235	0.2046
421.728	0.2188
421.9325	0.2132
422.137	0.2
422.3415	0.2018
422.546	0.202
422.7504	0.2153
422.9549	0.2088
423.1593	0.1942
423.3637	0.2058
423.5681	0.1907
423.7725	0.1931
423.9769	0.2202
424.1812	0.1982
424.3856	0.2096
424.5899	0.2004
424.7942	0.1908
424.9985	0.1918
425.2028	0.1645
425.4071	0.1791
425.6113	0.1943
425.8156	0.2026
426.0198	0.1935
426.224	0.1678
426.4282	0.1958
426.6324	0.1867
426.8366	0.1776
427.0407	0.1756
427.2449	0.1767
427.449	0.1755
427.6531	0.1742
427.8572	0.1729
428.0613	0.1719
428.2654	0.1572
428.4694	0.1837
428.6735	0.1858
428.8775	0.172
429.0815	0.1662
429.2855	0.1825
429.4895	0.1537
429.6935	0.17
429.8975	0.1577
430.1014	0.1557
430.3053	0.1623
430.5093	0.171
430.7132	0.1554
430.9171	0.16
431.1209	0.1422
431.3248	0.1597
431.5286	0.1507
431.7325	0.1553
431.9363	0.1427
432.1401	0.144
432.3439	0.1574
432.5477	0.1452
432.7514	0.1438
432.9552	0.1333
433.1589	0.1311
433.3627	0.1331
433.5664	0.1262
433.7701	0.1195
433.9737	0.1167
434.1774	0.1307
434.3811	0.1291
434.5847	0.122
434.7883	0.1268
434.9919	0.1331
435.1955	0.114
435.3991	0.1276
435.6027	0.1274
435.8062	0.1128
436.0098	0.1309
436.2133	0.1044
436.4168	0.1199
436.6203	0.1216
436.8238	0.1006
437.0272	0.102
437.2307	0.1271
437.4341	0.0926
437.6375	0.0994
437.841	0.0868
438.0443	0.1099
438.2477	0.1048
438.4511	0.1076
438.6545	0.0995
438.8578	0.0966
439.0611	0.097
439.2644	0.0905
439.4677	0.0843
439.671	0.0797
439.8743	0.091
440.0775	0.0846
440.2808	0.0695
440.484	0.0858
440.6872	0.0848
440.8904	0.0628
441.0936	0.0519
441.2967	0.0655
441.4999	0.0534
441.703	0.0746
441.9062	0.087
442.1093	0.0657
442.3124	0.0723
442.5155	0.0689
442.7185	0.0786
442.9216	0.0593
443.1246	0.0656
443.3276	0.0671
443.5307	0.0658
443.7337	0.0671
443.9366	0.0673
444.1396	0.0565
444.3426	0.0599
444.5455	0.0648
444.7484	0.0577
444.9513	0.0551
445.1542	0.0456
445.3571	0.0571
445.56	0.062
445.7628	0.0515
445.9657	0.0605
446.1685	0.0548
446.3713	0.0483
446.5741	0.0504
446.7769	0.0594
446.9797	0.0491
447.1824	0.0079
447.3852	0.0667
447.5879	0.0499
447.7906	0.0395
447.9933	0.0494
448.196	0.0434
448.3986	0.0409
448.6013	0.0325
448.8039	0.0351
449.0066	0.0401
449.2092	0.0345
449.4118	0.0388
449.6143	0.0268
449.8169	0.0446
450.0195	0.0105
450.222	0.0075
450.4245	0.0238
450.627	0.0188
450.8295	0.0354
451.032	0.0239
451.2345	0.0324
451.4369	0.041
451.6394	0.0308
451.8418	0.014
452.0442	0.0223
452.2466	0.011
452.449	0.0169
452.6513	0.0306
452.8537	0.0341
453.056	0.0075
453.2583	0.0129
453.4607	0.0122
453.663	0.009
453.8652	0.0317
454.0675	-0.0108
454.2697	0.0308
454.472	0.0104
454.6742	0.0149
454.8764	0.0215
455.0786	0.0096
455.2808	-0.0048
455.4829	0.0415
455.6851	0.0296
455.8872	0.0363
456.0893	0.0193
456.2915	0.0218
456.4935	0
456.6956	-0.0097
456.8977	0.0034
457.0997	0.0283
457.3018	0.0129
457.5038	0.0292
457.7058	0.0096
457.9078	0.0038
458.1098	-0.0035
458.3117	0.0137
458.5137	0.013
458.7156	0.0145
458.9175	0.0002
459.1194	0.0062
459.3213	0.0121
459.5232	-0.0057
459.725	0.0197
459.9269	0.0026
460.1287	0.0098
460.3305	0.0081
460.5323	0.0134
460.7341	0.0062
460.9359	0.0141
461.1376	0.0238
461.3394	-0.0082
461.5411	0.0075
461.7428	0.0091
461.9445	0.0155
462.1462	0.0021
462.3479	-0.009
462.5495	-0.0097
462.7512	0.0107
462.9528	0.0158
463.1544	0.0141
463.356	0.0146
463.5576	0.0002
463.7592	-0.0082
463.9607	0.0255
464.1623	0.0066
464.3638	0.0134
464.5653	-0.0054
464.7668	0.001
464.9683	0.0013
465.1697	0.0062
465.3712	0.0026
465.5726	0.0071
465.7741	0.0232
465.9755	-0.0044
466.1769	0.0125
466.3782	-0.0033
466.5796	-0.0054
466.7809	-0.0051
466.9823	-0.0043
467.1836	0.0196
467.3849	0.012
467.5862	-0.006
467.7875	0.0055
467.9887	-0.0001
468.19	-0.0037
468.3912	0.025
468.5924	-0.0054
468.7936	0.0083
468.9948	-0.013
469.196	0.0051
469.3972	-0.0005
469.5983	-0.0044
469.7994	0.0039
470.0006	-0.0227
470.2017	-0.0011
470.4027	-0.0047
470.6038	0.0011
470.8049	-0.01
471.0059	-0.0095
471.2069	0.0077
471.408	-0.0006
471.6089	-0.0029
471.8099	0.0144
472.0109	-0.0064
472.2119	0.0065
472.4128	-0.0145
472.6137	0.011
472.8146	-0.0021
473.0155	-0.0019
473.2164	-0.0133
473.4173	0.0044
473.6181	0.0011
473.819	0.0224
474.0198	-0.0148
474.2206	-0.0039
474.4214	0.0204
474.6222	-0.0018
474.8229	-0.0009
475.0237	0.0068
475.2244	0.0042
475.4251	-0.0013
475.6258	-0.0016
475.8265	-0.0191
476.0272	0.0013
476.2278	-0.0221
476.4285	0.0025
476.6291	-0.0037
476.8297	0.0105
477.0303	0.0087
477.2309	-0.0051
477.4315	-0.0038
477.632	-0.0122
477.8326	-0.0047
478.0331	-0.0268
478.2336	-0.0101
478.4341	-0.0113
478.6346	0.0062
478.8351	-0.0077
479.0355	-0.0129
479.236	0
479.4364	-0.0112
479.6368	0.0029
479.8372	-0.0011
480.0376	-0.0038
480.2379	-0.0026
480.4383	-0.0069
480.6386	-0.0025
480.8389	-0.0041
481.0392	0.001
481.2395	-0.0028
481.4398	-0.0113
481.6401	-0.0142
481.8403	-0.0018
482.0405	-0.0199
482.2408	-0.0284
482.441	-0.0158
482.6411	-0.0124
482.8413	-0.0173
483.0415	-0.0052
483.2416	-0.0169
483.4417	-0.0003
483.6419	-0.0177
483.8419	0.002
484.042	0.0013
484.2421	0.0016
484.4422	-0.0034
484.6422	-0.0021
484.8422	0.0022
485.0422	0.0037
485.2422	-0.0109
485.4422	-0.0047
485.6422	-0.0074
485.8421	-0.0005
486.042	0.0011
486.242	-0.0037
486.4419	-0.0096
486.6417	0.0024
486.8416	-0.0107
487.0415	-0.0094
487.2413	-0.0091
487.4411	-0.0007
487.641	0.0043
487.8408	-0.0135
488.0405	-0.0016
488.2403	-0.0039
488.4401	0.0045
488.6398	-0.011
488.8395	-0.0059
489.0392	-0.0042
489.2389	-0.0211
489.4386	0.0038
489.6383	-0.0154
489.8379	-0.0046
490.0376	0.0042
490.2372	-0.0044
490.4368	-0.0046
490.6364	-0.0125
490.836	-0.0081
491.0355	-0.0071
491.2351	-0.0099
491.4346	-0.0098
491.6341	-0.0013
491.8336	-0.0115
492.0331	-0.0043
492.2326	-0.0098
492.432	-0.0035
492.6315	-0.001
492.8309	-0.0122
493.0303	-0.0125
493.2297	-0.0046
493.4291	-0.0172
493.6284	-0.0148
493.8278	-0.0035
494.0271	-0.0027
494.2264	-0.001
494.4257	-0.0001
494.625	-0.0013
494.8243	-0.0028
495.0236	-0.0066
495.2228	-0.0101
495.422	-0.0094
495.6213	-0.0148
495.8205	-0.0091
496.0196	-0.009
496.2188	0.0023
496.418	-0.0177
496.6171	-0.0105
496.8162	-0.0112
497.0153	-0.0044
497.2144	-0.009
497.4135	-0.0114
497.6126	-0.0242
497.8116	-0.0083
498.0107	-0.0001
498.2097	-0.0083
498.4087	-0.02
498.6077	-0.0069
498.8067	-0.0024
499.0056	-0.013
499.2046	-0.0033
499.4035	-0.0126
499.6024	-0.0101
499.8013	-0.0071
500.0002	-0.0156
500.199	-0.0148
500.3979	-0.0043
500.5967	-0.0196
500.7956	-0.0106
500.9944	-0.0025
501.1932	-0.0107
501.3919	-0.0092
501.5907	-0.0164
501.7895	-0.0244
501.9882	-0.0083
502.1869	-0.0169
502.3856	-0.0113
502.5843	-0.0088
502.783	-0.001
502.9816	-0.0089
503.1803	-0.0062
503.3789	-0.0076
503.5775	-0.0124
503.7761	-0.0168
503.9747	-0.0083
504.1732	-0.0011
504.3718	0.0017
504.5703	-0.0092
504.7689	-0.0098
504.9674	-0.0091
505.1658	-0.0062
505.3643	-0.0054
505.5628	0.0035
505.7612	-0.0014
505.9597	-0.0086
506.1581	-0.0002
506.3565	-0.0146
506.5549	-0.0102
506.7532	0.0103
506.9516	-0.0036
507.1499	-0.0151
507.3482	0.0005
507.5465	0.0095
507.7448	-0.0011
507.9431	-0.0015
508.1414	0.0031
508.3396	-0.0131
508.5379	0.0015
508.7361	-0.0104
508.9343	-0.003
509.1325	0.0008
509.3306	-0.0043
509.5288	-0.0043
509.7269	0.0063
509.9251	0.0032
510.1232	-0.0101
510.3213	0.0018
510.5193	-0.0045
510.7174	-0.0081
510.9154	0.0008
511.1135	-0.0134
511.3115	-0.0039
511.5095	-0.0122
511.7075	-0.0039
511.9055	-0.0041
512.1034	-0.001
512.3014	-0.0107
512.4993	0.002
512.6972	-0.0079
512.8951	-0.0045
513.093	-0.0145
513.2908	-0.008
513.4887	0.0006
513.6865	0
513.8844	0.0011
514.0822	0.0056
514.2799	-0.0024
514.4777	-0.0037
514.6755	0.0005
514.8732	-0.0068
515.0709	-0.0033
515.2687	0.0028
515.4664	-0.0008
515.664	-0.0088
515.8617	-0.0016
516.0594	-0.0107
516.257	-0.0064
516.4546	-0.0188
516.6522	-0.0027
516.8498	-0.0152
517.0474	0.0008
517.2449	-0.0105
517.4425	0.0065
517.64	-0.0038
517.8375	-0.0092
518.035	-0.001
518.2325	-0.0112
518.43	-0.0044
518.6274	-0.0004
518.8249	-0.0002
519.0223	-0.0062
519.2197	0.0027
519.4171	-0.0008
519.6145	-0.0124
519.8118	-0.0087
520.0092	-0.0041
520.2065	-0.0071
520.4038	-0.008
520.6011	-0.0007
520.7984	-0.0003
520.9956	-0.004
521.1929	-0.0021
521.3901	0.0003
521.5874	-0.0101
521.7846	0.0024
521.9818	-0.0057
522.1789	0.0045
522.3761	0.0056
522.5732	-0.0079
522.7704	-0.0062
522.9675	-0.0051
523.1646	0.0003
523.3617	-0.0092
523.5587	-0.0002
523.7558	0.0043
523.9528	0.0031
524.1498	-0.0086
524.3468	0.0031
524.5438	0.0004
524.7408	-0.0026
524.9378	0.0052
525.1347	-0.007
525.3316	0.0007
525.5285	-0.0136
525.7254	0.0014
525.9223	-0.0007
526.1192	-0.0188
526.316	0.0079
526.5129	0.001
526.7097	0.0023
526.9065	0.0115
527.1033	-0.0009
527.3	-0.0036
527.4968	-0.0105
527.6935	0.0075
527.8903	0.0121
528.087	0.0041
528.2837	-0.0001
528.4804	0.0103
528.677	-0.0003
528.8737	-0.0067
529.0703	-0.001
529.2669	-0.002
529.4635	0.0018
529.6601	-0.0037
529.8567	0.0092
530.0532	0.0074
530.2498	0.0039
530.4463	-0.0085
530.6428	-0.0025
530.8393	-0.0063
531.0358	0.0001
531.2322	0.0169
531.4287	0.0017
531.6251	-0.0042
531.8215	-0.0076
532.0179	-0.0081
532.2143	-0.0037
532.4107	0.0028
532.607	0.0045
532.8034	-0.015
532.9997	-0.0006
533.196	0.0099
533.3923	0.0099
533.5886	0.003
533.7848	0.0022
533.9811	0.0036
534.1773	-0.0088
534.3735	0.0004
534.5697	-0.007
534.7659	-0.0001
534.9621	-0.0041
535.1582	0.0029
535.3544	-0.0001
535.5505	-0.0024
535.7466	-0.0003
535.9427	0.0004
536.1387	-0.0014
536.3348	-0.0032
536.5308	-0.0061
536.7269	0.0026
536.9229	0.0033
537.1189	-0.0014
537.3148	-0.0124
537.5108	-0.0034
537.7068	-0.0047
537.9027	-0.0012
538.0986	0.0009
538.2945	0.0069
538.4904	0.002
538.6863	0.0012
538.8821	0.0023
539.078	-0.0042
539.2738	-0.0016
539.4696	-0.0114
539.6654	-0.0023
539.8611	0.0117
540.0569	-0.002
540.2526	0.0054
540.4484	-0.001
540.6441	0.0006
540.8398	-0.0068
541.0355	0.0045
541.2311	-0.0038
541.4268	0.001
541.6224	0.012
541.818	0.0099
542.0136	-0.0098
542.2092	0.0043
542.4048	0.0034
542.6003	-0.0036
542.7959	-0.0003
542.9914	0.0071
543.1869	0.0023
543.3824	-0.0013
543.5779	0.0039
543.7734	-0.0034
543.9688	0.0011
544.1642	0.0035
544.3596	-0.0021
544.555	0.0021
544.7504	0.0042
544.9458	0.006
545.1411	-0.0039
545.3365	0.0054
545.5318	0.0129
545.7271	-0.0011
545.9224	-0.0005
546.1177	-0.0072
546.3129	-0.0055
546.5081	-0.005
546.7034	-0.0006
546.8986	-0.0054
547.0938	0.0034
547.289	0.0015
547.4841	0.0036
547.6793	-0.0054
547.8744	0.0062
548.0695	-0.0014
548.2646	-0.0068
548.4597	-0.0036
548.6548	0.0016
548.8498	0.0036
549.0448	-0.0055
549.2399	0.0014
549.4349	0.0026
549.6298	-0.0002
549.8248	0.0041
550.0198	0.0052
550.2147	-0.001
550.4096	-0.0018
550.6045	-0.0042
550.7994	-0.0105
550.9943	0.0043
551.1892	-0.0033
551.384	0.0013
551.5788	0.0063
551.7737	-0.0097
551.9685	-0.0034
552.1632	0.003
552.358	-0.0003
552.5528	-0.0061
552.7475	-0.0125
552.9422	0.0109
553.1369	-0.0005
553.3316	0.0009
553.5263	0.0117
553.7209	0.0032
553.9156	0.0023
554.1102	-0.0032
554.3048	-0.0029
554.4994	-0.0003
554.694	0.0086
554.8885	0.0013
555.0831	0.0039
555.2776	0.0077
555.4721	0.0066
555.6666	0.0091
555.8611	0.0048
556.0555	0.0087
556.25	0.0076
556.4444	0.0068
556.6388	0.0073
556.8332	0.0013
557.0276	-0.0003
557.222	0.0083
557.4163	0.0065
557.6107	0.0159
557.805	-0.0009
557.9993	0.0019
558.1936	0.0122
558.3879	0.0113
558.5821	0.007
558.7764	0.0036
558.9706	0.0024
559.1648	0.0083
559.359	0.0088
559.5532	-0.0028
559.7473	0.0191
559.9415	0.0116
560.1356	0.012
560.3297	-0.001
560.5238	-0.0006
560.7179	0.0056
560.9119	0.0037
561.106	0.0089
561.3	0.0084
561.494	0.0078
561.688	0.01
561.882	0.0095
562.076	-0.0059
562.2699	0.0031
562.4639	0.0059
562.6578	0.0019
562.8517	0.006
563.0456	0.0093
563.2395	0.0032
563.4333	-0.0122
563.6272	0.0051
563.821	-0.0127
564.0148	0.0019
564.2086	-0.0089
564.4024	-0.0098
564.5961	0.0097
564.7899	0.0007
564.9836	-0.0004
565.1773	0.0101
565.371	0.0113
565.5647	-0.0102
565.7584	0.0047
565.952	-0.0013
566.1456	0.0052
566.3393	0.0039
566.5329	-0.0045
566.7264	0.0061
566.92	-0.0006
567.1136	0.0196
567.3071	0.0003
567.5006	0.0096
567.6941	0.0073
567.8876	0.0042
568.0811	0.0013
568.2745	0.0006
568.468	0.0059
568.6614	-0.003
568.8548	0.0091
569.0482	0.0043
569.2416	0.0062
569.4349	0.0011
569.6283	0.0051
569.8216	0.0057
570.0149	0.0046
570.2082	0.0106
570.4015	0.0018
570.5947	0.0133
570.788	0.003
570.9812	0.0064
571.1744	0.0062
571.3676	0.0062
571.5608	-0.0026
571.754	0.0016
571.9471	0.0029
572.1402	0.0019
572.3333	0.003
572.5264	0.0074
572.7195	-0.0023
572.9126	0.0049
573.1057	0.0056
573.2987	0.0033
573.4917	0.0001
573.6847	-0.0064
573.8777	-0.002
574.0707	0.007
574.2636	0.0071
574.4566	0.005
574.6495	0.0085
574.8424	0.0016
575.0353	-0.0027
575.2281	0.0098
575.421	0.0081
575.6138	0.0021
575.8067	0.0029
575.9995	0.0131
576.1923	0.0073
576.385	0.0011
576.5778	-0.0016
576.7706	0.0124
576.9633	0.0066
577.156	0.0084
577.3487	0.0005
577.5414	0.0045
577.734	-0.0053
577.9267	0.0004
578.1193	0.0066
578.3119	0.0042
578.5045	0.0036
578.6971	-0.0015
578.8897	0.0002
579.0822	0.0025
579.2747	-0.0026
579.4673	0.0084
579.6598	0.0116
579.8522	0.0034
580.0447	0.0001
580.2372	0.0052
580.4296	0.0114
580.622	0.007
580.8144	0.0058
581.0068	0.0034
581.1992	0.0048
581.3915	0.0039
581.5839	0.0083
581.7762	0.0019
581.9685	0.0031
582.1608	0.0046
582.353	0.0039
582.5453	-0.0003
582.7375	-0.005
582.9298	0.0009
583.122	0.0016
583.3142	0.0079
583.5063	0.003
583.6985	0.0022
583.8906	0.004
584.0827	0.0049
584.2749	0.0004
584.4669	-0.0022
584.659	0.0025
584.8511	-0.0017
585.0431	-0.0033
585.2352	-0.0017
585.4272	0.0026
585.6192	0.0006
585.8111	0.0043
586.0031	0.0067
586.195	-0.0005
586.387	0.0015
586.5789	0.0041
586.7708	0.0058
586.9627	0.0022
587.1545	0.0065
587.3464	0.0099
587.5382	-0.0085
587.73	0.012
587.9218	0.0066
588.1136	0.0003
588.3053	0.0028
588.4971	0.0057
588.6888	0.0035
588.8805	-0.0001
589.0722	0.0044
589.2639	0.004
589.4556	-0.0047
589.6472	0.0002
589.8389	-0.0032
590.0305	0.008
590.2221	0.0082
590.4137	0.003
590.6052	0.0046
590.7968	0.009
590.9883	0.0005
591.1798	-0.0084
591.3713	0.0056
591.5628	-0.0002
591.7543	0.0134
591.9458	0.005
592.1372	0.0022
592.3286	0.0072
592.52	0.0031
592.7114	0.009
592.9028	0.001
593.0941	0.0068
593.2855	0.0031
593.4768	0.0006
593.6681	0.0028
593.8594	-0.0002
594.0506	-0.0067
594.2419	0.0088
594.4331	0.0024
594.6244	0.002
594.8156	0.0105
595.0067	-0.0053
595.1979	-0.0003
595.3891	0.0024
595.5802	0.0013
595.7713	-0.0038
595.9624	0.0083
596.1535	0.0079
596.3446	0.0071
596.5357	0.0049
596.7267	0.0057
596.9177	0.0062
597.1087	0.012
597.2997	0.0125
597.4907	-0.0002
597.6817	-0.0016
597.8726	0.0072
598.0635	0.0037
598.2544	0.0077
598.4453	0.0143
598.6362	0.0034
598.827	0.0006
599.0179	0.0077
599.2087	-0.0026
599.3995	0.0057
599.5903	0.0053
599.7811	0.0063
599.9718	0.0017
600.1626	-0.0015
600.3533	0.0021
600.544	0.0005
600.7347	0.0051
600.9254	-0.0012
601.116	-0.0032
601.3067	-0.0056
601.4973	0.0035
601.6879	0.0036
601.8785	0.0097
602.0691	0.0032
602.2596	0.0067
602.4502	0.0038
602.6407	0.0007
602.8312	0.0068
603.0217	0.009
603.2122	-0.0028
603.4027	0.0017
603.5931	0.0012
603.7835	0.0034
603.9739	0.0073
604.1643	0.0069
604.3547	0.0059
604.5451	-0.0016
604.7354	0.0034
604.9257	0.0049
605.116	-0.0019
605.3063	0.0009
605.4966	0.0043
605.6869	0.0147
605.8771	0.0014
606.0673	0.0081
606.2575	0.0021
606.4477	-0.0071
606.6379	0.0081
606.8281	-0.0008
607.0182	0.0063
607.2083	0.0066
607.3985	0.0092
607.5885	0.004
607.7786	0.0027
607.9687	0.0015
608.1587	0.0094
608.3488	0.0066
608.5388	0.0079
608.7288	0.0015
608.9187	0.0023
609.1087	-0.0002
609.2986	0.0054
609.4886	0.0045
609.6785	-0.0027
609.8684	0.005
610.0582	0.0085
610.2481	0.0061
610.4379	0.0037
610.6278	-0.002
610.8176	0.0159
611.0074	0.0019
611.1971	0.0012
611.3869	-0.0017
611.5766	-0.002
611.7664	0.0016
611.9561	0.0116
612.1458	0.0143
612.3354	0.0104
612.5251	0.0123
612.7147	-0.0045
612.9044	0.0124
613.094	0.0046
613.2836	0.0125
613.4731	0.0104
613.6627	0.0047
613.8522	0.0111
614.0417	0.0107
614.2313	0.0117
614.4207	0.0073
614.6102	0.0036
614.7997	0.0021
614.9891	0.0075
615.1785	0.0032
615.3679	0.012
615.5573	0.0112
615.7467	0.0039
615.9361	0.0054
616.1254	0.0016
616.3147	0.0014
616.504	0.0023
616.6933	0.0115
616.8826	0.006
617.0718	0.0076
617.2611	0.0071
617.4503	0.01
617.6395	0.0075
617.8287	0.0098
618.0179	0.0071
618.207	0.0167
618.3961	0.0059
618.5853	0.0136
618.7744	0.0091
618.9634	0.0036
619.1525	0.01
619.3416	0.0037
619.5306	0.008
619.7196	-0.0086
619.9086	0.003
620.0976	0.009
620.2866	0.0099
620.4755	0.0152
620.6645	0.0131
620.8534	0.0087
621.0423	0.007
621.2312	0.0036
621.42	0.0044
621.6089	0.0138
621.7977	0.011
621.9865	0.0137
622.1753	0.0142
622.3641	0.0074
622.5529	0.004
622.7416	0.009
622.9303	0.0086
623.1191	0.0075
623.3078	0.0075
623.4964	0.0142
623.6851	0.0094
623.8737	0.0156
624.0624	0.0033
624.251	0.0065
624.4396	0.0135
624.6282	0.0134
624.8167	0.0142
625.0053	0.0004
625.1938	0.0095
625.3823	0.0102
625.5708	0.0101
625.7593	0.0067
625.9477	0.0101
626.1362	0.0054
626.3246	0.0085
626.513	-0.0024
626.7014	0.0076
626.8898	0.0095
627.0781	0.0053
627.2665	0.0077
627.4548	0.0143
627.6431	0.0031
627.8314	0.0048
628.0197	0.0071
628.2079	0.0048
628.3962	0.0127
628.5844	0.0146
628.7726	0.01
628.9608	0.0133
629.1489	0.003
629.3371	0.012
629.5252	0.0038
629.7134	0.0009
629.9015	0.0076
630.0895	0.0039
630.2776	0.0007
630.4657	0.0067
630.6537	0.0116
630.8417	0.013
631.0297	0.0168
631.2177	0.0151
631.4057	0.0068
631.5936	-0.0017
631.7815	0.0163
631.9695	0.013
632.1574	0.0103
632.3452	0.0174
632.5331	0.0058
632.7209	0.0097
632.9088	-0.0018
633.0966	0.0026
633.2844	0.0032
633.4722	0.004
633.6599	0.0053
633.8477	0.0167
634.0354	0.0119
634.2231	0.0073
634.4108	0.0152
634.5985	0.0044
634.7861	0.0055
634.9738	0.0064
635.1614	0.0068
635.349	0.0056
635.5366	0.0078
635.7242	0.0069
635.9117	0.0062
636.0993	0.0125
636.2868	0.0106
636.4743	0.0035
636.6618	0.0102
636.8492	0.0164
637.0367	0.0067
637.2241	0.0027
637.4115	0.0032
637.5989	0.0203
637.7863	0.0123
637.9737	0.0093
638.161	0.0165
638.3484	0.0095
638.5357	0.0024
638.723	0.0007
638.9103	0.0061
639.0975	0.0018
639.2848	0.0061
639.472	0.0099
639.6592	0.0103
639.8464	0.0078
640.0336	0.0104
640.2208	0.0033
640.4079	0.0015
640.595	0.0042
640.7821	0.001
640.9692	0.0033
641.1563	0.0011
641.3434	0.0102
641.5304	0.0046
641.7174	0.0048
641.9044	0.0056
642.0914	0.0036
642.2784	-0.0065
642.4653	0.0063
642.6523	0.0006
642.8392	0.0116
643.0261	0.0033
643.213	-0.0001
643.3999	0.0072
643.5867	0.0154
643.7735	0.0041
643.9604	0.0041
644.1472	0.0047
644.3339	0.0005
644.5207	0.0079
644.7075	0.0035
644.8942	0.0022
645.0809	0.0061
645.2676	0.0095
645.4543	0.0168
645.6409	0.0025
645.8276	0.0048
646.0142	0.008
646.2008	0.0173
646.3874	0.0132
646.574	0.0056
646.7605	0.0033
646.9471	0.0136
647.1336	0.0155
647.3201	0.0239
647.5066	-0.0003
647.6931	-0.0014
647.8795	0.0047
648.0659	0.0059
648.2524	0.0079
648.4388	0.0086
648.6252	-0.0001
648.8115	-0.0001
648.9979	0.0097
649.1842	0.0045
649.3705	0.0002
649.5568	0.0037
649.7431	0.0062
649.9294	0.0043
650.1156	0.0082
650.3018	0.0152
650.488	0.0003
650.6742	0.0001
650.8604	0.0069
651.0466	0.0069
651.2327	0.0092
651.4188	0.0063
651.6049	0.0127
651.791	0.0138
651.9771	0.0098
652.1632	0.0066
652.3492	0.0087
652.5352	0.0049
652.7212	0.0076
652.9072	-0.005
653.0932	0.0058
653.2791	0.0031
653.465	0.0049
653.651	0.0057
653.8369	0.0045
654.0227	0.0063
654.2086	0.0147
654.3944	0.0107
654.5803	0.0084
654.7661	0.0112
654.9519	0.0011
655.1377	0.0011
655.3234	-0.0007
655.5092	-0.0005
655.6949	-0.0079
655.8806	-0.0036
656.0663	0.0031
656.2519	-0.0021
656.4376	0.0012
656.6232	0.0038
656.8088	0.0098
656.9945	0.0055
657.18	0.0045
657.3656	0.009
657.5511	0.0027
657.7367	-0.0001
657.9222	0.0051
658.1077	0.0047
658.2932	0.0066
658.4786	-0.0018
658.6641	-0.002
658.8495	0.003
659.0349	0.0006
659.2203	0.0016
659.4057	0.0052
659.591	0.0086
659.7764	0.0007
659.9617	0.0039
660.147	0.014
660.3323	0.0027
660.5176	-0.0012
660.7028	-0.0034
660.888	0.0039
661.0733	0.0134
661.2585	0.0101
661.4436	0.0078
661.6288	0.0126
661.8139	0.0079
661.9991	-0.0001
662.1842	-0.0009
662.3693	-0.005
662.5544	0.0112
662.7394	0.007
662.9245	0.0056
663.1095	0.0128
663.2945	0.0021
663.4795	0.0061
663.6644	0.0125
663.8494	0.0024
664.0343	0.0065
664.2193	0.0079
664.4042	0.02
664.589	0.0039
664.7739	0.0099
664.9587	0.0069
665.1436	0.0016
665.3284	0.0039
665.5132	0.003
665.698	0.0114
665.8827	0.0102
666.0675	0.0058
666.2522	0.014
666.4369	0.0079
666.6216	0.0132
666.8063	0.0104
666.9909	0.0043
667.1756	0.0159
667.3602	0.0055
667.5448	0.0086
667.7294	0.0108
667.9139	0.0154
668.0985	0.0069
668.283	-0.0021
668.4675	0.001
668.652	0.0154
668.8365	-0.0045
669.0209	0.0145
669.2054	0.0062
669.3898	0.0037
669.5742	0.0081
669.7586	0.0097
669.943	0.0054
670.1273	0.0126
670.3117	0.0043
670.496	0.0025
670.6803	0.0082
670.8646	0.0118
671.0488	0.007
671.2331	0.0178
671.4173	0.0123
671.6015	0.0024
671.7857	0.0098
671.9699	0.0136
672.1541	-0.0002
672.3382	0.0142
672.5223	0.0116
672.7064	0.013
672.8905	0.009
673.0746	0.0037
673.2587	0.0113
673.4427	0.0103
673.6267	0.0046
673.8107	0.0115
673.9947	0.0071
674.1787	0.0071
674.3626	0.0156
674.5465	0.0065
674.7304	0.0123
674.9143	0.0102
675.0982	0.0012
675.2821	0.0023
675.4659	0.0147
675.6497	0.0007
675.8335	0.012
676.0173	0.012
676.2011	0.0122
676.3849	0.0119
676.5686	0.0176
676.7523	0.0129
676.936	0.0032
677.1197	0.0135
677.3034	0.0024
677.487	0.0105
677.6706	0.0177
677.8542	0.0116
678.0378	0.0121
678.2214	0.006
678.405	0.0146
678.5885	0.0144
678.772	0.0196
678.9555	0.0134
679.139	0.0118
679.3225	0.0125
679.5059	0.009
679.6894	0.0101
679.8728	0.0099
680.0562	0.014
680.2395	0.0086
680.4229	-0.0033
680.6062	0.0018
680.7896	0.011
680.9729	0.0025
681.1562	0.0132
681.3394	0.0131
681.5227	0.0099
681.7059	-0.0005
681.8891	0.0067
682.0723	0.0132
682.2555	0.0059
682.4387	0.0103
682.6218	0.0082
682.805	0.0112
682.9881	0.0203
683.1712	0.0209
683.3542	0.0161
683.5373	0.0147
683.7203	0.0123
683.9034	0.0139
684.0864	0.0028
684.2694	0.0094
684.4523	0.0071
684.6353	0.0033
684.8182	0.0072
685.0011	0.0095
685.184	-0.0001
685.3669	0.0038
685.5498	0.0035
685.7326	0.009
685.9154	0.0099
686.0982	0.0102
686.281	0.0062
686.4638	0.0091
686.6465	0.0104
686.8293	0.0104
687.012	0.0104
687.1947	0.0049
687.3774	0.0102
687.56	0.0132
687.7427	0.0177
687.9253	0.0092
688.1079	0.0146
688.2905	0.0065
688.4731	0.012
688.6556	0.0087
688.8382	0.0047
689.0207	0.0088
689.2032	0.0166
689.3857	0.0075
689.5681	0.0014
689.7506	0.0054
689.933	0.0124
690.1154	0.0052
690.2978	-0.0036
690.4802	0.0054
690.6626	0.0075
690.8449	0.0083
691.0272	0.0094
691.2095	0.0135
691.3918	0.0063
691.5741	0.0111
691.7563	0.0132
691.9386	0.0162
692.1208	0.0028
692.303	0.0069
692.4852	0.0101
692.6673	0.0071
692.8495	0.0107
693.0316	0.0104
693.2137	0.0105
693.3958	0.0161
693.5778	0.0126
693.7599	0.0117
693.9419	0.0115
694.1239	0.0163
694.3059	0.0129
694.4879	0.0096
694.6699	0.0095
694.8518	0.0011
695.0337	0.0017
695.2157	0.0126
695.3975	0.0063
695.5794	0.0097
695.7613	0.011
695.9431	0.0078
696.1249	0.0125
696.3067	0.001
696.4885	0.0107
696.6703	0.0089
696.852	0.0076
697.0337	0.0171
697.2154	0.0137
697.3971	0.0109
697.5788	0.0124
697.7605	0.0053
697.9421	0.0029
698.1237	0.0184
698.3053	0.015
698.4869	0.0112
698.6685	0.0109
698.85	0.0094
699.0315	0.0159
699.213	0.0163
699.3945	0.0066
699.576	0.0152
699.7575	0.0155
699.9389	0.016
700.1203	0.0182
700.3017	0.0148
700.4831	0.0094
700.6645	0.0032
700.8458	0.0128
701.0271	0.0106
701.2084	0.0159
701.3897	-0.0031
701.571	0.0069
701.7523	-0.0032
701.9335	0.001
702.1147	-0.0027
702.2959	0.0002
702.4771	0.0066
702.6583	0.0092
702.8394	0.0059
703.0205	-0.0002
703.2016	0.0037
703.3827	0.0073
703.5638	0.008
703.7449	0.0097
703.9259	0.0105
704.1069	-0.0026
704.2879	0.0098
704.4689	0.0046
704.6499	0.0025
704.8308	0.0104
705.0117	-0.0015
705.1927	0.009
705.3735	-0.0037
705.5544	-0.0046
705.7353	0.0079
705.9161	0.0068
706.0969	0.0043
706.2777	0.0109
706.4585	-0.0026
706.6393	0.0108
706.82	0.0091
707.0007	0.0031
707.1815	0.0021
707.3621	0.0052
707.5428	0.0087
707.7235	0.0058
707.9041	0.0089
708.0847	0.0158
708.2653	0.0152
708.4459	0.0106
708.6265	0.0148
708.807	0.0171
708.9875	0.0184
709.168	0.0166
709.3485	0.006
709.529	0.0033
709.7095	0.0177
709.8899	0.0121
710.0703	0.0032
710.2507	0.0048
710.4311	0.0059
710.6115	0.0041
710.7918	0.0075
710.9721	0.0063
711.1524	0.0092
711.3327	-0.0019
711.513	-0.0028
711.6932	0.0077
711.8735	0.0059
712.0537	0.0009
712.2339	-0.0048
712.4141	0.0002
712.5942	-0.0004
712.7744	0.0061
712.9545	0.0019
713.1346	0.0038
713.3147	0.0021
713.4947	0.0041
713.6748	-0.0013
713.8548	0.0106
714.0348	0.009
714.2148	0.0079
714.3948	-0.0016
714.5748	0.0033
714.7547	0.0023
714.9346	0.0075
715.1145	0.002
715.2944	0.0092
715.4743	0.0048
715.6541	0.0128
715.834	-0.0005
716.0138	0.0121
716.1936	0.0158
716.3733	0.0107
716.5531	0.0171
716.7328	0.015
716.9126	0.013
717.0923	0.0095
717.2719	0.0174
717.4516	0.009
717.6312	0.0116
717.8109	-0.0005
717.9905	0.0081
718.1701	0.0037
718.3496	0.0083
718.5292	0.0055
718.7087	-0.0096
718.8882	-0.0036
719.0677	0.009
719.2472	0.0057
719.4267	0.0047
719.6061	0.0013
719.7856	0.0134
719.965	0.0029
720.1443	0.0099
720.3237	0.0076
720.5031	0.0051
720.6824	0.0097
720.8617	0.0096
721.041	0.0041
721.2203	0.0151
721.3995	0.0125
721.5788	0.0051
721.758	-0.0016
721.9372	0.0104
722.1164	0.0063
722.2956	0.0058
722.4747	0.0118
722.6538	-0.0034
722.8329	0.0085
723.012	-0.0014
723.1911	0.0087
723.3702	0.007
723.5492	0.0046
723.7282	0.0111
723.9072	0.0008
724.0862	0.0147
724.2652	0.0079
724.4441	0.0029
724.623	0.0138
724.8019	-0.0023
724.9808	0.0104
725.1597	0.0086
725.3385	0.0187
725.5174	0.0046
725.6962	-0
725.875	0.0111
726.0538	0.0032
726.2325	0.0055
726.4112	-0.0049
726.59	0.0097
726.7687	0.0032
726.9474	0
727.126	-0.0038
727.3047	-0.0054
727.4833	0.0015
727.6619	0.0005
727.8405	0.0003
728.0191	0.0079
728.1976	0.0028
728.3762	0.0044
728.5547	-0.005
728.7332	0.0074
728.9116	-0.0014
729.0901	0.0091
729.2686	0.0065
729.447	0.0009
729.6254	-0.0005
729.8038	0.013
729.9821	0.01
730.1605	0.0072
730.3388	0.001
730.5171	-0.0003
730.6954	0.0031
730.8737	0.0102
731.0519	0.0015
731.2302	0.0025
731.4084	0.0016
731.5866	-0.0049
731.7648	-0.0022
731.9429	0.0028
732.1211	-0.0043
732.2992	0.0066
732.4773	-0.001
732.6554	0.0032
732.8335	0.0009
733.0115	0.0023
733.1896	0.0046
733.3676	0.0036
733.5456	-0.0001
733.7235	-0.0034
733.9015	0.0126
734.0794	-0.0015
734.2574	0.0071
734.4353	0.0057
734.6131	0.0059
734.791	0.0082
734.9689	0.0143
735.1467	0.0023
735.3245	-0.0023
735.5023	0.0071
735.68	0.0156
735.8578	0.0072
736.0355	0.0049
736.2132	0.0162
736.3909	0.0126
736.5686	0.0165
736.7463	0.0151
736.9239	0.0184
737.1015	0.0126
737.2791	0.0195
737.4567	0.0073
737.6343	0.0057
737.8118	0.0091
737.9894	0.003
738.1669	0.0041
738.3444	0.0049
738.5218	0.0033
738.6993	0.0074
738.8767	0.0025
739.0541	0.0065
739.2315	0.0073
739.4089	0.0194
739.5863	0.0092
739.7636	-0.001
739.9409	0.0035
740.1182	0.0017
740.2955	0.0058
740.4728	0.0088
740.65	-0.0059
740.8272	0.003
741.0044	0.0011
741.1816	0.0009
741.3588	0.0062
741.5359	0.01
741.7131	0.0109
741.8902	-0.0017
742.0673	0.0147
742.2444	0.0059
742.4214	-0.0014
742.5985	0.0022
742.7755	-0.0006
742.9525	0.0077
743.1295	0.0054
743.3064	0.007
743.4834	0.0056
743.6603	-0.0036
743.8372	-0.0057
744.0141	0.0044
744.191	0.0086
744.3678	0.0034
744.5446	-0.0089
744.7215	0.0138
744.8982	0.0009
745.075	0.004
745.2518	0.0073
745.4285	-0.0077
745.6052	0.0016
745.7819	-0.0149
745.9586	-0.0021
746.1353	-0.0039
746.3119	0.0149
746.4885	0.0088
746.6651	-0.0025
746.8417	0.0058
747.0183	0.0085
747.1948	0.0082
747.3714	0.0035
747.5479	-0.0001
747.7244	0.0078
747.9008	0.0087
748.0773	0.002
748.2537	0.0055
748.4301	0.0079
748.6065	0.0061
748.7829	0.0041
748.9593	0.0184
749.1356	0.0108
749.3119	0.0145
749.4882	0.0069
749.6645	0.0012
749.8408	0.0093
750.017	0.0097
750.1933	0.0149
750.3695	0.0155
750.5457	0.0096
750.7218	0.0042
750.898	0.013
751.0741	0.0144
751.2502	0.0191
751.4263	0.0223
751.6024	0.0155
751.7784	-0.0022
751.9545	0.0096
752.1305	0.0026
752.3065	0.014
752.4825	0.0069
752.6584	0.0179
752.8344	0.0122
753.0103	0.0127
753.1862	0.0068
753.3621	0.0059
753.5379	0.0036
753.7138	0.0046
753.8896	0.0059
754.0654	0.0003
754.2412	-0.0033
754.417	0.0124
754.5927	0.0111
754.7685	0.01
754.9442	0.0067
755.1199	0.0091
755.2956	0.012
755.4712	0.0046
755.6469	0.0119
755.8225	0.0106
755.9981	0.0007
756.1736	0.0005
756.3492	0.0118
756.5248	0.0134
756.7003	0.0002
756.8758	0.0201
757.0513	0.0107
757.2267	0.0054
757.4022	0.0125
757.5776	0.0045
757.753	0.0031
757.9284	0.0046
758.1038	-0.0067
758.2791	0.013
758.4545	0.0101
758.6298	0.0121
758.8051	0.0052
758.9803	0.0101
759.1556	-0.0015
759.3308	0.0101
759.506	0.01
759.6812	-0.0007
759.8564	0.0028
760.0316	0.0156
760.2067	0.0116
760.3819	-0.0047
760.557	0.0061
760.732	0.0043
760.9071	0.0098
761.0821	0.0068
761.2572	0.0167
761.4322	0.0073
761.6072	0.0039
761.7821	-0.0052
761.9571	0.0144
762.132	0.0024
762.3069	0.0101
762.4818	0.0007
762.6567	0.0051
762.8316	0.0057
763.0064	0.0009
763.1812	0.0161
763.356	0.0009
763.5308	0.0125
763.7055	0.0116
763.8803	0.0055
764.055	0.0004
764.2297	0.0186
764.4044	0.0012
764.579	0.0093
764.7537	0.0126
764.9283	0.0157
765.1029	0.0094
765.2775	0.0067
765.4521	-0.0029
765.6266	0.0017
765.8011	0.0041
765.9756	-0.0039
766.1501	0.0021
766.3246	-0.0009
766.4991	0.0061
766.6735	0.0017
766.8479	0.0035
767.0223	-0.0031
767.1967	0.0008
767.371	0.0068
767.5454	-0.0051
767.7197	-0.0001
767.894	-0.0038
768.0683	0.0127
768.2425	0.0062
768.4168	0.0107
768.591	-0.0045
768.7652	-0.0031
768.9394	0.0011
769.1135	0.013
769.2877	0.0107
769.4618	0.0108
769.6359	0.0128
769.81	0.007
769.984	0.0152
770.1581	0.0033
770.3321	0.0149
770.5061	0.0004
770.6801	-0.0034
770.8541	0.0116
771.028	0.0175
771.202	-0.0056
771.3759	-0.0041
771.5498	0.0177
771.7236	-0.0018
771.8975	0.007
772.0713	0.0123
772.2451	0.0096
772.4189	-0.0001
772.5927	-0.0012
772.7665	-0.0014
772.9402	0.0149
773.1139	0.0018
773.2876	-0.0062
773.4613	0.0005
773.635	0.008
773.8086	-0.0014
773.9822	0.0157
774.1558	0.0161
774.3294	0.013
774.503	0.0019
774.6765	0.0229
774.8501	0.0086
775.0236	0.0063
775.1971	0.0086
775.3705	0.0154
775.544	0.0142
775.7174	0.0135
775.8908	0.0135
776.0642	0.0106
776.2376	0.0063
776.4109	0.0037
776.5843	0.0146
776.7576	0.0021
776.9309	0.0133
777.1041	0.0123
777.2774	-0.0002
777.4506	0.0096
777.6238	-0.0043
777.797	0.0198
777.9702	0.0066
778.1434	0.0258
778.3165	0.0101
778.4896	0.0111
778.6627	0.0038
778.8358	0.0055
779.0089	-0.004
779.1819	-0.0036
779.3549	0.0169
779.5279	0.0122
779.7009	0.0078
779.8739	0.0017
780.0468	0.0031
780.2197	0.0125
780.3926	-0.0054
780.5655	-0.0051
780.7384	0.0019
780.9112	0.0054
781.0841	0.0047
781.2569	-0.0077
781.4297	-0.02
781.6024	0.0052
781.7752	-0.0156
781.9479	-0.0071
782.1206	0.0108
782.2933	0.0062
782.466	-0.0018
782.6386	0.0211
782.8113	-0.0042
782.9839	0.0033
783.1565	0.0058
783.329	-0.0047
783.5016	-0.0042
783.6741	0.007
783.8466	0.0092
784.0191	0.012
784.1916	0.0093
784.3641	0.0053
784.5365	0.0089
784.7089	0.0088
784.8813	0.0058
785.0537	-0.0133
785.2261	0.0093
785.3984	0.0054
785.5707	0.0077
785.743	0.0028
785.9153	0.0004
786.0876	0.0065
786.2598	0.0043
786.432	0.011
786.6042	0.0083
786.7764	0.0124
786.9486	0.0025
787.1207	0.0006
787.2928	-0.0008
787.4649	-0.0023
787.637	0.0052
787.8091	0.003
787.9811	-0.0038
788.1532	0.0044
788.3252	-0.0015
788.4972	0.0019
788.6691	0.0086
788.8411	-0.005
789.013	0.0058
789.1849	0.0081
789.3568	0.0194
789.5287	0.0081
789.7005	0.0114
789.8723	0.0097
790.0442	0.0088
790.2159	-0.0099
790.3877	0.0237
790.5595	0.0066
790.7312	0.0003
790.9029	0.0046
791.0746	0.0093
791.2463	0.0186
791.4179	0.0082
791.5896	0.0193
791.7612	0.0254
791.9328	-0.0029
792.1044	0.0155
792.2759	0.0075
792.4474	-0.006
792.619	0.0013
792.7905	0.0238
792.9619	0.0093
793.1334	0.0222
793.3048	0.0157
793.4762	0.0048
793.6476	-0.0044
793.819	0.0197
793.9904	0.0088
794.1617	-0.0036
794.333	-0.0024
794.5043	0.007
794.6756	-0.0048
794.8469	0.0068
795.0181	0.0027
795.1893	-0.0153
795.3605	0.016
795.5317	-0.0001
795.7029	0.0056
795.874	0.0002
796.0452	0.007
796.2163	0.0072
796.3873	0.0174
796.5584	0.0079
796.7294	0.0087
796.9005	0.0111
797.0715	0.0118
797.2425	0.0004
797.4134	0.0156
797.5844	0.0091
797.7553	0.0106
797.9262	0.0041
798.0971	0.0246
798.2679	0.0134
798.4388	-0.0048
798.6096	-0.0151
798.7804	0.0078
798.9512	0.0114
799.122	0.0206
799.2927	-0.0018
799.4635	0.0195
799.6342	0.0314
799.8049	0.0108
799.9755	0.008
800.1462	0.0073
800.3168	0.0193
800.4874	-0.012
800.658	0.0111
800.8286	0.0069
800.9991	0.0099
801.1696	0.0099
801.3402	0.0117
801.5106	0.0123
801.6811	-0.0129
801.8516	0.0074
802.022	0.0169
802.1924	0.0021
802.3628	0.0139
802.5332	0.005
802.7035	-0.0132
802.8739	-0.0001
803.0442	0.0078
803.2145	0.0076
803.3847	-0.0024
803.555	0.0013
803.7252	0.0226
803.8954	0.0067
804.0656	-0.0043
804.2358	0.0027
804.4059	0.022
804.5761	0.0073
804.7462	-0.0018
804.9163	0.004
805.0864	0.0085
805.2564	0.0123
805.4264	0.0064
805.5965	0.0043
805.7665	0.0282
805.9364	-0.0174
806.1064	0.0073
806.2763	0.0175
806.4462	-0.0002
806.6161	0.013
806.786	0.0106
806.9559	0.0183
807.1257	0.0229
807.2955	0.0223
807.4653	0.0239
807.6351	0.0182
807.8048	0.0105
807.9746	0.0129
808.1443	0.0088
808.314	0.0185
808.4837	0.0241
808.6533	0.026
808.8229	0.0281
808.9926	0.0228
809.1622	0.0268
809.3317	0.0255
809.5013	0.0321
809.6708	0.0252
809.8403	0.0176
810.0098	0.0152
810.1793	0.0045
810.3488	-0.0087
810.5182	0.0439
810.6876	0.0136
810.857	0.015
811.0264	0.0026
811.1958	0.0037
811.3651	-0.0042
811.5344	0.0143
811.7037	-0.0004
811.873	0.0143
812.0422	0.0094
812.2115	0.0095
812.3807	0.0039
812.5499	0.0058
812.7191	0.0126
812.8882	-0.001
813.0574	0.0009
813.2265	0.0478
813.3956	0.0091
813.5646	0.005
813.7337	0.0153
813.9027	0.0146
814.0718	0.0266
814.2407	0.0067
814.4097	0.0237
814.5787	-0.0008
814.7476	0.0078
814.9165	0.0049
815.0854	-0.0166
815.2543	0.0155
815.4232	-0.0013
815.592	-0.0259
815.7608	0.0244
815.9296	0.006
816.0984	0.021
816.2671	-0.0074
816.4359	-0.0032
816.6046	-0.0113
816.7733	-0.0037
816.942	-0.0086
817.1106	0.0047
817.2793	0.0138
817.4479	-0.0069
817.6165	-0.0021
817.785	0.0076
817.9536	0.0059
818.1221	0.0001
818.2906	0.017
818.4591	0.0101
818.6276	0.0077
818.7961	0.0154
818.9645	0.0403
819.1329	0.0103
819.3013	0.0075
819.4697	0.0068
819.638	-0.0006
819.8064	0.0281
819.9747	-0.0024
820.143	-0.0092
820.3113	0.0054
820.4795	0.0147
820.6477	-0.0158
820.816	-0.0459
820.9842	0.0077
821.1523	0.0327
821.3205	0.0004
821.4886	-0.027
821.6567	-0.0123
821.8248	0.005
821.9929	-0.0045
822.1609	-0.0264
822.329	0.0116
822.497	-0.0056
822.665	-0.0135
822.833	-0.0124
823.0009	-0.0021
823.1688	0.014
823.3367	0.0153
823.5046	-0.0151
823.6725	-0.0156
823.8404	-0.0133
824.0082	0.0108
824.176	0.0279
824.3438	0.0037
824.5116	0.0233
824.6793	-0.0036
824.847	0.031
825.0147	-0.0118
825.1824	-0.0103
825.3501	0.0095
825.5177	-0.0007
825.6854	0.0113
825.853	0.0343
826.0206	0.0001
826.1881	0.0083
826.3557	0.0188
826.5232	0.0071
826.6907	0.0378
826.8582	0.0201
827.0257	0.0336
827.1931	0.0021
827.3605	0.0226
827.528	0.0321
827.6953	0.0138
827.8627	0.0346
828.03	0.0425
828.1974	0.0272
828.3647	0.0099
828.532	0.0172
828.6992	0.0217
828.8665	0.0501
829.0337	0.0104
829.2009	0.0406
829.3681	-0.0272
829.5352	0.001
829.7024	0.0112
829.8695	0.0355
830.0366	0.0285
830.2037	-0.0224
830.3707	0.0165
830.5378	-0.0308
830.7048	0.0001
830.8718	-0.0175
831.0388	-0.0296
831.2057	0.0001
831.3727	0.0304
831.5396	0.0066
831.7065	-0.0236
831.8734	0.0076
832.0402	-0.0092
832.2071	0.0216
832.3739	0.0071
832.5407	0.0121
832.7075	-0.0132
832.8742	0.0169
833.041	0.0091
833.2077	0.0479
833.3744	0.0433
833.541	0.0156
833.7077	0.0115
833.8743	0.0379
834.0409	0.0368
834.2075	-0.0236
834.3741	0.0355
834.5407	0.0058
834.7072	0.0039
834.8737	0.0063
835.0402	0.0434
835.2067	-0.0252
835.3731	0.0082
835.5395	-0.0284
835.706	0.0096
835.8723	-0.0102
836.0387	0.0278
836.2051	-0.0192
836.3714	-0.0573
836.5377	-0.019
836.704	0.0023
836.8703	-0.0247
837.0365	-0.0453
837.2027	-0.0199
837.3689	-0.0507
837.5351	-0.0059
837.7013	-0.005
837.8674	0.0283
838.0335	0.0106
838.1997	-0.0403
838.3657	-0.0034
838.5318	0.044
838.6978	-0.0089
838.8639	-0.0278
839.0299	0.0203
839.1958	0.0106
839.3618	-0.0481
839.5277	0.0161
839.6937	-0.0142
839.8596	0.012
840.0254	0.0058
840.1913	0.0098
840.3571	-0.0185
840.523	-0.0124
840.6888	-0.0205
840.8545	-0.0022
841.0203	0.0249
841.186	0.0305
841.3517	-0.0138
841.5174	-0.0088
841.6831	0.0127
841.8488	0.057
842.0144	0.0892
842.18	-0.0252
842.3456	0.0561
842.5112	0.0115
842.6767	0.0242
842.8422	0.0011
843.0077	0.0358
843.1732	-0.0332
843.3387	-0.0627
843.5042	-0.0422
843.6696	0.0313
843.835	-0.0091
844.0004	-0.0716
844.1657	0.0179
844.3311	-0.0286
844.4964	-0.0579
844.6617	-0.0812
844.827	0.0737
844.9923	0.0166
845.1575	0.0156
845.3227	0.0014
845.4879	-0.0079
845.6531	0.0086
845.8183	-0.0386
845.9834	-0.0532
846.1485	-0.001
846.3136	-0.0061
846.4787	0.0364
846.6438	0.0719
846.8088	-0.0208
846.9738	-0.0159
847.1388	-0.0067
847.3038	0.0003
847.4687	-0.0253
847.6337	-0.0868
847.7986	0.0435
847.9635	0.0889
848.1284	-0.012
848.2932	-0.0037
848.458	0.0281
848.6228	0.1971
848.7876	0.0057
848.9524	0.0326
849.1172	0.0177
849.2819	0.0203
849.4466	-0.0264
849.6113	0.0236
849.7759	-0.0442
849.9406	0.0638
850.1052	-0.0543
850.2698	0.0533
850.4344	-0.0719
850.599	-0.0695
850.7635	-0.0106
850.928	-0.0305
851.0925	0.0592
851.257	-0.0262
851.4215	-0.0677
851.5859	0.106
851.7503	-0.074
851.9147	0.0293
852.0791	0.0062
852.2434	0.0466
852.4078	-0.1297
852.5721	0.1021
852.7364	-0.037
852.9007	-0.1887
853.0649	-0.0271
853.2291	0.1161
853.3934	0.0475
853.5575	-0.0174
853.7217	0.067
853.8859	-0.0165
854.05	0.0716
854.2141	0.1051
854.3782	0.0605
854.5423	0.0795
854.7063	0.1267
854.8703	-0.0477
855.0343	-0.0107
855.1983	-0.0373
855.3623	-0.1051
855.5262	0.0391
855.6901	-0.0454
855.854	0.0283
856.0179	-0.0274
856.1818	0.0133
856.3456	-0.0441
856.5094	-0.0418
856.6732	-0.0435
856.837	0.0038
857.0008	-0.2624
857.1645	0.0657
857.3282	0.201
857.4919	-0.1317
857.6556	-0.0782
857.8192	-0.1152
857.9828	-0.0247
858.1465	-0.0433
858.31	0.1331
858.4736	0.0852
858.6372	-0.1527
858.8007	-0.2902
858.9642	0.0798
859.1277	-0.1481
859.2911	-0.0101
859.4546	0.0446
859.618	-0.4595
859.7814	0.2026
859.9448	-0.027
860.1081	-0.045
860.2715	-0.0269
860.4348	-0.0053
860.5981	0.0477
860.7614	0.2276
860.9246	0.0265
861.0879	0.0744
861.2511	0.2646
861.4143	-0.0208
861.5774	-0.062
861.7406	-0.1092
861.9037	-0.2958
862.0668	-0.0514
862.2299	-0.0603
862.393	0.1504
862.556	0.0405
862.7191	0.0268
862.8821	-0.168
863.0451	-0.1074
863.208	0.0502
863.371	-0.5968
863.5339	-0.0848
863.6968	0.0028
863.8597	0.0658
864.0225	-0.1375
864.1854	0.0018
864.3482	0.0775
864.511	-0.0414
864.6737	-0.0867
864.8365	0.0011
864.9992	-0.0358
865.1619	-0.1509
865.3246	0.1092
865.4873	-0.0948
865.65	-0.3477
865.8126	0.1776
865.9752	0.13
866.1378	0.1616
866.3004	-0
866.4629	0.2232
866.6254	-0.4432
866.7879	-0.2032
866.9504	0.6139
867.1129	0.0874
867.2753	0.1787
867.4377	-0.2485
867.6001	0.5593
867.7625	0.0751
867.9249	-0.5565
868.0872	0.4262
868.2495	0.336
868.4118	0.0501
868.5741	-0.193
868.7363	-0
868.8986	-0.0612
869.0608	0.5908
869.223	-0.3192
869.3851	-0.1668
869.5473	-0.1318
869.7094	0.0147
869.8715	-0
870.0336	-0
870.1957	-0
870.3577	-0.3159
870.5197	0.4026
870.6817	-0.0214
870.8437	0.3667
871.0057	0.0835
871.1676	-0.2886
871.3295	-0
871.4914	-0
871.6533	0.1057
871.8151	-0.359
871.977	-0
872.1388	0.4615
872.3006	0.2445
872.4623	-0.0183
872.6241	-0.7037
872.7858	0.2651
872.9475	0.2793
873.1092	0.1209
873.2709	-0
873.4325	-0
873.5941	0.3002
873.7557	-0.725
873.9173	-0.2559
874.0789	-0
874.2404	0.0468
874.4019	-0
874.5634	-0.1182
874.7249	0.0782
874.8863	-0.2951
875.0478	0.2255
875.2092	-0.3601
875.3706	-0.3585
875.5319	-0.6021
875.6933	-0.3946
875.8546	-0.2257
876.0159	0.0544
876.1772	0.4586
876.3385	-0.4863
876.4997	0.1525
876.6609	-0
876.8221	-0.6161
876.9833	-0
877.1445	-0.0684
877.3056	-0.0487
877.4667	0.0015
877.6278	0.0929
877.7889	0.0162
877.9499	-0.0199
878.111	-0
878.272	-0.1359
878.433	-0.1447
878.5939	-0.0833
878.7549	0.0964
878.9158	-0.1807
879.0767	-0.3775
879.2376	0.3005
879.3984	-0
879.5593	-0
879.7201	-0.1484
879.8809	-0.1692
880.0417	-0.0717
880.2024	0.7009
880.3632	1.04
880.5239	-0.0723
880.6846	-0.7485
880.8452	-0.0796
881.0059	-0.8474
881.1665	-0.1402
881.3271	-0.3959
881.4877	-0
881.6483	0.6101
881.8088	-0.2269
881.9693	-0.4197
882.1298	-0.4197
882.2903	-0.4197
