Data from MonoPyChalIsomerACN10uM400nmA_Absorbance_12-08-42-928.txt Node
Date: Fri Jul 05 12:08:42 BST 2024
User: LASERRRRR
Spectrometer: FLMT03099
Trigger mode: 0
Integration Time (sec): 1.000000E-1
Scans to average: 1
Electric dark correction enabled: true
Nonlinearity correction enabled: false
Boxcar width: 0
XAxis mode: Wavelengths
Number of Pixels in Spectrum: 3648
>>>>>Begin Spectral Data<<<<<
179.3399	0.1262
179.5586	0.1262
179.7771	0.1262
179.9957	0.5869
180.2143	-0
180.4329	-0
180.6514	-0
180.8699	0.2501
181.0885	0.6437
181.307	0.1807
181.5255	-0.5163
181.744	-0
181.9625	-0.5338
182.181	-0
182.3994	-0.3689
182.6179	0.2501
182.8363	-0
183.0547	0.3952
183.2732	0.2209
183.4916	0.1142
183.71	0.069
183.9284	0.0521
184.1467	-0.1464
184.3651	-0.007
184.5835	0.2541
184.8018	0.0986
185.0201	0.3838
185.2385	-0.085
185.4568	0.2562
185.6751	-0.0461
185.8934	0.032
186.1117	0.0564
186.3299	0.0835
186.5482	0.1171
186.7664	0.0131
186.9847	0.1551
187.2029	-0.0415
187.4211	-0.3006
187.6393	-0.0903
187.8575	0.1273
188.0757	0.0368
188.2939	0.1173
188.512	-0.0063
188.7302	-0.1801
188.9483	0.1491
189.1665	0.0926
189.3846	0.0534
189.6027	-0.0143
189.8208	0.139
190.0389	0.1783
190.257	0.1139
190.475	0.4431
190.6931	0.281
190.9111	0.193
191.1292	0.4108
191.3472	0.1666
191.5652	0.183
191.7832	0.2992
192.0012	0.6901
192.2192	0.6478
192.4371	0.3515
192.6551	0.3563
192.873	0.6249
193.091	0.3817
193.3089	0.3655
193.5268	0.6612
193.7447	0.6726
193.9626	0.5866
194.1805	0.4484
194.3984	0.3647
194.6162	0.4208
194.8341	0.482
195.0519	0.6515
195.2697	0.5008
195.4875	0.703
195.7054	0.5165
195.9231	0.5278
196.1409	0.5415
196.3587	0.4298
196.5765	0.5946
196.7942	0.8223
197.012	0.5951
197.2297	0.7009
197.4474	0.7923
197.6651	0.5197
197.8828	0.666
198.1005	0.6066
198.3182	0.6812
198.5358	0.6854
198.7535	0.5999
198.9711	0.6038
199.1888	0.7889
199.4064	1.0756
199.624	0.7717
199.8416	0.8634
200.0592	0.6497
200.2767	0.637
200.4943	0.6277
200.7119	0.6573
200.9294	0.6441
201.1469	0.7477
201.3645	0.7234
201.582	0.7024
201.7995	0.8163
202.017	0.8117
202.2344	0.7764
202.4519	0.6411
202.6694	0.9701
202.8868	0.7338
203.1042	0.7539
203.3217	0.8394
203.5391	0.8529
203.7565	0.8603
203.9739	0.6528
204.1913	0.803
204.4086	0.8365
204.626	0.718
204.8433	0.9659
205.0607	0.7512
205.278	0.9204
205.4953	0.7861
205.7126	0.6752
205.9299	0.8673
206.1472	0.7535
206.3644	0.7008
206.5817	0.6907
206.7989	0.6242
207.0162	0.7572
207.2334	0.8041
207.4506	0.8015
207.6678	0.7562
207.885	0.7466
208.1022	0.8413
208.3194	0.7041
208.5365	0.7926
208.7537	0.8282
208.9708	0.6998
209.1879	0.7984
209.405	0.7036
209.6222	0.8182
209.8392	0.7118
210.0563	0.8218
210.2734	0.7575
210.4905	0.717
210.7075	0.8225
210.9245	0.7622
211.1416	0.7156
211.3586	0.7922
211.5756	0.8298
211.7926	0.7271
212.0096	0.7505
212.2265	0.7177
212.4435	0.7672
212.6604	0.7269
212.8774	0.7424
213.0943	0.7136
213.3112	0.7733
213.5281	0.6137
213.745	0.741
213.9619	0.7418
214.1788	0.6857
214.3956	0.6998
214.6125	0.6534
214.8293	0.7399
215.0461	0.6834
215.2629	0.6306
215.4798	0.6757
215.6965	0.6944
215.9133	0.678
216.1301	0.5728
216.3469	0.674
216.5636	0.6053
216.7803	0.5796
216.9971	0.6735
217.2138	0.6763
217.4305	0.5928
217.6472	0.5717
217.8639	0.6149
218.0805	0.5838
218.2972	0.5822
218.5138	0.5925
218.7305	0.564
218.9471	0.5747
219.1637	0.5696
219.3803	0.5404
219.5969	0.578
219.8135	0.5776
220.0301	0.5888
220.2466	0.5821
220.4632	0.5182
220.6797	0.5769
220.8962	0.5621
221.1127	0.5158
221.3292	0.5225
221.5457	0.592
221.7622	0.5606
221.9787	0.5089
222.1951	0.561
222.4116	0.5698
222.628	0.5714
222.8444	0.5402
223.0608	0.5201
223.2772	0.5127
223.4936	0.5189
223.71	0.5756
223.9264	0.5656
224.1427	0.557
224.3591	0.5828
224.5754	0.5665
224.7917	0.5367
225.008	0.6013
225.2243	0.5227
225.4406	0.5242
225.6569	0.5087
225.8732	0.5795
226.0894	0.552
226.3057	0.5737
226.5219	0.5739
226.7381	0.5857
226.9543	0.573
227.1705	0.5257
227.3867	0.5646
227.6029	0.5517
227.8191	0.5478
228.0352	0.599
228.2513	0.5671
228.4675	0.5869
228.6836	0.5819
228.8997	0.584
229.1158	0.5456
229.3319	0.5845
229.548	0.5829
229.764	0.5807
229.9801	0.6128
230.1961	0.5567
230.4121	0.5782
230.6282	0.5833
230.8442	0.5655
231.0602	0.5318
231.2761	0.5589
231.4921	0.5973
231.7081	0.5499
231.924	0.6036
232.14	0.6158
232.3559	0.5964
232.5718	0.5678
232.7877	0.5688
233.0036	0.5901
233.2195	0.5426
233.4353	0.5819
233.6512	0.6041
233.867	0.5806
234.0829	0.5795
234.2987	0.6092
234.5145	0.578
234.7303	0.5701
234.9461	0.584
235.1619	0.5552
235.3776	0.5494
235.5934	0.5424
235.8091	0.5567
236.0249	0.5425
236.2406	0.5349
236.4563	0.5687
236.672	0.5808
236.8877	0.5439
237.1034	0.533
237.319	0.5415
237.5347	0.5511
237.7503	0.544
237.966	0.5461
238.1816	0.5575
238.3972	0.5576
238.6128	0.5195
238.8284	0.5143
239.0439	0.5363
239.2595	0.5395
239.475	0.5467
239.6906	0.5115
239.9061	0.5196
240.1216	0.53
240.3371	0.526
240.5526	0.5175
240.7681	0.5576
240.9836	0.5481
241.199	0.4795
241.4145	0.514
241.6299	0.4942
241.8453	0.4795
242.0607	0.4767
242.2761	0.4799
242.4915	0.4741
242.7069	0.4633
242.9223	0.4662
243.1376	0.4434
243.353	0.4554
243.5683	0.4345
243.7836	0.4273
243.9989	0.4121
244.2142	0.4079
244.4295	0.3717
244.6448	0.399
244.86	0.3953
245.0753	0.362
245.2905	0.3741
245.5057	0.3651
245.721	0.3575
245.9362	0.3511
246.1514	0.3452
246.3665	0.3191
246.5817	0.3427
246.7969	0.3133
247.012	0.3266
247.2271	0.3205
247.4423	0.3054
247.6574	0.3171
247.8725	0.2929
248.0876	0.2883
248.3026	0.2762
248.5177	0.2918
248.7328	0.283
248.9478	0.2667
249.1628	0.2632
249.3779	0.2608
249.5929	0.2696
249.8079	0.2487
250.0228	0.2585
250.2378	0.2477
250.4528	0.241
250.6677	0.236
250.8827	0.2343
251.0976	0.2468
251.3125	0.2421
251.5274	0.2406
251.7423	0.2339
251.9572	0.2262
252.172	0.2191
252.3869	0.2316
252.6017	0.2282
252.8166	0.2307
253.0314	0.1988
253.2462	0.2029
253.461	0.2046
253.6758	0.2069
253.8906	0.2223
254.1053	0.1973
254.3201	0.2045
254.5348	0.1992
254.7496	0.2062
254.9643	0.1982
255.179	0.1954
255.3937	0.2055
255.6083	0.1952
255.823	0.1981
256.0377	0.1803
256.2523	0.1972
256.467	0.2053
256.6816	0.1939
256.8962	0.1985
257.1108	0.1907
257.3254	0.1939
257.54	0.1802
257.7545	0.1971
257.9691	0.1963
258.1836	0.1725
258.3981	0.1797
258.6127	0.1931
258.8272	0.1978
259.0417	0.1935
259.2561	0.1876
259.4706	0.1928
259.6851	0.1944
259.8995	0.194
260.114	0.1757
260.3284	0.1914
260.5428	0.1822
260.7572	0.2027
260.9716	0.1941
261.186	0.1911
261.4003	0.1899
261.6147	0.1864
261.829	0.1981
262.0433	0.1774
262.2577	0.1747
262.472	0.1858
262.6863	0.1903
262.9005	0.178
263.1148	0.1851
263.3291	0.1869
263.5433	0.1717
263.7576	0.1941
263.9718	0.1802
264.186	0.1914
264.4002	0.1871
264.6144	0.1958
264.8286	0.19
265.0427	0.1938
265.2569	0.1914
265.471	0.1827
265.6851	0.1797
265.8993	0.1712
266.1134	0.1879
266.3275	0.1907
266.5415	0.1881
266.7556	0.1825
266.9697	0.1872
267.1837	0.1885
267.3978	0.2074
267.6118	0.1823
267.8258	0.2049
268.0398	0.1894
268.2538	0.1906
268.4677	0.2013
268.6817	0.1841
268.8957	0.1917
269.1096	0.1895
269.3235	0.1877
269.5374	0.1798
269.7514	0.1732
269.9652	0.1918
270.1791	0.1819
270.393	0.1678
270.6068	0.1879
270.8207	0.1939
271.0345	0.1614
271.2483	0.1802
271.4622	0.1748
271.676	0.1784
271.8897	0.1808
272.1035	0.1716
272.3173	0.1772
272.531	0.1734
272.7448	0.1804
272.9585	0.176
273.1722	0.1817
273.3859	0.1849
273.5996	0.1835
273.8133	0.1739
274.0269	0.1788
274.2406	0.1726
274.4542	0.1772
274.6679	0.1911
274.8815	0.1705
275.0951	0.1889
275.3087	0.1748
275.5223	0.1665
275.7358	0.1756
275.9494	0.1789
276.1629	0.1752
276.3765	0.166
276.59	0.1708
276.8035	0.1773
277.017	0.1668
277.2305	0.1822
277.444	0.1793
277.6574	0.1748
277.8709	0.1672
278.0843	0.1813
278.2978	0.1813
278.5112	0.1811
278.7246	0.1867
278.938	0.1767
279.1513	0.1802
279.3647	0.1731
279.5781	0.1876
279.7914	0.1748
280.0047	0.1755
280.2181	0.1757
280.4314	0.1822
280.6447	0.1906
280.8579	0.1889
281.0712	0.1842
281.2845	0.1966
281.4977	0.1926
281.711	0.1862
281.9242	0.1732
282.1374	0.1833
282.3506	0.1815
282.5638	0.1899
282.7769	0.178
282.9901	0.1901
283.2033	0.176
283.4164	0.1916
283.6295	0.181
283.8426	0.1836
284.0557	0.1791
284.2688	0.1733
284.4819	0.1846
284.695	0.1884
284.908	0.1809
285.1211	0.1773
285.3341	0.1866
285.5471	0.185
285.7601	0.1888
285.9731	0.1864
286.1861	0.1884
286.3991	0.1835
286.612	0.1855
286.825	0.1876
287.0379	0.1842
287.2508	0.1905
287.4637	0.184
287.6766	0.1691
287.8895	0.1815
288.1024	0.1791
288.3152	0.1895
288.5281	0.1896
288.7409	0.1833
288.9538	0.1808
289.1666	0.1828
289.3794	0.1815
289.5922	0.1878
289.8049	0.1675
290.0177	0.1811
290.2304	0.1899
290.4432	0.1705
290.6559	0.1929
290.8686	0.1785
291.0813	0.1701
291.294	0.1927
291.5067	0.1788
291.7194	0.1827
291.932	0.191
292.1447	0.1967
292.3573	0.1872
292.5699	0.1859
292.7825	0.1661
292.9951	0.1953
293.2077	0.1805
293.4203	0.1951
293.6328	0.1874
293.8454	0.1747
294.0579	0.184
294.2704	0.1732
294.4829	0.182
294.6954	0.1811
294.9079	0.1878
295.1204	0.1843
295.3328	0.1759
295.5453	0.1674
295.7577	0.1736
295.9701	0.1756
296.1825	0.1772
296.3949	0.1737
296.6073	0.1788
296.8197	0.1799
297.0321	0.1811
297.2444	0.1719
297.4567	0.1722
297.6691	0.1805
297.8814	0.1869
298.0937	0.1824
298.306	0.1736
298.5182	0.1772
298.7305	0.1709
298.9428	0.1868
299.155	0.1669
299.3672	0.1564
299.5794	0.1757
299.7916	0.169
300.0038	0.1797
300.216	0.1681
300.4282	0.181
300.6403	0.1882
300.8525	0.1801
301.0646	0.1772
301.2767	0.1739
301.4888	0.1661
301.7009	0.1744
301.913	0.1761
302.125	0.1775
302.3371	0.1763
302.5491	0.1624
302.7612	0.1682
302.9732	0.177
303.1852	0.1783
303.3972	0.1703
303.6092	0.1741
303.8211	0.1717
304.0331	0.1605
304.245	0.1688
304.457	0.1594
304.6689	0.1592
304.8808	0.1619
305.0927	0.1593
305.3046	0.1482
305.5164	0.1656
305.7283	0.1636
305.9401	0.164
306.152	0.1521
306.3638	0.1516
306.5756	0.1493
306.7874	0.1528
306.9992	0.1565
307.2109	0.1493
307.4227	0.1556
307.6344	0.156
307.8462	0.1376
308.0579	0.1427
308.2696	0.1624
308.4813	0.1382
308.693	0.1454
308.9046	0.1331
309.1163	0.1326
309.328	0.1281
309.5396	0.1405
309.7512	0.1244
309.9628	0.127
310.1744	0.1248
310.386	0.1166
310.5976	0.1277
310.8091	0.1242
311.0207	0.1174
311.2322	0.1249
311.4437	0.1227
311.6552	0.126
311.8667	0.1167
312.0782	0.1215
312.2897	0.1071
312.5012	0.1143
312.7126	0.1255
312.924	0.1114
313.1355	0.1255
313.3469	0.1146
313.5583	0.1096
313.7696	0.1068
313.981	0.1226
314.1924	0.1193
314.4037	0.1118
314.6151	0.1176
314.8264	0.11
315.0377	0.1107
315.249	0.1047
315.4603	0.0943
315.6716	0.1063
315.8828	0.1077
316.0941	0.0874
316.3053	0.1048
316.5165	0.1129
316.7277	0.1041
316.9389	0.1117
317.1501	0.1094
317.3613	0.0823
317.5724	0.0982
317.7836	0.101
317.9947	0.1187
318.2058	0.1051
318.417	0.1079
318.6281	0.1062
318.8391	0.0996
319.0502	0.096
319.2613	0.1044
319.4723	0.1078
319.6834	0.108
319.8944	0.0999
320.1054	0.1043
320.3164	0.1134
320.5274	0.0979
320.7383	0.1093
320.9493	0.1024
321.1602	0.1139
321.3712	0.1077
321.5821	0.1034
321.793	0.1131
322.0039	0.117
322.2148	0.1055
322.4257	0.1076
322.6365	0.1181
322.8474	0.0863
323.0582	0.1162
323.269	0.1056
323.4798	0.1041
323.6906	0.0979
323.9014	0.1137
324.1122	0.1042
324.3229	0.1126
324.5337	0.1146
324.7444	0.1032
324.9551	0.1072
325.1658	0.1094
325.3765	0.105
325.5872	0.1022
325.7979	0.1008
326.0085	0.0927
326.2192	0.0972
326.4298	0.1109
326.6404	0.1161
326.851	0.114
327.0616	0.1186
327.2722	0.1116
327.4828	0.1233
327.6933	0.1082
327.9039	0.1063
328.1144	0.109
328.3249	0.0958
328.5354	0.1064
328.7459	0.115
328.9564	0.1151
329.1669	0.1126
329.3773	0.1051
329.5878	0.1045
329.7982	0.1183
330.0086	0.1098
330.219	0.1038
330.4294	0.1052
330.6398	0.1117
330.8502	0.1206
331.0605	0.1314
331.2708	0.0993
331.4812	0.1184
331.6915	0.1008
331.9018	0.1059
332.1121	0.1105
332.3224	0.1096
332.5326	0.1076
332.7429	0.1005
332.9531	0.1068
333.1633	0.1131
333.3735	0.0979
333.5837	0.1045
333.7939	0.1079
334.0041	0.1297
334.2143	0.1178
334.4244	0.1095
334.6346	0.0888
334.8447	0.1185
335.0548	0.1132
335.2649	0.1251
335.475	0.1066
335.685	0.103
335.8951	0.1179
336.1051	0.1084
336.3152	0.1172
336.5252	0.1134
336.7352	0.1189
336.9452	0.1195
337.1552	0.1248
337.3652	0.1156
337.5751	0.12
337.7851	0.1107
337.995	0.1087
338.2049	0.0987
338.4148	0.1173
338.6247	0.1095
338.8346	0.1219
339.0445	0.1042
339.2543	0.1259
339.4642	0.122
339.674	0.1179
339.8838	0.1131
340.0936	0.1242
340.3034	0.1229
340.5132	0.1289
340.7229	0.1278
340.9327	0.1157
341.1424	0.1149
341.3522	0.1051
341.5619	0.116
341.7716	0.1219
341.9813	0.1214
342.1909	0.1261
342.4006	0.1206
342.6102	0.1128
342.8199	0.1239
343.0295	0.1309
343.2391	0.1209
343.4487	0.1205
343.6583	0.1271
343.8679	0.1401
344.0774	0.1284
344.287	0.1206
344.4965	0.1255
344.706	0.1362
344.9155	0.118
345.125	0.1225
345.3345	0.1314
345.544	0.1481
345.7534	0.1229
345.9629	0.1322
346.1723	0.1375
346.3817	0.1248
346.5911	0.1277
346.8005	0.128
347.0099	0.1314
347.2193	0.1435
347.4286	0.1308
347.638	0.1344
347.8473	0.1349
348.0566	0.1338
348.2659	0.1418
348.4752	0.1364
348.6845	0.1428
348.8937	0.1328
349.103	0.1312
349.3122	0.1326
349.5214	0.1412
349.7306	0.1405
349.9398	0.1376
350.149	0.1451
350.3582	0.1399
350.5674	0.1402
350.7765	0.1375
350.9856	0.1454
351.1948	0.1328
351.4039	0.1569
351.613	0.1374
351.822	0.1526
352.0311	0.1428
352.2402	0.1364
352.4492	0.1555
352.6582	0.1492
352.8672	0.1426
353.0762	0.153
353.2852	0.1549
353.4942	0.1632
353.7032	0.1615
353.9121	0.1461
354.1211	0.1517
354.33	0.171
354.5389	0.1444
354.7478	0.1622
354.9567	0.1398
355.1655	0.1644
355.3744	0.1494
355.5833	0.1706
355.7921	0.1528
356.0009	0.1547
356.2097	0.1441
356.4185	0.1417
356.6273	0.1571
356.8361	0.1549
357.0448	0.1471
357.2536	0.1483
357.4623	0.1696
357.671	0.1513
357.8797	0.1623
358.0884	0.1794
358.2971	0.1623
358.5057	0.1648
358.7144	0.164
358.923	0.1707
359.1316	0.1626
359.3402	0.1662
359.5488	0.1651
359.7574	0.1753
359.966	0.161
360.1746	0.1772
360.3831	0.157
360.5916	0.1724
360.8002	0.189
361.0087	0.184
361.2172	0.1602
361.4256	0.1756
361.6341	0.1812
361.8426	0.1885
362.051	0.1667
362.2594	0.1832
362.4678	0.1701
362.6762	0.1608
362.8846	0.1793
363.093	0.1732
363.3014	0.176
363.5097	0.179
363.718	0.195
363.9264	0.2073
364.1347	0.1844
364.343	0.1956
364.5513	0.1951
364.7595	0.1873
364.9678	0.2056
365.176	0.2064
365.3842	0.1943
365.5925	0.1738
365.8007	0.1918
366.0089	0.1986
366.217	0.1852
366.4252	0.2015
366.6333	0.2005
366.8415	0.1929
367.0496	0.2028
367.2577	0.2046
367.4658	0.2014
367.6739	0.197
367.882	0.1948
368.09	0.2101
368.2981	0.186
368.5061	0.2104
368.7141	0.2124
368.9221	0.1836
369.1301	0.2067
369.3381	0.2188
369.5461	0.2063
369.754	0.2064
369.962	0.1973
370.1699	0.2018
370.3778	0.2247
370.5857	0.2176
370.7936	0.2144
371.0015	0.2223
371.2093	0.2227
371.4172	0.202
371.625	0.2113
371.8328	0.2231
372.0406	0.2179
372.2484	0.208
372.4562	0.2061
372.664	0.2214
372.8717	0.1999
373.0795	0.2207
373.2872	0.2223
373.4949	0.2207
373.7026	0.2237
373.9103	0.2176
374.118	0.206
374.3256	0.224
374.5333	0.2405
374.7409	0.2069
374.9485	0.2205
375.1561	0.2246
375.3637	0.2169
375.5713	0.2159
375.7789	0.2281
375.9864	0.2324
376.194	0.2248
376.4015	0.2379
376.609	0.2211
376.8165	0.2287
377.024	0.2251
377.2315	0.227
377.4389	0.227
377.6464	0.2405
377.8538	0.2295
378.0612	0.2298
378.2686	0.2336
378.476	0.2224
378.6834	0.2442
378.8908	0.2285
379.0981	0.2454
379.3055	0.2517
379.5128	0.2523
379.7201	0.2396
379.9274	0.2416
380.1347	0.2349
380.342	0.2398
380.5492	0.2376
380.7565	0.2422
380.9637	0.2516
381.1709	0.2328
381.3781	0.2409
381.5853	0.2499
381.7925	0.2589
381.9997	0.2298
382.2068	0.2517
382.4139	0.2404
382.6211	0.241
382.8282	0.246
383.0353	0.2483
383.2424	0.2564
383.4494	0.264
383.6565	0.2528
383.8635	0.2403
384.0706	0.2488
384.2776	0.2386
384.4846	0.2475
384.6916	0.2724
384.8986	0.2249
385.1055	0.2217
385.3125	0.2408
385.5194	0.244
385.7263	0.2539
385.9333	0.2375
386.1402	0.2474
386.347	0.2622
386.5539	0.2445
386.7608	0.2298
386.9676	0.2367
387.1744	0.2493
387.3813	0.2502
387.5881	0.2453
387.7948	0.2502
388.0016	0.2608
388.2084	0.2474
388.4151	0.2539
388.6219	0.2447
388.8286	0.2379
389.0353	0.2392
389.242	0.2474
389.4487	0.255
389.6553	0.2289
389.862	0.216
390.0686	0.2385
390.2753	0.2508
390.4819	0.2467
390.6885	0.2449
390.8951	0.2224
391.1016	0.2403
391.3082	0.217
391.5147	0.2244
391.7213	0.2071
391.9278	0.2302
392.1343	0.2125
392.3408	0.2296
392.5473	0.2167
392.7537	0.2141
392.9602	0.2296
393.1666	0.2067
393.373	0.2055
393.5794	0.2001
393.7858	0.2184
393.9922	0.2339
394.1986	0.235
394.4049	0.2223
394.6113	0.1938
394.8176	0.2345
395.0239	0.2146
395.2302	0.2045
395.4365	0.1999
395.6428	0.2191
395.8491	0.1979
396.0553	0.216
396.2615	0.2187
396.4678	0.22
396.674	0.2042
396.8802	0.2045
397.0863	0.2016
397.2925	0.2062
397.4987	0.2255
397.7048	0.2133
397.9109	0.2106
398.117	0.2016
398.3231	0.2057
398.5292	0.2113
398.7353	0.2143
398.9413	0.1876
399.1474	0.2077
399.3534	0.1983
399.5594	0.2159
399.7654	0.1979
399.9714	0.2072
400.1774	0.1934
400.3833	0.2182
400.5893	0.1938
400.7952	0.2165
401.0011	0.2073
401.207	0.2061
401.4129	0.2047
401.6188	0.2078
401.8247	0.2029
402.0305	0.2063
402.2364	0.2033
402.4422	0.1957
402.648	0.2014
402.8538	0.1955
403.0596	0.2047
403.2654	0.2069
403.4711	0.1972
403.6768	0.1915
403.8826	0.1922
404.0883	0.1959
404.294	0.2234
404.4997	0.1884
404.7054	0.1808
404.911	0.2065
405.1167	0.1978
405.3223	0.2031
405.5279	0.2194
405.7335	0.2321
405.9391	0.1953
406.1447	0.228
406.3502	0.2105
406.5558	0.1997
406.7613	0.2117
406.9668	0.1918
407.1724	0.2095
407.3778	0.1995
407.5833	0.1993
407.7888	0.1956
407.9942	0.1964
408.1997	0.196
408.4051	0.1936
408.6105	0.193
408.8159	0.2289
409.0213	0.1944
409.2267	0.19
409.432	0.2165
409.6374	0.1975
409.8427	0.1924
410.048	0.2096
410.2533	0.2006
410.4586	0.1745
410.6639	0.2046
410.8691	0.1917
411.0744	0.2051
411.2796	0.1997
411.4848	0.2132
411.69	0.1858
411.8952	0.1987
412.1004	0.1997
412.3056	0.1814
412.5107	0.1966
412.7158	0.1902
412.921	0.1929
413.1261	0.1843
413.3312	0.2013
413.5362	0.2002
413.7413	0.1812
413.9464	0.2125
414.1514	0.1805
414.3564	0.2088
414.5614	0.1692
414.7664	0.1995
414.9714	0.193
415.1764	0.206
415.3813	0.2095
415.5863	0.2061
415.7912	0.2104
415.9961	0.2037
416.201	0.2079
416.4059	0.1872
416.6108	0.1966
416.8156	0.2094
417.0205	0.1877
417.2253	0.1988
417.4301	0.1904
417.6349	0.1885
417.8397	0.186
418.0445	0.1859
418.2492	0.163
418.454	0.1897
418.6587	0.196
418.8634	0.1971
419.0681	0.1931
419.2728	0.1649
419.4775	0.2032
419.6822	0.1868
419.8868	0.1794
420.0915	0.1625
420.2961	0.1971
420.5007	0.1915
420.7053	0.2041
420.9099	0.1659
421.1144	0.2002
421.319	0.18
421.5235	0.1929
421.728	0.172
421.9325	0.1787
422.137	0.1672
422.3415	0.1923
422.546	0.1729
422.7504	0.1924
422.9549	0.1792
423.1593	0.177
423.3637	0.1899
423.5681	0.1755
423.7725	0.1639
423.9769	0.1927
424.1812	0.161
424.3856	0.1608
424.5899	0.1848
424.7942	0.1626
424.9985	0.174
425.2028	0.1539
425.4071	0.1567
425.6113	0.1685
425.8156	0.1747
426.0198	0.17
426.224	0.1843
426.4282	0.1486
426.6324	0.1714
426.8366	0.1818
427.0407	0.164
427.2449	0.1507
427.449	0.1537
427.6531	0.1392
427.8572	0.1621
428.0613	0.1625
428.2654	0.141
428.4694	0.1669
428.6735	0.1441
428.8775	0.1335
429.0815	0.1462
429.2855	0.1519
429.4895	0.136
429.6935	0.145
429.8975	0.1491
430.1014	0.1274
430.3053	0.1315
430.5093	0.15
430.7132	0.138
430.9171	0.14
431.1209	0.1365
431.3248	0.1393
431.5286	0.1178
431.7325	0.1362
431.9363	0.1393
432.1401	0.1194
432.3439	0.1329
432.5477	0.132
432.7514	0.1197
432.9552	0.1121
433.1589	0.1267
433.3627	0.1129
433.5664	0.1158
433.7701	0.107
433.9737	0.1011
434.1774	0.1246
434.3811	0.1277
434.5847	0.1026
434.7883	0.1166
434.9919	0.1188
435.1955	0.0967
435.3991	0.1193
435.6027	0.0981
435.8062	0.1248
436.0098	0.1034
436.2133	0.0824
436.4168	0.0911
436.6203	0.0935
436.8238	0.0788
437.0272	0.0938
437.2307	0.1201
437.4341	0.089
437.6375	0.094
437.841	0.0819
438.0443	0.082
438.2477	0.0996
438.4511	0.0861
438.6545	0.0836
438.8578	0.0914
439.0611	0.0811
439.2644	0.0875
439.4677	0.0716
439.671	0.0725
439.8743	0.0713
440.0775	0.0605
440.2808	0.0737
440.484	0.0765
440.6872	0.074
440.8904	0.0771
441.0936	0.0564
441.2967	0.0687
441.4999	0.0422
441.703	0.0736
441.9062	0.0552
442.1093	0.0481
442.3124	0.0705
442.5155	0.0485
442.7185	0.0699
442.9216	0.0417
443.1246	0.0633
443.3276	0.0725
443.5307	0.0723
443.7337	0.0464
443.9366	0.0389
444.1396	0.0535
444.3426	0.039
444.5455	0.0506
444.7484	0.0474
444.9513	0.0402
445.1542	0.0399
445.3571	0.0408
445.56	0.0624
445.7628	0.053
445.9657	0.0382
446.1685	0.0472
446.3713	0.0415
446.5741	0.0333
446.7769	0.054
446.9797	0.031
447.1824	0.0144
447.3852	0.0565
447.5879	0.0313
447.7906	0.041
447.9933	0.0439
448.196	0.0568
448.3986	0.0337
448.6013	0.0324
448.8039	0.0339
449.0066	0.0373
449.2092	0.0401
449.4118	0.0314
449.6143	0.0304
449.8169	0.0346
450.0195	0.0091
450.222	0.0152
450.4245	0.0293
450.627	0.0132
450.8295	0.0129
451.032	0.0181
451.2345	0.0231
451.4369	0.0225
451.6394	0.0181
451.8418	-0.006
452.0442	0.0082
452.2466	-0.0016
452.449	0.0276
452.6513	0.0227
452.8537	0.0517
453.056	0.0034
453.2583	0.0272
453.4607	0.0124
453.663	0.0181
453.8652	0.0135
454.0675	0.0032
454.2697	0.0118
454.472	0.0267
454.6742	0.0107
454.8764	0.0075
455.0786	0.0132
455.2808	0.0132
455.4829	0.0095
455.6851	0.0211
455.8872	0.0186
456.0893	0.0119
456.2915	0.0138
456.4935	-0.0075
456.6956	0.0027
456.8977	0.0073
457.0997	0.0207
457.3018	0.0026
457.5038	0.0099
457.7058	0.025
457.9078	-0.0044
458.1098	0.0072
458.3117	0.0298
458.5137	0.0084
458.7156	0.0112
458.9175	0.0018
459.1194	0.0033
459.3213	-0.0017
459.5232	-0.0072
459.725	0.0067
459.9269	-0.0047
460.1287	0.0095
460.3305	0.0037
460.5323	0.0157
460.7341	-0.0224
460.9359	0.0113
461.1376	0.0081
461.3394	-0.0048
461.5411	-0.0054
461.7428	0.0169
461.9445	-0.0026
462.1462	0.0018
462.3479	-0.0219
462.5495	-0.0081
462.7512	-0.0032
462.9528	0.0055
463.1544	-0.0023
463.356	0.0063
463.5576	0.0181
463.7592	-0.0081
463.9607	0.0184
464.1623	-0.0105
464.3638	0.0169
464.5653	0.0009
464.7668	-0.0172
464.9683	0.0022
465.1697	0.0028
465.3712	0.0037
465.5726	0.0005
465.7741	0.0202
465.9755	-0.0027
466.1769	0.0169
466.3782	0.0005
466.5796	-0.0073
466.7809	0.0048
466.9823	0.0034
467.1836	0.013
467.3849	0.0051
467.5862	-0.0144
467.7875	0.0135
467.9887	-0.0071
468.19	0.0018
468.3912	0.0199
468.5924	-0.0094
468.7936	-0.0009
468.9948	-0.0072
469.196	0.0112
469.3972	-0.0099
469.5983	0.0187
469.7994	-0.0155
470.0006	-0.0193
470.2017	0.0009
470.4027	-0.0017
470.6038	0.0038
470.8049	0.0127
471.0059	0.0078
471.2069	0.0003
471.408	-0.0047
471.6089	-0.0027
471.8099	0.0104
472.0109	-0.0019
472.2119	0.0125
472.4128	-0.0094
472.6137	0.0028
472.8146	-0.0008
473.0155	-0.0097
473.2164	-0.0023
473.4173	-0.0158
473.6181	-0.0059
473.819	0.0057
474.0198	-0.0175
474.2206	-0.0105
474.4214	0.008
474.6222	-0.0018
474.8229	-0.0019
475.0237	-0.0096
475.2244	0.0083
475.4251	-0.0001
475.6258	-0.0063
475.8265	-0.02
476.0272	-0.0058
476.2278	-0.0188
476.4285	-0.0029
476.6291	-0.0009
476.8297	0.0144
477.0303	0.0005
477.2309	-0.0042
477.4315	-0.0065
477.632	-0.0121
477.8326	-0.0001
478.0331	-0.0207
478.2336	-0.0131
478.4341	-0.0051
478.6346	-0.0098
478.8351	-0.0049
479.0355	-0.0186
479.236	-0.0041
479.4364	-0.0147
479.6368	-0.0015
479.8372	0.0009
480.0376	-0.0168
480.2379	-0.0056
480.4383	0.0165
480.6386	-0.0081
480.8389	0.003
481.0392	-0.0092
481.2395	-0.0066
481.4398	-0.0179
481.6401	-0.0094
481.8403	0.0066
482.0405	-0.0215
482.2408	-0.0111
482.441	-0.0113
482.6411	-0.0216
482.8413	-0.0146
483.0415	-0.0088
483.2416	-0.0099
483.4417	-0.0093
483.6419	-0.0064
483.8419	0.0016
484.042	0.0011
484.2421	-0.0104
484.4422	-0.0044
484.6422	0.0026
484.8422	-0.0037
485.0422	0.006
485.2422	-0.013
485.4422	-0.0092
485.6422	-0.0073
485.8421	-0.0016
486.042	0.0034
486.242	-0.0083
486.4419	-0.0063
486.6417	-0.0052
486.8416	-0.0092
487.0415	-0.0091
487.2413	-0.0048
487.4411	-0.0047
487.641	-0.0072
487.8408	0.0017
488.0405	-0.0049
488.2403	-0.0071
488.4401	-0.0028
488.6398	-0.0108
488.8395	-0.002
489.0392	-0.0127
489.2389	-0.0204
489.4386	-0.0054
489.6383	-0.0077
489.8379	-0.009
490.0376	0.0074
490.2372	-0.0061
490.4368	-0.0072
490.6364	0.0007
490.836	-0.01
491.0355	-0.009
491.2351	-0.0185
491.4346	-0.0105
491.6341	0.0078
491.8336	-0.0159
492.0331	-0.0032
492.2326	-0.0112
492.432	0.0049
492.6315	0.0016
492.8309	-0.006
493.0303	-0.0121
493.2297	-0.0111
493.4291	-0.0078
493.6284	-0.013
493.8278	-0.0037
494.0271	-0.0054
494.2264	-0.0058
494.4257	-0.0114
494.625	-0.0006
494.8243	-0.0066
495.0236	-0.011
495.2228	-0.0038
495.422	-0.0014
495.6213	-0.0093
495.8205	-0.0045
496.0196	-0.0198
496.2188	-0.0079
496.418	-0.0065
496.6171	-0.013
496.8162	-0.0096
497.0153	-0.0004
497.2144	-0.0023
497.4135	0.0025
497.6126	-0.0165
497.8116	-0.014
498.0107	-0.0086
498.2097	-0.0141
498.4087	-0.0142
498.6077	-0.0144
498.8067	0.0098
499.0056	-0.0164
499.2046	-0.003
499.4035	-0.016
499.6024	-0.0189
499.8013	-0.0123
500.0002	-0.0122
500.199	-0.0085
500.3979	-0.0052
500.5967	-0.0121
500.7956	-0.0016
500.9944	-0.0088
501.1932	0.0036
501.3919	-0.0039
501.5907	-0.0076
501.7895	-0.0254
501.9882	-0.0055
502.1869	-0.0093
502.3856	-0.0154
502.5843	-0.0075
502.783	0.0013
502.9816	-0.0036
503.1803	-0.0097
503.3789	-0.011
503.5775	-0.0099
503.7761	-0.0087
503.9747	-0.0123
504.1732	-0.0078
504.3718	0.0034
504.5703	-0.0008
504.7689	-0.0138
504.9674	-0.0213
505.1658	-0.0046
505.3643	-0.0169
505.5628	-0.0015
505.7612	-0.013
505.9597	-0.0009
506.1581	0.0069
506.3565	-0.0097
506.5549	-0.0131
506.7532	0.0022
506.9516	-0.0158
507.1499	-0.008
507.3482	-0.0092
507.5465	0.0075
507.7448	0.0059
507.9431	-0.0049
508.1414	-0.0094
508.3396	-0.0096
508.5379	-0.0073
508.7361	-0.0021
508.9343	-0.0095
509.1325	-0.0034
509.3306	-0.0187
509.5288	-0.009
509.7269	-0.0069
509.9251	-0.0081
510.1232	-0.0114
510.3213	0.0033
510.5193	-0.0055
510.7174	-0.0146
510.9154	-0.0063
511.1135	-0.0123
511.3115	-0.0046
511.5095	-0.0098
511.7075	0.0029
511.9055	-0.0065
512.1034	-0.0046
512.3014	-0.0096
512.4993	0.0108
512.6972	-0.0069
512.8951	-0.0049
513.093	-0.0102
513.2908	-0.0127
513.4887	-0.004
513.6865	0.0012
513.8844	-0.003
514.0822	0.0034
514.2799	-0.0109
514.4777	-0.0086
514.6755	0.0022
514.8732	-0.0073
515.0709	-0.0124
515.2687	0.0017
515.4664	0.0047
515.664	-0.0167
515.8617	0.0014
516.0594	0.0104
516.257	-0.0146
516.4546	-0.0147
516.6522	-0.0048
516.8498	-0.0149
517.0474	-0.0033
517.2449	-0.0125
517.4425	-0
517.64	-0.0165
517.8375	-0.0042
518.035	-0.0032
518.2325	-0.013
518.43	-0.0025
518.6274	-0.0049
518.8249	0.0071
519.0223	-0.0043
519.2197	0.0006
519.4171	0.0007
519.6145	0.0047
519.8118	-0.0095
520.0092	-0.002
520.2065	-0.0088
520.4038	-0.0158
520.6011	-0.0024
520.7984	0.0125
520.9956	-0.013
521.1929	-0.0118
521.3901	-0.0032
521.5874	-0.0064
521.7846	-0.0065
521.9818	-0.0032
522.1789	-0.0018
522.3761	0.0003
522.5732	-0.0076
522.7704	0.0031
522.9675	-0.0092
523.1646	-0.0071
523.3617	-0.0126
523.5587	-0.0001
523.7558	-0.0098
523.9528	-0.0006
524.1498	-0.0084
524.3468	-0.0025
524.5438	0.0113
524.7408	-0.0083
524.9378	0.0066
525.1347	0.0048
525.3316	0.0033
525.5285	-0.0218
525.7254	0.0016
525.9223	0.0044
526.1192	0.0011
526.316	-0.0027
526.5129	0.0069
526.7097	0.0144
526.9065	0.0067
527.1033	-0.0052
527.3	-0.0037
527.4968	0.0011
527.6935	0.0073
527.8903	-0.0021
528.087	-0.0031
528.2837	0.0066
528.4804	0.0057
528.677	0.0006
528.8737	-0.0098
529.0703	0.001
529.2669	-0.0028
529.4635	0.0074
529.6601	-0.0009
529.8567	0.0095
530.0532	0.005
530.2498	-0.0003
530.4463	-0.0084
530.6428	-0.0027
530.8393	-0.0066
531.0358	0.0022
531.2322	0.0044
531.4287	0.0003
531.6251	0.0044
531.8215	-0.0029
532.0179	-0.0029
532.2143	0.0034
532.4107	0.0032
532.607	-0.0084
532.8034	-0.0083
532.9997	-0.0018
533.196	-0.0032
533.3923	0.0006
533.5886	0.0037
533.7848	-0.0019
533.9811	-0.0017
534.1773	-0.0111
534.3735	-0.0083
534.5697	-0.0041
534.7659	-0.0027
534.9621	-0.0019
535.1582	0.0045
535.3544	0.0037
535.5505	-0.0016
535.7466	-0.0031
535.9427	0.0034
536.1387	-0.0033
536.3348	-0.006
536.5308	-0.0076
536.7269	0.0038
536.9229	0.0094
537.1189	-0.0082
537.3148	-0.0096
537.5108	-0.0005
537.7068	-0.003
537.9027	-0.0044
538.0986	-0.0036
538.2945	-0.0046
538.4904	0.01
538.6863	-0.0034
538.8821	-0.0048
539.078	-0.0077
539.2738	0.0086
539.4696	-0.0072
539.6654	0.003
539.8611	0.0113
540.0569	-0.0054
540.2526	0.009
540.4484	0.0006
540.6441	0.0033
540.8398	0.0008
541.0355	-0
541.2311	0.0038
541.4268	-0.0023
541.6224	0.0113
541.818	0.0037
542.0136	0.004
542.2092	0.0046
542.4048	0.0042
542.6003	-0.0029
542.7959	-0.0132
542.9914	0.0123
543.1869	-0.0119
543.3824	-0.0051
543.5779	0.0016
543.7734	-0.0054
543.9688	0.007
544.1642	0.0056
544.3596	0.0032
544.555	0.0027
544.7504	0.0058
544.9458	0.0036
545.1411	0.001
545.3365	0.008
545.5318	0.0029
545.7271	-0.0016
545.9224	-0.0007
546.1177	-0.0173
546.3129	-0.0074
546.5081	-0.0137
546.7034	0.0014
546.8986	0.0003
547.0938	0.0026
547.289	0.0043
547.4841	0.0013
547.6793	-0.0034
547.8744	-0.0028
548.0695	0.0019
548.2646	-0.0075
548.4597	-0.0014
548.6548	-0.0002
548.8498	0.0045
549.0448	0.0001
549.2399	0.0012
549.4349	0.0018
549.6298	0.0007
549.8248	-0.0034
550.0198	0.0057
550.2147	0.0006
550.4096	-0.0023
550.6045	-0.0022
550.7994	0
550.9943	0.0056
551.1892	-0.0136
551.384	-0.0018
551.5788	0.0035
551.7737	-0.0018
551.9685	0.0074
552.1632	0.0092
552.358	0.0031
552.5528	-0.0008
552.7475	-0.007
552.9422	0.0027
553.1369	0.0026
553.3316	-0.0067
553.5263	0.0071
553.7209	0.0015
553.9156	0.0013
554.1102	-0.0081
554.3048	0.0018
554.4994	-0.0012
554.694	0.0008
554.8885	0.0068
555.0831	0.0015
555.2776	0.0049
555.4721	0.0094
555.6666	-0.0086
555.8611	0.0031
556.0555	0.0032
556.25	0.0069
556.4444	0.0093
556.6388	0.0077
556.8332	0.0061
557.0276	0.009
557.222	0.0045
557.4163	-0
557.6107	0.0073
557.805	0.0058
557.9993	-0.0031
558.1936	0.0082
558.3879	0.0147
558.5821	0.0123
558.7764	0.0073
558.9706	0.0014
559.1648	0.0118
559.359	0.0041
559.5532	-0.0033
559.7473	0.0039
559.9415	0.0047
560.1356	0.0141
560.3297	0.0042
560.5238	0.004
560.7179	0.0052
560.9119	-0.0049
561.106	0.0104
561.3	0.0042
561.494	0.0042
561.688	0.0019
561.882	0.0139
562.076	0.0037
562.2699	0.0055
562.4639	-0.0006
562.6578	-0.0034
562.8517	0.0069
563.0456	0.0055
563.2395	0.0059
563.4333	-0.0028
563.6272	0.0022
563.821	-0.0103
564.0148	0.0022
564.2086	-0.0135
564.4024	-0.0139
564.5961	0.0136
564.7899	-0.0025
564.9836	0.0101
565.1773	0.0029
565.371	0.0026
565.5647	-0.0035
565.7584	0.0051
565.952	0.0112
566.1456	0.0078
566.3393	0.0015
566.5329	0.0037
566.7264	-0.0019
566.92	0.0026
567.1136	0.0087
567.3071	-0.0016
567.5006	0.0009
567.6941	0.0058
567.8876	-0.0049
568.0811	-0.0009
568.2745	-0.001
568.468	0.0041
568.6614	-0.0005
568.8548	0.0061
569.0482	0.0029
569.2416	0.0021
569.4349	0
569.6283	-0.0001
569.8216	-0.0009
570.0149	0.0044
570.2082	0.0118
570.4015	-0.0034
570.5947	0.0029
570.788	0.0004
570.9812	0.0017
571.1744	0.0011
571.3676	0.0031
571.5608	-0.0028
571.754	-0.0036
571.9471	-0.0043
572.1402	0.0014
572.3333	0.0033
572.5264	0.0035
572.7195	-0.0036
572.9126	0.0066
573.1057	0.0076
573.2987	-0.0001
573.4917	-0.0101
573.6847	-0.0047
573.8777	-0.002
574.0707	0.0049
574.2636	0.0095
574.4566	0.0029
574.6495	0.0079
574.8424	0.0067
575.0353	-0.0011
575.2281	0.0039
575.421	0.0038
575.6138	0.0016
575.8067	0.0024
575.9995	0.0027
576.1923	0.0124
576.385	0.0028
576.5778	-0.0044
576.7706	0.0123
576.9633	0.0003
577.156	0.0073
577.3487	-0.0019
577.5414	0.0127
577.734	-0.0039
577.9267	-0.0072
578.1193	-0.0017
578.3119	0.0037
578.5045	0.0068
578.6971	-0.0017
578.8897	0.0058
579.0822	0.0017
579.2747	0.0049
579.4673	0
579.6598	0.0108
579.8522	0.004
580.0447	-0.002
580.2372	0.0055
580.4296	0.0082
580.622	0.0033
580.8144	0.0035
581.0068	0.0041
581.1992	0.0084
581.3915	0.003
581.5839	0.0032
581.7762	-0
581.9685	-0.0018
582.1608	-0.0016
582.353	-0.0011
582.5453	0.0006
582.7375	0.0019
582.9298	-0.0008
583.122	0.0051
583.3142	0.0058
583.5063	0.0017
583.6985	0.0027
583.8906	-0.0004
584.0827	0.0002
584.2749	0.0006
584.4669	-0.0033
584.659	-0.0001
584.8511	-0.001
585.0431	-0.0022
585.2352	-0.0029
585.4272	-0.0009
585.6192	-0.0034
585.8111	0.0004
586.0031	-0.0037
586.195	-0.0015
586.387	-0.0046
586.5789	-0.001
586.7708	0.0055
586.9627	-0.0017
587.1545	0.0072
587.3464	0.0116
587.5382	-0.0012
587.73	0.0118
587.9218	0.0062
588.1136	0.005
588.3053	-0.0069
588.4971	-0.0056
588.6888	0.0037
588.8805	0.0001
589.0722	0.0065
589.2639	0.0032
589.4556	-0.0016
589.6472	0.0018
589.8389	0.0053
590.0305	0.0095
590.2221	0.0112
590.4137	-0.0015
590.6052	0.0034
590.7968	0.01
590.9883	0.0046
591.1798	-0.0108
591.3713	0.005
591.5628	-0.0012
591.7543	0.0159
591.9458	0.0089
592.1372	0.0057
592.3286	0.0068
592.52	0.0039
592.7114	0.0106
592.9028	-0.0007
593.0941	0.001
593.2855	-0.0054
593.4768	0.0042
593.6681	-0.0021
593.8594	0.0042
594.0506	-0.0098
594.2419	0.0054
594.4331	0.0024
594.6244	0.0009
594.8156	0.0009
595.0067	0.0017
595.1979	-0.0007
595.3891	0.006
595.5802	0.0018
595.7713	-0.0056
595.9624	-0.0011
596.1535	0.0014
596.3446	0.0068
596.5357	-0.0003
596.7267	0.0037
596.9177	0.003
597.1087	0.0175
597.2997	0.0064
597.4907	0.0007
597.6817	-0.0003
597.8726	0.0158
598.0635	0.0066
598.2544	0.0055
598.4453	0.0079
598.6362	0.0059
598.827	0.0048
599.0179	0.0058
599.2087	0.0023
599.3995	0.0068
599.5903	0.0102
599.7811	0.0129
599.9718	-0.002
600.1626	0.0045
600.3533	-0.0021
600.544	0.0029
600.7347	0.0068
600.9254	0.006
601.116	0.0048
601.3067	-0.0035
601.4973	-0.0004
601.6879	0.0013
601.8785	0.0029
602.0691	0.0004
602.2596	0.0014
602.4502	-0.001
602.6407	-0.0008
602.8312	-0.008
603.0217	0.0015
603.2122	-0.0032
603.4027	0.0068
603.5931	0.0058
603.7835	0.0071
603.9739	0.0109
604.1643	0.0066
604.3547	0.0044
604.5451	0.0028
604.7354	0.0032
604.9257	0.014
605.116	0.0006
605.3063	-0.0022
605.4966	0.0017
605.6869	0.0114
605.8771	0.0045
606.0673	-0.0003
606.2575	0.0012
606.4477	-0.0032
606.6379	0.0085
606.8281	-0.0011
607.0182	0.0055
607.2083	0.0042
607.3985	0.0025
607.5885	0.002
607.7786	0.0015
607.9687	0.0015
608.1587	0.0069
608.3488	0.0102
608.5388	0.0127
608.7288	0.0033
608.9187	0.0032
609.1087	-0.0022
609.2986	0.0074
609.4886	-0.0042
609.6785	0.0075
609.8684	0.0056
610.0582	0.013
610.2481	-0.0005
610.4379	0.0023
610.6278	-0.0011
610.8176	0.0083
611.0074	0.0047
611.1971	-0.0029
611.3869	-0.0026
611.5766	0.0032
611.7664	0.006
611.9561	-0.0019
612.1458	0.0102
612.3354	0.0125
612.5251	-0.0002
612.7147	-0.006
612.9044	0.0032
613.094	0.0039
613.2836	0.0053
613.4731	0.0034
613.6627	0.0033
613.8522	0.0064
614.0417	0.0111
614.2313	0.0073
614.4207	0.0013
614.6102	-0.0013
614.7997	-0.0016
614.9891	0.0032
615.1785	0.0043
615.3679	0.0074
615.5573	0.0074
615.7467	0.0019
615.9361	0.0014
616.1254	-0.0006
616.3147	-0.0004
616.504	0.0079
616.6933	0.0058
616.8826	0.0087
617.0718	0.004
617.2611	0.0112
617.4503	0.0094
617.6395	0.0058
617.8287	0.0098
618.0179	0.0039
618.207	0.0021
618.3961	0.0077
618.5853	0.0009
618.7744	-0.0015
618.9634	0.0068
619.1525	0.0088
619.3416	0.0103
619.5306	0.0126
619.7196	-0.002
619.9086	0.0116
620.0976	0.0131
620.2866	0.0055
620.4755	0.0022
620.6645	0.0063
620.8534	0.0104
621.0423	0.0046
621.2312	0.0095
621.42	0.0089
621.6089	0.0106
621.7977	0.0104
621.9865	0.0197
622.1753	0.0161
622.3641	0.0157
622.5529	0.0069
622.7416	0.0097
622.9303	0.0139
623.1191	0.0127
623.3078	0.0062
623.4964	0.0075
623.6851	0.0058
623.8737	0.017
624.0624	0.0016
624.251	0.0095
624.4396	0.0075
624.6282	0.0124
624.8167	0.014
625.0053	-0.0045
625.1938	0.0095
625.3823	0.0009
625.5708	0.0064
625.7593	0.005
625.9477	0.0085
626.1362	0.0126
626.3246	0.0093
626.513	0.0035
626.7014	0.0119
626.8898	0.0061
627.0781	-0.0012
627.2665	0.0057
627.4548	0.0089
627.6431	0.0116
627.8314	0.0094
628.0197	0.0029
628.2079	0.004
628.3962	0.0033
628.5844	0.009
628.7726	0.0093
628.9608	0.011
629.1489	0.0057
629.3371	0.0039
629.5252	0.013
629.7134	0.0016
629.9015	0.0047
630.0895	0.0091
630.2776	0.0052
630.4657	0.0112
630.6537	0.009
630.8417	0.0147
631.0297	0.0082
631.2177	0.0126
631.4057	0.0131
631.5936	0.0085
631.7815	0.0132
631.9695	0.0158
632.1574	0.0028
632.3452	0.0138
632.5331	-0.0018
632.7209	0.0019
632.9088	-0.0007
633.0966	-0.0073
633.2844	-0.0011
633.4722	0.0018
633.6599	0.0069
633.8477	0.0057
634.0354	0.0029
634.2231	0.0061
634.4108	0.0033
634.5985	0.0009
634.7861	0.0076
634.9738	0.0202
635.1614	0.0069
635.349	-0.0034
635.5366	0.0031
635.7242	0.0074
635.9117	0.0137
636.0993	0.0115
636.2868	0.0117
636.4743	0.0048
636.6618	0.008
636.8492	0.0185
637.0367	0.0052
637.2241	0.007
637.4115	0.0064
637.5989	0.0148
637.7863	0.0077
637.9737	0.0097
638.161	0.0141
638.3484	0.0042
638.5357	0.0085
638.723	-0.0005
638.9103	0.0055
639.0975	0.0068
639.2848	0.014
639.472	0.0042
639.6592	0.0082
639.8464	0.0093
640.0336	0.0015
640.2208	-0.0022
640.4079	0.0067
640.595	0.0025
640.7821	0.0034
640.9692	0.0088
641.1563	0.0093
641.3434	0.0163
641.5304	0.0135
641.7174	0.0157
641.9044	0.0019
642.0914	-0.0061
642.2784	-0.0022
642.4653	0.0038
642.6523	-0.0019
642.8392	0.0033
643.0261	0.003
643.213	-0.0047
643.3999	0.0029
643.5867	0.0087
643.7735	0.0029
643.9604	0.0048
644.1472	0.0067
644.3339	-0.0001
644.5207	0.0006
644.7075	-0.0064
644.8942	0.0038
645.0809	0.0074
645.2676	0.0074
645.4543	0.0104
645.6409	0.0129
645.8276	0.0039
646.0142	0.01
646.2008	0.0104
646.3874	0.0067
646.574	0.0019
646.7605	0.0077
646.9471	0.0078
647.1336	0.0072
647.3201	0.008
647.5066	-0.0009
647.6931	-0.007
647.8795	0.0012
648.0659	0.0091
648.2524	0.0166
648.4388	0.0038
648.6252	-0.0072
648.8115	0.0038
648.9979	0.0025
649.1842	-0.0005
649.3705	-0.0067
649.5568	0.0075
649.7431	0.0059
649.9294	0.0062
650.1156	0.0084
650.3018	0.0096
650.488	0.001
650.6742	0.0069
650.8604	0.0032
651.0466	0.006
651.2327	0.0136
651.4188	0.0063
651.6049	0.012
651.791	0.0057
651.9771	0.0129
652.1632	0.0028
652.3492	0.0033
652.5352	0.0049
652.7212	0.004
652.9072	-0.004
653.0932	0.0005
653.2791	0.0003
653.465	-0.0003
653.651	0.0073
653.8369	0.0054
654.0227	0.0108
654.2086	0.0073
654.3944	0.0083
654.5803	0.0031
654.7661	0.012
654.9519	0.0011
655.1377	-0.0055
655.3234	-0.0034
655.5092	-0.0021
655.6949	-0.0048
655.8806	-0.0022
656.0663	0.0005
656.2519	-0.0037
656.4376	-0.0019
656.6232	0.0009
656.8088	0.0088
656.9945	0.0013
657.18	-0.0001
657.3656	-0.0006
657.5511	-0.0008
657.7367	-0.0007
657.9222	0.005
658.1077	0.0086
658.2932	0.0007
658.4786	-0.0038
658.6641	-0.002
658.8495	0.0045
659.0349	0.0075
659.2203	-0.0066
659.4057	-0.004
659.591	0.0059
659.7764	0.0025
659.9617	-0.0087
660.147	0.0026
660.3323	0.0003
660.5176	-0.0072
660.7028	0.0038
660.888	0.0084
661.0733	0.0119
661.2585	0.0088
661.4436	0.0117
661.6288	0.0087
661.8139	0.0098
661.9991	-0.0033
662.1842	0.004
662.3693	-0.0022
662.5544	0.0108
662.7394	0.0113
662.9245	0.0071
663.1095	0.0087
663.2945	0.0085
663.4795	0.0088
663.6644	0.0073
663.8494	0.0069
664.0343	0.0107
664.2193	0.0152
664.4042	0.0184
664.589	0.0053
664.7739	0.0017
664.9587	0.0076
665.1436	-0.0037
665.3284	0.0072
665.5132	0.0056
665.698	0.0136
665.8827	0.0089
666.0675	0.0055
666.2522	0.0124
666.4369	0.0026
666.6216	0.0153
666.8063	0.0062
666.9909	0.0033
667.1756	0.0115
667.3602	0.0031
667.5448	0.01
667.7294	0.0101
667.9139	0.0108
668.0985	0.009
668.283	0.0057
668.4675	0.0069
668.652	0.0165
668.8365	-0.0006
669.0209	0.0064
669.2054	-0.0039
669.3898	0.0056
669.5742	0.0062
669.7586	0.0135
669.943	0.0055
670.1273	0.0101
670.3117	0.0075
670.496	0.0072
670.6803	0.0108
670.8646	0.0065
671.0488	0.0073
671.2331	0.0119
671.4173	0.0123
671.6015	0.0013
671.7857	0.0097
671.9699	0.0077
672.1541	0.0065
672.3382	0.0095
672.5223	0.0139
672.7064	0.0125
672.8905	0.0122
673.0746	0.0056
673.2587	0.0129
673.4427	-0.0004
673.6267	0.0057
673.8107	0.0208
673.9947	0.0059
674.1787	0.0034
674.3626	0.0088
674.5465	0.0092
674.7304	0.0091
674.9143	0.0078
675.0982	0.0073
675.2821	0.0062
675.4659	0.0058
675.6497	0.0041
675.8335	0.0212
676.0173	0.0102
676.2011	0.0081
676.3849	0.0067
676.5686	0.0203
676.7523	0.0115
676.936	-0.0016
677.1197	0.0121
677.3034	0.0035
677.487	0.0127
677.6706	0.0205
677.8542	0.0076
678.0378	0.0156
678.2214	0.0006
678.405	0.021
678.5885	0.0104
678.772	0.0118
678.9555	0.0045
679.139	0.0099
679.3225	0.0131
679.5059	0.0104
679.6894	0.0039
679.8728	0.0083
680.0562	0.0155
680.2395	0.0102
680.4229	0
680.6062	0.0045
680.7896	0.0011
680.9729	0.0008
681.1562	0.0095
681.3394	0.0099
681.5227	0.0119
681.7059	0.0013
681.8891	0.0074
682.0723	0.0025
682.2555	-0.0003
682.4387	0.0051
682.6218	0.0171
682.805	0.0122
682.9881	0.0132
683.1712	0.0147
683.3542	0.0079
683.5373	0.0098
683.7203	0.0096
683.9034	0.0093
684.0864	0.0048
684.2694	0.0141
684.4523	0.0123
684.6353	0.0046
684.8182	0.0079
685.0011	0.003
685.184	0.0055
685.3669	-0.0053
685.5498	-0.0061
685.7326	0.0034
685.9154	0.0065
686.0982	0.0059
686.281	0.0057
686.4638	-0.0001
686.6465	0.0165
686.8293	0.0074
687.012	0.0141
687.1947	0.0112
687.3774	0.0117
687.56	0.0141
687.7427	0.0115
687.9253	0.016
688.1079	0.0123
688.2905	0.0062
688.4731	0.0081
688.6556	0.0087
688.8382	0.0062
689.0207	0.0067
689.2032	0.0067
689.3857	0.0191
689.5681	-0.0028
689.7506	0.0073
689.933	0.0128
690.1154	0.0058
690.2978	-0.0019
690.4802	0.0087
690.6626	0.0081
690.8449	0.0108
691.0272	-0.0032
691.2095	0.0087
691.3918	0.0043
691.5741	0.0135
691.7563	0.0113
691.9386	0.0107
692.1208	-0.002
692.303	0.0047
692.4852	0.0142
692.6673	0.0098
692.8495	0.0145
693.0316	0.017
693.2137	0.0121
693.3958	0.01
693.5778	0.0131
693.7599	0.0167
693.9419	0.0151
694.1239	0.0137
694.3059	0.0125
694.4879	0.0072
694.6699	0.0045
694.8518	0.0025
695.0337	0.0087
695.2157	0.0082
695.3975	0.0049
695.5794	0.0105
695.7613	0.0032
695.9431	0.0067
696.1249	0.0112
696.3067	0.0038
696.4885	0.0068
696.6703	0.005
696.852	0.0047
697.0337	0.0149
697.2154	0.0108
697.3971	0.0122
697.5788	0.0088
697.7605	0.0054
697.9421	0.0032
698.1237	0.0085
698.3053	0.0164
698.4869	0.0129
698.6685	0.0021
698.85	0.0026
699.0315	0.0172
699.213	0.0081
699.3945	0.0018
699.576	0.0182
699.7575	0.0169
699.9389	0.0231
700.1203	0.0165
700.3017	0.0046
700.4831	0.0028
700.6645	0.0024
700.8458	0.0108
701.0271	0.0027
701.2084	0.0041
701.3897	-0.0032
701.571	0.0022
701.7523	-0.0073
701.9335	0.0044
702.1147	0.0044
702.2959	0.0026
702.4771	-0.0012
702.6583	0.0015
702.8394	0.003
703.0205	0.0005
703.2016	0.0129
703.3827	0.0097
703.5638	0.0106
703.7449	0.014
703.9259	0.0013
704.1069	-0
704.2879	0.0036
704.4689	0.0073
704.6499	-0.0045
704.8308	0.0063
705.0117	0.0013
705.1927	0.0029
705.3735	0.0033
705.5544	-0.0038
705.7353	0.0055
705.9161	0.0001
706.0969	0.0056
706.2777	0.0074
706.4585	0.0062
706.6393	0.0075
706.82	0.0091
707.0007	0.0057
707.1815	0.0071
707.3621	0.0046
707.5428	0.0052
707.7235	0.0074
707.9041	-0.0001
708.0847	0.0084
708.2653	0.0111
708.4459	0.0036
708.6265	0.0132
708.807	0.0179
708.9875	0.0135
709.168	0.0125
709.3485	0.0066
709.529	0.0042
709.7095	0.0214
709.8899	0.008
710.0703	-0.0001
710.2507	0.0048
710.4311	0.0115
710.6115	0.0106
710.7918	0.0091
710.9721	0.0114
711.1524	0.0021
711.3327	-0.0006
711.513	0.0019
711.6932	-0.0031
711.8735	0.0044
712.0537	0.0006
712.2339	-0.0083
712.4141	-0.0037
712.5942	-0.0074
712.7744	0.0063
712.9545	-0.0012
713.1346	0.0035
713.3147	-0.0015
713.4947	-0.0026
713.6748	-0.007
713.8548	0.0155
714.0348	0.0073
714.2148	-0.0001
714.3948	0.0014
714.5748	0.0017
714.7547	0.0055
714.9346	0.0053
715.1145	0.0091
715.2944	0.0006
715.4743	0.0025
715.6541	0.009
715.834	0.0018
716.0138	0.0114
716.1936	0.0058
716.3733	0.0168
716.5531	0.0185
716.7328	0.0041
716.9126	0.001
717.0923	0.0124
717.2719	0.0072
717.4516	0.0015
717.6312	-0.0004
717.8109	-0
717.9905	0.0007
718.1701	-0.0019
718.3496	0.0112
718.5292	-0.0042
718.7087	-0.0083
718.8882	-0.0012
719.0677	0.0069
719.2472	0.0004
719.4267	0.0095
719.6061	0.0042
719.7856	0.009
719.965	0.0048
720.1443	0.0066
720.3237	0.01
720.5031	0.0083
720.6824	0.0066
720.8617	0.0074
721.041	0.0018
721.2203	0.0042
721.3995	0.0056
721.5788	0.0151
721.758	-0.0014
721.9372	0.0061
722.1164	0.0131
722.2956	0.0078
722.4747	0.0115
722.6538	0.0016
722.8329	0.0093
723.012	0.0048
723.1911	0.01
723.3702	0.0071
723.5492	0.0024
723.7282	0.0098
723.9072	0.0064
724.0862	0.0104
724.2652	0.0118
724.4441	0.0012
724.623	0.0095
724.8019	-0.0074
724.9808	0.006
725.1597	0.0069
725.3385	0.0162
725.5174	0.0022
725.6962	0.0022
725.875	0.0044
726.0538	0.0063
726.2325	-0.001
726.4112	0.0012
726.59	0.0101
726.7687	-0.0002
726.9474	-0.0027
727.126	0.0007
727.3047	-0.0039
727.4833	0.0023
727.6619	0.0009
727.8405	-0.0049
728.0191	0.0008
728.1976	-0.0011
728.3762	0.0075
728.5547	0.0044
728.7332	0.0059
728.9116	-0.0079
729.0901	0.0069
729.2686	-0.0051
729.447	-0.0051
729.6254	0.0066
729.8038	0.0052
729.9821	0.0065
730.1605	0.0075
730.3388	0.0062
730.5171	0.0038
730.6954	0.0101
730.8737	-0.0012
731.0519	-0.0046
731.2302	0.002
731.4084	0.0008
731.5866	-0.0083
731.7648	0.0033
731.9429	-0.0004
732.1211	0.0005
732.2992	0.0058
732.4773	-0.0082
732.6554	-0.0048
732.8335	-0.0016
733.0115	0.0045
733.1896	-0.0069
733.3676	0.0039
733.5456	-0.0065
733.7235	-0.0114
733.9015	0.006
734.0794	0.0013
734.2574	-0.0001
734.4353	0.0066
734.6131	-0.0007
734.791	0.0019
734.9689	0.0076
735.1467	-0.0014
735.3245	-0.0031
735.5023	0.0113
735.68	0.011
735.8578	0.0033
736.0355	0.0042
736.2132	0.0112
736.3909	0.0018
736.5686	0.0188
736.7463	0.0086
736.9239	0.011
737.1015	0.0144
737.2791	0.0166
737.4567	-0.0018
737.6343	-0.0077
737.8118	0.0018
737.9894	0.0042
738.1669	0.0037
738.3444	0.0079
738.5218	0.0037
738.6993	0.0043
738.8767	0.0029
739.0541	0.0021
739.2315	-0.0027
739.4089	0.0112
739.5863	-0.0029
739.7636	0.0032
739.9409	0.0038
740.1182	0.0018
740.2955	0.0068
740.4728	0.0026
740.65	-0.0017
740.8272	-0.0069
741.0044	-0.0073
741.1816	0.005
741.3588	-0.0019
741.5359	0.0162
741.7131	0.0039
741.8902	0.004
742.0673	0.0111
742.2444	-0.0006
742.4214	0.0017
742.5985	0.0096
742.7755	0.0041
742.9525	0.0055
743.1295	0.0118
743.3064	0.0061
743.4834	-0.0005
743.6603	0.0011
743.8372	-0.0034
744.0141	0.0084
744.191	0.0071
744.3678	0.0007
744.5446	-0.0046
744.7215	0.0131
744.8982	0.0156
745.075	0.0092
745.2518	-0.0028
745.4285	0.006
745.6052	-0.0005
745.7819	-0.0043
745.9586	-0.0003
746.1353	-0.0073
746.3119	0.0088
746.4885	0.0017
746.6651	0.0034
746.8417	0.0028
747.0183	0.0129
747.1948	0.0016
747.3714	0.0097
747.5479	-0.0033
747.7244	0.0074
747.9008	0.0108
748.0773	0.0037
748.2537	-0.0002
748.4301	-0.0018
748.6065	0.0029
748.7829	-0.0063
748.9593	0.0037
749.1356	0.0191
749.3119	0.0037
749.4882	0.0077
749.6645	-0.0002
749.8408	-0.0001
750.017	0.0041
750.1933	0.0142
750.3695	0.0153
750.5457	0.0091
750.7218	0.0065
750.898	0.0251
751.0741	0.0114
751.2502	0.0181
751.4263	0.0101
751.6024	0.0153
751.7784	0.0056
751.9545	0.0047
752.1305	0.0123
752.3065	0.0103
752.4825	0.009
752.6584	0.0069
752.8344	0.003
753.0103	0.0054
753.1862	0.0093
753.3621	-0.0053
753.5379	0.0031
753.7138	0.0041
753.8896	0.0053
754.0654	0.0002
754.2412	0.0055
754.417	-0.0012
754.5927	0.0027
754.7685	0.0107
754.9442	0.0033
755.1199	0.0082
755.2956	0.0037
755.4712	0.0029
755.6469	0.0057
755.8225	0.0139
755.9981	0.0106
756.1736	0.0033
756.3492	0.0099
756.5248	0.0119
756.7003	0.0095
756.8758	0.017
757.0513	0.0058
757.2267	0.0056
757.4022	0.0075
757.5776	0.013
757.753	0.005
757.9284	0.0087
758.1038	-0.0113
758.2791	0.0078
758.4545	0.0063
758.6298	0.0022
758.8051	-0.0007
758.9803	0.0075
759.1556	0.0006
759.3308	0.0091
759.506	0.0118
759.6812	0.0071
759.8564	0.0043
760.0316	0.0122
760.2067	0.0023
760.3819	-0.0003
760.557	0.0051
760.732	0.0033
760.9071	0.0103
761.0821	0.0222
761.2572	0.0091
761.4322	0.0108
761.6072	0.0064
761.7821	0.0061
761.9571	0.0019
762.132	0.009
762.3069	0.0142
762.4818	0.0074
762.6567	0.0028
762.8316	0.007
763.0064	-0.004
763.1812	0.0068
763.356	0.0032
763.5308	-0.0038
763.7055	-0.0005
763.8803	0.0118
764.055	0.003
764.2297	0.0091
764.4044	0.0024
764.579	0.0121
764.7537	0.003
764.9283	0.0101
765.1029	0.0146
765.2775	0.0029
765.4521	-0.0067
765.6266	0.0105
765.8011	0.004
765.9756	-0.0009
766.1501	-0.0015
766.3246	-0.0064
766.4991	0.0037
766.6735	-0.0047
766.8479	0.0073
767.0223	-0.0044
767.1967	-0.0008
767.371	0.0116
767.5454	0.0081
767.7197	0.0007
767.894	0.002
768.0683	0.0085
768.2425	0.0039
768.4168	0.0089
768.591	0.0046
768.7652	0.0029
768.9394	0.0035
769.1135	0.0015
769.2877	-0.0021
769.4618	0.007
769.6359	0.0027
769.81	0.0099
769.984	-0.0013
770.1581	-0.0039
770.3321	0.0208
770.5061	-0.0121
770.6801	-0.0021
770.8541	0.0194
771.028	0.0152
771.202	0.0034
771.3759	-0.0058
771.5498	0.0147
771.7236	-0
771.8975	0.0183
772.0713	0.0082
772.2451	0.0025
772.4189	0.004
772.5927	0.0011
772.7665	0.0027
772.9402	0.0066
773.1139	0.0066
773.2876	-0.0029
773.4613	0.0057
773.635	-0.0034
773.8086	-0.0022
773.9822	0.0175
774.1558	0.016
774.3294	0.0093
774.503	-0.0048
774.6765	0.0095
774.8501	0.0067
775.0236	0.0029
775.1971	0.0088
775.3705	0.0175
775.544	0.0243
775.7174	0.0184
775.8908	0.0181
776.0642	0.015
776.2376	-0.0047
776.4109	0.0151
776.5843	0.0037
776.7576	0.0042
776.9309	0.0166
777.1041	0.0112
777.2774	0.0071
777.4506	-0.0003
777.6238	0.0066
777.797	0.0151
777.9702	0.0083
778.1434	0.0173
778.3165	0.0128
778.4896	0.0181
778.6627	0.0067
778.8358	-0.0018
779.0089	0.0102
779.1819	-0.0037
779.3549	0.0164
779.5279	0.0018
779.7009	-0.009
779.8739	-0.0038
780.0468	0.0099
780.2197	0.0058
780.3926	0.0065
780.5655	0.0024
780.7384	-0.0037
780.9112	0.0101
781.0841	0.0032
781.2569	-0.0089
781.4297	-0.0206
781.6024	0.0064
781.7752	-0.0113
781.9479	0.0005
782.1206	0.0076
782.2933	0.0032
782.466	-0.0059
782.6386	0.0094
782.8113	-0.0166
782.9839	0.0053
783.1565	0.01
783.329	0.0008
783.5016	0.0062
783.6741	0.0037
783.8466	0.0043
784.0191	0.0069
784.1916	0.0055
784.3641	0.0019
784.5365	0.0036
784.7089	-0.004
784.8813	-0.004
785.0537	-0.0078
785.2261	-0.0103
785.3984	0.0122
785.5707	0.0166
785.743	0.0012
785.9153	0.0048
786.0876	0.01
786.2598	0.0058
786.432	0.0059
786.6042	0.0024
786.7764	-0.001
786.9486	-0.006
787.1207	0.0097
787.2928	0.0005
787.4649	-0.0095
787.637	-0.0027
787.8091	0.0125
787.9811	-0.0082
788.1532	0.0072
788.3252	0.0074
788.4972	0.0018
788.6691	0.0123
788.8411	-0.0024
789.013	0.0184
789.1849	0.0175
789.3568	0.0098
789.5287	0.0113
789.7005	0.02
789.8723	0.002
790.0442	-0.0005
790.2159	0.0037
790.3877	0.0235
790.5595	0.0199
790.7312	0.0027
790.9029	0.0039
791.0746	0.007
791.2463	0.0233
791.4179	0.0047
791.5896	0.0167
791.7612	0.0162
791.9328	0.007
792.1044	0.0202
792.2759	0.0059
792.4474	0.0176
792.619	0.0114
792.7905	0.0222
792.9619	-0.0007
793.1334	0.0213
793.3048	0.024
793.4762	0.0098
793.6476	0.0068
793.819	0.0144
793.9904	0.0161
794.1617	-0.0001
794.333	0.0127
794.5043	0.0163
794.6756	0.0012
794.8469	-0.008
795.0181	0.0032
795.1893	-0.0002
795.3605	0.002
795.5317	-0.0077
795.7029	0.0017
795.874	0.0134
796.0452	0.0026
796.2163	0.0117
796.3873	0.0037
796.5584	0.0091
796.7294	0.0048
796.9005	0.0004
797.0715	0.0127
797.2425	0.001
797.4134	0.0222
797.5844	0.0172
797.7553	0.008
797.9262	-0.0047
798.0971	0.0234
798.2679	0.0036
798.4388	0.0039
798.6096	-0.0227
798.7804	0.001
798.9512	0.0052
799.122	0.0071
799.2927	-0.0023
799.4635	0.0158
799.6342	0.0207
799.8049	0.0005
799.9755	0.0154
800.1462	-0.001
800.3168	0.0151
800.4874	-0.0009
800.658	0.0081
800.8286	0.0064
800.9991	0.0328
801.1696	0.0117
801.3402	0.0147
801.5106	-0.0027
801.6811	0.0015
801.8516	0.0017
802.022	-0.0096
802.1924	-0.0029
802.3628	0.0023
802.5332	0.0149
802.7035	-0.0059
802.8739	0.0023
803.0442	-0.0081
803.2145	0.0034
803.3847	0.0007
803.555	0.0095
803.7252	0.0104
803.8954	-0.0089
804.0656	-0.0148
804.2358	0.01
804.4059	0.0206
804.5761	0.0184
804.7462	0.0115
804.9163	-0.0042
805.0864	-0.0067
805.2564	-0.0018
805.4264	-0.0037
805.5965	0.0162
805.7665	0.0184
805.9364	-0.0077
806.1064	0.0116
806.2763	0.0143
806.4462	0.0224
806.6161	0.0072
806.786	0.0224
806.9559	0.0213
807.1257	-0.0032
807.2955	0.0135
807.4653	0.0257
807.6351	0.0156
807.8048	0.0065
807.9746	0.0264
808.1443	0.0111
808.314	0.0119
808.4837	0.0343
808.6533	0.0162
808.8229	0.0112
808.9926	0.0137
809.1622	0.0101
809.3317	0.0239
809.5013	0.0324
809.6708	0.0315
809.8403	0.0103
810.0098	0.0295
810.1793	0.0041
810.3488	-0.0072
810.5182	0.019
810.6876	0.0104
810.857	0.0094
811.0264	-0.0046
811.1958	0.0048
811.3651	0.0047
811.5344	0.007
811.7037	0.0076
811.873	-0.0032
812.0422	-0.0113
812.2115	-0.0034
812.3807	0.0204
812.5499	-0.0037
812.7191	0.0311
812.8882	0.0123
813.0574	0.0178
813.2265	0.0227
813.3956	0.011
813.5646	0.0225
813.7337	0.003
813.9027	0.0009
814.0718	0.0259
814.2407	0.0122
814.4097	0.0114
814.5787	0.0153
814.7476	0.0079
814.9165	0.0205
815.0854	-0.0004
815.2543	-0.0059
815.4232	0.0202
815.592	-0.0056
815.7608	0.0213
815.9296	0.0063
816.0984	-0.0067
816.2671	-0.0289
816.4359	0.0077
816.6046	-0.0118
816.7733	-0.0007
816.942	0.0096
817.1106	0.03
817.2793	0.0004
817.4479	-0.0016
817.6165	-0.0051
817.785	-0.0199
817.9536	-0.0032
818.1221	-0.0129
818.2906	-0.0005
818.4591	0.0178
818.6276	0.0161
818.7961	0.0161
818.9645	0.0043
819.1329	0.0087
819.3013	0.0037
819.4697	0.0297
819.638	-0.0121
819.8064	-0.0008
819.9747	-0.0123
820.143	0.0097
820.3113	0.0055
820.4795	-0.0108
820.6477	-0.0154
820.816	-0.035
820.9842	0.0152
821.1523	0.0238
821.3205	-0.0185
821.4886	-0.0082
821.6567	-0.0132
821.8248	0.009
821.9929	0.022
822.1609	-0.0239
822.329	0.0041
822.497	-0.0145
822.665	-0.0279
822.833	-0.0381
823.0009	-0.0024
823.1688	-0.007
823.3367	0.0124
823.5046	0.0089
823.6725	-0.0362
823.8404	-0.0165
824.0082	0.0063
824.176	0.0433
824.3438	-0.0005
824.5116	0.0162
824.6793	0.0152
824.847	0.026
825.0147	0.0022
825.1824	-0.0162
825.3501	-0.0127
825.5177	-0.0189
825.6854	-0.0198
825.853	0.0415
826.0206	0.02
826.1881	0.0274
826.3557	0.0107
826.5232	0.0027
826.6907	-0.0199
826.8582	0.0594
827.0257	0.0293
827.1931	0.0079
827.3605	0.0121
827.528	0.043
827.6953	0.0587
827.8627	0.0039
828.03	0.0269
828.1974	0.0652
828.3647	0.0118
828.532	0.0089
828.6992	0.0043
828.8665	0.044
829.0337	0.0156
829.2009	0.0502
829.3681	0.0089
829.5352	0.0225
829.7024	-0.0029
829.8695	0.0488
830.0366	0.0166
830.2037	-0.0176
830.3707	0.0069
830.5378	0.0169
830.7048	0.0003
830.8718	0.0257
831.0388	-0.0201
831.2057	0.0337
831.3727	0.0274
831.5396	-0.0027
831.7065	-0.0208
831.8734	0.004
832.0402	-0.003
832.2071	-0.0093
832.3739	-0.0065
832.5407	-0.0023
832.7075	-0.022
832.8742	0.0048
833.041	0.0098
833.2077	-0.0075
833.3744	0.0235
833.541	0.0384
833.7077	0.0559
833.8743	0.0698
834.0409	0.0093
834.2075	0.0054
834.3741	0.0301
834.5407	-0.0336
834.7072	-0.0059
834.8737	-0.0165
835.0402	0.0106
835.2067	-0.0028
835.3731	-0.0154
835.5395	0.0003
835.706	0.03
835.8723	-0.012
836.0387	0.0345
836.2051	0.0311
836.3714	-0.062
836.5377	-0.0084
836.704	-0.0328
836.8703	-0.0072
837.0365	-0.0368
837.2027	-0.0031
837.3689	-0.0313
837.5351	-0.0249
837.7013	-0.0164
837.8674	0.0313
838.0335	-0.0055
838.1997	-0.0557
838.3657	0.0018
838.5318	0.0191
838.6978	0.0027
838.8639	-0.0175
839.0299	0.0026
839.1958	0.0051
839.3618	-0.0282
839.5277	0.0184
839.6937	-0.0084
839.8596	-0.0254
840.0254	0.0242
840.1913	0.0485
840.3571	0.023
840.523	0.0521
840.6888	-0.0227
840.8545	0.0075
841.0203	0.0267
841.186	0.0615
841.3517	-0.0263
841.5174	-0.0226
841.6831	0.0318
841.8488	-0.0153
842.0144	0.0392
842.18	-0.0489
842.3456	-0.0004
842.5112	0.0279
842.6767	0.0216
842.8422	0.0235
843.0077	-0.0342
843.1732	0.0202
843.3387	-0.0036
843.5042	-0.0105
843.6696	0.0086
843.835	-0.0239
844.0004	-0.0406
844.1657	-0.0299
844.3311	-0.0293
844.4964	-0.0126
844.6617	-0.0114
844.827	0.0612
844.9923	0.0376
845.1575	0.0168
845.3227	0.0093
845.4879	-0.0399
845.6531	-0.036
845.8183	-0.061
845.9834	0.0464
846.1485	-0.0411
846.3136	-0.0366
846.4787	0.0355
846.6438	-0.0109
846.8088	0.0007
846.9738	-0.0221
847.1388	0.0018
847.3038	0.0044
847.4687	0.0155
847.6337	-0.0901
847.7986	0.0565
847.9635	-0.0007
848.1284	-0.0417
848.2932	0.0116
848.458	0.0161
848.6228	0.1003
848.7876	-0.0124
848.9524	-0.0613
849.1172	0.0695
849.2819	0.0163
849.4466	-0.0186
849.6113	0.0909
849.7759	-0.0578
849.9406	0.0056
850.1052	-0.0327
850.2698	-0.0207
850.4344	-0.0684
850.599	0.0274
850.7635	-0.0358
850.928	-0.04
851.0925	0.0764
851.257	0.066
851.4215	0.0365
851.5859	0.0081
851.7503	-0.0153
851.9147	0.045
852.0791	-0.0159
852.2434	0.009
852.4078	-0.0846
852.5721	0.1257
852.7364	-0.0771
852.9007	-0.1882
853.0649	-0.0479
853.2291	0.0386
853.3934	-0.0166
853.5575	-0.019
853.7217	0.0583
853.8859	-0.1451
854.05	0.024
854.2141	-0.0243
854.3782	0.0683
854.5423	0.0122
854.7063	-0.0116
854.8703	-0.0136
855.0343	0.1431
855.1983	-0.061
855.3623	-0.0336
855.5262	0.0099
855.6901	-0.0709
855.854	-0.1013
856.0179	0.0249
856.1818	0.0462
856.3456	-0.0086
856.5094	0.0155
856.6732	-0.0082
856.837	0.0674
857.0008	-0.2462
857.1645	-0.0129
857.3282	0.31
857.4919	-0.0333
857.6556	0.0648
857.8192	0.0636
857.9828	0.1536
858.1465	0.0552
858.31	-0.0551
858.4736	-0.0365
858.6372	-0.1603
858.8007	-0.1592
858.9642	0.0622
859.1277	-0.2088
859.2911	-0.0306
859.4546	0.0347
859.618	-0.2927
859.7814	-0.0021
859.9448	-0.1236
860.1081	0.0271
860.2715	0.2448
860.4348	-0.0311
860.5981	-0.0784
860.7614	-0.0854
860.9246	0.2564
861.0879	-0.1536
861.2511	0.1492
861.4143	-0.2951
861.5774	0.1759
861.7406	0.6678
861.9037	-0.2746
862.0668	-0.0617
862.2299	0.1256
862.393	0.0216
862.556	0.0591
862.7191	0.06
862.8821	-0.2516
863.0451	-0.0202
863.208	-0.0397
863.371	-0.5131
863.5339	-0.0471
863.6968	0.1811
863.8597	-0.1205
864.0225	0.1783
864.1854	-0.0684
864.3482	-0.0991
864.511	-0.1726
864.6737	-0.1274
864.8365	0.1891
864.9992	-0.1179
865.1619	-0.2165
865.3246	0.1977
865.4873	0.0387
865.65	-0.272
865.8126	0.6065
865.9752	-0.0602
866.1378	0.0109
866.3004	-0
866.4629	0.2727
866.6254	0.0346
866.7879	-0.1971
866.9504	0.1656
867.1129	0.1658
867.2753	0.3361
867.4377	-0.2556
867.6001	0.054
867.7625	-0.2196
867.9249	-0.5479
868.0872	-0.0515
868.2495	-0.06
868.4118	0.2314
868.5741	-0.0834
868.7363	-0
868.8986	0.1429
869.0608	-0.3574
869.223	-0.1723
869.3851	-0.3182
869.5473	0.1126
869.7094	0.1663
869.8715	0.6811
870.0336	-0
870.1957	-0
870.3577	-0.3147
870.5197	-0.1057
870.6817	-0
870.8437	0.1792
871.0057	-0.4797
871.1676	-0.1867
871.3295	-1.2788
871.4914	-0
871.6533	0.0772
871.8151	-0.3769
871.977	-0.7
872.1388	0.2047
872.3006	0.8162
872.4623	-0.1247
872.6241	0.2688
872.7858	0.0488
872.9475	-0
873.1092	0.104
873.2709	-1.6085
873.4325	-0
873.5941	0.5471
873.7557	-0.123
873.9173	0.0904
874.0789	0.2707
874.2404	0.1264
874.4019	-0
874.5634	1.2994
874.7249	0.3223
874.8863	-0.0596
875.0478	-0.1495
875.2092	-0
875.3706	-0.2208
875.5319	-0
875.6933	-0.7141
875.8546	0.0875
876.0159	0.8312
876.1772	0.4925
876.3385	-0.4963
876.4997	0.338
876.6609	-0
876.8221	-0.5838
876.9833	-0.9337
877.1445	0.105
877.3056	-0.2935
877.4667	-0.0974
877.6278	0.2971
877.7889	0.1452
877.9499	0.0858
878.111	-0
878.272	-0.2338
878.433	-0.1533
878.5939	-0.0751
878.7549	0.2314
878.9158	-0.1648
879.0767	-0.3272
879.2376	-0.0033
879.3984	-0
879.5593	0.9009
879.7201	-0.2304
879.8809	0.0349
880.0417	-0.1965
880.2024	-0.1648
880.3632	1.3732
880.5239	-0
880.6846	-0.4983
880.8452	-0.1469
881.0059	-0
881.1665	0.5577
881.3271	-0.589
881.4877	-0
881.6483	-0
881.8088	-0.5308
881.9693	-0.4804
882.1298	-0.4804
882.2903	-0.4804
