Data from MonoPyChalIsomerACN10uM400nmA_Absorbance_12-08-43-928.txt Node
Date: Fri Jul 05 12:08:43 BST 2024
User: LASERRRRR
Spectrometer: FLMT03099
Trigger mode: 0
Integration Time (sec): 1.000000E-1
Scans to average: 1
Electric dark correction enabled: true
Nonlinearity correction enabled: false
Boxcar width: 0
XAxis mode: Wavelengths
Number of Pixels in Spectrum: 3648
>>>>>Begin Spectral Data<<<<<
179.3399	0.6072
179.5586	0.6072
179.7771	0.6072
179.9957	0.2154
180.2143	-0
180.4329	-0.5393
180.6514	-0.1431
180.8699	-0
181.0885	0.1159
181.307	0.0603
181.5255	0.5346
181.744	-0
181.9625	-0.8242
182.181	-0
182.3994	-0.3384
182.6179	-0.1853
182.8363	-0.158
183.0547	0.2329
183.2732	0.031
183.4916	0.0364
183.71	0.2244
183.9284	0.216
184.1467	-0.0129
184.3651	-0.0951
184.5835	0.2047
184.8018	-0.0234
185.0201	0.0879
185.2385	0.1746
185.4568	0.005
185.6751	0.1291
185.8934	-0.096
186.1117	0.1176
186.3299	0.027
186.5482	0.1823
186.7664	0.044
186.9847	0.3144
187.2029	0.1316
187.4211	-0.1753
187.6393	-0.0411
187.8575	0.2917
188.0757	-0.0642
188.2939	0.2306
188.512	-0.0028
188.7302	-0.128
188.9483	0.1734
189.1665	0.1133
189.3846	-0.0346
189.6027	0.2583
189.8208	-0.0112
190.0389	0.1813
190.257	0.196
190.475	0.3392
190.6931	0.1753
190.9111	0.3326
191.1292	0.6038
191.3472	0.3076
191.5652	0.2721
191.7832	0.3711
192.0012	0.3351
192.2192	0.5071
192.4371	0.271
192.6551	0.3795
192.873	0.6405
193.091	0.4245
193.3089	0.3333
193.5268	0.6964
193.7447	0.6544
193.9626	0.2939
194.1805	0.6143
194.3984	0.4244
194.6162	0.4452
194.8341	0.4459
195.0519	0.5949
195.2697	0.4463
195.4875	0.6832
195.7054	0.5883
195.9231	0.6352
196.1409	0.6642
196.3587	0.5915
196.5765	0.4957
196.7942	0.9392
197.012	0.7004
197.2297	0.6658
197.4474	0.6069
197.6651	0.595
197.8828	0.7219
198.1005	0.6232
198.3182	0.8662
198.5358	0.643
198.7535	0.6984
198.9711	0.6125
199.1888	0.6212
199.4064	0.9719
199.624	0.7501
199.8416	0.5246
200.0592	0.6565
200.2767	0.5486
200.4943	0.7336
200.7119	0.7114
200.9294	0.6771
201.1469	0.8505
201.3645	0.6942
201.582	0.832
201.7995	0.8859
202.017	0.8724
202.2344	0.5629
202.4519	0.7175
202.6694	1.1302
202.8868	0.85
203.1042	0.6986
203.3217	0.7161
203.5391	0.7058
203.7565	0.8037
203.9739	0.7062
204.1913	0.8848
204.4086	0.7991
204.626	0.804
204.8433	0.999
205.0607	0.7594
205.278	0.7115
205.4953	0.7507
205.7126	0.6728
205.9299	0.8809
206.1472	0.7481
206.3644	0.6667
206.5817	0.7712
206.7989	0.7402
207.0162	0.7254
207.2334	0.7181
207.4506	0.7498
207.6678	0.7719
207.885	0.7505
208.1022	0.8104
208.3194	0.7302
208.5365	0.7575
208.7537	0.7422
208.9708	0.7344
209.1879	0.7109
209.405	0.6105
209.6222	0.8502
209.8392	0.7644
210.0563	0.7506
210.2734	0.8281
210.4905	0.8332
210.7075	0.7118
210.9245	0.7188
211.1416	0.7931
211.3586	0.8366
211.5756	0.8906
211.7926	0.7838
212.0096	0.667
212.2265	0.6882
212.4435	0.7231
212.6604	0.8025
212.8774	0.6923
213.0943	0.7165
213.3112	0.6718
213.5281	0.6352
213.745	0.7568
213.9619	0.6564
214.1788	0.7084
214.3956	0.7351
214.6125	0.6168
214.8293	0.7425
215.0461	0.6792
215.2629	0.6428
215.4798	0.6082
215.6965	0.6751
215.9133	0.6381
216.1301	0.5871
216.3469	0.6481
216.5636	0.622
216.7803	0.6054
216.9971	0.6207
217.2138	0.6348
217.4305	0.6352
217.6472	0.576
217.8639	0.5708
218.0805	0.5898
218.2972	0.6017
218.5138	0.5674
218.7305	0.5679
218.9471	0.552
219.1637	0.6033
219.3803	0.4704
219.5969	0.5226
219.8135	0.5692
220.0301	0.5826
220.2466	0.5976
220.4632	0.5221
220.6797	0.5708
220.8962	0.547
221.1127	0.5552
221.3292	0.5238
221.5457	0.5461
221.7622	0.5381
221.9787	0.5366
222.1951	0.5708
222.4116	0.5704
222.628	0.5916
222.8444	0.5833
223.0608	0.5012
223.2772	0.5334
223.4936	0.5591
223.71	0.5734
223.9264	0.5504
224.1427	0.5521
224.3591	0.5711
224.5754	0.559
224.7917	0.5603
225.008	0.5787
225.2243	0.5347
225.4406	0.5665
225.6569	0.5395
225.8732	0.5866
226.0894	0.5698
226.3057	0.5592
226.5219	0.5715
226.7381	0.6103
226.9543	0.5547
227.1705	0.5605
227.3867	0.5612
227.6029	0.5671
227.8191	0.5369
228.0352	0.5448
228.2513	0.5718
228.4675	0.5733
228.6836	0.6009
228.8997	0.5795
229.1158	0.5465
229.3319	0.5712
229.548	0.5541
229.764	0.5567
229.9801	0.5831
230.1961	0.5932
230.4121	0.5938
230.6282	0.5795
230.8442	0.5582
231.0602	0.5683
231.2761	0.5495
231.4921	0.609
231.7081	0.5673
231.924	0.5682
232.14	0.5842
232.3559	0.625
232.5718	0.6172
232.7877	0.5869
233.0036	0.5628
233.2195	0.557
233.4353	0.5625
233.6512	0.5599
233.867	0.5824
234.0829	0.5711
234.2987	0.5783
234.5145	0.5228
234.7303	0.574
234.9461	0.5595
235.1619	0.5672
235.3776	0.572
235.5934	0.5633
235.8091	0.5812
236.0249	0.5331
236.2406	0.536
236.4563	0.5779
236.672	0.5418
236.8877	0.5718
237.1034	0.5502
237.319	0.5329
237.5347	0.5486
237.7503	0.5268
237.966	0.5665
238.1816	0.5574
238.3972	0.5639
238.6128	0.5324
238.8284	0.5254
239.0439	0.5232
239.2595	0.5251
239.475	0.531
239.6906	0.5183
239.9061	0.5171
240.1216	0.55
240.3371	0.5335
240.5526	0.5129
240.7681	0.5134
240.9836	0.5289
241.199	0.5103
241.4145	0.501
241.6299	0.4922
241.8453	0.5006
242.0607	0.4855
242.2761	0.4777
242.4915	0.4549
242.7069	0.4566
242.9223	0.4677
243.1376	0.4355
243.353	0.4686
243.5683	0.4587
243.7836	0.4221
243.9989	0.4377
244.2142	0.4359
244.4295	0.3951
244.6448	0.3869
244.86	0.3872
245.0753	0.3724
245.2905	0.384
245.5057	0.3662
245.721	0.3605
245.9362	0.3401
246.1514	0.3416
246.3665	0.338
246.5817	0.3378
246.7969	0.3173
247.012	0.3234
247.2271	0.324
247.4423	0.3019
247.6574	0.3141
247.8725	0.2977
248.0876	0.2944
248.3026	0.2978
248.5177	0.2954
248.7328	0.2802
248.9478	0.2833
249.1628	0.2648
249.3779	0.2636
249.5929	0.2786
249.8079	0.257
250.0228	0.2672
250.2378	0.2569
250.4528	0.2384
250.6677	0.251
250.8827	0.2354
251.0976	0.2417
251.3125	0.2531
251.5274	0.2248
251.7423	0.2363
251.9572	0.2214
252.172	0.2186
252.3869	0.2336
252.6017	0.2293
252.8166	0.2125
253.0314	0.201
253.2462	0.2202
253.461	0.2059
253.6758	0.2128
253.8906	0.2241
254.1053	0.1907
254.3201	0.1959
254.5348	0.2054
254.7496	0.2048
254.9643	0.2012
255.179	0.1986
255.3937	0.1973
255.6083	0.193
255.823	0.1813
256.0377	0.1985
256.2523	0.1943
256.467	0.1951
256.6816	0.1973
256.8962	0.2015
257.1108	0.1939
257.3254	0.2049
257.54	0.1781
257.7545	0.2009
257.9691	0.2014
258.1836	0.1913
258.3981	0.1918
258.6127	0.2063
258.8272	0.1945
259.0417	0.1859
259.2561	0.1706
259.4706	0.1863
259.6851	0.1788
259.8995	0.1906
260.114	0.1699
260.3284	0.1823
260.5428	0.2003
260.7572	0.1858
260.9716	0.1847
261.186	0.1896
261.4003	0.193
261.6147	0.1912
261.829	0.1946
262.0433	0.1806
262.2577	0.1832
262.472	0.1964
262.6863	0.1885
262.9005	0.1861
263.1148	0.18
263.3291	0.1834
263.5433	0.1821
263.7576	0.1934
263.9718	0.1949
264.186	0.1918
264.4002	0.1982
264.6144	0.1813
264.8286	0.1886
265.0427	0.1881
265.2569	0.1836
265.471	0.1863
265.6851	0.1818
265.8993	0.1931
266.1134	0.1877
266.3275	0.1907
266.5415	0.1888
266.7556	0.1842
266.9697	0.1908
267.1837	0.202
267.3978	0.1939
267.6118	0.19
267.8258	0.208
268.0398	0.1971
268.2538	0.202
268.4677	0.1928
268.6817	0.1741
268.8957	0.1864
269.1096	0.1829
269.3235	0.1866
269.5374	0.179
269.7514	0.1751
269.9652	0.1791
270.1791	0.1799
270.393	0.18
270.6068	0.1826
270.8207	0.1931
271.0345	0.1665
271.2483	0.176
271.4622	0.1794
271.676	0.1747
271.8897	0.1849
272.1035	0.1823
272.3173	0.177
272.531	0.1671
272.7448	0.1708
272.9585	0.1819
273.1722	0.1878
273.3859	0.1722
273.5996	0.1771
273.8133	0.1696
274.0269	0.1697
274.2406	0.1816
274.4542	0.1888
274.6679	0.1729
274.8815	0.1746
275.0951	0.1821
275.3087	0.1853
275.5223	0.1788
275.7358	0.17
275.9494	0.1828
276.1629	0.1768
276.3765	0.1776
276.59	0.1829
276.8035	0.1744
277.017	0.1746
277.2305	0.178
277.444	0.1826
277.6574	0.1826
277.8709	0.1669
278.0843	0.1842
278.2978	0.1857
278.5112	0.1968
278.7246	0.1755
278.938	0.1914
279.1513	0.1969
279.3647	0.1751
279.5781	0.1686
279.7914	0.1849
280.0047	0.1822
280.2181	0.1767
280.4314	0.1898
280.6447	0.1861
280.8579	0.1912
281.0712	0.1858
281.2845	0.1828
281.4977	0.1899
281.711	0.1779
281.9242	0.1858
282.1374	0.1763
282.3506	0.1873
282.5638	0.188
282.7769	0.1796
282.9901	0.1864
283.2033	0.1835
283.4164	0.1879
283.6295	0.1858
283.8426	0.1812
284.0557	0.1764
284.2688	0.1782
284.4819	0.1799
284.695	0.1839
284.908	0.1838
285.1211	0.1844
285.3341	0.1998
285.5471	0.1954
285.7601	0.1763
285.9731	0.1871
286.1861	0.1899
286.3991	0.1726
286.612	0.1885
286.825	0.1934
287.0379	0.1931
287.2508	0.18
287.4637	0.1853
287.6766	0.1721
287.8895	0.1808
288.1024	0.1808
288.3152	0.184
288.5281	0.1805
288.7409	0.1739
288.9538	0.1793
289.1666	0.1847
289.3794	0.1735
289.5922	0.1756
289.8049	0.1744
290.0177	0.1817
290.2304	0.1821
290.4432	0.1744
290.6559	0.1836
290.8686	0.183
291.0813	0.1742
291.294	0.1814
291.5067	0.1797
291.7194	0.168
291.932	0.1877
292.1447	0.1881
292.3573	0.1965
292.5699	0.1862
292.7825	0.1697
292.9951	0.1975
293.2077	0.1868
293.4203	0.1851
293.6328	0.1861
293.8454	0.1747
294.0579	0.1921
294.2704	0.1743
294.4829	0.1781
294.6954	0.1796
294.9079	0.1777
295.1204	0.1828
295.3328	0.1701
295.5453	0.1681
295.7577	0.1676
295.9701	0.1643
296.1825	0.1653
296.3949	0.1754
296.6073	0.1666
296.8197	0.1715
297.0321	0.1806
297.2444	0.1654
297.4567	0.1649
297.6691	0.1704
297.8814	0.1717
298.0937	0.1727
298.306	0.1743
298.5182	0.1737
298.7305	0.17
298.9428	0.1727
299.155	0.1736
299.3672	0.1627
299.5794	0.1736
299.7916	0.1667
300.0038	0.1678
300.216	0.1648
300.4282	0.167
300.6403	0.1831
300.8525	0.166
301.0646	0.1709
301.2767	0.1799
301.4888	0.1628
301.7009	0.169
301.913	0.177
302.125	0.1711
302.3371	0.1784
302.5491	0.1692
302.7612	0.1621
302.9732	0.1542
303.1852	0.1804
303.3972	0.1708
303.6092	0.165
303.8211	0.1669
304.0331	0.1523
304.245	0.1626
304.457	0.1727
304.6689	0.1597
304.8808	0.1499
305.0927	0.1689
305.3046	0.1675
305.5164	0.1693
305.7283	0.153
305.9401	0.1553
306.152	0.1561
306.3638	0.1553
306.5756	0.1448
306.7874	0.1509
306.9992	0.1556
307.2109	0.145
307.4227	0.1523
307.6344	0.1508
307.8462	0.1252
308.0579	0.1507
308.2696	0.1476
308.4813	0.1308
308.693	0.1437
308.9046	0.1351
309.1163	0.1437
309.328	0.1274
309.5396	0.1342
309.7512	0.1281
309.9628	0.1312
310.1744	0.1326
310.386	0.1282
310.5976	0.1284
310.8091	0.1191
311.0207	0.1154
311.2322	0.116
311.4437	0.1255
311.6552	0.1256
311.8667	0.1109
312.0782	0.1299
312.2897	0.1137
312.5012	0.1196
312.7126	0.1228
312.924	0.1046
313.1355	0.1218
313.3469	0.1224
313.5583	0.1145
313.7696	0.1126
313.981	0.1177
314.1924	0.1229
314.4037	0.1117
314.6151	0.1114
314.8264	0.1087
315.0377	0.1111
315.249	0.1089
315.4603	0.1082
315.6716	0.116
315.8828	0.1014
316.0941	0.1004
316.3053	0.1021
316.5165	0.1193
316.7277	0.103
316.9389	0.1138
317.1501	0.113
317.3613	0.0947
317.5724	0.1093
317.7836	0.1048
317.9947	0.1122
318.2058	0.1074
318.417	0.1161
318.6281	0.1005
318.8391	0.1003
319.0502	0.1144
319.2613	0.1077
319.4723	0.1048
319.6834	0.1075
319.8944	0.108
320.1054	0.1035
320.3164	0.1229
320.5274	0.1015
320.7383	0.1077
320.9493	0.1077
321.1602	0.1035
321.3712	0.1123
321.5821	0.1111
321.793	0.1082
322.0039	0.1025
322.2148	0.1041
322.4257	0.0993
322.6365	0.1109
322.8474	0.0926
323.0582	0.1106
323.269	0.1185
323.4798	0.1119
323.6906	0.1046
323.9014	0.1234
324.1122	0.1076
324.3229	0.1149
324.5337	0.1147
324.7444	0.1132
324.9551	0.1123
325.1658	0.1145
325.3765	0.11
325.5872	0.1108
325.7979	0.1113
326.0085	0.1023
326.2192	0.0927
326.4298	0.112
326.6404	0.124
326.851	0.1047
327.0616	0.1058
327.2722	0.1166
327.4828	0.1308
327.6933	0.1051
327.9039	0.1043
328.1144	0.1072
328.3249	0.108
328.5354	0.1143
328.7459	0.1103
328.9564	0.1219
329.1669	0.1202
329.3773	0.1099
329.5878	0.1043
329.7982	0.1045
330.0086	0.1185
330.219	0.1053
330.4294	0.1055
330.6398	0.0999
330.8502	0.1159
331.0605	0.1223
331.2708	0.1042
331.4812	0.1124
331.6915	0.0995
331.9018	0.1108
332.1121	0.1094
332.3224	0.1056
332.5326	0.1171
332.7429	0.1217
332.9531	0.112
333.1633	0.1158
333.3735	0.107
333.5837	0.1128
333.7939	0.1068
334.0041	0.1177
334.2143	0.111
334.4244	0.1209
334.6346	0.0966
334.8447	0.1204
335.0548	0.1163
335.2649	0.1168
335.475	0.1157
335.685	0.0979
335.8951	0.1174
336.1051	0.1101
336.3152	0.1134
336.5252	0.1079
336.7352	0.1261
336.9452	0.1169
337.1552	0.1239
337.3652	0.1147
337.5751	0.1224
337.7851	0.115
337.995	0.1197
338.2049	0.1041
338.4148	0.1316
338.6247	0.1029
338.8346	0.1245
339.0445	0.1168
339.2543	0.1358
339.4642	0.1236
339.674	0.1418
339.8838	0.1303
340.0936	0.1277
340.3034	0.1332
340.5132	0.1331
340.7229	0.1465
340.9327	0.1192
341.1424	0.1185
341.3522	0.122
341.5619	0.1308
341.7716	0.1188
341.9813	0.123
342.1909	0.1152
342.4006	0.1292
342.6102	0.1241
342.8199	0.1138
343.0295	0.1326
343.2391	0.112
343.4487	0.1191
343.6583	0.1242
343.8679	0.1332
344.0774	0.1362
344.287	0.1181
344.4965	0.132
344.706	0.1396
344.9155	0.1175
345.125	0.1239
345.3345	0.1307
345.544	0.1481
345.7534	0.1195
345.9629	0.128
346.1723	0.1323
346.3817	0.1347
346.5911	0.134
346.8005	0.1289
347.0099	0.1359
347.2193	0.1351
347.4286	0.1385
347.638	0.1331
347.8473	0.1335
348.0566	0.1458
348.2659	0.1319
348.4752	0.1395
348.6845	0.1486
348.8937	0.145
349.103	0.1288
349.3122	0.1284
349.5214	0.1424
349.7306	0.1452
349.9398	0.1457
350.149	0.1471
350.3582	0.1411
350.5674	0.1584
350.7765	0.1418
350.9856	0.1241
351.1948	0.1459
351.4039	0.1568
351.613	0.1375
351.822	0.1441
352.0311	0.1405
352.2402	0.1417
352.4492	0.1524
352.6582	0.1413
352.8672	0.14
353.0762	0.1559
353.2852	0.1367
353.4942	0.157
353.7032	0.1469
353.9121	0.1517
354.1211	0.13
354.33	0.1587
354.5389	0.156
354.7478	0.1617
354.9567	0.148
355.1655	0.1497
355.3744	0.1452
355.5833	0.1588
355.7921	0.15
356.0009	0.1591
356.2097	0.1471
356.4185	0.1478
356.6273	0.1662
356.8361	0.1649
357.0448	0.1503
357.2536	0.159
357.4623	0.1696
357.671	0.1706
357.8797	0.1618
358.0884	0.1826
358.2971	0.1501
358.5057	0.1732
358.7144	0.1758
358.923	0.1646
359.1316	0.1681
359.3402	0.1762
359.5488	0.1746
359.7574	0.1738
359.966	0.1638
360.1746	0.1698
360.3831	0.1707
360.5916	0.1852
360.8002	0.1886
361.0087	0.1633
361.2172	0.1687
361.4256	0.1778
361.6341	0.1909
361.8426	0.1708
362.051	0.1763
362.2594	0.183
362.4678	0.1674
362.6762	0.171
362.8846	0.1753
363.093	0.1852
363.3014	0.1891
363.5097	0.1858
363.718	0.1879
363.9264	0.1861
364.1347	0.1726
364.343	0.19
364.5513	0.1946
364.7595	0.179
364.9678	0.1903
365.176	0.1988
365.3842	0.2007
365.5925	0.1666
365.8007	0.1994
366.0089	0.1814
366.217	0.1947
366.4252	0.1939
366.6333	0.1857
366.8415	0.1918
367.0496	0.188
367.2577	0.2203
367.4658	0.201
367.6739	0.1947
367.882	0.1865
368.09	0.205
368.2981	0.204
368.5061	0.2115
368.7141	0.2087
368.9221	0.1985
369.1301	0.2061
369.3381	0.2075
369.5461	0.2039
369.754	0.1863
369.962	0.196
370.1699	0.2047
370.3778	0.2187
370.5857	0.2079
370.7936	0.2003
371.0015	0.2049
371.2093	0.2201
371.4172	0.1993
371.625	0.2082
371.8328	0.22
372.0406	0.202
372.2484	0.2001
372.4562	0.2196
372.664	0.2128
372.8717	0.1984
373.0795	0.2089
373.2872	0.2223
373.4949	0.223
373.7026	0.2106
373.9103	0.2165
374.118	0.2015
374.3256	0.2188
374.5333	0.2107
374.7409	0.1887
374.9485	0.2172
375.1561	0.2199
375.3637	0.2203
375.5713	0.2177
375.7789	0.2112
375.9864	0.2147
376.194	0.2209
376.4015	0.2263
376.609	0.2128
376.8165	0.2304
377.024	0.2102
377.2315	0.216
377.4389	0.219
377.6464	0.2398
377.8538	0.2154
378.0612	0.2155
378.2686	0.2486
378.476	0.2224
378.6834	0.2189
378.8908	0.2347
379.0981	0.2411
379.3055	0.2281
379.5128	0.2349
379.7201	0.2353
379.9274	0.2353
380.1347	0.2243
380.342	0.2382
380.5492	0.229
380.7565	0.2373
380.9637	0.2306
381.1709	0.2394
381.3781	0.2309
381.5853	0.238
381.7925	0.2319
381.9997	0.211
382.2068	0.2222
382.4139	0.236
382.6211	0.2297
382.8282	0.221
383.0353	0.2419
383.2424	0.2505
383.4494	0.2405
383.6565	0.2439
383.8635	0.2471
384.0706	0.2436
384.2776	0.2417
384.4846	0.2206
384.6916	0.2449
384.8986	0.222
385.1055	0.2179
385.3125	0.231
385.5194	0.243
385.7263	0.2389
385.9333	0.2271
386.1402	0.2298
386.347	0.2502
386.5539	0.2413
386.7608	0.2397
386.9676	0.2442
387.1744	0.2316
387.3813	0.2369
387.5881	0.2256
387.7948	0.2443
388.0016	0.2407
388.2084	0.2342
388.4151	0.2398
388.6219	0.2332
388.8286	0.2289
389.0353	0.2335
389.242	0.2538
389.4487	0.2273
389.6553	0.2117
389.862	0.2349
390.0686	0.2308
390.2753	0.2366
390.4819	0.236
390.6885	0.239
390.8951	0.1939
391.1016	0.2329
391.3082	0.2074
391.5147	0.2187
391.7213	0.2202
391.9278	0.209
392.1343	0.2274
392.3408	0.2277
392.5473	0.213
392.7537	0.2085
392.9602	0.2217
393.1666	0.2105
393.373	0.2129
393.5794	0.216
393.7858	0.2214
393.9922	0.2291
394.1986	0.2031
394.4049	0.2105
394.6113	0.199
394.8176	0.2133
395.0239	0.2155
395.2302	0.1938
395.4365	0.2066
395.6428	0.2063
395.8491	0.1961
396.0553	0.2342
396.2615	0.2031
396.4678	0.2066
396.674	0.2067
396.8802	0.1981
397.0863	0.2024
397.2925	0.1863
397.4987	0.203
397.7048	0.2103
397.9109	0.2111
398.117	0.1961
398.3231	0.1975
398.5292	0.2014
398.7353	0.2075
398.9413	0.184
399.1474	0.1712
399.3534	0.1978
399.5594	0.2001
399.7654	0.1955
399.9714	0.1816
400.1774	0.1886
400.3833	0.1877
400.5893	0.1908
400.7952	0.2006
401.0011	0.2001
401.207	0.1982
401.4129	0.2014
401.6188	0.202
401.8247	0.187
402.0305	0.1821
402.2364	0.2003
402.4422	0.2068
402.648	0.1822
402.8538	0.1898
403.0596	0.1838
403.2654	0.1957
403.4711	0.183
403.6768	0.1742
403.8826	0.2091
404.0883	0.1872
404.294	0.1949
404.4997	0.1823
404.7054	0.1958
404.911	0.1906
405.1167	0.1842
405.3223	0.2049
405.5279	0.1917
405.7335	0.2107
405.9391	0.2031
406.1447	0.1813
406.3502	0.1887
406.5558	0.2018
406.7613	0.21
406.9668	0.1881
407.1724	0.1885
407.3778	0.1921
407.5833	0.2004
407.7888	0.1902
407.9942	0.1749
408.1997	0.2007
408.4051	0.1909
408.6105	0.1739
408.8159	0.1966
409.0213	0.1739
409.2267	0.1833
409.432	0.189
409.6374	0.1929
409.8427	0.1892
410.048	0.1884
410.2533	0.1852
410.4586	0.1859
410.6639	0.2
410.8691	0.1899
411.0744	0.1996
411.2796	0.1806
411.4848	0.1915
411.69	0.1774
411.8952	0.2109
412.1004	0.1939
412.3056	0.1892
412.5107	0.1783
412.7158	0.1849
412.921	0.1813
413.1261	0.1868
413.3312	0.1751
413.5362	0.1941
413.7413	0.1855
413.9464	0.2026
414.1514	0.1796
414.3564	0.1611
414.5614	0.1479
414.7664	0.1811
414.9714	0.2005
415.1764	0.2035
415.3813	0.184
415.5863	0.1871
415.7912	0.1839
415.9961	0.1837
416.201	0.2035
416.4059	0.1766
416.6108	0.1881
416.8156	0.2076
417.0205	0.1874
417.2253	0.1922
417.4301	0.1757
417.6349	0.1744
417.8397	0.1722
418.0445	0.1858
418.2492	0.1739
418.454	0.1653
418.6587	0.1862
418.8634	0.1759
419.0681	0.1915
419.2728	0.1782
419.4775	0.2014
419.6822	0.1918
419.8868	0.1658
420.0915	0.1591
420.2961	0.1787
420.5007	0.1775
420.7053	0.1784
420.9099	0.1761
421.1144	0.184
421.319	0.1832
421.5235	0.1968
421.728	0.1619
421.9325	0.1805
422.137	0.1581
422.3415	0.1745
422.546	0.1538
422.7504	0.184
422.9549	0.1765
423.1593	0.1569
423.3637	0.1764
423.5681	0.1491
423.7725	0.1511
423.9769	0.1729
424.1812	0.1775
424.3856	0.1686
424.5899	0.1771
424.7942	0.1448
424.9985	0.168
425.2028	0.1421
425.4071	0.154
425.6113	0.1453
425.8156	0.1641
426.0198	0.1617
426.224	0.1528
426.4282	0.1577
426.6324	0.1698
426.8366	0.1539
427.0407	0.146
427.2449	0.1486
427.449	0.1468
427.6531	0.1403
427.8572	0.1532
428.0613	0.1459
428.2654	0.1366
428.4694	0.1627
428.6735	0.145
428.8775	0.1468
429.0815	0.1398
429.2855	0.1384
429.4895	0.1423
429.6935	0.1395
429.8975	0.1448
430.1014	0.1326
430.3053	0.1251
430.5093	0.1416
430.7132	0.1145
430.9171	0.1278
431.1209	0.1266
431.3248	0.1283
431.5286	0.1208
431.7325	0.1286
431.9363	0.1187
432.1401	0.1136
432.3439	0.129
432.5477	0.1358
432.7514	0.1143
432.9552	0.1113
433.1589	0.1258
433.3627	0.1041
433.5664	0.1173
433.7701	0.0908
433.9737	0.0922
434.1774	0.11
434.3811	0.1022
434.5847	0.1129
434.7883	0.0933
434.9919	0.1004
435.1955	0.0919
435.3991	0.123
435.6027	0.1007
435.8062	0.0913
436.0098	0.0955
436.2133	0.0943
436.4168	0.0973
436.6203	0.0848
436.8238	0.0822
437.0272	0.0826
437.2307	0.0898
437.4341	0.0768
437.6375	0.0956
437.841	0.068
438.0443	0.0939
438.2477	0.0733
438.4511	0.0787
438.6545	0.0769
438.8578	0.0723
439.0611	0.0754
439.2644	0.0683
439.4677	0.0794
439.671	0.0729
439.8743	0.0715
440.0775	0.0741
440.2808	0.0697
440.484	0.0705
440.6872	0.0597
440.8904	0.0486
441.0936	0.0729
441.2967	0.049
441.4999	0.0471
441.703	0.0633
441.9062	0.0481
442.1093	0.0603
442.3124	0.0614
442.5155	0.0462
442.7185	0.0516
442.9216	0.0574
443.1246	0.0558
443.3276	0.0586
443.5307	0.0505
443.7337	0.0561
443.9366	0.0501
444.1396	0.0585
444.3426	0.0479
444.5455	0.0522
444.7484	0.0551
444.9513	0.049
445.1542	0.0409
445.3571	0.0531
445.56	0.0463
445.7628	0.0422
445.9657	0.0319
446.1685	0.0483
446.3713	0.0348
446.5741	0.0513
446.7769	0.0487
446.9797	0.0364
447.1824	0.028
447.3852	0.0476
447.5879	0.0321
447.7906	0.0456
447.9933	0.0401
448.196	0.0536
448.3986	0.0322
448.6013	0.0153
448.8039	0.0264
449.0066	0.0259
449.2092	0.0333
449.4118	0.0201
449.6143	0.0212
449.8169	0.0299
450.0195	0.0187
450.222	0.0136
450.4245	0.0222
450.627	0.022
450.8295	0.0168
451.032	0.0192
451.2345	0.0191
451.4369	0.0351
451.6394	0.0194
451.8418	-0.0013
452.0442	0.0043
452.2466	-0.0065
452.449	0.024
452.6513	0.0256
452.8537	0.0358
453.056	0.0077
453.2583	0.0179
453.4607	0.0195
453.663	0.0012
453.8652	0.0251
454.0675	0.0037
454.2697	0.0184
454.472	0.0199
454.6742	0.0006
454.8764	-0.0047
455.0786	-0.0069
455.2808	-0.0017
455.4829	0.0231
455.6851	0.0397
455.8872	0.0259
456.0893	0.0117
456.2915	0.0141
456.4935	-0.0023
456.6956	-0.0038
456.8977	0.0087
457.0997	0.0271
457.3018	0.0163
457.5038	0.0093
457.7058	0.0078
457.9078	0.0018
458.1098	0.0205
458.3117	0.0192
458.5137	-0.0001
458.7156	0.0052
458.9175	0.0078
459.1194	-0.0064
459.3213	0.0247
459.5232	-0.0069
459.725	0.0029
459.9269	0.0017
460.1287	0.0209
460.3305	0.0051
460.5323	0.0054
460.7341	-0.0097
460.9359	-0.0031
461.1376	0.0165
461.3394	-0.0037
461.5411	0.0022
461.7428	-0.0013
461.9445	-0.0106
462.1462	0.0001
462.3479	-0.0069
462.5495	-0.0048
462.7512	-0.0026
462.9528	0.0105
463.1544	-0.0043
463.356	-0.0011
463.5576	0.0002
463.7592	-0.0205
463.9607	0.0179
464.1623	0.007
464.3638	0.011
464.5653	-0.0118
464.7668	-0.007
464.9683	0.0085
465.1697	0.0089
465.3712	0.002
465.5726	0.0106
465.7741	0.0059
465.9755	0.0008
466.1769	0.0066
466.3782	0.0159
466.5796	-0.002
466.7809	-0.0021
466.9823	0.0059
467.1836	0.0154
467.3849	0.0117
467.5862	0.0041
467.7875	0.0145
467.9887	0.0009
468.19	-0.0038
468.3912	0.0106
468.5924	0.0014
468.7936	-0.0011
468.9948	-0.016
469.196	0.0043
469.3972	0.0002
469.5983	0.0057
469.7994	-0.0094
470.0006	-0.027
470.2017	-0.0075
470.4027	-0.0096
470.6038	-0.0156
470.8049	-0.003
471.0059	0.0004
471.2069	-0.0027
471.408	0.0049
471.6089	-0.0102
471.8099	0.0089
472.0109	-0.0045
472.2119	-0.0069
472.4128	-0.02
472.6137	0.0107
472.8146	-0.011
473.0155	-0.0214
473.2164	-0.0041
473.4173	0.0088
473.6181	-0.0106
473.819	0.004
474.0198	-0.0159
474.2206	-0.011
474.4214	0.0034
474.6222	-0.0029
474.8229	0.0065
475.0237	0.0059
475.2244	-0.0066
475.4251	0.002
475.6258	-0.0032
475.8265	-0.0097
476.0272	-0.0013
476.2278	-0.005
476.4285	0.0056
476.6291	-0.0099
476.8297	0.001
477.0303	0.0186
477.2309	0.0036
477.4315	0.0117
477.632	-0.0059
477.8326	-0.0057
478.0331	-0.0246
478.2336	-0.0131
478.4341	-0.0077
478.6346	-0.0027
478.8351	-0.0189
479.0355	-0.0227
479.236	-0.0006
479.4364	-0.0172
479.6368	0.006
479.8372	0.0033
480.0376	-0.0065
480.2379	-0.0081
480.4383	-0.0052
480.6386	-0.0074
480.8389	-0.0176
481.0392	-0.012
481.2395	-0.0159
481.4398	-0.0185
481.6401	-0.0124
481.8403	-0.0051
482.0405	-0.0175
482.2408	-0.0186
482.441	-0.0108
482.6411	-0.0225
482.8413	-0.0187
483.0415	-0.0068
483.2416	-0.0082
483.4417	0.0064
483.6419	-0.0096
483.8419	-0.0041
484.042	0.0069
484.2421	-0.0111
484.4422	0.0014
484.6422	0.0053
484.8422	-0.0054
485.0422	-0.005
485.2422	-0.0039
485.4422	-0.0053
485.6422	-0.0117
485.8421	0.001
486.042	0.0058
486.242	-0.0031
486.4419	-0.007
486.6417	0.0046
486.8416	-0.015
487.0415	-0.0113
487.2413	-0.0048
487.4411	-0.0043
487.641	-0.006
487.8408	-0.0048
488.0405	-0.0068
488.2403	-0.004
488.4401	0.006
488.6398	-0.0074
488.8395	-0.0077
489.0392	-0.0078
489.2389	-0.0256
489.4386	-0.0057
489.6383	-0.0185
489.8379	0.0031
490.0376	0.0028
490.2372	-0.0112
490.4368	-0.0146
490.6364	-0.0021
490.836	-0.0109
491.0355	-0.0127
491.2351	-0.0035
491.4346	-0.0209
491.6341	-0.0087
491.8336	-0.0152
492.0331	-0.0115
492.2326	-0.014
492.432	-0.0156
492.6315	0.0006
492.8309	-0.0087
493.0303	-0.0116
493.2297	-0.0022
493.4291	-0.0125
493.6284	-0.0215
493.8278	-0.0012
494.0271	0.0006
494.2264	-0.001
494.4257	-0.0044
494.625	-0.0042
494.8243	-0.0025
495.0236	-0.0099
495.2228	-0.0093
495.422	-0.0059
495.6213	0.0011
495.8205	-0.0083
496.0196	-0.0199
496.2188	-0.0153
496.418	-0.0078
496.6171	-0.0132
496.8162	-0.0134
497.0153	-0.0027
497.2144	-0.0063
497.4135	-0.0129
497.6126	-0.0205
497.8116	-0.0132
498.0107	-0.0057
498.2097	-0.0112
498.4087	-0.0194
498.6077	-0.0182
498.8067	-0.0083
499.0056	-0.0126
499.2046	-0.0071
499.4035	-0.0152
499.6024	-0.0284
499.8013	-0.0161
500.0002	-0.0083
500.199	-0.0038
500.3979	-0.0098
500.5967	-0.0114
500.7956	-0.0118
500.9944	-0.0121
501.1932	-0.0023
501.3919	-0.0102
501.5907	-0.0076
501.7895	-0.0135
501.9882	-0.0127
502.1869	-0.0096
502.3856	-0.0166
502.5843	-0.013
502.783	0.002
502.9816	-0.0047
503.1803	-0.0085
503.3789	-0.0129
503.5775	-0.0122
503.7761	-0.0158
503.9747	-0.006
504.1732	-0.0091
504.3718	0.0085
504.5703	-0.0007
504.7689	-0.008
504.9674	-0.0094
505.1658	-0.0096
505.3643	0.0039
505.5628	0.0077
505.7612	0.0006
505.9597	-0.0054
506.1581	0.0007
506.3565	-0.0121
506.5549	-0.01
506.7532	-0.0027
506.9516	-0.0021
507.1499	-0.0184
507.3482	0.0034
507.5465	0.0045
507.7448	-0.0067
507.9431	-0.0057
508.1414	-0.0121
508.3396	-0.0072
508.5379	0.0002
508.7361	-0.0084
508.9343	-0.0122
509.1325	-0.0025
509.3306	-0.0196
509.5288	-0.0207
509.7269	0.0028
509.9251	-0.0039
510.1232	0.0031
510.3213	0.001
510.5193	-0.0044
510.7174	-0.0083
510.9154	-0.0054
511.1135	-0.0181
511.3115	-0.0035
511.5095	-0.0014
511.7075	-0.0104
511.9055	-0.0089
512.1034	0.0005
512.3014	-0.0059
512.4993	0.0061
512.6972	-0.0183
512.8951	0.0045
513.093	-0.0113
513.2908	-0.0198
513.4887	-0.0058
513.6865	0.0039
513.8844	-0.0003
514.0822	0.0029
514.2799	-0.0209
514.4777	-0.0022
514.6755	-0.0069
514.8732	-0.0119
515.0709	-0.003
515.2687	-0.002
515.4664	0.0001
515.664	-0.0168
515.8617	-0.0048
516.0594	-0.0028
516.257	-0.0018
516.4546	-0.0078
516.6522	-0.0107
516.8498	-0.0074
517.0474	-0.007
517.2449	-0.0021
517.4425	-0.0056
517.64	-0.0124
517.8375	-0.0108
518.035	-0.0038
518.2325	-0.0155
518.43	0.0009
518.6274	-0.0064
518.8249	0.0039
519.0223	-0.0003
519.2197	-0.0049
519.4171	-0.0104
519.6145	-0.0002
519.8118	-0.0009
520.0092	-0.0093
520.2065	-0.0071
520.4038	-0.0159
520.6011	-0.0012
520.7984	-0.0002
520.9956	-0.0032
521.1929	-0.0089
521.3901	-0.0073
521.5874	-0.011
521.7846	0.0013
521.9818	0.0001
522.1789	0.0005
522.3761	-0.0024
522.5732	-0.0028
522.7704	0.0091
522.9675	-0.0031
523.1646	-0.0051
523.3617	-0.0106
523.5587	-0.0043
523.7558	0.0009
523.9528	0.0017
524.1498	-0.0121
524.3468	-0.003
524.5438	0.0029
524.7408	-0.0052
524.9378	0.0117
525.1347	0.0008
525.3316	0.002
525.5285	-0.012
525.7254	-0.0019
525.9223	-0.0087
526.1192	-0.0082
526.316	0.0049
526.5129	0.0014
526.7097	-0.0004
526.9065	0.0032
527.1033	-0.0058
527.3	0
527.4968	-0.0054
527.6935	-0.0021
527.8903	0.0017
528.087	-0.0028
528.2837	-0.0011
528.4804	0.0027
528.677	-0.0042
528.8737	0.0049
529.0703	0.0054
529.2669	0.0068
529.4635	0.0045
529.6601	-0.0003
529.8567	0.0114
530.0532	0.01
530.2498	-0.0003
530.4463	-0.0006
530.6428	-0.0057
530.8393	-0.0029
531.0358	0.0028
531.2322	0.0058
531.4287	-0.004
531.6251	0.0058
531.8215	-0.0015
532.0179	0.0005
532.2143	0.0001
532.4107	-0.0046
532.607	0.0015
532.8034	-0.0105
532.9997	-0.0029
533.196	0.0033
533.3923	0.0026
533.5886	-0.0032
533.7848	-0.0034
533.9811	-0.0002
534.1773	-0.0074
534.3735	-0.0029
534.5697	-0.0125
534.7659	-0.0112
534.9621	-0.0097
535.1582	-0.0005
535.3544	-0.0053
535.5505	-0.0028
535.7466	-0.0067
535.9427	-0.0047
536.1387	0.0014
536.3348	-0.0026
536.5308	-0.0139
536.7269	0.0088
536.9229	-0.0043
537.1189	-0.0058
537.3148	-0.0033
537.5108	0.0007
537.7068	0.0036
537.9027	0.0001
538.0986	-0.0049
538.2945	0.0038
538.4904	0.0059
538.6863	-0.0019
538.8821	-0.0022
539.078	-0.0051
539.2738	0.0029
539.4696	-0.0072
539.6654	-0.003
539.8611	0.0161
540.0569	-0.0003
540.2526	-0.0081
540.4484	-0.0021
540.6441	0.003
540.8398	-0.0067
541.0355	0.0079
541.2311	-0.0059
541.4268	-0.003
541.6224	0.0056
541.818	0.0014
542.0136	-0.0041
542.2092	0.0049
542.4048	0.0031
542.6003	-0.0024
542.7959	0.0018
542.9914	0.0062
543.1869	-0.0051
543.3824	-0.01
543.5779	0.0018
543.7734	0.0023
543.9688	0.0008
544.1642	-0.0048
544.3596	-0.002
544.555	-0.0036
544.7504	-0.0019
544.9458	-0.0053
545.1411	0.0015
545.3365	0.0013
545.5318	-0.0067
545.7271	0.0014
545.9224	0.0015
546.1177	-0.007
546.3129	-0.0027
546.5081	-0.012
546.7034	-0.002
546.8986	0.0008
547.0938	0.0063
547.289	-0.0008
547.4841	0.0015
547.6793	-0.006
547.8744	0.0016
548.0695	-0.0078
548.2646	-0.0084
548.4597	0.0061
548.6548	0.0042
548.8498	0.0051
549.0448	0.0052
549.2399	0.0025
549.4349	-0.002
549.6298	-0.0014
549.8248	0.0051
550.0198	0.008
550.2147	0.0014
550.4096	-0.008
550.6045	-0.0086
550.7994	-0.0093
550.9943	0.0006
551.1892	-0.0076
551.384	0
551.5788	0.003
551.7737	-0.0174
551.9685	0.0078
552.1632	-0.0031
552.358	-0.0011
552.5528	0.0025
552.7475	-0.0138
552.9422	0.0055
553.1369	-0.0021
553.3316	0.0008
553.5263	0.0135
553.7209	-0.0012
553.9156	0.0036
554.1102	-0.0041
554.3048	-0.0011
554.4994	0.0008
554.694	0.0002
554.8885	0.0046
555.0831	-0.001
555.2776	0.0082
555.4721	0.0081
555.6666	-0.0012
555.8611	-0.0011
556.0555	0.0048
556.25	0.0093
556.4444	0.0098
556.6388	0.0112
556.8332	-0.001
557.0276	0.0036
557.222	0.0019
557.4163	0.0021
557.6107	0.013
557.805	0.0039
557.9993	-0.0063
558.1936	0.0015
558.3879	0.0116
558.5821	0.0106
558.7764	0.0053
558.9706	-0.0002
559.1648	0.005
559.359	0.0045
559.5532	-0.0032
559.7473	0.0078
559.9415	0.0017
560.1356	0.0063
560.3297	0.009
560.5238	0.0074
560.7179	-0.0009
560.9119	0.0025
561.106	0.0072
561.3	0.0053
561.494	0.0015
561.688	0.0043
561.882	0.0062
562.076	-0.0021
562.2699	0.0036
562.4639	-0.0017
562.6578	-0
562.8517	0.0079
563.0456	0.0057
563.2395	-0.0011
563.4333	-0.0064
563.6272	-0.0044
563.821	-0.0067
564.0148	0.0102
564.2086	-0.0144
564.4024	-0.0118
564.5961	0.0047
564.7899	-0.0005
564.9836	0.006
565.1773	0.0075
565.371	0.0017
565.5647	-0.0082
565.7584	-0.0011
565.952	0.0146
566.1456	-0.0001
566.3393	-0.0036
566.5329	-0.0043
566.7264	0.0097
566.92	-0.0038
567.1136	0.0105
567.3071	0.0046
567.5006	0.0091
567.6941	-0.003
567.8876	-0.0027
568.0811	0.0037
568.2745	-0.0023
568.468	0.0068
568.6614	-0.003
568.8548	0.0073
569.0482	0.0069
569.2416	0.0039
569.4349	-0.0006
569.6283	0.0038
569.8216	-0.0055
570.0149	0.0059
570.2082	0.0069
570.4015	-0.0022
570.5947	0.0049
570.788	0.0042
570.9812	0.0102
571.1744	0.0033
571.3676	0.0034
571.5608	0.0031
571.754	0.0001
571.9471	-0.0028
572.1402	0.0005
572.3333	-0.0018
572.5264	0.0004
572.7195	0.0018
572.9126	0.0049
573.1057	0.0018
573.2987	0.0042
573.4917	-0.0054
573.6847	-0.0014
573.8777	-0.0033
574.0707	0.0043
574.2636	-0.0005
574.4566	0.0031
574.6495	0.0005
574.8424	0.004
575.0353	-0.0012
575.2281	0.0106
575.421	0.0032
575.6138	0.0081
575.8067	0.0086
575.9995	0.006
576.1923	0.0037
576.385	0.0044
576.5778	-0.0051
576.7706	0.0042
576.9633	0.0001
577.156	0.0083
577.3487	0.0021
577.5414	0.0015
577.734	-0.0104
577.9267	-0.0089
578.1193	0.004
578.3119	-0.0016
578.5045	0.0021
578.6971	-0.001
578.8897	0.0022
579.0822	0.0038
579.2747	0.0025
579.4673	0.004
579.6598	0.0056
579.8522	0.0065
580.0447	-0.0003
580.2372	0.0077
580.4296	0.0115
580.622	0.0104
580.8144	0.0067
581.0068	0.0076
581.1992	0.0033
581.3915	0.002
581.5839	0.0038
581.7762	-0.0014
581.9685	-0.0067
582.1608	-0.0018
582.353	-0.0064
582.5453	-0.0016
582.7375	-0.0055
582.9298	-0.0052
583.122	0.0028
583.3142	-0.0047
583.5063	0.0034
583.6985	-0.006
583.8906	-0.0023
584.0827	-0.0034
584.2749	-0.001
584.4669	-0.0043
584.659	-0.0017
584.8511	0.0022
585.0431	-0.0029
585.2352	0.0013
585.4272	-0.0031
585.6192	-0.0031
585.8111	-0.0051
586.0031	-0.0008
586.195	-0.004
586.387	-0.0004
586.5789	-0.0078
586.7708	-0.0058
586.9627	-0.0036
587.1545	0.0094
587.3464	0.0064
587.5382	-0.0008
587.73	0.0058
587.9218	0.0079
588.1136	0.0005
588.3053	-0.0023
588.4971	-0.0011
588.6888	0.0053
588.8805	-0.0024
589.0722	0.0012
589.2639	0.0053
589.4556	-0.0012
589.6472	-0.0006
589.8389	0.0013
590.0305	0.0074
590.2221	0.0078
590.4137	0.0037
590.6052	0.0034
590.7968	0.006
590.9883	0.0008
591.1798	-0.0045
591.3713	0.0014
591.5628	-0.0007
591.7543	0.0156
591.9458	0.008
592.1372	-0.0025
592.3286	0.0085
592.52	0.0022
592.7114	0.0137
592.9028	-0.0006
593.0941	0.0026
593.2855	0.0075
593.4768	0.0002
593.6681	0.0006
593.8594	-0.0022
594.0506	-0.0085
594.2419	0.0057
594.4331	0.0033
594.6244	0.0018
594.8156	0.0083
595.0067	0.0048
595.1979	0.0021
595.3891	0.0051
595.5802	-0.0024
595.7713	-0.0073
595.9624	-0.0029
596.1535	-0.0033
596.3446	0.01
596.5357	-0
596.7267	0.002
596.9177	0.0016
597.1087	0.0105
597.2997	0.006
597.4907	-0.0007
597.6817	-0.003
597.8726	0.0119
598.0635	0.0049
598.2544	0.0069
598.4453	0.0051
598.6362	0.0099
598.827	0.0037
599.0179	0.0016
599.2087	0.0014
599.3995	0.0097
599.5903	0.0108
599.7811	0.0043
599.9718	0.0028
600.1626	-0
600.3533	0.001
600.544	0.0025
600.7347	0.0041
600.9254	0.0029
601.116	0.0077
601.3067	-0.009
601.4973	-0.004
601.6879	0.003
601.8785	0.0029
602.0691	-0.0019
602.2596	0.0044
602.4502	0.0074
602.6407	-0.0017
602.8312	-0.0059
603.0217	0.0072
603.2122	0.0024
603.4027	0.004
603.5931	0.0043
603.7835	0.0033
603.9739	-0.0067
604.1643	0.0113
604.3547	0.0057
604.5451	0.0029
604.7354	0.0065
604.9257	0.0003
605.116	-0.0057
605.3063	0.003
605.4966	-0.0024
605.6869	0.0097
605.8771	-0.0004
606.0673	0.0042
606.2575	0.0024
606.4477	0.0006
606.6379	0.0047
606.8281	-0.0041
607.0182	-0.003
607.2083	0.0054
607.3985	0.0032
607.5885	0.0006
607.7786	0.0035
607.9687	0.0061
608.1587	0.0064
608.3488	0.0096
608.5388	0.0096
608.7288	0.0035
608.9187	0.0032
609.1087	0.0005
609.2986	-0.0007
609.4886	-0.0006
609.6785	0.0082
609.8684	-0.0015
610.0582	0.0169
610.2481	0.0052
610.4379	0.0036
610.6278	-0.0028
610.8176	0.0126
611.0074	0.0011
611.1971	-0.0013
611.3869	-0.0023
611.5766	0.0008
611.7664	-0.0052
611.9561	0.0066
612.1458	0.0018
612.3354	0.0063
612.5251	0.012
612.7147	-0.0028
612.9044	0.0126
613.094	0.0012
613.2836	0.011
613.4731	0.0065
613.6627	0.0028
613.8522	0.0114
614.0417	0.0066
614.2313	0.0092
614.4207	0.001
614.6102	0.002
614.7997	-0.001
614.9891	0.0008
615.1785	0.0024
615.3679	0.0035
615.5573	0.0126
615.7467	-0.0008
615.9361	0.005
616.1254	0.0043
616.3147	0.0028
616.504	0.005
616.6933	0.0044
616.8826	0.0087
617.0718	0.001
617.2611	0.0111
617.4503	0.0069
617.6395	0.0076
617.8287	0.0122
618.0179	0.0015
618.207	0.0111
618.3961	0.0037
618.5853	0.0072
618.7744	-0.0046
618.9634	-0.0002
619.1525	0.0058
619.3416	0.0039
619.5306	0.0061
619.7196	-0.0029
619.9086	0.0087
620.0976	0.0063
620.2866	0.0078
620.4755	0.0036
620.6645	0.0093
620.8534	0.0139
621.0423	0.0039
621.2312	-0.0007
621.42	0.0081
621.6089	0.0185
621.7977	0.0146
621.9865	0.0156
622.1753	0.0148
622.3641	0.0027
622.5529	0.0081
622.7416	0.0059
622.9303	0.011
623.1191	0.0112
623.3078	0.0094
623.4964	0.0059
623.6851	0.0142
623.8737	0.0138
624.0624	0.0033
624.251	0.0069
624.4396	0.0075
624.6282	0.0106
624.8167	0.0104
625.0053	-0.0008
625.1938	0.0029
625.3823	0.0092
625.5708	0.0133
625.7593	0
625.9477	0.0087
626.1362	0.0036
626.3246	0.015
626.513	-0.0009
626.7014	0.0048
626.8898	0.0031
627.0781	0.0052
627.2665	0.0003
627.4548	0.0054
627.6431	0.002
627.8314	0.0063
628.0197	0.0031
628.2079	0.01
628.3962	0.0084
628.5844	0.009
628.7726	0.0043
628.9608	0.0076
629.1489	0.0042
629.3371	0.0028
629.5252	0.0088
629.7134	0.0001
629.9015	0.0041
630.0895	0.006
630.2776	-0.0031
630.4657	0.0018
630.6537	0.0025
630.8417	0.0104
631.0297	0.0101
631.2177	0.0093
631.4057	0.0087
631.5936	0.0012
631.7815	0.0185
631.9695	0.0101
632.1574	0.0124
632.3452	0.0093
632.5331	0.0001
632.7209	0.0049
632.9088	-0.0019
633.0966	0.006
633.2844	0.0001
633.4722	-0.0001
633.6599	0.0035
633.8477	0.0125
634.0354	0.0051
634.2231	0.0083
634.4108	0.0085
634.5985	0.0063
634.7861	0.0063
634.9738	0.0094
635.1614	0.0138
635.349	0.0056
635.5366	0.0121
635.7242	0.0057
635.9117	0
636.0993	0.0066
636.2868	0.0068
636.4743	0.0005
636.6618	0.0061
636.8492	0.0174
637.0367	0.007
637.2241	0.0102
637.4115	0.0039
637.5989	0.023
637.7863	0.0105
637.9737	0.0065
638.161	0.005
638.3484	0.0069
638.5357	0.0041
638.723	0.0001
638.9103	0.0051
639.0975	-0.0015
639.2848	0.0053
639.472	0.0003
639.6592	0.0022
639.8464	0.0062
640.0336	0.0068
640.2208	0.0003
640.4079	0.0009
640.595	0.0018
640.7821	0.0054
640.9692	0.0018
641.1563	0.0086
641.3434	0.007
641.5304	0.0092
641.7174	0.0159
641.9044	0.0035
642.0914	0.0064
642.2784	0.0005
642.4653	0.0059
642.6523	-0.0002
642.8392	0.0055
643.0261	0.0076
643.213	-0.0069
643.3999	-0.0022
643.5867	0.008
643.7735	0.007
643.9604	0.0031
644.1472	0.0011
644.3339	0.005
644.5207	0.0035
644.7075	0.0019
644.8942	0.0062
645.0809	0.01
645.2676	0.0011
645.4543	0.0094
645.6409	0.012
645.8276	0.0038
646.0142	0.0066
646.2008	0.0143
646.3874	0.013
646.574	0.0066
646.7605	0.0046
646.9471	0.0145
647.1336	0.0068
647.3201	0.0099
647.5066	0.0022
647.6931	-0.0036
647.8795	-0.0038
648.0659	0.0003
648.2524	0.0023
648.4388	0.0104
648.6252	0.0007
648.8115	-0.0002
648.9979	0.0046
649.1842	0.002
649.3705	-0.0008
649.5568	0.0035
649.7431	0.0118
649.9294	0.0061
650.1156	0.0056
650.3018	0.0041
650.488	0.0021
650.6742	0.003
650.8604	0.0102
651.0466	0.0104
651.2327	0.0078
651.4188	0.0061
651.6049	0.0168
651.791	0.0055
651.9771	0.0125
652.1632	0.0046
652.3492	0.0052
652.5352	0.0051
652.7212	0.0011
652.9072	0.0007
653.0932	0.0067
653.2791	-0.0003
653.465	0.0011
653.651	0.0067
653.8369	0.0054
654.0227	0.0092
654.2086	0.0039
654.3944	0.0051
654.5803	0.0044
654.7661	0.006
654.9519	-0.0019
655.1377	-0.0039
655.3234	-0.0026
655.5092	-0.0014
655.6949	-0.0072
655.8806	-0.0099
656.0663	-0.0033
656.2519	-0.0046
656.4376	0.0001
656.6232	-0.0028
656.8088	0.0051
656.9945	-0.0003
657.18	-0.0004
657.3656	0.0055
657.5511	-0.0032
657.7367	0.0054
657.9222	0.0049
658.1077	0.0101
658.2932	0.0034
658.4786	-0.0032
658.6641	0.0004
658.8495	-0.0017
659.0349	0.0016
659.2203	0.0009
659.4057	-0.0016
659.591	0.0036
659.7764	-0.0045
659.9617	0
660.147	0.004
660.3323	0.0029
660.5176	-0.0022
660.7028	-0.0032
660.888	0.0108
661.0733	0.0073
661.2585	0.0115
661.4436	0.0065
661.6288	0.0085
661.8139	0.0022
661.9991	-0.0018
662.1842	0.0061
662.3693	0.0023
662.5544	0.0114
662.7394	0.0077
662.9245	0.007
663.1095	0.0105
663.2945	0.0088
663.4795	0.0024
663.6644	0.018
663.8494	0.0085
664.0343	0.0111
664.2193	0.0099
664.4042	0.0159
664.589	0.0053
664.7739	-0.0003
664.9587	0.0042
665.1436	-0.0003
665.3284	0.003
665.5132	0.0098
665.698	0.0055
665.8827	0.0073
666.0675	0.0081
666.2522	0.0074
666.4369	0.0066
666.6216	0.0084
666.8063	0.008
666.9909	0.0085
667.1756	0.012
667.3602	0.009
667.5448	0.0089
667.7294	0.0101
667.9139	0.0105
668.0985	0.0123
668.283	0.0062
668.4675	0.0079
668.652	0.0114
668.8365	0.002
669.0209	0.0095
669.2054	-0.0004
669.3898	0.0081
669.5742	0.002
669.7586	0.0033
669.943	0.0031
670.1273	0.0088
670.3117	0.0031
670.496	0.0051
670.6803	0.01
670.8646	0.0066
671.0488	0.0107
671.2331	0.0105
671.4173	0.0091
671.6015	0.0051
671.7857	0.0054
671.9699	0.0069
672.1541	0.0107
672.3382	0.014
672.5223	0.0138
672.7064	0.0097
672.8905	0.0084
673.0746	0.0049
673.2587	0.0115
673.4427	0.0056
673.6267	0.0062
673.8107	0.0117
673.9947	0.0076
674.1787	0.0133
674.3626	0.0142
674.5465	0.0093
674.7304	0.0137
674.9143	0.0081
675.0982	0.0113
675.2821	0
675.4659	0.0118
675.6497	0.006
675.8335	0.0155
676.0173	0.0085
676.2011	0.0051
676.3849	0.0047
676.5686	0.0085
676.7523	0.0115
676.936	-0.0002
677.1197	0.0054
677.3034	0.005
677.487	0.0102
677.6706	0.0091
677.8542	0.0122
678.0378	0.0117
678.2214	0.0018
678.405	0.0203
678.5885	0.0109
678.772	0.0122
678.9555	0.008
679.139	0.0208
679.3225	0.0075
679.5059	0.0128
679.6894	0.005
679.8728	0.0015
680.0562	0.0097
680.2395	0.007
680.4229	0.0065
680.6062	0.0026
680.7896	0.0099
680.9729	0.0028
681.1562	0.0074
681.3394	0.0101
681.5227	0.0068
681.7059	0.0056
681.8891	0.0113
682.0723	0.0032
682.2555	0.0008
682.4387	0.0052
682.6218	0.0099
682.805	0.0102
682.9881	0.0123
683.1712	0.0088
683.3542	0.0093
683.5373	0.007
683.7203	0.0077
683.9034	0.0068
684.0864	0.0023
684.2694	0.0071
684.4523	0.0101
684.6353	-0.0057
684.8182	0.0041
685.0011	0.0032
685.184	-0.0012
685.3669	0.0049
685.5498	0.0003
685.7326	0.0041
685.9154	0.0097
686.0982	0.0097
686.281	0.0044
686.4638	-0.0001
686.6465	0.0041
686.8293	0.0097
687.012	0.0097
687.1947	0.0044
687.3774	0.0155
687.56	0.0011
687.7427	0.0185
687.9253	0.0031
688.1079	0.0039
688.2905	0.0026
688.4731	0.005
688.6556	0.0159
688.8382	0.0013
689.0207	-0.0001
689.2032	0.0076
689.3857	0.0154
689.5681	0.0075
689.7506	-0.001
689.933	0.004
690.1154	0.0003
690.2978	0.004
690.4802	0.0002
690.6626	0.0035
690.8449	0.012
691.0272	0.0044
691.2095	0.014
691.3918	0.0132
691.5741	0.014
691.7563	0.0112
691.9386	0.0036
692.1208	0.0019
692.303	0.0051
692.4852	0.0075
692.6673	0.0065
692.8495	0.0109
693.0316	0.0147
693.2137	0.0164
693.3958	0.0112
693.5778	0.0086
693.7599	0.0138
693.9419	0.0108
694.1239	0.0157
694.3059	0.0118
694.4879	0.0141
694.6699	0.0015
694.8518	0.0066
695.0337	0.0027
695.2157	0.015
695.3975	0.0051
695.5794	0.0048
695.7613	0.0056
695.9431	0.0028
696.1249	0.0106
696.3067	-0.0018
696.4885	0.0071
696.6703	0.012
696.852	0.0043
697.0337	0.0072
697.2154	0.0109
697.3971	0.0119
697.5788	0.0124
697.7605	0.0047
697.9421	-0.0013
698.1237	0.0152
698.3053	0.0077
698.4869	-0.0011
698.6685	0.0064
698.85	-0.0002
699.0315	0.0202
699.213	0.0151
699.3945	0.0006
699.576	0.0214
699.7575	0.0178
699.9389	0.0159
700.1203	0.0105
700.3017	0.0114
700.4831	0.0029
700.6645	0.001
700.8458	0.0124
701.0271	0.0079
701.2084	0.0011
701.3897	-0.0012
701.571	0.0056
701.7523	-0.0057
701.9335	-0.0085
702.1147	-0.0001
702.2959	-0.0009
702.4771	0.0004
702.6583	-0.0007
702.8394	0.0054
703.0205	-0.0045
703.2016	0.0119
703.3827	0.007
703.5638	0.0104
703.7449	0.0037
703.9259	0.0048
704.1069	0.0056
704.2879	0.0005
704.4689	0.0037
704.6499	0.0007
704.8308	0.0143
705.0117	0.0045
705.1927	0.0027
705.3735	-0.004
705.5544	0.001
705.7353	0.0062
705.9161	0.0024
706.0969	0.0067
706.2777	0.0072
706.4585	0.006
706.6393	0.0096
706.82	0.0034
707.0007	0.0024
707.1815	0.001
707.3621	0.0038
707.5428	0.0117
707.7235	0.0051
707.9041	0.006
708.0847	0.0081
708.2653	0.0072
708.4459	0.0087
708.6265	0.0144
708.807	0.0067
708.9875	0.0233
709.168	0.0087
709.3485	0.0131
709.529	0.005
709.7095	0.0177
709.8899	0.0076
710.0703	0.0113
710.2507	0.0063
710.4311	0.0066
710.6115	0.0085
710.7918	0.0048
710.9721	0.0079
711.1524	0.0055
711.3327	-0.006
711.513	-0.0009
711.6932	0.0048
711.8735	0.0023
712.0537	-0.0035
712.2339	-0.0106
712.4141	-0.0053
712.5942	-0.0052
712.7744	0.0078
712.9545	0.0053
713.1346	0.0081
713.3147	0.0074
713.4947	-0.0017
713.6748	0.0021
713.8548	-0.0004
714.0348	-0
714.2148	-0.0015
714.3948	-0.002
714.5748	0.0022
714.7547	-0
714.9346	0.0003
715.1145	0.0009
715.2944	0.0026
715.4743	0.0072
715.6541	0.0149
715.834	-0
716.0138	0.0098
716.1936	0.012
716.3733	0.0122
716.5531	0.011
716.7328	0.0025
716.9126	0.0161
717.0923	0.0105
717.2719	0.0097
717.4516	0.0026
717.6312	0.0065
717.8109	0.0033
717.9905	0.0022
718.1701	-0.0016
718.3496	0.0039
718.5292	0.0003
718.7087	-0.0118
718.8882	0.0019
719.0677	0.0105
719.2472	0.0043
719.4267	0.012
719.6061	0.0042
719.7856	0.0016
719.965	0.0096
720.1443	0.0073
720.3237	0.0066
720.5031	0.0021
720.6824	0.0095
720.8617	0.0073
721.041	0.0014
721.2203	0.0038
721.3995	0.0152
721.5788	0.0094
721.758	0.0004
721.9372	0.0056
722.1164	0.0158
722.2956	0.0038
722.4747	0.0103
722.6538	0.001
722.8329	0.0022
723.012	0.0062
723.1911	0.0006
723.3702	0.0069
723.5492	0.0016
723.7282	0.0114
723.9072	0.0042
724.0862	0.006
724.2652	0.0117
724.4441	-0.0067
724.623	0.0089
724.8019	-0.0048
724.9808	-0.0015
725.1597	0.0049
725.3385	0.0098
725.5174	0.0084
725.6962	0.0038
725.875	-0.0034
726.0538	0.003
726.2325	0.0089
726.4112	-0.0028
726.59	0.0072
726.7687	0.0051
726.9474	-0.0059
727.126	-0.0015
727.3047	-0.0083
727.4833	-0.0013
727.6619	-0.0036
727.8405	0.0026
728.0191	-0.001
728.1976	-0.0001
728.3762	-0.0016
728.5547	-0.0013
728.7332	0.0063
728.9116	-0.0055
729.0901	0.0048
729.2686	0.0029
729.447	0.0031
729.6254	0.0005
729.8038	0.0071
729.9821	0.007
730.1605	0.0122
730.3388	0.0021
730.5171	0.0017
730.6954	0.0084
730.8737	-0.0014
731.0519	-0.0018
731.2302	0.0047
731.4084	-0.0017
731.5866	-0.0046
731.7648	0.0096
731.9429	0.0066
732.1211	0.0022
732.2992	0.0088
732.4773	-0.0131
732.6554	0.0034
732.8335	-0.0052
733.0115	-0.0023
733.1896	0.004
733.3676	-0.0015
733.5456	0.0013
733.7235	0.0029
733.9015	0.0048
734.0794	-0.0023
734.2574	0.0079
734.4353	0.0015
734.6131	0.0016
734.791	0.0045
734.9689	0.0176
735.1467	-0.0048
735.3245	-0.0053
735.5023	0.0201
735.68	0.008
735.8578	0.007
736.0355	0.0018
736.2132	0.0042
736.3909	0.0057
736.5686	0.0116
736.7463	0.0013
736.9239	0.0157
737.1015	0.0143
737.2791	0.0128
737.4567	0.0058
737.6343	0.0015
737.8118	0.0018
737.9894	-0.0031
738.1669	0.0046
738.3444	-0.0018
738.5218	0.0053
738.6993	0.0037
738.8767	0.002
739.0541	0.0006
739.2315	-0.0025
739.4089	0.0106
739.5863	0.0092
739.7636	-0.0012
739.9409	-0.0013
740.1182	0.0047
740.2955	0.0086
740.4728	0.0096
740.65	-0.0016
740.8272	-0.0043
741.0044	-0.0085
741.1816	0.0057
741.3588	-0.0021
741.5359	0.0067
741.7131	0.0022
741.8902	-0.0023
742.0673	0.0095
742.2444	0.0063
742.4214	0.0026
742.5985	0.0093
742.7755	-0.0028
742.9525	-0.0022
743.1295	0.0094
743.3064	0.0082
743.4834	0.0007
743.6603	-0.0072
743.8372	-0.0077
744.0141	0.0112
744.191	-0.0009
744.3678	-0.0046
744.5446	-0.0003
744.7215	0.0216
744.8982	0.0094
745.075	0.0057
745.2518	-0.0036
745.4285	-0.0042
745.6052	0.0039
745.7819	-0.0113
745.9586	-0.0032
746.1353	-0.0098
746.3119	0.0103
746.4885	-0.0047
746.6651	0.0029
746.8417	0.0024
747.0183	0.008
747.1948	0.0001
747.3714	0.0017
747.5479	-0.0084
747.7244	0.0035
747.9008	0.0175
748.0773	-0.0021
748.2537	-0.0005
748.4301	0.0038
748.6065	0.0102
748.7829	0.0058
748.9593	0.007
749.1356	0.0137
749.3119	0.0143
749.4882	0.0035
749.6645	0.0017
749.8408	0.0013
750.017	0.0119
750.1933	0.0147
750.3695	0.0087
750.5457	0.0088
750.7218	0.004
750.898	0.0189
751.0741	0.0119
751.2502	0.0212
751.4263	0.0086
751.6024	0.0035
751.7784	0.0051
751.9545	0.0173
752.1305	0.0101
752.3065	0.0065
752.4825	0.0088
752.6584	0.0118
752.8344	0.0038
753.0103	0.0019
753.1862	0.0007
753.3621	0.0007
753.5379	0.0081
753.7138	0.0101
753.8896	0.0025
754.0654	-0.0004
754.2412	-0.0059
754.417	0.0063
754.5927	-0.0047
754.7685	0.0061
754.9442	0.0036
755.1199	0.0057
755.2956	0.0139
755.4712	-0.0016
755.6469	0.0054
755.8225	0.0132
755.9981	0.0067
756.1736	0.0052
756.3492	0.0055
756.5248	0.0122
756.7003	0.0048
756.8758	0.0108
757.0513	0.0082
757.2267	0.0101
757.4022	0.0048
757.5776	0.0088
757.753	0.0043
757.9284	0.0074
758.1038	-0.002
758.2791	0.012
758.4545	0.017
758.6298	0.0012
758.8051	0.0083
758.9803	0.0076
759.1556	-0.0033
759.3308	0.0092
759.506	0.008
759.6812	0.0006
759.8564	0.0066
760.0316	0.0103
760.2067	0.0069
760.3819	0.0016
760.557	-0.0025
760.732	0.0063
760.9071	0.0177
761.0821	0.0126
761.2572	0.0171
761.4322	0.0076
761.6072	-0.001
761.7821	0.0075
761.9571	0.001
762.132	0.0113
762.3069	0.0176
762.4818	0.0011
762.6567	0.001
762.8316	-0.0051
763.0064	-0.0026
763.1812	0.0024
763.356	0.0038
763.5308	0.0147
763.7055	0.0083
763.8803	0.005
764.055	0.0006
764.2297	0.007
764.4044	0.0079
764.579	0.0136
764.7537	0.006
764.9283	0.0085
765.1029	0.0051
765.2775	0.0017
765.4521	-0.0021
765.6266	-0.0038
765.8011	0.0038
765.9756	0.0048
766.1501	0.0042
766.3246	0.0014
766.4991	0.003
766.6735	-0.0064
766.8479	0.0078
767.0223	-0.0189
767.1967	0.0002
767.371	0.0016
767.5454	-0.0048
767.7197	0.006
767.894	0.0165
768.0683	0.0088
768.2425	0.0116
768.4168	-0.0066
768.591	0.0096
768.7652	0.0099
768.9394	0.0049
769.1135	0.0078
769.2877	-0.001
769.4618	0.0131
769.6359	0.0181
769.81	-0.0012
769.984	0.0038
770.1581	-0.0043
770.3321	0.0067
770.5061	-0.0047
770.6801	-0.0029
770.8541	0.0095
771.028	0.0106
771.202	0.0038
771.3759	-0.0036
771.5498	0.0072
771.7236	0.0102
771.8975	-0.0008
772.0713	0.0092
772.2451	0.0035
772.4189	-0.0068
772.5927	0.0044
772.7665	-0.0042
772.9402	0.007
773.1139	0.0024
773.2876	-0.0033
773.4613	0.0059
773.635	0.0093
773.8086	0.0029
773.9822	0.0147
774.1558	0.0105
774.3294	0.0137
774.503	0.0008
774.6765	0.0176
774.8501	0.0067
775.0236	0.008
775.1971	0.018
775.3705	0.0189
775.544	0.0199
775.7174	0.0087
775.8908	0.0189
776.0642	0.0045
776.2376	0.0052
776.4109	0.0043
776.5843	-0.0004
776.7576	0.008
776.9309	0.0051
777.1041	0.0063
777.2774	-0.0029
777.4506	0.0006
777.6238	-0.0052
777.797	0.0022
777.9702	0.0011
778.1434	0.0176
778.3165	0.0038
778.4896	0.0168
778.6627	0.0005
778.8358	0.0071
779.0089	0.0014
779.1819	-0.0041
779.3549	0.0138
779.5279	0.0102
779.7009	0.0119
779.8739	-0.0027
780.0468	0.0074
780.2197	-0.0012
780.3926	0.0065
780.5655	-0.0011
780.7384	-0.0015
780.9112	0.004
781.0841	-0.0141
781.2569	-0.0042
781.4297	-0.0218
781.6024	0.0088
781.7752	-0.0087
781.9479	0.0022
782.1206	0.0011
782.2933	0.0086
782.466	-0.0058
782.6386	0.0066
782.8113	-0.0149
782.9839	-0.0048
783.1565	0.0058
783.329	-0.0059
783.5016	-0.0036
783.6741	0.0056
783.8466	0.0138
784.0191	-0.01
784.1916	-0.0048
784.3641	0.0098
784.5365	0.0068
784.7089	-0.0018
784.8813	-0.0049
785.0537	-0.0113
785.2261	-0.0021
785.3984	0.0137
785.5707	0.0003
785.743	0.0027
785.9153	0.0071
786.0876	-0.0006
786.2598	-0.0166
786.432	0.0083
786.6042	-0.0009
786.7764	0.0093
786.9486	0.0033
787.1207	0.0038
787.2928	0.0085
787.4649	-0.0005
787.637	0.0062
787.8091	0.0122
787.9811	-0.0001
788.1532	0.0007
788.3252	0.0007
788.4972	0.0026
788.6691	0.0092
788.8411	-0.0108
789.013	0.013
789.1849	0.0179
789.3568	0.0133
789.5287	0.0015
789.7005	0.0086
789.8723	0.0118
790.0442	-0.0044
790.2159	-0.0083
790.3877	0.0211
790.5595	0.0214
790.7312	0.0046
790.9029	0.0198
791.0746	0.0093
791.2463	0.0232
791.4179	0.0148
791.5896	0.0053
791.7612	0.03
791.9328	0.0158
792.1044	0.0254
792.2759	0.0102
792.4474	0.006
792.619	0.009
792.7905	0.021
792.9619	0.0062
793.1334	0.0216
793.3048	0.0213
793.4762	0.0062
793.6476	0.0013
793.819	0.0213
793.9904	0.0163
794.1617	-0.0101
794.333	0.0091
794.5043	0.0149
794.6756	0.001
794.8469	0.0023
795.0181	-0.0037
795.1893	0.0069
795.3605	0.0133
795.5317	-0.0026
795.7029	-0.0089
795.874	-0.0081
796.0452	0.0206
796.2163	0.0169
796.3873	0.0128
796.5584	0.0196
796.7294	0.0075
796.9005	0.0014
797.0715	0.0134
797.2425	-0.0061
797.4134	0.0116
797.5844	0.0238
797.7553	0.0154
797.9262	0.0095
798.0971	0.0104
798.2679	-0.0031
798.4388	0.006
798.6096	-0.0084
798.7804	0.0166
798.9512	0.0046
799.122	0.0019
799.2927	0.0063
799.4635	0.0028
799.6342	0.0177
799.8049	0.0209
799.9755	0.0049
800.1462	0.008
800.3168	0.0176
800.4874	-0.0052
800.658	0.0206
800.8286	0.0004
800.9991	0.0379
801.1696	0.0041
801.3402	-0.0124
801.5106	0.0174
801.6811	0.0025
801.8516	-0.004
802.022	0.0122
802.1924	-0.0151
802.3628	0.0157
802.5332	0.0052
802.7035	0.0114
802.8739	-0.0037
803.0442	-0.0001
803.2145	-0.008
803.3847	0.0047
803.555	0.0101
803.7252	0.0147
803.8954	0.0032
804.0656	-0.0105
804.2358	0.0033
804.4059	0.0115
804.5761	-0.0008
804.7462	0.0101
804.9163	-0.0049
805.0864	-0.004
805.2564	0.0033
805.4264	0.0015
805.5965	0.0073
805.7665	0.0156
805.9364	-0.0122
806.1064	0.0118
806.2763	0.0154
806.4462	0.0167
806.6161	0.0158
806.786	0.0308
806.9559	0.0117
807.1257	0.0126
807.2955	0.0332
807.4653	0.0279
807.6351	0.0124
807.8048	0.0216
807.9746	0.025
808.1443	0.0097
808.314	0.0174
808.4837	0.0271
808.6533	0.0107
808.8229	0.0288
808.9926	-0.0017
809.1622	0.0244
809.3317	0.0226
809.5013	0.0369
809.6708	0.0031
809.8403	0.0129
810.0098	0.0097
810.1793	0.0036
810.3488	0.0091
810.5182	0.028
810.6876	0.0174
810.857	0.0129
811.0264	0.0066
811.1958	0.0127
811.3651	0.0067
811.5344	0.039
811.7037	-0.0055
811.873	-0.0102
812.0422	0.0105
812.2115	0.0128
812.3807	0.0254
812.5499	0.0174
812.7191	0.0225
812.8882	0.0192
813.0574	0.0109
813.2265	0.03
813.3956	0.0054
813.5646	0.0006
813.7337	0.0078
813.9027	0.0019
814.0718	0.0237
814.2407	0.0184
814.4097	-0.0086
814.5787	0.015
814.7476	-0.0048
814.9165	0.0004
815.0854	-0.0097
815.2543	0.0034
815.4232	0.0087
815.592	-0.0157
815.7608	0.0112
815.9296	-0.0082
816.0984	0.0103
816.2671	-0.0225
816.4359	-0.0102
816.6046	0.0093
816.7733	-0.0203
816.942	0.0038
817.1106	0.0042
817.2793	0.0013
817.4479	0.0098
817.6165	-0.0014
817.785	-0.0148
817.9536	0.0056
818.1221	0.006
818.2906	-0.0053
818.4591	0.0161
818.6276	0.0127
818.7961	0.0151
818.9645	0.0249
819.1329	0.014
819.3013	0.0214
819.4697	0.0107
819.638	-0.0002
819.8064	0.0091
819.9747	-0.0068
820.143	0.0004
820.3113	-0.0045
820.4795	-0.0093
820.6477	0.0015
820.816	-0.0023
820.9842	0.0008
821.1523	0.0179
821.3205	-0.0143
821.4886	-0.0135
821.6567	-0.0002
821.8248	0.0146
821.9929	0.0215
822.1609	0.0105
822.329	0.0146
822.497	0.0044
822.665	-0.0114
822.833	-0.0207
823.0009	0.0005
823.1688	0.0048
823.3367	-0.0024
823.5046	-0.0118
823.6725	-0.031
823.8404	-0.0306
824.0082	-0.0033
824.176	0.0104
824.3438	0.0322
824.5116	0.0114
824.6793	-0.0217
824.847	0.0378
825.0147	-0.0007
825.1824	0.0005
825.3501	-0.007
825.5177	-0.017
825.6854	-0.008
825.853	0.027
826.0206	0.0075
826.1881	0.0022
826.3557	0.0293
826.5232	0.0171
826.6907	0.0172
826.8582	0.0131
827.0257	0.0228
827.1931	-0.0161
827.3605	0.0121
827.528	0.0234
827.6953	0.0328
827.8627	-0.0048
828.03	0.0511
828.1974	0.0268
828.3647	-0.012
828.532	-0.0224
828.6992	0.0189
828.8665	0.0575
829.0337	0.0033
829.2009	0.0219
829.3681	-0.0051
829.5352	0.0195
829.7024	0.024
829.8695	0.0084
830.0366	-0.0239
830.2037	-0.0081
830.3707	0.0078
830.5378	0.0012
830.7048	-0.0105
830.8718	-0.007
831.0388	-0.0122
831.2057	-0.0034
831.3727	0.04
831.5396	0.0062
831.7065	-0.042
831.8734	0.0018
832.0402	-0.0183
832.2071	-0.0062
832.3739	0.0183
832.5407	0.0267
832.7075	-0.0111
832.8742	0.0211
833.041	-0.0167
833.2077	0.0024
833.3744	0.0513
833.541	0.0306
833.7077	0.0432
833.8743	0.0691
834.0409	0.0216
834.2075	0.0319
834.3741	0.0275
834.5407	0.0077
834.7072	0.0181
834.8737	-0.0451
835.0402	-0.0286
835.2067	-0.0204
835.3731	0.0159
835.5395	-0.0208
835.706	0.0073
835.8723	-0.0178
836.0387	0.0188
836.2051	0.0244
836.3714	-0.0603
836.5377	-0.0004
836.704	-0.0342
836.8703	-0.0419
837.0365	-0.0514
837.2027	0.0264
837.3689	-0.0396
837.5351	-0.0198
837.7013	-0.0347
837.8674	0.0171
838.0335	-0.0403
838.1997	-0.0368
838.3657	0.0118
838.5318	-0.0127
838.6978	0.0386
838.8639	-0.032
839.0299	0.0296
839.1958	-0.025
839.3618	-0.0061
839.5277	0.019
839.6937	0.0011
839.8596	-0.0317
840.0254	0.0051
840.1913	-0.0005
840.3571	-0.0289
840.523	0.0565
840.6888	-0.0022
840.8545	-0.0044
841.0203	0.0469
841.186	0.0355
841.3517	-0.008
841.5174	-0.0446
841.6831	0.0085
841.8488	0.0428
842.0144	0.0643
842.18	-0.0243
842.3456	0.0011
842.5112	0.0268
842.6767	0.0012
842.8422	-0.0208
843.0077	0.0257
843.1732	-0.0222
843.3387	-0.026
843.5042	0.0163
843.6696	0.026
843.835	-0.0473
844.0004	0.0331
844.1657	0.0148
844.3311	0.0171
844.4964	-0.0224
844.6617	-0.096
844.827	0.0276
844.9923	0.0412
845.1575	0.0051
845.3227	0.0272
845.4879	-0.0119
845.6531	0.0379
845.8183	-0.0121
845.9834	0.0268
846.1485	0.0229
846.3136	-0.0497
846.4787	0.014
846.6438	0.0642
846.8088	-0.0446
846.9738	-0.0301
847.1388	0.032
847.3038	-0.0228
847.4687	0.0221
847.6337	-0.0772
847.7986	0.0751
847.9635	0.044
848.1284	-0.0317
848.2932	-0.0089
848.458	0.0592
848.6228	0.0066
848.7876	0.0112
848.9524	-0.024
849.1172	0.0062
849.2819	0.0233
849.4466	-0.0099
849.6113	0.0439
849.7759	0.0006
849.9406	0.0184
850.1052	-0.1478
850.2698	0.0485
850.4344	-0.0733
850.599	0.0761
850.7635	-0.0026
850.928	0.0619
851.0925	0.0638
851.257	0.0776
851.4215	-0.0561
851.5859	0.0988
851.7503	-0.1143
851.9147	0.1056
852.0791	-0.0649
852.2434	0.0432
852.4078	-0.0186
852.5721	0.0594
852.7364	-0.1184
852.9007	-0.1355
853.0649	0.0396
853.2291	0.1118
853.3934	-0.0169
853.5575	-0.1635
853.7217	0.0167
853.8859	-0.0201
854.05	0.0698
854.2141	0.0153
854.3782	0.0375
854.5423	-0.0384
854.7063	0.0412
854.8703	0.0071
855.0343	0.0439
855.1983	-0.0162
855.3623	0.0485
855.5262	0.0139
855.6901	-0.193
855.854	0.001
856.0179	0.0176
856.1818	0.0084
856.3456	-0.0678
856.5094	0.0079
856.6732	-0.0462
856.837	0.0327
857.0008	-0.2351
857.1645	0.0659
857.3282	0.1071
857.4919	0.2131
857.6556	-0.0051
857.8192	-0.1238
857.9828	0.0881
858.1465	-0.0682
858.31	-0.1
858.4736	0.258
858.6372	-0.0557
858.8007	-0.3545
858.9642	0.0653
859.1277	-0.1479
859.2911	-0.0346
859.4546	-0.065
859.618	-0.5041
859.7814	0.0368
859.9448	-0.1315
860.1081	0.1114
860.2715	-0.1839
860.4348	-0.0618
860.5981	0.2841
860.7614	-0.1841
860.9246	-0.0129
861.0879	-0.1862
861.2511	0.0702
861.4143	-0.2273
861.5774	-0.2839
861.7406	0.5017
861.9037	-0.2952
862.0668	0.0014
862.2299	-0.0231
862.393	0.0999
862.556	0.2563
862.7191	0.0452
862.8821	0.0157
863.0451	-0.2488
863.208	0.102
863.371	-0.5453
863.5339	0.0211
863.6968	0.0382
863.8597	-0.3097
864.0225	0.2919
864.1854	-0.2116
864.3482	0.1373
864.511	0.0221
864.6737	-0.2302
864.8365	0.2015
864.9992	-0.1391
865.1619	-0.3157
865.3246	-0.0687
865.4873	-0.2439
865.65	-0.2507
865.8126	-0.3438
865.9752	-0.003
866.1378	0.3469
866.3004	-0
866.4629	-0.0498
866.6254	-0.3637
866.7879	-0.1238
866.9504	0.5374
867.1129	0.0225
867.2753	0.0015
867.4377	-0.2844
867.6001	-0.0955
867.7625	-0.1548
867.9249	-0.505
868.0872	0.3904
868.2495	-0
868.4118	0.2407
868.5741	-0.1754
868.7363	0.2517
868.8986	-0.2443
869.0608	0.1717
869.223	-0.1483
869.3851	-0.1006
869.5473	0.4356
869.7094	-0.0905
869.8715	-0
870.0336	-0
870.1957	-0
870.3577	0.0032
870.5197	-0.1621
870.6817	0.2544
870.8437	0.0689
871.0057	-0.0973
871.1676	-0.2881
871.3295	-0.6608
871.4914	-0
871.6533	-0.0278
871.8151	0.0207
871.977	-0.6014
872.1388	0.7905
872.3006	0.0331
872.4623	0.0998
872.6241	-0.9072
872.7858	0.1224
872.9475	-0.0579
873.1092	0.0683
873.2709	-0
873.4325	-0
873.5941	1.5323
873.7557	-0.1992
873.9173	-0.0766
874.0789	-0
874.2404	-0
874.4019	-0.4516
874.5634	-0.237
874.7249	0.0514
874.8863	-0.1084
875.0478	-0.0167
875.2092	0.0059
875.3706	-0.0922
875.5319	-1.2358
875.6933	-0
875.8546	-0.2253
876.0159	-0.0047
876.1772	0.0154
876.3385	-0.3438
876.4997	-0
876.6609	-0
876.8221	-0.4866
876.9833	-0
877.1445	0.0757
877.3056	-0.341
877.4667	0.0456
877.6278	-0
877.7889	-0.0812
877.9499	1.1394
878.111	-0
878.272	-0.1139
878.433	0.0621
878.5939	-0.0561
878.7549	0.476
878.9158	-0.0777
879.0767	-0.4702
879.2376	0.1004
879.3984	0.3835
879.5593	0.0364
879.7201	-0.2073
879.8809	-0
880.0417	0.2086
880.2024	-0
880.3632	-0
880.5239	-0
880.6846	0.5643
880.8452	0.0714
881.0059	-0.6623
881.1665	0.3198
881.3271	-0.4415
881.4877	-0
881.6483	-0
881.8088	-0.0153
881.9693	-0.7068
882.1298	-0.7068
882.2903	-0.7068
