Data from MonoPyChalIsomerACN10uM400nmA_Absorbance_12-08-44-628.txt Node
Date: Fri Jul 05 12:08:44 BST 2024
User: LASERRRRR
Spectrometer: FLMT03099
Trigger mode: 0
Integration Time (sec): 1.000000E-1
Scans to average: 1
Electric dark correction enabled: true
Nonlinearity correction enabled: false
Boxcar width: 0
XAxis mode: Wavelengths
Number of Pixels in Spectrum: 3648
>>>>>Begin Spectral Data<<<<<
179.3399	0.3714
179.5586	0.3714
179.7771	0.3714
179.9957	2.9689
180.2143	-0
180.4329	-0.5868
180.6514	-0
180.8699	0.0599
181.0885	0.6437
181.307	0.25
181.5255	-0.95
181.744	-0.3306
181.9625	-0.6695
182.181	-0
182.3994	-0.4145
182.6179	-0.313
182.8363	-0.4272
183.0547	0.4062
183.2732	0.1407
183.4916	0.0277
183.71	0.2049
183.9284	0.5374
184.1467	0.1017
184.3651	0.0071
184.5835	0.176
184.8018	0.0091
185.0201	0.1302
185.2385	-0.1133
185.4568	0.0134
185.6751	0.1122
185.8934	-0.1783
186.1117	0.1355
186.3299	-0.0783
186.5482	0.0639
186.7664	0.0286
186.9847	0.1612
187.2029	0.2864
187.4211	-0.2723
187.6393	-0.0958
187.8575	0.4148
188.0757	-0.0062
188.2939	0.0644
188.512	0.1241
188.7302	0.0025
188.9483	0.0017
189.1665	0.0979
189.3846	0.1217
189.6027	0.133
189.8208	0.1838
190.0389	0.1444
190.257	0.2879
190.475	0.3164
190.6931	0.2231
190.9111	0.2795
191.1292	0.2768
191.3472	0.4864
191.5652	0.3383
191.7832	0.3795
192.0012	0.5626
192.2192	0.4228
192.4371	0.4126
192.6551	0.2752
192.873	0.4838
193.091	0.2546
193.3089	0.4264
193.5268	0.7132
193.7447	0.5085
193.9626	0.3764
194.1805	0.943
194.3984	0.4863
194.6162	0.509
194.8341	0.4527
195.0519	0.6398
195.2697	0.5749
195.4875	0.803
195.7054	0.6303
195.9231	0.4087
196.1409	0.5704
196.3587	0.6388
196.5765	0.6472
196.7942	0.6274
197.012	0.7941
197.2297	0.6624
197.4474	0.7923
197.6651	0.6972
197.8828	0.6887
198.1005	0.8515
198.3182	0.7548
198.5358	0.6934
198.7535	0.7727
198.9711	0.8265
199.1888	0.8967
199.4064	0.8718
199.624	0.63
199.8416	0.6459
200.0592	1.0838
200.2767	0.6276
200.4943	0.6527
200.7119	0.8736
200.9294	0.8951
201.1469	0.8764
201.3645	0.6826
201.582	0.6436
201.7995	0.7869
202.017	0.9338
202.2344	0.7296
202.4519	0.7624
202.6694	1.1068
202.8868	0.7987
203.1042	0.7101
203.3217	0.7379
203.5391	0.786
203.7565	0.9516
203.9739	0.6932
204.1913	0.9872
204.4086	0.7205
204.626	0.8811
204.8433	0.87
205.0607	0.6498
205.278	0.8427
205.4953	0.8003
205.7126	0.6631
205.9299	0.8743
206.1472	0.9719
206.3644	0.7008
206.5817	0.6995
206.7989	0.6259
207.0162	0.7911
207.2334	0.7592
207.4506	0.7501
207.6678	0.7341
207.885	0.8466
208.1022	0.7244
208.3194	0.7097
208.5365	0.7949
208.7537	0.8471
208.9708	0.6979
209.1879	0.8573
209.405	0.7182
209.6222	0.7335
209.8392	0.7711
210.0563	0.8013
210.2734	0.7655
210.4905	0.7583
210.7075	0.8297
210.9245	0.7455
211.1416	0.7123
211.3586	0.7144
211.5756	0.7926
211.7926	0.7637
212.0096	0.7619
212.2265	0.7067
212.4435	0.7554
212.6604	0.7971
212.8774	0.751
213.0943	0.6932
213.3112	0.739
213.5281	0.651
213.745	0.7316
213.9619	0.6726
214.1788	0.6212
214.3956	0.6248
214.6125	0.6264
214.8293	0.6595
215.0461	0.6586
215.2629	0.6441
215.4798	0.6985
215.6965	0.6603
215.9133	0.6496
216.1301	0.5912
216.3469	0.6284
216.5636	0.6102
216.7803	0.6269
216.9971	0.5954
217.2138	0.6739
217.4305	0.6169
217.6472	0.597
217.8639	0.613
218.0805	0.5829
218.2972	0.5618
218.5138	0.6284
218.7305	0.5593
218.9471	0.5628
219.1637	0.5679
219.3803	0.5204
219.5969	0.6069
219.8135	0.5708
220.0301	0.5636
220.2466	0.5692
220.4632	0.5195
220.6797	0.5264
220.8962	0.5306
221.1127	0.5452
221.3292	0.5427
221.5457	0.5867
221.7622	0.5592
221.9787	0.5373
222.1951	0.5269
222.4116	0.5156
222.628	0.6027
222.8444	0.5305
223.0608	0.5289
223.2772	0.5749
223.4936	0.5344
223.71	0.5825
223.9264	0.5611
224.1427	0.5662
224.3591	0.5507
224.5754	0.5427
224.7917	0.521
225.008	0.5605
225.2243	0.541
225.4406	0.5855
225.6569	0.5407
225.8732	0.5525
226.0894	0.5413
226.3057	0.5656
226.5219	0.552
226.7381	0.6135
226.9543	0.5851
227.1705	0.5843
227.3867	0.6056
227.6029	0.5629
227.8191	0.5483
228.0352	0.5543
228.2513	0.5545
228.4675	0.5766
228.6836	0.6083
228.8997	0.5581
229.1158	0.5471
229.3319	0.5749
229.548	0.607
229.764	0.5925
229.9801	0.5795
230.1961	0.565
230.4121	0.5777
230.6282	0.5617
230.8442	0.582
231.0602	0.5561
231.2761	0.5669
231.4921	0.5917
231.7081	0.5782
231.924	0.5741
232.14	0.5838
232.3559	0.5974
232.5718	0.6157
232.7877	0.5597
233.0036	0.5665
233.2195	0.5461
233.4353	0.5967
233.6512	0.5618
233.867	0.5634
234.0829	0.5381
234.2987	0.5851
234.5145	0.5357
234.7303	0.587
234.9461	0.5872
235.1619	0.5508
235.3776	0.5666
235.5934	0.5483
235.8091	0.5748
236.0249	0.5584
236.2406	0.5558
236.4563	0.5559
236.672	0.5694
236.8877	0.5593
237.1034	0.5552
237.319	0.575
237.5347	0.5602
237.7503	0.5636
237.966	0.5284
238.1816	0.576
238.3972	0.5463
238.6128	0.5406
238.8284	0.5251
239.0439	0.5544
239.2595	0.529
239.475	0.535
239.6906	0.5304
239.9061	0.5324
240.1216	0.5358
240.3371	0.5284
240.5526	0.536
240.7681	0.5517
240.9836	0.5357
241.199	0.4907
241.4145	0.5335
241.6299	0.4897
241.8453	0.4831
242.0607	0.4771
242.2761	0.4851
242.4915	0.468
242.7069	0.4432
242.9223	0.4597
243.1376	0.4361
243.353	0.4483
243.5683	0.4438
243.7836	0.4254
243.9989	0.4238
244.2142	0.4225
244.4295	0.4062
244.6448	0.3857
244.86	0.4113
245.0753	0.3823
245.2905	0.3843
245.5057	0.378
245.721	0.3662
245.9362	0.3569
246.1514	0.3566
246.3665	0.324
246.5817	0.3431
246.7969	0.3181
247.012	0.3337
247.2271	0.3237
247.4423	0.3106
247.6574	0.2978
247.8725	0.3053
248.0876	0.2906
248.3026	0.2921
248.5177	0.2996
248.7328	0.2945
248.9478	0.2876
249.1628	0.2464
249.3779	0.2633
249.5929	0.2701
249.8079	0.253
250.0228	0.2674
250.2378	0.2504
250.4528	0.2428
250.6677	0.2613
250.8827	0.2286
251.0976	0.2509
251.3125	0.2461
251.5274	0.2272
251.7423	0.246
251.9572	0.2335
252.172	0.2194
252.3869	0.2265
252.6017	0.2266
252.8166	0.214
253.0314	0.1971
253.2462	0.2027
253.461	0.2255
253.6758	0.2055
253.8906	0.2168
254.1053	0.2083
254.3201	0.2113
254.5348	0.2115
254.7496	0.1968
254.9643	0.2079
255.179	0.2001
255.3937	0.2006
255.6083	0.1954
255.823	0.181
256.0377	0.1894
256.2523	0.2013
256.467	0.1958
256.6816	0.2002
256.8962	0.1957
257.1108	0.1976
257.3254	0.1939
257.54	0.1859
257.7545	0.1877
257.9691	0.2044
258.1836	0.1988
258.3981	0.1939
258.6127	0.1917
258.8272	0.1981
259.0417	0.1761
259.2561	0.197
259.4706	0.1913
259.6851	0.1984
259.8995	0.1927
260.114	0.1814
260.3284	0.1857
260.5428	0.2035
260.7572	0.204
260.9716	0.174
261.186	0.1938
261.4003	0.1905
261.6147	0.2069
261.829	0.2087
262.0433	0.1754
262.2577	0.1757
262.472	0.1899
262.6863	0.2074
262.9005	0.1842
263.1148	0.1852
263.3291	0.1992
263.5433	0.1864
263.7576	0.1931
263.9718	0.1869
264.186	0.1863
264.4002	0.1966
264.6144	0.1894
264.8286	0.1933
265.0427	0.1859
265.2569	0.1924
265.471	0.1907
265.6851	0.1801
265.8993	0.1886
266.1134	0.1826
266.3275	0.1875
266.5415	0.1888
266.7556	0.1891
266.9697	0.1959
267.1837	0.1924
267.3978	0.1959
267.6118	0.1861
267.8258	0.205
268.0398	0.1868
268.2538	0.2034
268.4677	0.1924
268.6817	0.1884
268.8957	0.1944
269.1096	0.1955
269.3235	0.1784
269.5374	0.1796
269.7514	0.1745
269.9652	0.165
270.1791	0.1839
270.393	0.1776
270.6068	0.1944
270.8207	0.1832
271.0345	0.1646
271.2483	0.1845
271.4622	0.1872
271.676	0.1798
271.8897	0.1905
272.1035	0.1725
272.3173	0.1863
272.531	0.1666
272.7448	0.1754
272.9585	0.1756
273.1722	0.1864
273.3859	0.1814
273.5996	0.1791
273.8133	0.1685
274.0269	0.187
274.2406	0.1815
274.4542	0.1717
274.6679	0.1706
274.8815	0.1753
275.0951	0.1877
275.3087	0.1811
275.5223	0.1797
275.7358	0.1741
275.9494	0.1692
276.1629	0.1767
276.3765	0.1789
276.59	0.179
276.8035	0.1885
277.017	0.1807
277.2305	0.186
277.444	0.187
277.6574	0.1894
277.8709	0.1761
278.0843	0.1875
278.2978	0.1842
278.5112	0.189
278.7246	0.1777
278.938	0.1994
279.1513	0.1994
279.3647	0.1746
279.5781	0.193
279.7914	0.1873
280.0047	0.1914
280.2181	0.1834
280.4314	0.1852
280.6447	0.199
280.8579	0.1882
281.0712	0.1889
281.2845	0.1911
281.4977	0.194
281.711	0.1931
281.9242	0.188
282.1374	0.1744
282.3506	0.1953
282.5638	0.1855
282.7769	0.1899
282.9901	0.1901
283.2033	0.18
283.4164	0.1789
283.6295	0.1807
283.8426	0.1792
284.0557	0.1935
284.2688	0.1785
284.4819	0.189
284.695	0.1798
284.908	0.2027
285.1211	0.1966
285.3341	0.1938
285.5471	0.2003
285.7601	0.2011
285.9731	0.1932
286.1861	0.1967
286.3991	0.1799
286.612	0.1748
286.825	0.18
287.0379	0.1863
287.2508	0.1818
287.4637	0.1815
287.6766	0.1865
287.8895	0.1833
288.1024	0.1804
288.3152	0.1907
288.5281	0.1706
288.7409	0.1814
288.9538	0.1792
289.1666	0.1773
289.3794	0.174
289.5922	0.1755
289.8049	0.1716
290.0177	0.1747
290.2304	0.1716
290.4432	0.1724
290.6559	0.192
290.8686	0.1801
291.0813	0.1775
291.294	0.1768
291.5067	0.1843
291.7194	0.1697
291.932	0.186
292.1447	0.1838
292.3573	0.1785
292.5699	0.18
292.7825	0.1775
292.9951	0.1909
293.2077	0.191
293.4203	0.1756
293.6328	0.1752
293.8454	0.181
294.0579	0.1793
294.2704	0.1678
294.4829	0.194
294.6954	0.1885
294.9079	0.173
295.1204	0.1738
295.3328	0.1601
295.5453	0.1727
295.7577	0.1716
295.9701	0.1704
296.1825	0.1658
296.3949	0.1662
296.6073	0.1732
296.8197	0.1705
297.0321	0.1734
297.2444	0.1673
297.4567	0.1716
297.6691	0.1774
297.8814	0.1727
298.0937	0.1699
298.306	0.1604
298.5182	0.1717
298.7305	0.1772
298.9428	0.1818
299.155	0.1597
299.3672	0.1546
299.5794	0.1765
299.7916	0.1643
300.0038	0.1729
300.216	0.1621
300.4282	0.1662
300.6403	0.1832
300.8525	0.1825
301.0646	0.1736
301.2767	0.1803
301.4888	0.1746
301.7009	0.1675
301.913	0.1672
302.125	0.1682
302.3371	0.1738
302.5491	0.1672
302.7612	0.1559
302.9732	0.164
303.1852	0.1546
303.3972	0.1657
303.6092	0.1646
303.8211	0.1695
304.0331	0.1635
304.245	0.1522
304.457	0.1652
304.6689	0.1584
304.8808	0.1577
305.0927	0.1605
305.3046	0.1673
305.5164	0.1658
305.7283	0.1554
305.9401	0.151
306.152	0.1458
306.3638	0.1466
306.5756	0.1418
306.7874	0.1468
306.9992	0.1494
307.2109	0.1482
307.4227	0.1428
307.6344	0.1522
307.8462	0.1386
308.0579	0.1476
308.2696	0.1554
308.4813	0.1362
308.693	0.1416
308.9046	0.1282
309.1163	0.1393
309.328	0.1376
309.5396	0.1373
309.7512	0.142
309.9628	0.1255
310.1744	0.1353
310.386	0.1222
310.5976	0.1206
310.8091	0.1192
311.0207	0.1324
311.2322	0.1146
311.4437	0.1158
311.6552	0.1359
311.8667	0.1174
312.0782	0.1248
312.2897	0.0959
312.5012	0.1221
312.7126	0.1139
312.924	0.113
313.1355	0.1189
313.3469	0.1161
313.5583	0.1089
313.7696	0.125
313.981	0.105
314.1924	0.1168
314.4037	0.1233
314.6151	0.1153
314.8264	0.1078
315.0377	0.1111
315.249	0.1187
315.4603	0.1107
315.6716	0.1128
315.8828	0.1127
316.0941	0.1036
316.3053	0.1079
316.5165	0.1124
316.7277	0.1018
316.9389	0.1107
317.1501	0.1082
317.3613	0.0985
317.5724	0.1126
317.7836	0.1116
317.9947	0.1184
318.2058	0.1144
318.417	0.1014
318.6281	0.1086
318.8391	0.1069
319.0502	0.1009
319.2613	0.1037
319.4723	0.1023
319.6834	0.1048
319.8944	0.11
320.1054	0.1135
320.3164	0.1168
320.5274	0.0958
320.7383	0.1123
320.9493	0.1069
321.1602	0.1175
321.3712	0.108
321.5821	0.1101
321.793	0.1132
322.0039	0.1103
322.2148	0.1129
322.4257	0.1042
322.6365	0.1168
322.8474	0.0968
323.0582	0.1239
323.269	0.1104
323.4798	0.1127
323.6906	0.1062
323.9014	0.1086
324.1122	0.106
324.3229	0.1143
324.5337	0.1168
324.7444	0.108
324.9551	0.1139
325.1658	0.1242
325.3765	0.114
325.5872	0.115
325.7979	0.1254
326.0085	0.0946
326.2192	0.0965
326.4298	0.1224
326.6404	0.1185
326.851	0.1074
327.0616	0.1106
327.2722	0.1243
327.4828	0.1282
327.6933	0.1094
327.9039	0.0991
328.1144	0.1122
328.3249	0.1092
328.5354	0.1146
328.7459	0.1102
328.9564	0.124
329.1669	0.125
329.3773	0.118
329.5878	0.1168
329.7982	0.1131
330.0086	0.1239
330.219	0.113
330.4294	0.1137
330.6398	0.1182
330.8502	0.1207
331.0605	0.1268
331.2708	0.113
331.4812	0.1091
331.6915	0.1148
331.9018	0.1129
332.1121	0.1125
332.3224	0.111
332.5326	0.1178
332.7429	0.1096
332.9531	0.1198
333.1633	0.1277
333.3735	0.1142
333.5837	0.1121
333.7939	0.1115
334.0041	0.1334
334.2143	0.1129
334.4244	0.1141
334.6346	0.105
334.8447	0.1178
335.0548	0.1188
335.2649	0.1233
335.475	0.1168
335.685	0.0952
335.8951	0.1296
336.1051	0.1187
336.3152	0.1222
336.5252	0.1186
336.7352	0.1147
336.9452	0.1207
337.1552	0.1256
337.3652	0.1191
337.5751	0.1291
337.7851	0.1162
337.995	0.1248
338.2049	0.1148
338.4148	0.1238
338.6247	0.1216
338.8346	0.1235
339.0445	0.109
339.2543	0.1218
339.4642	0.126
339.674	0.1192
339.8838	0.1283
340.0936	0.1259
340.3034	0.1197
340.5132	0.1351
340.7229	0.1285
340.9327	0.1201
341.1424	0.1211
341.3522	0.1118
341.5619	0.1237
341.7716	0.1259
341.9813	0.1209
342.1909	0.1197
342.4006	0.1157
342.6102	0.1234
342.8199	0.1235
343.0295	0.1276
343.2391	0.1202
343.4487	0.1281
343.6583	0.1227
343.8679	0.1446
344.0774	0.1373
344.287	0.1418
344.4965	0.1385
344.706	0.1377
344.9155	0.1249
345.125	0.1285
345.3345	0.1317
345.544	0.139
345.7534	0.1232
345.9629	0.1255
346.1723	0.1366
346.3817	0.132
346.5911	0.1381
346.8005	0.1372
347.0099	0.1384
347.2193	0.1334
347.4286	0.1431
347.638	0.1503
347.8473	0.1291
348.0566	0.1409
348.2659	0.1524
348.4752	0.1431
348.6845	0.1439
348.8937	0.137
349.103	0.1467
349.3122	0.1343
349.5214	0.152
349.7306	0.1588
349.9398	0.141
350.149	0.158
350.3582	0.132
350.5674	0.1603
350.7765	0.132
350.9856	0.143
351.1948	0.1499
351.4039	0.1642
351.613	0.1465
351.822	0.1405
352.0311	0.1499
352.2402	0.139
352.4492	0.151
352.6582	0.1524
352.8672	0.1329
353.0762	0.147
353.2852	0.1588
353.4942	0.1519
353.7032	0.1659
353.9121	0.1559
354.1211	0.1493
354.33	0.165
354.5389	0.1501
354.7478	0.1609
354.9567	0.1616
355.1655	0.1564
355.3744	0.1449
355.5833	0.1809
355.7921	0.1628
356.0009	0.1692
356.2097	0.1607
356.4185	0.1499
356.6273	0.1651
356.8361	0.1689
357.0448	0.1504
357.2536	0.1485
357.4623	0.1534
357.671	0.1635
357.8797	0.1609
358.0884	0.1807
358.2971	0.1717
358.5057	0.173
358.7144	0.1756
358.923	0.1637
359.1316	0.1726
359.3402	0.1836
359.5488	0.1627
359.7574	0.1696
359.966	0.161
360.1746	0.1668
360.3831	0.162
360.5916	0.1765
360.8002	0.1816
361.0087	0.1693
361.2172	0.1659
361.4256	0.1704
361.6341	0.1784
361.8426	0.1873
362.051	0.1829
362.2594	0.1822
362.4678	0.1764
362.6762	0.1804
362.8846	0.1802
363.093	0.1657
363.3014	0.1857
363.5097	0.175
363.718	0.193
363.9264	0.1831
364.1347	0.1896
364.343	0.1774
364.5513	0.2004
364.7595	0.1819
364.9678	0.201
365.176	0.2025
365.3842	0.1936
365.5925	0.1676
365.8007	0.2055
366.0089	0.2058
366.217	0.1951
366.4252	0.1902
366.6333	0.1941
366.8415	0.2128
367.0496	0.1887
367.2577	0.2101
367.4658	0.1951
367.6739	0.2092
367.882	0.1899
368.09	0.206
368.2981	0.2039
368.5061	0.1934
368.7141	0.1873
368.9221	0.1797
369.1301	0.2054
369.3381	0.2027
369.5461	0.2071
369.754	0.2056
369.962	0.1987
370.1699	0.1961
370.3778	0.2134
370.5857	0.2164
370.7936	0.1988
371.0015	0.2021
371.2093	0.2026
371.4172	0.2191
371.625	0.2046
371.8328	0.2085
372.0406	0.1988
372.2484	0.1979
372.4562	0.2162
372.664	0.2257
372.8717	0.1879
373.0795	0.2228
373.2872	0.1943
373.4949	0.2143
373.7026	0.2061
373.9103	0.2034
374.118	0.2036
374.3256	0.2331
374.5333	0.2251
374.7409	0.2098
374.9485	0.2191
375.1561	0.2163
375.3637	0.2169
375.5713	0.2381
375.7789	0.2164
375.9864	0.2085
376.194	0.2119
376.4015	0.2188
376.609	0.2074
376.8165	0.2228
377.024	0.2196
377.2315	0.2272
377.4389	0.219
377.6464	0.2111
377.8538	0.2133
378.0612	0.2329
378.2686	0.2225
378.476	0.2106
378.6834	0.215
378.8908	0.2062
379.0981	0.2344
379.3055	0.2279
379.5128	0.2307
379.7201	0.2234
379.9274	0.2192
380.1347	0.2183
380.342	0.224
380.5492	0.2211
380.7565	0.2395
380.9637	0.233
381.1709	0.2195
381.3781	0.2336
381.5853	0.2503
381.7925	0.241
381.9997	0.2181
382.2068	0.2328
382.4139	0.218
382.6211	0.2444
382.8282	0.2363
383.0353	0.2266
383.2424	0.2433
383.4494	0.2301
383.6565	0.235
383.8635	0.2403
384.0706	0.2327
384.2776	0.243
384.4846	0.2354
384.6916	0.2394
384.8986	0.2244
385.1055	0.2221
385.3125	0.2243
385.5194	0.2256
385.7263	0.2475
385.9333	0.2251
386.1402	0.2287
386.347	0.2463
386.5539	0.2318
386.7608	0.2411
386.9676	0.2223
387.1744	0.226
387.3813	0.2272
387.5881	0.2239
387.7948	0.2486
388.0016	0.2219
388.2084	0.2354
388.4151	0.2193
388.6219	0.2319
388.8286	0.2231
389.0353	0.2028
389.242	0.2368
389.4487	0.2183
389.6553	0.2143
389.862	0.2169
390.0686	0.2263
390.2753	0.2511
390.4819	0.2277
390.6885	0.2263
390.8951	0.2175
391.1016	0.2227
391.3082	0.2207
391.5147	0.2135
391.7213	0.2265
391.9278	0.2243
392.1343	0.2034
392.3408	0.2155
392.5473	0.2245
392.7537	0.2145
392.9602	0.2221
393.1666	0.2043
393.373	0.1891
393.5794	0.1978
393.7858	0.2118
393.9922	0.2296
394.1986	0.2274
394.4049	0.1946
394.6113	0.1816
394.8176	0.2004
395.0239	0.1961
395.2302	0.2067
395.4365	0.1888
395.6428	0.1996
395.8491	0.2006
396.0553	0.1953
396.2615	0.1986
396.4678	0.1964
396.674	0.199
396.8802	0.199
397.0863	0.1869
397.2925	0.1956
397.4987	0.1987
397.7048	0.2053
397.9109	0.2029
398.117	0.1855
398.3231	0.1947
398.5292	0.2081
398.7353	0.184
398.9413	0.1739
399.1474	0.1932
399.3534	0.1913
399.5594	0.1933
399.7654	0.1839
399.9714	0.1876
400.1774	0.1921
400.3833	0.2089
400.5893	0.1923
400.7952	0.2167
401.0011	0.1997
401.207	0.1947
401.4129	0.1751
401.6188	0.1876
401.8247	0.1818
402.0305	0.1879
402.2364	0.1888
402.4422	0.1909
402.648	0.1899
402.8538	0.1903
403.0596	0.1827
403.2654	0.1924
403.4711	0.1915
403.6768	0.1805
403.8826	0.1946
404.0883	0.1941
404.294	0.1832
404.4997	0.1744
404.7054	0.1875
404.911	0.179
405.1167	0.1803
405.3223	0.1669
405.5279	0.1988
405.7335	0.2076
405.9391	0.2047
406.1447	0.1921
406.3502	0.2007
406.5558	0.1954
406.7613	0.2134
406.9668	0.1976
407.1724	0.1832
407.3778	0.1947
407.5833	0.1865
407.7888	0.19
407.9942	0.1908
408.1997	0.1787
408.4051	0.1826
408.6105	0.1793
408.8159	0.1853
409.0213	0.1814
409.2267	0.1881
409.432	0.1955
409.6374	0.1812
409.8427	0.1812
410.048	0.186
410.2533	0.1852
410.4586	0.1701
410.6639	0.1962
410.8691	0.1818
411.0744	0.1871
411.2796	0.1785
411.4848	0.1942
411.69	0.1682
411.8952	0.1722
412.1004	0.1814
412.3056	0.1754
412.5107	0.1804
412.7158	0.1916
412.921	0.1833
413.1261	0.1841
413.3312	0.1907
413.5362	0.1955
413.7413	0.1864
413.9464	0.1923
414.1514	0.1789
414.3564	0.1619
414.5614	0.1523
414.7664	0.1758
414.9714	0.1918
415.1764	0.1838
415.3813	0.1622
415.5863	0.1886
415.7912	0.1693
415.9961	0.1704
416.201	0.1867
416.4059	0.1609
416.6108	0.1764
416.8156	0.1869
417.0205	0.1755
417.2253	0.1753
417.4301	0.1765
417.6349	0.1575
417.8397	0.1704
418.0445	0.1698
418.2492	0.1669
418.454	0.1728
418.6587	0.175
418.8634	0.1932
419.0681	0.1773
419.2728	0.1692
419.4775	0.1759
419.6822	0.1978
419.8868	0.1841
420.0915	0.1636
420.2961	0.1557
420.5007	0.1715
420.7053	0.1624
420.9099	0.1688
421.1144	0.1763
421.319	0.1633
421.5235	0.1897
421.728	0.1661
421.9325	0.1623
422.137	0.1587
422.3415	0.165
422.546	0.1583
422.7504	0.1743
422.9549	0.162
423.1593	0.1655
423.3637	0.1677
423.5681	0.1485
423.7725	0.1595
423.9769	0.1655
424.1812	0.1665
424.3856	0.1454
424.5899	0.1733
424.7942	0.1581
424.9985	0.1646
425.2028	0.1376
425.4071	0.1511
425.6113	0.1655
425.8156	0.1807
426.0198	0.1597
426.224	0.1584
426.4282	0.1545
426.6324	0.1524
426.8366	0.1565
427.0407	0.1435
427.2449	0.1563
427.449	0.133
427.6531	0.1244
427.8572	0.1482
428.0613	0.1522
428.2654	0.1134
428.4694	0.1432
428.6735	0.1445
428.8775	0.1398
429.0815	0.1436
429.2855	0.1444
429.4895	0.1405
429.6935	0.1278
429.8975	0.1239
430.1014	0.1354
430.3053	0.1165
430.5093	0.1314
430.7132	0.1195
430.9171	0.1288
431.1209	0.1239
431.3248	0.1255
431.5286	0.1134
431.7325	0.1203
431.9363	0.1146
432.1401	0.1286
432.3439	0.1181
432.5477	0.1347
432.7514	0.1092
432.9552	0.0935
433.1589	0.1162
433.3627	0.1064
433.5664	0.1208
433.7701	0.0973
433.9737	0.0929
434.1774	0.1177
434.3811	0.0851
434.5847	0.1121
434.7883	0.1005
434.9919	0.1002
435.1955	0.0766
435.3991	0.1068
435.6027	0.1095
435.8062	0.1006
436.0098	0.109
436.2133	0.0881
436.4168	0.0953
436.6203	0.0884
436.8238	0.0782
437.0272	0.0955
437.2307	0.0909
437.4341	0.0761
437.6375	0.0934
437.841	0.0759
438.0443	0.0948
438.2477	0.0872
438.4511	0.0655
438.6545	0.0731
438.8578	0.0754
439.0611	0.074
439.2644	0.0689
439.4677	0.0718
439.671	0.0686
439.8743	0.0688
440.0775	0.0692
440.2808	0.0571
440.484	0.0651
440.6872	0.0619
440.8904	0.0672
441.0936	0.0537
441.2967	0.043
441.4999	0.0367
441.703	0.0577
441.9062	0.0619
442.1093	0.0569
442.3124	0.0644
442.5155	0.0535
442.7185	0.0612
442.9216	0.0351
443.1246	0.0638
443.3276	0.057
443.5307	0.0461
443.7337	0.0472
443.9366	0.0397
444.1396	0.0589
444.3426	0.0435
444.5455	0.0543
444.7484	0.0564
444.9513	0.0399
445.1542	0.0328
445.3571	0.0478
445.56	0.0529
445.7628	0.0412
445.9657	0.0438
446.1685	0.0467
446.3713	0.0435
446.5741	0.0322
446.7769	0.0491
446.9797	0.0373
447.1824	0.0221
447.3852	0.0575
447.5879	0.0372
447.7906	0.0361
447.9933	0.0324
448.196	0.0374
448.3986	0.042
448.6013	0.0212
448.8039	0.0281
449.0066	0.043
449.2092	0.0534
449.4118	0.0373
449.6143	0.016
449.8169	0.0222
450.0195	0.018
450.222	0.0155
450.4245	0.0182
450.627	0.0112
450.8295	0.0283
451.032	0.0241
451.2345	0.0173
451.4369	0.0095
451.6394	0.0211
451.8418	-0.0014
452.0442	-0.0037
452.2466	0.0017
452.449	0.0242
452.6513	0.0285
452.8537	0.0267
453.056	0.0009
453.2583	0.0258
453.4607	0.0082
453.663	0.0109
453.8652	0.027
454.0675	0.0181
454.2697	0.0317
454.472	0.014
454.6742	0.0102
454.8764	0.0072
455.0786	0.0062
455.2808	0.0078
455.4829	0.0191
455.6851	0.03
455.8872	0.0321
456.0893	0.0108
456.2915	0.0211
456.4935	0.002
456.6956	-0.0014
456.8977	0.0028
457.0997	0.0222
457.3018	0.0096
457.5038	0.0194
457.7058	0.0064
457.9078	0.0051
458.1098	0.0025
458.3117	0.0273
458.5137	0.0023
458.7156	0.012
458.9175	0.0045
459.1194	0.0105
459.3213	0.0126
459.5232	-0.009
459.725	0.0045
459.9269	-0.0074
460.1287	0.007
460.3305	-0.0015
460.5323	0.0083
460.7341	-0.0043
460.9359	0.0099
461.1376	0.0323
461.3394	0.0034
461.5411	0.0113
461.7428	-0.0008
461.9445	0.0054
462.1462	-0.0034
462.3479	-0.005
462.5495	-0.0047
462.7512	0.0097
462.9528	-0.0009
463.1544	0.02
463.356	0.0046
463.5576	-0.0034
463.7592	-0.0198
463.9607	0.0139
464.1623	0.001
464.3638	0.0123
464.5653	-0.0079
464.7668	0.0106
464.9683	0.0016
465.1697	0.0033
465.3712	-0.001
465.5726	0.0185
465.7741	0.0142
465.9755	-0.0091
466.1769	0.0054
466.3782	0.0093
466.5796	-0.0063
466.7809	0.0047
466.9823	0.0109
467.1836	0.0137
467.3849	0.007
467.5862	0.0025
467.7875	0.0162
467.9887	0.002
468.19	-0.0035
468.3912	0.0139
468.5924	-0.0096
468.7936	0.0081
468.9948	-0.0177
469.196	0.0028
469.3972	-0.0067
469.5983	0.0056
469.7994	-0.0042
470.0006	-0.0145
470.2017	0.0032
470.4027	-0.0024
470.6038	-0.0011
470.8049	0.0028
471.0059	-0.002
471.2069	-0.0091
471.408	-0.0155
471.6089	-0.0219
471.8099	0.017
472.0109	0.0047
472.2119	0.0101
472.4128	-0.0073
472.6137	0.0011
472.8146	-0.0114
473.0155	-0.0079
473.2164	-0.0061
473.4173	-0.0099
473.6181	-0.0026
473.819	-0.0014
474.0198	-0.0076
474.2206	0.0017
474.4214	-0.0077
474.6222	0.0058
474.8229	-0.0122
475.0237	0.0031
475.2244	-0.0099
475.4251	0.0026
475.6258	-0.0071
475.8265	-0.0103
476.0272	-0.0104
476.2278	-0.0023
476.4285	-0.0058
476.6291	-0.001
476.8297	0.0073
477.0303	0.0053
477.2309	0.0009
477.4315	-0.005
477.632	-0.0168
477.8326	0.0002
478.0331	-0.0161
478.2336	-0.013
478.4341	-0.0034
478.6346	-0.0047
478.8351	0.0055
479.0355	-0.0161
479.236	-0.0168
479.4364	0.0023
479.6368	0.0004
479.8372	-0.0103
480.0376	0.001
480.2379	-0.0086
480.4383	-0.011
480.6386	-0.0074
480.8389	-0.0001
481.0392	-0.0047
481.2395	-0.0097
481.4398	-0.0157
481.6401	-0.0087
481.8403	-0.0083
482.0405	-0.019
482.2408	-0.0198
482.441	-0.0072
482.6411	-0.0087
482.8413	-0.0084
483.0415	-0.0012
483.2416	-0.0154
483.4417	-0.0006
483.6419	-0.0126
483.8419	-0.0046
484.042	0.0063
484.2421	-0.0105
484.4422	-0.0116
484.6422	-0.0035
484.8422	-0.0041
485.0422	0.0028
485.2422	-0.0122
485.4422	-0.0049
485.6422	-0.0094
485.8421	-0.0012
486.042	0.0016
486.242	-0.0167
486.4419	-0.0061
486.6417	-0.001
486.8416	-0.0129
487.0415	-0.0089
487.2413	0.0001
487.4411	0
487.641	-0.0059
487.8408	-0.0087
488.0405	-0.002
488.2403	0.0054
488.4401	-0.0009
488.6398	-0.0094
488.8395	-0.0058
489.0392	-0.0046
489.2389	-0.0177
489.4386	-0.006
489.6383	-0.0056
489.8379	-0.002
490.0376	-0.003
490.2372	-0.0031
490.4368	-0.0119
490.6364	0.0016
490.836	-0.022
491.0355	-0.0032
491.2351	-0.0097
491.4346	-0.0114
491.6341	0.0047
491.8336	-0.0082
492.0331	-0.0131
492.2326	-0.0031
492.432	-0.0005
492.6315	-0.0102
492.8309	-0.0135
493.0303	-0.0105
493.2297	-0.0146
493.4291	-0.0074
493.6284	-0.0162
493.8278	-0.0089
494.0271	0.0007
494.2264	-0.0137
494.4257	-0.0173
494.625	-0.01
494.8243	-0.0062
495.0236	-0.014
495.2228	-0.014
495.422	-0.008
495.6213	-0.0206
495.8205	-0.0068
496.0196	-0.0155
496.2188	-0.0064
496.418	-0.0071
496.6171	-0.0214
496.8162	-0.0134
497.0153	-0.0113
497.2144	-0.0089
497.4135	-0.0065
497.6126	-0.0076
497.8116	-0.0168
498.0107	-0.0097
498.2097	-0.0129
498.4087	-0.0208
498.6077	-0.0049
498.8067	0.0036
499.0056	-0.0077
499.2046	-0.0015
499.4035	-0.0156
499.6024	-0.0145
499.8013	-0.0144
500.0002	-0.0084
500.199	-0.0151
500.3979	-0.0058
500.5967	-0.0167
500.7956	-0.0067
500.9944	0.0005
501.1932	-0.0011
501.3919	-0.0033
501.5907	-0.0087
501.7895	-0.0207
501.9882	-0.0116
502.1869	-0.014
502.3856	-0.0155
502.5843	-0.0111
502.783	0.0002
502.9816	0.0091
503.1803	-0.0128
503.3789	-0.0103
503.5775	-0.0192
503.7761	-0.0056
503.9747	-0.0161
504.1732	-0.0034
504.3718	0.0132
504.5703	-0.0125
504.7689	-0.0131
504.9674	-0.0099
505.1658	-0.0171
505.3643	-0.0054
505.5628	-0.0003
505.7612	-0.0053
505.9597	-0.0154
506.1581	0.0058
506.3565	-0.0089
506.5549	-0.0051
506.7532	-0.0017
506.9516	-0.0115
507.1499	-0.011
507.3482	-0.0102
507.5465	-0.0054
507.7448	-0.0024
507.9431	-0.0001
508.1414	-0.0118
508.3396	-0.0136
508.5379	-0.0031
508.7361	-0.0123
508.9343	-0.0075
509.1325	-0.0038
509.3306	-0.0138
509.5288	-0.0098
509.7269	-0.0025
509.9251	0.0046
510.1232	-0.0052
510.3213	0.0065
510.5193	-0.0068
510.7174	-0.0035
510.9154	0.0037
511.1135	-0.0232
511.3115	-0.0131
511.5095	-0.0095
511.7075	-0.0076
511.9055	-0.0098
512.1034	-0.0063
512.3014	-0.0113
512.4993	-0.0016
512.6972	-0.0083
512.8951	0.0014
513.093	-0.0065
513.2908	-0.0092
513.4887	-0.0059
513.6865	-0.0002
513.8844	-0.0116
514.0822	-0.004
514.2799	-0.0174
514.4777	-0.0003
514.6755	0.0092
514.8732	-0.0017
515.0709	0
515.2687	-0.0002
515.4664	0.0002
515.664	-0.0151
515.8617	-0.0025
516.0594	-0.0022
516.257	-0.0155
516.4546	-0.0125
516.6522	0.0038
516.8498	-0.0162
517.0474	0
517.2449	-0.0161
517.4425	-0.0021
517.64	-0.0145
517.8375	-0.0043
518.035	-0.0035
518.2325	-0.0185
518.43	-0.0075
518.6274	-0.0066
518.8249	0.0104
519.0223	-0.0033
519.2197	0.0081
519.4171	-0.0065
519.6145	0.0005
519.8118	-0.0071
520.0092	-0.0112
520.2065	-0.0048
520.4038	-0.0098
520.6011	-0.0054
520.7984	-0.0066
520.9956	0.0071
521.1929	-0.0004
521.3901	-0.004
521.5874	-0.0081
521.7846	-0.0039
521.9818	-0.0004
522.1789	-0.0027
522.3761	0.0038
522.5732	-0.0164
522.7704	-0.0061
522.9675	-0.0078
523.1646	-0.009
523.3617	-0.0085
523.5587	0.0022
523.7558	-0.006
523.9528	-0.0022
524.1498	0.0014
524.3468	-0.0075
524.5438	0.0057
524.7408	-0.0067
524.9378	0.0045
525.1347	-0.0021
525.3316	0.0041
525.5285	-0.0041
525.7254	-0.0088
525.9223	-0.0119
526.1192	-0.0033
526.316	-0.0018
526.5129	0.0094
526.7097	-0.0069
526.9065	0.0034
527.1033	0.004
527.3	-0.0012
527.4968	-0.0074
527.6935	0.0094
527.8903	0.0084
528.087	-0.004
528.2837	0.0083
528.4804	0.0041
528.677	0.0059
528.8737	-0.0011
529.0703	0.0019
529.2669	0.0001
529.4635	0.0036
529.6601	-0.0004
529.8567	0.0061
530.0532	-0.0002
530.2498	0.0008
530.4463	-0.0072
530.6428	-0.0107
530.8393	0.0034
531.0358	0.0031
531.2322	0.0136
531.4287	-0.0023
531.6251	0.0037
531.8215	-0.0003
532.0179	0.0006
532.2143	0.0016
532.4107	-0.0042
532.607	-0.0041
532.8034	-0.0029
532.9997	0.0042
533.196	-0.005
533.3923	0.0033
533.5886	-0.0059
533.7848	0.0076
533.9811	-0
534.1773	-0.0114
534.3735	-0.0029
534.5697	-0.0007
534.7659	-0.0074
534.9621	0.0002
535.1582	-0.0001
535.3544	-0.0056
535.5505	-0.0031
535.7466	-0.0077
535.9427	-0.0039
536.1387	-0.0033
536.3348	-0.0076
536.5308	0.0025
536.7269	0.0027
536.9229	0.0015
537.1189	0.0006
537.3148	-0.0129
537.5108	0.0049
537.7068	0.0017
537.9027	-0.0027
538.0986	-0.0004
538.2945	0.0008
538.4904	-0.0041
538.6863	-0.0056
538.8821	-0.0027
539.078	-0.0082
539.2738	0.0089
539.4696	-0.0042
539.6654	0.0032
539.8611	0.0125
540.0569	0.0055
540.2526	0.0058
540.4484	0.0014
540.6441	0.0003
540.8398	-0.0079
541.0355	-0.002
541.2311	-0.0073
541.4268	-0.0016
541.6224	0.0066
541.818	0.0024
542.0136	0.0025
542.2092	0.0018
542.4048	0.007
542.6003	0.0059
542.7959	0.0067
542.9914	0.0047
543.1869	-0.0004
543.3824	-0.0037
543.5779	0.0035
543.7734	-0.005
543.9688	0.0064
544.1642	-0.0017
544.3596	0.0042
544.555	0.001
544.7504	0.0118
544.9458	0.0018
545.1411	0.0058
545.3365	0.0086
545.5318	0.0053
545.7271	0.0013
545.9224	0.009
546.1177	-0.0068
546.3129	0.0044
546.5081	-0.0068
546.7034	-0.0006
546.8986	-0.0066
547.0938	0.0001
547.289	0.0026
547.4841	0.0053
547.6793	0.0029
547.8744	-0.0022
548.0695	0.0007
548.2646	-0.0088
548.4597	-0.0008
548.6548	0.0075
548.8498	0.0083
549.0448	-0.0003
549.2399	0.0032
549.4349	0.0006
549.6298	0.0021
549.8248	0.0054
550.0198	-0.0027
550.2147	-0.0016
550.4096	-0.0047
550.6045	-0.011
550.7994	-0.002
550.9943	-0.0076
551.1892	-0.0083
551.384	-0.004
551.5788	0.008
551.7737	-0.0028
551.9685	-0.0025
552.1632	-0.005
552.358	-0.0042
552.5528	-0.0094
552.7475	-0.0127
552.9422	0.0038
553.1369	0.0005
553.3316	-0
553.5263	0.0151
553.7209	-0.0093
553.9156	0.0068
554.1102	-0.0142
554.3048	0.0026
554.4994	0.0025
554.694	0.0058
554.8885	-0.002
555.0831	0.004
555.2776	0.0068
555.4721	0.0124
555.6666	-0.0019
555.8611	-0.0096
556.0555	-0.0038
556.25	0.0069
556.4444	0.0189
556.6388	0.0071
556.8332	0.0038
557.0276	0.0023
557.222	-0.0071
557.4163	0.0065
557.6107	0.0127
557.805	0.0043
557.9993	-0.0012
558.1936	0.0137
558.3879	0.0047
558.5821	0.0073
558.7764	0.0109
558.9706	-0
559.1648	0.0109
559.359	0.0084
559.5532	-0.0015
559.7473	0.0089
559.9415	0.0047
560.1356	0.003
560.3297	0.0013
560.5238	0.0026
560.7179	0.0135
560.9119	-0.0009
561.106	0.0039
561.3	0.0098
561.494	0.002
561.688	0.0039
561.882	0.0097
562.076	-0.0063
562.2699	-0.0006
562.4639	-0.0036
562.6578	-0.0017
562.8517	0.006
563.0456	0.0024
563.2395	0.0048
563.4333	-0.0086
563.6272	0.0036
563.821	-0.0127
564.0148	0.0131
564.2086	-0.0085
564.4024	-0.0091
564.5961	0.0026
564.7899	0.0021
564.9836	0.003
565.1773	0.0077
565.371	0.0092
565.5647	-0.0071
565.7584	-0.0018
565.952	0.0028
566.1456	-0.0024
566.3393	0.002
566.5329	-0.0068
566.7264	0.0044
566.92	-0.0045
567.1136	0.0117
567.3071	0.0019
567.5006	0.0054
567.6941	-0.0013
567.8876	-0.002
568.0811	-0.0044
568.2745	0.0068
568.468	0.0041
568.6614	-0.0014
568.8548	0.0062
569.0482	0.0083
569.2416	0.0058
569.4349	0.0028
569.6283	-0.0014
569.8216	0.0009
570.0149	0.0011
570.2082	0.0089
570.4015	-0.0015
570.5947	0.0029
570.788	0.0057
570.9812	0.0032
571.1744	0.0034
571.3676	-0.0027
571.5608	0.0033
571.754	0.0045
571.9471	-0.0062
572.1402	0.0084
572.3333	-0.0004
572.5264	-0.0036
572.7195	-0.0063
572.9126	0.0042
573.1057	0.0053
573.2987	0.0049
573.4917	-0.0033
573.6847	-0.001
573.8777	-0.0041
574.0707	0.0038
574.2636	0.0087
574.4566	0.003
574.6495	0.0002
574.8424	0.0021
575.0353	-0.007
575.2281	0.004
575.421	0.0035
575.6138	0.0004
575.8067	-0.003
575.9995	0.0098
576.1923	0.0099
576.385	-0.0016
576.5778	-0.0069
576.7706	0.0012
576.9633	-0.0031
577.156	0.0021
577.3487	-0.0009
577.5414	0.0042
577.734	-0.009
577.9267	-0.0023
578.1193	0.0043
578.3119	0.0057
578.5045	0.0084
578.6971	0.0013
578.8897	-0.0002
579.0822	0.0024
579.2747	0.0047
579.4673	0.006
579.6598	0.0081
579.8522	0.0056
580.0447	-0.0024
580.2372	0.0089
580.4296	0.0124
580.622	0.0084
580.8144	0.0058
581.0068	0.003
581.1992	0.0007
581.3915	0.0066
581.5839	0.0033
581.7762	0.0041
581.9685	0.0014
582.1608	0.0001
582.353	-0.001
582.5453	-0.0047
582.7375	-0.0039
582.9298	-0.0028
583.122	0.0055
583.3142	0.0013
583.5063	-0.0023
583.6985	0.0007
583.8906	0.0041
584.0827	0.0012
584.2749	0.0006
584.4669	-0.0042
584.659	-0.0023
584.8511	-0.0053
585.0431	-0.0007
585.2352	-0.0034
585.4272	-0.0007
585.6192	0
585.8111	0.0019
586.0031	0.0031
586.195	-0.0029
586.387	-0.0036
586.5789	0.0007
586.7708	-0.0059
586.9627	-0.0012
587.1545	0.0083
587.3464	0.0122
587.5382	-0.0071
587.73	0.0066
587.9218	0.0037
588.1136	0.0048
588.3053	-0.0055
588.4971	0.0022
588.6888	0.0012
588.8805	0.0007
589.0722	0.0042
589.2639	0.0057
589.4556	-0.0014
589.6472	0.0001
589.8389	-0.0015
590.0305	0.0119
590.2221	0.0063
590.4137	-0.0033
590.6052	0.0016
590.7968	0.0046
590.9883	-0
591.1798	-0.0035
591.3713	0.0006
591.5628	-0.0024
591.7543	0.0094
591.9458	0.0058
592.1372	0.0039
592.3286	0.0076
592.52	0.0013
592.7114	0.0069
592.9028	-0.0025
593.0941	0.0039
593.2855	0.004
593.4768	-0.0044
593.6681	0.0015
593.8594	0.0023
594.0506	-0.0073
594.2419	0.0018
594.4331	-0.0052
594.6244	0.0047
594.8156	0.0017
595.0067	-0.0032
595.1979	-0.0032
595.3891	0.0027
595.5802	0.0104
595.7713	-0.0075
595.9624	0.0078
596.1535	0.0063
596.3446	0.007
596.5357	0.0015
596.7267	0.0006
596.9177	0.006
597.1087	0.0098
597.2997	0.0079
597.4907	0.0038
597.6817	0.0016
597.8726	0.0104
598.0635	0.0099
598.2544	0.0035
598.4453	0.0066
598.6362	0.0051
598.827	0.0057
599.0179	0.0045
599.2087	0.0017
599.3995	0.0088
599.5903	0.0136
599.7811	0.0084
599.9718	0.0032
600.1626	0.0006
600.3533	-0.0033
600.544	0.0061
600.7347	0.0083
600.9254	-0.0003
601.116	0.0008
601.3067	-0.0065
601.4973	0.0032
601.6879	-0.0004
601.8785	0.0029
602.0691	0.0004
602.2596	0.0016
602.4502	0.0022
602.6407	0.0002
602.8312	-0.0074
603.0217	0.0035
603.2122	-0
603.4027	0.0011
603.5931	0
603.7835	0.0029
603.9739	0.0038
604.1643	0.0147
604.3547	0.0064
604.5451	0.0039
604.7354	0.0066
604.9257	0.0033
605.116	0.0029
605.3063	0.006
605.4966	0.0014
605.6869	0.0102
605.8771	-0.0048
606.0673	0.0031
606.2575	0.0051
606.4477	-0.0009
606.6379	0.0074
606.8281	0.0049
607.0182	-0.0088
607.2083	0.0032
607.3985	0.0066
607.5885	0.0061
607.7786	0.0011
607.9687	0.0023
608.1587	-0.0026
608.3488	0.0066
608.5388	0.0123
608.7288	0.0041
608.9187	-0.001
609.1087	-0.0046
609.2986	0.0007
609.4886	-0.004
609.6785	0.0034
609.8684	0.0103
610.0582	0.0083
610.2481	-0.0008
610.4379	-0.0028
610.6278	-0.0059
610.8176	0.0057
611.0074	0.0094
611.1971	-0.0015
611.3869	-0.0039
611.5766	0.0087
611.7664	0.0051
611.9561	0.0129
612.1458	0.0053
612.3354	0.0057
612.5251	0.0034
612.7147	-0.0006
612.9044	0.008
613.094	0.002
613.2836	0.0093
613.4731	0.0104
613.6627	0.0026
613.8522	0.0092
614.0417	0.0019
614.2313	0.0091
614.4207	0.0025
614.6102	0.0033
614.7997	0.005
614.9891	0.0043
615.1785	0.0043
615.3679	0.0099
615.5573	0.0076
615.7467	-0.0012
615.9361	-0.0049
616.1254	0.0024
616.3147	-0.0018
616.504	-0.0001
616.6933	0.004
616.8826	0.0065
617.0718	0.0026
617.2611	0.0032
617.4503	0.0131
617.6395	0.002
617.8287	0.0084
618.0179	0.0029
618.207	0.007
618.3961	0.0105
618.5853	0.0066
618.7744	0.0054
618.9634	0.0058
619.1525	0.0075
619.3416	0.0083
619.5306	0.0074
619.7196	-0.0051
619.9086	0.0108
620.0976	0.0069
620.2866	0.0089
620.4755	0.0022
620.6645	0.0085
620.8534	0.0071
621.0423	0.0055
621.2312	0.0018
621.42	0.0086
621.6089	0.0135
621.7977	0.0101
621.9865	0.0109
622.1753	0.0172
622.3641	0.0029
622.5529	0.0138
622.7416	0.0012
622.9303	0.0085
623.1191	0.0083
623.3078	0.0084
623.4964	0.0082
623.6851	0.0147
623.8737	0.0098
624.0624	0.0014
624.251	0.0046
624.4396	0.0081
624.6282	0.0099
624.8167	0.0076
625.0053	0.0043
625.1938	0.006
625.3823	0.0092
625.5708	0.0097
625.7593	-0.0014
625.9477	0.0109
626.1362	0.0054
626.3246	0.0116
626.513	0.0022
626.7014	0.0006
626.8898	0.0093
627.0781	0.0018
627.2665	0.0072
627.4548	0.01
627.6431	0.0059
627.8314	0.01
628.0197	-0.0002
628.2079	0.0082
628.3962	0.0055
628.5844	0.0077
628.7726	0.0031
628.9608	0.0069
629.1489	0.0115
629.3371	0.0007
629.5252	0.0051
629.7134	-0.002
629.9015	0.0026
630.0895	0.0039
630.2776	-0.003
630.4657	0.0041
630.6537	0.0098
630.8417	0.0073
631.0297	0.019
631.2177	0.0131
631.4057	0.0118
631.5936	0.0112
631.7815	0.0139
631.9695	0.0174
632.1574	0.005
632.3452	0.0159
632.5331	0.0009
632.7209	0.0032
632.9088	-0.0014
633.0966	-0.004
633.2844	0.0025
633.4722	0.0065
633.6599	0.007
633.8477	0.0061
634.0354	0.008
634.2231	0.0111
634.4108	0.0084
634.5985	0.0029
634.7861	0.0029
634.9738	0.0134
635.1614	0.0065
635.349	0.0099
635.5366	0.0075
635.7242	0.0054
635.9117	0.0069
636.0993	0.0019
636.2868	0.0073
636.4743	0.0027
636.6618	0.0057
636.8492	0.01
637.0367	0.002
637.2241	0.0077
637.4115	0.0047
637.5989	0.0173
637.7863	0.0133
637.9737	0.0044
638.161	0.0154
638.3484	0.0099
638.5357	0.0007
638.723	-0.0065
638.9103	0.0037
639.0975	-0.0003
639.2848	0.0084
639.472	0.0013
639.6592	0.0113
639.8464	0.0093
640.0336	0.0114
640.2208	0.0046
640.4079	0.0004
640.595	0.0054
640.7821	-0.0003
640.9692	0.0039
641.1563	0.0061
641.3434	0.013
641.5304	0.0088
641.7174	0.0159
641.9044	-0.0036
642.0914	0.0047
642.2784	-0.0039
642.4653	0.0044
642.6523	-0.0026
642.8392	0.0034
643.0261	0.0059
643.213	-0.0017
643.3999	0.0028
643.5867	0.0035
643.7735	0.0065
643.9604	0.0061
644.1472	0.0005
644.3339	-0.0008
644.5207	0.0057
644.7075	-0.0034
644.8942	0.0142
645.0809	0.003
645.2676	0.0067
645.4543	0.0099
645.6409	0.0046
645.8276	0.0079
646.0142	0.0097
646.2008	0.0123
646.3874	0.0077
646.574	0.002
646.7605	0.0046
646.9471	0.0058
647.1336	-0.0006
647.3201	0.0163
647.5066	-0.0023
647.6931	-0.0001
647.8795	-0.0026
648.0659	0.0107
648.2524	0.0152
648.4388	0.0002
648.6252	-0.0076
648.8115	-0.0013
648.9979	-0.0016
649.1842	0.0018
649.3705	0.001
649.5568	0.0032
649.7431	0.008
649.9294	0.0044
650.1156	0.0037
650.3018	0.0083
650.488	-0.0006
650.6742	-0.0028
650.8604	0.0001
651.0466	0.0078
651.2327	0.0146
651.4188	0.0091
651.6049	0.018
651.791	0.011
651.9771	0.006
652.1632	0.0083
652.3492	0.0089
652.5352	0.0072
652.7212	0.0068
652.9072	-0.0014
653.0932	0.0017
653.2791	-0.0003
653.465	0.0032
653.651	0.0028
653.8369	0.0027
654.0227	0.0085
654.2086	0.0051
654.3944	0.0098
654.5803	0.0014
654.7661	0.0073
654.9519	-0.0018
655.1377	-0.0011
655.3234	-0.0015
655.5092	-0.0018
655.6949	-0.0068
655.8806	-0.0078
656.0663	-0.005
656.2519	-0.0075
656.4376	0.0021
656.6232	-0.0012
656.8088	0.006
656.9945	-0.0012
657.18	-0.0017
657.3656	-0.0005
657.5511	-0.0034
657.7367	0.0089
657.9222	0.0051
658.1077	0.0051
658.2932	-0.0008
658.4786	0.0011
658.6641	0.0015
658.8495	0.0008
659.0349	0.0072
659.2203	0.0074
659.4057	0.0018
659.591	0.0055
659.7764	-0.0046
659.9617	-0.007
660.147	0.0108
660.3323	0.0064
660.5176	0.0026
660.7028	0.0065
660.888	0.01
661.0733	0.0058
661.2585	0.0095
661.4436	0.0061
661.6288	0.0126
661.8139	0.0075
661.9991	-0.0113
662.1842	0.0048
662.3693	-0.0017
662.5544	0.013
662.7394	-0.0034
662.9245	0.0073
663.1095	0.0079
663.2945	0.0006
663.4795	0.0015
663.6644	0.0074
663.8494	0.0117
664.0343	0.002
664.2193	0.0117
664.4042	0.0109
664.589	0.002
664.7739	0.0005
664.9587	0.0058
665.1436	-0.0022
665.3284	0.0008
665.5132	0.0007
665.698	0.006
665.8827	0.0085
666.0675	0.0027
666.2522	0.007
666.4369	-0.0008
666.6216	0.0145
666.8063	0.0004
666.9909	0.0029
667.1756	0.0148
667.3602	0.0057
667.5448	0.0053
667.7294	0.0147
667.9139	0.0042
668.0985	0.0068
668.283	0.0018
668.4675	0.007
668.652	0.0093
668.8365	-0.0028
669.0209	0.0062
669.2054	0.0068
669.3898	-0.0014
669.5742	0.001
669.7586	0
669.943	0.0058
670.1273	0.0083
670.3117	0.0046
670.496	0.0026
670.6803	0.011
670.8646	0.0124
671.0488	0.0117
671.2331	0.0149
671.4173	0.0129
671.6015	0.0089
671.7857	0.0063
671.9699	0.0107
672.1541	0.009
672.3382	0.0143
672.5223	0.0142
672.7064	0.0146
672.8905	0.0047
673.0746	0.0116
673.2587	0.0068
673.4427	0.0052
673.6267	0.0004
673.8107	0.0089
673.9947	0.0031
674.1787	0.0106
674.3626	0.0147
674.5465	0.014
674.7304	0.0126
674.9143	0.0047
675.0982	0.0163
675.2821	0.0032
675.4659	0.0123
675.6497	-0.0039
675.8335	0.011
676.0173	0.0084
676.2011	-0.0011
676.3849	0.0084
676.5686	0.0079
676.7523	0.0102
676.936	-0.0041
677.1197	0.0144
677.3034	0.0055
677.487	0.0096
677.6706	0.0168
677.8542	0.009
678.0378	0.0078
678.2214	0.0065
678.405	0.0148
678.5885	0.0092
678.772	0.0171
678.9555	0.0065
679.139	0.0117
679.3225	0.0095
679.5059	0.0073
679.6894	0.0048
679.8728	0.002
680.0562	0.0058
680.2395	0.0148
680.4229	-0.0043
680.6062	0.0008
680.7896	0.0014
680.9729	0.0036
681.1562	0.0069
681.3394	0.0083
681.5227	0.0115
681.7059	0.0016
681.8891	0.0097
682.0723	0.0047
682.2555	0.0076
682.4387	0.0028
682.6218	0.0068
682.805	0.0111
682.9881	0.0117
683.1712	0.0181
683.3542	0.0026
683.5373	0.0102
683.7203	0.0122
683.9034	0.0093
684.0864	-0.0022
684.2694	0.0119
684.4523	0.005
684.6353	0.0028
684.8182	0.0035
685.0011	0.0045
685.184	0.0059
685.3669	0.0021
685.5498	-0.0001
685.7326	0.0028
685.9154	0.0068
686.0982	0.0126
686.281	0.008
686.4638	-0.0016
686.6465	0.0083
686.8293	0.0102
687.012	0.0102
687.1947	0.0042
687.3774	0.0115
687.56	0.003
687.7427	0.0125
687.9253	0.0035
688.1079	0.009
688.2905	0.0057
688.4731	0.0101
688.6556	0.0132
688.8382	0.0063
689.0207	0.0063
689.2032	0.0109
689.3857	0.0105
689.5681	-0.0034
689.7506	-0.0037
689.933	0.0057
690.1154	0.0017
690.2978	-0.003
690.4802	0.0031
690.6626	0.0119
690.8449	0.0086
691.0272	0
691.2095	0.0153
691.3918	0.0045
691.5741	0.0186
691.7563	0.011
691.9386	0.0083
692.1208	-0.007
692.303	0.0014
692.4852	0.0074
692.6673	0.0122
692.8495	0.0122
693.0316	0.0222
693.2137	0.0146
693.3958	0.0026
693.5778	0.0117
693.7599	0.016
693.9419	0.0075
694.1239	0.0112
694.3059	0.0117
694.4879	0.0017
694.6699	0.0058
694.8518	0.0123
695.0337	0.0074
695.2157	0.0166
695.3975	0.0015
695.5794	0.0059
695.7613	0.0078
695.9431	0.0113
696.1249	0.0074
696.3067	0.0004
696.4885	0.0088
696.6703	0.0121
696.852	0.0086
697.0337	0.0074
697.2154	0.0102
697.3971	0.0118
697.5788	0.0099
697.7605	0.006
697.9421	-0.0045
698.1237	0.0169
698.3053	0.0169
698.4869	0.0091
698.6685	0.0083
698.85	0.0108
699.0315	0.0189
699.213	0.014
699.3945	-0.001
699.576	0.0173
699.7575	0.0206
699.9389	0.0138
700.1203	0.0146
700.3017	0.0041
700.4831	0.0033
700.6645	0.0087
700.8458	0.0044
701.0271	0.0038
701.2084	-0
701.3897	-0.0031
701.571	0.0031
701.7523	-0.001
701.9335	0.0008
702.1147	0.0004
702.2959	-0.0005
702.4771	0.0042
702.6583	-0
702.8394	0.0036
703.0205	0.0079
703.2016	0.0114
703.3827	0.0083
703.5638	0.0095
703.7449	0.007
703.9259	-0.0026
704.1069	0.0043
704.2879	0.0044
704.4689	0.007
704.6499	0.005
704.8308	0.0092
705.0117	0.006
705.1927	0.0096
705.3735	0.0075
705.5544	-0.0036
705.7353	0.0068
705.9161	0.0045
706.0969	0.0069
706.2777	0.0066
706.4585	0.0066
706.6393	0.0049
706.82	0.0013
707.0007	0.0026
707.1815	0.0015
707.3621	0.0025
707.5428	0.0052
707.7235	0.004
707.9041	0.0036
708.0847	0.0175
708.2653	0.0113
708.4459	0.0107
708.6265	0.0097
708.807	0.0096
708.9875	0.0146
709.168	0.0161
709.3485	0.0015
709.529	0.0042
709.7095	0.0167
709.8899	0.0111
710.0703	0.0048
710.2507	-0.0006
710.4311	0.0089
710.6115	0.0095
710.7918	0.0063
710.9721	0.0057
711.1524	0.0045
711.3327	0.0033
711.513	-0.0013
711.6932	0.0048
711.8735	0.0066
712.0537	-0.0015
712.2339	-0.0067
712.4141	-0.0034
712.5942	-0.0067
712.7744	0.0056
712.9545	0.0025
713.1346	0.0019
713.3147	-0.0007
713.4947	-0.0032
713.6748	0.0023
713.8548	0.0089
714.0348	0.0141
714.2148	-0.0015
714.3948	-0.0038
714.5748	-0.001
714.7547	-0.0035
714.9346	0.0015
715.1145	0.0076
715.2944	-0.0027
715.4743	-0.002
715.6541	0.0167
715.834	-0.0042
716.0138	0.0113
716.1936	0.0108
716.3733	0.0089
716.5531	0.0115
716.7328	0.0082
716.9126	-0.0005
717.0923	0.0069
717.2719	0.0113
717.4516	-0.001
717.6312	0.0044
717.8109	-0.0008
717.9905	0.0048
718.1701	-0.0096
718.3496	0.0073
718.5292	0.0017
718.7087	-0.0076
718.8882	-0.0078
719.0677	0.0059
719.2472	0.0051
719.4267	0.0076
719.6061	0.0018
719.7856	0.0024
719.965	0.0016
720.1443	0.0146
720.3237	0.0057
720.5031	-0.0014
720.6824	0.0046
720.8617	0.0012
721.041	-0.0011
721.2203	0.0057
721.3995	0.0161
721.5788	0.0132
721.758	-0.0069
721.9372	0.007
722.1164	0.0094
722.2956	0.0075
722.4747	0.0121
722.6538	-0.0016
722.8329	0.0023
723.012	0.0026
723.1911	0.0026
723.3702	0.0152
723.5492	0.0049
723.7282	0.0111
723.9072	0.0041
724.0862	0.0086
724.2652	0.01
724.4441	-0.0077
724.623	0.0108
724.8019	-0.0051
724.9808	0.0046
725.1597	0.0121
725.3385	0.0091
725.5174	0.0056
725.6962	0.0065
725.875	0.0057
726.0538	0.0107
726.2325	0.003
726.4112	0.0068
726.59	0.0043
726.7687	-0.0001
726.9474	-0.0045
727.126	0.0034
727.3047	-0.0031
727.4833	0.0053
727.6619	0.0045
727.8405	0.0013
728.0191	0.0014
728.1976	0.0057
728.3762	0.008
728.5547	-0.0063
728.7332	0.0027
728.9116	-0.0062
729.0901	-0.0049
729.2686	-0.0016
729.447	0.0005
729.6254	0.003
729.8038	0.0082
729.9821	0.0056
730.1605	0.0051
730.3388	-0.0014
730.5171	0.0091
730.6954	0.0042
730.8737	-0.0004
731.0519	0.0014
731.2302	0.0046
731.4084	0.0143
731.5866	-0.0002
731.7648	-0.0024
731.9429	-0.0017
732.1211	0
732.2992	0.0084
732.4773	-0.0094
732.6554	-0.0033
732.8335	-0.0031
733.0115	-0.0042
733.1896	0.0044
733.3676	0.0009
733.5456	0.0042
733.7235	-0.0027
733.9015	0.0095
734.0794	-0
734.2574	0.0046
734.4353	0.0041
734.6131	0
734.791	0.0047
734.9689	0.0176
735.1467	0.0021
735.3245	-0.0033
735.5023	0.0142
735.68	0.011
735.8578	0.0171
736.0355	-0.0018
736.2132	0.0114
736.3909	0.0063
736.5686	0.0078
736.7463	0.0036
736.9239	0.0095
737.1015	0.0137
737.2791	0.0032
737.4567	-0.0005
737.6343	-0.0003
737.8118	0.0095
737.9894	0.0017
738.1669	-0.0004
738.3444	0.0052
738.5218	0.008
738.6993	0.0064
738.8767	0.0075
739.0541	0.0016
739.2315	-0.0033
739.4089	0.0149
739.5863	0.005
739.7636	-0
739.9409	0.0041
740.1182	0.0041
740.2955	0.0039
740.4728	0.0088
740.65	-0.0068
740.8272	-0.0047
741.0044	-0.0077
741.1816	-0.0005
741.3588	0.004
741.5359	0.0096
741.7131	0.0039
741.8902	0.0042
742.0673	0.0149
742.2444	0.0024
742.4214	-0.0045
742.5985	0.0035
742.7755	0.0019
742.9525	0.006
743.1295	0.0095
743.3064	-0.0024
743.4834	-0.0016
743.6603	-0.0015
743.8372	-0.006
744.0141	0.0131
744.191	-0.0002
744.3678	0.0014
744.5446	-0.0072
744.7215	0.0204
744.8982	0.0059
745.075	0.0026
745.2518	-0.0061
745.4285	-0.0053
745.6052	0.0014
745.7819	-0.0008
745.9586	-0.0007
746.1353	-0.0036
746.3119	0.0041
746.4885	-0.0064
746.6651	-0.0029
746.8417	-0.0021
747.0183	0.0123
747.1948	-0.004
747.3714	0.0071
747.5479	-0.0034
747.7244	0.0134
747.9008	0.01
748.0773	0.0114
748.2537	0.0043
748.4301	-0.0028
748.6065	0.007
748.7829	-0.0036
748.9593	0.0037
749.1356	0.0043
749.3119	0.0084
749.4882	0.0063
749.6645	-0.0005
749.8408	0.0042
750.017	0.0025
750.1933	0.0081
750.3695	0.0127
750.5457	0.0121
750.7218	0.0026
750.898	0.0147
751.0741	0.0155
751.2502	0.0203
751.4263	0.0152
751.6024	0.0061
751.7784	0.0062
751.9545	0.0127
752.1305	0.0096
752.3065	0.0133
752.4825	0.0067
752.6584	0.0043
752.8344	0.0027
753.0103	0.0041
753.1862	0.0073
753.3621	0.0012
753.5379	0.0088
753.7138	0.0092
753.8896	0.005
754.0654	-0.0023
754.2412	0.0086
754.417	-0.0017
754.5927	0.0065
754.7685	0.0018
754.9442	0.0038
755.1199	0.0089
755.2956	0.0031
755.4712	-0.0009
755.6469	0.0112
755.8225	0.0075
755.9981	0.003
756.1736	-0.0003
756.3492	0.0168
756.5248	0.0058
756.7003	0.0041
756.8758	0.0102
757.0513	0.0063
757.2267	0.0023
757.4022	0.0065
757.5776	0.0046
757.753	0.0086
757.9284	0.0079
758.1038	-0.002
758.2791	0.0094
758.4545	0.0142
758.6298	0.0087
758.8051	0.0062
758.9803	0.0077
759.1556	0.004
759.3308	0.0055
759.506	0.0145
759.6812	0.0093
759.8564	0.0005
760.0316	0.0106
760.2067	0.0013
760.3819	0.0007
760.557	0.0057
760.732	0.0078
760.9071	0.01
761.0821	0.0124
761.2572	0.012
761.4322	0.008
761.6072	0.0043
761.7821	-0.0019
761.9571	0.0012
762.132	-0.0052
762.3069	0.0083
762.4818	0.0163
762.6567	0.0078
762.8316	0.0066
763.0064	-0.0043
763.1812	0.0007
763.356	0.0073
763.5308	0.0068
763.7055	0.0056
763.8803	0.0221
764.055	0.0022
764.2297	0.0025
764.4044	-0.0047
764.579	0.0082
764.7537	0.0029
764.9283	0.0015
765.1029	0.0137
765.2775	0.0003
765.4521	0.0008
765.6266	-0.0089
765.8011	0.0017
765.9756	-0.0012
766.1501	0.005
766.3246	-0.007
766.4991	0.0066
766.6735	-0.0036
766.8479	0.0016
767.0223	-0.014
767.1967	0.0024
767.371	-0.0001
767.5454	0.0049
767.7197	0.0059
767.894	0.0048
768.0683	0.0121
768.2425	0.0019
768.4168	0.0099
768.591	-0.004
768.7652	0.0101
768.9394	0.0064
769.1135	0.0111
769.2877	0.0006
769.4618	0.0126
769.6359	0.0139
769.81	0.004
769.984	0.0133
770.1581	-0.0044
770.3321	0.0106
770.5061	-0.0034
770.6801	-0
770.8541	0.0028
771.028	0.009
771.202	-0.0033
771.3759	-0.004
771.5498	0.0088
771.7236	-0.0058
771.8975	0.0026
772.0713	0.0082
772.2451	-0.0063
772.4189	0.0031
772.5927	0.0049
772.7665	0.0047
772.9402	0.0112
773.1139	0.0064
773.2876	-0.0016
773.4613	0.0017
773.635	-0.0036
773.8086	-0.0033
773.9822	0.0209
774.1558	0.0115
774.3294	0.0103
774.503	0.0049
774.6765	0.0138
774.8501	0.0006
775.0236	0.01
775.1971	0.0151
775.3705	0.0191
775.544	0.0204
775.7174	0.0221
775.8908	0.0125
776.0642	0.0025
776.2376	-0.0035
776.4109	0.005
776.5843	0.0023
776.7576	0.0073
776.9309	0.0062
777.1041	0.0054
777.2774	-0.0046
777.4506	0.0104
777.6238	-0.0111
777.797	0.007
777.9702	0.0005
778.1434	0.0202
778.3165	0.0037
778.4896	0.0044
778.6627	0.0042
778.8358	0.0111
779.0089	0.0053
779.1819	0.0031
779.3549	0.0112
779.5279	0.014
779.7009	-0.0044
779.8739	-0.0015
780.0468	0.0064
780.2197	0.0022
780.3926	-0.0055
780.5655	0.0094
780.7384	0.0017
780.9112	0.0126
781.0841	-0.0109
781.2569	-0.0015
781.4297	-0.0217
781.6024	0.0067
781.7752	0.0003
781.9479	0.0057
782.1206	0.0079
782.2933	0.0019
782.466	-0.0008
782.6386	0.0169
782.8113	-0.0106
782.9839	0.0019
783.1565	0.0023
783.329	-0.0018
783.5016	-0.0028
783.6741	0.0103
783.8466	-0.0086
784.0191	0.01
784.1916	0.0031
784.3641	-0.0112
784.5365	0.0068
784.7089	0.0058
784.8813	0.0059
785.0537	-0.0098
785.2261	-0.01
785.3984	0.0104
785.5707	0.0062
785.743	0.0031
785.9153	-0.0099
786.0876	-0.0036
786.2598	-0.0033
786.432	0.0115
786.6042	0.0102
786.7764	0.0005
786.9486	0.0053
787.1207	0.013
787.2928	-0.005
787.4649	0.0063
787.637	0.0023
787.8091	0.0043
787.9811	-0.0029
788.1532	0.01
788.3252	-0.0059
788.4972	-0.0052
788.6691	0.0163
788.8411	-0.0111
789.013	0.0075
789.1849	0.0087
789.3568	0.0095
789.5287	0.013
789.7005	0.0053
789.8723	-0.0015
790.0442	0.0117
790.2159	-0.0134
790.3877	0.0241
790.5595	0.0128
790.7312	-0.0041
790.9029	0.0048
791.0746	0.0032
791.2463	0.0127
791.4179	0.0145
791.5896	0.0124
791.7612	0.021
791.9328	0.0146
792.1044	0.0124
792.2759	-0.0007
792.4474	0.0039
792.619	0.0207
792.7905	0.0197
792.9619	0.0175
793.1334	0.0164
793.3048	0.0132
793.4762	0.0053
793.6476	0.0015
793.819	0.0212
793.9904	0.0096
794.1617	-0.0086
794.333	0.0051
794.5043	0.0077
794.6756	0.011
794.8469	0.004
795.0181	0.0163
795.1893	-0.0131
795.3605	0.0053
795.5317	-0.0124
795.7029	0.0074
795.874	0.0013
796.0452	0.012
796.2163	0.0049
796.3873	0.0094
796.5584	0.0158
796.7294	-0.0031
796.9005	-0.0025
797.0715	0.0085
797.2425	0.0103
797.4134	0.016
797.5844	0.0109
797.7553	0.0151
797.9262	0.0224
798.0971	0.0101
798.2679	0.0001
798.4388	-0.0044
798.6096	-0.0124
798.7804	0.0048
798.9512	-0.0015
799.122	0.0231
799.2927	0.0123
799.4635	0.0072
799.6342	0.0332
799.8049	0.0101
799.9755	-0.0005
800.1462	0.011
800.3168	0.0145
800.4874	0.0012
800.658	0.0058
800.8286	0.013
800.9991	0.0302
801.1696	0.0001
801.3402	0.0172
801.5106	0.0095
801.6811	-0.0003
801.8516	0.0212
802.022	-0.0089
802.1924	-0.0037
802.3628	-0.0036
802.5332	0.0011
802.7035	-0.0005
802.8739	0.0115
803.0442	0.0064
803.2145	0.0036
803.3847	-0.0033
803.555	0.0036
803.7252	0.0267
803.8954	-0.0073
804.0656	0.0045
804.2358	-0.0036
804.4059	0.0218
804.5761	0.003
804.7462	0.0003
804.9163	0.0117
805.0864	-0.0043
805.2564	-0.0007
805.4264	0.011
805.5965	0.0045
805.7665	0.01
805.9364	-0.0241
806.1064	0.0201
806.2763	0.0313
806.4462	0.0088
806.6161	0.0115
806.786	0.0143
806.9559	0.0098
807.1257	0.0061
807.2955	0.0363
807.4653	0.0257
807.6351	0.0049
807.8048	0.0173
807.9746	0.0167
808.1443	0.0116
808.314	0.0222
808.4837	0.0274
808.6533	0.0213
808.8229	0.0258
808.9926	0.0243
809.1622	0.0245
809.3317	0.0256
809.5013	0.0519
809.6708	0.0187
809.8403	0.015
810.0098	0.0117
810.1793	0.0203
810.3488	-0.0075
810.5182	0.0352
810.6876	0.0082
810.857	0.0009
811.0264	0.0135
811.1958	0.0107
811.3651	-0.0078
811.5344	0.0179
811.7037	0.0068
811.873	0.0025
812.0422	-0.0077
812.2115	0.0111
812.3807	0.0366
812.5499	-0.0032
812.7191	0.0183
812.8882	0.0141
813.0574	0.0197
813.2265	0.0258
813.3956	0.0178
813.5646	0.0124
813.7337	0.0154
813.9027	-0.0043
814.0718	0.034
814.2407	0.0245
814.4097	0.0069
814.5787	-0.0034
814.7476	0.0079
814.9165	0.0097
815.0854	0.0064
815.2543	0.0179
815.4232	0.0316
815.592	-0.0044
815.7608	0.0188
815.9296	0.0035
816.0984	0.0042
816.2671	0.0099
816.4359	-0.0061
816.6046	-0.0132
816.7733	-0.0039
816.942	-0.0016
817.1106	-0.0163
817.2793	0.0037
817.4479	-0.0314
817.6165	0.0014
817.785	-0.0142
817.9536	0.022
818.1221	-0.0239
818.2906	-0.0038
818.4591	-0.0044
818.6276	0.0446
818.7961	0.0126
818.9645	0.0277
819.1329	0.0214
819.3013	0.0011
819.4697	0.0196
819.638	-0.006
819.8064	0.03
819.9747	0.0048
820.143	0.0111
820.3113	0.0196
820.4795	0.0005
820.6477	-0.0177
820.816	-0.0142
820.9842	-0.0034
821.1523	0.017
821.3205	0.0251
821.4886	-0.0215
821.6567	0.0053
821.8248	-0.0028
821.9929	0.0113
822.1609	-0.0179
822.329	0.0443
822.497	0.0088
822.665	0.0009
822.833	-0.0291
823.0009	-0.0136
823.1688	0.0137
823.3367	0.0343
823.5046	-0.0069
823.6725	-0.017
823.8404	0.0086
824.0082	0.0044
824.176	0.0221
824.3438	0.0146
824.5116	0.0291
824.6793	-0.0248
824.847	0.0167
825.0147	0.0047
825.1824	0.0084
825.3501	-0.0168
825.5177	-0.0058
825.6854	-0.0111
825.853	0.0513
826.0206	-0.0066
826.1881	0.0159
826.3557	-0.01
826.5232	0.0232
826.6907	-0.0028
826.8582	0.029
827.0257	0.0211
827.1931	0.0525
827.3605	0.0294
827.528	0.0243
827.6953	0.0215
827.8627	0.0195
828.03	0.0234
828.1974	0.0156
828.3647	0.0337
828.532	0.003
828.6992	0.0372
828.8665	0.042
829.0337	0.0092
829.2009	0.0331
829.3681	-0.0162
829.5352	0.0259
829.7024	0.0298
829.8695	0.0017
830.0366	0.0248
830.2037	-0.0071
830.3707	0.0117
830.5378	-0.0493
830.7048	0.0054
830.8718	0.0301
831.0388	-0.0013
831.2057	-0.0246
831.3727	0.0542
831.5396	0.0233
831.7065	-0.0197
831.8734	-0.0199
832.0402	0.0025
832.2071	-0.015
832.3739	-0.0323
832.5407	0.0657
832.7075	-0.0135
832.8742	0.0009
833.041	0.0025
833.2077	0.0087
833.3744	0.0091
833.541	0.0528
833.7077	0.0408
833.8743	0.0196
834.0409	0.0015
834.2075	-0.0059
834.3741	0.0203
834.5407	0.0009
834.7072	0.0464
834.8737	-0.0194
835.0402	0.0093
835.2067	-0.004
835.3731	0.016
835.5395	0.0028
835.706	0.0332
835.8723	-0.0435
836.0387	0.0418
836.2051	-0.0325
836.3714	-0.0657
836.5377	-0.0044
836.704	-0.0182
836.8703	-0.0474
837.0365	-0.0692
837.2027	-0.0145
837.3689	-0.0319
837.5351	0.0366
837.7013	-0.0228
837.8674	-0.0069
838.0335	-0.0112
838.1997	-0.0218
838.3657	-0.015
838.5318	-0.0183
838.6978	-0.0355
838.8639	-0.0361
839.0299	-0.0146
839.1958	0.0004
839.3618	-0.0319
839.5277	0.0058
839.6937	0.0004
839.8596	-0.0094
840.0254	0.015
840.1913	0.0379
840.3571	-0.0304
840.523	-0.0145
840.6888	-0.0053
840.8545	-0.0059
841.0203	0.0589
841.186	0.0553
841.3517	-0.0216
841.5174	0.0455
841.6831	-0.025
841.8488	0.0133
842.0144	0.0461
842.18	0.0401
842.3456	0.009
842.5112	0.0485
842.6767	-0.0206
842.8422	0.0716
843.0077	-0.0298
843.1732	-0.0202
843.3387	-0.0326
843.5042	-0.0028
843.6696	0.0283
843.835	-0.0098
844.0004	-0.0266
844.1657	-0.029
844.3311	0.0359
844.4964	0.0096
844.6617	-0.082
844.827	0.0337
844.9923	0.0029
845.1575	0.0348
845.3227	0.0183
845.4879	-0.0005
845.6531	-0.0176
845.8183	-0.0588
845.9834	0.0235
846.1485	0.0006
846.3136	-0.046
846.4787	0.0566
846.6438	0.0611
846.8088	-0.0659
846.9738	-0.0413
847.1388	0.0089
847.3038	0.0057
847.4687	-0.0325
847.6337	-0.061
847.7986	0.0107
847.9635	-0.0587
848.1284	-0.0062
848.2932	0.0034
848.458	0.0089
848.6228	0.0602
848.7876	-0.0111
848.9524	-0.0727
849.1172	0.033
849.2819	-0.0517
849.4466	0.0733
849.6113	0.1026
849.7759	-0.0713
849.9406	0.1029
850.1052	-0.0932
850.2698	0.0066
850.4344	0.0392
850.599	0.0309
850.7635	-0.0164
850.928	-0.0622
851.0925	0.002
851.257	0.1194
851.4215	-0.0474
851.5859	0.0172
851.7503	-0.0654
851.9147	0.0661
852.0791	-0.0563
852.2434	-0.0008
852.4078	-0.0718
852.5721	0.071
852.7364	-0.0946
852.9007	-0.0383
853.0649	-0.0267
853.2291	0.2175
853.3934	0.0191
853.5575	-0.0011
853.7217	0.0787
853.8859	-0.0668
854.05	-0.0194
854.2141	0.0491
854.3782	-0.0348
854.5423	0.0337
854.7063	0.0863
854.8703	-0.0197
855.0343	0.0443
855.1983	-0.039
855.3623	0.0126
855.5262	0.0444
855.6901	-0.1902
855.854	-0.0437
856.0179	-0.0048
856.1818	-0.0255
856.3456	0.0268
856.5094	0.2348
856.6732	-0.1018
856.837	0.0077
857.0008	-0.3368
857.1645	0.1159
857.3282	0.1986
857.4919	0.2278
857.6556	-0.0398
857.8192	0.0102
857.9828	0.1536
858.1465	0.1254
858.31	0.1045
858.4736	0.0868
858.6372	-0.0439
858.8007	-0.3573
858.9642	-0.089
859.1277	-0.2583
859.2911	-0.0735
859.4546	0.1632
859.618	-0.5776
859.7814	-0.0146
859.9448	-0.162
860.1081	-0.0585
860.2715	-0.0973
860.4348	0.0046
860.5981	0.13
860.7614	-0.0225
860.9246	0.2477
861.0879	-0.0609
861.2511	0.3961
861.4143	0.0324
861.5774	0.0324
861.7406	0.0305
861.9037	-0.21
862.0668	-0.2082
862.2299	0.1836
862.393	0.0216
862.556	0.1697
862.7191	0.206
862.8821	-0.1738
863.0451	-0.1881
863.208	0.4619
863.371	-0.443
863.5339	0.2535
863.6968	-0.0055
863.8597	-0.2656
864.0225	0.2842
864.1854	-0.0623
864.3482	-0.0929
864.511	-0.0791
864.6737	2.6767
864.8365	0.2695
864.9992	-0.0189
865.1619	-0.2252
865.3246	0.2115
865.4873	-0.1725
865.65	-0.3462
865.8126	-0.073
865.9752	0.0804
866.1378	0.5541
866.3004	-0.323
866.4629	0.0383
866.6254	-0.1075
866.7879	0.0277
866.9504	0.3192
867.1129	0.0455
867.2753	-0.02
867.4377	0.0447
867.6001	-0
867.7625	0.0171
867.9249	-0.3579
868.0872	0.7305
868.2495	0.1715
868.4118	0.2097
868.5741	-0.186
868.7363	0.4683
868.8986	-0.1149
869.0608	-0.442
869.223	0.0914
869.3851	-0.0545
869.5473	-0.2846
869.7094	-0.0219
869.8715	-0
870.0336	-0
870.1957	-0
870.3577	-0.2225
870.5197	0.2904
870.6817	-0
870.8437	0.7997
871.0057	-0.0749
871.1676	-0.4269
871.3295	-0
871.4914	-1.3791
871.6533	0.0488
871.8151	0.0928
871.977	-0.5113
872.1388	2.6656
872.3006	0.1611
872.4623	0.2643
872.6241	-0.1237
872.7858	-0.1473
872.9475	-0.1587
873.1092	0.9582
873.2709	-0
873.4325	-0.1934
873.5941	0.5471
873.7557	0.3424
873.9173	-0.3005
874.0789	0.931
874.2404	-0
874.4019	-0
874.5634	-0.1855
874.7249	0.5029
874.8863	-0.1175
875.0478	0.0372
875.2092	-0
875.3706	-0.2581
875.5319	-0
875.6933	-0
875.8546	-0.0958
876.0159	0.3258
876.1772	-0
876.3385	-0.3261
876.4997	-0
876.6609	-0
876.8221	-0.0784
876.9833	-0.393
877.1445	-0
877.3056	-0.2002
877.4667	-0.0781
877.6278	0.5461
877.7889	0.1354
877.9499	0.6511
878.111	-0.2184
878.272	-0.2958
878.433	-0.0733
878.5939	0.5664
878.7549	0.424
878.9158	0.1116
879.0767	-0.0202
879.2376	0.186
879.3984	-0
879.5593	-0.5213
879.7201	-0.1937
879.8809	-0
880.0417	0.2943
880.2024	-0.3467
880.3632	0.6238
880.5239	1.1318
880.6846	-0
880.8452	-0.3226
881.0059	-0.63
881.1665	0.9189
881.3271	-0.4238
881.4877	-0
881.6483	-0.1243
881.8088	-0.5096
881.9693	-0.2525
882.1298	-0.2525
882.2903	-0.2525
