Data from MonoPyChalIsomerACN10uM400nmA_Absorbance_12-08-47-028.txt Node
Date: Fri Jul 05 12:08:47 BST 2024
User: LASERRRRR
Spectrometer: FLMT03099
Trigger mode: 0
Integration Time (sec): 1.000000E-1
Scans to average: 1
Electric dark correction enabled: true
Nonlinearity correction enabled: false
Boxcar width: 0
XAxis mode: Wavelengths
Number of Pixels in Spectrum: 3648
>>>>>Begin Spectral Data<<<<<
179.3399	0.3182
179.5586	0.3182
179.7771	0.3182
179.9957	-0.0388
180.2143	-0
180.4329	-0
180.6514	-0.3784
180.8699	-0
181.0885	0.1067
181.307	0.1904
181.5255	-0.7088
181.744	0.0599
181.9625	-0
182.181	-0
182.3994	0.6115
182.6179	-0
182.8363	-0.0783
183.0547	0.0696
183.2732	0.089
183.4916	0.1536
183.71	-0.0279
183.9284	0.11
184.1467	-0.1384
184.3651	0.038
184.5835	0.0947
184.8018	-0.0185
185.0201	0.1256
185.2385	-0.0446
185.4568	0.2511
185.6751	0.0162
185.8934	0.0231
186.1117	0.1861
186.3299	0.0791
186.5482	0.1376
186.7664	0.0711
186.9847	0.1628
187.2029	0.1692
187.4211	-0.4189
187.6393	0.0495
187.8575	0.0452
188.0757	0.1119
188.2939	0.018
188.512	0.1312
188.7302	-0.1519
188.9483	-0.0145
189.1665	0.1884
189.3846	-0.04
189.6027	0.352
189.8208	0.1487
190.0389	0.126
190.257	0.1148
190.475	0.4298
190.6931	0.2823
190.9111	0.2214
191.1292	0.3907
191.3472	0.4163
191.5652	0.1983
191.7832	0.346
192.0012	0.3126
192.2192	0.3989
192.4371	0.2837
192.6551	0.4198
192.873	0.3088
193.091	0.3145
193.3089	0.4204
193.5268	0.5743
193.7447	0.5344
193.9626	0.4657
194.1805	0.5853
194.3984	0.5486
194.6162	0.4772
194.8341	0.6746
195.0519	0.7312
195.2697	0.576
195.4875	0.4611
195.7054	0.7227
195.9231	0.529
196.1409	0.4626
196.3587	0.6399
196.5765	0.5625
196.7942	0.8175
197.012	0.7525
197.2297	0.5424
197.4474	0.7019
197.6651	0.7943
197.8828	0.9601
198.1005	0.6973
198.3182	0.8168
198.5358	0.6745
198.7535	0.6511
198.9711	0.6741
199.1888	0.6563
199.4064	0.7481
199.624	0.7518
199.8416	0.6161
200.0592	0.6115
200.2767	0.5127
200.4943	0.6592
200.7119	0.6986
200.9294	0.7739
201.1469	0.8196
201.3645	0.5479
201.582	0.6301
201.7995	0.7879
202.017	0.8986
202.2344	0.5489
202.4519	0.7705
202.6694	0.9269
202.8868	0.697
203.1042	0.6811
203.3217	0.6721
203.5391	0.7797
203.7565	1.0069
203.9739	0.8755
204.1913	0.8006
204.4086	0.746
204.626	0.7109
204.8433	0.9911
205.0607	0.7815
205.278	0.7833
205.4953	0.8157
205.7126	0.6499
205.9299	0.838
206.1472	0.7994
206.3644	0.6123
206.5817	0.6439
206.7989	0.6907
207.0162	0.7194
207.2334	0.7867
207.4506	0.7334
207.6678	0.724
207.885	0.7872
208.1022	0.7091
208.3194	0.7176
208.5365	0.734
208.7537	0.8703
208.9708	0.6906
209.1879	0.8059
209.405	0.5751
209.6222	0.746
209.8392	0.6471
210.0563	0.7152
210.2734	0.7386
210.4905	0.6862
210.7075	0.753
210.9245	0.7626
211.1416	0.6403
211.3586	0.767
211.5756	0.6941
211.7926	0.7734
212.0096	0.7168
212.2265	0.7071
212.4435	0.7923
212.6604	0.6812
212.8774	0.7261
213.0943	0.7188
213.3112	0.706
213.5281	0.5827
213.745	0.7304
213.9619	0.7144
214.1788	0.7187
214.3956	0.724
214.6125	0.6058
214.8293	0.7274
215.0461	0.6811
215.2629	0.6105
215.4798	0.6748
215.6965	0.6408
215.9133	0.6408
216.1301	0.5924
216.3469	0.6543
216.5636	0.6055
216.7803	0.6138
216.9971	0.5902
217.2138	0.6566
217.4305	0.6171
217.6472	0.5898
217.8639	0.6188
218.0805	0.6282
218.2972	0.5644
218.5138	0.5779
218.7305	0.6076
218.9471	0.5654
219.1637	0.5872
219.3803	0.522
219.5969	0.5844
219.8135	0.584
220.0301	0.5567
220.2466	0.5861
220.4632	0.5543
220.6797	0.5682
220.8962	0.5424
221.1127	0.5598
221.3292	0.5372
221.5457	0.5831
221.7622	0.5435
221.9787	0.4993
222.1951	0.5572
222.4116	0.5497
222.628	0.5607
222.8444	0.523
223.0608	0.529
223.2772	0.5177
223.4936	0.5359
223.71	0.5383
223.9264	0.5626
224.1427	0.5632
224.3591	0.5366
224.5754	0.5351
224.7917	0.5038
225.008	0.5685
225.2243	0.5278
225.4406	0.5391
225.6569	0.5453
225.8732	0.575
226.0894	0.5802
226.3057	0.5341
226.5219	0.5292
226.7381	0.5631
226.9543	0.567
227.1705	0.5498
227.3867	0.5523
227.6029	0.5394
227.8191	0.5622
228.0352	0.5718
228.2513	0.5645
228.4675	0.5811
228.6836	0.582
228.8997	0.5468
229.1158	0.5395
229.3319	0.5575
229.548	0.5618
229.764	0.5916
229.9801	0.5607
230.1961	0.5427
230.4121	0.5489
230.6282	0.5549
230.8442	0.5877
231.0602	0.586
231.2761	0.543
231.4921	0.5829
231.7081	0.5561
231.924	0.583
232.14	0.5921
232.3559	0.5407
232.5718	0.5851
232.7877	0.5621
233.0036	0.5762
233.2195	0.5598
233.4353	0.5582
233.6512	0.5749
233.867	0.5569
234.0829	0.5434
234.2987	0.5754
234.5145	0.5362
234.7303	0.5715
234.9461	0.5657
235.1619	0.5586
235.3776	0.5621
235.5934	0.5653
235.8091	0.5603
236.0249	0.5102
236.2406	0.5461
236.4563	0.5646
236.672	0.5515
236.8877	0.5117
237.1034	0.5475
237.319	0.5217
237.5347	0.5449
237.7503	0.5345
237.966	0.5319
238.1816	0.588
238.3972	0.5597
238.6128	0.5032
238.8284	0.5549
239.0439	0.5398
239.2595	0.5338
239.475	0.5355
239.6906	0.5362
239.9061	0.5097
240.1216	0.5333
240.3371	0.5443
240.5526	0.5221
240.7681	0.5065
240.9836	0.5358
241.199	0.4944
241.4145	0.514
241.6299	0.4894
241.8453	0.4848
242.0607	0.494
242.2761	0.4858
242.4915	0.4583
242.7069	0.4522
242.9223	0.4472
243.1376	0.4188
243.353	0.4469
243.5683	0.4453
243.7836	0.4387
243.9989	0.4153
244.2142	0.425
244.4295	0.3987
244.6448	0.3925
244.86	0.3985
245.0753	0.3906
245.2905	0.4004
245.5057	0.3757
245.721	0.3686
245.9362	0.3392
246.1514	0.3623
246.3665	0.338
246.5817	0.3321
246.7969	0.3278
247.012	0.3454
247.2271	0.3413
247.4423	0.3039
247.6574	0.3181
247.8725	0.2956
248.0876	0.3019
248.3026	0.2894
248.5177	0.2931
248.7328	0.2978
248.9478	0.2805
249.1628	0.2725
249.3779	0.2678
249.5929	0.2639
249.8079	0.2635
250.0228	0.249
250.2378	0.2528
250.4528	0.2401
250.6677	0.244
250.8827	0.233
251.0976	0.2377
251.3125	0.241
251.5274	0.2375
251.7423	0.2277
251.9572	0.2246
252.172	0.2056
252.3869	0.2231
252.6017	0.2236
252.8166	0.2145
253.0314	0.2101
253.2462	0.2035
253.461	0.2142
253.6758	0.2014
253.8906	0.2084
254.1053	0.2024
254.3201	0.2121
254.5348	0.1951
254.7496	0.2219
254.9643	0.1924
255.179	0.1953
255.3937	0.2019
255.6083	0.1915
255.823	0.1871
256.0377	0.1884
256.2523	0.1937
256.467	0.1993
256.6816	0.1892
256.8962	0.1965
257.1108	0.2041
257.3254	0.186
257.54	0.1962
257.7545	0.1981
257.9691	0.207
258.1836	0.1814
258.3981	0.1913
258.6127	0.192
258.8272	0.1923
259.0417	0.178
259.2561	0.1812
259.4706	0.1808
259.6851	0.1909
259.8995	0.1884
260.114	0.1725
260.3284	0.1861
260.5428	0.1916
260.7572	0.1874
260.9716	0.1956
261.186	0.1878
261.4003	0.1974
261.6147	0.1966
261.829	0.2041
262.0433	0.1843
262.2577	0.1907
262.472	0.1832
262.6863	0.1859
262.9005	0.1804
263.1148	0.1868
263.3291	0.1862
263.5433	0.1828
263.7576	0.194
263.9718	0.1844
264.186	0.1735
264.4002	0.2002
264.6144	0.1945
264.8286	0.1878
265.0427	0.1836
265.2569	0.2012
265.471	0.1675
265.6851	0.184
265.8993	0.1864
266.1134	0.1812
266.3275	0.1961
266.5415	0.1887
266.7556	0.1894
266.9697	0.2091
267.1837	0.1847
267.3978	0.1948
267.6118	0.1944
267.8258	0.1944
268.0398	0.1963
268.2538	0.1861
268.4677	0.1924
268.6817	0.201
268.8957	0.2014
269.1096	0.1851
269.3235	0.191
269.5374	0.186
269.7514	0.1819
269.9652	0.1962
270.1791	0.1869
270.393	0.1757
270.6068	0.1862
270.8207	0.1928
271.0345	0.1755
271.2483	0.1843
271.4622	0.1902
271.676	0.1941
271.8897	0.1855
272.1035	0.1849
272.3173	0.1875
272.531	0.1725
272.7448	0.1794
272.9585	0.1856
273.1722	0.1758
273.3859	0.1901
273.5996	0.1902
273.8133	0.1799
274.0269	0.179
274.2406	0.1887
274.4542	0.1821
274.6679	0.1869
274.8815	0.1737
275.0951	0.1874
275.3087	0.1758
275.5223	0.1883
275.7358	0.1869
275.9494	0.1838
276.1629	0.1879
276.3765	0.1794
276.59	0.184
276.8035	0.1826
277.017	0.1847
277.2305	0.1935
277.444	0.1753
277.6574	0.1909
277.8709	0.1814
278.0843	0.1885
278.2978	0.1903
278.5112	0.1876
278.7246	0.1782
278.938	0.1874
279.1513	0.2006
279.3647	0.1854
279.5781	0.1927
279.7914	0.1868
280.0047	0.1871
280.2181	0.1985
280.4314	0.1902
280.6447	0.1897
280.8579	0.1889
281.0712	0.1904
281.2845	0.1927
281.4977	0.1954
281.711	0.1914
281.9242	0.2005
282.1374	0.1864
282.3506	0.1909
282.5638	0.1908
282.7769	0.1872
282.9901	0.1873
283.2033	0.1928
283.4164	0.1787
283.6295	0.188
283.8426	0.1806
284.0557	0.1928
284.2688	0.1819
284.4819	0.1866
284.695	0.1899
284.908	0.1769
285.1211	0.1939
285.3341	0.183
285.5471	0.1876
285.7601	0.1818
285.9731	0.1954
286.1861	0.1803
286.3991	0.1821
286.612	0.186
286.825	0.1978
287.0379	0.1835
287.2508	0.1929
287.4637	0.1875
287.6766	0.1761
287.8895	0.1786
288.1024	0.1791
288.3152	0.1848
288.5281	0.1793
288.7409	0.177
288.9538	0.1719
289.1666	0.1695
289.3794	0.1749
289.5922	0.1788
289.8049	0.1559
290.0177	0.1814
290.2304	0.1839
290.4432	0.1707
290.6559	0.1863
290.8686	0.1734
291.0813	0.159
291.294	0.1685
291.5067	0.1801
291.7194	0.1762
291.932	0.1773
292.1447	0.1876
292.3573	0.1839
292.5699	0.186
292.7825	0.1597
292.9951	0.1842
293.2077	0.1767
293.4203	0.1729
293.6328	0.1674
293.8454	0.1702
294.0579	0.176
294.2704	0.1672
294.4829	0.1829
294.6954	0.183
294.9079	0.1734
295.1204	0.1731
295.3328	0.1658
295.5453	0.1661
295.7577	0.1611
295.9701	0.1622
296.1825	0.1644
296.3949	0.1588
296.6073	0.1628
296.8197	0.1643
297.0321	0.1681
297.2444	0.1625
297.4567	0.1633
297.6691	0.163
297.8814	0.1751
298.0937	0.1689
298.306	0.1649
298.5182	0.1687
298.7305	0.1541
298.9428	0.1602
299.155	0.1651
299.3672	0.1539
299.5794	0.1525
299.7916	0.1572
300.0038	0.1566
300.216	0.1552
300.4282	0.1667
300.6403	0.1764
300.8525	0.1646
301.0646	0.1705
301.2767	0.1634
301.4888	0.1607
301.7009	0.1611
301.913	0.1625
302.125	0.1581
302.3371	0.1654
302.5491	0.1609
302.7612	0.1628
302.9732	0.167
303.1852	0.1657
303.3972	0.1605
303.6092	0.1655
303.8211	0.1585
304.0331	0.1491
304.245	0.1519
304.457	0.1541
304.6689	0.1613
304.8808	0.1465
305.0927	0.1465
305.3046	0.1462
305.5164	0.1584
305.7283	0.1547
305.9401	0.1503
306.152	0.1431
306.3638	0.1418
306.5756	0.1491
306.7874	0.1498
306.9992	0.1335
307.2109	0.1454
307.4227	0.1482
307.6344	0.1401
307.8462	0.1364
308.0579	0.1286
308.2696	0.1422
308.4813	0.1394
308.693	0.144
308.9046	0.1264
309.1163	0.1327
309.328	0.1274
309.5396	0.1336
309.7512	0.1338
309.9628	0.132
310.1744	0.1275
310.386	0.1222
310.5976	0.1248
310.8091	0.1264
311.0207	0.126
311.2322	0.12
311.4437	0.1248
311.6552	0.127
311.8667	0.1185
312.0782	0.1293
312.2897	0.1021
312.5012	0.1222
312.7126	0.1218
312.924	0.1129
313.1355	0.1217
313.3469	0.1161
313.5583	0.1156
313.7696	0.1196
313.981	0.1079
314.1924	0.1179
314.4037	0.117
314.6151	0.1192
314.8264	0.1104
315.0377	0.1113
315.249	0.106
315.4603	0.1097
315.6716	0.1142
315.8828	0.1156
316.0941	0.1105
316.3053	0.1
316.5165	0.1075
316.7277	0.1045
316.9389	0.1073
317.1501	0.1124
317.3613	0.0986
317.5724	0.1173
317.7836	0.1071
317.9947	0.1132
318.2058	0.1128
318.417	0.1072
318.6281	0.1081
318.8391	0.1151
319.0502	0.113
319.2613	0.1081
319.4723	0.1092
319.6834	0.1042
319.8944	0.1137
320.1054	0.1074
320.3164	0.1096
320.5274	0.0995
320.7383	0.1097
320.9493	0.1017
321.1602	0.1231
321.3712	0.1083
321.5821	0.1117
321.793	0.114
322.0039	0.1216
322.2148	0.1086
322.4257	0.1094
322.6365	0.1112
322.8474	0.1073
323.0582	0.1158
323.269	0.1171
323.4798	0.1185
323.6906	0.1069
323.9014	0.1175
324.1122	0.1113
324.3229	0.1286
324.5337	0.12
324.7444	0.1264
324.9551	0.1212
325.1658	0.1237
325.3765	0.111
325.5872	0.1175
325.7979	0.1273
326.0085	0.1028
326.2192	0.1015
326.4298	0.1243
326.6404	0.1207
326.851	0.1195
327.0616	0.1172
327.2722	0.1199
327.4828	0.1192
327.6933	0.1215
327.9039	0.1084
328.1144	0.1176
328.3249	0.114
328.5354	0.1088
328.7459	0.1226
328.9564	0.1211
329.1669	0.1274
329.3773	0.1193
329.5878	0.1097
329.7982	0.1228
330.0086	0.1155
330.219	0.1083
330.4294	0.11
330.6398	0.1171
330.8502	0.1172
331.0605	0.1292
331.2708	0.1145
331.4812	0.1102
331.6915	0.1092
331.9018	0.1297
332.1121	0.1141
332.3224	0.1157
332.5326	0.1208
332.7429	0.1108
332.9531	0.1121
333.1633	0.1189
333.3735	0.1115
333.5837	0.1244
333.7939	0.1137
334.0041	0.1255
334.2143	0.1214
334.4244	0.131
334.6346	0.099
334.8447	0.1164
335.0548	0.1286
335.2649	0.1314
335.475	0.1198
335.685	0.1103
335.8951	0.1267
336.1051	0.1217
336.3152	0.1304
336.5252	0.1218
336.7352	0.1266
336.9452	0.1367
337.1552	0.1402
337.3652	0.1288
337.5751	0.1324
337.7851	0.1179
337.995	0.1117
338.2049	0.1234
338.4148	0.1261
338.6247	0.1117
338.8346	0.1345
339.0445	0.1127
339.2543	0.1256
339.4642	0.1292
339.674	0.1331
339.8838	0.1162
340.0936	0.1269
340.3034	0.1417
340.5132	0.134
340.7229	0.1406
340.9327	0.1242
341.1424	0.1242
341.3522	0.136
341.5619	0.1275
341.7716	0.13
341.9813	0.1272
342.1909	0.128
342.4006	0.1298
342.6102	0.1162
342.8199	0.1274
343.0295	0.1311
343.2391	0.1448
343.4487	0.1322
343.6583	0.1258
343.8679	0.1308
344.0774	0.1311
344.287	0.1349
344.4965	0.1406
344.706	0.1379
344.9155	0.1385
345.125	0.1293
345.3345	0.1443
345.544	0.1487
345.7534	0.1409
345.9629	0.1305
346.1723	0.1443
346.3817	0.1391
346.5911	0.1332
346.8005	0.1419
347.0099	0.1437
347.2193	0.1465
347.4286	0.1464
347.638	0.1371
347.8473	0.1414
348.0566	0.1322
348.2659	0.158
348.4752	0.157
348.6845	0.1381
348.8937	0.148
349.103	0.1279
349.3122	0.1292
349.5214	0.1488
349.7306	0.147
349.9398	0.1422
350.149	0.1485
350.3582	0.1488
350.5674	0.1576
350.7765	0.1381
350.9856	0.1398
351.1948	0.1523
351.4039	0.1499
351.613	0.1558
351.822	0.1552
352.0311	0.1511
352.2402	0.1385
352.4492	0.1557
352.6582	0.1494
352.8672	0.1456
353.0762	0.1497
353.2852	0.1587
353.4942	0.1475
353.7032	0.1614
353.9121	0.1587
354.1211	0.154
354.33	0.1651
354.5389	0.1441
354.7478	0.1639
354.9567	0.171
355.1655	0.1525
355.3744	0.1452
355.5833	0.162
355.7921	0.1707
356.0009	0.1541
356.2097	0.153
356.4185	0.1476
356.6273	0.1577
356.8361	0.1631
357.0448	0.1553
357.2536	0.1501
357.4623	0.1582
357.671	0.1566
357.8797	0.1614
358.0884	0.1747
358.2971	0.16
358.5057	0.1636
358.7144	0.163
358.923	0.1644
359.1316	0.1562
359.3402	0.1802
359.5488	0.17
359.7574	0.1797
359.966	0.1555
360.1746	0.1629
360.3831	0.1779
360.5916	0.1762
360.8002	0.1835
361.0087	0.1656
361.2172	0.1676
361.4256	0.1796
361.6341	0.1802
361.8426	0.1692
362.051	0.1683
362.2594	0.1694
362.4678	0.174
362.6762	0.1725
362.8846	0.185
363.093	0.1752
363.3014	0.1783
363.5097	0.1758
363.718	0.1975
363.9264	0.1921
364.1347	0.1795
364.343	0.183
364.5513	0.1946
364.7595	0.1879
364.9678	0.1768
365.176	0.1807
365.3842	0.1804
365.5925	0.1587
365.8007	0.1882
366.0089	0.1831
366.217	0.1782
366.4252	0.1993
366.6333	0.1894
366.8415	0.1728
367.0496	0.1933
367.2577	0.2124
367.4658	0.1926
367.6739	0.2111
367.882	0.2008
368.09	0.1905
368.2981	0.1873
368.5061	0.1862
368.7141	0.1936
368.9221	0.1886
369.1301	0.1859
369.3381	0.1947
369.5461	0.1907
369.754	0.1913
369.962	0.1855
370.1699	0.1839
370.3778	0.2001
370.5857	0.209
370.7936	0.1951
371.0015	0.1975
371.2093	0.2063
371.4172	0.202
371.625	0.1926
371.8328	0.2146
372.0406	0.1982
372.2484	0.2004
372.4562	0.2056
372.664	0.2057
372.8717	0.1751
373.0795	0.1976
373.2872	0.1895
373.4949	0.2009
373.7026	0.1926
373.9103	0.2021
374.118	0.1807
374.3256	0.2084
374.5333	0.2048
374.7409	0.1858
374.9485	0.1862
375.1561	0.2023
375.3637	0.1946
375.5713	0.2107
375.7789	0.2051
375.9864	0.2246
376.194	0.2058
376.4015	0.2283
376.609	0.2046
376.8165	0.1945
377.024	0.208
377.2315	0.2086
377.4389	0.1961
377.6464	0.218
377.8538	0.2009
378.0612	0.2073
378.2686	0.2096
378.476	0.2083
378.6834	0.1927
378.8908	0.2072
379.0981	0.1918
379.3055	0.2102
379.5128	0.2165
379.7201	0.2153
379.9274	0.2093
380.1347	0.1944
380.342	0.2145
380.5492	0.2211
380.7565	0.2201
380.9637	0.2206
381.1709	0.1931
381.3781	0.2003
381.5853	0.2152
381.7925	0.2302
381.9997	0.2058
382.2068	0.2247
382.4139	0.2155
382.6211	0.239
382.8282	0.2181
383.0353	0.2249
383.2424	0.2179
383.4494	0.2183
383.6565	0.2086
383.8635	0.214
384.0706	0.2197
384.2776	0.217
384.4846	0.192
384.6916	0.2298
384.8986	0.2165
385.1055	0.2033
385.3125	0.2211
385.5194	0.1833
385.7263	0.2111
385.9333	0.2103
386.1402	0.2014
386.347	0.2208
386.5539	0.1926
386.7608	0.2114
386.9676	0.206
387.1744	0.2126
387.3813	0.2166
387.5881	0.216
387.7948	0.2177
388.0016	0.2241
388.2084	0.2062
388.4151	0.2109
388.6219	0.2159
388.8286	0.2045
389.0353	0.2101
389.242	0.1971
389.4487	0.2075
389.6553	0.193
389.862	0.1977
390.0686	0.1971
390.2753	0.2294
390.4819	0.2149
390.6885	0.2106
390.8951	0.1921
391.1016	0.2077
391.3082	0.2066
391.5147	0.1938
391.7213	0.1975
391.9278	0.1951
392.1343	0.1891
392.3408	0.1956
392.5473	0.1913
392.7537	0.1924
392.9602	0.1946
393.1666	0.1984
393.373	0.1832
393.5794	0.1715
393.7858	0.1906
393.9922	0.2063
394.1986	0.1875
394.4049	0.1913
394.6113	0.1784
394.8176	0.2076
395.0239	0.188
395.2302	0.1673
395.4365	0.1741
395.6428	0.1926
395.8491	0.1755
396.0553	0.1841
396.2615	0.1759
396.4678	0.1811
396.674	0.1769
396.8802	0.183
397.0863	0.1737
397.2925	0.1752
397.4987	0.1897
397.7048	0.1817
397.9109	0.1896
398.117	0.1908
398.3231	0.179
398.5292	0.178
398.7353	0.173
398.9413	0.172
399.1474	0.1661
399.3534	0.171
399.5594	0.1752
399.7654	0.1796
399.9714	0.1771
400.1774	0.1566
400.3833	0.178
400.5893	0.1763
400.7952	0.1794
401.0011	0.1699
401.207	0.1693
401.4129	0.169
401.6188	0.1637
401.8247	0.1803
402.0305	0.1655
402.2364	0.1873
402.4422	0.171
402.648	0.1507
402.8538	0.1586
403.0596	0.1606
403.2654	0.1658
403.4711	0.163
403.6768	0.162
403.8826	0.1866
404.0883	0.1674
404.294	0.1849
404.4997	0.1543
404.7054	0.1692
404.911	0.173
405.1167	0.1613
405.3223	0.172
405.5279	0.1817
405.7335	0.1852
405.9391	0.1831
406.1447	0.1678
406.3502	0.1636
406.5558	0.1802
406.7613	0.1873
406.9668	0.1708
407.1724	0.1782
407.3778	0.1894
407.5833	0.1779
407.7888	0.1652
407.9942	0.1544
408.1997	0.1702
408.4051	0.16
408.6105	0.1454
408.8159	0.1686
409.0213	0.1571
409.2267	0.1788
409.432	0.1752
409.6374	0.171
409.8427	0.1784
410.048	0.1755
410.2533	0.1578
410.4586	0.1575
410.6639	0.179
410.8691	0.1573
411.0744	0.1634
411.2796	0.1519
411.4848	0.1657
411.69	0.1541
411.8952	0.1676
412.1004	0.1584
412.3056	0.1686
412.5107	0.1475
412.7158	0.1463
412.921	0.1836
413.1261	0.1589
413.3312	0.1481
413.5362	0.1542
413.7413	0.1508
413.9464	0.166
414.1514	0.1719
414.3564	0.1704
414.5614	0.1514
414.7664	0.1721
414.9714	0.1855
415.1764	0.1616
415.3813	0.1696
415.5863	0.1649
415.7912	0.1472
415.9961	0.1803
416.201	0.16
416.4059	0.1619
416.6108	0.1535
416.8156	0.1719
417.0205	0.1392
417.2253	0.1557
417.4301	0.1659
417.6349	0.165
417.8397	0.1399
418.0445	0.142
418.2492	0.135
418.454	0.1492
418.6587	0.1634
418.8634	0.161
419.0681	0.1831
419.2728	0.1329
419.4775	0.1582
419.6822	0.1576
419.8868	0.144
420.0915	0.139
420.2961	0.1654
420.5007	0.1524
420.7053	0.1499
420.9099	0.1432
421.1144	0.1583
421.319	0.1584
421.5235	0.1752
421.728	0.1339
421.9325	0.1595
422.137	0.1521
422.3415	0.14
422.546	0.1403
422.7504	0.1426
422.9549	0.1658
423.1593	0.1323
423.3637	0.1404
423.5681	0.1299
423.7725	0.1287
423.9769	0.1474
424.1812	0.1409
424.3856	0.1234
424.5899	0.1472
424.7942	0.1359
424.9985	0.1444
425.2028	0.1068
425.4071	0.1365
425.6113	0.1244
425.8156	0.1514
426.0198	0.1406
426.224	0.1396
426.4282	0.1532
426.6324	0.1392
426.8366	0.1257
427.0407	0.1179
427.2449	0.1363
427.449	0.1293
427.6531	0.1207
427.8572	0.1243
428.0613	0.1265
428.2654	0.0991
428.4694	0.1373
428.6735	0.1235
428.8775	0.1254
429.0815	0.1227
429.2855	0.115
429.4895	0.1234
429.6935	0.1142
429.8975	0.1128
430.1014	0.1164
430.3053	0.108
430.5093	0.1202
430.7132	0.0956
430.9171	0.1086
431.1209	0.1159
431.3248	0.1054
431.5286	0.0961
431.7325	0.1143
431.9363	0.0967
432.1401	0.1115
432.3439	0.1083
432.5477	0.128
432.7514	0.0872
432.9552	0.1003
433.1589	0.0961
433.3627	0.0915
433.5664	0.0949
433.7701	0.0854
433.9737	0.0814
434.1774	0.1124
434.3811	0.0868
434.5847	0.0977
434.7883	0.095
434.9919	0.0969
435.1955	0.0825
435.3991	0.0702
435.6027	0.0897
435.8062	0.0703
436.0098	0.0878
436.2133	0.0667
436.4168	0.0809
436.6203	0.0774
436.8238	0.0611
437.0272	0.0697
437.2307	0.0705
437.4341	0.0676
437.6375	0.0846
437.841	0.059
438.0443	0.0729
438.2477	0.0742
438.4511	0.0646
438.6545	0.07
438.8578	0.0629
439.0611	0.0719
439.2644	0.0557
439.4677	0.0594
439.671	0.0581
439.8743	0.0504
440.0775	0.0779
440.2808	0.0656
440.484	0.0518
440.6872	0.0583
440.8904	0.0588
441.0936	0.0463
441.2967	0.0492
441.4999	0.0478
441.703	0.0631
441.9062	0.051
442.1093	0.0496
442.3124	0.0555
442.5155	0.0485
442.7185	0.0588
442.9216	0.0392
443.1246	0.0499
443.3276	0.048
443.5307	0.0462
443.7337	0.0416
443.9366	0.0412
444.1396	0.0408
444.3426	0.0286
444.5455	0.0473
444.7484	0.0376
444.9513	0.0294
445.1542	0.0389
445.3571	0.049
445.56	0.0413
445.7628	0.0437
445.9657	0.0327
446.1685	0.0244
446.3713	0.036
446.5741	0.0353
446.7769	0.0421
446.9797	0.0376
447.1824	0.0182
447.3852	0.0417
447.5879	0.0294
447.7906	0.03
447.9933	0.0386
448.196	0.0368
448.3986	0.0363
448.6013	0.0082
448.8039	0.027
449.0066	0.0216
449.2092	0.0084
449.4118	0.0297
449.6143	0.0264
449.8169	0.0318
450.0195	0.0172
450.222	0.008
450.4245	0.0189
450.627	0.0047
450.8295	0.0201
451.032	0.0188
451.2345	0.0134
451.4369	0.0275
451.6394	0.0307
451.8418	-0.0068
452.0442	-0.0063
452.2466	-0.003
452.449	0.0216
452.6513	0.019
452.8537	0.0247
453.056	0.0057
453.2583	0.0038
453.4607	0.0036
453.663	0.0103
453.8652	0.0129
454.0675	-0.0056
454.2697	0.0146
454.472	0.0214
454.6742	0.0083
454.8764	0.004
455.0786	-0.0032
455.2808	-0
455.4829	0.0251
455.6851	0.0143
455.8872	0.018
456.0893	0.0105
456.2915	0.0056
456.4935	0.0056
456.6956	-0.007
456.8977	0.0103
457.0997	0.0104
457.3018	0.0188
457.5038	-0
457.7058	0.0135
457.9078	-0.0109
458.1098	0.0064
458.3117	0.0207
458.5137	0.0033
458.7156	0.0089
458.9175	-0.0038
459.1194	0.0089
459.3213	0.0088
459.5232	-0.0102
459.725	-0.0125
459.9269	0.0041
460.1287	0.0092
460.3305	0.005
460.5323	0.0077
460.7341	-0.0122
460.9359	0.0027
461.1376	0.0097
461.3394	-0.0036
461.5411	-0.0067
461.7428	0.0096
461.9445	0.0068
462.1462	-0.0017
462.3479	-0.0182
462.5495	0.0045
462.7512	-0.0077
462.9528	-0.0011
463.1544	0.0039
463.356	0.0106
463.5576	-0.0012
463.7592	-0.0124
463.9607	0.0029
464.1623	-0.0115
464.3638	0.0095
464.5653	-0.0083
464.7668	-0.0019
464.9683	0.0007
465.1697	0.0087
465.3712	0.009
465.5726	0.0138
465.7741	0.0102
465.9755	-0.0158
466.1769	0.0029
466.3782	-0.0005
466.5796	-0.0034
466.7809	0.0031
466.9823	0.0001
467.1836	0.0185
467.3849	-0.0028
467.5862	-0.0072
467.7875	0.0115
467.9887	-0.0045
468.19	0.0045
468.3912	0.0144
468.5924	0.0027
468.7936	0.0056
468.9948	-0.0047
469.196	-0.0026
469.3972	-0.0007
469.5983	0.0092
469.7994	-0.0082
470.0006	-0.0146
470.2017	0.0043
470.4027	-0.0068
470.6038	0.0005
470.8049	-0.0007
471.0059	-0.0004
471.2069	-0.0074
471.408	-0.0042
471.6089	-0.0088
471.8099	0.0093
472.0109	-0.0031
472.2119	0.0171
472.4128	-0.0246
472.6137	0.011
472.8146	-0.0163
473.0155	-0.0058
473.2164	-0.0099
473.4173	0.0037
473.6181	-0.0224
473.819	0.0048
474.0198	-0.0052
474.2206	-0.0176
474.4214	-0.0042
474.6222	-0.0174
474.8229	-0.0157
475.0237	-0.0047
475.2244	-0.0086
475.4251	-0.0082
475.6258	-0.0137
475.8265	-0.0104
476.0272	-0.0003
476.2278	-0.0096
476.4285	-0.0195
476.6291	-0.0006
476.8297	0.0004
477.0303	0.0088
477.2309	-0.0083
477.4315	-0.0017
477.632	-0.0157
477.8326	0.0022
478.0331	-0.0356
478.2336	-0.0024
478.4341	-0.0003
478.6346	-0.007
478.8351	-0.005
479.0355	-0.031
479.236	-0.0073
479.4364	-0.0093
479.6368	-0.0021
479.8372	-0.0051
480.0376	-0.0148
480.2379	-0.0088
480.4383	-0.0065
480.6386	-0.0137
480.8389	-0.0049
481.0392	-0.0132
481.2395	-0.0092
481.4398	-0.0156
481.6401	-0.008
481.8403	0.0055
482.0405	-0.0143
482.2408	-0.0157
482.441	-0.0103
482.6411	-0.0178
482.8413	-0.0168
483.0415	0.0022
483.2416	-0.0118
483.4417	0.0112
483.6419	-0.014
483.8419	0.0062
484.042	0.0064
484.2421	-0.0051
484.4422	-0.0092
484.6422	-0
484.8422	-0.0026
485.0422	-0.0072
485.2422	-0.0106
485.4422	-0.0125
485.6422	-0.016
485.8421	-0.0054
486.042	0.0003
486.242	-0.0117
486.4419	-0.0171
486.6417	0.0015
486.8416	-0.0078
487.0415	-0.0053
487.2413	-0.0038
487.4411	-0.0002
487.641	-0.0107
487.8408	-0.0125
488.0405	-0.0108
488.2403	-0.0003
488.4401	-0.0052
488.6398	-0.0184
488.8395	-0.0126
489.0392	-0.0025
489.2389	-0.0199
489.4386	-0.0097
489.6383	-0.0096
489.8379	-0.0073
490.0376	-0.0053
490.2372	-0.0052
490.4368	-0.0019
490.6364	0.0084
490.836	-0.0173
491.0355	-0.01
491.2351	-0.0027
491.4346	-0.0178
491.6341	0.0017
491.8336	-0.0118
492.0331	-0.0134
492.2326	-0.011
492.432	-0.01
492.6315	-0.0067
492.8309	-0.0061
493.0303	-0.0191
493.2297	-0.0013
493.4291	-0.0078
493.6284	-0.0165
493.8278	-0.0054
494.0271	-0.0013
494.2264	-0.0113
494.4257	-0.0055
494.625	-0.0017
494.8243	-0.011
495.0236	-0.0198
495.2228	-0.0141
495.422	-0.008
495.6213	-0.0055
495.8205	-0.0107
496.0196	-0.0188
496.2188	-0.0087
496.418	-0.0013
496.6171	-0.0152
496.8162	-0.0023
497.0153	-0.0053
497.2144	-0.0136
497.4135	-0.0167
497.6126	-0.02
497.8116	-0.0062
498.0107	-0.0131
498.2097	-0.0147
498.4087	-0.0132
498.6077	-0.0154
498.8067	0.0007
499.0056	-0.0107
499.2046	0.0018
499.4035	-0.0184
499.6024	-0.0157
499.8013	-0.0087
500.0002	-0.0097
500.199	-0.0141
500.3979	-0
500.5967	-0.0152
500.7956	-0.0026
500.9944	-0.0173
501.1932	-0.0069
501.3919	-0.0085
501.5907	-0.0173
501.7895	-0.0118
501.9882	-0.0077
502.1869	-0.0135
502.3856	-0.0172
502.5843	-0.0096
502.783	-0.0005
502.9816	0.0027
503.1803	-0.0014
503.3789	-0.014
503.5775	-0.0145
503.7761	-0.0054
503.9747	-0.0129
504.1732	-0.01
504.3718	0.0002
504.5703	-0.0017
504.7689	-0.0032
504.9674	-0.0066
505.1658	-0.0037
505.3643	-0.0081
505.5628	-0.0018
505.7612	-0.0114
505.9597	-0.0005
506.1581	-0.0005
506.3565	-0.0062
506.5549	-0.0012
506.7532	-0.0073
506.9516	-0.0105
507.1499	-0.0088
507.3482	-0.0056
507.5465	0.0044
507.7448	-0.0006
507.9431	-0.0049
508.1414	-0.0135
508.3396	-0.0138
508.5379	-0.0065
508.7361	-0.0039
508.9343	-0.0095
509.1325	0.0057
509.3306	-0.0183
509.5288	-0.0114
509.7269	0.0033
509.9251	-0.0016
510.1232	-0.0111
510.3213	0.0027
510.5193	-0.0126
510.7174	-0.0179
510.9154	-0.0087
511.1135	-0.0158
511.3115	-0.007
511.5095	0.0027
511.7075	-0.0042
511.9055	-0.0128
512.1034	-0.004
512.3014	-0.0073
512.4993	0.001
512.6972	-0.0055
512.8951	-0.0029
513.093	-0.0084
513.2908	-0.0106
513.4887	-0.0069
513.6865	-0.002
513.8844	-0.0048
514.0822	-0.0006
514.2799	-0.0169
514.4777	-0.0034
514.6755	0.0076
514.8732	-0.0059
515.0709	0.0011
515.2687	-0.0009
515.4664	0.0012
515.664	-0.0112
515.8617	-0.0029
516.0594	-0.0042
516.257	-0.0007
516.4546	-0.0219
516.6522	-0.0057
516.8498	-0.0163
517.0474	-0.0048
517.2449	-0.0152
517.4425	-0.0043
517.64	-0.0204
517.8375	-0.0074
518.035	-0.0066
518.2325	-0.0084
518.43	-0.0017
518.6274	0.0002
518.8249	0.0006
519.0223	0.0043
519.2197	0.0002
519.4171	-0.0031
519.6145	0.0012
519.8118	-0.0183
520.0092	0.0027
520.2065	-0.0156
520.4038	-0.0064
520.6011	0.0015
520.7984	0.0028
520.9956	0.0056
521.1929	-0.0065
521.3901	-0.0041
521.5874	0.0003
521.7846	-0.0016
521.9818	-0.0021
522.1789	0.0001
522.3761	0.0058
522.5732	-0.0097
522.7704	-0.0038
522.9675	-0.0057
523.1646	0.0013
523.3617	-0.0133
523.5587	0.006
523.7558	-0.0095
523.9528	0.0009
524.1498	-0.009
524.3468	-0.0077
524.5438	0.0066
524.7408	-0.017
524.9378	-0.0006
525.1347	0.0007
525.3316	0.006
525.5285	-0.0053
525.7254	0.0028
525.9223	-0
526.1192	-0.0051
526.316	-0.0017
526.5129	-0.0049
526.7097	0.002
526.9065	0.0084
527.1033	0.0048
527.3	-0.0107
527.4968	-0.0143
527.6935	0.0071
527.8903	-0.0038
528.087	0.0052
528.2837	0.0024
528.4804	0.0082
528.677	-0.001
528.8737	-0.0034
529.0703	0.0062
529.2669	-0
529.4635	-0.0011
529.6601	0.0015
529.8567	0.0142
530.0532	0.0029
530.2498	-0.0084
530.4463	-0.0104
530.6428	-0.0084
530.8393	0.0016
531.0358	-0.0114
531.2322	0.0126
531.4287	0.0009
531.6251	0.0051
531.8215	-0.0069
532.0179	-0.0138
532.2143	-0.0032
532.4107	-0.0062
532.607	0.001
532.8034	-0.0096
532.9997	-0.0007
533.196	-0.0014
533.3923	-0.0002
533.5886	-0.0026
533.7848	0.0009
533.9811	0.0007
534.1773	-0.0089
534.3735	-0.0089
534.5697	-0.0023
534.7659	-0.0058
534.9621	-0.0021
535.1582	0.001
535.3544	-0.0063
535.5505	-0.0017
535.7466	-0.0045
535.9427	0.0001
536.1387	-0.0057
536.3348	-0.0101
536.5308	-0.0137
536.7269	0.0001
536.9229	-0.0038
537.1189	-0.0022
537.3148	-0.0132
537.5108	0.0043
537.7068	-0.0013
537.9027	-0.0095
538.0986	0.0082
538.2945	-0.0024
538.4904	0.0042
538.6863	0.0015
538.8821	-0.0037
539.078	-0.0007
539.2738	0.0086
539.4696	-0.0072
539.6654	0.0023
539.8611	0.0065
540.0569	-0.0064
540.2526	-0.0043
540.4484	0.0044
540.6441	0.0019
540.8398	-0.0096
541.0355	-0.004
541.2311	-0.0128
541.4268	-0.0025
541.6224	-0.0013
541.818	0.0025
542.0136	-0.0073
542.2092	-0.002
542.4048	0.002
542.6003	0.0038
542.7959	-0.0023
542.9914	0.004
543.1869	-0.0015
543.3824	0.0003
543.5779	0.0055
543.7734	0.0055
543.9688	0.0041
544.1642	-0.005
544.3596	-0.0072
544.555	0.0017
544.7504	0.0085
544.9458	0.001
545.1411	0.0028
545.3365	0.0051
545.5318	0.003
545.7271	-0.0073
545.9224	-0.0019
546.1177	0.0009
546.3129	-0.0145
546.5081	-0.0067
546.7034	-0.0075
546.8986	0.0015
547.0938	-0.0028
547.289	-0.005
547.4841	0.0008
547.6793	-0.0056
547.8744	0.0057
548.0695	0.005
548.2646	-0.009
548.4597	-0.0004
548.6548	0.0007
548.8498	0.003
549.0448	0.0027
549.2399	-0
549.4349	0.0031
549.6298	-0.004
549.8248	0.001
550.0198	-0.003
550.2147	-0.0037
550.4096	-0.007
550.6045	-0.0041
550.7994	-0.0038
550.9943	0.0072
551.1892	-0.0108
551.384	-0.0026
551.5788	-0.0034
551.7737	-0.0032
551.9685	-0.0012
552.1632	-0.0017
552.358	0.0013
552.5528	-0.0066
552.7475	-0.0054
552.9422	-0.0035
553.1369	0.0026
553.3316	-0.012
553.5263	0.0062
553.7209	-0.0113
553.9156	0.003
554.1102	-0.0117
554.3048	-0.0069
554.4994	0.0101
554.694	0.0067
554.8885	-0.0013
555.0831	-0.0021
555.2776	0.0078
555.4721	0.0071
555.6666	0.0001
555.8611	-0.0059
556.0555	0.0001
556.25	0.0053
556.4444	0.0114
556.6388	0.0114
556.8332	0.0075
557.0276	0.0058
557.222	0.0001
557.4163	0.0057
557.6107	0.0142
557.805	0.002
557.9993	-0.0071
558.1936	0.0064
558.3879	0.009
558.5821	0.0013
558.7764	0.0064
558.9706	-0.0023
559.1648	0.0035
559.359	0.0071
559.5532	-0.0014
559.7473	0.0104
559.9415	0.0011
560.1356	0.0065
560.3297	-0.0021
560.5238	-0.0006
560.7179	0.0082
560.9119	0.0001
561.106	-0.0017
561.3	0.0001
561.494	0.0052
561.688	0.0004
561.882	0.0069
562.076	0.003
562.2699	0.0067
562.4639	0.0054
562.6578	-0.0071
562.8517	0.0027
563.0456	0.0008
563.2395	0.0081
563.4333	-0.0059
563.6272	-0.0008
563.821	-0.0057
564.0148	0.0118
564.2086	-0.0112
564.4024	-0.0073
564.5961	-0.0044
564.7899	0.0032
564.9836	0.0052
565.1773	0.0056
565.371	0.0045
565.5647	-0.0119
565.7584	0.0027
565.952	0.0077
566.1456	0.0061
566.3393	-0.0019
566.5329	0.0016
566.7264	0.0043
566.92	-0.0073
567.1136	0.0072
567.3071	0.005
567.5006	-0.001
567.6941	-0.001
567.8876	0.0074
568.0811	0.0046
568.2745	0.0048
568.468	0.0078
568.6614	0.001
568.8548	0.0052
569.0482	0.0023
569.2416	0.0044
569.4349	-0.005
569.6283	0.0007
569.8216	-0.0019
570.0149	0.0035
570.2082	0.0108
570.4015	-0.0033
570.5947	0.0085
570.788	0.0047
570.9812	0.0032
571.1744	-0.0059
571.3676	-0.0003
571.5608	-0.0015
571.754	-0.0072
571.9471	-0.0036
572.1402	0.0026
572.3333	0.0037
572.5264	0.0053
572.7195	-0.0016
572.9126	0.0034
573.1057	0.0076
573.2987	0.0051
573.4917	-0.0093
573.6847	0.0016
573.8777	-0.005
574.0707	0.0031
574.2636	0.0071
574.4566	0.0072
574.6495	0.0001
574.8424	-0.0016
575.0353	-0.0013
575.2281	0.0038
575.421	0.0034
575.6138	0.0002
575.8067	-0.0003
575.9995	-0.0009
576.1923	0.0022
576.385	0.0027
576.5778	-0.0092
576.7706	0.0117
576.9633	-0.0002
577.156	0.0058
577.3487	-0.0031
577.5414	0.0046
577.734	-0.01
577.9267	-0.0011
578.1193	0.0004
578.3119	0.0068
578.5045	0.008
578.6971	0.0005
578.8897	0.0018
579.0822	0.0012
579.2747	-0.001
579.4673	0.006
579.6598	0.0058
579.8522	0.0019
580.0447	-0.0017
580.2372	0.0015
580.4296	0.0121
580.622	0.0018
580.8144	0.0072
581.0068	0.0014
581.1992	0.0067
581.3915	0.0007
581.5839	0.0023
581.7762	0.0002
581.9685	0.0005
582.1608	0.0002
582.353	-0.0063
582.5453	-0.0036
582.7375	-0.0076
582.9298	-0.0065
583.122	-0.0024
583.3142	-0.0016
583.5063	-0.0022
583.6985	-0.0034
583.8906	0.0026
584.0827	-0.0001
584.2749	-0.004
584.4669	-0.0034
584.659	-0.0037
584.8511	-0.0001
585.0431	-0.0023
585.2352	-0.0037
585.4272	0.0009
585.6192	0.002
585.8111	-0.0062
586.0031	-0.0078
586.195	0.0013
586.387	0.0026
586.5789	0.0028
586.7708	0.0029
586.9627	-0.0068
587.1545	0.0075
587.3464	0.0078
587.5382	-0.0059
587.73	0.0068
587.9218	0.0031
588.1136	-0.0006
588.3053	-0.0084
588.4971	0.0034
588.6888	0.0009
588.8805	-0.0031
589.0722	0.0074
589.2639	0.0033
589.4556	-0.0074
589.6472	-0.0015
589.8389	-0.0002
590.0305	0.0011
590.2221	0.009
590.4137	-0.0053
590.6052	0.0008
590.7968	-0.0007
590.9883	-0.0011
591.1798	-0.0054
591.3713	0.0059
591.5628	-0.0042
591.7543	0.0028
591.9458	0.005
592.1372	0.0047
592.3286	0.0032
592.52	0.0008
592.7114	0.0079
592.9028	-0.0027
593.0941	-0.0027
593.2855	0.0027
593.4768	-0.0081
593.6681	-0.0058
593.8594	0.0022
594.0506	-0.0036
594.2419	0.0047
594.4331	-0.0036
594.6244	-0.0033
594.8156	0.0039
595.0067	-0.0023
595.1979	-0.0076
595.3891	0.0042
595.5802	-0.0033
595.7713	-0.0105
595.9624	0.0023
596.1535	-0.0004
596.3446	0.0025
596.5357	-0.0008
596.7267	0.0006
596.9177	0.0056
597.1087	0.0093
597.2997	0.0036
597.4907	0.0004
597.6817	-0.0016
597.8726	0.0087
598.0635	0.0016
598.2544	-0.0036
598.4453	0.0063
598.6362	0.0036
598.827	-0.004
599.0179	-0.0007
599.2087	0.0021
599.3995	0.0101
599.5903	0.0032
599.7811	0.0092
599.9718	-0.0021
600.1626	0.0017
600.3533	-0.001
600.544	0.0062
600.7347	0.0014
600.9254	-0.0044
601.116	-0.0063
601.3067	-0.006
601.4973	0.0008
601.6879	-0.0004
601.8785	-0.0044
602.0691	-0.0013
602.2596	0.0042
602.4502	0.0033
602.6407	-0.0001
602.8312	-0.0013
603.0217	0.0007
603.2122	-0.0001
603.4027	0.0015
603.5931	0.0027
603.7835	0.0064
603.9739	0.0029
604.1643	0.0035
604.3547	-0
604.5451	0.0042
604.7354	-0.0036
604.9257	0.001
605.116	-0.0003
605.3063	0.0056
605.4966	-0.0013
605.6869	0.0106
605.8771	0.0003
606.0673	-0.0007
606.2575	-0.0034
606.4477	-0.0031
606.6379	0.0112
606.8281	-0.0008
607.0182	-0.0007
607.2083	0.0006
607.3985	0.003
607.5885	-0.0063
607.7786	0.0009
607.9687	0.006
608.1587	-0.0017
608.3488	0.0061
608.5388	0.0024
608.7288	0.0009
608.9187	-0.0003
609.1087	-0.0019
609.2986	-0.001
609.4886	0.0011
609.6785	0.004
609.8684	0.0068
610.0582	0.0073
610.2481	0
610.4379	-0.0034
610.6278	-0.0031
610.8176	0.0043
611.0074	-0.0007
611.1971	0.004
611.3869	-0.0025
611.5766	-0.0013
611.7664	0.0051
611.9561	0.0053
612.1458	0.0046
612.3354	0.0084
612.5251	0.0019
612.7147	-0.0069
612.9044	0.0034
613.094	0.0058
613.2836	0.0079
613.4731	0.0058
613.6627	0.0015
613.8522	0.0076
614.0417	0.0084
614.2313	0.0057
614.4207	0.0023
614.6102	-0.005
614.7997	-0.0031
614.9891	0.0043
615.1785	0.0023
615.3679	0.0078
615.5573	0.0051
615.7467	-0.0082
615.9361	0.0038
616.1254	0.0107
616.3147	0.0033
616.504	-0.0006
616.6933	0.0014
616.8826	0.0017
617.0718	0.006
617.2611	0.0017
617.4503	0.0094
617.6395	0.0054
617.8287	0.0127
618.0179	0.0005
618.207	0.0023
618.3961	0.0066
618.5853	0.0048
618.7744	0.0073
618.9634	0.0041
619.1525	0.0055
619.3416	-0.0007
619.5306	0.0064
619.7196	-0.0072
619.9086	0.0037
620.0976	0.0018
620.2866	0.0086
620.4755	0.009
620.6645	0.0016
620.8534	0.0006
621.0423	0.0063
621.2312	0.0053
621.42	0.0037
621.6089	0.0106
621.7977	0.0115
621.9865	0.0141
622.1753	0.0144
622.3641	0.0172
622.5529	0.0059
622.7416	0.0023
622.9303	0.0082
623.1191	0.0052
623.3078	0.0045
623.4964	0.0058
623.6851	0.0141
623.8737	0.0154
624.0624	0.0008
624.251	0.0052
624.4396	0.0042
624.6282	0.0097
624.8167	0.0107
625.0053	0.0013
625.1938	0.0084
625.3823	0.0045
625.5708	0.007
625.7593	0.0006
625.9477	0.0112
626.1362	0.0055
626.3246	0.0166
626.513	0.0046
626.7014	0.0055
626.8898	0.0067
627.0781	-0.0029
627.2665	0.0047
627.4548	0.0057
627.6431	0.0105
627.8314	0.0047
628.0197	-0.0015
628.2079	0.0071
628.3962	0.0017
628.5844	0.0103
628.7726	0.0081
628.9608	0.0084
629.1489	0.0096
629.3371	0.003
629.5252	0.0056
629.7134	0.0037
629.9015	-0.001
630.0895	0.0109
630.2776	0.0011
630.4657	0.0122
630.6537	0.0007
630.8417	0.0083
631.0297	0.0193
631.2177	0.0129
631.4057	0.0033
631.5936	0.0125
631.7815	0.0074
631.9695	0.0096
632.1574	0.0116
632.3452	0.0093
632.5331	0.0055
632.7209	0.0006
632.9088	0.0026
633.0966	-0.0051
633.2844	0.0019
633.4722	0.0019
633.6599	0.0077
633.8477	0.0106
634.0354	0.0052
634.2231	0.0045
634.4108	0.0031
634.5985	0.007
634.7861	0.0098
634.9738	0.0118
635.1614	0.0061
635.349	0.003
635.5366	0.0043
635.7242	0.0038
635.9117	0.0045
636.0993	0.0079
636.2868	0.0004
636.4743	0.0013
636.6618	0.0068
636.8492	0.0151
637.0367	0.0069
637.2241	0.0134
637.4115	0.0091
637.5989	0.0169
637.7863	0.0096
637.9737	0.0022
638.161	0.0073
638.3484	0.0067
638.5357	0.0039
638.723	0.0017
638.9103	0.0058
639.0975	0.005
639.2848	0.0031
639.472	0.0031
639.6592	0.0075
639.8464	0.0101
640.0336	0.0001
640.2208	0.0022
640.4079	0.0022
640.595	0.0059
640.7821	0.0049
640.9692	0.0036
641.1563	-0.0002
641.3434	0.0079
641.5304	0.0093
641.7174	0.0134
641.9044	0.0024
642.0914	-0.0025
642.2784	-0.0097
642.4653	0.0009
642.6523	-0.0007
642.8392	0.0032
643.0261	0.0022
643.213	-0.0042
643.3999	0.0051
643.5867	0.0063
643.7735	0.0023
643.9604	0.0035
644.1472	0.0023
644.3339	0.0006
644.5207	0.0051
644.7075	-0.0067
644.8942	0.0034
645.0809	0.0001
645.2676	0.0055
645.4543	0.0087
645.6409	0.0104
645.8276	0.0089
646.0142	0.0058
646.2008	0.0165
646.3874	0.0073
646.574	0.001
646.7605	0.0039
646.9471	0.0084
647.1336	0.0112
647.3201	0.0134
647.5066	0.0015
647.6931	-0.0003
647.8795	-0.0027
648.0659	0.0071
648.2524	0.0029
648.4388	0.0055
648.6252	-0.0032
648.8115	-0.0001
648.9979	0.0035
649.1842	0.0012
649.3705	-0.0035
649.5568	0.0069
649.7431	0.0061
649.9294	0.004
650.1156	0.0045
650.3018	0.0037
650.488	0.0019
650.6742	0.0082
650.8604	0.0115
651.0466	-0.002
651.2327	0.0052
651.4188	0.0054
651.6049	0.013
651.791	0.0085
651.9771	0.0027
652.1632	0.0086
652.3492	0.006
652.5352	0.0029
652.7212	0.0031
652.9072	-0.0029
653.0932	0.0024
653.2791	0.0037
653.465	0.0001
653.651	0.0027
653.8369	0.0005
654.0227	0.01
654.2086	0.0037
654.3944	0.0029
654.5803	-0.0022
654.7661	0.0056
654.9519	-0.0033
655.1377	-0.0023
655.3234	-0.0075
655.5092	-0.0012
655.6949	-0.0107
655.8806	-0.0081
656.0663	-0.0043
656.2519	-0.0019
656.4376	-0.0048
656.6232	-0.0044
656.8088	0.01
656.9945	-0.0031
657.18	-0.0011
657.3656	0.0034
657.5511	-0.0077
657.7367	0.0046
657.9222	0.0087
658.1077	0.0127
658.2932	0.0004
658.4786	0.0012
658.6641	0.0015
658.8495	0.0063
659.0349	0.0026
659.2203	-0.0049
659.4057	-0.0051
659.591	0.0054
659.7764	-0.0019
659.9617	-0.0019
660.147	0.0028
660.3323	0.0031
660.5176	-0.0014
660.7028	0.0007
660.888	0.0065
661.0733	0.0088
661.2585	0.0132
661.4436	0.0114
661.6288	0.0142
661.8139	0.0024
661.9991	-0.0088
662.1842	0.0017
662.3693	0.0042
662.5544	0.0054
662.7394	0.0087
662.9245	-0.0022
663.1095	0.0087
663.2945	0.0113
663.4795	0.0087
663.6644	0.0045
663.8494	0.003
664.0343	0.0058
664.2193	0.0143
664.4042	0.0117
664.589	0.0058
664.7739	-0.0003
664.9587	0.0027
665.1436	-0.0027
665.3284	0.003
665.5132	-0.0051
665.698	0.0069
665.8827	0.0074
666.0675	0.0061
666.2522	0.0086
666.4369	0.0023
666.6216	0.0052
666.8063	0.0058
666.9909	0.0052
667.1756	0.0065
667.3602	0.0057
667.5448	0.008
667.7294	0.0122
667.9139	0.0063
668.0985	0.0076
668.283	-0.0014
668.4675	0
668.652	0.0098
668.8365	-0.0011
669.0209	0.0037
669.2054	-0.0019
669.3898	0.0033
669.5742	0.0002
669.7586	0.009
669.943	0.0072
670.1273	0.0056
670.3117	-0.002
670.496	0.0002
670.6803	0.0092
670.8646	0.009
671.0488	0.0092
671.2331	0.0101
671.4173	0.0133
671.6015	-0.0041
671.7857	0.0028
671.9699	0.0112
672.1541	0.0046
672.3382	0.0131
672.5223	0.0114
672.7064	0.0131
672.8905	0.0078
673.0746	0.0152
673.2587	0.0075
673.4427	-0.0009
673.6267	0.0022
673.8107	0.0131
673.9947	-0.0008
674.1787	0.0041
674.3626	0.0055
674.5465	0.0163
674.7304	0.0055
674.9143	0.0064
675.0982	0.008
675.2821	0.0035
675.4659	0.0185
675.6497	-0.0073
675.8335	0.0072
676.0173	0.0084
676.2011	0.0057
676.3849	0.005
676.5686	0.0168
676.7523	0.0103
676.936	-0.0039
677.1197	0.0024
677.3034	0.0079
677.487	0.005
677.6706	0.0128
677.8542	0.0008
678.0378	0.0099
678.2214	0.0047
678.405	0.0175
678.5885	0.0073
678.772	0.0085
678.9555	0.0072
679.139	0.0153
679.3225	0.0078
679.5059	0.0115
679.6894	0.0049
679.8728	0.0052
680.0562	0.0008
680.2395	0.0091
680.4229	0.0018
680.6062	-0.0015
680.7896	0.0035
680.9729	0.0017
681.1562	0.0129
681.3394	0.0012
681.5227	0.0107
681.7059	0.0025
681.8891	0.0026
682.0723	0.0025
682.2555	0.0054
682.4387	-0.004
682.6218	0.009
682.805	0.0054
682.9881	0.0107
683.1712	0.0162
683.3542	0.0044
683.5373	0.0068
683.7203	0.0074
683.9034	0.0096
684.0864	0.0009
684.2694	0.0078
684.4523	0.0048
684.6353	-0.0035
684.8182	0.003
685.0011	0.008
685.184	0.0027
685.3669	-0.0014
685.5498	0.0018
685.7326	-0.0007
685.9154	0.0059
686.0982	0.0127
686.281	0.0016
686.4638	-0.0061
686.6465	0.0114
686.8293	0.0025
687.012	0.012
687.1947	0.0088
687.3774	0.0051
687.56	0.0105
687.7427	0.0189
687.9253	-0
688.1079	0.0073
688.2905	0.0004
688.4731	0.0063
688.6556	0.0036
688.8382	0.0101
689.0207	0.0002
689.2032	0.0106
689.3857	0.0088
689.5681	0.0051
689.7506	-0.0013
689.933	0.0047
690.1154	0.0084
690.2978	0.003
690.4802	-0.0009
690.6626	0.0084
690.8449	0.0088
691.0272	0.0063
691.2095	0.01
691.3918	0.0021
691.5741	0.0107
691.7563	0.0087
691.9386	0.0084
692.1208	-0.0034
692.303	0.0009
692.4852	0.0086
692.6673	0.0057
692.8495	0.0128
693.0316	0.0108
693.2137	0.0113
693.3958	0.0083
693.5778	0.0097
693.7599	0.0134
693.9419	0.005
694.1239	0.0099
694.3059	0.0125
694.4879	0.0128
694.6699	0.0036
694.8518	0
695.0337	0.0062
695.2157	0.0149
695.3975	0.0036
695.5794	0.0124
695.7613	0.0061
695.9431	0.0104
696.1249	0.011
696.3067	-0.0035
696.4885	0.0106
696.6703	0.0067
696.852	0.0063
697.0337	0.0091
697.2154	0.0121
697.3971	0.0095
697.5788	0.0076
697.7605	0.0018
697.9421	0.0053
698.1237	0.0166
698.3053	0.0117
698.4869	0.0051
698.6685	0.0043
698.85	0.011
699.0315	0.0029
699.213	0.01
699.3945	0.0035
699.576	0.0117
699.7575	0.0084
699.9389	0.0133
700.1203	0.0186
700.3017	0.0142
700.4831	0.0022
700.6645	0.0044
700.8458	0.0126
701.0271	0.0038
701.2084	0.0062
701.3897	-0.0042
701.571	0.0093
701.7523	-0.011
701.9335	-0.0002
702.1147	-0.0023
702.2959	-0.0025
702.4771	-0.0001
702.6583	0.0042
702.8394	0.0026
703.0205	0.0016
703.2016	0.0029
703.3827	0.0026
703.5638	0.0104
703.7449	0.0051
703.9259	-0.0013
704.1069	0.0039
704.2879	0.0003
704.4689	0.0056
704.6499	-0.0016
704.8308	0.0017
705.0117	0.0123
705.1927	0.0038
705.3735	-0.0028
705.5544	-0.0043
705.7353	0.0055
705.9161	0.0008
706.0969	0.012
706.2777	0.0089
706.4585	0.0087
706.6393	0.0041
706.82	-0.0026
707.0007	-0.0046
707.1815	0.0048
707.3621	0.0043
707.5428	0.0111
707.7235	0.0038
707.9041	0.0016
708.0847	0.0129
708.2653	0.0173
708.4459	0.0063
708.6265	0.0118
708.807	0.0059
708.9875	0.0198
709.168	0.0108
709.3485	0.0087
709.529	0.0054
709.7095	0.0098
709.8899	0.0094
710.0703	0.0024
710.2507	-0.0016
710.4311	-0.001
710.6115	0.0046
710.7918	0.0072
710.9721	0.0092
711.1524	0.0044
711.3327	0.0005
711.513	-0.0048
711.6932	0.0058
711.8735	0.0047
712.0537	-0.0081
712.2339	-0.0055
712.4141	-0.0008
712.5942	-0.0044
712.7744	-0.0009
712.9545	0.0068
713.1346	0.003
713.3147	-0.0043
713.4947	-0.0018
713.6748	-0.005
713.8548	0.0079
714.0348	0.0075
714.2148	-0.0095
714.3948	0
714.5748	0.0017
714.7547	0.0059
714.9346	-0.0046
715.1145	0.0046
715.2944	-0.0003
715.4743	0.0062
715.6541	0.0168
715.834	-0.0003
716.0138	0.012
716.1936	0.0074
716.3733	0.0062
716.5531	0.0139
716.7328	0.0054
716.9126	0.009
717.0923	0.0069
717.2719	0.0112
717.4516	0.005
717.6312	0.0055
717.8109	0.0066
717.9905	0.0054
718.1701	-0.0032
718.3496	0.0009
718.5292	-0.0003
718.7087	-0.0055
718.8882	-0.0024
719.0677	0.0052
719.2472	-0.0006
719.4267	0.0044
719.6061	0.0019
719.7856	0.0036
719.965	0.0057
720.1443	0.0073
720.3237	0.0038
720.5031	0.0067
720.6824	0.0034
720.8617	0.007
721.041	0
721.2203	0.0131
721.3995	0.0038
721.5788	0.0114
721.758	-0.0003
721.9372	0.0081
722.1164	0.0087
722.2956	0.0114
722.4747	0.0078
722.6538	0.0051
722.8329	0.0069
723.012	-0.0043
723.1911	-0.0026
723.3702	0.0071
723.5492	0.0012
723.7282	0.0059
723.9072	0.0017
724.0862	0.012
724.2652	0.0062
724.4441	-0.0021
724.623	0.0055
724.8019	-0.0021
724.9808	-0.0007
725.1597	0.0112
725.3385	0.0118
725.5174	0.0053
725.6962	-0.004
725.875	-0.0021
726.0538	0.0038
726.2325	-0.0021
726.4112	-0.004
726.59	0.0059
726.7687	0.0118
726.9474	-0.0106
727.126	-0.0044
727.3047	-0.0087
727.4833	-0.0003
727.6619	-0.0045
727.8405	-0.0025
728.0191	-0.003
728.1976	0.0051
728.3762	0.0007
728.5547	0.0031
728.7332	-0.0014
728.9116	-0.0084
729.0901	-0.0021
729.2686	-0.0022
729.447	-0.0057
729.6254	0.003
729.8038	0.0091
729.9821	0.0107
730.1605	0.0117
730.3388	-0.001
730.5171	0.0004
730.6954	0.0026
730.8737	0.0004
731.0519	-0.0025
731.2302	-0.0039
731.4084	0.0065
731.5866	-0.0057
731.7648	0.0044
731.9429	0.0011
732.1211	-0.0047
732.2992	0.0067
732.4773	-0.0019
732.6554	-0.0058
732.8335	0.0028
733.0115	-0.0096
733.1896	0.0013
733.3676	0.0038
733.5456	-0.0086
733.7235	0.0026
733.9015	0.0009
734.0794	-0.002
734.2574	0.0006
734.4353	-0.0006
734.6131	-0.0001
734.791	0.0034
734.9689	0.0182
735.1467	-0.0034
735.3245	-0.0079
735.5023	0.0133
735.68	0.0189
735.8578	0.0177
736.0355	0.0026
736.2132	0.0067
736.3909	0.0008
736.5686	0.0181
736.7463	0.0118
736.9239	0.01
737.1015	0.0056
737.2791	0.01
737.4567	0.0077
737.6343	0.0036
737.8118	0.0025
737.9894	0.006
738.1669	0.0053
738.3444	0.0018
738.5218	0.0045
738.6993	0.0059
738.8767	-0.0032
739.0541	-0.0027
739.2315	-0.0026
739.4089	0.0077
739.5863	0.0049
739.7636	0.0001
739.9409	-0.0023
740.1182	0.0078
740.2955	0.0117
740.4728	0.0075
740.65	-0.004
740.8272	-0.0059
741.0044	-0.0053
741.1816	0.0053
741.3588	0.0067
741.5359	0.0014
741.7131	-0.0035
741.8902	0.0082
742.0673	0.0123
742.2444	0.0031
742.4214	0.0056
742.5985	0.0129
742.7755	-0.003
742.9525	0.0024
743.1295	0.0136
743.3064	0.0035
743.4834	0.0088
743.6603	-0.002
743.8372	-0.0065
744.0141	0.0009
744.191	0.0043
744.3678	-0.0066
744.5446	-0.0068
744.7215	0.0126
744.8982	0.0095
745.075	-0.0037
745.2518	-0.0087
745.4285	-0.0081
745.6052	0.0035
745.7819	-0.0025
745.9586	-0
746.1353	0.0008
746.3119	0.0084
746.4885	0.0001
746.6651	-0.0058
746.8417	0.0058
747.0183	0.0046
747.1948	0.0077
747.3714	0.0048
747.5479	0.0053
747.7244	-0.0011
747.9008	0.0038
748.0773	0.0069
748.2537	0.0065
748.4301	-0.0113
748.6065	0.0096
748.7829	-0.0063
748.9593	0.0101
749.1356	-0.0006
749.3119	0.0099
749.4882	0.0008
749.6645	0.0006
749.8408	0.0008
750.017	0.0066
750.1933	0.0106
750.3695	0.0165
750.5457	0.0096
750.7218	0.0056
750.898	0.0145
751.0741	0.0129
751.2502	0.0181
751.4263	0.0134
751.6024	0.002
751.7784	0.0119
751.9545	0.0059
752.1305	0.0005
752.3065	0.0063
752.4825	0.0105
752.6584	0.0067
752.8344	-0.0026
753.0103	0.0011
753.1862	0.0041
753.3621	-0.0033
753.5379	-0.007
753.7138	0.004
753.8896	-0.0001
754.0654	-0.0013
754.2412	0.0037
754.417	-0.0062
754.5927	0.0014
754.7685	0.0056
754.9442	0.0064
755.1199	0.0068
755.2956	0.0012
755.4712	-0.002
755.6469	0.0142
755.8225	0.0047
755.9981	0.0042
756.1736	-0.008
756.3492	0.0087
756.5248	0.0103
756.7003	0.0039
756.8758	0.0144
757.0513	0.003
757.2267	0.0084
757.4022	0.0056
757.5776	-0.0014
757.753	0.0046
757.9284	-0.0016
758.1038	-0.0029
758.2791	0.004
758.4545	0.0094
758.6298	0.0081
758.8051	0.0047
758.9803	0.0063
759.1556	-0.0034
759.3308	0.0114
759.506	0.0089
759.6812	0.0012
759.8564	0.004
760.0316	0.0106
760.2067	-0.004
760.3819	0.0035
760.557	-0.0037
760.732	0.0134
760.9071	0.0044
761.0821	0.0162
761.2572	0.0122
761.4322	0.0064
761.6072	-0.0004
761.7821	0.0026
761.9571	0.0005
762.132	0.0023
762.3069	0.0082
762.4818	0.0144
762.6567	0.0006
762.8316	-0.0039
763.0064	-0.0105
763.1812	0.0128
763.356	0.0044
763.5308	-0.0013
763.7055	-0.0012
763.8803	0.0037
764.055	0.0004
764.2297	0.0066
764.4044	0.0019
764.579	0.0095
764.7537	-0.0037
764.9283	0.0152
765.1029	-0.0068
765.2775	-0
765.4521	-0.0059
765.6266	0.0026
765.8011	0.0038
765.9756	-0.0005
766.1501	0.0038
766.3246	-0.009
766.4991	-0.0026
766.6735	-0.0007
766.8479	0.0042
767.0223	-0.0046
767.1967	0.0121
767.371	0.0046
767.5454	0.0002
767.7197	-0.002
767.894	0.0098
768.0683	0.007
768.2425	0.0015
768.4168	0.0026
768.591	0.0078
768.7652	0.0075
768.9394	-0.0053
769.1135	0.0191
769.2877	0.0028
769.4618	0.0103
769.6359	0.0141
769.81	0.0112
769.984	0.005
770.1581	-0.0067
770.3321	0.0145
770.5061	-0.0019
770.6801	-0.0031
770.8541	0.0113
771.028	0.0123
771.202	0.0013
771.3759	-0.0074
771.5498	0.0154
771.7236	-0.0108
771.8975	0.0034
772.0713	0.0077
772.2451	0.0089
772.4189	0.0092
772.5927	0.0023
772.7665	0.0067
772.9402	0.0032
773.1139	0.0106
773.2876	-0.0195
773.4613	0.0053
773.635	0.0058
773.8086	-0.0111
773.9822	0.0052
774.1558	0.0006
774.3294	0.0094
774.503	-0.007
774.6765	0.0124
774.8501	0.0125
775.0236	0.0086
775.1971	0.0155
775.3705	0.0236
775.544	0.0191
775.7174	0.0142
775.8908	0.0105
776.0642	-0.0039
776.2376	0.0026
776.4109	-0.0047
776.5843	0.0071
776.7576	0.0018
776.9309	0.0009
777.1041	0.0157
777.2774	0.0091
777.4506	0.0045
777.6238	-0.0027
777.797	0.0108
777.9702	0.0074
778.1434	0.0057
778.3165	0.0103
778.4896	-0.0007
778.6627	0.009
778.8358	0.0186
779.0089	0.0045
779.1819	-0.015
779.3549	0.0077
779.5279	0.0036
779.7009	0.0063
779.8739	-0.0045
780.0468	0.0079
780.2197	0.0097
780.3926	0.0054
780.5655	0.0076
780.7384	-0.0053
780.9112	0.013
781.0841	-0.0032
781.2569	-0.004
781.4297	-0.0132
781.6024	-0.0009
781.7752	-0.012
781.9479	0.003
782.1206	0.0058
782.2933	0.0029
782.466	0.0005
782.6386	0.0117
782.8113	-0.0142
782.9839	0.001
783.1565	0.0059
783.329	0.0029
783.5016	-0.0009
783.6741	0.0073
783.8466	0.0035
784.0191	-0.0017
784.1916	0.0155
784.3641	0.0015
784.5365	0.0091
784.7089	-0.0015
784.8813	-0.0012
785.0537	-0.0097
785.2261	-0.001
785.3984	0.0023
785.5707	0.0002
785.743	-0.0017
785.9153	-0.0007
786.0876	0.0042
786.2598	-0.0036
786.432	0.0123
786.6042	0.0067
786.7764	0.0053
786.9486	-0.0036
787.1207	0.0038
787.2928	0.0041
787.4649	-0.0036
787.637	-0.0062
787.8091	0.0132
787.9811	-0.0087
788.1532	0.0002
788.3252	-0.0109
788.4972	0.0015
788.6691	-0.0063
788.8411	-0.0204
789.013	0.0015
789.1849	0.0113
789.3568	0.0159
789.5287	0.003
789.7005	0.0063
789.8723	0.0087
790.0442	0.0126
790.2159	-0.0098
790.3877	0.0101
790.5595	0.008
790.7312	-0.0017
790.9029	0.011
791.0746	-0.0063
791.2463	0.0225
791.4179	0.0039
791.5896	0.0143
791.7612	0.0146
791.9328	-0.0073
792.1044	0.0035
792.2759	0.0056
792.4474	0.001
792.619	0.0015
792.7905	0.0064
792.9619	0.0238
793.1334	0.0201
793.3048	0.015
793.4762	0.0084
793.6476	-0.0103
793.819	-0.0012
793.9904	0.0117
794.1617	-0.0166
794.333	-0.0002
794.5043	0.0118
794.6756	0.0029
794.8469	-0.0083
795.0181	0.0096
795.1893	0.0074
795.3605	-0.0087
795.5317	0.0067
795.7029	0.006
795.874	0.0088
796.0452	0.0061
796.2163	0.0093
796.3873	0.0076
796.5584	0.0127
796.7294	-0.0027
796.9005	-0.0009
797.0715	0.0098
797.2425	-0.0013
797.4134	0.0262
797.5844	0.0164
797.7553	0.0061
797.9262	-0.006
798.0971	0.0101
798.2679	0.0147
798.4388	-0.0033
798.6096	-0.0174
798.7804	0.0047
798.9512	0.0112
799.122	0.0222
799.2927	0.0071
799.4635	0.01
799.6342	0.0219
799.8049	0.0096
799.9755	0.013
800.1462	0.0063
800.3168	-0.0014
800.4874	-0.0035
800.658	-0.003
800.8286	-0.0016
800.9991	0.0163
801.1696	0.0042
801.3402	0.0064
801.5106	0.0062
801.6811	-0.0161
801.8516	0.0017
802.022	0.0111
802.1924	0.001
802.3628	0.0152
802.5332	0.0149
802.7035	0.0088
802.8739	0.0106
803.0442	-0.008
803.2145	0.0084
803.3847	0.0081
803.555	0.0036
803.7252	0.0161
803.8954	-0.0009
804.0656	-0.0063
804.2358	0.0164
804.4059	0.0202
804.5761	0.018
804.7462	-0.0038
804.9163	0.0119
805.0864	0.0014
805.2564	0.0087
805.4264	0.0167
805.5965	0.0059
805.7665	0.0208
805.9364	-0.0117
806.1064	0.0012
806.2763	0.0131
806.4462	0.0222
806.6161	-0.0022
806.786	0.0067
806.9559	0.0081
807.1257	-0.0075
807.2955	0.0224
807.4653	0.0357
807.6351	0.0107
807.8048	0.0162
807.9746	0.0188
808.1443	-0.0025
808.314	0.0159
808.4837	0.0235
808.6533	0.0067
808.8229	0.0133
808.9926	0.0095
809.1622	0.0128
809.3317	0.0155
809.5013	0.0264
809.6708	0.0089
809.8403	0.0133
810.0098	0.0256
810.1793	-0.001
810.3488	-0.0158
810.5182	0.0156
810.6876	0.0085
810.857	0.0159
811.0264	-0.0142
811.1958	0.0125
811.3651	0.021
811.5344	0.0131
811.7037	0.0084
811.873	0.0123
812.0422	0.0071
812.2115	-0.0053
812.3807	0.0191
812.5499	0.0188
812.7191	-0.0049
812.8882	0.0183
813.0574	-0.0003
813.2265	0.0264
813.3956	0.0018
813.5646	0.0051
813.7337	0.0052
813.9027	-0.0191
814.0718	0.0267
814.2407	0.0104
814.4097	0.0228
814.5787	0.0041
814.7476	0.0149
814.9165	0.0128
815.0854	-0.0029
815.2543	0.0157
815.4232	0.0299
815.592	-0.0018
815.7608	0.0089
815.9296	-0.0075
816.0984	-0.0209
816.2671	-0.0096
816.4359	-0.0127
816.6046	-0.0128
816.7733	-0.0143
816.942	0.0187
817.1106	0.0072
817.2793	0.0005
817.4479	-0.0087
817.6165	0.0052
817.785	0.0126
817.9536	-0.0013
818.1221	0.0125
818.2906	-0.0158
818.4591	-0.0104
818.6276	0.0078
818.7961	0.0092
818.9645	0.0112
819.1329	-0.0036
819.3013	0.0152
819.4697	0.0174
819.638	-0.0004
819.8064	-0.003
819.9747	-0.0036
820.143	0.0063
820.3113	0.0002
820.4795	-0.0108
820.6477	-0.0124
820.816	-0.0174
820.9842	0.0055
821.1523	0.0416
821.3205	-0.0357
821.4886	0.0009
821.6567	-0.0051
821.8248	0.0158
821.9929	0.0107
822.1609	-0.0178
822.329	0.0068
822.497	-0.0086
822.665	-0.0195
822.833	-0.0008
823.0009	-0.021
823.1688	0.0057
823.3367	0.0106
823.5046	-0.0282
823.6725	-0.0245
823.8404	-0.0183
824.0082	-0.0102
824.176	0.0229
824.3438	0.0219
824.5116	0.0163
824.6793	-0.0126
824.847	0.0296
825.0147	0.0113
825.1824	-0.0062
825.3501	-0.024
825.5177	-0.0033
825.6854	-0.0114
825.853	0.0279
826.0206	0.0023
826.1881	0.0135
826.3557	-0.0091
826.5232	0.0098
826.6907	-0.0107
826.8582	0.0429
827.0257	0.0251
827.1931	-0.0025
827.3605	0.0078
827.528	-0.0127
827.6953	0.017
827.8627	0.02
828.03	0.0472
828.1974	-0.0154
828.3647	0.0262
828.532	0.0044
828.6992	0.0205
828.8665	0.0728
829.0337	-0.0032
829.2009	0.0256
829.3681	0.0018
829.5352	-0.0047
829.7024	0.0058
829.8695	0.0155
830.0366	0.012
830.2037	-0.017
830.3707	0.0276
830.5378	-0.0216
830.7048	0.0035
830.8718	0.0103
831.0388	0.002
831.2057	-0.0269
831.3727	0.0281
831.5396	0.0271
831.7065	-0.0239
831.8734	0.0095
832.0402	0.0174
832.2071	-0.0012
832.3739	-0.0103
832.5407	0.0231
832.7075	-0.0094
832.8742	0.0084
833.041	-0.0035
833.2077	-0.0079
833.3744	0.047
833.541	0.0059
833.7077	0.0049
833.8743	0.0329
834.0409	0.0281
834.2075	0.0297
834.3741	0.0492
834.5407	0.0011
834.7072	0.0017
834.8737	-0.0343
835.0402	0.0077
835.2067	0.0416
835.3731	-0.0099
835.5395	-0.0199
835.706	0.0321
835.8723	-0.0522
836.0387	0.0217
836.2051	-0.0039
836.3714	-0.0476
836.5377	-0.0238
836.704	-0.0333
836.8703	-0.0184
837.0365	-0.0415
837.2027	-0.0306
837.3689	0.0067
837.5351	-0.0143
837.7013	-0.0162
837.8674	-0.0203
838.0335	-0.0597
838.1997	-0.0522
838.3657	0.0284
838.5318	0.0028
838.6978	0.0075
838.8639	-0.0224
839.0299	-0.0052
839.1958	0.0102
839.3618	0.0177
839.5277	-0.0049
839.6937	0.0291
839.8596	-0.026
840.0254	0.0329
840.1913	0.0057
840.3571	0.0261
840.523	-0.0105
840.6888	-0.0286
840.8545	0.003
841.0203	0.0293
841.186	0.0477
841.3517	-0.0158
841.5174	-0.002
841.6831	0.0039
841.8488	-0.028
842.0144	0.0821
842.18	0.0367
842.3456	0.0049
842.5112	0.0506
842.6767	-0.0161
842.8422	0.0067
843.0077	-0.0031
843.1732	-0.0012
843.3387	-0.0541
843.5042	-0.0014
843.6696	-0.0235
843.835	-0.0267
844.0004	-0.0519
844.1657	0.0121
844.3311	-0.0094
844.4964	-0.0396
844.6617	-0.0975
844.827	0.0281
844.9923	-0.0226
845.1575	0.0382
845.3227	-0.0035
845.4879	-0.0224
845.6531	-0.0319
845.8183	-0.0551
845.9834	0.053
846.1485	-0.0373
846.3136	-0.09
846.4787	-0.0124
846.6438	0.0193
846.8088	-0.0215
846.9738	-0.0423
847.1388	0.0454
847.3038	-0.0078
847.4687	-0.0285
847.6337	-0.0731
847.7986	0.054
847.9635	0.0371
848.1284	-0.0207
848.2932	0.0092
848.458	0.0021
848.6228	0.1247
848.7876	-0.0184
848.9524	-0.0453
849.1172	0.0011
849.2819	0.0109
849.4466	-0.0355
849.6113	0.0475
849.7759	0.0377
849.9406	0.0093
850.1052	0.0054
850.2698	0.0411
850.4344	-0.0422
850.599	-0.0224
850.7635	0.0291
850.928	-0.0022
851.0925	0.0423
851.257	0.0597
851.4215	-0.133
851.5859	0.0191
851.7503	-0.1539
851.9147	0.0403
852.0791	0.0543
852.2434	0.0404
852.4078	-0.0178
852.5721	-0.024
852.7364	-0.0692
852.9007	-0.0936
853.0649	-0.0296
853.2291	0.0354
853.3934	-0.038
853.5575	-0.0163
853.7217	0.0124
853.8859	-0.0211
854.05	0.0374
854.2141	0.0289
854.3782	-0.0087
854.5423	0.0342
854.7063	-0.0255
854.8703	-0.0885
855.0343	-0.1052
855.1983	0.0019
855.3623	-0.0614
855.5262	0.0355
855.6901	-0.1156
855.854	-0.0066
856.0179	0.0468
856.1818	0.0441
856.3456	-0.0316
856.5094	-0.0144
856.6732	-0.0932
856.837	-0.1008
857.0008	-0.1959
857.1645	0.0622
857.3282	0.1778
857.4919	-0.1332
857.6556	-0.0391
857.8192	-0.0573
857.9828	0.2602
858.1465	-0.079
858.31	-0.0047
858.4736	-0.0797
858.6372	-0.2511
858.8007	-0.3597
858.9642	-0.0008
859.1277	-0.1412
859.2911	-0.193
859.4546	-0.0404
859.618	-0.4775
859.7814	-0.0528
859.9448	0.084
860.1081	-0.0783
860.2715	0.0849
860.4348	-0.0038
860.5981	0.1624
860.7614	0.0476
860.9246	0.0239
861.0879	-0.1151
861.2511	0.0387
861.4143	-0.1944
861.5774	-0.2087
861.7406	-0.1438
861.9037	-0.2926
862.0668	-0.1262
862.2299	0.1009
862.393	-0.1145
862.556	0.1058
862.7191	0.1283
862.8821	0.1628
863.0451	-0.1703
863.208	0.1254
863.371	-0.5547
863.5339	0.0542
863.6968	0.1376
863.8597	0.1015
864.0225	0.0388
864.1854	-0.0846
864.3482	-0.0385
864.511	-0.0432
864.6737	-0.0541
864.8365	0.0589
864.9992	-0.2247
865.1619	-0.237
865.3246	-0.2246
865.4873	-0.1133
865.65	-0.1423
865.8126	-0.2512
865.9752	0.2748
866.1378	0.4023
866.3004	-0
866.4629	0.0269
866.6254	0.151
866.7879	-0.2466
866.9504	0.4192
867.1129	0.0654
867.2753	0.1063
867.4377	-0.1812
867.6001	0.1447
867.7625	-0.1433
867.9249	-0.4939
868.0872	0.1536
868.2495	0.3268
868.4118	-0.149
868.5741	0.7492
868.7363	0.1358
868.8986	-0.2584
869.0608	-0.2585
869.223	-0.1252
869.3851	-0.0977
869.5473	-0.158
869.7094	-0.0265
869.8715	0.8734
870.0336	-0
870.1957	-0
870.3577	0.1841
870.5197	0.0335
870.6817	0.2201
870.8437	0.0487
871.0057	0.1608
871.1676	0.118
871.3295	0.2788
871.4914	-0
871.6533	0.0865
871.8151	-0.2749
871.977	-0.5899
872.1388	0.0701
872.3006	0.219
872.4623	-0.0234
872.6241	-0.7312
872.7858	-0.1283
872.9475	0.2684
873.1092	0.1568
873.2709	-0
873.4325	-0.5024
873.5941	0.1545
873.7557	-0.3315
873.9173	-0.0154
874.0789	-0
874.2404	-0
874.4019	0.3292
874.5634	-0.2079
874.7249	0.2355
874.8863	-0.2456
875.0478	-0.1254
875.2092	-0.3155
875.3706	-0.2746
875.5319	-0
875.6933	-0
875.8546	-0.2
876.0159	-0.0156
876.1772	-0.64
876.3385	-0.4344
876.4997	0.326
876.6609	0.3443
876.8221	-0.6744
876.9833	-0.4028
877.1445	0.4566
877.3056	-0.3629
877.4667	-0.1779
877.6278	0.2395
877.7889	0.0053
877.9499	0.2015
878.111	0.0698
878.272	0.1989
878.433	-0.1618
878.5939	-0
878.7549	-0.1349
878.9158	-0.0627
879.0767	-0.1221
879.2376	0.0189
879.3984	0.5983
879.5593	-0
879.7201	-0.0997
879.8809	-0
880.0417	0.18
880.2024	0.552
880.3632	-0.3466
880.5239	-0
880.6846	-0.4779
880.8452	-0.2829
881.0059	-0.8234
881.1665	-0
881.3271	-0.7938
881.4877	-0.2366
881.6483	0.1869
881.8088	-0.0283
881.9693	-0
882.1298	-0
882.2903	-0
