Data from MonoPyChalIsomerACN10uM400nmA_Absorbance_12-08-46-528.txt Node
Date: Fri Jul 05 12:08:46 BST 2024
User: LASERRRRR
Spectrometer: FLMT03099
Trigger mode: 0
Integration Time (sec): 1.000000E-1
Scans to average: 1
Electric dark correction enabled: true
Nonlinearity correction enabled: false
Boxcar width: 0
XAxis mode: Wavelengths
Number of Pixels in Spectrum: 3648
>>>>>Begin Spectral Data<<<<<
179.3399	0.1118
179.5586	0.1118
179.7771	0.1118
179.9957	0.9689
180.2143	0.7033
180.4329	-0
180.6514	-0.6614
180.8699	-0.239
181.0885	1.0284
181.307	-0.2317
181.5255	-0
181.744	-0.4618
181.9625	-0.7628
182.181	0.1383
182.3994	-0
182.6179	-0.1212
182.8363	-0.3905
183.0547	0.1572
183.2732	1.1069
183.4916	0.018
183.71	0.0717
183.9284	0.0878
184.1467	0.0941
184.3651	0.0563
184.5835	0.2146
184.8018	0.0009
185.0201	0.1046
185.2385	0.3721
185.4568	0.297
185.6751	0.1764
185.8934	-0.0264
186.1117	0.3092
186.3299	-0.0133
186.5482	0.1066
186.7664	0.3353
186.9847	0.2121
187.2029	0.0268
187.4211	-0.2687
187.6393	-0.0827
187.8575	-0.0273
188.0757	0.211
188.2939	0.1496
188.512	0.014
188.7302	0.0114
188.9483	0.1152
189.1665	-0.0074
189.3846	0.1156
189.6027	-0.0088
189.8208	0.2271
190.0389	0.1991
190.257	0.0665
190.475	0.5261
190.6931	0.2849
190.9111	0.9562
191.1292	0.1523
191.3472	0.5546
191.5652	0.215
191.7832	0.6028
192.0012	1.2566
192.2192	0.346
192.4371	0.4535
192.6551	0.3183
192.873	0.4477
193.091	0.4725
193.3089	0.4577
193.5268	1.1053
193.7447	0.6484
193.9626	0.7548
194.1805	0.6622
194.3984	0.3842
194.6162	0.4304
194.8341	0.6467
195.0519	0.65
195.2697	0.6844
195.4875	0.5999
195.7054	0.5046
195.9231	0.4516
196.1409	0.6139
196.3587	0.5244
196.5765	0.6591
196.7942	0.8905
197.012	0.8123
197.2297	0.6655
197.4474	0.6912
197.6651	0.6382
197.8828	0.4636
198.1005	0.6549
198.3182	0.7828
198.5358	0.8404
198.7535	0.6674
198.9711	0.6446
199.1888	0.7922
199.4064	1.2773
199.624	0.7144
199.8416	0.7402
200.0592	1.0078
200.2767	0.6425
200.4943	0.7508
200.7119	0.8723
200.9294	0.68
201.1469	0.9184
201.3645	0.7976
201.582	0.715
201.7995	0.8705
202.017	0.9165
202.2344	0.6328
202.4519	0.8188
202.6694	1.203
202.8868	0.7807
203.1042	0.7688
203.3217	0.7936
203.5391	0.9158
203.7565	0.7568
203.9739	0.7226
204.1913	0.8432
204.4086	0.8086
204.626	0.8615
204.8433	0.9206
205.0607	0.6944
205.278	0.8958
205.4953	0.8926
205.7126	0.6265
205.9299	1.0651
206.1472	0.7405
206.3644	0.6334
206.5817	0.6859
206.7989	0.7079
207.0162	0.8242
207.2334	0.7288
207.4506	0.7096
207.6678	0.7293
207.885	0.746
208.1022	0.7594
208.3194	0.7624
208.5365	0.7233
208.7537	0.7875
208.9708	0.7174
209.1879	0.8071
209.405	0.7791
209.6222	0.8657
209.8392	0.704
210.0563	0.718
210.2734	0.732
210.4905	0.7147
210.7075	0.9258
210.9245	0.7325
211.1416	0.72
211.3586	0.7937
211.5756	0.7637
211.7926	0.69
212.0096	0.6105
212.2265	0.7189
212.4435	0.7339
212.6604	0.7637
212.8774	0.7352
213.0943	0.6837
213.3112	0.737
213.5281	0.6399
213.745	0.7406
213.9619	0.6472
214.1788	0.696
214.3956	0.735
214.6125	0.6699
214.8293	0.7424
215.0461	0.6558
215.2629	0.6647
215.4798	0.6221
215.6965	0.7039
215.9133	0.6913
216.1301	0.6215
216.3469	0.6642
216.5636	0.6922
216.7803	0.6524
216.9971	0.5925
217.2138	0.6436
217.4305	0.6473
217.6472	0.5543
217.8639	0.6355
218.0805	0.5844
218.2972	0.615
218.5138	0.6196
218.7305	0.5891
218.9471	0.5603
219.1637	0.5962
219.3803	0.5573
219.5969	0.5457
219.8135	0.5573
220.0301	0.5577
220.2466	0.5842
220.4632	0.5468
220.6797	0.5722
220.8962	0.5435
221.1127	0.5216
221.3292	0.5599
221.5457	0.6043
221.7622	0.6119
221.9787	0.53
222.1951	0.5341
222.4116	0.5487
222.628	0.5733
222.8444	0.5719
223.0608	0.542
223.2772	0.5204
223.4936	0.5658
223.71	0.5405
223.9264	0.5572
224.1427	0.5654
224.3591	0.5905
224.5754	0.5503
224.7917	0.5615
225.008	0.5914
225.2243	0.5248
225.4406	0.5773
225.6569	0.5243
225.8732	0.5951
226.0894	0.5451
226.3057	0.5908
226.5219	0.5321
226.7381	0.5903
226.9543	0.5524
227.1705	0.561
227.3867	0.5579
227.6029	0.5537
227.8191	0.5508
228.0352	0.6017
228.2513	0.5632
228.4675	0.5536
228.6836	0.602
228.8997	0.5486
229.1158	0.5359
229.3319	0.5695
229.548	0.5692
229.764	0.6172
229.9801	0.5489
230.1961	0.5798
230.4121	0.5906
230.6282	0.5784
230.8442	0.5834
231.0602	0.5721
231.2761	0.5734
231.4921	0.5683
231.7081	0.5521
231.924	0.6014
232.14	0.5904
232.3559	0.5814
232.5718	0.5557
232.7877	0.5677
233.0036	0.5668
233.2195	0.5783
233.4353	0.5611
233.6512	0.5766
233.867	0.6062
234.0829	0.5646
234.2987	0.5845
234.5145	0.5748
234.7303	0.5691
234.9461	0.583
235.1619	0.5539
235.3776	0.5513
235.5934	0.5753
235.8091	0.572
236.0249	0.5235
236.2406	0.5557
236.4563	0.5927
236.672	0.5747
236.8877	0.5579
237.1034	0.5481
237.319	0.5379
237.5347	0.5694
237.7503	0.5459
237.966	0.5182
238.1816	0.566
238.3972	0.5619
238.6128	0.5416
238.8284	0.5162
239.0439	0.5528
239.2595	0.5307
239.475	0.5106
239.6906	0.523
239.9061	0.5178
240.1216	0.5379
240.3371	0.5445
240.5526	0.5334
240.7681	0.5326
240.9836	0.5425
241.199	0.5075
241.4145	0.5052
241.6299	0.4915
241.8453	0.5015
242.0607	0.5103
242.2761	0.4829
242.4915	0.4636
242.7069	0.4647
242.9223	0.4665
243.1376	0.4425
243.353	0.4574
243.5683	0.4358
243.7836	0.4288
243.9989	0.4379
244.2142	0.4179
244.4295	0.4144
244.6448	0.401
244.86	0.3898
245.0753	0.3808
245.2905	0.3761
245.5057	0.3793
245.721	0.3662
245.9362	0.3578
246.1514	0.3422
246.3665	0.3462
246.5817	0.3405
246.7969	0.3273
247.012	0.3272
247.2271	0.3358
247.4423	0.3093
247.6574	0.3174
247.8725	0.3212
248.0876	0.305
248.3026	0.2941
248.5177	0.3079
248.7328	0.2922
248.9478	0.2889
249.1628	0.2697
249.3779	0.2588
249.5929	0.2514
249.8079	0.2572
250.0228	0.2644
250.2378	0.2638
250.4528	0.2544
250.6677	0.2414
250.8827	0.2413
251.0976	0.2329
251.3125	0.2416
251.5274	0.2425
251.7423	0.2335
251.9572	0.2443
252.172	0.2245
252.3869	0.22
252.6017	0.2296
252.8166	0.2161
253.0314	0.2127
253.2462	0.2189
253.461	0.2178
253.6758	0.198
253.8906	0.2133
254.1053	0.2114
254.3201	0.1937
254.5348	0.2124
254.7496	0.2159
254.9643	0.2081
255.179	0.2085
255.3937	0.2017
255.6083	0.2078
255.823	0.1955
256.0377	0.1938
256.2523	0.2007
256.467	0.2004
256.6816	0.1955
256.8962	0.2031
257.1108	0.2035
257.3254	0.1973
257.54	0.1869
257.7545	0.2016
257.9691	0.1909
258.1836	0.1786
258.3981	0.1835
258.6127	0.1967
258.8272	0.1929
259.0417	0.1803
259.2561	0.1793
259.4706	0.1847
259.6851	0.1947
259.8995	0.1936
260.114	0.1725
260.3284	0.1818
260.5428	0.1886
260.7572	0.1971
260.9716	0.1882
261.186	0.1869
261.4003	0.2059
261.6147	0.2001
261.829	0.1887
262.0433	0.1913
262.2577	0.1797
262.472	0.1891
262.6863	0.1994
262.9005	0.1875
263.1148	0.1751
263.3291	0.1977
263.5433	0.1882
263.7576	0.1919
263.9718	0.1926
264.186	0.1895
264.4002	0.1925
264.6144	0.1824
264.8286	0.1863
265.0427	0.1941
265.2569	0.1989
265.471	0.1752
265.6851	0.1796
265.8993	0.1997
266.1134	0.1775
266.3275	0.1818
266.5415	0.1767
266.7556	0.1862
266.9697	0.1886
267.1837	0.2037
267.3978	0.203
267.6118	0.2081
267.8258	0.2005
268.0398	0.2
268.2538	0.2078
268.4677	0.1984
268.6817	0.2071
268.8957	0.1915
269.1096	0.1839
269.3235	0.1778
269.5374	0.1979
269.7514	0.1703
269.9652	0.1827
270.1791	0.1827
270.393	0.1843
270.6068	0.1926
270.8207	0.1803
271.0345	0.1771
271.2483	0.1836
271.4622	0.186
271.676	0.1851
271.8897	0.1895
272.1035	0.1854
272.3173	0.1797
272.531	0.1749
272.7448	0.1811
272.9585	0.1802
273.1722	0.1963
273.3859	0.1833
273.5996	0.1839
273.8133	0.1795
274.0269	0.1848
274.2406	0.1889
274.4542	0.1808
274.6679	0.185
274.8815	0.1746
275.0951	0.2066
275.3087	0.1843
275.5223	0.1885
275.7358	0.1888
275.9494	0.1732
276.1629	0.1877
276.3765	0.1866
276.59	0.1851
276.8035	0.182
277.017	0.1851
277.2305	0.1925
277.444	0.1914
277.6574	0.1927
277.8709	0.1812
278.0843	0.1974
278.2978	0.1864
278.5112	0.1985
278.7246	0.1868
278.938	0.19
279.1513	0.1955
279.3647	0.1891
279.5781	0.1892
279.7914	0.1934
280.0047	0.1991
280.2181	0.1858
280.4314	0.1846
280.6447	0.2077
280.8579	0.1941
281.0712	0.1993
281.2845	0.1919
281.4977	0.2042
281.711	0.1959
281.9242	0.1842
282.1374	0.1868
282.3506	0.1826
282.5638	0.2017
282.7769	0.1912
282.9901	0.1917
283.2033	0.1859
283.4164	0.1886
283.6295	0.1807
283.8426	0.1901
284.0557	0.1847
284.2688	0.1882
284.4819	0.1813
284.695	0.1966
284.908	0.1797
285.1211	0.1982
285.3341	0.1945
285.5471	0.1809
285.7601	0.1871
285.9731	0.1951
286.1861	0.204
286.3991	0.1853
286.612	0.196
286.825	0.1872
287.0379	0.1866
287.2508	0.1836
287.4637	0.1813
287.6766	0.1779
287.8895	0.1774
288.1024	0.1702
288.3152	0.1834
288.5281	0.172
288.7409	0.186
288.9538	0.1771
289.1666	0.1722
289.3794	0.1754
289.5922	0.1756
289.8049	0.1698
290.0177	0.1802
290.2304	0.175
290.4432	0.1731
290.6559	0.1883
290.8686	0.1698
291.0813	0.1645
291.294	0.1745
291.5067	0.1858
291.7194	0.1685
291.932	0.1789
292.1447	0.186
292.3573	0.1804
292.5699	0.1767
292.7825	0.1631
292.9951	0.1886
293.2077	0.1778
293.4203	0.1765
293.6328	0.1874
293.8454	0.1636
294.0579	0.1752
294.2704	0.1748
294.4829	0.1747
294.6954	0.1741
294.9079	0.1683
295.1204	0.1822
295.3328	0.1603
295.5453	0.1693
295.7577	0.1671
295.9701	0.1672
296.1825	0.1756
296.3949	0.1636
296.6073	0.1682
296.8197	0.1645
297.0321	0.1667
297.2444	0.1677
297.4567	0.1644
297.6691	0.1595
297.8814	0.1748
298.0937	0.1696
298.306	0.1738
298.5182	0.1781
298.7305	0.1763
298.9428	0.162
299.155	0.1671
299.3672	0.1567
299.5794	0.1614
299.7916	0.1789
300.0038	0.151
300.216	0.1621
300.4282	0.1693
300.6403	0.1746
300.8525	0.1725
301.0646	0.1669
301.2767	0.1742
301.4888	0.1724
301.7009	0.1633
301.913	0.1715
302.125	0.1721
302.3371	0.1622
302.5491	0.1681
302.7612	0.1532
302.9732	0.1707
303.1852	0.171
303.3972	0.1638
303.6092	0.1643
303.8211	0.1707
304.0331	0.1587
304.245	0.1598
304.457	0.1568
304.6689	0.1595
304.8808	0.1468
305.0927	0.1604
305.3046	0.1484
305.5164	0.159
305.7283	0.155
305.9401	0.158
306.152	0.1479
306.3638	0.153
306.5756	0.1462
306.7874	0.1531
306.9992	0.1333
307.2109	0.1494
307.4227	0.1402
307.6344	0.152
307.8462	0.1351
308.0579	0.1415
308.2696	0.1483
308.4813	0.1311
308.693	0.1417
308.9046	0.1279
309.1163	0.1336
309.328	0.13
309.5396	0.1379
309.7512	0.1344
309.9628	0.1244
310.1744	0.1233
310.386	0.1173
310.5976	0.1292
310.8091	0.1226
311.0207	0.1257
311.2322	0.1234
311.4437	0.1306
311.6552	0.1232
311.8667	0.1241
312.0782	0.1313
312.2897	0.1041
312.5012	0.1244
312.7126	0.127
312.924	0.1093
313.1355	0.1249
313.3469	0.1145
313.5583	0.1147
313.7696	0.1264
313.981	0.1351
314.1924	0.1289
314.4037	0.1121
314.6151	0.1249
314.8264	0.1187
315.0377	0.1284
315.249	0.1135
315.4603	0.1133
315.6716	0.1231
315.8828	0.1171
316.0941	0.0896
316.3053	0.0976
316.5165	0.1164
316.7277	0.1017
316.9389	0.1079
317.1501	0.1044
317.3613	0.0934
317.5724	0.1182
317.7836	0.1069
317.9947	0.1138
318.2058	0.1146
318.417	0.1119
318.6281	0.1084
318.8391	0.1051
319.0502	0.1112
319.2613	0.1135
319.4723	0.1213
319.6834	0.1036
319.8944	0.1165
320.1054	0.1238
320.3164	0.1178
320.5274	0.0992
320.7383	0.1028
320.9493	0.1128
321.1602	0.1159
321.3712	0.0992
321.5821	0.1203
321.793	0.116
322.0039	0.1137
322.2148	0.1073
322.4257	0.1061
322.6365	0.1208
322.8474	0.0948
323.0582	0.1262
323.269	0.116
323.4798	0.1183
323.6906	0.1065
323.9014	0.1291
324.1122	0.1123
324.3229	0.1168
324.5337	0.117
324.7444	0.12
324.9551	0.1249
325.1658	0.1202
325.3765	0.1297
325.5872	0.109
325.7979	0.1152
326.0085	0.1036
326.2192	0.1057
326.4298	0.1359
326.6404	0.1283
326.851	0.117
327.0616	0.1142
327.2722	0.1211
327.4828	0.1192
327.6933	0.1139
327.9039	0.1117
328.1144	0.1194
328.3249	0.1092
328.5354	0.1174
328.7459	0.1199
328.9564	0.1157
329.1669	0.1231
329.3773	0.1254
329.5878	0.1132
329.7982	0.1094
330.0086	0.1227
330.219	0.1123
330.4294	0.1136
330.6398	0.1158
330.8502	0.1255
331.0605	0.1245
331.2708	0.1097
331.4812	0.1157
331.6915	0.1103
331.9018	0.1223
332.1121	0.1165
332.3224	0.1209
332.5326	0.1253
332.7429	0.123
332.9531	0.1227
333.1633	0.1281
333.3735	0.1096
333.5837	0.1163
333.7939	0.1081
334.0041	0.1266
334.2143	0.1218
334.4244	0.1231
334.6346	0.1147
334.8447	0.123
335.0548	0.1238
335.2649	0.1351
335.475	0.1241
335.685	0.1142
335.8951	0.1359
336.1051	0.1361
336.3152	0.1252
336.5252	0.1194
336.7352	0.1336
336.9452	0.1186
337.1552	0.1432
337.3652	0.1211
337.5751	0.1222
337.7851	0.1115
337.995	0.1362
338.2049	0.1313
338.4148	0.1261
338.6247	0.1165
338.8346	0.1281
339.0445	0.118
339.2543	0.1316
339.4642	0.1295
339.674	0.1274
339.8838	0.1279
340.0936	0.1303
340.3034	0.1369
340.5132	0.1401
340.7229	0.1308
340.9327	0.1302
341.1424	0.1352
341.3522	0.1292
341.5619	0.1277
341.7716	0.1441
341.9813	0.1413
342.1909	0.1337
342.4006	0.1291
342.6102	0.1284
342.8199	0.1345
343.0295	0.1372
343.2391	0.1371
343.4487	0.1317
343.6583	0.1355
343.8679	0.1419
344.0774	0.1378
344.287	0.1371
344.4965	0.1326
344.706	0.1334
344.9155	0.137
345.125	0.1308
345.3345	0.1389
345.544	0.1511
345.7534	0.1387
345.9629	0.14
346.1723	0.1344
346.3817	0.1422
346.5911	0.1456
346.8005	0.1335
347.0099	0.1335
347.2193	0.1465
347.4286	0.1432
347.638	0.1363
347.8473	0.1295
348.0566	0.126
348.2659	0.1562
348.4752	0.1416
348.6845	0.1398
348.8937	0.1396
349.103	0.1355
349.3122	0.1452
349.5214	0.1534
349.7306	0.1371
349.9398	0.1507
350.149	0.1439
350.3582	0.1463
350.5674	0.1518
350.7765	0.1376
350.9856	0.1405
351.1948	0.1514
351.4039	0.1711
351.613	0.1449
351.822	0.1449
352.0311	0.158
352.2402	0.1436
352.4492	0.1629
352.6582	0.1419
352.8672	0.1401
353.0762	0.1425
353.2852	0.1546
353.4942	0.1471
353.7032	0.1587
353.9121	0.1438
354.1211	0.1489
354.33	0.1653
354.5389	0.1529
354.7478	0.1534
354.9567	0.1587
355.1655	0.1645
355.3744	0.1477
355.5833	0.1731
355.7921	0.1557
356.0009	0.1602
356.2097	0.1517
356.4185	0.1515
356.6273	0.1582
356.8361	0.1609
357.0448	0.1464
357.2536	0.1601
357.4623	0.1576
357.671	0.165
357.8797	0.1726
358.0884	0.1522
358.2971	0.1663
358.5057	0.162
358.7144	0.1683
358.923	0.1644
359.1316	0.1532
359.3402	0.1777
359.5488	0.1697
359.7574	0.1848
359.966	0.1669
360.1746	0.1652
360.3831	0.1637
360.5916	0.1898
360.8002	0.182
361.0087	0.1852
361.2172	0.157
361.4256	0.1844
361.6341	0.1775
361.8426	0.1793
362.051	0.1689
362.2594	0.1839
362.4678	0.1685
362.6762	0.1655
362.8846	0.2015
363.093	0.1594
363.3014	0.1718
363.5097	0.1799
363.718	0.1959
363.9264	0.1716
364.1347	0.1872
364.343	0.1831
364.5513	0.1693
364.7595	0.1777
364.9678	0.2046
365.176	0.1907
365.3842	0.1796
365.5925	0.1701
365.8007	0.1937
366.0089	0.1862
366.217	0.192
366.4252	0.1889
366.6333	0.1955
366.8415	0.194
367.0496	0.1772
367.2577	0.201
367.4658	0.1893
367.6739	0.1998
367.882	0.1911
368.09	0.202
368.2981	0.1819
368.5061	0.2011
368.7141	0.1863
368.9221	0.1784
369.1301	0.1888
369.3381	0.2075
369.5461	0.1931
369.754	0.1912
369.962	0.181
370.1699	0.1821
370.3778	0.1854
370.5857	0.2105
370.7936	0.1933
371.0015	0.2041
371.2093	0.1993
371.4172	0.1938
371.625	0.2063
371.8328	0.2052
372.0406	0.2116
372.2484	0.1921
372.4562	0.208
372.664	0.2201
372.8717	0.1704
373.0795	0.1995
373.2872	0.2089
373.4949	0.1988
373.7026	0.2108
373.9103	0.2115
374.118	0.1854
374.3256	0.2015
374.5333	0.2208
374.7409	0.2038
374.9485	0.2039
375.1561	0.2065
375.3637	0.1979
375.5713	0.2183
375.7789	0.205
375.9864	0.2222
376.194	0.2143
376.4015	0.2028
376.609	0.2137
376.8165	0.2148
377.024	0.2112
377.2315	0.208
377.4389	0.2017
377.6464	0.1996
377.8538	0.1923
378.0612	0.2086
378.2686	0.2227
378.476	0.2227
378.6834	0.1979
378.8908	0.2106
379.0981	0.2127
379.3055	0.2203
379.5128	0.2195
379.7201	0.2166
379.9274	0.2214
380.1347	0.2099
380.342	0.2121
380.5492	0.217
380.7565	0.2239
380.9637	0.2102
381.1709	0.216
381.3781	0.2161
381.5853	0.2404
381.7925	0.2154
381.9997	0.2061
382.2068	0.2131
382.4139	0.2219
382.6211	0.222
382.8282	0.2135
383.0353	0.2035
383.2424	0.2206
383.4494	0.2213
383.6565	0.2257
383.8635	0.2228
384.0706	0.2361
384.2776	0.2175
384.4846	0.1997
384.6916	0.2353
384.8986	0.22
385.1055	0.2073
385.3125	0.2217
385.5194	0.207
385.7263	0.2281
385.9333	0.2236
386.1402	0.2087
386.347	0.2334
386.5539	0.2332
386.7608	0.2078
386.9676	0.2026
387.1744	0.2266
387.3813	0.2281
387.5881	0.2126
387.7948	0.2174
388.0016	0.2195
388.2084	0.2175
388.4151	0.2212
388.6219	0.2194
388.8286	0.2225
389.0353	0.2019
389.242	0.2123
389.4487	0.2272
389.6553	0.211
389.862	0.2123
390.0686	0.2276
390.2753	0.2187
390.4819	0.1982
390.6885	0.2035
390.8951	0.1968
391.1016	0.214
391.3082	0.2119
391.5147	0.2015
391.7213	0.193
391.9278	0.1889
392.1343	0.183
392.3408	0.208
392.5473	0.2018
392.7537	0.2034
392.9602	0.2014
393.1666	0.2031
393.373	0.168
393.5794	0.177
393.7858	0.186
393.9922	0.1983
394.1986	0.2054
394.4049	0.1924
394.6113	0.1859
394.8176	0.1816
395.0239	0.1991
395.2302	0.1698
395.4365	0.1794
395.6428	0.1921
395.8491	0.1888
396.0553	0.1957
396.2615	0.1929
396.4678	0.1852
396.674	0.1819
396.8802	0.1732
397.0863	0.1722
397.2925	0.1838
397.4987	0.184
397.7048	0.1873
397.9109	0.19
398.117	0.1778
398.3231	0.1908
398.5292	0.1861
398.7353	0.1867
398.9413	0.1723
399.1474	0.1652
399.3534	0.158
399.5594	0.1922
399.7654	0.1805
399.9714	0.1631
400.1774	0.1702
400.3833	0.1755
400.5893	0.162
400.7952	0.1907
401.0011	0.1944
401.207	0.1616
401.4129	0.1852
401.6188	0.1735
401.8247	0.1864
402.0305	0.1796
402.2364	0.1925
402.4422	0.182
402.648	0.1763
402.8538	0.1765
403.0596	0.1752
403.2654	0.1785
403.4711	0.174
403.6768	0.1667
403.8826	0.1694
404.0883	0.1637
404.294	0.1863
404.4997	0.1535
404.7054	0.1583
404.911	0.1765
405.1167	0.167
405.3223	0.1662
405.5279	0.169
405.7335	0.1851
405.9391	0.1664
406.1447	0.1864
406.3502	0.1525
406.5558	0.1903
406.7613	0.1914
406.9668	0.165
407.1724	0.1765
407.3778	0.1895
407.5833	0.1787
407.7888	0.1786
407.9942	0.1738
408.1997	0.1695
408.4051	0.1758
408.6105	0.1632
408.8159	0.1844
409.0213	0.1749
409.2267	0.1913
409.432	0.1873
409.6374	0.1745
409.8427	0.1624
410.048	0.176
410.2533	0.184
410.4586	0.1523
410.6639	0.1741
410.8691	0.1706
411.0744	0.1669
411.2796	0.1685
411.4848	0.1817
411.69	0.1618
411.8952	0.1863
412.1004	0.1572
412.3056	0.1726
412.5107	0.1691
412.7158	0.1634
412.921	0.164
413.1261	0.1731
413.3312	0.1679
413.5362	0.176
413.7413	0.1541
413.9464	0.174
414.1514	0.1704
414.3564	0.151
414.5614	0.1455
414.7664	0.1626
414.9714	0.1581
415.1764	0.1712
415.3813	0.1558
415.5863	0.1436
415.7912	0.1644
415.9961	0.1822
416.201	0.1707
416.4059	0.1684
416.6108	0.1685
416.8156	0.1551
417.0205	0.1596
417.2253	0.1723
417.4301	0.1496
417.6349	0.1793
417.8397	0.1566
418.0445	0.1381
418.2492	0.1533
418.454	0.1573
418.6587	0.169
418.8634	0.1643
419.0681	0.174
419.2728	0.1594
419.4775	0.1798
419.6822	0.1613
419.8868	0.1676
420.0915	0.162
420.2961	0.1541
420.5007	0.15
420.7053	0.1664
420.9099	0.1488
421.1144	0.1747
421.319	0.1484
421.5235	0.1779
421.728	0.1525
421.9325	0.1529
422.137	0.1543
422.3415	0.1401
422.546	0.1449
422.7504	0.1584
422.9549	0.1574
423.1593	0.1391
423.3637	0.163
423.5681	0.148
423.7725	0.13
423.9769	0.1552
424.1812	0.1472
424.3856	0.1605
424.5899	0.1629
424.7942	0.1374
424.9985	0.1698
425.2028	0.1326
425.4071	0.1501
425.6113	0.1494
425.8156	0.1532
426.0198	0.1394
426.224	0.1282
426.4282	0.1454
426.6324	0.1554
426.8366	0.143
427.0407	0.1484
427.2449	0.1331
427.449	0.1422
427.6531	0.1242
427.8572	0.1361
428.0613	0.1338
428.2654	0.1149
428.4694	0.1358
428.6735	0.1315
428.8775	0.1215
429.0815	0.1368
429.2855	0.1299
429.4895	0.1171
429.6935	0.1159
429.8975	0.1259
430.1014	0.1105
430.3053	0.1113
430.5093	0.1319
430.7132	0.1082
430.9171	0.1083
431.1209	0.1102
431.3248	0.1194
431.5286	0.108
431.7325	0.1157
431.9363	0.0995
432.1401	0.1148
432.3439	0.1044
432.5477	0.1217
432.7514	0.0939
432.9552	0.0892
433.1589	0.1038
433.3627	0.1051
433.5664	0.1049
433.7701	0.1009
433.9737	0.0882
434.1774	0.1041
434.3811	0.09
434.5847	0.0974
434.7883	0.0925
434.9919	0.107
435.1955	0.0787
435.3991	0.1087
435.6027	0.0741
435.8062	0.0735
436.0098	0.0951
436.2133	0.0777
436.4168	0.0891
436.6203	0.0856
436.8238	0.0609
437.0272	0.086
437.2307	0.0966
437.4341	0.072
437.6375	0.0792
437.841	0.0651
438.0443	0.0803
438.2477	0.0798
438.4511	0.0656
438.6545	0.0864
438.8578	0.0809
439.0611	0.0682
439.2644	0.0579
439.4677	0.0669
439.671	0.0602
439.8743	0.0531
440.0775	0.0706
440.2808	0.0417
440.484	0.0425
440.6872	0.0737
440.8904	0.0447
441.0936	0.0574
441.2967	0.0583
441.4999	0.0482
441.703	0.0744
441.9062	0.0576
442.1093	0.0558
442.3124	0.0591
442.5155	0.0445
442.7185	0.0476
442.9216	0.0362
443.1246	0.0519
443.3276	0.0605
443.5307	0.0441
443.7337	0.0386
443.9366	0.0458
444.1396	0.0582
444.3426	0.0357
444.5455	0.0573
444.7484	0.0555
444.9513	0.0288
445.1542	0.0302
445.3571	0.043
445.56	0.059
445.7628	0.0443
445.9657	0.0383
446.1685	0.0501
446.3713	0.0362
446.5741	0.0504
446.7769	0.057
446.9797	0.0284
447.1824	0.0218
447.3852	0.0426
447.5879	0.0348
447.7906	0.0511
447.9933	0.0239
448.196	0.046
448.3986	0.0376
448.6013	0.0137
448.8039	0.0431
449.0066	0.0155
449.2092	0.0456
449.4118	0.0315
449.6143	0.0176
449.8169	0.0284
450.0195	0.0057
450.222	0.03
450.4245	0.03
450.627	0.0057
450.8295	0.0192
451.032	0.023
451.2345	0.0249
451.4369	0.0282
451.6394	0.0363
451.8418	-0.0024
452.0442	0.0016
452.2466	0.0108
452.449	0.0157
452.6513	0.0131
452.8537	0.0275
453.056	0.0107
453.2583	0.0069
453.4607	0.0074
453.663	0.0182
453.8652	0.0143
454.0675	0.0016
454.2697	0.0088
454.472	0.0116
454.6742	0.0117
454.8764	0.0057
455.0786	-0.0182
455.2808	0.002
455.4829	0.0088
455.6851	0.0278
455.8872	0.0186
456.0893	0.03
456.2915	0.0168
456.4935	0.0004
456.6956	-0.0047
456.8977	-0.0018
457.0997	0.012
457.3018	0.0104
457.5038	0.0116
457.7058	0.0115
457.9078	0.0038
458.1098	0.006
458.3117	0.0213
458.5137	0.0037
458.7156	0.0053
458.9175	-0.0102
459.1194	0.0023
459.3213	0.0062
459.5232	-0.0011
459.725	0.002
459.9269	0.0096
460.1287	0.0125
460.3305	-0.0029
460.5323	0.0057
460.7341	-0.0043
460.9359	0.0182
461.1376	0.0137
461.3394	-0.0095
461.5411	0.007
461.7428	0.01
461.9445	-0.0034
462.1462	-0.0051
462.3479	-0.0174
462.5495	0.0065
462.7512	-0.0123
462.9528	-0.0017
463.1544	0.0046
463.356	0.0072
463.5576	0.0118
463.7592	-0.0015
463.9607	0.0211
464.1623	0.0094
464.3638	0.0115
464.5653	-0.0021
464.7668	-0.001
464.9683	0.0067
465.1697	0.0059
465.3712	0.0061
465.5726	0.0124
465.7741	0.0196
465.9755	-0.0013
466.1769	0.0043
466.3782	0.0104
466.5796	0.0023
466.7809	0.0062
466.9823	-0.0088
467.1836	0.0059
467.3849	0.017
467.5862	-0.0011
467.7875	0.0097
467.9887	0.0028
468.19	0.0018
468.3912	0.004
468.5924	-0.0046
468.7936	0.0028
468.9948	-0.0203
469.196	0.0018
469.3972	-0.0033
469.5983	0.0081
469.7994	0.0014
470.0006	-0.0178
470.2017	0.0074
470.4027	-0.02
470.6038	-0.0053
470.8049	-0.006
471.0059	-0.0047
471.2069	0.007
471.408	0
471.6089	-0.0039
471.8099	-0.0051
472.0109	-0.0083
472.2119	0.0019
472.4128	-0.0122
472.6137	0.0073
472.8146	-0.0113
473.0155	-0.0102
473.2164	-0.002
473.4173	0.003
473.6181	-0.0085
473.819	-0.0095
474.0198	-0.01
474.2206	-0.013
474.4214	-0.0039
474.6222	-0.0055
474.8229	0.0006
475.0237	-0.003
475.2244	-0.0005
475.4251	-0.0006
475.6258	-0.0005
475.8265	-0.0136
476.0272	-0.0115
476.2278	-0.0182
476.4285	-0.0112
476.6291	0.0023
476.8297	0.004
477.0303	0.0111
477.2309	-0.0073
477.4315	-0.0116
477.632	-0.0094
477.8326	-0.0063
478.0331	-0.021
478.2336	-0.0029
478.4341	-0.0085
478.6346	0.0007
478.8351	0.0133
479.0355	-0.0188
479.236	-0.0027
479.4364	-0.0076
479.6368	-0.0035
479.8372	0.0002
480.0376	-0.0048
480.2379	-0.0144
480.4383	-0.0131
480.6386	0.0083
480.8389	-0.0005
481.0392	-0.015
481.2395	-0.0084
481.4398	-0.0088
481.6401	-0.0072
481.8403	0.0032
482.0405	-0.0054
482.2408	-0.0133
482.441	-0.0098
482.6411	-0.0131
482.8413	-0.0186
483.0415	0.0022
483.2416	-0.0097
483.4417	-0.0011
483.6419	-0.0166
483.8419	-0.0058
484.042	0.0009
484.2421	-0.0074
484.4422	-0.0143
484.6422	-0.0047
484.8422	-0.0122
485.0422	-0.0023
485.2422	-0.0048
485.4422	-0.005
485.6422	-0.0105
485.8421	-0.001
486.042	0.0056
486.242	-0.0038
486.4419	-0.0072
486.6417	-0.0011
486.8416	-0.0159
487.0415	-0.013
487.2413	-0.0086
487.4411	0.0165
487.641	-0.0039
487.8408	-0.0172
488.0405	-0.0015
488.2403	-0.006
488.4401	0.0042
488.6398	-0.0121
488.8395	-0.0136
489.0392	-0.0038
489.2389	-0.015
489.4386	-0.0143
489.6383	-0.0081
489.8379	0
490.0376	0.0012
490.2372	-0.0086
490.4368	0.0021
490.6364	0.0074
490.836	-0.0189
491.0355	-0.0031
491.2351	-0.0047
491.4346	-0.0133
491.6341	-0.0016
491.8336	-0.0036
492.0331	-0.0041
492.2326	-0.0161
492.432	-0.0125
492.6315	0.0006
492.8309	-0.0049
493.0303	-0.0145
493.2297	-0.0034
493.4291	-0.0057
493.6284	-0.0153
493.8278	-0.0131
494.0271	-0.0051
494.2264	-0.0067
494.4257	-0.0134
494.625	0.0049
494.8243	-0.0137
495.0236	-0.0142
495.2228	-0.0092
495.422	-0.0088
495.6213	-0.0168
495.8205	-0.002
496.0196	-0.0084
496.2188	-0.0065
496.418	-0.0092
496.6171	-0.0109
496.8162	-0.0037
497.0153	-0.0041
497.2144	-0.0163
497.4135	-0.0006
497.6126	-0.0055
497.8116	-0.0147
498.0107	-0.0082
498.2097	-0.0167
498.4087	-0.0209
498.6077	-0.0128
498.8067	0.0037
499.0056	-0.0159
499.2046	0.0007
499.4035	-0.0071
499.6024	-0.016
499.8013	-0.0068
500.0002	-0.0065
500.199	-0.0032
500.3979	-0.012
500.5967	-0.0175
500.7956	-0.0056
500.9944	-0.0054
501.1932	0.0019
501.3919	-0.0191
501.5907	-0.0128
501.7895	-0.0185
501.9882	-0.0086
502.1869	-0.0218
502.3856	-0.0161
502.5843	-0.0139
502.783	0.0004
502.9816	-0.0076
503.1803	-0.0013
503.3789	-0.0141
503.5775	-0.0024
503.7761	-0.0096
503.9747	-0.0133
504.1732	-0.0084
504.3718	-0.0006
504.5703	-0.0029
504.7689	-0.0137
504.9674	-0.0177
505.1658	-0.006
505.3643	-0.0075
505.5628	0.0008
505.7612	-0.0099
505.9597	-0.0056
506.1581	0.0094
506.3565	-0.0013
506.5549	-0.0042
506.7532	-0.0019
506.9516	-0.0151
507.1499	-0.0091
507.3482	-0.0004
507.5465	0.0003
507.7448	-0.0055
507.9431	0.002
508.1414	-0.0116
508.3396	-0.003
508.5379	0.0109
508.7361	-0.0092
508.9343	-0.0132
509.1325	-0.0001
509.3306	-0.0123
509.5288	-0.0109
509.7269	-0.0015
509.9251	0.0024
510.1232	-0.0067
510.3213	-0.0032
510.5193	-0.0079
510.7174	-0.014
510.9154	-0.0022
511.1135	-0.0079
511.3115	-0.0134
511.5095	-0.0044
511.7075	0.0048
511.9055	-0.0101
512.1034	0.0018
512.3014	-0.0041
512.4993	-0.0065
512.6972	-0.0146
512.8951	0.0044
513.093	-0.0103
513.2908	-0.0156
513.4887	-0.0034
513.6865	0.0041
513.8844	0.0093
514.0822	-0.0007
514.2799	-0.009
514.4777	-0.0059
514.6755	0.0012
514.8732	-0.002
515.0709	0.0049
515.2687	0.0066
515.4664	0.0087
515.664	-0.0117
515.8617	0.0027
516.0594	-0.001
516.257	-0.0049
516.4546	-0.0201
516.6522	-0.0002
516.8498	-0.0056
517.0474	-0.0043
517.2449	-0.0112
517.4425	0.0055
517.64	-0.0168
517.8375	-0.0002
518.035	-0.0003
518.2325	-0.0232
518.43	-0.0051
518.6274	-0.0031
518.8249	0.0061
519.0223	-0.0063
519.2197	-0.0029
519.4171	0.0095
519.6145	0.0063
519.8118	-0.011
520.0092	-0.0109
520.2065	-0.0156
520.4038	-0.01
520.6011	-0.0042
520.7984	0.004
520.9956	0.0098
521.1929	-0.0115
521.3901	0.0017
521.5874	-0.0029
521.7846	0.0054
521.9818	-0.0028
522.1789	-0.0029
522.3761	0.004
522.5732	-0.0046
522.7704	-0.001
522.9675	-0.0092
523.1646	0.0039
523.3617	-0.0113
523.5587	0.0004
523.7558	0.0038
523.9528	-0.001
524.1498	-0.0111
524.3468	0.0019
524.5438	-0.0047
524.7408	-0.0028
524.9378	0.0207
525.1347	0.004
525.3316	-0.0016
525.5285	-0.0146
525.7254	-0.0017
525.9223	0.0034
526.1192	-0.0112
526.316	0.0003
526.5129	0.004
526.7097	0.0032
526.9065	0.0072
527.1033	-0.0043
527.3	-0.0059
527.4968	-0.0126
527.6935	0.005
527.8903	0.0164
528.087	0.005
528.2837	0.0113
528.4804	0.0065
528.677	-0.0009
528.8737	-0.0027
529.0703	0.0025
529.2669	-0.0035
529.4635	0.0003
529.6601	0.007
529.8567	0.0125
530.0532	-0.0022
530.2498	-0.0033
530.4463	-0.0049
530.6428	-0.0056
530.8393	0.0007
531.0358	-0.0049
531.2322	0.018
531.4287	0.0018
531.6251	0.0042
531.8215	-0.0007
532.0179	0.0038
532.2143	-0.0009
532.4107	-0.0052
532.607	-0.0059
532.8034	0.0049
532.9997	-0.0046
533.196	0.001
533.3923	0.0046
533.5886	-0.0023
533.7848	-0.003
533.9811	-0.0056
534.1773	-0.0033
534.3735	-0.0032
534.5697	0.0012
534.7659	-0.0036
534.9621	-0.0031
535.1582	0.0012
535.3544	-0.0019
535.5505	-0.001
535.7466	0.0024
535.9427	0.0086
536.1387	0.0008
536.3348	-0.0079
536.5308	-0.0087
536.7269	0.0067
536.9229	0.0057
537.1189	0.0003
537.3148	-0.0072
537.5108	0.0037
537.7068	0.0031
537.9027	-0.0051
538.0986	-0.0009
538.2945	-0.0049
538.4904	0.0084
538.6863	-0.0038
538.8821	-0.0032
539.078	0.0006
539.2738	-0.0044
539.4696	0.0025
539.6654	0.0004
539.8611	0.0034
540.0569	-0.0057
540.2526	0.0061
540.4484	0.0063
540.6441	0.0096
540.8398	-0.0049
541.0355	0.0062
541.2311	-0.0008
541.4268	0.0041
541.6224	0.0104
541.818	0.0032
542.0136	0.0093
542.2092	0.0028
542.4048	0.0014
542.6003	0.0102
542.7959	-0.0013
542.9914	0.0018
543.1869	0.0007
543.3824	0.0004
543.5779	0.0023
543.7734	-0.0001
543.9688	-0.0086
544.1642	-0.0024
544.3596	0.0011
544.555	-0.0031
544.7504	-0.0017
544.9458	-0.0104
545.1411	0.0017
545.3365	0.0013
545.5318	0.0035
545.7271	0.0023
545.9224	-0.0004
546.1177	-0.0087
546.3129	0.0057
546.5081	-0.0069
546.7034	0.0059
546.8986	0.0043
547.0938	0.0041
547.289	0.0062
547.4841	0.0081
547.6793	-0.0017
547.8744	0.0015
548.0695	-0.0044
548.2646	-0.0063
548.4597	0.0008
548.6548	0.0033
548.8498	0.0099
549.0448	-0.0079
549.2399	-0.0041
549.4349	0.0018
549.6298	0.0154
549.8248	0.0015
550.0198	0.0085
550.2147	0.0015
550.4096	-0.0027
550.6045	-0.0059
550.7994	-0.0042
550.9943	0.0033
551.1892	-0.01
551.384	-0.0088
551.5788	0.0015
551.7737	-0.0034
551.9685	0.0064
552.1632	0.0099
552.358	0.0039
552.5528	-0.0086
552.7475	-0.0063
552.9422	-0.0001
553.1369	-0.0004
553.3316	-0.0012
553.5263	0.0007
553.7209	-0.0015
553.9156	0.002
554.1102	-0.0156
554.3048	0.002
554.4994	0.0057
554.694	0.0062
554.8885	0.0033
555.0831	-0.0001
555.2776	0.0066
555.4721	0.0094
555.6666	0.0038
555.8611	-0.0059
556.0555	0.0047
556.25	0.0096
556.4444	0.0083
556.6388	0.0133
556.8332	0.0112
557.0276	0.0106
557.222	0.0041
557.4163	0.0006
557.6107	0.0148
557.805	0.0044
557.9993	-0.0047
558.1936	-0.002
558.3879	0.0151
558.5821	0.017
558.7764	0.0033
558.9706	-0.0005
559.1648	0.0085
559.359	0.0094
559.5532	-0.0011
559.7473	0.0136
559.9415	0.0026
560.1356	0.0033
560.3297	0.0034
560.5238	0.0025
560.7179	0.0037
560.9119	-0.0044
561.106	0.0028
561.3	0.0066
561.494	0.0083
561.688	-0.0012
561.882	0.0112
562.076	-0.0063
562.2699	0.0056
562.4639	-0.0032
562.6578	-0.0015
562.8517	0.0102
563.0456	-0.0002
563.2395	0.0071
563.4333	0.0006
563.6272	0.0016
563.821	-0.0128
564.0148	0.0067
564.2086	-0.0137
564.4024	-0.0046
564.5961	0.0101
564.7899	0.0032
564.9836	0.0041
565.1773	0.0055
565.371	0.0105
565.5647	0.004
565.7584	0.0038
565.952	0.0105
566.1456	0.0066
566.3393	-0.0005
566.5329	-0.0085
566.7264	0.0025
566.92	-0.0045
567.1136	0.0205
567.3071	0.0045
567.5006	0.0054
567.6941	-0.0022
567.8876	-0.0002
568.0811	-0.0025
568.2745	0.006
568.468	0.0025
568.6614	0.0022
568.8548	0.0055
569.0482	0.0072
569.2416	0.0063
569.4349	0.0013
569.6283	0.0022
569.8216	0.0003
570.0149	0.003
570.2082	0.0067
570.4015	0.0032
570.5947	0.0052
570.788	0.0094
570.9812	0.0009
571.1744	0.0022
571.3676	0.0068
571.5608	-0.0002
571.754	0.0003
571.9471	-0.0082
572.1402	0.0013
572.3333	-0.0034
572.5264	0.0079
572.7195	-0.0034
572.9126	0.0074
573.1057	0.0027
573.2987	0.007
573.4917	-0.0031
573.6847	-0.0093
573.8777	-0.0102
574.0707	0.0016
574.2636	0.0031
574.4566	0.0019
574.6495	0.0052
574.8424	-0.0011
575.0353	-0.0059
575.2281	0.0047
575.421	0.0001
575.6138	-0.0021
575.8067	0.0032
575.9995	0.0052
576.1923	0.006
576.385	0.0014
576.5778	-0.0046
576.7706	0.0095
576.9633	-0.0009
577.156	0.0033
577.3487	0.0054
577.5414	-0.0017
577.734	-0.0097
577.9267	-0.0009
578.1193	-0.0009
578.3119	0.0028
578.5045	0.0019
578.6971	0.0076
578.8897	0.0029
579.0822	0.0015
579.2747	-0.0012
579.4673	0.0026
579.6598	0.0101
579.8522	0.0088
580.0447	-0.0007
580.2372	0.0061
580.4296	0.0088
580.622	0.0008
580.8144	0.0021
581.0068	0.0007
581.1992	0.0095
581.3915	0.0024
581.5839	0.0075
581.7762	0.0037
581.9685	-0.0007
582.1608	0.002
582.353	-0.0093
582.5453	-0.0007
582.7375	-0.0094
582.9298	-0.0015
583.122	0.0064
583.3142	0.0032
583.5063	-0.0004
583.6985	-0.0022
583.8906	-0.002
584.0827	-0.0005
584.2749	0.0004
584.4669	-0.0048
584.659	0.0004
584.8511	-0.0022
585.0431	-0.0053
585.2352	-0.0117
585.4272	0.0026
585.6192	0.0005
585.8111	-0.0026
586.0031	0.0028
586.195	-0.003
586.387	-0.0042
586.5789	0.001
586.7708	0.0012
586.9627	-0.003
587.1545	0.0076
587.3464	0.0029
587.5382	-0.0072
587.73	0.0081
587.9218	0.0013
588.1136	0.0005
588.3053	0.0018
588.4971	-0.0039
588.6888	0.0047
588.8805	-0.0039
589.0722	-0.0023
589.2639	-0.0025
589.4556	-0.0057
589.6472	-0.0044
589.8389	-0.0102
590.0305	0.0086
590.2221	0.004
590.4137	0.0006
590.6052	-0.002
590.7968	0.0085
590.9883	0.0028
591.1798	-0.0011
591.3713	0.002
591.5628	-0.0067
591.7543	0.0142
591.9458	0.0057
592.1372	0.0026
592.3286	0.0076
592.52	0.0013
592.7114	0.0036
592.9028	-0.0052
593.0941	0.0025
593.2855	0.0007
593.4768	-0.0025
593.6681	-0.0012
593.8594	0.0017
594.0506	-0.0048
594.2419	0.0044
594.4331	0.0041
594.6244	0.0031
594.8156	0.0009
595.0067	-0.0026
595.1979	-0.0039
595.3891	-0.0013
595.5802	0.0037
595.7713	-0.0096
595.9624	0.0007
596.1535	-0.0059
596.3446	0.0094
596.5357	0.0083
596.7267	0.0051
596.9177	0.0013
597.1087	0.0142
597.2997	0.0032
597.4907	-0.0024
597.6817	0.0023
597.8726	0.0059
598.0635	0.0091
598.2544	0.0059
598.4453	0.0103
598.6362	0.0024
598.827	-0.0001
599.0179	0.0023
599.2087	0.0058
599.3995	0.0082
599.5903	0.0099
599.7811	0.007
599.9718	-0.0002
600.1626	0.0037
600.3533	-0.0016
600.544	0.0029
600.7347	0.0047
600.9254	-0.0004
601.116	-0.0021
601.3067	-0.0061
601.4973	-0.0039
601.6879	-0.0033
601.8785	0.0059
602.0691	0.0014
602.2596	0.012
602.4502	0.001
602.6407	0.0015
602.8312	-0.0061
603.0217	0.0029
603.2122	-0.0007
603.4027	-0.0006
603.5931	0.0058
603.7835	0.0032
603.9739	0.0027
604.1643	0.0126
604.3547	0.0045
604.5451	-0.0029
604.7354	0.0054
604.9257	-0.003
605.116	-0.0008
605.3063	0.0072
605.4966	0.001
605.6869	0.0106
605.8771	0.0038
606.0673	0.004
606.2575	-0
606.4477	-0.0025
606.6379	0.0043
606.8281	0.0042
607.0182	-0.0042
607.2083	0.0026
607.3985	0.0069
607.5885	0.0012
607.7786	0.0029
607.9687	0.0021
608.1587	0.0007
608.3488	0.0082
608.5388	0.0107
608.7288	0.0089
608.9187	-0.0029
609.1087	0.0007
609.2986	0.0044
609.4886	0.0017
609.6785	-0.0036
609.8684	0.0031
610.0582	0.012
610.2481	0.0035
610.4379	-0.0042
610.6278	-0.0024
610.8176	0.0087
611.0074	0.0045
611.1971	-0.0031
611.3869	-0.001
611.5766	0.0076
611.7664	0.0023
611.9561	0.0036
612.1458	0.0077
612.3354	0.0026
612.5251	0.0042
612.7147	-0.0007
612.9044	0.008
613.094	-0.0034
613.2836	0.0121
613.4731	0.0017
613.6627	0.0062
613.8522	0.0089
614.0417	0.0026
614.2313	0.0076
614.4207	0.0069
614.6102	-0.0034
614.7997	0.0012
614.9891	0.008
615.1785	0.0046
615.3679	0.0077
615.5573	0.0081
615.7467	0.0008
615.9361	0.0054
616.1254	0.002
616.3147	-0.0053
616.504	0.0044
616.6933	0.0057
616.8826	0.0059
617.0718	0.0003
617.2611	0.0081
617.4503	0.0071
617.6395	0.0051
617.8287	0.0154
618.0179	0.0062
618.207	0.0108
618.3961	0.0083
618.5853	0.002
618.7744	0.0078
618.9634	0.0006
619.1525	0.0053
619.3416	0.0038
619.5306	0.0032
619.7196	-0.0013
619.9086	0.0019
620.0976	0.0082
620.2866	0.0074
620.4755	0.0101
620.6645	0.0053
620.8534	0.0084
621.0423	0.0039
621.2312	0.0062
621.42	0.0098
621.6089	0.0106
621.7977	0.0112
621.9865	0.0097
622.1753	0.0093
622.3641	0.0058
622.5529	0.0051
622.7416	0.0068
622.9303	0.0107
623.1191	0.0059
623.3078	0.0034
623.4964	0.0023
623.6851	0.0106
623.8737	0.017
624.0624	0.0052
624.251	0.0083
624.4396	0.0131
624.6282	0.0114
624.8167	0.0181
625.0053	0.0046
625.1938	0.0092
625.3823	0.0043
625.5708	0.0105
625.7593	0.0042
625.9477	0.0159
626.1362	0.005
626.3246	0.0083
626.513	-0.0008
626.7014	0.0008
626.8898	0.0002
627.0781	0.0064
627.2665	0.0055
627.4548	0.0067
627.6431	-0.0029
627.8314	0.0113
628.0197	0.0099
628.2079	0.0026
628.3962	0.0016
628.5844	0.0136
628.7726	0.0047
628.9608	0.01
629.1489	0.0053
629.3371	0.0069
629.5252	0.0073
629.7134	0.0045
629.9015	0.0053
630.0895	0.0078
630.2776	-0.0011
630.4657	0.0048
630.6537	0.005
630.8417	0.0085
631.0297	0.017
631.2177	0.0162
631.4057	0.008
631.5936	0.0068
631.7815	0.0121
631.9695	0.0121
632.1574	0.0079
632.3452	0.0091
632.5331	-0.0037
632.7209	0.0056
632.9088	0.0042
633.0966	-0.0037
633.2844	-0.0005
633.4722	0.0017
633.6599	0.0016
633.8477	0.0101
634.0354	0.0023
634.2231	0.0078
634.4108	0.007
634.5985	0.0054
634.7861	0.0077
634.9738	0.0164
635.1614	0.0082
635.349	0.001
635.5366	0.0064
635.7242	0.0104
635.9117	0.0022
636.0993	0.0103
636.2868	0.0123
636.4743	0.0076
636.6618	0.0062
636.8492	0.0193
637.0367	0.0098
637.2241	0.0102
637.4115	0.0039
637.5989	0.0143
637.7863	0.0061
637.9737	-0.0037
638.161	0.0176
638.3484	0.0042
638.5357	0.0022
638.723	-0.0003
638.9103	-0.004
639.0975	-0.0004
639.2848	0.0077
639.472	0.0004
639.6592	0.0078
639.8464	0.0032
640.0336	0.0082
640.2208	0.003
640.4079	-0.0054
640.595	0.0032
640.7821	-0.0003
640.9692	0.0014
641.1563	0.0067
641.3434	0.0062
641.5304	0.0108
641.7174	0.0162
641.9044	-0.0007
642.0914	-0.0002
642.2784	-0.0062
642.4653	0.0042
642.6523	-0.0005
642.8392	0.0009
643.0261	0.003
643.213	0.0004
643.3999	0.0006
643.5867	0.0114
643.7735	0.0024
643.9604	-0.0005
644.1472	-0.0005
644.3339	-0.0001
644.5207	-0.0017
644.7075	-0.0033
644.8942	0.0032
645.0809	0.0076
645.2676	0.0033
645.4543	0.0089
645.6409	0.0092
645.8276	0.0011
646.0142	0.0036
646.2008	0.0077
646.3874	0.0124
646.574	0.0058
646.7605	0.0033
646.9471	0.0041
647.1336	0.0047
647.3201	0.0145
647.5066	-0.004
647.6931	-0.0014
647.8795	0.0037
648.0659	0.0063
648.2524	0.011
648.4388	0.0004
648.6252	0.0011
648.8115	0.0048
648.9979	0.0064
649.1842	-0.0005
649.3705	-0.001
649.5568	0.0045
649.7431	0.0047
649.9294	0.0045
650.1156	0.0049
650.3018	0.0094
650.488	0.0041
650.6742	0.0069
650.8604	0.0003
651.0466	0.0085
651.2327	0.0064
651.4188	0.0075
651.6049	0.0199
651.791	0.0064
651.9771	0.0103
652.1632	0.0178
652.3492	0.0102
652.5352	0.0088
652.7212	0.0038
652.9072	-0.0054
653.0932	0.0038
653.2791	0.0038
653.465	0.0008
653.651	0.0009
653.8369	0.0001
654.0227	0.0071
654.2086	0.0082
654.3944	0.0084
654.5803	0.0049
654.7661	0.0097
654.9519	-0.0022
655.1377	-0.0015
655.3234	-0.0042
655.5092	-0.0015
655.6949	-0.0093
655.8806	-0.0076
656.0663	-0.0043
656.2519	-0.002
656.4376	0.0004
656.6232	0.0011
656.8088	0.0056
656.9945	0.0091
657.18	-0.0023
657.3656	-0.0006
657.5511	0.0002
657.7367	0.0002
657.9222	0.0056
658.1077	0.0088
658.2932	0.0012
658.4786	-0.0018
658.6641	0.0044
658.8495	0.0016
659.0349	0.007
659.2203	0.0047
659.4057	-0.0057
659.591	0.0057
659.7764	0.006
659.9617	0.0038
660.147	0.0017
660.3323	0.0052
660.5176	0.0034
660.7028	-0.0055
660.888	0.0061
661.0733	0.0104
661.2585	0.0095
661.4436	0.0104
661.6288	0.0108
661.8139	-0.0003
661.9991	-0.0008
662.1842	0.0108
662.3693	-0.0011
662.5544	0.0114
662.7394	0.0032
662.9245	0.0114
663.1095	0.0159
663.2945	0.01
663.4795	0.0049
663.6644	0.0054
663.8494	0.0034
664.0343	0.0056
664.2193	0.0054
664.4042	0.0088
664.589	0.0017
664.7739	0.0006
664.9587	0.0006
665.1436	-0.0013
665.3284	0.003
665.5132	0.002
665.698	0.0036
665.8827	0.0065
666.0675	0.0054
666.2522	-0.0004
666.4369	0.0076
666.6216	0.0062
666.8063	0.0015
666.9909	0.0009
667.1756	0.0203
667.3602	0.0052
667.5448	0.0129
667.7294	0.0077
667.9139	0.012
668.0985	0.0032
668.283	-0.0013
668.4675	0.0012
668.652	0.0105
668.8365	-0.0008
669.0209	0.009
669.2054	0.0045
669.3898	-0.001
669.5742	-0.0018
669.7586	0.0029
669.943	0.0085
670.1273	0.0023
670.3117	0.0023
670.496	0.0032
670.6803	0.0152
670.8646	0.0041
671.0488	0.0073
671.2331	0.013
671.4173	0.0153
671.6015	0.001
671.7857	0.0071
671.9699	0.0089
672.1541	0.0069
672.3382	0.0136
672.5223	0.0115
672.7064	0.0106
672.8905	0.003
673.0746	0.0135
673.2587	0.007
673.4427	0.0022
673.6267	0.0019
673.8107	0.0169
673.9947	0.0099
674.1787	0.0078
674.3626	0.0061
674.5465	0.0109
674.7304	0.0077
674.9143	0.0034
675.0982	0.0042
675.2821	0.0056
675.4659	0.0103
675.6497	-0.007
675.8335	0.0083
676.0173	0.0058
676.2011	0.0035
676.3849	0.0043
676.5686	0.0155
676.7523	0.0091
676.936	-0.0067
677.1197	0.0042
677.3034	0.0103
677.487	0.0119
677.6706	0.0124
677.8542	0.0059
678.0378	0.0073
678.2214	0.0069
678.405	0.0155
678.5885	0.0142
678.772	0.0103
678.9555	0.0049
679.139	0.0103
679.3225	0.0057
679.5059	0.0079
679.6894	0.0115
679.8728	0.0101
680.0562	0.0061
680.2395	0.0058
680.4229	0.005
680.6062	-0.0016
680.7896	0.0081
680.9729	-0
681.1562	0.009
681.3394	0.0059
681.5227	0.0133
681.7059	0.0038
681.8891	0.0085
682.0723	0.0064
682.2555	0.0022
682.4387	0.0057
682.6218	0.0074
682.805	0.0128
682.9881	0.0119
683.1712	0.004
683.3542	0.0075
683.5373	0.0076
683.7203	0.0115
683.9034	0.0158
684.0864	0.0077
684.2694	0.005
684.4523	0.0073
684.6353	0.0026
684.8182	0.0131
685.0011	0.0073
685.184	0.0003
685.3669	-0.0059
685.5498	0.0077
685.7326	0.004
685.9154	0.0116
686.0982	0.0099
686.281	-0.0037
686.4638	0.0001
686.6465	0.0093
686.8293	0.0119
687.012	0.0099
687.1947	0.0093
687.3774	0.0126
687.56	0.0118
687.7427	0.0126
687.9253	0.0013
688.1079	0.0067
688.2905	0.0051
688.4731	0.0077
688.6556	0.0065
688.8382	0.0056
689.0207	0.0033
689.2032	0.0051
689.3857	0.0117
689.5681	0.0059
689.7506	0.0034
689.933	0.0057
690.1154	0.0009
690.2978	0.0008
690.4802	0.0015
690.6626	0.0109
690.8449	0.008
691.0272	0.0037
691.2095	0.0123
691.3918	0.0028
691.5741	0.0177
691.7563	0.0079
691.9386	0.0102
692.1208	0.0035
692.303	0.0069
692.4852	0.0078
692.6673	0.0051
692.8495	0.0095
693.0316	0.0073
693.2137	0.0121
693.3958	0.0006
693.5778	0.0084
693.7599	0.007
693.9419	0.0046
694.1239	0.0091
694.3059	0.0047
694.4879	0.0067
694.6699	0.0016
694.8518	0.0053
695.0337	0.0107
695.2157	0.0152
695.3975	-0.0003
695.5794	0.0026
695.7613	0.0045
695.9431	0.0119
696.1249	0.005
696.3067	-0.0056
696.4885	0.0041
696.6703	0.0035
696.852	0.009
697.0337	0.0087
697.2154	0.0131
697.3971	0.0102
697.5788	0.0099
697.7605	0.0037
697.9421	-0.0007
698.1237	0.016
698.3053	0.0097
698.4869	0.0116
698.6685	0.0086
698.85	0.0093
699.0315	0.0188
699.213	0.0089
699.3945	0.0066
699.576	0.0137
699.7575	0.0258
699.9389	0.0214
700.1203	0.0116
700.3017	0.0091
700.4831	0.0027
700.6645	0.0052
700.8458	0.0127
701.0271	0.0087
701.2084	0.0087
701.3897	-0.0124
701.571	0.0021
701.7523	-0.009
701.9335	-0.0036
702.1147	0.0031
702.2959	0.0029
702.4771	-0.0015
702.6583	0.0037
702.8394	0.0033
703.0205	0.001
703.2016	0.0109
703.3827	0.0037
703.5638	0.0131
703.7449	0.0088
703.9259	0.0015
704.1069	0.0038
704.2879	0.0012
704.4689	0.0061
704.6499	0.0022
704.8308	0.0136
705.0117	0.0061
705.1927	0.0075
705.3735	0.0039
705.5544	-0.006
705.7353	0.0076
705.9161	0.0055
706.0969	0.0142
706.2777	0.0026
706.4585	0.0039
706.6393	0.011
706.82	0.0008
707.0007	-0
707.1815	0.0035
707.3621	0.0037
707.5428	0.0073
707.7235	0.0045
707.9041	0.005
708.0847	0.015
708.2653	0.0111
708.4459	0.0059
708.6265	0.023
708.807	0.0112
708.9875	0.0193
709.168	0.0152
709.3485	0.011
709.529	0.0022
709.7095	0.0084
709.8899	0.0066
710.0703	0.0061
710.2507	0.0049
710.4311	0.0104
710.6115	0.0061
710.7918	0.0099
710.9721	0.0189
711.1524	0.0034
711.3327	-0.0046
711.513	0.0002
711.6932	0.0051
711.8735	0.0116
712.0537	-0.0009
712.2339	-0.0065
712.4141	0.0002
712.5942	-0.0048
712.7744	0.0066
712.9545	0.0021
713.1346	0.0051
713.3147	0.0014
713.4947	0.0029
713.6748	-0.0023
713.8548	0.0106
714.0348	0.0082
714.2148	-0.0013
714.3948	-0.0002
714.5748	0.004
714.7547	0.0075
714.9346	-0.0039
715.1145	0.0005
715.2944	0.0081
715.4743	0.0111
715.6541	0.0111
715.834	0.004
716.0138	0.0098
716.1936	0.0077
716.3733	0.0158
716.5531	0.0197
716.7328	0.0054
716.9126	0.0038
717.0923	0.01
717.2719	0.009
717.4516	-0.0005
717.6312	0.0092
717.8109	0.0035
717.9905	-0.0028
718.1701	0.0001
718.3496	0.0062
718.5292	-0.0051
718.7087	-0.0102
718.8882	-0.0032
719.0677	0.0114
719.2472	0.0097
719.4267	0.0082
719.6061	0.0038
719.7856	0.0084
719.965	0.0099
720.1443	0.0081
720.3237	0.0061
720.5031	0.0032
720.6824	0.0117
720.8617	0.0117
721.041	-0.0023
721.2203	0.0053
721.3995	0.0176
721.5788	0.0085
721.758	0.0042
721.9372	0.0102
722.1164	0.0103
722.2956	0.0038
722.4747	0.0118
722.6538	0.0032
722.8329	0.0013
723.012	0.0062
723.1911	0.0059
723.3702	0.0031
723.5492	0.002
723.7282	0.011
723.9072	-0.0013
724.0862	0.01
724.2652	0.0067
724.4441	-0.0048
724.623	0.0155
724.8019	-0.001
724.9808	0.0109
725.1597	0.0014
725.3385	0.0079
725.5174	0.0028
725.6962	-0.0006
725.875	0.0043
726.0538	0.0078
726.2325	0.0034
726.4112	0.0022
726.59	0.0167
726.7687	0.0003
726.9474	-0.0041
727.126	-0.0026
727.3047	-0.0064
727.4833	0.0093
727.6619	-0.0046
727.8405	-0.0008
728.0191	-0.0059
728.1976	0.0015
728.3762	0.0108
728.5547	-0.0014
728.7332	0.0023
728.9116	-0.0043
729.0901	0.0034
729.2686	-0.0028
729.447	-0.0022
729.6254	0.0034
729.8038	0.0117
729.9821	-0.0016
730.1605	0.0026
730.3388	0.0027
730.5171	0.004
730.6954	0.0118
730.8737	0.0011
731.0519	-0.0054
731.2302	0.0085
731.4084	0.007
731.5866	-0.0037
731.7648	0.0128
731.9429	-0.0072
732.1211	0.0019
732.2992	-0.0034
732.4773	-0.0038
732.6554	-0.009
732.8335	0.001
733.0115	-0.0031
733.1896	0.0079
733.3676	0.0013
733.5456	-0.0012
733.7235	-0.0021
733.9015	0.0054
734.0794	0.007
734.2574	0.0025
734.4353	0.0001
734.6131	0.0018
734.791	-0.0014
734.9689	0.0146
735.1467	0.0031
735.3245	-0.0025
735.5023	-0.0002
735.68	0.009
735.8578	0.0061
736.0355	0.0016
736.2132	0.0063
736.3909	0.0044
736.5686	0.0147
736.7463	-0.003
736.9239	0.0132
737.1015	0.0149
737.2791	0.0088
737.4567	0.0034
737.6343	-0.0033
737.8118	0.0118
737.9894	0.0008
738.1669	0.0023
738.3444	0.0021
738.5218	0.0014
738.6993	-0.0004
738.8767	-0.0001
739.0541	0.0115
739.2315	0.0006
739.4089	0.0156
739.5863	0.009
739.7636	0.0082
739.9409	0.0004
740.1182	0.0119
740.2955	0.0133
740.4728	-0.0027
740.65	0.0005
740.8272	-0.0063
741.0044	-0.0087
741.1816	0.0102
741.3588	0.0092
741.5359	0.005
741.7131	0.0032
741.8902	-0.0019
742.0673	0.0102
742.2444	-0.0012
742.4214	0.0062
742.5985	0.0147
742.7755	-0.0005
742.9525	0.0127
743.1295	0.0104
743.3064	0.0092
743.4834	0.012
743.6603	-0.0054
743.8372	-0.0084
744.0141	0.0139
744.191	0.0055
744.3678	-0.0027
744.5446	-0.0023
744.7215	0.0155
744.8982	0.0137
745.075	-0.0007
745.2518	-0.0088
745.4285	-0.0048
745.6052	0.0025
745.7819	-0.0067
745.9586	0.0089
746.1353	-0.0105
746.3119	0.0063
746.4885	0.0033
746.6651	0.0022
746.8417	0.0086
747.0183	0.0027
747.1948	-0.0006
747.3714	0.0068
747.5479	-0.0074
747.7244	0.0049
747.9008	0.0084
748.0773	0.0035
748.2537	-0.0019
748.4301	0.0016
748.6065	0.007
748.7829	-0.0016
748.9593	0.0134
749.1356	0.0016
749.3119	0.0161
749.4882	0.0042
749.6645	-0.0032
749.8408	0.0045
750.017	0.0078
750.1933	0.0035
750.3695	0.014
750.5457	0.0044
750.7218	0.0003
750.898	0.0136
751.0741	0.0144
751.2502	0.0192
751.4263	0.0093
751.6024	0.0119
751.7784	0.0104
751.9545	0.0141
752.1305	0.0023
752.3065	0.0052
752.4825	0.008
752.6584	0.0109
752.8344	0.0035
753.0103	-0.0049
753.1862	-0.0001
753.3621	0.0033
753.5379	0.0038
753.7138	0.0168
753.8896	0.0019
754.0654	0.0035
754.2412	0.0005
754.417	-0.001
754.5927	0.0048
754.7685	0.0065
754.9442	-0.0017
755.1199	0.0045
755.2956	0.0045
755.4712	-0.0052
755.6469	0.0129
755.8225	0.0116
755.9981	0.004
756.1736	-0.0011
756.3492	0.0058
756.5248	0.0117
756.7003	0.0056
756.8758	0.0163
757.0513	0.0053
757.2267	0.0021
757.4022	0.0088
757.5776	0.0133
757.753	0.0071
757.9284	0.0085
758.1038	-0.0113
758.2791	0.0139
758.4545	0.0033
758.6298	0.0069
758.8051	0.0034
758.9803	0.0111
759.1556	0.0051
759.3308	0.0027
759.506	-0.0014
759.6812	0.0057
759.8564	0.0066
760.0316	0.0123
760.2067	0.0058
760.3819	0.0068
760.557	0.0071
760.732	0.0006
760.9071	0.0079
761.0821	0.0117
761.2572	0.0105
761.4322	0.0057
761.6072	0.0075
761.7821	-0.0006
761.9571	0.0082
762.132	0.0065
762.3069	0.0124
762.4818	0.0044
762.6567	-0.0034
762.8316	0.007
763.0064	-0.0092
763.1812	0.0069
763.356	0.0123
763.5308	0.0059
763.7055	-0.0007
763.8803	0.0044
764.055	0.001
764.2297	0.0088
764.4044	0.0074
764.579	-0.0026
764.7537	0.0016
764.9283	0.0039
765.1029	-0.001
765.2775	-0.0036
765.4521	-0.01
765.6266	-0.008
765.8011	0.0048
765.9756	-0.0057
766.1501	0.0027
766.3246	-0.002
766.4991	0.0066
766.6735	0.0031
766.8479	0.0026
767.0223	-0.0075
767.1967	0.0094
767.371	0.0044
767.5454	0.0026
767.7197	-0.0023
767.894	0.0096
768.0683	0.0116
768.2425	0.0107
768.4168	-0.0047
768.591	0.0005
768.7652	-0.0027
768.9394	-0.0114
769.1135	0.0097
769.2877	-0.0019
769.4618	0.0144
769.6359	0.006
769.81	-0.0004
769.984	0.006
770.1581	0.0008
770.3321	0.0126
770.5061	-0.0143
770.6801	-0.0124
770.8541	0.0069
771.028	0.0197
771.202	0.0032
771.3759	-0.0066
771.5498	0.0109
771.7236	0.0064
771.8975	0.0109
772.0713	0.0225
772.2451	-0.0017
772.4189	0.0055
772.5927	0.0094
772.7665	-0.0073
772.9402	0.009
773.1139	0.0089
773.2876	-0.0066
773.4613	0.0056
773.635	0.0059
773.8086	-0.0091
773.9822	0.0097
774.1558	0.0259
774.3294	0.0144
774.503	-0.0103
774.6765	0.009
774.8501	0.0043
775.0236	0.008
775.1971	0.0183
775.3705	0.0131
775.544	0.0107
775.7174	0.0128
775.8908	0.017
776.0642	0.0141
776.2376	-0.0001
776.4109	0.0005
776.5843	-0.0037
776.7576	-0.0068
776.9309	0.0122
777.1041	0.0146
777.2774	0.0097
777.4506	0.0128
777.6238	-0.009
777.797	0.0209
777.9702	0.0046
778.1434	0.0195
778.3165	-0.0008
778.4896	0.0106
778.6627	0.0087
778.8358	-0.0009
779.0089	0.002
779.1819	0.0045
779.3549	-0.0012
779.5279	0.0171
779.7009	0.0019
779.8739	0.0046
780.0468	-0.0045
780.2197	-0.0034
780.3926	-0.0034
780.5655	0.0015
780.7384	-0.0019
780.9112	0.0075
781.0841	-0.0133
781.2569	0.0026
781.4297	-0.0268
781.6024	0.007
781.7752	-0.0046
781.9479	0.0011
782.1206	0.0004
782.2933	0.0028
782.466	-0.0045
782.6386	0.0095
782.8113	-0.0056
782.9839	-0.0016
783.1565	0.0019
783.329	0.0063
783.5016	0.0008
783.6741	0.0213
783.8466	-0.0019
784.0191	-0.004
784.1916	-0.0041
784.3641	0.0028
784.5365	0.0044
784.7089	0.0049
784.8813	0.0017
785.0537	-0.0125
785.2261	-0.0008
785.3984	-0.0004
785.5707	0.0032
785.743	0.0091
785.9153	-0.0117
786.0876	0.01
786.2598	-0.0116
786.432	0.0154
786.6042	0.0078
786.7764	0.0028
786.9486	0.0133
787.1207	0.0105
787.2928	0.003
787.4649	0.0164
787.637	-0.0047
787.8091	0.0209
787.9811	0.0003
788.1532	0.0014
788.3252	-0.0077
788.4972	0.0015
788.6691	0.0025
788.8411	0.0022
789.013	-0.0001
789.1849	0.0157
789.3568	0.0203
789.5287	0.0057
789.7005	0.0058
789.8723	0.0179
790.0442	0.0156
790.2159	0.0127
790.3877	0.0245
790.5595	0.0129
790.7312	0.0031
790.9029	0.0182
791.0746	0.0026
791.2463	0.0293
791.4179	0.0005
791.5896	0.0067
791.7612	0.0252
791.9328	0.0081
792.1044	0.0162
792.2759	0.0097
792.4474	0.0111
792.619	0.0157
792.7905	0.0192
792.9619	0.0133
793.1334	0.02
793.3048	0.021
793.4762	0.0158
793.6476	0.0077
793.819	0.0037
793.9904	0.0256
794.1617	0.0014
794.333	0.0044
794.5043	0.0036
794.6756	-0.0012
794.8469	-0.0001
795.0181	0.0081
795.1893	-0.0018
795.3605	0.0154
795.5317	-0.0032
795.7029	0.0117
795.874	-0.0038
796.0452	0.0208
796.2163	0.0067
796.3873	0.0133
796.5584	0.0189
796.7294	0.0036
796.9005	-0.0024
797.0715	0.0069
797.2425	-0.0045
797.4134	0.0111
797.5844	0.0018
797.7553	0.0027
797.9262	0.013
798.0971	0.0259
798.2679	0.0145
798.4388	0.0075
798.6096	-0.0156
798.7804	0.0103
798.9512	0.0098
799.122	0.0187
799.2927	0.0091
799.4635	0.0004
799.6342	0.0153
799.8049	0.018
799.9755	0.0118
800.1462	0.0133
800.3168	0.0078
800.4874	-0.0097
800.658	0.008
800.8286	-0.0013
800.9991	0.0239
801.1696	0.0255
801.3402	0.0135
801.5106	0.0219
801.6811	-0.0064
801.8516	0.0089
802.022	-0.0029
802.1924	0.0051
802.3628	0.0102
802.5332	0.0109
802.7035	-0.0067
802.8739	-0.0074
803.0442	0.0003
803.2145	0.0156
803.3847	0.0111
803.555	-0.001
803.7252	0.0143
803.8954	-0.0002
804.0656	0.0058
804.2358	0.0182
804.4059	0.0268
804.5761	0.0126
804.7462	-0.0021
804.9163	0.0101
805.0864	0.0011
805.2564	-0.0027
805.4264	0.0124
805.5965	0.0003
805.7665	0.0137
805.9364	-0.0082
806.1064	0.0005
806.2763	0.0266
806.4462	0.0062
806.6161	0.0062
806.786	0.023
806.9559	0.0076
807.1257	0.0081
807.2955	0.0113
807.4653	0.0124
807.6351	0.0162
807.8048	0.0005
807.9746	0.027
808.1443	-0.0049
808.314	0.0376
808.4837	0.0234
808.6533	0.0079
808.8229	0.0191
808.9926	0.0169
809.1622	0.0227
809.3317	0.0113
809.5013	0.0224
809.6708	0.0121
809.8403	0.0075
810.0098	0.0228
810.1793	0.0055
810.3488	-0.0022
810.5182	0.0351
810.6876	0.0302
810.857	0.0094
811.0264	0.0063
811.1958	0.0192
811.3651	0.0094
811.5344	0.0289
811.7037	0.0103
811.873	-0.0038
812.0422	-0.0033
812.2115	0.0343
812.3807	0.0132
812.5499	0.0142
812.7191	0.0217
812.8882	-0.0007
813.0574	-0.0039
813.2265	0.0453
813.3956	0.0175
813.5646	0.0123
813.7337	0.0032
813.9027	-0.0023
814.0718	0.0245
814.2407	0.0237
814.4097	0.0079
814.5787	0.0006
814.7476	0.0014
814.9165	0.0107
815.0854	0.0006
815.2543	0.0087
815.4232	0.0138
815.592	-0.0005
815.7608	0.0123
815.9296	0.0088
816.0984	-0.0102
816.2671	-0.0056
816.4359	-0.0166
816.6046	0.0157
816.7733	-0.0014
816.942	0.0192
817.1106	0.0088
817.2793	-0.0121
817.4479	-0.0227
817.6165	-0.0073
817.785	0.0034
817.9536	-0.011
818.1221	-0.0237
818.2906	0.0262
818.4591	0.0013
818.6276	0.0278
818.7961	0.0163
818.9645	0.0091
819.1329	0.0255
819.3013	0.0131
819.4697	0.0262
819.638	-0.0038
819.8064	0.0239
819.9747	-0.0231
820.143	0.0103
820.3113	0.0164
820.4795	0.0299
820.6477	-0.0129
820.816	-0.0086
820.9842	-0.0061
821.1523	0.0211
821.3205	0.009
821.4886	0.0058
821.6567	-0.005
821.8248	-0.0002
821.9929	0.0004
822.1609	-0.019
822.329	0.0133
822.497	0.0015
822.665	-0.0166
822.833	-0.0207
823.0009	-0.0201
823.1688	-0.0113
823.3367	0.0164
823.5046	-0.0198
823.6725	-0.0156
823.8404	-0.0256
824.0082	-0.0096
824.176	0.0585
824.3438	0.0213
824.5116	0.0117
824.6793	-0.0179
824.847	0.0231
825.0147	0.0017
825.1824	0.0125
825.3501	-0.0062
825.5177	0.0021
825.6854	-0.0007
825.853	0.0189
826.0206	-0.0161
826.1881	0.0307
826.3557	0.028
826.5232	0.0096
826.6907	0.0141
826.8582	0.0543
827.0257	0.0197
827.1931	-0.0055
827.3605	0.0226
827.528	0.0009
827.6953	0.0323
827.8627	0.0067
828.03	0.0062
828.1974	0.0379
828.3647	0.0131
828.532	-0.0035
828.6992	0.0288
828.8665	0.0453
829.0337	0.021
829.2009	0.0279
829.3681	0.0197
829.5352	-0.0013
829.7024	0.0065
829.8695	0.0283
830.0366	0.0193
830.2037	-0.0303
830.3707	0.0269
830.5378	-0.0199
830.7048	-0.0277
830.8718	-0.0029
831.0388	-0.0242
831.2057	0.0173
831.3727	0.009
831.5396	0.0061
831.7065	0.003
831.8734	0.0087
832.0402	-0.021
832.2071	0.0261
832.3739	-0.0233
832.5407	0.0311
832.7075	-0.0009
832.8742	0.0041
833.041	0.0063
833.2077	-0.0168
833.3744	0.0337
833.541	0.0347
833.7077	0.034
833.8743	0.035
834.0409	0.031
834.2075	0.0258
834.3741	0.0566
834.5407	-0.0114
834.7072	-0.0247
834.8737	-0.0254
835.0402	-0.0093
835.2067	-0.0048
835.3731	-0.0132
835.5395	-0.0386
835.706	0.0286
835.8723	-0.0242
836.0387	0.0449
836.2051	0.0549
836.3714	-0.0535
836.5377	-0.0151
836.704	-0.0184
836.8703	-0.0074
837.0365	-0.0059
837.2027	0.0002
837.3689	0.0064
837.5351	0.0262
837.7013	0.0054
837.8674	0.0178
838.0335	-0.0213
838.1997	-0.0382
838.3657	0.0198
838.5318	0.0344
838.6978	0.0056
838.8639	-0.0439
839.0299	0.0009
839.1958	0.0212
839.3618	0.0026
839.5277	0.0029
839.6937	0.0446
839.8596	-0.0394
840.0254	0.024
840.1913	0.0394
840.3571	-0.0399
840.523	0.0492
840.6888	0.0211
840.8545	0.0057
841.0203	0.0186
841.186	0.0396
841.3517	-0.0343
841.5174	-0.0271
841.6831	0.0478
841.8488	0.0541
842.0144	0.0882
842.18	0.02
842.3456	0.0264
842.5112	0.0249
842.6767	0.0167
842.8422	0.0081
843.0077	-0.0165
843.1732	0.011
843.3387	-0.0338
843.5042	0.0173
843.6696	-0.0278
843.835	0.0318
844.0004	-0.0565
844.1657	0.0158
844.3311	0.0065
844.4964	-0.0118
844.6617	-0.069
844.827	0.0588
844.9923	0.0003
845.1575	-0.0026
845.3227	0.0024
845.4879	-0.0189
845.6531	0.0107
845.8183	-0.0147
845.9834	0.0303
846.1485	0.0042
846.3136	-0.001
846.4787	-0.0372
846.6438	0.0467
846.8088	-0.052
846.9738	-0.0302
847.1388	0.0646
847.3038	-0.0022
847.4687	0.0234
847.6337	-0.0525
847.7986	0.0735
847.9635	-0.0119
848.1284	0.0396
848.2932	0.0182
848.458	0.0472
848.6228	0.0297
848.7876	-0.001
848.9524	-0.031
849.1172	0.0281
849.2819	0.0276
849.4466	0.0191
849.6113	0.0528
849.7759	0.0463
849.9406	-0.0075
850.1052	-0.0627
850.2698	0.0754
850.4344	0.023
850.599	-0.0185
850.7635	0.0456
850.928	-0.042
851.0925	0.0191
851.257	0.0333
851.4215	0.0081
851.5859	0.0307
851.7503	-0.0361
851.9147	-0.0223
852.0791	0.1158
852.2434	0.0136
852.4078	-0.0796
852.5721	0.0203
852.7364	-0.037
852.9007	-0.0753
853.0649	-0.0592
853.2291	0.0109
853.3934	0.1094
853.5575	-0.0325
853.7217	0.0651
853.8859	0.0242
854.05	0.0498
854.2141	0.0327
854.3782	-0.0891
854.5423	0.0453
854.7063	0.0225
854.8703	-0.0962
855.0343	0.189
855.1983	0.0056
855.3623	-0.0214
855.5262	0.0892
855.6901	0.0124
855.854	0.0007
856.0179	0.024
856.1818	0.0567
856.3456	0.0368
856.5094	0.0608
856.6732	0.0283
856.837	0.0259
857.0008	-0.3823
857.1645	0.1566
857.3282	0.1199
857.4919	-0.0669
857.6556	-0.0174
857.8192	0.0036
857.9828	0.1387
858.1465	-0.0062
858.31	0.0534
858.4736	0.0978
858.6372	-0.0225
858.8007	-0.2785
858.9642	0.0723
859.1277	-0.0431
859.2911	-0.0383
859.4546	0.0333
859.618	-0.4032
859.7814	0.0011
859.9448	-0.062
860.1081	0.039
860.2715	0.0582
860.4348	0.1044
860.5981	0.01
860.7614	-0.0429
860.9246	-0.0541
861.0879	-0.1459
861.2511	0.1649
861.4143	-0.2139
861.5774	-0.0717
861.7406	-0.1408
861.9037	-0.2829
862.0668	0.0141
862.2299	-0.186
862.393	0.2894
862.556	0.2391
862.7191	0.1848
862.8821	-0.0086
863.0451	-0.1675
863.208	0.1059
863.371	-0.4742
863.5339	0.1602
863.6968	0.0879
863.8597	-0.0063
864.0225	0.1353
864.1854	0.1052
864.3482	0.147
864.511	-0.0226
864.6737	-0.2678
864.8365	0.1086
864.9992	-0.2846
865.1619	-0.2131
865.3246	-0.1111
865.4873	-0.005
865.65	-0.2665
865.8126	-0.3112
865.9752	-0.0033
866.1378	0.2148
866.3004	-0
866.4629	0.2043
866.6254	-0
866.7879	-0.0279
866.9504	0.1488
867.1129	0.0874
867.2753	0.2296
867.4377	0.5427
867.6001	-0.1962
867.7625	0.0154
867.9249	-0.5766
868.0872	0.6502
868.2495	0.8387
868.4118	0.1046
868.5741	0.0897
868.7363	-0
868.8986	-0.166
869.0608	-0
869.223	-0.0946
869.3851	-0.0067
869.5473	-0.2913
869.7094	-0.1673
869.8715	-0
870.0336	-0
870.1957	-0
870.3577	-0.0164
870.5197	-0
870.6817	0.4478
870.8437	0.7891
871.0057	0.178
871.1676	0.1839
871.3295	-0.7212
871.4914	-0
871.6533	0.5405
871.8151	-0.2543
871.977	-0.3193
872.1388	0.0382
872.3006	0.2661
872.4623	0.1717
872.6241	-0
872.7858	-0.0925
872.9475	0.2373
873.1092	0.1336
873.2709	-0
873.4325	-0
873.5941	-0
873.7557	-0.9855
873.9173	0.0866
874.0789	-0
874.2404	-0
874.4019	-0
874.5634	0.0051
874.7249	0.1256
874.8863	0.5647
875.0478	0.5749
875.2092	-0.0461
875.3706	-0.2767
875.5319	-0
875.6933	-0.3065
875.8546	0.36
876.0159	0.1732
876.1772	-0
876.3385	-0.4041
876.4997	0.3503
876.6609	-0.3998
876.8221	0.0146
876.9833	0.0808
877.1445	0.3844
877.3056	-0.2356
877.4667	-0.0694
877.6278	0.0588
877.7889	0.1947
877.9499	0.1114
878.111	-0
878.272	-0.043
878.433	0.3928
878.5939	0.0982
878.7549	0.0574
878.9158	-0.0902
879.0767	-0.4367
879.2376	0.6538
879.3984	-0.1765
879.5593	-0.4991
879.7201	-0.22
879.8809	-0
880.0417	0.0147
880.2024	-0
880.3632	-0
880.5239	-0
880.6846	0.007
880.8452	0.2705
881.0059	-0.8658
881.1665	-0
881.3271	-0
881.4877	-0
881.6483	-0.2159
881.8088	0.1442
881.9693	-0.4197
882.1298	-0.4197
882.2903	-0.4197
