Data from MonoPyChalIsomerACN10uM400nmA_Absorbance_12-08-41-331.txt Node
Date: Fri Jul 05 12:08:41 BST 2024
User: LASERRRRR
Spectrometer: FLMT03099
Trigger mode: 0
Integration Time (sec): 1.000000E-1
Scans to average: 1
Electric dark correction enabled: true
Nonlinearity correction enabled: false
Boxcar width: 0
XAxis mode: Wavelengths
Number of Pixels in Spectrum: 3648
>>>>>Begin Spectral Data<<<<<
179.3399	-0
179.5586	-0
179.7771	-0
179.9957	0.9519
180.2143	-0
180.4329	-0
180.6514	-0.1934
180.8699	-0.4388
181.0885	0.2155
181.307	0.0007
181.5255	-0.265
181.744	-0.0888
181.9625	-0.6452
182.181	-0
182.3994	-0.4084
182.6179	0.1025
182.8363	-0.3654
183.0547	0.036
183.2732	0.323
183.4916	0.1665
183.71	0.0456
183.9284	0.1591
184.1467	0.03
184.3651	-0.0276
184.5835	0.1198
184.8018	0.1485
185.0201	0.0745
185.2385	-0.0251
185.4568	0.1562
185.6751	0.3442
185.8934	-0.0144
186.1117	0.1044
186.3299	0.0742
186.5482	0.0033
186.7664	0.2733
186.9847	0.2691
187.2029	0.1406
187.4211	-0.0273
187.6393	-0.0003
187.8575	0.0516
188.0757	0.0166
188.2939	0.1703
188.512	0.0633
188.7302	0.0307
188.9483	0.2143
189.1665	0.0948
189.3846	0.2363
189.6027	0.3251
189.8208	0.0557
190.0389	0.1763
190.257	0.1042
190.475	0.3017
190.6931	0.4373
190.9111	0.1747
191.1292	0.1987
191.3472	0.2973
191.5652	0.3254
191.7832	0.9847
192.0012	0.5025
192.2192	0.5791
192.4371	0.3319
192.6551	0.5386
192.873	0.5049
193.091	0.5185
193.3089	0.4455
193.5268	0.5811
193.7447	0.6634
193.9626	0.7954
194.1805	0.6746
194.3984	0.4043
194.6162	0.5151
194.8341	0.4446
195.0519	0.762
195.2697	0.7346
195.4875	0.6571
195.7054	0.6324
195.9231	0.4353
196.1409	0.6365
196.3587	0.559
196.5765	0.6577
196.7942	0.6168
197.012	0.7594
197.2297	0.776
197.4474	0.6773
197.6651	0.846
197.8828	0.8537
198.1005	0.6258
198.3182	0.9657
198.5358	0.7803
198.7535	0.6308
198.9711	0.7407
199.1888	0.6055
199.4064	0.9687
199.624	0.8436
199.8416	1.022
200.0592	0.9966
200.2767	0.6198
200.4943	0.7568
200.7119	0.7558
200.9294	0.733
201.1469	1.0402
201.3645	0.7662
201.582	0.7759
201.7995	1.0482
202.017	0.8217
202.2344	0.6244
202.4519	0.7567
202.6694	1.1899
202.8868	0.7321
203.1042	0.7491
203.3217	0.7392
203.5391	1.0005
203.7565	0.7677
203.9739	0.739
204.1913	0.8677
204.4086	1.0235
204.626	0.9311
204.8433	1.002
205.0607	0.779
205.278	1.1009
205.4953	0.7522
205.7126	0.7303
205.9299	0.8619
206.1472	0.8229
206.3644	0.6618
206.5817	0.7887
206.7989	0.7241
207.0162	0.7152
207.2334	0.8555
207.4506	0.7668
207.6678	0.6959
207.885	0.902
208.1022	0.7833
208.3194	0.7722
208.5365	0.7505
208.7537	0.8537
208.9708	0.8474
209.1879	0.797
209.405	0.7457
209.6222	0.8027
209.8392	0.7893
210.0563	0.7742
210.2734	0.8044
210.4905	0.8229
210.7075	0.7959
210.9245	0.7903
211.1416	0.8265
211.3586	0.8635
211.5756	0.8567
211.7926	0.7466
212.0096	0.7588
212.2265	0.6687
212.4435	0.724
212.6604	0.7425
212.8774	0.7995
213.0943	0.7935
213.3112	0.7689
213.5281	0.6551
213.745	0.7008
213.9619	0.774
214.1788	0.7437
214.3956	0.6817
214.6125	0.5893
214.8293	0.6886
215.0461	0.7369
215.2629	0.7135
215.4798	0.6339
215.6965	0.7226
215.9133	0.6432
216.1301	0.5906
216.3469	0.6757
216.5636	0.6906
216.7803	0.6379
216.9971	0.6184
217.2138	0.6466
217.4305	0.6338
217.6472	0.6383
217.8639	0.6246
218.0805	0.669
218.2972	0.571
218.5138	0.6184
218.7305	0.6256
218.9471	0.6014
219.1637	0.5959
219.3803	0.569
219.5969	0.5901
219.8135	0.5958
220.0301	0.5914
220.2466	0.5584
220.4632	0.5313
220.6797	0.5683
220.8962	0.5742
221.1127	0.5427
221.3292	0.5331
221.5457	0.5758
221.7622	0.567
221.9787	0.5482
222.1951	0.5515
222.4116	0.553
222.628	0.6074
222.8444	0.5752
223.0608	0.571
223.2772	0.553
223.4936	0.5724
223.71	0.5814
223.9264	0.5526
224.1427	0.5809
224.3591	0.5683
224.5754	0.5655
224.7917	0.5471
225.008	0.5867
225.2243	0.5652
225.4406	0.5729
225.6569	0.5989
225.8732	0.5968
226.0894	0.5528
226.3057	0.5786
226.5219	0.5356
226.7381	0.5966
226.9543	0.6117
227.1705	0.5851
227.3867	0.5732
227.6029	0.5354
227.8191	0.5554
228.0352	0.6151
228.2513	0.5874
228.4675	0.6261
228.6836	0.6148
228.8997	0.551
229.1158	0.5968
229.3319	0.5736
229.548	0.6238
229.764	0.5862
229.9801	0.5765
230.1961	0.6067
230.4121	0.5851
230.6282	0.567
230.8442	0.5796
231.0602	0.5517
231.2761	0.5671
231.4921	0.5909
231.7081	0.5332
231.924	0.6401
232.14	0.5793
232.3559	0.5921
232.5718	0.5896
232.7877	0.5604
233.0036	0.573
233.2195	0.5622
233.4353	0.5714
233.6512	0.5998
233.867	0.585
234.0829	0.5692
234.2987	0.5995
234.5145	0.5759
234.7303	0.5751
234.9461	0.5847
235.1619	0.5845
235.3776	0.5778
235.5934	0.5426
235.8091	0.5778
236.0249	0.5321
236.2406	0.5572
236.4563	0.5777
236.672	0.5483
236.8877	0.5619
237.1034	0.5517
237.319	0.5552
237.5347	0.5755
237.7503	0.535
237.966	0.5521
238.1816	0.5616
238.3972	0.5755
238.6128	0.5337
238.8284	0.5553
239.0439	0.5306
239.2595	0.5353
239.475	0.5305
239.6906	0.533
239.9061	0.517
240.1216	0.5356
240.3371	0.5376
240.5526	0.5525
240.7681	0.5332
240.9836	0.5553
241.199	0.5043
241.4145	0.5316
241.6299	0.4669
241.8453	0.4751
242.0607	0.5115
242.2761	0.4893
242.4915	0.4656
242.7069	0.4534
242.9223	0.4441
243.1376	0.4373
243.353	0.4292
243.5683	0.4415
243.7836	0.4076
243.9989	0.4187
244.2142	0.4245
244.4295	0.3901
244.6448	0.3906
244.86	0.3968
245.0753	0.3702
245.2905	0.3673
245.5057	0.3618
245.721	0.3697
245.9362	0.3548
246.1514	0.3339
246.3665	0.3212
246.5817	0.3342
246.7969	0.3219
247.012	0.3217
247.2271	0.3207
247.4423	0.2921
247.6574	0.2917
247.8725	0.2982
248.0876	0.2998
248.3026	0.2771
248.5177	0.2937
248.7328	0.2899
248.9478	0.2738
249.1628	0.259
249.3779	0.2575
249.5929	0.2636
249.8079	0.2558
250.0228	0.2494
250.2378	0.248
250.4528	0.2524
250.6677	0.2314
250.8827	0.236
251.0976	0.2394
251.3125	0.2348
251.5274	0.2382
251.7423	0.2334
251.9572	0.2212
252.172	0.2272
252.3869	0.2235
252.6017	0.2188
252.8166	0.2205
253.0314	0.2054
253.2462	0.2258
253.461	0.2108
253.6758	0.2094
253.8906	0.2037
254.1053	0.2093
254.3201	0.21
254.5348	0.2064
254.7496	0.2016
254.9643	0.1993
255.179	0.2019
255.3937	0.2043
255.6083	0.1901
255.823	0.1929
256.0377	0.1854
256.2523	0.191
256.467	0.2002
256.6816	0.1935
256.8962	0.1851
257.1108	0.1978
257.3254	0.2009
257.54	0.1984
257.7545	0.1922
257.9691	0.2054
258.1836	0.1927
258.3981	0.1938
258.6127	0.2011
258.8272	0.1949
259.0417	0.187
259.2561	0.1774
259.4706	0.193
259.6851	0.1957
259.8995	0.1905
260.114	0.1725
260.3284	0.1838
260.5428	0.1986
260.7572	0.2055
260.9716	0.1962
261.186	0.1985
261.4003	0.1993
261.6147	0.1985
261.829	0.2007
262.0433	0.1752
262.2577	0.18
262.472	0.1982
262.6863	0.1952
262.9005	0.178
263.1148	0.1932
263.3291	0.1957
263.5433	0.1836
263.7576	0.1998
263.9718	0.183
264.186	0.1823
264.4002	0.1794
264.6144	0.1914
264.8286	0.1878
265.0427	0.1841
265.2569	0.1929
265.471	0.188
265.6851	0.1812
265.8993	0.1758
266.1134	0.1807
266.3275	0.1852
266.5415	0.1871
266.7556	0.1815
266.9697	0.193
267.1837	0.1815
267.3978	0.1829
267.6118	0.186
267.8258	0.1881
268.0398	0.1919
268.2538	0.1849
268.4677	0.1874
268.6817	0.1812
268.8957	0.203
269.1096	0.1818
269.3235	0.1737
269.5374	0.1729
269.7514	0.1673
269.9652	0.1939
270.1791	0.1789
270.393	0.169
270.6068	0.1838
270.8207	0.187
271.0345	0.1612
271.2483	0.1799
271.4622	0.1815
271.676	0.1773
271.8897	0.1831
272.1035	0.1643
272.3173	0.1583
272.531	0.1626
272.7448	0.1737
272.9585	0.1686
273.1722	0.1829
273.3859	0.1767
273.5996	0.1667
273.8133	0.1685
274.0269	0.1674
274.2406	0.1634
274.4542	0.168
274.6679	0.1723
274.8815	0.1578
275.0951	0.1773
275.3087	0.1716
275.5223	0.1752
275.7358	0.1741
275.9494	0.1705
276.1629	0.169
276.3765	0.1608
276.59	0.1762
276.8035	0.1689
277.017	0.1567
277.2305	0.1798
277.444	0.1719
277.6574	0.1713
277.8709	0.1587
278.0843	0.1732
278.2978	0.1742
278.5112	0.1831
278.7246	0.1697
278.938	0.166
279.1513	0.1848
279.3647	0.1716
279.5781	0.1682
279.7914	0.1834
280.0047	0.1779
280.2181	0.1763
280.4314	0.1754
280.6447	0.1823
280.8579	0.1804
281.0712	0.1835
281.2845	0.1856
281.4977	0.1745
281.711	0.1764
281.9242	0.1743
282.1374	0.1777
282.3506	0.1862
282.5638	0.1813
282.7769	0.1766
282.9901	0.1852
283.2033	0.1732
283.4164	0.1755
283.6295	0.1708
283.8426	0.1773
284.0557	0.1862
284.2688	0.1785
284.4819	0.1782
284.695	0.1838
284.908	0.1924
285.1211	0.1807
285.3341	0.1722
285.5471	0.1868
285.7601	0.1849
285.9731	0.1946
286.1861	0.1933
286.3991	0.1779
286.612	0.1956
286.825	0.1855
287.0379	0.2008
287.2508	0.1833
287.4637	0.1878
287.6766	0.1714
287.8895	0.1922
288.1024	0.1913
288.3152	0.1917
288.5281	0.1838
288.7409	0.1917
288.9538	0.1865
289.1666	0.1882
289.3794	0.1801
289.5922	0.1848
289.8049	0.1773
290.0177	0.1841
290.2304	0.1779
290.4432	0.1746
290.6559	0.1874
290.8686	0.1984
291.0813	0.178
291.294	0.1948
291.5067	0.1856
291.7194	0.1856
291.932	0.1905
292.1447	0.1965
292.3573	0.1974
292.5699	0.2046
292.7825	0.1851
292.9951	0.1959
293.2077	0.1995
293.4203	0.1993
293.6328	0.1845
293.8454	0.1864
294.0579	0.1891
294.2704	0.1845
294.4829	0.1888
294.6954	0.1848
294.9079	0.1917
295.1204	0.1982
295.3328	0.1815
295.5453	0.1717
295.7577	0.1774
295.9701	0.1776
296.1825	0.1894
296.3949	0.1693
296.6073	0.1919
296.8197	0.1837
297.0321	0.1877
297.2444	0.1795
297.4567	0.1841
297.6691	0.181
297.8814	0.1819
298.0937	0.1968
298.306	0.181
298.5182	0.1796
298.7305	0.1948
298.9428	0.1858
299.155	0.1842
299.3672	0.1666
299.5794	0.1934
299.7916	0.1742
300.0038	0.178
300.216	0.174
300.4282	0.1865
300.6403	0.195
300.8525	0.192
301.0646	0.1863
301.2767	0.1818
301.4888	0.1864
301.7009	0.1896
301.913	0.1852
302.125	0.1778
302.3371	0.1907
302.5491	0.1805
302.7612	0.1808
302.9732	0.1798
303.1852	0.1791
303.3972	0.1838
303.6092	0.1797
303.8211	0.181
304.0331	0.1802
304.245	0.1834
304.457	0.183
304.6689	0.1782
304.8808	0.168
305.0927	0.1709
305.3046	0.1744
305.5164	0.1669
305.7283	0.1684
305.9401	0.1665
306.152	0.1507
306.3638	0.155
306.5756	0.1597
306.7874	0.1469
306.9992	0.1512
307.2109	0.1612
307.4227	0.1586
307.6344	0.1449
307.8462	0.1394
308.0579	0.1501
308.2696	0.1468
308.4813	0.1401
308.693	0.1586
308.9046	0.1382
309.1163	0.1441
309.328	0.141
309.5396	0.1461
309.7512	0.1404
309.9628	0.1315
310.1744	0.1346
310.386	0.1221
310.5976	0.1282
310.8091	0.1272
311.0207	0.1164
311.2322	0.1256
311.4437	0.1367
311.6552	0.1236
311.8667	0.1199
312.0782	0.1254
312.2897	0.1162
312.5012	0.1206
312.7126	0.1331
312.924	0.1113
313.1355	0.1236
313.3469	0.1099
313.5583	0.1162
313.7696	0.1193
313.981	0.1132
314.1924	0.1193
314.4037	0.1061
314.6151	0.1132
314.8264	0.1192
315.0377	0.1153
315.249	0.1085
315.4603	0.1054
315.6716	0.1009
315.8828	0.1039
316.0941	0.0873
316.3053	0.0998
316.5165	0.1135
316.7277	0.1049
316.9389	0.1024
317.1501	0.1045
317.3613	0.0888
317.5724	0.1105
317.7836	0.108
317.9947	0.1047
318.2058	0.107
318.417	0.1096
318.6281	0.0976
318.8391	0.1077
319.0502	0.0983
319.2613	0.1191
319.4723	0.1016
319.6834	0.1031
319.8944	0.1007
320.1054	0.102
320.3164	0.0995
320.5274	0.0899
320.7383	0.1116
320.9493	0.104
321.1602	0.1117
321.3712	0.1008
321.5821	0.1032
321.793	0.1025
322.0039	0.09
322.2148	0.1033
322.4257	0.0973
322.6365	0.1058
322.8474	0.099
323.0582	0.1187
323.269	0.1094
323.4798	0.1035
323.6906	0.0906
323.9014	0.0981
324.1122	0.1061
324.3229	0.103
324.5337	0.1039
324.7444	0.111
324.9551	0.108
325.1658	0.1108
325.3765	0.106
325.5872	0.0986
325.7979	0.1079
326.0085	0.0945
326.2192	0.0909
326.4298	0.1104
326.6404	0.1115
326.851	0.1073
327.0616	0.1046
327.2722	0.1045
327.4828	0.1256
327.6933	0.0953
327.9039	0.1085
328.1144	0.1078
328.3249	0.0958
328.5354	0.1014
328.7459	0.1149
328.9564	0.0974
329.1669	0.107
329.3773	0.1075
329.5878	0.1035
329.7982	0.1036
330.0086	0.0975
330.219	0.0937
330.4294	0.0989
330.6398	0.104
330.8502	0.1091
331.0605	0.1196
331.2708	0.0991
331.4812	0.0975
331.6915	0.1095
331.9018	0.1079
332.1121	0.1084
332.3224	0.112
332.5326	0.1032
332.7429	0.106
332.9531	0.1049
333.1633	0.1137
333.3735	0.1021
333.5837	0.1051
333.7939	0.0982
334.0041	0.1189
334.2143	0.1102
334.4244	0.1099
334.6346	0.0885
334.8447	0.1198
335.0548	0.1214
335.2649	0.1119
335.475	0.1059
335.685	0.0986
335.8951	0.1067
336.1051	0.1103
336.3152	0.1154
336.5252	0.1018
336.7352	0.1163
336.9452	0.1224
337.1552	0.1244
337.3652	0.1166
337.5751	0.1199
337.7851	0.1007
337.995	0.1259
338.2049	0.1028
338.4148	0.1163
338.6247	0.1081
338.8346	0.1151
339.0445	0.1126
339.2543	0.11
339.4642	0.1176
339.674	0.1191
339.8838	0.12
340.0936	0.124
340.3034	0.1251
340.5132	0.1222
340.7229	0.1171
340.9327	0.1127
341.1424	0.1205
341.3522	0.1069
341.5619	0.1135
341.7716	0.1265
341.9813	0.118
342.1909	0.1072
342.4006	0.1274
342.6102	0.1154
342.8199	0.1265
343.0295	0.1202
343.2391	0.1135
343.4487	0.1264
343.6583	0.1231
343.8679	0.1369
344.0774	0.1302
344.287	0.1139
344.4965	0.1372
344.706	0.1276
344.9155	0.1256
345.125	0.1255
345.3345	0.1256
345.544	0.1412
345.7534	0.1255
345.9629	0.1261
346.1723	0.1312
346.3817	0.1334
346.5911	0.124
346.8005	0.1272
347.0099	0.1312
347.2193	0.1226
347.4286	0.1364
347.638	0.1286
347.8473	0.1294
348.0566	0.1421
348.2659	0.1332
348.4752	0.1426
348.6845	0.1298
348.8937	0.1408
349.103	0.1252
349.3122	0.1393
349.5214	0.1354
349.7306	0.1446
349.9398	0.144
350.149	0.132
350.3582	0.1343
350.5674	0.1539
350.7765	0.131
350.9856	0.1417
351.1948	0.1337
351.4039	0.1607
351.613	0.1423
351.822	0.1478
352.0311	0.1527
352.2402	0.1409
352.4492	0.1447
352.6582	0.1363
352.8672	0.1425
353.0762	0.16
353.2852	0.1494
353.4942	0.1474
353.7032	0.1534
353.9121	0.1501
354.1211	0.1457
354.33	0.1507
354.5389	0.1469
354.7478	0.1608
354.9567	0.1587
355.1655	0.1552
355.3744	0.1539
355.5833	0.1747
355.7921	0.1442
356.0009	0.1621
356.2097	0.1498
356.4185	0.1368
356.6273	0.1544
356.8361	0.1633
357.0448	0.1522
357.2536	0.1461
357.4623	0.1566
357.671	0.1738
357.8797	0.1776
358.0884	0.1708
358.2971	0.1671
358.5057	0.1631
358.7144	0.149
358.923	0.1698
359.1316	0.1673
359.3402	0.1816
359.5488	0.1765
359.7574	0.1863
359.966	0.1702
360.1746	0.173
360.3831	0.1739
360.5916	0.1915
360.8002	0.1893
361.0087	0.1886
361.2172	0.1831
361.4256	0.1833
361.6341	0.193
361.8426	0.1803
362.051	0.1778
362.2594	0.1824
362.4678	0.1859
362.6762	0.179
362.8846	0.1751
363.093	0.1879
363.3014	0.1872
363.5097	0.1895
363.718	0.1896
363.9264	0.2008
364.1347	0.1911
364.343	0.1936
364.5513	0.2053
364.7595	0.1944
364.9678	0.1915
365.176	0.2106
365.3842	0.2135
365.5925	0.1747
365.8007	0.2115
366.0089	0.1993
366.217	0.1958
366.4252	0.2014
366.6333	0.1971
366.8415	0.1981
367.0496	0.1974
367.2577	0.2326
367.4658	0.209
367.6739	0.2256
367.882	0.2098
368.09	0.2168
368.2981	0.2019
368.5061	0.2203
368.7141	0.2008
368.9221	0.214
369.1301	0.2115
369.3381	0.2243
369.5461	0.2307
369.754	0.2075
369.962	0.2186
370.1699	0.2167
370.3778	0.2339
370.5857	0.2179
370.7936	0.2264
371.0015	0.2264
371.2093	0.2287
371.4172	0.2201
371.625	0.2238
371.8328	0.2301
372.0406	0.2366
372.2484	0.225
372.4562	0.2388
372.664	0.2311
372.8717	0.2242
373.0795	0.226
373.2872	0.2309
373.4949	0.2344
373.7026	0.2594
373.9103	0.235
374.118	0.2153
374.3256	0.2506
374.5333	0.2265
374.7409	0.2253
374.9485	0.2365
375.1561	0.246
375.3637	0.2216
375.5713	0.2472
375.7789	0.2464
375.9864	0.2436
376.194	0.2348
376.4015	0.2402
376.609	0.2416
376.8165	0.2309
377.024	0.2502
377.2315	0.2288
377.4389	0.2365
377.6464	0.2408
377.8538	0.2441
378.0612	0.2523
378.2686	0.2491
378.476	0.2551
378.6834	0.2533
378.8908	0.2427
379.0981	0.2592
379.3055	0.2687
379.5128	0.2427
379.7201	0.2549
379.9274	0.2549
380.1347	0.2494
380.342	0.2518
380.5492	0.2551
380.7565	0.2635
380.9637	0.2523
381.1709	0.2587
381.3781	0.273
381.5853	0.2624
381.7925	0.2702
381.9997	0.2678
382.2068	0.2648
382.4139	0.2552
382.6211	0.2757
382.8282	0.268
383.0353	0.2623
383.2424	0.2819
383.4494	0.2656
383.6565	0.2561
383.8635	0.2727
384.0706	0.2873
384.2776	0.2808
384.4846	0.2588
384.6916	0.2767
384.8986	0.2593
385.1055	0.2521
385.3125	0.2726
385.5194	0.2649
385.7263	0.2656
385.9333	0.2685
386.1402	0.2666
386.347	0.274
386.5539	0.2634
386.7608	0.2745
386.9676	0.2517
387.1744	0.2667
387.3813	0.2626
387.5881	0.2476
387.7948	0.2652
388.0016	0.2539
388.2084	0.2614
388.4151	0.2522
388.6219	0.2662
388.8286	0.2499
389.0353	0.2601
389.242	0.2535
389.4487	0.2804
389.6553	0.2492
389.862	0.2633
390.0686	0.2567
390.2753	0.2663
390.4819	0.2563
390.6885	0.2513
390.8951	0.2606
391.1016	0.2664
391.3082	0.2443
391.5147	0.2485
391.7213	0.2418
391.9278	0.2405
392.1343	0.2353
392.3408	0.2317
392.5473	0.2395
392.7537	0.2493
392.9602	0.2458
393.1666	0.2433
393.373	0.2282
393.5794	0.2494
393.7858	0.2321
393.9922	0.246
394.1986	0.2515
394.4049	0.2161
394.6113	0.2171
394.8176	0.2407
395.0239	0.2487
395.2302	0.2431
395.4365	0.2314
395.6428	0.2442
395.8491	0.2158
396.0553	0.2352
396.2615	0.219
396.4678	0.2297
396.674	0.2313
396.8802	0.2372
397.0863	0.2284
397.2925	0.2162
397.4987	0.2277
397.7048	0.2273
397.9109	0.233
398.117	0.2052
398.3231	0.2223
398.5292	0.2376
398.7353	0.2272
398.9413	0.2149
399.1474	0.2311
399.3534	0.2224
399.5594	0.2304
399.7654	0.2226
399.9714	0.2123
400.1774	0.2276
400.3833	0.2237
400.5893	0.2173
400.7952	0.2229
401.0011	0.2365
401.207	0.2228
401.4129	0.2191
401.6188	0.2231
401.8247	0.2251
402.0305	0.2316
402.2364	0.2329
402.4422	0.212
402.648	0.2145
402.8538	0.2288
403.0596	0.2248
403.2654	0.2263
403.4711	0.2139
403.6768	0.2134
403.8826	0.2179
404.0883	0.2218
404.294	0.2256
404.4997	0.2022
404.7054	0.2243
404.911	0.2216
405.1167	0.2123
405.3223	0.2266
405.5279	0.2339
405.7335	0.2356
405.9391	0.2323
406.1447	0.2358
406.3502	0.2158
406.5558	0.2228
406.7613	0.234
406.9668	0.2255
407.1724	0.2221
407.3778	0.2222
407.5833	0.2193
407.7888	0.2299
407.9942	0.2163
408.1997	0.231
408.4051	0.2192
408.6105	0.2026
408.8159	0.2095
409.0213	0.217
409.2267	0.2237
409.432	0.2412
409.6374	0.214
409.8427	0.2098
410.048	0.2133
410.2533	0.2237
410.4586	0.1946
410.6639	0.2391
410.8691	0.2044
411.0744	0.2182
411.2796	0.2156
411.4848	0.2251
411.69	0.2235
411.8952	0.2258
412.1004	0.2101
412.3056	0.2286
412.5107	0.2115
412.7158	0.2183
412.921	0.2179
413.1261	0.2321
413.3312	0.2133
413.5362	0.215
413.7413	0.226
413.9464	0.217
414.1514	0.2167
414.3564	0.2041
414.5614	0.1993
414.7664	0.2085
414.9714	0.2356
415.1764	0.2137
415.3813	0.2127
415.5863	0.2315
415.7912	0.2062
415.9961	0.2386
416.201	0.2034
416.4059	0.2022
416.6108	0.2192
416.8156	0.2229
417.0205	0.2006
417.2253	0.1967
417.4301	0.2073
417.6349	0.2048
417.8397	0.1998
418.0445	0.2186
418.2492	0.2086
418.454	0.2108
418.6587	0.2064
418.8634	0.2135
419.0681	0.2238
419.2728	0.2083
419.4775	0.2217
419.6822	0.2185
419.8868	0.2141
420.0915	0.1873
420.2961	0.203
420.5007	0.1991
420.7053	0.2131
420.9099	0.1942
421.1144	0.2161
421.319	0.2069
421.5235	0.2175
421.728	0.194
421.9325	0.2099
422.137	0.1899
422.3415	0.1933
422.546	0.179
422.7504	0.2122
422.9549	0.2087
423.1593	0.1908
423.3637	0.214
423.5681	0.1773
423.7725	0.1737
423.9769	0.2087
424.1812	0.1963
424.3856	0.1888
424.5899	0.1983
424.7942	0.2045
424.9985	0.198
425.2028	0.166
425.4071	0.1827
425.6113	0.1749
425.8156	0.1872
426.0198	0.1963
426.224	0.1633
426.4282	0.1945
426.6324	0.1758
426.8366	0.1868
427.0407	0.1715
427.2449	0.1783
427.449	0.1841
427.6531	0.1629
427.8572	0.1883
428.0613	0.1824
428.2654	0.1467
428.4694	0.1686
428.6735	0.169
428.8775	0.1786
429.0815	0.1623
429.2855	0.1734
429.4895	0.1604
429.6935	0.1563
429.8975	0.1546
430.1014	0.1472
430.3053	0.1586
430.5093	0.1563
430.7132	0.1458
430.9171	0.1422
431.1209	0.1516
431.3248	0.166
431.5286	0.1407
431.7325	0.1451
431.9363	0.139
432.1401	0.1363
432.3439	0.1401
432.5477	0.158
432.7514	0.1488
432.9552	0.1449
433.1589	0.1406
433.3627	0.1364
433.5664	0.1299
433.7701	0.1211
433.9737	0.1221
434.1774	0.131
434.3811	0.1173
434.5847	0.1299
434.7883	0.1244
434.9919	0.1193
435.1955	0.113
435.3991	0.1204
435.6027	0.1112
435.8062	0.1278
436.0098	0.102
436.2133	0.09
436.4168	0.1069
436.6203	0.1133
436.8238	0.0951
437.0272	0.0887
437.2307	0.1165
437.4341	0.1076
437.6375	0.0982
437.841	0.0906
438.0443	0.0981
438.2477	0.1032
438.4511	0.0862
438.6545	0.0954
438.8578	0.1017
439.0611	0.0977
439.2644	0.0857
439.4677	0.0843
439.671	0.0812
439.8743	0.076
440.0775	0.087
440.2808	0.0784
440.484	0.0678
440.6872	0.0934
440.8904	0.0864
441.0936	0.0714
441.2967	0.0829
441.4999	0.0547
441.703	0.0816
441.9062	0.075
442.1093	0.0739
442.3124	0.073
442.5155	0.0573
442.7185	0.0893
442.9216	0.0614
443.1246	0.0748
443.3276	0.0669
443.5307	0.0677
443.7337	0.0557
443.9366	0.0584
444.1396	0.0642
444.3426	0.0398
444.5455	0.0535
444.7484	0.0557
444.9513	0.0568
445.1542	0.0573
445.3571	0.0561
445.56	0.0508
445.7628	0.0621
445.9657	0.0473
446.1685	0.0423
446.3713	0.0475
446.5741	0.0571
446.7769	0.0535
446.9797	0.0409
447.1824	0.0233
447.3852	0.0611
447.5879	0.041
447.7906	0.0396
447.9933	0.0457
448.196	0.0474
448.3986	0.0529
448.6013	0.0291
448.8039	0.0456
449.0066	0.0261
449.2092	0.0352
449.4118	0.0495
449.6143	0.0354
449.8169	0.0328
450.0195	0.0093
450.222	0.0279
450.4245	0.0211
450.627	0.0228
450.8295	0.0355
451.032	0.0166
451.2345	0.0341
451.4369	0.031
451.6394	0.0366
451.8418	0.0031
452.0442	0.0105
452.2466	0.0059
452.449	0.0393
452.6513	0.0282
452.8537	0.0228
453.056	0.0022
453.2583	0.0201
453.4607	0.0149
453.663	0.0269
453.8652	0.0373
454.0675	-0.0018
454.2697	0.0196
454.472	0.0304
454.6742	0.0298
454.8764	-0.0004
455.0786	-0.0012
455.2808	0.0031
455.4829	0.0179
455.6851	0.0212
455.8872	0.0298
456.0893	0.0202
456.2915	0.0142
456.4935	0.0029
456.6956	0.0147
456.8977	-0.0008
457.0997	0.0276
457.3018	0.0171
457.5038	0.0194
457.7058	0.0236
457.9078	0.0162
458.1098	0.0114
458.3117	0.0285
458.5137	0.0197
458.7156	0.0161
458.9175	0.0091
459.1194	0.0037
459.3213	0.0197
459.5232	-0.0051
459.725	0.0005
459.9269	0.003
460.1287	0.0166
460.3305	0.0023
460.5323	0.0233
460.7341	0.0083
460.9359	0.0135
461.1376	0.0109
461.3394	-0.0135
461.5411	0.0045
461.7428	0.0203
461.9445	0.0139
462.1462	0.0312
462.3479	-0.0112
462.5495	0.0073
462.7512	-0.0002
462.9528	-0
463.1544	0.0085
463.356	0.0111
463.5576	-0.0025
463.7592	-0.0094
463.9607	0.0277
464.1623	-0.0064
464.3638	0.0114
464.5653	-0.0043
464.7668	0.0009
464.9683	0.0129
465.1697	0.0194
465.3712	0.0069
465.5726	0.0058
465.7741	0.0224
465.9755	-0.0132
466.1769	-0.0019
466.3782	0.0174
466.5796	-0.0072
466.7809	-0.0005
466.9823	-0.0035
467.1836	0.0281
467.3849	0.0243
467.5862	-0.006
467.7875	0.0111
467.9887	-0.0053
468.19	-0.0037
468.3912	0.0083
468.5924	0.0015
468.7936	0.0054
468.9948	-0.0076
469.196	-0.008
469.3972	-0.0054
469.5983	0.0017
469.7994	-0.004
470.0006	-0.0127
470.2017	0.0058
470.4027	0.0026
470.6038	-0.0079
470.8049	-0.0022
471.0059	-0.0046
471.2069	0.0007
471.408	-0.0003
471.6089	-0.0073
471.8099	-0.0034
472.0109	0.0105
472.2119	0.0113
472.4128	-0.0099
472.6137	-0.0009
472.8146	-0.0138
473.0155	-0.0102
473.2164	0.0093
473.4173	0.0069
473.6181	-0.0034
473.819	0.0084
474.0198	-0.0083
474.2206	-0.0085
474.4214	-0.0043
474.6222	0.0184
474.8229	-0.0047
475.0237	0.0147
475.2244	0.0056
475.4251	0.0064
475.6258	-0.0028
475.8265	-0.0092
476.0272	-0.0082
476.2278	-0.0049
476.4285	-0.003
476.6291	-0.0039
476.8297	0.0072
477.0303	-0.0054
477.2309	0.0004
477.4315	-0.0072
477.632	0.0027
477.8326	-0.0028
478.0331	-0.0161
478.2336	-0.002
478.4341	-0.0105
478.6346	-0.0072
478.8351	0.01
479.0355	-0.0128
479.236	-0.0228
479.4364	-0.0036
479.6368	0.0087
479.8372	-0.0001
480.0376	-0.0072
480.2379	-0.0089
480.4383	-0.0165
480.6386	-0.0003
480.8389	-0.0085
481.0392	0.0028
481.2395	-0.0038
481.4398	-0.0111
481.6401	-0.0042
481.8403	0.0024
482.0405	-0.013
482.2408	-0.0151
482.441	-0.0174
482.6411	-0.0147
482.8413	-0.0029
483.0415	0.0017
483.2416	-0.0232
483.4417	0.003
483.6419	-0.0081
483.8419	-0.0074
484.042	0.0036
484.2421	-0.0055
484.4422	-0.0063
484.6422	0.0018
484.8422	-0.0032
485.0422	-0.0064
485.2422	-0.012
485.4422	-0.0115
485.6422	-0.0096
485.8421	-0.0021
486.042	-0.0069
486.242	-0.0053
486.4419	-0.0016
486.6417	0.0037
486.8416	-0.0169
487.0415	-0.0012
487.2413	-0.0072
487.4411	-0.0009
487.641	0.0052
487.8408	-0.0072
488.0405	0.0011
488.2403	0.0045
488.4401	0.0035
488.6398	-0.0051
488.8395	-0.0076
489.0392	-0.0118
489.2389	-0.0135
489.4386	-0.0097
489.6383	-0.0072
489.8379	-0.0048
490.0376	-0.0112
490.2372	-0.0087
490.4368	-0.0148
490.6364	0.0011
490.836	-0.0125
491.0355	-0.0124
491.2351	-0.0092
491.4346	-0.0177
491.6341	-0.0029
491.8336	-0.0089
492.0331	-0.0058
492.2326	-0.005
492.432	-0.0056
492.6315	0.0031
492.8309	-0.007
493.0303	-0.0041
493.2297	-0.0062
493.4291	-0.006
493.6284	-0.0189
493.8278	-0.0119
494.0271	0.0022
494.2264	-0.0103
494.4257	-0.0058
494.625	-0.0062
494.8243	-0.0041
495.0236	-0.0183
495.2228	0.0026
495.422	-0.0037
495.6213	-0.0054
495.8205	-0.0108
496.0196	-0.0185
496.2188	-0.0095
496.418	-0.0129
496.6171	-0.0067
496.8162	-0.0157
497.0153	-0.004
497.2144	-0.0002
497.4135	-0.0017
497.6126	-0.0173
497.8116	-0.0145
498.0107	-0.0097
498.2097	-0.0208
498.4087	-0.0183
498.6077	-0.0132
498.8067	0.0058
499.0056	-0.0022
499.2046	0.0014
499.4035	-0.0108
499.6024	-0.0134
499.8013	-0.0166
500.0002	-0.0029
500.199	-0.0089
500.3979	-0.0084
500.5967	0.0005
500.7956	-0.0034
500.9944	-0.0174
501.1932	-0.0077
501.3919	-0.0079
501.5907	-0.0049
501.7895	-0.0202
501.9882	-0.0148
502.1869	-0.0165
502.3856	-0.0246
502.5843	-0.0128
502.783	-0.0043
502.9816	-0.0024
503.1803	-0.0115
503.3789	-0.007
503.5775	-0.0112
503.7761	-0.0078
503.9747	-0.0156
504.1732	-0.008
504.3718	-0.0031
504.5703	-0.002
504.7689	-0.0068
504.9674	-0.0104
505.1658	-0.0038
505.3643	-0.0055
505.5628	-0.0006
505.7612	-0.0049
505.9597	0.005
506.1581	0.0048
506.3565	-0.0069
506.5549	-0.0014
506.7532	-0.0017
506.9516	-0.0099
507.1499	-0.011
507.3482	-0.0051
507.5465	0.0001
507.7448	-0.0001
507.9431	-0.0024
508.1414	-0.0157
508.3396	-0.0045
508.5379	-0.0076
508.7361	-0.0046
508.9343	-0.0067
509.1325	0.0009
509.3306	-0.02
509.5288	-0.0116
509.7269	0.0018
509.9251	0.0027
510.1232	-0.0084
510.3213	0.0002
510.5193	-0.003
510.7174	-0.0131
510.9154	0.0101
511.1135	-0.0181
511.3115	-0.011
511.5095	-0.0013
511.7075	-0.0033
511.9055	-0.0046
512.1034	-0.0006
512.3014	-0.0099
512.4993	0.006
512.6972	-0.0054
512.8951	-0.0021
513.093	-0.0069
513.2908	-0.0116
513.4887	-0.001
513.6865	-0.0019
513.8844	0.0036
514.0822	-0.0009
514.2799	0.0048
514.4777	0.0014
514.6755	0.0066
514.8732	-0.0059
515.0709	-0.0055
515.2687	0.0095
515.4664	0.004
515.664	-0.0148
515.8617	-0.0075
516.0594	0.0029
516.257	-0.0088
516.4546	-0.0126
516.6522	-0.0069
516.8498	-0.0128
517.0474	0.0029
517.2449	-0.0149
517.4425	-0.0006
517.64	-0.0141
517.8375	-0.0055
518.035	-0.0087
518.2325	-0.0186
518.43	-0.012
518.6274	-0.0066
518.8249	0.0007
519.0223	-0.0057
519.2197	-0.0104
519.4171	0.0071
519.6145	0.0027
519.8118	0.0028
520.0092	-0.0022
520.2065	-0.0149
520.4038	-0.015
520.6011	-0.0088
520.7984	-0.0029
520.9956	-0.0013
521.1929	-0.0105
521.3901	-0.0003
521.5874	-0.0086
521.7846	-0.004
521.9818	-0.0063
522.1789	0.0055
522.3761	0.0005
522.5732	-0.0127
522.7704	0.0054
522.9675	-0.0026
523.1646	0.0062
523.3617	-0.0001
523.5587	0.002
523.7558	-0.0165
523.9528	-0.0031
524.1498	-0.0056
524.3468	-0.0059
524.5438	0.0008
524.7408	-0.01
524.9378	0.0043
525.1347	-0.0035
525.3316	0.0121
525.5285	-0.0068
525.7254	0.0023
525.9223	-0.0046
526.1192	-0.0039
526.316	0.0078
526.5129	0.0069
526.7097	0.0022
526.9065	0.0076
527.1033	-0.0015
527.3	-0.0115
527.4968	-0.0064
527.6935	-0.0029
527.8903	0.0008
528.087	0.0106
528.2837	-0.0004
528.4804	0.0041
528.677	-0.0056
528.8737	-0.0036
529.0703	0.0124
529.2669	0.0061
529.4635	0.003
529.6601	0.008
529.8567	0.005
530.0532	0.0115
530.2498	-0.0051
530.4463	0.0011
530.6428	-0.0046
530.8393	0.0082
531.0358	0.0025
531.2322	0.015
531.4287	-0.001
531.6251	0.0088
531.8215	-0.0067
532.0179	-0.0118
532.2143	0.0092
532.4107	-0
532.607	0.0014
532.8034	0.001
532.9997	-0.0035
533.196	-0.0067
533.3923	-0.0026
533.5886	0.0051
533.7848	-0.0054
533.9811	-0.0121
534.1773	-0.0094
534.3735	-0.0042
534.5697	-0.0054
534.7659	-0.0012
534.9621	0.0022
535.1582	-0.0046
535.3544	0.0054
535.5505	-0.0032
535.7466	-0.0025
535.9427	-0.0043
536.1387	-0.0116
536.3348	-0.0144
536.5308	-0.0128
536.7269	0.0019
536.9229	0.0033
537.1189	0.0003
537.3148	-0.0051
537.5108	0.0074
537.7068	-0.0028
537.9027	0.0027
538.0986	-0.0008
538.2945	-0.0053
538.4904	0.0058
538.6863	-0.0046
538.8821	0.0044
539.078	-0.0055
539.2738	0.0035
539.4696	-0.0063
539.6654	0.0068
539.8611	0.005
540.0569	-0.0026
540.2526	-0.0009
540.4484	0.0071
540.6441	-0.0006
540.8398	0.001
541.0355	0.0091
541.2311	-0.0029
541.4268	-0.0003
541.6224	0.0068
541.818	0.0056
542.0136	-0.0027
542.2092	0.0101
542.4048	0.0067
542.6003	0.0034
542.7959	0.0039
542.9914	0.003
543.1869	0.0009
543.3824	-0.0009
543.5779	0.0073
543.7734	0.0001
543.9688	0.0078
544.1642	-0.0068
544.3596	-0.0067
544.555	0.0052
544.7504	0.0092
544.9458	-0.0003
545.1411	-0.0011
545.3365	0.0054
545.5318	0.0069
545.7271	0.0059
545.9224	-0.0029
546.1177	0.0025
546.3129	-0.0029
546.5081	-0.0036
546.7034	0.0037
546.8986	0.0002
547.0938	0.0017
547.289	0.0047
547.4841	0.0045
547.6793	-0.0021
547.8744	0.0011
548.0695	0.0053
548.2646	0.0027
548.4597	0.002
548.6548	0.0034
548.8498	0.0027
549.0448	0.0041
549.2399	-0.0072
549.4349	-0.0008
549.6298	0.0087
549.8248	0.0059
550.0198	-0.0054
550.2147	0.0001
550.4096	-0.0037
550.6045	-0.0091
550.7994	-0.005
550.9943	-0.0014
551.1892	-0.0135
551.384	0.0013
551.5788	0.0012
551.7737	-0.0063
551.9685	0.0113
552.1632	-0.0008
552.358	0.0038
552.5528	0.0014
552.7475	-0.0093
552.9422	-0.0014
553.1369	-0.0014
553.3316	-0.005
553.5263	0.0101
553.7209	-0.0071
553.9156	0.0042
554.1102	-0.0073
554.3048	0.0084
554.4994	0.0077
554.694	0.0016
554.8885	-0.0051
555.0831	0.0041
555.2776	-0.0003
555.4721	0.0017
555.6666	-0.0007
555.8611	-0.0009
556.0555	0.0051
556.25	0.0059
556.4444	0.003
556.6388	0.0073
556.8332	0.0011
557.0276	0.002
557.222	0.0059
557.4163	0.006
557.6107	0.0225
557.805	0.0066
557.9993	-0.0029
558.1936	0.009
558.3879	0.0072
558.5821	0.007
558.7764	0.0057
558.9706	-0.006
559.1648	0.007
559.359	0.0054
559.5532	-0.0016
559.7473	0.0159
559.9415	0.0023
560.1356	0.0093
560.3297	-0.0016
560.5238	0.0043
560.7179	0.0086
560.9119	0.0028
561.106	0.0049
561.3	0.0097
561.494	0.0052
561.688	0.0091
561.882	0.0107
562.076	0.0055
562.2699	0.0037
562.4639	0.0025
562.6578	-0.0009
562.8517	0.0079
563.0456	0.0062
563.2395	-0.0001
563.4333	-0.0067
563.6272	-0.0029
563.821	0.0012
564.0148	0.0042
564.2086	-0.0134
564.4024	-0.0074
564.5961	0.0116
564.7899	0.0041
564.9836	0.005
565.1773	0.0136
565.371	0.0078
565.5647	-0.0047
565.7584	-0.0039
565.952	0.0022
566.1456	0.0056
566.3393	0.0105
566.5329	0.0007
566.7264	0.0067
566.92	0.005
567.1136	0.011
567.3071	0.0099
567.5006	0.0003
567.6941	0.0058
567.8876	0.0044
568.0811	0.0048
568.2745	0.0132
568.468	0.0126
568.6614	-0.0042
568.8548	0.0114
569.0482	0.0047
569.2416	0.0078
569.4349	0.0017
569.6283	-0.0003
569.8216	0.0058
570.0149	-0.0003
570.2082	0.0082
570.4015	0.0021
570.5947	0.0018
570.788	0.0152
570.9812	0.0063
571.1744	-0.0022
571.3676	0.0012
571.5608	0.0062
571.754	0.0088
571.9471	-0.0019
572.1402	0.0047
572.3333	-0.0002
572.5264	0.0013
572.7195	0.0031
572.9126	0.0052
573.1057	0.0062
573.2987	0.007
573.4917	-0.0016
573.6847	0.0031
573.8777	-0.002
574.0707	0.0053
574.2636	0.0037
574.4566	0.0034
574.6495	0.0076
574.8424	0.0046
575.0353	-0.0034
575.2281	0.0025
575.421	0.0054
575.6138	0.0002
575.8067	0.0032
575.9995	0.0064
576.1923	0.006
576.385	0.0077
576.5778	-0.0037
576.7706	0.015
576.9633	0.0006
577.156	0.0015
577.3487	-0.0037
577.5414	0.0038
577.734	-0.0052
577.9267	-0.0017
578.1193	0.0025
578.3119	0.0072
578.5045	0.0093
578.6971	0.0038
578.8897	-0.0039
579.0822	0.0031
579.2747	0.0058
579.4673	0.0043
579.6598	0.0145
579.8522	0.0018
580.0447	-0.0043
580.2372	0.0111
580.4296	0.0128
580.622	0.0079
580.8144	0.0106
581.0068	0.0063
581.1992	0.0032
581.3915	0.0064
581.5839	0.0066
581.7762	0.0053
581.9685	-0.0038
582.1608	0.0018
582.353	-0.0058
582.5453	-0.0049
582.7375	-0.0028
582.9298	0.0053
583.122	0.0062
583.3142	0.0069
583.5063	0.0054
583.6985	0.0052
583.8906	0.0038
584.0827	-0.0016
584.2749	0.0032
584.4669	0.0002
584.659	0.0023
584.8511	0.0023
585.0431	0.0021
585.2352	-0.0019
585.4272	-0.002
585.6192	0.0051
585.8111	-0.0074
586.0031	0.0025
586.195	-0.0003
586.387	0.0034
586.5789	0.0001
586.7708	0.0063
586.9627	0.0012
587.1545	0.0043
587.3464	0.0126
587.5382	-0.004
587.73	0.0066
587.9218	0.0038
588.1136	0.0014
588.3053	-0.0022
588.4971	0.0003
588.6888	0.0067
588.8805	0.0007
589.0722	0.0052
589.2639	0.0082
589.4556	-0.001
589.6472	0.0001
589.8389	0.0018
590.0305	0.0082
590.2221	0.0078
590.4137	0.0021
590.6052	0.0013
590.7968	0.0084
590.9883	0.005
591.1798	-0.0024
591.3713	0.0043
591.5628	-0.0034
591.7543	0.0092
591.9458	0.0101
592.1372	0.0017
592.3286	0.0029
592.52	0.0018
592.7114	0.0125
592.9028	0.0025
593.0941	0.0006
593.2855	-0.0013
593.4768	0.0062
593.6681	-0.0012
593.8594	-0.004
594.0506	-0.0035
594.2419	0.001
594.4331	-0.0006
594.6244	0.0019
594.8156	0.0034
595.0067	0.0029
595.1979	0.0027
595.3891	-0.0019
595.5802	0.0002
595.7713	-0.0034
595.9624	0.0056
596.1535	-0.0054
596.3446	0.0044
596.5357	0.0024
596.7267	0.0042
596.9177	0.0044
597.1087	0.0168
597.2997	0.0089
597.4907	0.0037
597.6817	0.0041
597.8726	0.0104
598.0635	-0
598.2544	0.0077
598.4453	0.0107
598.6362	0.0031
598.827	0.0021
599.0179	0.0048
599.2087	0.0022
599.3995	0.0074
599.5903	0.0062
599.7811	0.0051
599.9718	-0.0017
600.1626	0.0005
600.3533	0.0019
600.544	-0.0009
600.7347	0.0033
600.9254	-0.0032
601.116	-0.0015
601.3067	-0.0053
601.4973	0.0002
601.6879	0.0067
601.8785	0.0028
602.0691	0.0041
602.2596	0.0104
602.4502	0.0057
602.6407	-0.0051
602.8312	0.0045
603.0217	0.0037
603.2122	-0.0017
603.4027	0.0074
603.5931	0.0011
603.7835	0.0049
603.9739	0.0047
604.1643	0.0088
604.3547	0.0106
604.5451	0.0044
604.7354	0.0059
604.9257	0.0035
605.116	0.0027
605.3063	0.0072
605.4966	-0.0043
605.6869	0.0087
605.8771	0.0036
606.0673	0.0019
606.2575	-0.0008
606.4477	-0.0044
606.6379	0.0095
606.8281	0
607.0182	0.002
607.2083	0.0123
607.3985	0.0025
607.5885	-0.0048
607.7786	0.007
607.9687	0.0019
608.1587	0.0107
608.3488	0.004
608.5388	0.0087
608.7288	0.0047
608.9187	-0.0003
609.1087	0.006
609.2986	0.0055
609.4886	0.009
609.6785	0.0021
609.8684	0.0028
610.0582	0.0086
610.2481	0.0054
610.4379	0.0004
610.6278	0.0066
610.8176	0.0068
611.0074	0.0011
611.1971	0.0038
611.3869	0.0007
611.5766	0.0079
611.7664	0.008
611.9561	0.0069
612.1458	0.0038
612.3354	0.0084
612.5251	0.0049
612.7147	-0.0006
612.9044	0.0104
613.094	0.0025
613.2836	0.0117
613.4731	0.007
613.6627	0.0018
613.8522	0.0057
614.0417	0.0077
614.2313	0.0035
614.4207	0.0082
614.6102	0.0008
614.7997	0.0047
614.9891	0.0117
615.1785	0.0024
615.3679	0.0074
615.5573	0.0067
615.7467	0.0046
615.9361	0.0037
616.1254	-0.0024
616.3147	0.0029
616.504	0.0075
616.6933	0.0048
616.8826	0.0078
617.0718	0.004
617.2611	0.0065
617.4503	0.0126
617.6395	0.0028
617.8287	0.0124
618.0179	0.0053
618.207	0.0129
618.3961	0.0031
618.5853	0.0061
618.7744	0.0088
618.9634	0.0035
619.1525	0.0066
619.3416	0.0067
619.5306	0.0087
619.7196	0.0006
619.9086	0.0119
620.0976	0.0097
620.2866	0.0025
620.4755	0.0111
620.6645	0.0037
620.8534	0.0147
621.0423	0.0129
621.2312	0.0081
621.42	0.0126
621.6089	0.0144
621.7977	0.0101
621.9865	0.0117
622.1753	0.0098
622.3641	0.007
622.5529	0.0074
622.7416	0.0092
622.9303	0.0092
623.1191	0.0062
623.3078	0
623.4964	0.0062
623.6851	0.012
623.8737	0.0169
624.0624	0.0087
624.251	0.009
624.4396	0.0171
624.6282	0.0106
624.8167	0.0149
625.0053	0.005
625.1938	0.0132
625.3823	0.0067
625.5708	0.0065
625.7593	0.0058
625.9477	0.0115
626.1362	0.0142
626.3246	0.0096
626.513	0.0001
626.7014	0.0108
626.8898	0.0096
627.0781	0.0034
627.2665	0.0065
627.4548	0.0107
627.6431	0.0117
627.8314	0.0074
628.0197	0.0042
628.2079	0.0122
628.3962	0.0052
628.5844	0.0122
628.7726	0.0074
628.9608	0.0136
629.1489	0.008
629.3371	0.0122
629.5252	0.0068
629.7134	0.0021
629.9015	0.0072
630.0895	0.0112
630.2776	0.0027
630.4657	0.0085
630.6537	0.0114
630.8417	0.0097
631.0297	0.0173
631.2177	0.0102
631.4057	0.0102
631.5936	0.0075
631.7815	0.0112
631.9695	0.0157
632.1574	0.0105
632.3452	0.015
632.5331	0.002
632.7209	0.0015
632.9088	0.0009
633.0966	0.005
633.2844	0.0039
633.4722	0.0092
633.6599	0.0096
633.8477	0.0124
634.0354	0.0036
634.2231	0.0126
634.4108	0.0151
634.5985	0.0021
634.7861	0.0114
634.9738	0.0153
635.1614	0.0039
635.349	0.0068
635.5366	0.0072
635.7242	0.0119
635.9117	0.0037
636.0993	0.0125
636.2868	0.013
636.4743	0.0054
636.6618	0.009
636.8492	0.0169
637.0367	0.01
637.2241	0.009
637.4115	0.0072
637.5989	0.0154
637.7863	0.0145
637.9737	0.0036
638.161	0.0124
638.3484	0.0102
638.5357	0.008
638.723	-0.0032
638.9103	0.0067
639.0975	-0.0005
639.2848	0.0029
639.472	0.0041
639.6592	0.012
639.8464	0.003
640.0336	0.01
640.2208	0.0072
640.4079	0.0061
640.595	0.0042
640.7821	0.0051
640.9692	0.0117
641.1563	0.0098
641.3434	0.0131
641.5304	0.0176
641.7174	0.0122
641.9044	0.0067
642.0914	0.0114
642.2784	-0.0016
642.4653	0.007
642.6523	-0.0007
642.8392	0.0039
643.0261	0.0027
643.213	-0.0009
643.3999	0.0054
643.5867	0.0105
643.7735	0.0102
643.9604	0.0041
644.1472	0.0082
644.3339	0.0058
644.5207	0.006
644.7075	0.0009
644.8942	0.0043
645.0809	0.0056
645.2676	0.0051
645.4543	0.0129
645.6409	0.006
645.8276	0.005
646.0142	0.0059
646.2008	0.0128
646.3874	0.01
646.574	0.0124
646.7605	0.0103
646.9471	0.0106
647.1336	0.0107
647.3201	0.0096
647.5066	0.005
647.6931	-0.0049
647.8795	0.0036
648.0659	0.0155
648.2524	0.0115
648.4388	0.0084
648.6252	-0.0013
648.8115	0.0043
648.9979	0.0053
649.1842	0.0069
649.3705	-0.0021
649.5568	0.0027
649.7431	0.0123
649.9294	0.0065
650.1156	0.007
650.3018	0.0122
650.488	-0.0005
650.6742	0.0071
650.8604	0.0118
651.0466	0.0141
651.2327	0.0102
651.4188	0.0072
651.6049	0.0131
651.791	0.0139
651.9771	0.0118
652.1632	0.0003
652.3492	0.01
652.5352	0.008
652.7212	0.0075
652.9072	-0.0048
653.0932	-0.001
653.2791	-0.0007
653.465	0.008
653.651	0.0008
653.8369	0.0045
654.0227	0.0039
654.2086	0.0006
654.3944	0.0049
654.5803	0.0044
654.7661	0.0083
654.9519	-0.002
655.1377	-0.0022
655.3234	-0.0014
655.5092	-0.0007
655.6949	-0.0085
655.8806	-0.0017
656.0663	0.0017
656.2519	-0.0018
656.4376	-0.0019
656.6232	-0.0007
656.8088	0.003
656.9945	-0.0006
657.18	0.0006
657.3656	0.0082
657.5511	0.0042
657.7367	0.0084
657.9222	0.0055
658.1077	0.0039
658.2932	0.0076
658.4786	-0.0039
658.6641	0.0021
658.8495	0.0021
659.0349	0.011
659.2203	0.0047
659.4057	0.0037
659.591	0.0139
659.7764	-0.0006
659.9617	0.0023
660.147	0.0075
660.3323	0.0039
660.5176	-0.0089
660.7028	0.0082
660.888	0.0106
661.0733	0.0112
661.2585	0.012
661.4436	0.0068
661.6288	0.0121
661.8139	0.005
661.9991	-0.0036
662.1842	0.0028
662.3693	-0.0058
662.5544	0.0122
662.7394	0.0046
662.9245	0.0042
663.1095	0.0128
663.2945	0.0082
663.4795	0.0077
663.6644	0.0115
663.8494	0.0013
664.0343	0.0089
664.2193	0.0095
664.4042	0.0171
664.589	0.004
664.7739	0.0103
664.9587	0.0024
665.1436	0.0035
665.3284	0.0064
665.5132	0.0045
665.698	0.0044
665.8827	0.0134
666.0675	0.0131
666.2522	0.0164
666.4369	0.007
666.6216	0.0131
666.8063	0.0081
666.9909	0.0072
667.1756	0.0149
667.3602	0.0084
667.5448	0.0159
667.7294	0.0155
667.9139	0.0129
668.0985	0.0028
668.283	0.0037
668.4675	0.005
668.652	0.012
668.8365	0.005
669.0209	0.0064
669.2054	0.0009
669.3898	0.0048
669.5742	0.0094
669.7586	0.0048
669.943	0.0165
670.1273	0.008
670.3117	0.0087
670.496	0.0054
670.6803	0.0081
670.8646	0.0026
671.0488	0.0095
671.2331	0.0165
671.4173	0.0134
671.6015	0.0064
671.7857	0.0028
671.9699	0.0159
672.1541	-0.0029
672.3382	0.0075
672.5223	0.0116
672.7064	0.0129
672.8905	0.0059
673.0746	0.0168
673.2587	0.0072
673.4427	0.0056
673.6267	0.0036
673.8107	0.0141
673.9947	0.0114
674.1787	0.0094
674.3626	0.0185
674.5465	0.0132
674.7304	0.0125
674.9143	0.0129
675.0982	0.0109
675.2821	0.0062
675.4659	0.0127
675.6497	-0.0014
675.8335	0.0187
676.0173	0.01
676.2011	0.006
676.3849	0.0071
676.5686	0.0169
676.7523	0.0089
676.936	-0.001
677.1197	0.0148
677.3034	0.0094
677.487	0.0053
677.6706	0.0123
677.8542	0.0114
678.0378	0.0148
678.2214	0.009
678.405	0.0161
678.5885	0.0158
678.772	0.0128
678.9555	0.0074
679.139	0.0148
679.3225	0.0126
679.5059	0.0101
679.6894	0.0053
679.8728	0.0051
680.0562	0.0091
680.2395	0.0097
680.4229	0.005
680.6062	0.006
680.7896	0.0065
680.9729	-0.0017
681.1562	0.0118
681.3394	0.0063
681.5227	0.0119
681.7059	-0.0006
681.8891	0.0091
682.0723	0.0061
682.2555	0.0012
682.4387	0.0055
682.6218	0.0125
682.805	0.0073
682.9881	0.0201
683.1712	0.0124
683.3542	0.0082
683.5373	0.0059
683.7203	0.0098
683.9034	0.0101
684.0864	0.0047
684.2694	0.0117
684.4523	0.0058
684.6353	0.0068
684.8182	0.006
685.0011	0.0099
685.184	0.0026
685.3669	0.0066
685.5498	0.0036
685.7326	0.0048
685.9154	0.012
686.0982	0.0164
686.281	0.0039
686.4638	0.005
686.6465	0.0115
686.8293	0.0089
687.012	0.0096
687.1947	0.0079
687.3774	0.0132
687.56	0.0091
687.7427	0.0138
687.9253	0.0063
688.1079	0.012
688.2905	0.0115
688.4731	0.0112
688.6556	0.0063
688.8382	0.0102
689.0207	0.0127
689.2032	0.0029
689.3857	0.0123
689.5681	0.0039
689.7506	0.0047
689.933	0.0148
690.1154	0.0044
690.2978	-0.0018
690.4802	0.0057
690.6626	0.0031
690.8449	0.0121
691.0272	0.008
691.2095	0.0142
691.3918	0.003
691.5741	0.0158
691.7563	0.0047
691.9386	0.0151
692.1208	0.0022
692.303	0.0063
692.4852	0.0075
692.6673	0.0089
692.8495	0.0107
693.0316	0.0163
693.2137	0.0189
693.3958	0.0068
693.5778	0.0126
693.7599	0.0117
693.9419	0.0135
694.1239	0.0141
694.3059	0.0143
694.4879	0.0055
694.6699	0.0043
694.8518	0.0073
695.0337	0.0125
695.2157	0.0134
695.3975	0.0049
695.5794	0.0113
695.7613	0.0057
695.9431	0.0141
696.1249	0.0165
696.3067	0.0027
696.4885	0.0108
696.6703	0.0096
696.852	0.013
697.0337	0.0133
697.2154	0.0174
697.3971	0.0133
697.5788	0.0099
697.7605	0.01
697.9421	0.003
698.1237	0.0168
698.3053	0.0124
698.4869	0.0152
698.6685	0.0084
698.85	0.0158
699.0315	0.0168
699.213	0.0145
699.3945	0.0009
699.576	0.0216
699.7575	0.0199
699.9389	0.0105
700.1203	0.0117
700.3017	0.0166
700.4831	0.0109
700.6645	0.0022
700.8458	0.0079
701.0271	0.0067
701.2084	0.011
701.3897	0.0012
701.571	0.0069
701.7523	-0.0029
701.9335	-0.0019
702.1147	0.0077
702.2959	0.0008
702.4771	0.0017
702.6583	0.007
702.8394	0.0049
703.0205	0.0069
703.2016	0.0082
703.3827	0.009
703.5638	0.0135
703.7449	0.0026
703.9259	0.0041
704.1069	0.0056
704.2879	0.0013
704.4689	0.0031
704.6499	-0.0033
704.8308	0.0097
705.0117	0.0118
705.1927	0.0037
705.3735	0.001
705.5544	0.0024
705.7353	0.0047
705.9161	0.0039
706.0969	0.0038
706.2777	0.008
706.4585	0.0088
706.6393	0.0099
706.82	0.0038
707.0007	-0.0065
707.1815	0.006
707.3621	0.0016
707.5428	0.0082
707.7235	0.0016
707.9041	0.0068
708.0847	0.0203
708.2653	0.0102
708.4459	0.01
708.6265	0.0129
708.807	0.0152
708.9875	0.0192
709.168	0.0216
709.3485	0.0052
709.529	0.0064
709.7095	0.0094
709.8899	0.0168
710.0703	0.0001
710.2507	0.004
710.4311	0.012
710.6115	0.0085
710.7918	0.0137
710.9721	0.0077
711.1524	0.0005
711.3327	-0.0014
711.513	-0.0014
711.6932	0.0027
711.8735	-0.0044
712.0537	0.0016
712.2339	-0.0086
712.4141	-0.0012
712.5942	-0.0039
712.7744	0.0082
712.9545	0.0027
713.1346	0.0113
713.3147	0.0072
713.4947	0.0032
713.6748	0.0037
713.8548	0.0022
714.0348	0.0127
714.2148	-0.0066
714.3948	0.0054
714.5748	0.0046
714.7547	0.0087
714.9346	0.0014
715.1145	0.0078
715.2944	0.0066
715.4743	0.0107
715.6541	0.0152
715.834	-0.0018
716.0138	0.0106
716.1936	0.0132
716.3733	0.0133
716.5531	0.0109
716.7328	0.0121
716.9126	0.0096
717.0923	0.0107
717.2719	0.0206
717.4516	-0.0002
717.6312	0.0098
717.8109	0.0063
717.9905	0.0083
718.1701	-0.0036
718.3496	0.0125
718.5292	-0.0026
718.7087	-0.0106
718.8882	0.0032
719.0677	0.0102
719.2472	0.0029
719.4267	0.0027
719.6061	0.0024
719.7856	0.0054
719.965	0.0137
720.1443	0.0079
720.3237	0.004
720.5031	0.0069
720.6824	0.0097
720.8617	0.0013
721.041	-0.0031
721.2203	0.0064
721.3995	0.0126
721.5788	0.0171
721.758	-0.0003
721.9372	0.011
722.1164	0.0126
722.2956	0.0068
722.4747	0.0074
722.6538	0.0064
722.8329	0.0049
723.012	0.0028
723.1911	0.005
723.3702	0.0042
723.5492	-0.0005
723.7282	0.0074
723.9072	0.0074
724.0862	0.0185
724.2652	0.0073
724.4441	0.0024
724.623	0.012
724.8019	-0.0049
724.9808	0.0011
725.1597	0.0067
725.3385	0.0141
725.5174	0.0113
725.6962	0.009
725.875	0.0007
726.0538	0.0021
726.2325	0.0044
726.4112	0.0028
726.59	0.0136
726.7687	-0.0015
726.9474	0.0022
727.126	-0.0014
727.3047	-0.009
727.4833	0.0121
727.6619	0.0049
727.8405	-0.0031
728.0191	0.0044
728.1976	-0.0015
728.3762	0.0101
728.5547	0.0044
728.7332	0.0038
728.9116	0.001
729.0901	0.0066
729.2686	0.0016
729.447	0.0043
729.6254	0.0138
729.8038	0.0069
729.9821	0.0114
730.1605	0.0108
730.3388	0.0071
730.5171	0.0029
730.6954	-0.0019
730.8737	0.0036
731.0519	-0.0047
731.2302	0.0066
731.4084	0.0097
731.5866	-0.0007
731.7648	0.0006
731.9429	0.0028
732.1211	0.0028
732.2992	0.0072
732.4773	-0.0083
732.6554	-0.0056
732.8335	-0.0018
733.0115	-0.0029
733.1896	0.0074
733.3676	-0.0022
733.5456	-0.0081
733.7235	-0.0079
733.9015	0.0122
734.0794	0.0012
734.2574	0.0095
734.4353	-0.0022
734.6131	0.0051
734.791	0.0043
734.9689	0.013
735.1467	0.0001
735.3245	0.0026
735.5023	0.0122
735.68	0.0147
735.8578	0.0069
736.0355	0.0015
736.2132	0.0083
736.3909	-0.0029
736.5686	0.0162
736.7463	0.0083
736.9239	0.0127
737.1015	0.0158
737.2791	0.0116
737.4567	0.0007
737.6343	-0.0019
737.8118	0.0103
737.9894	0.0014
738.1669	0.0086
738.3444	0.0073
738.5218	0.0064
738.6993	0.0054
738.8767	0.0028
739.0541	0.0098
739.2315	0.0108
739.4089	0.0187
739.5863	0.0053
739.7636	0.0026
739.9409	0.0006
740.1182	0.001
740.2955	0.0154
740.4728	0.004
740.65	-0.0062
740.8272	-0.0096
741.0044	-0.0099
741.1816	0.0102
741.3588	0.002
741.5359	0.0102
741.7131	0.0005
741.8902	-0.0048
742.0673	0.0157
742.2444	0.0079
742.4214	0.0001
742.5985	0.0079
742.7755	-0.0062
742.9525	0.0074
743.1295	0.0065
743.3064	0.007
743.4834	0.0092
743.6603	0.0003
743.8372	-0.0022
744.0141	0.0121
744.191	0.0046
744.3678	-0.002
744.5446	0.0032
744.7215	0.0106
744.8982	0.0009
745.075	0.0033
745.2518	0.0023
745.4285	0.0013
745.6052	0.004
745.7819	-0.0104
745.9586	0.0061
746.1353	-0.0046
746.3119	0.0113
746.4885	0.0025
746.6651	-0.0006
746.8417	0.0043
747.0183	0.0069
747.1948	0.0036
747.3714	0.0081
747.5479	-0.0035
747.7244	0.0018
747.9008	0.0084
748.0773	0.0032
748.2537	0.0086
748.4301	0.0039
748.6065	0.0093
748.7829	0.0014
748.9593	0.0073
749.1356	0.007
749.3119	0.0064
749.4882	0.0139
749.6645	0.0033
749.8408	0.0011
750.017	0.0051
750.1933	0.0179
750.3695	0.0165
750.5457	0.0156
750.7218	0.008
750.898	0.0225
751.0741	0.0163
751.2502	0.0116
751.4263	0.0124
751.6024	0.005
751.7784	0.0058
751.9545	0.0081
752.1305	0.0058
752.3065	0.0032
752.4825	0.0088
752.6584	0.0143
752.8344	0.0029
753.0103	0.0049
753.1862	0.0137
753.3621	0.007
753.5379	0.0056
753.7138	0.0064
753.8896	0.0099
754.0654	0.0045
754.2412	0.006
754.417	-0.0015
754.5927	0.0088
754.7685	0.0083
754.9442	0.0039
755.1199	0.0147
755.2956	0.0103
755.4712	0.0017
755.6469	0.0034
755.8225	0.0132
755.9981	0.0117
756.1736	-0.0021
756.3492	0.01
756.5248	0.0168
756.7003	0.0125
756.8758	0.0163
757.0513	0.0122
757.2267	0.0072
757.4022	0.006
757.5776	0.0074
757.753	0.0046
757.9284	0.0167
758.1038	-0.0037
758.2791	0.0149
758.4545	0.0018
758.6298	0.0068
758.8051	0.0066
758.9803	0.0071
759.1556	0.0056
759.3308	0.0083
759.506	0.0105
759.6812	0.0095
759.8564	0.0062
760.0316	0.0078
760.2067	-0.0016
760.3819	-0.0025
760.557	0.0002
760.732	0.0065
760.9071	0.0087
761.0821	0.0216
761.2572	0.0046
761.4322	0.0087
761.6072	0.0025
761.7821	0.0022
761.9571	0.0075
762.132	0.003
762.3069	0.0205
762.4818	-0.0004
762.6567	-0.0001
762.8316	0.0099
763.0064	0.0002
763.1812	0.0101
763.356	-0.0026
763.5308	-0.0003
763.7055	0.0055
763.8803	0.0134
764.055	0.0014
764.2297	0.0118
764.4044	0.0035
764.579	0.0097
764.7537	0.0128
764.9283	0.0114
765.1029	0.004
765.2775	0.0049
765.4521	0.0009
765.6266	0.0099
765.8011	-0.004
765.9756	0.0053
766.1501	0.0004
766.3246	-0.0073
766.4991	0.0065
766.6735	-0.0049
766.8479	-0.0014
767.0223	-0.0026
767.1967	0.0031
767.371	0.0124
767.5454	0.0003
767.7197	0.006
767.894	0.0062
768.0683	0.016
768.2425	0.0114
768.4168	0.0039
768.591	0.013
768.7652	0.0083
768.9394	-0.0048
769.1135	0.0154
769.2877	0.0089
769.4618	0.0115
769.6359	0.0069
769.81	0.0123
769.984	0.0087
770.1581	0.0079
770.3321	0.0127
770.5061	0.0033
770.6801	0.0016
770.8541	0.014
771.028	0.0142
771.202	0.0008
771.3759	0.0019
771.5498	0.0194
771.7236	-0.0076
771.8975	0.0118
772.0713	0.0091
772.2451	0.0054
772.4189	0.0055
772.5927	0.0085
772.7665	-0.001
772.9402	0.0061
773.1139	0.0026
773.2876	0.0007
773.4613	0.0147
773.635	0.0093
773.8086	0.0021
773.9822	0.0084
774.1558	0.0103
774.3294	0.0194
774.503	-0.0168
774.6765	0.0132
774.8501	0.0071
775.0236	0.0174
775.1971	0.0207
775.3705	0.0097
775.544	0.0169
775.7174	0.0108
775.8908	0.0108
776.0642	0.0219
776.2376	0.0061
776.4109	0.0081
776.5843	0.0064
776.7576	0.0072
776.9309	0.005
777.1041	0.0087
777.2774	0.0085
777.4506	0.0113
777.6238	0.008
777.797	0.0046
777.9702	0.0069
778.1434	0.014
778.3165	0.0043
778.4896	0.0214
778.6627	0.0021
778.8358	0.021
779.0089	0.0142
779.1819	0.0093
779.3549	0.0183
779.5279	0.0001
779.7009	0.0146
779.8739	-0.0003
780.0468	0.0191
780.2197	-0.0026
780.3926	0.0127
780.5655	0.0058
780.7384	0.0003
780.9112	0.0041
781.0841	-0.0178
781.2569	-0.0018
781.4297	-0.0159
781.6024	0.0021
781.7752	-0.0099
781.9479	0.0031
782.1206	0.0053
782.2933	0.0003
782.466	-0.0098
782.6386	0.0189
782.8113	-0.0131
782.9839	0.0025
783.1565	-0.0036
783.329	-0.0017
783.5016	0.0057
783.6741	0.0138
783.8466	0.001
784.0191	0.0041
784.1916	0.012
784.3641	0.0087
784.5365	0.0054
784.7089	0.0034
784.8813	0.0117
785.0537	-0.004
785.2261	0.0052
785.3984	0.0083
785.5707	0.0168
785.743	0.0063
785.9153	0.005
786.0876	0.0164
786.2598	0.0018
786.432	0.0247
786.6042	0.0188
786.7764	-0.0018
786.9486	0.0062
787.1207	0.014
787.2928	-0.0037
787.4649	0.0039
787.637	-0.0048
787.8091	0.0244
787.9811	0.0037
788.1532	0.0063
788.3252	0.0047
788.4972	0.0095
788.6691	0.0014
788.8411	0.0027
789.013	-0.0026
789.1849	0.0155
789.3568	0.0027
789.5287	0.0106
789.7005	0.0104
789.8723	0.0107
790.0442	0.0156
790.2159	0.0032
790.3877	0.0127
790.5595	0.0259
790.7312	0.0046
790.9029	0.0135
791.0746	0.0015
791.2463	0.0052
791.4179	0.0078
791.5896	0.0245
791.7612	0.0216
791.9328	0.0126
792.1044	0.0218
792.2759	0.023
792.4474	0.0193
792.619	0.0179
792.7905	0.0236
792.9619	0.0154
793.1334	0.0271
793.3048	0.0071
793.4762	0.0178
793.6476	-0.0017
793.819	0.0113
793.9904	0.0154
794.1617	-0.0008
794.333	0.0174
794.5043	-0.0093
794.6756	0.0071
794.8469	0.0082
795.0181	-0.0009
795.1893	0.0298
795.3605	0.0137
795.5317	-0.0062
795.7029	0.0049
795.874	0.0059
796.0452	0.0025
796.2163	0.0177
796.3873	0.0134
796.5584	0.027
796.7294	-0.0047
796.9005	0.0022
797.0715	0.0076
797.2425	0.0025
797.4134	0.0203
797.5844	-0.0035
797.7553	0.0038
797.9262	0.014
798.0971	0.0132
798.2679	0.0155
798.4388	0.0051
798.6096	-0.0096
798.7804	0.0272
798.9512	0.0174
799.122	0.0177
799.2927	0.0179
799.4635	0.0225
799.6342	0.013
799.8049	0.0208
799.9755	0.0201
800.1462	0.0201
800.3168	0.009
800.4874	0.0108
800.658	0.0076
800.8286	0.0067
800.9991	0.0186
801.1696	0.0123
801.3402	0.02
801.5106	0.0045
801.6811	0.0038
801.8516	0.0194
802.022	0.0144
802.1924	0.0094
802.3628	0.0083
802.5332	0.0141
802.7035	-0.0012
802.8739	0.008
803.0442	-0.0114
803.2145	-0.0043
803.3847	0.0138
803.555	0.0218
803.7252	0.0161
803.8954	-0.0021
804.0656	0.0091
804.2358	0.013
804.4059	0.0342
804.5761	0.0014
804.7462	0.0206
804.9163	0.0117
805.0864	-0.0083
805.2564	-0.004
805.4264	0.0066
805.5965	0.0091
805.7665	0.0208
805.9364	-0.0002
806.1064	0.0083
806.2763	0.0261
806.4462	0.0025
806.6161	0.024
806.786	0.0307
806.9559	0.0136
807.1257	0.027
807.2955	0.041
807.4653	0.0341
807.6351	0.0285
807.8048	0.0206
807.9746	0.0213
808.1443	0.0073
808.314	0.0225
808.4837	0.0314
808.6533	-0.0031
808.8229	0.0336
808.9926	0.0328
809.1622	0.0154
809.3317	0.0107
809.5013	0.0252
809.6708	0.0185
809.8403	0.0121
810.0098	0.0247
810.1793	0.0037
810.3488	-0.0037
810.5182	0.0084
810.6876	0.0176
810.857	0.0133
811.0264	-0.0161
811.1958	0.0118
811.3651	0.0169
811.5344	0.0262
811.7037	0.001
811.873	0.0023
812.0422	0.0026
812.2115	0.0283
812.3807	0.0097
812.5499	0.0141
812.7191	0.0211
812.8882	0.0249
813.0574	0.0059
813.2265	0.0259
813.3956	0.0039
813.5646	0.0072
813.7337	0.0117
813.9027	0.0254
814.0718	0.0273
814.2407	0.0128
814.4097	0.0201
814.5787	-0
814.7476	0.0063
814.9165	0.0068
815.0854	0.0164
815.2543	0.0175
815.4232	0.0078
815.592	-0.0066
815.7608	0.0283
815.9296	-0.002
816.0984	0.0072
816.2671	0.0159
816.4359	-0.0003
816.6046	0.005
816.7733	0.0035
816.942	0.0123
817.1106	0.0058
817.2793	-0.0053
817.4479	0.005
817.6165	-0.008
817.785	0.0166
817.9536	0.018
818.1221	-0.0065
818.2906	0.0125
818.4591	-0.0101
818.6276	0.0264
818.7961	-0.0058
818.9645	0.0204
819.1329	0.0101
819.3013	-0.0051
819.4697	0.0194
819.638	-0.0145
819.8064	0.0344
819.9747	-0.0007
820.143	-0.0014
820.3113	0.0108
820.4795	-0
820.6477	0.0047
820.816	-0.0058
820.9842	0.0046
821.1523	0.0152
821.3205	0.0007
821.4886	-0.0194
821.6567	0.0072
821.8248	0.0155
821.9929	0.0162
822.1609	-0.0032
822.329	0.0059
822.497	-0.0127
822.665	-0.0419
822.833	-0.0089
823.0009	-0.0171
823.1688	0.012
823.3367	-0
823.5046	-0.0292
823.6725	-0.0103
823.8404	-0.0175
824.0082	0.0107
824.176	0.0208
824.3438	0.014
824.5116	0.0498
824.6793	0.0141
824.847	0.0157
825.0147	-0.0012
825.1824	0.0119
825.3501	0.0115
825.5177	0.0186
825.6854	-0.0102
825.853	0.0132
826.0206	0.0152
826.1881	0.0336
826.3557	0.034
826.5232	-0.0215
826.6907	0.0252
826.8582	0.0249
827.0257	0.0235
827.1931	-0.006
827.3605	0.0262
827.528	0.007
827.6953	0.0428
827.8627	0.0049
828.03	0.0384
828.1974	0.0392
828.3647	0.0143
828.532	0.0185
828.6992	0.0463
828.8665	0.0509
829.0337	0.0374
829.2009	0.0124
829.3681	-0.0048
829.5352	-0.0051
829.7024	0.011
829.8695	0.016
830.0366	0.0211
830.2037	-0.0054
830.3707	-0.0024
830.5378	-0.0094
830.7048	-0.0132
830.8718	0.0409
831.0388	-0.0134
831.2057	0.0077
831.3727	0.0329
831.5396	0.0293
831.7065	0.0011
831.8734	-0.0006
832.0402	-0.0132
832.2071	-0.0195
832.3739	-0.0262
832.5407	0.0194
832.7075	-0.0138
832.8742	0.0305
833.041	-0.0126
833.2077	0.0113
833.3744	0.0286
833.541	0.0104
833.7077	0.0411
833.8743	0.0389
834.0409	0.0282
834.2075	0.0372
834.3741	0.0531
834.5407	0.0119
834.7072	-0.0075
834.8737	0.003
835.0402	0.0201
835.2067	-0.0141
835.3731	0.0234
835.5395	0.0099
835.706	-0.0076
835.8723	-0.0373
836.0387	0.0341
836.2051	0.0222
836.3714	-0.0506
836.5377	-0.0319
836.704	-0.0466
836.8703	-0.0103
837.0365	-0.0365
837.2027	0.0167
837.3689	-0.0253
837.5351	0.0347
837.7013	-0.0336
837.8674	0.0073
838.0335	-0.0215
838.1997	-0.0398
838.3657	0.0064
838.5318	-0.0201
838.6978	0.0349
838.8639	-0.0441
839.0299	-0.0058
839.1958	0.0152
839.3618	0.0047
839.5277	0.018
839.6937	0.0497
839.8596	-0.0457
840.0254	0.068
840.1913	0.0096
840.3571	-0.036
840.523	0.0154
840.6888	-0.0025
840.8545	0.0209
841.0203	0.055
841.186	0.0377
841.3517	0.0058
841.5174	-0.0358
841.6831	0.0438
841.8488	0.0102
842.0144	0.0758
842.18	-0.0246
842.3456	0.0198
842.5112	0.0086
842.6767	0.0108
842.8422	-0.0162
843.0077	-0.0029
843.1732	0.051
843.3387	-0.0484
843.5042	0.042
843.6696	0.0029
843.835	-0.0195
844.0004	-0.0578
844.1657	0.0315
844.3311	-0.0318
844.4964	0.001
844.6617	-0.0775
844.827	0.0648
844.9923	0.015
845.1575	0.0292
845.3227	0.0176
845.4879	0.0287
845.6531	0.0177
845.8183	-0.0212
845.9834	0.0507
846.1485	-0.0394
846.3136	-0.0078
846.4787	0.0112
846.6438	0.0971
846.8088	0.0366
846.9738	0.0313
847.1388	0.043
847.3038	0.0352
847.4687	-0.0054
847.6337	-0.0044
847.7986	0.0295
847.9635	-0.0308
848.1284	0.053
848.2932	0.0163
848.458	0.0365
848.6228	0.0723
848.7876	0.0216
848.9524	-0.0315
849.1172	0.0571
849.2819	0.0271
849.4466	-0.0066
849.6113	0.0274
849.7759	0.0086
849.9406	0.0632
850.1052	-0.114
850.2698	0.0679
850.4344	0.0301
850.599	0.1092
850.7635	0.016
850.928	-0.0055
851.0925	-0.0027
851.257	0.1071
851.4215	-0.015
851.5859	0.1344
851.7503	-0.1187
851.9147	0.0835
852.0791	0.1003
852.2434	0.0664
852.4078	0.0765
852.5721	0.0623
852.7364	-0.0779
852.9007	-0.0884
853.0649	0.0388
853.2291	0.0394
853.3934	-0.0377
853.5575	-0.0396
853.7217	0.0555
853.8859	0.0155
854.05	0.0302
854.2141	-0.0256
854.3782	0.0693
854.5423	0.0488
854.7063	0.09
854.8703	-0.0249
855.0343	0.0935
855.1983	0.0963
855.3623	0.0302
855.5262	0.0883
855.6901	-0.1867
855.854	0.0027
856.0179	0.051
856.1818	0.2115
856.3456	-0.0853
856.5094	0.1728
856.6732	0.0031
856.837	0.0871
857.0008	-0.2854
857.1645	0.0311
857.3282	0.1844
857.4919	-0.0241
857.6556	0.0351
857.8192	-0.0116
857.9828	0.1797
858.1465	0.0863
858.31	0.0352
858.4736	-0.1346
858.6372	-0.0686
858.8007	-0.3559
858.9642	0.1432
859.1277	-0.1807
859.2911	-0.004
859.4546	-0.0205
859.618	-0.4285
859.7814	-0.0046
859.9448	0.388
860.1081	0.1645
860.2715	0.1447
860.4348	0.1271
860.5981	0.0269
860.7614	0.1979
860.9246	0.0801
861.0879	-0.0272
861.2511	0.2421
861.4143	0.1232
861.5774	-0.1791
861.7406	0.1984
861.9037	-0.2785
862.0668	-0.0004
862.2299	0.102
862.393	0.1651
862.556	0.1488
862.7191	0.3894
862.8821	-0.2151
863.0451	-0.0692
863.208	0.2791
863.371	-0.4398
863.5339	-0.0496
863.6968	-0.1322
863.8597	-0.0252
864.0225	0.2974
864.1854	-0.0279
864.3482	0.2386
864.511	0.084
864.6737	-0.1402
864.8365	0.0647
864.9992	-0.2004
865.1619	-0.0921
865.3246	0.0639
865.4873	0.418
865.65	-0.4179
865.8126	-0.1853
865.9752	0.3204
866.1378	0.281
866.3004	-0.4642
866.4629	0.2408
866.6254	-0.2955
866.7879	-0.2671
866.9504	0.4215
867.1129	0.1683
867.2753	0.1015
867.4377	0.1861
867.6001	-0.0308
867.7625	0.1411
867.9249	-0.147
868.0872	-0
868.2495	0.3299
868.4118	0.2141
868.5741	-0.0094
868.7363	-0
868.8986	-0.2297
869.0608	0.2898
869.223	0.3404
869.3851	-0.1105
869.5473	0.1048
869.7094	0.2206
869.8715	-0.0107
870.0336	-0
870.1957	-0
870.3577	0.0828
870.5197	-0
870.6817	-0
870.8437	0.7364
871.0057	0.1335
871.1676	-0.0269
871.3295	-0
871.4914	-0
871.6533	0.1615
871.8151	0.0142
871.977	-0.4069
872.1388	0.6011
872.3006	0.5054
872.4623	0.6231
872.6241	-0.3912
872.7858	0.111
872.9475	0.7714
873.1092	0.1511
873.2709	-0
873.4325	-0
873.5941	-0
873.7557	-0.6099
873.9173	0.0666
874.0789	-0
874.2404	-0
874.4019	-0.0025
874.5634	-0.1525
874.7249	0.1908
874.8863	-0
875.0478	-0
875.2092	0.1688
875.3706	-0.1077
875.5319	-0
875.6933	-0
875.8546	-0.045
876.0159	0.8042
876.1772	0.2282
876.3385	-0.1967
876.4997	0.4229
876.6609	-0
876.8221	-0.8498
876.9833	-0.568
877.1445	0.2054
877.3056	-0.1788
877.4667	-0.2112
877.6278	0.0516
877.7889	0.3801
877.9499	0.1276
878.111	0.5572
878.272	-0.0945
878.433	-0.0881
878.5939	0.303
878.7549	0.2474
878.9158	0.0374
879.0767	-0.0277
879.2376	0.4008
879.3984	0.0674
879.5593	-0
879.7201	0.5367
879.8809	-0
880.0417	0.5897
880.2024	-0.2167
880.3632	0.6546
880.5239	1.5711
880.6846	-0.3947
880.8452	0.0301
881.0059	-0.5737
881.1665	0.1142
881.3271	-0.0034
881.4877	-0
881.6483	-0.1381
881.8088	-0.2031
881.9693	0.0282
882.1298	0.0282
882.2903	0.0282
