Data from MonoPyChalIsomerACN10uM400nmA_Absorbance_12-08-41-529.txt Node
Date: Fri Jul 05 12:08:41 BST 2024
User: LASERRRRR
Spectrometer: FLMT03099
Trigger mode: 0
Integration Time (sec): 1.000000E-1
Scans to average: 1
Electric dark correction enabled: true
Nonlinearity correction enabled: false
Boxcar width: 0
XAxis mode: Wavelengths
Number of Pixels in Spectrum: 3648
>>>>>Begin Spectral Data<<<<<
179.3399	-0.0364
179.5586	-0.0364
179.7771	-0.0364
179.9957	0.2779
180.2143	-0
180.4329	-0
180.6514	-0
180.8699	0.1715
181.0885	-0.0499
181.307	0.2048
181.5255	-0.4255
181.744	-0
181.9625	-0.1516
182.181	-0
182.3994	-0.1894
182.6179	-0
182.8363	0.0459
183.0547	0.3177
183.2732	0.4158
183.4916	0.076
183.71	0.1038
183.9284	0.2961
184.1467	-0.0937
184.3651	-0.1123
184.5835	0.0458
184.8018	0.0285
185.0201	-0.0324
185.2385	0.1622
185.4568	0.1603
185.6751	0.1262
185.8934	-0.0421
186.1117	0.1987
186.3299	-0.1795
186.5482	0.1179
186.7664	0.2647
186.9847	0.0677
187.2029	-0.0055
187.4211	-0.2906
187.6393	-0.1541
187.8575	0.1284
188.0757	0.0956
188.2939	0.1139
188.512	0.1194
188.7302	-0.0916
188.9483	-0.0114
189.1665	-0.0342
189.3846	-0.0012
189.6027	0.0919
189.8208	0.0764
190.0389	0.212
190.257	0.1299
190.475	0.5396
190.6931	0.2148
190.9111	0.1001
191.1292	0.0783
191.3472	0.309
191.5652	0.4349
191.7832	0.4113
192.0012	0.3792
192.2192	0.6951
192.4371	0.4729
192.6551	0.327
192.873	0.383
193.091	0.3181
193.3089	0.3938
193.5268	1.0577
193.7447	0.4857
193.9626	0.7583
194.1805	0.5014
194.3984	0.349
194.6162	0.4391
194.8341	0.4962
195.0519	0.7836
195.2697	0.5311
195.4875	0.7041
195.7054	0.4989
195.9231	0.5821
196.1409	0.5041
196.3587	0.644
196.5765	0.6699
196.7942	0.5319
197.012	0.6211
197.2297	0.6092
197.4474	0.7104
197.6651	0.5925
197.8828	0.586
198.1005	0.935
198.3182	0.6548
198.5358	0.8371
198.7535	0.658
198.9711	0.6528
199.1888	0.58
199.4064	0.6965
199.624	0.7474
199.8416	0.5845
200.0592	0.7501
200.2767	0.576
200.4943	0.6889
200.7119	0.6913
200.9294	0.718
201.1469	0.7601
201.3645	0.6403
201.582	0.6741
201.7995	0.9847
202.017	0.6792
202.2344	0.6547
202.4519	0.7813
202.6694	1.1416
202.8868	0.7656
203.1042	0.6681
203.3217	0.6586
203.5391	0.6919
203.7565	0.6873
203.9739	0.6806
204.1913	0.9105
204.4086	0.7721
204.626	0.7683
204.8433	0.9575
205.0607	0.6831
205.278	0.8786
205.4953	0.795
205.7126	0.6694
205.9299	0.7887
206.1472	0.8105
206.3644	0.5811
206.5817	0.7134
206.7989	0.7214
207.0162	0.6632
207.2334	0.8402
207.4506	0.7946
207.6678	0.8385
207.885	0.7917
208.1022	0.707
208.3194	0.7175
208.5365	0.7908
208.7537	0.8006
208.9708	0.8173
209.1879	0.8474
209.405	0.6762
209.6222	0.8589
209.8392	0.7368
210.0563	0.8512
210.2734	0.7056
210.4905	0.7957
210.7075	0.7931
210.9245	0.8254
211.1416	0.724
211.3586	0.7427
211.5756	0.7765
211.7926	0.7658
212.0096	0.7183
212.2265	0.6409
212.4435	0.7346
212.6604	0.7404
212.8774	0.7393
213.0943	0.6873
213.3112	0.7162
213.5281	0.6536
213.745	0.6876
213.9619	0.6503
214.1788	0.6885
214.3956	0.6284
214.6125	0.5688
214.8293	0.7
215.0461	0.6823
215.2629	0.6798
215.4798	0.6404
215.6965	0.6849
215.9133	0.6296
216.1301	0.5884
216.3469	0.5962
216.5636	0.6054
216.7803	0.5863
216.9971	0.6133
217.2138	0.6682
217.4305	0.6219
217.6472	0.5736
217.8639	0.6023
218.0805	0.6082
218.2972	0.5478
218.5138	0.5874
218.7305	0.5682
218.9471	0.5661
219.1637	0.5444
219.3803	0.5368
219.5969	0.5891
219.8135	0.5377
220.0301	0.5974
220.2466	0.5454
220.4632	0.5237
220.6797	0.5573
220.8962	0.5417
221.1127	0.5432
221.3292	0.5414
221.5457	0.5771
221.7622	0.5751
221.9787	0.5303
222.1951	0.5362
222.4116	0.5477
222.628	0.5742
222.8444	0.5462
223.0608	0.5656
223.2772	0.5496
223.4936	0.5566
223.71	0.5961
223.9264	0.5512
224.1427	0.5469
224.3591	0.5514
224.5754	0.5328
224.7917	0.5668
225.008	0.5916
225.2243	0.536
225.4406	0.5391
225.6569	0.552
225.8732	0.565
226.0894	0.5492
226.3057	0.5543
226.5219	0.588
226.7381	0.5564
226.9543	0.5975
227.1705	0.5584
227.3867	0.5844
227.6029	0.5502
227.8191	0.5422
228.0352	0.5489
228.2513	0.5687
228.4675	0.5947
228.6836	0.5966
228.8997	0.5937
229.1158	0.5748
229.3319	0.5857
229.548	0.5804
229.764	0.5797
229.9801	0.5695
230.1961	0.58
230.4121	0.5908
230.6282	0.573
230.8442	0.5923
231.0602	0.5548
231.2761	0.565
231.4921	0.5805
231.7081	0.5589
231.924	0.596
232.14	0.5704
232.3559	0.5515
232.5718	0.5707
232.7877	0.5536
233.0036	0.5936
233.2195	0.5795
233.4353	0.6022
233.6512	0.5801
233.867	0.5702
234.0829	0.5656
234.2987	0.5758
234.5145	0.5423
234.7303	0.5676
234.9461	0.5618
235.1619	0.5549
235.3776	0.5446
235.5934	0.5643
235.8091	0.5524
236.0249	0.5308
236.2406	0.5778
236.4563	0.5759
236.672	0.5632
236.8877	0.5606
237.1034	0.5402
237.319	0.5171
237.5347	0.5523
237.7503	0.5441
237.966	0.545
238.1816	0.5564
238.3972	0.5472
238.6128	0.516
238.8284	0.5202
239.0439	0.5518
239.2595	0.537
239.475	0.5616
239.6906	0.5319
239.9061	0.5124
240.1216	0.5312
240.3371	0.5109
240.5526	0.5231
240.7681	0.5165
240.9836	0.5541
241.199	0.4981
241.4145	0.508
241.6299	0.4852
241.8453	0.4832
242.0607	0.479
242.2761	0.4652
242.4915	0.4444
242.7069	0.4541
242.9223	0.4495
243.1376	0.4229
243.353	0.4302
243.5683	0.437
243.7836	0.4309
243.9989	0.4066
244.2142	0.4119
244.4295	0.3706
244.6448	0.3818
244.86	0.3811
245.0753	0.3604
245.2905	0.3566
245.5057	0.372
245.721	0.3482
245.9362	0.3439
246.1514	0.3342
246.3665	0.3289
246.5817	0.3362
246.7969	0.311
247.012	0.3077
247.2271	0.3338
247.4423	0.2845
247.6574	0.3102
247.8725	0.3042
248.0876	0.2893
248.3026	0.2767
248.5177	0.2726
248.7328	0.2825
248.9478	0.2744
249.1628	0.2525
249.3779	0.2503
249.5929	0.2673
249.8079	0.2439
250.0228	0.247
250.2378	0.2468
250.4528	0.2482
250.6677	0.2277
250.8827	0.2323
251.0976	0.2279
251.3125	0.2342
251.5274	0.237
251.7423	0.2326
251.9572	0.2328
252.172	0.218
252.3869	0.2195
252.6017	0.2213
252.8166	0.2119
253.0314	0.2244
253.2462	0.2018
253.461	0.2023
253.6758	0.2003
253.8906	0.2147
254.1053	0.1943
254.3201	0.2041
254.5348	0.2018
254.7496	0.1992
254.9643	0.1836
255.179	0.2019
255.3937	0.1892
255.6083	0.1909
255.823	0.1937
256.0377	0.1894
256.2523	0.2054
256.467	0.1893
256.6816	0.1819
256.8962	0.1956
257.1108	0.2054
257.3254	0.2011
257.54	0.1903
257.7545	0.2069
257.9691	0.1965
258.1836	0.1866
258.3981	0.1929
258.6127	0.1981
258.8272	0.194
259.0417	0.1861
259.2561	0.1809
259.4706	0.1794
259.6851	0.1899
259.8995	0.1972
260.114	0.1838
260.3284	0.199
260.5428	0.1848
260.7572	0.198
260.9716	0.186
261.186	0.1966
261.4003	0.1862
261.6147	0.1867
261.829	0.1925
262.0433	0.1895
262.2577	0.1763
262.472	0.1832
262.6863	0.1891
262.9005	0.1781
263.1148	0.181
263.3291	0.1855
263.5433	0.1781
263.7576	0.186
263.9718	0.1691
264.186	0.1852
264.4002	0.192
264.6144	0.1782
264.8286	0.1835
265.0427	0.1966
265.2569	0.2001
265.471	0.1819
265.6851	0.1683
265.8993	0.1906
266.1134	0.1743
266.3275	0.18
266.5415	0.1841
266.7556	0.1833
266.9697	0.189
267.1837	0.1903
267.3978	0.19
267.6118	0.185
267.8258	0.2062
268.0398	0.1858
268.2538	0.1931
268.4677	0.1995
268.6817	0.1844
268.8957	0.1862
269.1096	0.1731
269.3235	0.1824
269.5374	0.1799
269.7514	0.1547
269.9652	0.1799
270.1791	0.1735
270.393	0.1624
270.6068	0.178
270.8207	0.1803
271.0345	0.1546
271.2483	0.1698
271.4622	0.1767
271.676	0.1771
271.8897	0.1768
272.1035	0.1749
272.3173	0.1786
272.531	0.1633
272.7448	0.1617
272.9585	0.1737
273.1722	0.1814
273.3859	0.1657
273.5996	0.167
273.8133	0.1694
274.0269	0.1654
274.2406	0.1643
274.4542	0.1714
274.6679	0.1764
274.8815	0.1716
275.0951	0.1816
275.3087	0.1698
275.5223	0.1629
275.7358	0.1716
275.9494	0.1738
276.1629	0.1628
276.3765	0.1677
276.59	0.1632
276.8035	0.1678
277.017	0.1717
277.2305	0.1791
277.444	0.1637
277.6574	0.1792
277.8709	0.1557
278.0843	0.1804
278.2978	0.1728
278.5112	0.1785
278.7246	0.1703
278.938	0.1699
279.1513	0.1828
279.3647	0.1591
279.5781	0.1631
279.7914	0.1852
280.0047	0.18
280.2181	0.1728
280.4314	0.1721
280.6447	0.1815
280.8579	0.173
281.0712	0.1834
281.2845	0.1887
281.4977	0.1708
281.711	0.179
281.9242	0.1716
282.1374	0.1688
282.3506	0.1854
282.5638	0.1757
282.7769	0.1763
282.9901	0.1826
283.2033	0.1703
283.4164	0.1813
283.6295	0.1747
283.8426	0.1778
284.0557	0.187
284.2688	0.1715
284.4819	0.1726
284.695	0.1778
284.908	0.1825
285.1211	0.1863
285.3341	0.1919
285.5471	0.1903
285.7601	0.1806
285.9731	0.1874
286.1861	0.1839
286.3991	0.1699
286.612	0.1849
286.825	0.182
287.0379	0.1892
287.2508	0.1819
287.4637	0.1842
287.6766	0.1736
287.8895	0.1739
288.1024	0.1839
288.3152	0.1959
288.5281	0.1985
288.7409	0.1775
288.9538	0.1819
289.1666	0.1866
289.3794	0.1855
289.5922	0.1747
289.8049	0.1862
290.0177	0.1822
290.2304	0.1765
290.4432	0.1715
290.6559	0.1829
290.8686	0.1904
291.0813	0.1738
291.294	0.1862
291.5067	0.1735
291.7194	0.1701
291.932	0.1953
292.1447	0.1945
292.3573	0.1875
292.5699	0.2023
292.7825	0.1806
292.9951	0.2029
293.2077	0.1871
293.4203	0.2026
293.6328	0.1859
293.8454	0.1795
294.0579	0.1795
294.2704	0.1848
294.4829	0.187
294.6954	0.1925
294.9079	0.1876
295.1204	0.1935
295.3328	0.1643
295.5453	0.175
295.7577	0.1722
295.9701	0.1742
296.1825	0.1805
296.3949	0.1823
296.6073	0.1692
296.8197	0.1887
297.0321	0.186
297.2444	0.1863
297.4567	0.1856
297.6691	0.1927
297.8814	0.1815
298.0937	0.1775
298.306	0.1814
298.5182	0.1862
298.7305	0.1937
298.9428	0.1771
299.155	0.1789
299.3672	0.1618
299.5794	0.1865
299.7916	0.1778
300.0038	0.1793
300.216	0.1823
300.4282	0.1732
300.6403	0.1887
300.8525	0.1798
301.0646	0.1935
301.2767	0.18
301.4888	0.1695
301.7009	0.1813
301.913	0.1851
302.125	0.1766
302.3371	0.1827
302.5491	0.179
302.7612	0.1744
302.9732	0.1766
303.1852	0.1804
303.3972	0.1865
303.6092	0.1746
303.8211	0.1783
304.0331	0.172
304.245	0.1774
304.457	0.1706
304.6689	0.1769
304.8808	0.1588
305.0927	0.1727
305.3046	0.1605
305.5164	0.1714
305.7283	0.1614
305.9401	0.1628
306.152	0.1555
306.3638	0.1546
306.5756	0.1574
306.7874	0.1509
306.9992	0.1611
307.2109	0.1553
307.4227	0.1541
307.6344	0.1561
307.8462	0.1381
308.0579	0.1454
308.2696	0.1596
308.4813	0.1361
308.693	0.1409
308.9046	0.1336
309.1163	0.135
309.328	0.1359
309.5396	0.1521
309.7512	0.119
309.9628	0.1337
310.1744	0.1305
310.386	0.1262
310.5976	0.1323
310.8091	0.1175
311.0207	0.1258
311.2322	0.1169
311.4437	0.1274
311.6552	0.1268
311.8667	0.1146
312.0782	0.1144
312.2897	0.1127
312.5012	0.1108
312.7126	0.1306
312.924	0.1178
313.1355	0.117
313.3469	0.1106
313.5583	0.1111
313.7696	0.1089
313.981	0.1154
314.1924	0.1192
314.4037	0.1091
314.6151	0.11
314.8264	0.1151
315.0377	0.1096
315.249	0.1001
315.4603	0.1039
315.6716	0.112
315.8828	0.0912
316.0941	0.0972
316.3053	0.1071
316.5165	0.1125
316.7277	0.0936
316.9389	0.1061
317.1501	0.1
317.3613	0.0843
317.5724	0.1036
317.7836	0.0949
317.9947	0.1023
318.2058	0.1121
318.417	0.1054
318.6281	0.1024
318.8391	0.093
319.0502	0.106
319.2613	0.1035
319.4723	0.102
319.6834	0.1033
319.8944	0.0933
320.1054	0.1013
320.3164	0.1023
320.5274	0.0905
320.7383	0.091
320.9493	0.0943
321.1602	0.1077
321.3712	0.098
321.5821	0.1086
321.793	0.107
322.0039	0.1141
322.2148	0.1084
322.4257	0.0988
322.6365	0.0956
322.8474	0.097
323.0582	0.111
323.269	0.0991
323.4798	0.1071
323.6906	0.0967
323.9014	0.1118
324.1122	0.1007
324.3229	0.1104
324.5337	0.0989
324.7444	0.1094
324.9551	0.1202
325.1658	0.109
325.3765	0.1119
325.5872	0.1132
325.7979	0.1014
326.0085	0.0898
326.2192	0.0934
326.4298	0.1064
326.6404	0.1008
326.851	0.0985
327.0616	0.1102
327.2722	0.1095
327.4828	0.1124
327.6933	0.1119
327.9039	0.1075
328.1144	0.0995
328.3249	0.0935
328.5354	0.0923
328.7459	0.1068
328.9564	0.1137
329.1669	0.114
329.3773	0.1101
329.5878	0.1011
329.7982	0.1032
330.0086	0.1084
330.219	0.1005
330.4294	0.1071
330.6398	0.1023
330.8502	0.1168
331.0605	0.1024
331.2708	0.0941
331.4812	0.0965
331.6915	0.0977
331.9018	0.0999
332.1121	0.1018
332.3224	0.109
332.5326	0.1119
332.7429	0.0961
332.9531	0.0943
333.1633	0.1145
333.3735	0.1071
333.5837	0.1073
333.7939	0.11
334.0041	0.1186
334.2143	0.1021
334.4244	0.1037
334.6346	0.0806
334.8447	0.0902
335.0548	0.1059
335.2649	0.1143
335.475	0.107
335.685	0.0949
335.8951	0.12
336.1051	0.0956
336.3152	0.1089
336.5252	0.1083
336.7352	0.1187
336.9452	0.1185
337.1552	0.1269
337.3652	0.1049
337.5751	0.1105
337.7851	0.1101
337.995	0.1118
338.2049	0.1057
338.4148	0.1182
338.6247	0.114
338.8346	0.1103
339.0445	0.0977
339.2543	0.1084
339.4642	0.1225
339.674	0.0959
339.8838	0.1201
340.0936	0.1243
340.3034	0.121
340.5132	0.1232
340.7229	0.1155
340.9327	0.1162
341.1424	0.102
341.3522	0.1206
341.5619	0.1065
341.7716	0.1167
341.9813	0.1239
342.1909	0.1247
342.4006	0.1163
342.6102	0.1227
342.8199	0.1158
343.0295	0.1255
343.2391	0.1144
343.4487	0.1194
343.6583	0.1045
343.8679	0.1221
344.0774	0.1326
344.287	0.1238
344.4965	0.1211
344.706	0.1213
344.9155	0.1238
345.125	0.1317
345.3345	0.1203
345.544	0.1331
345.7534	0.1181
345.9629	0.1342
346.1723	0.1207
346.3817	0.1315
346.5911	0.1252
346.8005	0.1241
347.0099	0.1208
347.2193	0.1239
347.4286	0.1283
347.638	0.1257
347.8473	0.1181
348.0566	0.1344
348.2659	0.1358
348.4752	0.1368
348.6845	0.1174
348.8937	0.1433
349.103	0.1321
349.3122	0.1286
349.5214	0.1344
349.7306	0.1301
349.9398	0.1386
350.149	0.1342
350.3582	0.142
350.5674	0.133
350.7765	0.1423
350.9856	0.1313
351.1948	0.1371
351.4039	0.1411
351.613	0.1416
351.822	0.1447
352.0311	0.1511
352.2402	0.1407
352.4492	0.1446
352.6582	0.1414
352.8672	0.1432
353.0762	0.1382
353.2852	0.1538
353.4942	0.1372
353.7032	0.1442
353.9121	0.1431
354.1211	0.1368
354.33	0.1651
354.5389	0.1366
354.7478	0.159
354.9567	0.1537
355.1655	0.1354
355.3744	0.1508
355.5833	0.173
355.7921	0.152
356.0009	0.1559
356.2097	0.1577
356.4185	0.1436
356.6273	0.1545
356.8361	0.1571
357.0448	0.1533
357.2536	0.1488
357.4623	0.158
357.671	0.172
357.8797	0.1599
358.0884	0.1726
358.2971	0.1586
358.5057	0.169
358.7144	0.172
358.923	0.1748
359.1316	0.1695
359.3402	0.1758
359.5488	0.1768
359.7574	0.173
359.966	0.1671
360.1746	0.1634
360.3831	0.1677
360.5916	0.1774
360.8002	0.1718
361.0087	0.1982
361.2172	0.1592
361.4256	0.1843
361.6341	0.1765
361.8426	0.1914
362.051	0.1947
362.2594	0.1914
362.4678	0.1762
362.6762	0.1777
362.8846	0.1777
363.093	0.172
363.3014	0.1755
363.5097	0.1831
363.718	0.1995
363.9264	0.2096
364.1347	0.1717
364.343	0.1907
364.5513	0.1878
364.7595	0.2017
364.9678	0.1973
365.176	0.1929
365.3842	0.1975
365.5925	0.1694
365.8007	0.2012
366.0089	0.1935
366.217	0.2066
366.4252	0.1987
366.6333	0.2092
366.8415	0.1998
367.0496	0.2051
367.2577	0.2171
367.4658	0.1955
367.6739	0.2012
367.882	0.2082
368.09	0.2291
368.2981	0.2072
368.5061	0.1963
368.7141	0.1975
368.9221	0.2098
369.1301	0.2064
369.3381	0.2115
369.5461	0.2236
369.754	0.2065
369.962	0.2121
370.1699	0.199
370.3778	0.2116
370.5857	0.2278
370.7936	0.2174
371.0015	0.215
371.2093	0.2225
371.4172	0.2162
371.625	0.2068
371.8328	0.2397
372.0406	0.2028
372.2484	0.22
372.4562	0.2159
372.664	0.2173
372.8717	0.2016
373.0795	0.2296
373.2872	0.2183
373.4949	0.2252
373.7026	0.2184
373.9103	0.2374
374.118	0.2126
374.3256	0.2184
374.5333	0.2316
374.7409	0.2302
374.9485	0.233
375.1561	0.2233
375.3637	0.2184
375.5713	0.2333
375.7789	0.2303
375.9864	0.2298
376.194	0.2317
376.4015	0.2428
376.609	0.2422
376.8165	0.226
377.024	0.2359
377.2315	0.2475
377.4389	0.2226
377.6464	0.2352
377.8538	0.2381
378.0612	0.2244
378.2686	0.2563
378.476	0.2402
378.6834	0.2466
378.8908	0.2333
379.0981	0.2568
379.3055	0.274
379.5128	0.2539
379.7201	0.2501
379.9274	0.2438
380.1347	0.248
380.342	0.2225
380.5492	0.2368
380.7565	0.2478
380.9637	0.2639
381.1709	0.2595
381.3781	0.2587
381.5853	0.2543
381.7925	0.2687
381.9997	0.2363
382.2068	0.2487
382.4139	0.2536
382.6211	0.2554
382.8282	0.2625
383.0353	0.2515
383.2424	0.2546
383.4494	0.2534
383.6565	0.2545
383.8635	0.2722
384.0706	0.25
384.2776	0.2677
384.4846	0.2431
384.6916	0.2664
384.8986	0.238
385.1055	0.2497
385.3125	0.261
385.5194	0.2623
385.7263	0.2626
385.9333	0.2333
386.1402	0.2434
386.347	0.2732
386.5539	0.2633
386.7608	0.2565
386.9676	0.2402
387.1744	0.2637
387.3813	0.2601
387.5881	0.2394
387.7948	0.2616
388.0016	0.2576
388.2084	0.2445
388.4151	0.2547
388.6219	0.2552
388.8286	0.2401
389.0353	0.2411
389.242	0.2455
389.4487	0.2551
389.6553	0.2361
389.862	0.2569
390.0686	0.2449
390.2753	0.263
390.4819	0.2423
390.6885	0.2558
390.8951	0.2418
391.1016	0.2634
391.3082	0.2455
391.5147	0.2469
391.7213	0.225
391.9278	0.2448
392.1343	0.2266
392.3408	0.2308
392.5473	0.2448
392.7537	0.2329
392.9602	0.2468
393.1666	0.222
393.373	0.2293
393.5794	0.2282
393.7858	0.2385
393.9922	0.2339
394.1986	0.2447
394.4049	0.2388
394.6113	0.2164
394.8176	0.2226
395.0239	0.2363
395.2302	0.2022
395.4365	0.2146
395.6428	0.2455
395.8491	0.2058
396.0553	0.2331
396.2615	0.2282
396.4678	0.2234
396.674	0.2169
396.8802	0.2288
397.0863	0.2144
397.2925	0.2182
397.4987	0.2341
397.7048	0.2129
397.9109	0.2241
398.117	0.2108
398.3231	0.2098
398.5292	0.2157
398.7353	0.225
398.9413	0.2144
399.1474	0.2224
399.3534	0.2133
399.5594	0.2245
399.7654	0.2189
399.9714	0.2281
400.1774	0.2102
400.3833	0.2191
400.5893	0.2067
400.7952	0.2132
401.0011	0.2154
401.207	0.2025
401.4129	0.2001
401.6188	0.2423
401.8247	0.2274
402.0305	0.2097
402.2364	0.2265
402.4422	0.2154
402.648	0.2065
402.8538	0.2217
403.0596	0.2199
403.2654	0.2143
403.4711	0.2075
403.6768	0.2044
403.8826	0.2186
404.0883	0.2203
404.294	0.2201
404.4997	0.1777
404.7054	0.2177
404.911	0.2017
405.1167	0.1924
405.3223	0.2181
405.5279	0.2318
405.7335	0.2338
405.9391	0.2094
406.1447	0.2206
406.3502	0.2279
406.5558	0.2279
406.7613	0.2179
406.9668	0.2198
407.1724	0.2173
407.3778	0.2166
407.5833	0.2123
407.7888	0.2065
407.9942	0.201
408.1997	0.2153
408.4051	0.1984
408.6105	0.1907
408.8159	0.2128
409.0213	0.2122
409.2267	0.2287
409.432	0.2354
409.6374	0.2248
409.8427	0.2066
410.048	0.2111
410.2533	0.2049
410.4586	0.1868
410.6639	0.2346
410.8691	0.2041
411.0744	0.2179
411.2796	0.2074
411.4848	0.223
411.69	0.218
411.8952	0.21
412.1004	0.2042
412.3056	0.2001
412.5107	0.201
412.7158	0.2131
412.921	0.2196
413.1261	0.2236
413.3312	0.1933
413.5362	0.2077
413.7413	0.2035
413.9464	0.2378
414.1514	0.1888
414.3564	0.1985
414.5614	0.1858
414.7664	0.227
414.9714	0.2156
415.1764	0.195
415.3813	0.2012
415.5863	0.2172
415.7912	0.184
415.9961	0.2134
416.201	0.207
416.4059	0.1762
416.6108	0.206
416.8156	0.2112
417.0205	0.2061
417.2253	0.2018
417.4301	0.2112
417.6349	0.2035
417.8397	0.19
418.0445	0.1867
418.2492	0.1797
418.454	0.1872
418.6587	0.2181
418.8634	0.2013
419.0681	0.2153
419.2728	0.1879
419.4775	0.1884
419.6822	0.2134
419.8868	0.1988
420.0915	0.1767
420.2961	0.1957
420.5007	0.197
420.7053	0.1974
420.9099	0.193
421.1144	0.2041
421.319	0.1898
421.5235	0.222
421.728	0.186
421.9325	0.201
422.137	0.2034
422.3415	0.1938
422.546	0.1872
422.7504	0.1995
422.9549	0.2093
423.1593	0.1823
423.3637	0.1977
423.5681	0.1792
423.7725	0.1769
423.9769	0.1934
424.1812	0.1789
424.3856	0.1938
424.5899	0.1866
424.7942	0.174
424.9985	0.1894
425.2028	0.1662
425.4071	0.173
425.6113	0.176
425.8156	0.1929
426.0198	0.1917
426.224	0.1941
426.4282	0.1961
426.6324	0.1982
426.8366	0.1684
427.0407	0.1559
427.2449	0.1689
427.449	0.1579
427.6531	0.1696
427.8572	0.1816
428.0613	0.166
428.2654	0.141
428.4694	0.1648
428.6735	0.1588
428.8775	0.157
429.0815	0.1585
429.2855	0.1585
429.4895	0.1621
429.6935	0.1429
429.8975	0.1438
430.1014	0.1534
430.3053	0.1606
430.5093	0.1547
430.7132	0.1542
430.9171	0.1493
431.1209	0.1385
431.3248	0.1411
431.5286	0.1311
431.7325	0.1608
431.9363	0.1212
432.1401	0.1388
432.3439	0.1362
432.5477	0.1416
432.7514	0.1228
432.9552	0.1163
433.1589	0.1385
433.3627	0.1167
433.5664	0.116
433.7701	0.1265
433.9737	0.1146
434.1774	0.1303
434.3811	0.118
434.5847	0.1113
434.7883	0.112
434.9919	0.1262
435.1955	0.1072
435.3991	0.1281
435.6027	0.1181
435.8062	0.1049
436.0098	0.1197
436.2133	0.0987
436.4168	0.0985
436.6203	0.0979
436.8238	0.0941
437.0272	0.0953
437.2307	0.1167
437.4341	0.0883
437.6375	0.1027
437.841	0.0896
438.0443	0.1008
438.2477	0.1017
438.4511	0.0725
438.6545	0.0939
438.8578	0.0866
439.0611	0.0765
439.2644	0.0804
439.4677	0.0816
439.671	0.0682
439.8743	0.0772
440.0775	0.0685
440.2808	0.069
440.484	0.0775
440.6872	0.0924
440.8904	0.069
441.0936	0.0629
441.2967	0.0662
441.4999	0.0403
441.703	0.0734
441.9062	0.0714
442.1093	0.0497
442.3124	0.0837
442.5155	0.0645
442.7185	0.0686
442.9216	0.0533
443.1246	0.0608
443.3276	0.0732
443.5307	0.0673
443.7337	0.0446
443.9366	0.0597
444.1396	0.0462
444.3426	0.0456
444.5455	0.0516
444.7484	0.042
444.9513	0.0399
445.1542	0.0561
445.3571	0.0698
445.56	0.0493
445.7628	0.0574
445.9657	0.0479
446.1685	0.0549
446.3713	0.0477
446.5741	0.0406
446.7769	0.0556
446.9797	0.0375
447.1824	0.0123
447.3852	0.0554
447.5879	0.0423
447.7906	0.0393
447.9933	0.0568
448.196	0.049
448.3986	0.0396
448.6013	0.0241
448.8039	0.0394
449.0066	0.0292
449.2092	0.0331
449.4118	0.0264
449.6143	0.0408
449.8169	0.0456
450.0195	0.0126
450.222	0.011
450.4245	0.0044
450.627	0.0238
450.8295	0.0212
451.032	0.0156
451.2345	0.0269
451.4369	0.0154
451.6394	0.024
451.8418	0.0068
452.0442	0.016
452.2466	0.0087
452.449	0.028
452.6513	0.0133
452.8537	0.0338
453.056	0.0181
453.2583	0.0117
453.4607	0.0106
453.663	0.0129
453.8652	0.0268
454.0675	0.0059
454.2697	0.0128
454.472	0.028
454.6742	0.0275
454.8764	0.0086
455.0786	0.0043
455.2808	0.0129
455.4829	0.0284
455.6851	0.0282
455.8872	0.0325
456.0893	0.0089
456.2915	0.0103
456.4935	0.0052
456.6956	-0.006
456.8977	0.0108
457.0997	0.0134
457.3018	0.0116
457.5038	0.0169
457.7058	0.0206
457.9078	0.0091
458.1098	0.0092
458.3117	0.0183
458.5137	-0.0001
458.7156	-0.0028
458.9175	0.0069
459.1194	0.0117
459.3213	0.0197
459.5232	-0.0022
459.725	-0.0051
459.9269	0.0064
460.1287	0.0159
460.3305	0.0059
460.5323	0.0078
460.7341	0.0025
460.9359	0.0141
461.1376	0.0047
461.3394	-0.0009
461.5411	-0.0007
461.7428	0.0096
461.9445	0.0142
462.1462	0.0028
462.3479	-0.0034
462.5495	0.0172
462.7512	-0.0053
462.9528	0.0078
463.1544	0.0121
463.356	-0.0072
463.5576	0.0038
463.7592	-0.0053
463.9607	0.0137
464.1623	-0.0054
464.3638	0.0123
464.5653	-0.0036
464.7668	0.0055
464.9683	0.0061
465.1697	0.0088
465.3712	-0.0066
465.5726	0.0013
465.7741	-0.0047
465.9755	-0.0172
466.1769	0.0037
466.3782	0.0193
466.5796	0.0087
466.7809	0.006
466.9823	-0.0021
467.1836	0.0104
467.3849	0.0048
467.5862	-0.01
467.7875	0.0158
467.9887	0.0001
468.19	-0.005
468.3912	0.0059
468.5924	-0.0087
468.7936	-0.0029
468.9948	-0.025
469.196	0.0109
469.3972	-0.0016
469.5983	0.0034
469.7994	-0.0032
470.0006	-0.0134
470.2017	0.0054
470.4027	-0.0104
470.6038	-0.0088
470.8049	0.0035
471.0059	-0.0043
471.2069	-0.0028
471.408	-0.0067
471.6089	0.0028
471.8099	0.0111
472.0109	-0.0057
472.2119	0.0126
472.4128	-0.0137
472.6137	0.0066
472.8146	-0.01
473.0155	-0.0022
473.2164	-0.0099
473.4173	0.0075
473.6181	-0.0199
473.819	-0.004
474.0198	-0.0163
474.2206	-0.0165
474.4214	-0.0037
474.6222	0.0057
474.8229	-0.0043
475.0237	0.0132
475.2244	0.0014
475.4251	0.0037
475.6258	-0.0042
475.8265	-0.008
476.0272	-0.0077
476.2278	-0.011
476.4285	-0.0027
476.6291	-0.0085
476.8297	0.0029
477.0303	0.002
477.2309	0.0077
477.4315	-0.0049
477.632	-0.0153
477.8326	-0.004
478.0331	-0.0233
478.2336	-0.0122
478.4341	-0.0014
478.6346	-0.0146
478.8351	0.0031
479.0355	-0.0228
479.236	-0.0134
479.4364	-0.0083
479.6368	0.0002
479.8372	0.0003
480.0376	-0.0133
480.2379	-0.0056
480.4383	-0.006
480.6386	-0.0153
480.8389	-0.0187
481.0392	0.0013
481.2395	-0.0021
481.4398	-0.0161
481.6401	0.0049
481.8403	-0.0015
482.0405	-0.0077
482.2408	-0.0207
482.441	-0.0175
482.6411	-0.0292
482.8413	-0.0187
483.0415	-0.002
483.2416	-0.0073
483.4417	0.0083
483.6419	-0.0091
483.8419	-0.0121
484.042	0.0094
484.2421	-0.0131
484.4422	-0.0105
484.6422	0.0062
484.8422	0.003
485.0422	0.0016
485.2422	-0.0119
485.4422	-0.0028
485.6422	-0.0134
485.8421	-0.002
486.042	0.0024
486.242	-0.0098
486.4419	-0.0091
486.6417	-0.0005
486.8416	-0.0052
487.0415	-0.0123
487.2413	-0.0098
487.4411	-0.0023
487.641	0.0061
487.8408	-0.0137
488.0405	-0.0034
488.2403	-0.0076
488.4401	0.0081
488.6398	-0.0049
488.8395	-0.01
489.0392	-0.0115
489.2389	-0.0206
489.4386	-0.0112
489.6383	-0.0062
489.8379	-0.0038
490.0376	-0.0034
490.2372	-0.0033
490.4368	-0.0075
490.6364	-0.0042
490.836	-0.009
491.0355	-0.0125
491.2351	-0.0006
491.4346	-0.0112
491.6341	-0.0006
491.8336	-0.0059
492.0331	-0.0117
492.2326	-0.0171
492.432	-0.0113
492.6315	-0.0009
492.8309	-0.0076
493.0303	-0.0109
493.2297	-0.01
493.4291	-0.012
493.6284	-0.0126
493.8278	-0.0086
494.0271	-0.007
494.2264	-0.0092
494.4257	-0.0151
494.625	-0.0041
494.8243	-0.0022
495.0236	-0.014
495.2228	-0.0102
495.422	-0.0062
495.6213	-0.0076
495.8205	-0.0107
496.0196	-0.0127
496.2188	-0.0041
496.418	-0.0141
496.6171	-0.0082
496.8162	-0.0133
497.0153	-0.0028
497.2144	-0.0083
497.4135	-0.0061
497.6126	-0.0087
497.8116	-0.0127
498.0107	-0.0015
498.2097	-0.0094
498.4087	-0.0128
498.6077	-0.0065
498.8067	0.0059
499.0056	-0.0168
499.2046	-0.0003
499.4035	-0.0049
499.6024	-0.0141
499.8013	-0.0121
500.0002	-0.0076
500.199	-0.0066
500.3979	-0.0073
500.5967	-0.0101
500.7956	-0.0093
500.9944	-0.0049
501.1932	0.0002
501.3919	-0.0072
501.5907	-0.0138
501.7895	-0.0156
501.9882	-0.0074
502.1869	-0.0152
502.3856	-0.0127
502.5843	-0.0087
502.783	-0.0082
502.9816	0.0059
503.1803	-0.0095
503.3789	-0.0021
503.5775	-0.0061
503.7761	-0.0212
503.9747	-0.0115
504.1732	0.0008
504.3718	0.0029
504.5703	-0.0066
504.7689	-0.003
504.9674	-0.0123
505.1658	-0.0032
505.3643	0.0017
505.5628	-0.0011
505.7612	-0.0068
505.9597	-0.013
506.1581	0.0043
506.3565	-0.0082
506.5549	-0.0038
506.7532	0.0011
506.9516	-0.0078
507.1499	-0.0148
507.3482	0.0016
507.5465	0.0006
507.7448	0.0043
507.9431	-0.0107
508.1414	-0.0122
508.3396	-0.0081
508.5379	-0.0058
508.7361	-0.0138
508.9343	-0.0066
509.1325	0.0071
509.3306	-0.0101
509.5288	-0.0167
509.7269	-0.0001
509.9251	-0.0038
510.1232	-0.0089
510.3213	-0.0045
510.5193	-0.0131
510.7174	-0.0081
510.9154	-0.0035
511.1135	-0.0104
511.3115	-0.0116
511.5095	-0.0173
511.7075	0.0088
511.9055	-0.0109
512.1034	-0.0059
512.3014	-0.0054
512.4993	0.0107
512.6972	-0.0019
512.8951	-0.0028
513.093	-0.0101
513.2908	-0.0129
513.4887	-0.0034
513.6865	0.0067
513.8844	-0.009
514.0822	-0.0021
514.2799	-0.0175
514.4777	0.0029
514.6755	-0.0014
514.8732	-0.0098
515.0709	-0.0004
515.2687	0.0041
515.4664	-0.0011
515.664	-0.0194
515.8617	-0.008
516.0594	-0.0014
516.257	-0.0075
516.4546	-0.0131
516.6522	-0.0094
516.8498	-0.0143
517.0474	-0.0019
517.2449	-0.0038
517.4425	-0.0082
517.64	-0.0188
517.8375	-0.001
518.035	-0.0097
518.2325	-0.0201
518.43	-0.0086
518.6274	-0.0026
518.8249	-0.002
519.0223	-0.0104
519.2197	-0.0047
519.4171	0.0048
519.6145	-0.001
519.8118	-0.0054
520.0092	-0.0029
520.2065	-0.0066
520.4038	-0.0093
520.6011	-0.0008
520.7984	0.0008
520.9956	0.0025
521.1929	-0.0107
521.3901	-0.0055
521.5874	-0.0065
521.7846	-0.0072
521.9818	0.001
522.1789	0.0069
522.3761	-0.0002
522.5732	-0.0106
522.7704	0.0043
522.9675	-0.0035
523.1646	-0.0115
523.3617	-0.0127
523.5587	0.0052
523.7558	-0.009
523.9528	0.0022
524.1498	-0.004
524.3468	-0.0046
524.5438	0.0063
524.7408	-0.0086
524.9378	0.0048
525.1347	-0.0024
525.3316	0.0038
525.5285	-0.0145
525.7254	-0.0111
525.9223	-0.0046
526.1192	-0.0061
526.316	0.011
526.5129	-0.0053
526.7097	0.0017
526.9065	-0.0037
527.1033	-0.0022
527.3	-0.0008
527.4968	-0.0106
527.6935	0.0062
527.8903	0.0061
528.087	0.0083
528.2837	0.0127
528.4804	0.0065
528.677	-0.0014
528.8737	-0.002
529.0703	0.0019
529.2669	-0.0044
529.4635	-0.0122
529.6601	-0.0104
529.8567	0.0067
530.0532	-0.0007
530.2498	0.0006
530.4463	0.002
530.6428	0.0004
530.8393	-0.0008
531.0358	0.0071
531.2322	0.0049
531.4287	0.0002
531.6251	0.0031
531.8215	-0.0048
532.0179	-0.0058
532.2143	-0.0019
532.4107	0.005
532.607	0.0035
532.8034	-0.0084
532.9997	0.0072
533.196	-0.0017
533.3923	0.0089
533.5886	0.0024
533.7848	-0.0053
533.9811	-0.002
534.1773	0.0005
534.3735	-0.0002
534.5697	-0.0031
534.7659	-0.0059
534.9621	-0.0085
535.1582	-0.003
535.3544	-0.0016
535.5505	-0.006
535.7466	-0.0028
535.9427	-0.0015
536.1387	-0.0023
536.3348	-0.007
536.5308	-0.0047
536.7269	0.0034
536.9229	0.0018
537.1189	0.0011
537.3148	-0.0124
537.5108	-0.0003
537.7068	-0.0058
537.9027	-0.0054
538.0986	-0.0042
538.2945	-0.0017
538.4904	0.0046
538.6863	-0.0027
538.8821	-0.0112
539.078	0.0052
539.2738	0.0068
539.4696	-0.0075
539.6654	0.0038
539.8611	0.0031
540.0569	-0.0029
540.2526	0.0081
540.4484	0.0098
540.6441	0.0031
540.8398	-0.0035
541.0355	-0.001
541.2311	0.0058
541.4268	0.0056
541.6224	0.0085
541.818	-0.0056
542.0136	-0.0001
542.2092	-0.0031
542.4048	0.0034
542.6003	0.0053
542.7959	-0.0025
542.9914	0.0004
543.1869	-0.0014
543.3824	-0.0029
543.5779	0.0048
543.7734	0.0032
543.9688	-0.0044
544.1642	-0.0032
544.3596	-0.0062
544.555	0.0028
544.7504	-0.0012
544.9458	0.003
545.1411	0.0076
545.3365	0.0028
545.5318	0.0055
545.7271	-0.0058
545.9224	0.0035
546.1177	-0.0087
546.3129	-0.0041
546.5081	-0.01
546.7034	0.0007
546.8986	0.0052
547.0938	0.002
547.289	-0.0027
547.4841	0.0015
547.6793	-0.0051
547.8744	0.0078
548.0695	-0.0047
548.2646	-0.0031
548.4597	-0.0028
548.6548	-0.0022
548.8498	0.0132
549.0448	-0.0047
549.2399	-0.0015
549.4349	0.0016
549.6298	0.0109
549.8248	0.0006
550.0198	0.0076
550.2147	-0.0011
550.4096	-0.0002
550.6045	-0.0085
550.7994	-0.0065
550.9943	-0.0039
551.1892	-0.0066
551.384	0.0022
551.5788	0
551.7737	-0.0125
551.9685	0.0111
552.1632	0.0049
552.358	-0.0017
552.5528	-0.0066
552.7475	-0.0072
552.9422	0.0033
553.1369	-0.0057
553.3316	0.0023
553.5263	0.0062
553.7209	-0
553.9156	0.0036
554.1102	-0.0156
554.3048	-0.003
554.4994	-0.0002
554.694	0.0043
554.8885	0.0011
555.0831	0.0061
555.2776	0.0087
555.4721	0.0165
555.6666	-0.0044
555.8611	0.0008
556.0555	0.0025
556.25	0.0044
556.4444	0.0176
556.6388	0.012
556.8332	0.0079
557.0276	0.0029
557.222	-0.0018
557.4163	0.0038
557.6107	0.0163
557.805	0.0047
557.9993	-0.0017
558.1936	0.0032
558.3879	0.0073
558.5821	0.009
558.7764	0.0071
558.9706	-0.0021
559.1648	0.0051
559.359	0.0033
559.5532	0.0005
559.7473	0.0096
559.9415	0.0068
560.1356	0.0031
560.3297	-0.0019
560.5238	0.0096
560.7179	0.0123
560.9119	-0.0036
561.106	0.0119
561.3	-0.0008
561.494	0.0015
561.688	0.0082
561.882	0.0063
562.076	-0.004
562.2699	-0.0026
562.4639	0.004
562.6578	-0.0085
562.8517	0.0091
563.0456	0.0028
563.2395	0.0045
563.4333	-0.0073
563.6272	0.0105
563.821	-0.017
564.0148	0.0048
564.2086	-0.016
564.4024	-0.0063
564.5961	0.0207
564.7899	-0.0049
564.9836	0.0061
565.1773	0.0088
565.371	0.0087
565.5647	-0.0009
565.7584	0.0018
565.952	0.0067
566.1456	0.0105
566.3393	0.002
566.5329	0.0038
566.7264	-0.0035
566.92	0.002
567.1136	0.0103
567.3071	0.0021
567.5006	0.004
567.6941	0.0062
567.8876	0
568.0811	-0.0106
568.2745	0.0047
568.468	0.0064
568.6614	0.0066
568.8548	0.0055
569.0482	0.0044
569.2416	0.0014
569.4349	0.0058
569.6283	0.0004
569.8216	0.002
570.0149	0.0068
570.2082	0.0097
570.4015	0.0094
570.5947	0.0052
570.788	0.0053
570.9812	0.004
571.1744	0.0045
571.3676	0.0035
571.5608	0.0019
571.754	-0.0027
571.9471	-0.0023
572.1402	-0.002
572.3333	-0
572.5264	0.0018
572.7195	-0.0024
572.9126	0.0068
573.1057	0.0046
573.2987	-0
573.4917	-0.0093
573.6847	-0.001
573.8777	-0.0009
574.0707	0.0025
574.2636	0.003
574.4566	0.0056
574.6495	0.0073
574.8424	0.0048
575.0353	0.0025
575.2281	0.0064
575.421	-0.0014
575.6138	0.0015
575.8067	0.0038
575.9995	0.0118
576.1923	0.0045
576.385	0.0062
576.5778	-0.0074
576.7706	0.0075
576.9633	0.0011
577.156	0.0045
577.3487	0.0034
577.5414	0.0018
577.734	-0.009
577.9267	-0.0002
578.1193	0.0027
578.3119	0.0011
578.5045	0.007
578.6971	0.0024
578.8897	-0.0004
579.0822	-0.0075
579.2747	0.0008
579.4673	0.0018
579.6598	0.011
579.8522	0.0102
580.0447	-0.0009
580.2372	0.0115
580.4296	0.0161
580.622	0.0082
580.8144	0.0036
581.0068	0.0051
581.1992	0.0096
581.3915	0.0005
581.5839	0.0096
581.7762	0.0025
581.9685	0.0014
582.1608	0.0018
582.353	0.0009
582.5453	-0.0014
582.7375	-0.0048
582.9298	-0.0032
583.122	0.0055
583.3142	0.0056
583.5063	0.0065
583.6985	-0.0024
583.8906	0.0027
584.0827	0.0047
584.2749	0.002
584.4669	0.0021
584.659	-0.0008
584.8511	0.0042
585.0431	-0.0038
585.2352	-0.004
585.4272	-0.0029
585.6192	0.0021
585.8111	-0.0019
586.0031	0.0028
586.195	-0.0026
586.387	-0.0047
586.5789	-0.0018
586.7708	0.0037
586.9627	-0.0009
587.1545	0.0067
587.3464	0.0059
587.5382	-0.0042
587.73	0.0093
587.9218	0.0075
588.1136	0.0076
588.3053	-0.001
588.4971	-0.0006
588.6888	0.0037
588.8805	-0.0019
589.0722	0.0089
589.2639	0.0065
589.4556	-0.0024
589.6472	0.0009
589.8389	0.0028
590.0305	0.004
590.2221	0.0039
590.4137	-0.0011
590.6052	0.0054
590.7968	0.0023
590.9883	0.0009
591.1798	-0.0055
591.3713	-0.0007
591.5628	0.0025
591.7543	0.0102
591.9458	0.0043
592.1372	0.0033
592.3286	0.0081
592.52	0.0036
592.7114	0.0054
592.9028	0.0017
593.0941	0.0068
593.2855	0.0018
593.4768	-0.0018
593.6681	0
593.8594	0.0058
594.0506	-0.0094
594.2419	0.0059
594.4331	-0
594.6244	0.0024
594.8156	0.0116
595.0067	0.0015
595.1979	-0.0008
595.3891	0.0076
595.5802	0.0011
595.7713	-0.0045
595.9624	0.0083
596.1535	0.0021
596.3446	0.0065
596.5357	0.0068
596.7267	0.0034
596.9177	0.0048
597.1087	0.012
597.2997	0.0067
597.4907	0.0062
597.6817	0.001
597.8726	0.0119
598.0635	0.005
598.2544	0.0076
598.4453	0.0102
598.6362	0.007
598.827	0.006
599.0179	0.0077
599.2087	-0.0037
599.3995	0.0109
599.5903	0.0068
599.7811	0.0001
599.9718	-0.002
600.1626	0.0051
600.3533	-0.0064
600.544	0.002
600.7347	0.0081
600.9254	0.0051
601.116	0.0019
601.3067	-0.0083
601.4973	0.0005
601.6879	-0.0007
601.8785	-0.0012
602.0691	0.0076
602.2596	0.0051
602.4502	0.0076
602.6407	0.0062
602.8312	-0.0014
603.0217	0.0017
603.2122	-0.001
603.4027	0.0082
603.5931	0.0055
603.7835	0.007
603.9739	0.0043
604.1643	0.0072
604.3547	0.0069
604.5451	0.0067
604.7354	0.0054
604.9257	-0.0049
605.116	-0.0081
605.3063	0.0093
605.4966	-0.0022
605.6869	0.0161
605.8771	0.0002
606.0673	0.0032
606.2575	-0.0008
606.4477	-0.0016
606.6379	0.0059
606.8281	0.0017
607.0182	0.0042
607.2083	0.004
607.3985	0.0063
607.5885	0.002
607.7786	0.0046
607.9687	0.0046
608.1587	0.0051
608.3488	0.0033
608.5388	0.0066
608.7288	0.0006
608.9187	0.0038
609.1087	-0.0042
609.2986	0.006
609.4886	0.0026
609.6785	0.0021
609.8684	0.0054
610.0582	0.0079
610.2481	0.0018
610.4379	-0.0004
610.6278	-0.0023
610.8176	0.0137
611.0074	0.0021
611.1971	0.0019
611.3869	-0.0003
611.5766	0.0082
611.7664	-0.0037
611.9561	0.0096
612.1458	0.0059
612.3354	0.0123
612.5251	0.006
612.7147	-0.0032
612.9044	0.0078
613.094	-0.0029
613.2836	0.0123
613.4731	0.0056
613.6627	0.0024
613.8522	0.0042
614.0417	0.0067
614.2313	0.0018
614.4207	0.0051
614.6102	0.0014
614.7997	-0.0011
614.9891	0.0083
615.1785	0.004
615.3679	0.0136
615.5573	0.0078
615.7467	0.0052
615.9361	0.0034
616.1254	0.0048
616.3147	-0.0017
616.504	-0.0039
616.6933	0.0042
616.8826	0.008
617.0718	-0.0004
617.2611	0.0044
617.4503	0.0052
617.6395	0.0011
617.8287	0.0145
618.0179	0.0059
618.207	0.0079
618.3961	0.0097
618.5853	0.0065
618.7744	0.007
618.9634	0.0048
619.1525	0.0064
619.3416	0.0067
619.5306	0.0096
619.7196	-0.0067
619.9086	0.0013
620.0976	-0.0004
620.2866	0.0112
620.4755	0.0074
620.6645	0.0117
620.8534	0.0057
621.0423	0.0044
621.2312	0.0032
621.42	0.004
621.6089	0.0116
621.7977	0.0125
621.9865	0.015
622.1753	0.0122
622.3641	0.0132
622.5529	0.0085
622.7416	0.0146
622.9303	0.0106
623.1191	0.0074
623.3078	0.008
623.4964	0.0067
623.6851	0.019
623.8737	0.0166
624.0624	0.0008
624.251	0.0092
624.4396	0.0068
624.6282	0.0145
624.8167	0.0169
625.0053	0.0057
625.1938	0.0097
625.3823	0.0069
625.5708	-0.0011
625.7593	0.0012
625.9477	0.0112
626.1362	0.0092
626.3246	0.0088
626.513	0.0047
626.7014	0.0068
626.8898	0.0023
627.0781	0.0006
627.2665	0.0061
627.4548	0.0089
627.6431	0.0058
627.8314	0.0073
628.0197	0.0025
628.2079	0.0008
628.3962	0.0056
628.5844	0.0098
628.7726	0.0084
628.9608	0.0071
629.1489	0.0011
629.3371	0.0052
629.5252	0.0082
629.7134	0.003
629.9015	0.0073
630.0895	0.0093
630.2776	0.0009
630.4657	0.0091
630.6537	0.0097
630.8417	0.0108
631.0297	0.012
631.2177	0.0146
631.4057	0.0106
631.5936	0.0128
631.7815	0.016
631.9695	0.0177
632.1574	0.0094
632.3452	0.012
632.5331	0.0047
632.7209	0.0026
632.9088	-0.0045
633.0966	0.0022
633.2844	0.0083
633.4722	0.0032
633.6599	0.0122
633.8477	0.0094
634.0354	0.0017
634.2231	0.0057
634.4108	0.0073
634.5985	-0.0014
634.7861	0.0062
634.9738	0.0112
635.1614	0.0108
635.349	0.0045
635.5366	0.0054
635.7242	0.0118
635.9117	0.0027
636.0993	0.0146
636.2868	0.0097
636.4743	0.0036
636.6618	0.0073
636.8492	0.0163
637.0367	0.009
637.2241	0.0099
637.4115	0.0076
637.5989	0.0141
637.7863	0.0169
637.9737	0.0081
638.161	0.0154
638.3484	0.0153
638.5357	0.0035
638.723	-0.0007
638.9103	0.0059
639.0975	-0.0003
639.2848	0.0107
639.472	0.0051
639.6592	0.0075
639.8464	0.0084
640.0336	0.007
640.2208	-0.0014
640.4079	0.0038
640.595	0.0051
640.7821	0.0032
640.9692	0.0005
641.1563	0.0066
641.3434	0.0081
641.5304	0.0126
641.7174	0.0168
641.9044	0.0047
642.0914	0.0055
642.2784	-0.0013
642.4653	0.0045
642.6523	0.006
642.8392	0.0134
643.0261	0.0016
643.213	0.0002
643.3999	-0.0016
643.5867	0.0066
643.7735	0.0076
643.9604	0.0039
644.1472	-0.0027
644.3339	0.0063
644.5207	0.0058
644.7075	-0.0054
644.8942	0.0007
645.0809	0.0077
645.2676	0.0086
645.4543	0.013
645.6409	0.0071
645.8276	0.0016
646.0142	-0.0005
646.2008	0.0141
646.3874	0.0102
646.574	0.0038
646.7605	0.0044
646.9471	0.0087
647.1336	0.009
647.3201	0.0119
647.5066	0.0043
647.6931	0.0032
647.8795	0.0012
648.0659	0.0048
648.2524	0.0142
648.4388	0.0113
648.6252	0.0021
648.8115	0.0035
648.9979	0.0016
649.1842	0.007
649.3705	0.0018
649.5568	0.0047
649.7431	0.0105
649.9294	0.0064
650.1156	0.0044
650.3018	0.0047
650.488	0.0027
650.6742	-0.001
650.8604	0.0099
651.0466	0.0123
651.2327	0.0071
651.4188	0.0023
651.6049	0.0175
651.791	0.008
651.9771	0.0121
652.1632	0.0087
652.3492	0.0133
652.5352	0.0046
652.7212	0.0047
652.9072	-0.0072
653.0932	0.0038
653.2791	0.0007
653.465	0.0076
653.651	0.0048
653.8369	0.0066
654.0227	0.0086
654.2086	0.0031
654.3944	0.0119
654.5803	0.0022
654.7661	0.0068
654.9519	-0.0007
655.1377	0.0001
655.3234	-0.0017
655.5092	0.0006
655.6949	-0.0065
655.8806	-0.0003
656.0663	0.0018
656.2519	-0.0035
656.4376	0.0029
656.6232	-0.0023
656.8088	0.0138
656.9945	0.0006
657.18	0.0025
657.3656	0.0083
657.5511	-0.0023
657.7367	0.0074
657.9222	0.0116
658.1077	0.007
658.2932	0.0028
658.4786	-0.0029
658.6641	-0.0015
658.8495	0.004
659.0349	0.012
659.2203	0.0001
659.4057	0.0005
659.591	0.0075
659.7764	0.0037
659.9617	0.0005
660.147	0.0089
660.3323	0.0054
660.5176	-0.0015
660.7028	0.0003
660.888	0.0066
661.0733	0.0134
661.2585	0.0123
661.4436	0.0046
661.6288	0.0183
661.8139	0.0044
661.9991	-0.0022
662.1842	0.0021
662.3693	-0.0017
662.5544	0.0109
662.7394	0.0063
662.9245	0.0107
663.1095	0.0103
663.2945	0.0055
663.4795	0.0064
663.6644	0.0062
663.8494	0.006
664.0343	0.0031
664.2193	0.0171
664.4042	0.0152
664.589	0.0054
664.7739	0.0066
664.9587	0.0035
665.1436	-0.0036
665.3284	0.0061
665.5132	0.0078
665.698	0.0098
665.8827	0.001
666.0675	0.008
666.2522	0.0104
666.4369	0.0052
666.6216	0.0107
666.8063	0.0085
666.9909	0.004
667.1756	0.0159
667.3602	0.0043
667.5448	0.0163
667.7294	0.0144
667.9139	0.0129
668.0985	0.0049
668.283	0.0096
668.4675	0.0069
668.652	0.008
668.8365	0.0006
669.0209	0.0027
669.2054	0.0041
669.3898	0.0017
669.5742	-0.0007
669.7586	0.002
669.943	0.0093
670.1273	0.0104
670.3117	0.0076
670.496	0.0033
670.6803	0.0071
670.8646	0.0097
671.0488	0.0104
671.2331	0.0117
671.4173	0.0131
671.6015	0.0069
671.7857	-0.0009
671.9699	0.0056
672.1541	0.0025
672.3382	0.0049
672.5223	0.0117
672.7064	0.0036
672.8905	0.0044
673.0746	0.0117
673.2587	0.012
673.4427	0.0028
673.6267	0.0045
673.8107	0.0139
673.9947	0.009
674.1787	0.0108
674.3626	0.015
674.5465	0.0105
674.7304	0.0124
674.9143	0.0143
675.0982	0.0121
675.2821	-0.0006
675.4659	0.018
675.6497	0.0001
675.8335	0.0145
676.0173	0.0059
676.2011	0.0055
676.3849	0.0062
676.5686	0.0204
676.7523	0.0109
676.936	-0.0031
677.1197	0.0114
677.3034	0.0027
677.487	0.0034
677.6706	0.018
677.8542	0.0081
678.0378	0.0084
678.2214	0.0113
678.405	0.0206
678.5885	0.0138
678.772	0.0076
678.9555	0.0077
679.139	0.0157
679.3225	0.0098
679.5059	0.0091
679.6894	0.012
679.8728	0.0053
680.0562	0.0154
680.2395	0.0138
680.4229	-0.0055
680.6062	0.0062
680.7896	0.0063
680.9729	0.0054
681.1562	0.0053
681.3394	0.0021
681.5227	0.013
681.7059	0.0048
681.8891	0.0081
682.0723	0.01
682.2555	0.0027
682.4387	0.0014
682.6218	0.016
682.805	0.0056
682.9881	0.0141
683.1712	0.0238
683.3542	0.0049
683.5373	0.0143
683.7203	0.0185
683.9034	0.0124
684.0864	0.0089
684.2694	0.0099
684.4523	0.0085
684.6353	0.0046
684.8182	0.0079
685.0011	0.0144
685.184	0.0048
685.3669	-0.0011
685.5498	0.0031
685.7326	0.0108
685.9154	0.0035
686.0982	0.0157
686.281	0.0092
686.4638	0.004
686.6465	0.0073
686.8293	0.0139
687.012	0.0157
687.1947	0.0074
687.3774	0.0132
687.56	0.0073
687.7427	0.0169
687.9253	0.0098
688.1079	0.0097
688.2905	0.0092
688.4731	0.0108
688.6556	0.0144
688.8382	0.0065
689.0207	0.0129
689.2032	0.0082
689.3857	0.0105
689.5681	0.0122
689.7506	-0.0021
689.933	0.0084
690.1154	0.0043
690.2978	0.0001
690.4802	0.004
690.6626	0.0095
690.8449	0.012
691.0272	0.0066
691.2095	0.0127
691.3918	0.0063
691.5741	0.0145
691.7563	0.0148
691.9386	0.0008
692.1208	-0.0001
692.303	0.0063
692.4852	0.0105
692.6673	0.0064
692.8495	0.0084
693.0316	0.0117
693.2137	0.012
693.3958	0.0118
693.5778	0.0143
693.7599	0.0074
693.9419	0.0121
694.1239	0.0135
694.3059	0.0145
694.4879	0.0102
694.6699	0.0048
694.8518	0.0013
695.0337	0.0069
695.2157	0.0147
695.3975	0.0089
695.5794	0.0066
695.7613	0.0076
695.9431	0.0078
696.1249	0.0073
696.3067	0.0039
696.4885	0.0086
696.6703	0.0045
696.852	0.0074
697.0337	0.0113
697.2154	0.0095
697.3971	0.007
697.5788	0.0051
697.7605	0.0005
697.9421	0.0013
698.1237	0.0172
698.3053	0.0106
698.4869	0.011
698.6685	0.0089
698.85	0.0152
699.0315	0.0166
699.213	0.0079
699.3945	0.0011
699.576	0.0111
699.7575	0.0185
699.9389	0.0164
700.1203	0.0118
700.3017	0.0155
700.4831	-0.0005
700.6645	0.0012
700.8458	0.0071
701.0271	0.0149
701.2084	0.0016
701.3897	-0.0045
701.571	0.0033
701.7523	0.0009
701.9335	-0.0121
702.1147	0.0092
702.2959	-0.0033
702.4771	0.0052
702.6583	0.0046
702.8394	0.0066
703.0205	0.009
703.2016	0.0118
703.3827	0.004
703.5638	0.0104
703.7449	0.0121
703.9259	-0.0034
704.1069	-0.0035
704.2879	0.0104
704.4689	0.0042
704.6499	0.0049
704.8308	0.0047
705.0117	0.005
705.1927	0.0099
705.3735	0.0006
705.5544	0.0004
705.7353	0.0076
705.9161	0.0049
706.0969	0.0123
706.2777	0.0087
706.4585	0.0103
706.6393	0.0097
706.82	0.0044
707.0007	-0.0017
707.1815	0.0013
707.3621	0.0054
707.5428	0.0134
707.7235	0.0048
707.9041	0.0046
708.0847	0.0191
708.2653	0.0097
708.4459	0.0102
708.6265	0.0192
708.807	0.0189
708.9875	0.0142
709.168	0.0127
709.3485	0.006
709.529	0.0048
709.7095	0.0089
709.8899	0.0135
710.0703	0.0087
710.2507	0.0036
710.4311	0.0072
710.6115	0.0036
710.7918	0.0103
710.9721	0.0041
711.1524	0.0033
711.3327	0.0009
711.513	0.0016
711.6932	0.003
711.8735	-0.0018
712.0537	0.001
712.2339	-0.0124
712.4141	-0.0009
712.5942	0.0046
712.7744	0.0076
712.9545	0.0066
713.1346	0.0044
713.3147	-0.0007
713.4947	-0.0004
713.6748	0.0014
713.8548	0.0055
714.0348	0.0103
714.2148	0.0012
714.3948	0.0027
714.5748	0.0093
714.7547	0.0089
714.9346	-0.0082
715.1145	0.0039
715.2944	-0.0054
715.4743	0.0048
715.6541	0.0174
715.834	-0.0003
716.0138	0.0073
716.1936	0.0153
716.3733	0.013
716.5531	0.0117
716.7328	0.0054
716.9126	0.0041
717.0923	0.0054
717.2719	0.0126
717.4516	0.0035
717.6312	-0.001
717.8109	0.0065
717.9905	0.0044
718.1701	-0.0009
718.3496	0.0101
718.5292	0.0029
718.7087	-0.0043
718.8882	-0.0058
719.0677	0.0114
719.2472	0.0064
719.4267	0.0057
719.6061	0.0088
719.7856	0.0085
719.965	0.0052
720.1443	0.0121
720.3237	0.0071
720.5031	0.0121
720.6824	0.0084
720.8617	0.0072
721.041	0.0021
721.2203	0.002
721.3995	0.0118
721.5788	0.0123
721.758	0.0051
721.9372	0.0118
722.1164	0.0078
722.2956	0.0094
722.4747	0.008
722.6538	0.0015
722.8329	0.0134
723.012	0.0037
723.1911	-0.0012
723.3702	0.0014
723.5492	0.0074
723.7282	0.001
723.9072	0.0105
724.0862	0.0053
724.2652	0.0155
724.4441	-0.0029
724.623	0.0106
724.8019	-0.0068
724.9808	0.0057
725.1597	0.0167
725.3385	0.0143
725.5174	0.0063
725.6962	0.0057
725.875	0.0029
726.0538	0.0043
726.2325	0.0071
726.4112	0.0005
726.59	0.0044
726.7687	0.0006
726.9474	-0.0027
727.126	-0.0008
727.3047	-0.0035
727.4833	-0.0038
727.6619	0.0005
727.8405	-0.0006
728.0191	-0.0013
728.1976	0.0021
728.3762	0.0096
728.5547	0.0069
728.7332	0.0085
728.9116	-0.0147
729.0901	0.0008
729.2686	0.0016
729.447	0.0013
729.6254	0.0031
729.8038	0.0058
729.9821	0.0082
730.1605	0.0136
730.3388	0.004
730.5171	0.0003
730.6954	0.0022
730.8737	0.007
731.0519	0.0036
731.2302	0.0086
731.4084	0.0051
731.5866	-0.0051
731.7648	0.0112
731.9429	0.0009
732.1211	-0.0074
732.2992	0.0076
732.4773	-0.0045
732.6554	-0.0047
732.8335	0.0027
733.0115	-0.0026
733.1896	0.0011
733.3676	0.0002
733.5456	0.0049
733.7235	-0.0067
733.9015	0.0081
734.0794	-0.0037
734.2574	0.0082
734.4353	-0.0004
734.6131	0.0014
734.791	0.0051
734.9689	0.0118
735.1467	0.0043
735.3245	-0.0085
735.5023	0.0085
735.68	0.0079
735.8578	0.0098
736.0355	-0.0026
736.2132	0.0138
736.3909	0.0042
736.5686	0.0067
736.7463	0.007
736.9239	0.0057
737.1015	0.0132
737.2791	0.0121
737.4567	0.0007
737.6343	-0.005
737.8118	-0.002
737.9894	0.0073
738.1669	0.006
738.3444	0.0009
738.5218	0.0104
738.6993	0.0069
738.8767	0.0015
739.0541	0.0038
739.2315	0.0061
739.4089	0.0142
739.5863	0.0126
739.7636	0.0059
739.9409	0.0055
740.1182	-0.0016
740.2955	0.0108
740.4728	0.008
740.65	-0.0044
740.8272	-0.0028
741.0044	-0
741.1816	0.0082
741.3588	0.0047
741.5359	0.0123
741.7131	0.007
741.8902	-0.0041
742.0673	0.0125
742.2444	0.0043
742.4214	0.0084
742.5985	0.0059
742.7755	0.0031
742.9525	0.006
743.1295	0.0088
743.3064	0.0051
743.4834	0.0022
743.6603	-0.0111
743.8372	-0.0058
744.0141	0.0032
744.191	0.0028
744.3678	-0.0053
744.5446	-0.0032
744.7215	0.0144
744.8982	0.0152
745.075	-0.0008
745.2518	-0.0012
745.4285	-0.0054
745.6052	-0.0013
745.7819	-0.0119
745.9586	-0.004
746.1353	-0.0087
746.3119	0.0058
746.4885	0.0012
746.6651	-0.0004
746.8417	0.0068
747.0183	0.0158
747.1948	0.0005
747.3714	0.0099
747.5479	-0.0102
747.7244	0.0092
747.9008	0.0048
748.0773	0.0042
748.2537	-0.0002
748.4301	-0.002
748.6065	0.0087
748.7829	-0.0034
748.9593	0.0008
749.1356	0.0025
749.3119	0.0065
749.4882	-0.0002
749.6645	0.0056
749.8408	0
750.017	0.0097
750.1933	0.0089
750.3695	0.0176
750.5457	0.014
750.7218	0.0124
750.898	0.0247
751.0741	0.0191
751.2502	0.019
751.4263	0.0104
751.6024	0.0077
751.7784	0.005
751.9545	0.0048
752.1305	0.0055
752.3065	0.0065
752.4825	0.0086
752.6584	0.0066
752.8344	0.008
753.0103	-0.0001
753.1862	0.0036
753.3621	0.0027
753.5379	0.005
753.7138	0.0082
753.8896	0.0104
754.0654	0.0092
754.2412	0.0054
754.417	-0.0024
754.5927	0.0099
754.7685	0.0111
754.9442	0.0037
755.1199	0.0028
755.2956	0.0087
755.4712	-0.0014
755.6469	0.01
755.8225	0.0125
755.9981	0.0057
756.1736	0.0068
756.3492	0.0092
756.5248	0.0093
756.7003	0.005
756.8758	0.0134
757.0513	0.0048
757.2267	0.0083
757.4022	0.0102
757.5776	0.0066
757.753	0.0017
757.9284	0.0113
758.1038	-0.0033
758.2791	-0.0005
758.4545	0.0142
758.6298	0.0077
758.8051	0.0091
758.9803	0.0006
759.1556	0.0088
759.3308	0.0049
759.506	0.0145
759.6812	-0.0063
759.8564	0.01
760.0316	0.0064
760.2067	0.001
760.3819	-0.004
760.557	0.0028
760.732	0.0056
760.9071	0.0097
761.0821	0.007
761.2572	0.0078
761.4322	0.0068
761.6072	0.002
761.7821	0.0034
761.9571	0.001
762.132	0.0041
762.3069	0.0158
762.4818	0.0073
762.6567	0.008
762.8316	0.0052
763.0064	-0.002
763.1812	0.0161
763.356	0.0053
763.5308	0.0086
763.7055	0.0003
763.8803	0.008
764.055	-0.0008
764.2297	0.0082
764.4044	-0.0028
764.579	0.0049
764.7537	0.0052
764.9283	0.0141
765.1029	0.0029
765.2775	0.0065
765.4521	-0.0019
765.6266	0.0089
765.8011	0.0079
765.9756	0.0055
766.1501	0.0108
766.3246	0.0004
766.4991	0.0074
766.6735	0.0031
766.8479	-0
767.0223	-0.0128
767.1967	0.01
767.371	0.0115
767.5454	0.0035
767.7197	0.0017
767.894	0.0018
768.0683	0.0104
768.2425	0.003
768.4168	0.0036
768.591	0.007
768.7652	0.0075
768.9394	0.0021
769.1135	0.0227
769.2877	0.0037
769.4618	0.0104
769.6359	0.0089
769.81	0.0008
769.984	0.0191
770.1581	-0.0058
770.3321	0.009
770.5061	-0.0116
770.6801	0.0049
770.8541	0.0173
771.028	0.0029
771.202	-0.0013
771.3759	0.0021
771.5498	0.0173
771.7236	-0.0029
771.8975	0.0047
772.0713	0.0045
772.2451	0.0026
772.4189	-0
772.5927	-0.0042
772.7665	-0.0042
772.9402	0.007
773.1139	0.0134
773.2876	-0.003
773.4613	-0.0008
773.635	0.0017
773.8086	-0.0043
773.9822	0.004
774.1558	0.0102
774.3294	0.0054
774.503	-0.0104
774.6765	0.0152
774.8501	-0.0046
775.0236	0.017
775.1971	0.0218
775.3705	0.0197
775.544	0.0157
775.7174	0.0094
775.8908	0.0161
776.0642	0.0072
776.2376	-0.0034
776.4109	0.0036
776.5843	-0.0052
776.7576	-0.0038
776.9309	0.0095
777.1041	0.021
777.2774	0.0103
777.4506	-0.0002
777.6238	-0.009
777.797	0.0192
777.9702	0.0123
778.1434	0.019
778.3165	0.0088
778.4896	0.0127
778.6627	0.008
778.8358	0.012
779.0089	0.0076
779.1819	0.0077
779.3549	0.0122
779.5279	0.0155
779.7009	-0.0009
779.8739	-0.0077
780.0468	0.0085
780.2197	0.005
780.3926	0.009
780.5655	0.0021
780.7384	-0.0011
780.9112	0.0154
781.0841	-0.0047
781.2569	-0.0107
781.4297	-0.0147
781.6024	-0.0006
781.7752	-0.006
781.9479	-0.0033
782.1206	0.0105
782.2933	0.0055
782.466	-0.0096
782.6386	0.0236
782.8113	-0.0018
782.9839	-0.0007
783.1565	0.0119
783.329	-0.0059
783.5016	0.0075
783.6741	0.0097
783.8466	0.0055
784.0191	0.005
784.1916	0.0044
784.3641	0.0118
784.5365	0.0148
784.7089	0.0073
784.8813	-0.0133
785.0537	-0.0069
785.2261	-0.0118
785.3984	0.0063
785.5707	0.0118
785.743	0.0023
785.9153	0.004
786.0876	0.0111
786.2598	-0.0051
786.432	0.0142
786.6042	0.0122
786.7764	0.0023
786.9486	0.0124
787.1207	0.0006
787.2928	-0.0007
787.4649	0.0002
787.637	0.0011
787.8091	-0.0014
787.9811	-0.0043
788.1532	0.01
788.3252	0.0029
788.4972	-0.0025
788.6691	-0.0126
788.8411	-0.0003
789.013	0.003
789.1849	0.0136
789.3568	0.0067
789.5287	0.0007
789.7005	0.0033
789.8723	0.0026
790.0442	0.0148
790.2159	-0.002
790.3877	0.0241
790.5595	0.0091
790.7312	-0.0036
790.9029	0.0133
791.0746	0.0007
791.2463	0.0221
791.4179	-0.0025
791.5896	0.0218
791.7612	0.027
791.9328	-0.0013
792.1044	0.0182
792.2759	-0.0036
792.4474	0.0137
792.619	0.0024
792.7905	0.0153
792.9619	0.0021
793.1334	0.0175
793.3048	0.0033
793.4762	0.0021
793.6476	0.0003
793.819	0.0075
793.9904	0.0166
794.1617	-0.0057
794.333	-0.0031
794.5043	0.0057
794.6756	-0.0105
794.8469	-0.0132
795.0181	-0.0002
795.1893	-0.0124
795.3605	0.0038
795.5317	-0.0138
795.7029	0.0103
795.874	-0.0053
796.0452	-0.0109
796.2163	0.009
796.3873	-0.0009
796.5584	0.0299
796.7294	-0.0098
796.9005	-0.0068
797.0715	0.0023
797.2425	0.0026
797.4134	0.0228
797.5844	0.0122
797.7553	-0.0063
797.9262	0.0028
798.0971	0.0153
798.2679	0.0109
798.4388	0.0017
798.6096	-0.0157
798.7804	0.0104
798.9512	-0.0002
799.122	-0.0114
799.2927	0.0079
799.4635	0.0036
799.6342	0.017
799.8049	0.0012
799.9755	0.0176
800.1462	0.0207
800.3168	0.0065
800.4874	-0.0126
800.658	-0.0014
800.8286	0.0126
800.9991	0.0289
801.1696	0.0024
801.3402	0.0196
801.5106	0.006
801.6811	-0.0144
801.8516	0.0056
802.022	-0.0055
802.1924	0.0038
802.3628	0.0189
802.5332	0.0098
802.7035	0.0011
802.8739	-0.0058
803.0442	-0.0094
803.2145	-0.0057
803.3847	-0.0063
803.555	0.0063
803.7252	0.0075
803.8954	-0.0042
804.0656	0.0065
804.2358	0.0016
804.4059	0.025
804.5761	0.012
804.7462	-0.0013
804.9163	0.0192
805.0864	-0.0066
805.2564	0.0053
805.4264	0.0046
805.5965	0.0059
805.7665	0.0117
805.9364	-0.0181
806.1064	0.011
806.2763	0.0186
806.4462	0.0275
806.6161	0.0124
806.786	0.0043
806.9559	0.0074
807.1257	0.0154
807.2955	0.0319
807.4653	0.0307
807.6351	0.0004
807.8048	-0.002
807.9746	0.0333
808.1443	0.0063
808.314	0.022
808.4837	0.0316
808.6533	0.0042
808.8229	0.0256
808.9926	0.0049
809.1622	0.0179
809.3317	0.0296
809.5013	0.0389
809.6708	0.0271
809.8403	0.0118
810.0098	0.0303
810.1793	0.0036
810.3488	-0.0077
810.5182	0.0386
810.6876	0.0172
810.857	0.0151
811.0264	-0.0053
811.1958	0.0188
811.3651	0.0039
811.5344	0.037
811.7037	-0.0064
811.873	0.0182
812.0422	-0.0069
812.2115	0.0122
812.3807	0.0112
812.5499	0.0085
812.7191	0.0072
812.8882	0.0142
813.0574	0.005
813.2265	0.023
813.3956	0.0057
813.5646	0.0124
813.7337	0.0047
813.9027	0.0033
814.0718	0.0017
814.2407	0.0109
814.4097	0.0147
814.5787	0.0105
814.7476	-0.005
814.9165	0.0167
815.0854	-0.0143
815.2543	0.0148
815.4232	0.0021
815.592	0.0039
815.7608	0.0174
815.9296	0.0055
816.0984	-0.0253
816.2671	0.0023
816.4359	-0.001
816.6046	-0.0109
816.7733	-0.0113
816.942	-0.0032
817.1106	-0.001
817.2793	0.0076
817.4479	-0.0068
817.6165	-0.017
817.785	0.0041
817.9536	-0.0061
818.1221	-0.0105
818.2906	-0.0001
818.4591	-0.005
818.6276	0.0115
818.7961	-0.0007
818.9645	0.0254
819.1329	0.0191
819.3013	0.0096
819.4697	0.0425
819.638	-0.0152
819.8064	0.0022
819.9747	-0.0156
820.143	-0.0068
820.3113	-0.0041
820.4795	-0.0256
820.6477	0.0023
820.816	-0.0286
820.9842	0.0005
821.1523	0.0345
821.3205	-0.0042
821.4886	-0.0227
821.6567	0.0026
821.8248	-0.0043
821.9929	0.0062
822.1609	0.0067
822.329	0.0022
822.497	-0.0234
822.665	-0.0096
822.833	-0.0202
823.0009	-0.0071
823.1688	0.0149
823.3367	-0.0052
823.5046	-0.0142
823.6725	-0.0143
823.8404	-0.0237
824.0082	-0.0031
824.176	0.0334
824.3438	-0.0052
824.5116	0.0115
824.6793	0.0003
824.847	0.0284
825.0147	-0.0167
825.1824	-0.0262
825.3501	-0.006
825.5177	0.0007
825.6854	-0.0087
825.853	0.0202
826.0206	0.0126
826.1881	0.0185
826.3557	0.0053
826.5232	0.0003
826.6907	0.0134
826.8582	0.0274
827.0257	-0.0026
827.1931	0.0007
827.3605	0.0134
827.528	0.0103
827.6953	0.0272
827.8627	-0.0022
828.03	0.0051
828.1974	0.04
828.3647	0.0079
828.532	0.0044
828.6992	-0.0112
828.8665	0.0572
829.0337	0.0133
829.2009	0.0216
829.3681	-0.0333
829.5352	0.0106
829.7024	0.0222
829.8695	0.0219
830.0366	0.0045
830.2037	0.0309
830.3707	0.0196
830.5378	-0.0141
830.7048	-0.0012
830.8718	-0.0143
831.0388	-0.0215
831.2057	-0.0142
831.3727	0.0178
831.5396	0.0233
831.7065	-0.0292
831.8734	0.0035
832.0402	-0.0271
832.2071	-0.017
832.3739	-0.022
832.5407	0.0258
832.7075	-0.0199
832.8742	-0.013
833.041	0.0094
833.2077	-0.0112
833.3744	0.034
833.541	0.0326
833.7077	0.0471
833.8743	0.037
834.0409	0.0659
834.2075	-0.0223
834.3741	0.0186
834.5407	-0.0459
834.7072	-0.0027
834.8737	-0.0057
835.0402	0.0028
835.2067	-0.0226
835.3731	-0.0051
835.5395	-0.0217
835.706	0.0283
835.8723	-0.0332
836.0387	0.0102
836.2051	0.0201
836.3714	-0.0482
836.5377	-0.0395
836.704	-0.0411
836.8703	0.0342
837.0365	-0.0325
837.2027	-0.0177
837.3689	0.0005
837.5351	0.0073
837.7013	-0.0247
837.8674	0.0112
838.0335	-0.0279
838.1997	-0.0048
838.3657	-0.0324
838.5318	0.0101
838.6978	0.0013
838.8639	-0.0779
839.0299	-0.0103
839.1958	-0.0187
839.3618	-0.0011
839.5277	0.0005
839.6937	0.0112
839.8596	-0.0165
840.0254	-0.0182
840.1913	0.0309
840.3571	-0.0303
840.523	0.0185
840.6888	0.008
840.8545	0.0223
841.0203	0.0439
841.186	0.0138
841.3517	-0.0028
841.5174	-0.0048
841.6831	0.0173
841.8488	0.0231
842.0144	0.0549
842.18	0.0099
842.3456	-0.0289
842.5112	0.0136
842.6767	0.0115
842.8422	-0.0374
843.0077	-0.0225
843.1732	-0.0061
843.3387	-0.0633
843.5042	-0.0468
843.6696	0.0149
843.835	-0.0346
844.0004	-0.0499
844.1657	-0.0114
844.3311	-0.0184
844.4964	-0.0376
844.6617	-0.0717
844.827	0.0742
844.9923	0.0231
845.1575	0.0035
845.3227	-0.1022
845.4879	-0.0234
845.6531	-0.0135
845.8183	-0.0917
845.9834	-0.0037
846.1485	-0.049
846.3136	-0.0805
846.4787	-0.0081
846.6438	0.0366
846.8088	-0.0539
846.9738	0.0265
847.1388	-0.0243
847.3038	0.0072
847.4687	-0.0596
847.6337	-0.1003
847.7986	0.0539
847.9635	0.0266
848.1284	-0.0208
848.2932	-0.0605
848.458	0.0067
848.6228	0.0437
848.7876	0.0143
848.9524	-0.0933
849.1172	-0.0278
849.2819	0.0526
849.4466	0.0062
849.6113	-0.0225
849.7759	-0.071
849.9406	-0.0207
850.1052	-0.0929
850.2698	0.0692
850.4344	0.0012
850.599	0.0209
850.7635	-0.0297
850.928	-0.0831
851.0925	0.0436
851.257	0.0324
851.4215	-0.0861
851.5859	0.0425
851.7503	-0.0832
851.9147	0.0185
852.0791	0.0032
852.2434	0.016
852.4078	-0.0658
852.5721	0.0244
852.7364	0.012
852.9007	-0.1326
853.0649	-0.0663
853.2291	0.0134
853.3934	0.0424
853.5575	-0.0742
853.7217	0.1741
853.8859	0.017
854.05	0.0081
854.2141	0.1094
854.3782	-0.0007
854.5423	0.036
854.7063	0.0212
854.8703	-0.0049
855.0343	-0.0142
855.1983	-0.1585
855.3623	-0.0415
855.5262	0.057
855.6901	-0.0736
855.854	0.002
856.0179	0.3372
856.1818	0.0249
856.3456	-0.0386
856.5094	0.0208
856.6732	-0.0853
856.837	0.1332
857.0008	-0.1786
857.1645	0.0834
857.3282	0.2056
857.4919	-0.0134
857.6556	0.0211
857.8192	-0.1605
857.9828	0.0546
858.1465	0.1359
858.31	0.0064
858.4736	-0.128
858.6372	-0.0699
858.8007	-0.3328
858.9642	-0.0194
859.1277	-0.1864
859.2911	-0.1427
859.4546	-0.0266
859.618	-0.3067
859.7814	-0.156
859.9448	0.0835
860.1081	-0.1855
860.2715	0.1853
860.4348	-0.116
860.5981	-0.1849
860.7614	-0.0882
860.9246	-0.1387
861.0879	-0.0318
861.2511	0.2115
861.4143	-0.1023
861.5774	-0.1023
861.7406	0.0412
861.9037	-0.4002
862.0668	-0.1513
862.2299	-0.0215
862.393	-0.1291
862.556	0.0975
862.7191	0.0956
862.8821	-0.1233
863.0451	-0.0779
863.208	0.048
863.371	-0.6451
863.5339	-0.1313
863.6968	0.3692
863.8597	0.0143
864.0225	0.1447
864.1854	-0.0551
864.3482	-0.0391
864.511	-0.0133
864.6737	-0.4233
864.8365	-0.0654
864.9992	-0.0018
865.1619	-0.2374
865.3246	0.0146
865.4873	-0.1533
865.65	-0.4192
865.8126	1.4284
865.9752	-0.0967
866.1378	0.1338
866.3004	-0.131
866.4629	-0.0721
866.6254	-0.32
866.7879	0.2097
866.9504	0.0966
867.1129	0.0028
867.2753	0.2328
867.4377	-0
867.6001	0.1548
867.7625	-0.0645
867.9249	-0.6787
868.0872	-0.0817
868.2495	0.161
868.4118	0.0837
868.5741	-0.185
868.7363	0.4368
868.8986	-0.4074
869.0608	-0.3822
869.223	-0.0864
869.3851	-0.2863
869.5473	-0.0793
869.7094	0.0596
869.8715	0.411
870.0336	-0
870.1957	-0
870.3577	-0.2384
870.5197	-0.2498
870.6817	0.1253
870.8437	0.0046
871.0057	-0.332
871.1676	0.0994
871.3295	-0.6403
871.4914	-0
871.6533	0.1963
871.8151	-0.2421
871.977	-0.8443
872.1388	-0.0941
872.3006	0.1714
872.4623	-0
872.6241	-0.0703
872.7858	-0.02
872.9475	0.4909
873.1092	0.099
873.2709	-0
873.4325	-0
873.5941	0.0391
873.7557	-1.1444
873.9173	-0.1416
874.0789	-0.1489
874.2404	-0.2194
874.4019	-0
874.5634	-0.2883
874.7249	0.3239
874.8863	-0
875.0478	-0
875.2092	-0.4601
875.3706	-0.1455
875.5319	-0
875.6933	-0.7246
875.8546	-0.2999
876.0159	0.1275
876.1772	-0.0566
876.3385	-0.3162
876.4997	-0
876.6609	0.2734
876.8221	-0.4406
876.9833	-0
877.1445	0.2983
877.3056	0.2711
877.4667	0.016
877.6278	-0
877.7889	-0.0361
877.9499	0.3542
878.111	-0
878.272	-0.2598
878.433	-0.0604
878.5939	0.1123
878.7549	0.011
878.9158	-0.3001
879.0767	-0.2853
879.2376	0.2797
879.3984	-0
879.5593	-0.3356
879.7201	-0.2845
879.8809	-0
880.0417	0.4013
880.2024	-0
880.3632	-0.0961
880.5239	-0
880.6846	-0.5701
880.8452	-0.1227
881.0059	-0.5603
881.1665	0.3318
881.3271	-0.5765
881.4877	-0.467
881.6483	-0
881.8088	-0.4462
881.9693	-0.1769
882.1298	-0.1769
882.2903	-0.1769
