Data from MonoPyChalIsomerACN10uM400nmA_Absorbance_12-08-42-728.txt Node
Date: Fri Jul 05 12:08:42 BST 2024
User: LASERRRRR
Spectrometer: FLMT03099
Trigger mode: 0
Integration Time (sec): 1.000000E-1
Scans to average: 1
Electric dark correction enabled: true
Nonlinearity correction enabled: false
Boxcar width: 0
XAxis mode: Wavelengths
Number of Pixels in Spectrum: 3648
>>>>>Begin Spectral Data<<<<<
179.3399	0.7451
179.5586	0.7451
179.7771	0.7451
179.9957	0.2184
180.2143	-0
180.4329	-0
180.6514	-0
180.8699	0.4379
181.0885	-0.0711
181.307	-0.0299
181.5255	-0.5186
181.744	-0
181.9625	-0.5736
182.181	-0
182.3994	-0.213
182.6179	-0.3658
182.8363	-0.2736
183.0547	0.0901
183.2732	0.3382
183.4916	0.1533
183.71	0.0312
183.9284	-0.0424
184.1467	-0.1891
184.3651	0.0274
184.5835	0.0602
184.8018	0.1226
185.0201	0.1251
185.2385	0.12
185.4568	0.1942
185.6751	-0.0011
185.8934	-0.0631
186.1117	0.4099
186.3299	0.2238
186.5482	-0.0153
186.7664	0.1623
186.9847	0.1265
187.2029	0.2138
187.4211	-0.3516
187.6393	-0.0729
187.8575	0.276
188.0757	0.0804
188.2939	0.106
188.512	0.2055
188.7302	0.4916
188.9483	0.0423
189.1665	-0.0721
189.3846	0.4878
189.6027	0.1516
189.8208	0.1108
190.0389	0.1933
190.257	0.1582
190.475	0.2381
190.6931	0.2519
190.9111	0.3423
191.1292	0.2945
191.3472	0.3789
191.5652	0.4164
191.7832	0.6751
192.0012	0.289
192.2192	0.3184
192.4371	0.2686
192.6551	0.4239
192.873	0.5864
193.091	0.3688
193.3089	0.3571
193.5268	0.5974
193.7447	0.4634
193.9626	0.3984
194.1805	0.423
194.3984	0.4914
194.6162	0.6046
194.8341	0.4792
195.0519	0.7097
195.2697	0.7519
195.4875	0.6673
195.7054	0.5134
195.9231	0.7072
196.1409	0.5422
196.3587	0.5398
196.5765	0.8395
196.7942	1.0163
197.012	0.9054
197.2297	0.7107
197.4474	0.5977
197.6651	0.8311
197.8828	0.6165
198.1005	0.7075
198.3182	0.7193
198.5358	0.9603
198.7535	0.6299
198.9711	0.6847
199.1888	0.6528
199.4064	0.6886
199.624	0.6305
199.8416	0.6933
200.0592	0.6811
200.2767	0.6282
200.4943	0.8308
200.7119	0.6006
200.9294	0.9956
201.1469	0.6908
201.3645	0.8489
201.582	0.7447
201.7995	0.8127
202.017	0.8421
202.2344	0.66
202.4519	0.6996
202.6694	0.916
202.8868	0.7889
203.1042	0.7701
203.3217	0.7082
203.5391	0.88
203.7565	0.7239
203.9739	0.8151
204.1913	1.0191
204.4086	0.8002
204.626	0.943
204.8433	0.7889
205.0607	0.6412
205.278	0.8074
205.4953	0.7727
205.7126	0.7438
205.9299	0.841
206.1472	0.8134
206.3644	0.6249
206.5817	0.819
206.7989	0.649
207.0162	0.8654
207.2334	0.8234
207.4506	0.7801
207.6678	0.7238
207.885	0.8552
208.1022	0.7496
208.3194	0.7611
208.5365	0.8259
208.7537	0.7451
208.9708	0.6962
209.1879	0.8081
209.405	0.6486
209.6222	0.771
209.8392	0.6852
210.0563	0.7025
210.2734	0.7539
210.4905	0.8387
210.7075	0.7778
210.9245	0.7315
211.1416	0.711
211.3586	0.7945
211.5756	0.8889
211.7926	0.6891
212.0096	0.6691
212.2265	0.6887
212.4435	0.7557
212.6604	0.7644
212.8774	0.7227
213.0943	0.7404
213.3112	0.7685
213.5281	0.6439
213.745	0.7525
213.9619	0.6797
214.1788	0.6755
214.3956	0.7239
214.6125	0.6976
214.8293	0.6756
215.0461	0.7071
215.2629	0.6511
215.4798	0.6086
215.6965	0.6364
215.9133	0.6475
216.1301	0.5554
216.3469	0.621
216.5636	0.6244
216.7803	0.6674
216.9971	0.6309
217.2138	0.7155
217.4305	0.6326
217.6472	0.5572
217.8639	0.5838
218.0805	0.6082
218.2972	0.5807
218.5138	0.5745
218.7305	0.6119
218.9471	0.5576
219.1637	0.5813
219.3803	0.5205
219.5969	0.575
219.8135	0.5839
220.0301	0.5702
220.2466	0.5907
220.4632	0.5809
220.6797	0.5454
220.8962	0.5508
221.1127	0.5199
221.3292	0.5288
221.5457	0.58
221.7622	0.5702
221.9787	0.5329
222.1951	0.5578
222.4116	0.5241
222.628	0.5998
222.8444	0.5597
223.0608	0.5326
223.2772	0.5476
223.4936	0.5877
223.71	0.5649
223.9264	0.5767
224.1427	0.5405
224.3591	0.5613
224.5754	0.553
224.7917	0.5513
225.008	0.5852
225.2243	0.5406
225.4406	0.562
225.6569	0.5583
225.8732	0.6079
226.0894	0.5618
226.3057	0.5645
226.5219	0.5671
226.7381	0.5592
226.9543	0.6103
227.1705	0.5434
227.3867	0.5931
227.6029	0.5283
227.8191	0.5764
228.0352	0.5839
228.2513	0.5561
228.4675	0.562
228.6836	0.5814
228.8997	0.5709
229.1158	0.5545
229.3319	0.6084
229.548	0.5895
229.764	0.6032
229.9801	0.5959
230.1961	0.5913
230.4121	0.5824
230.6282	0.5538
230.8442	0.5918
231.0602	0.553
231.2761	0.568
231.4921	0.5766
231.7081	0.5843
231.924	0.6048
232.14	0.5993
232.3559	0.6031
232.5718	0.5637
232.7877	0.5679
233.0036	0.5965
233.2195	0.5585
233.4353	0.5853
233.6512	0.566
233.867	0.5802
234.0829	0.5717
234.2987	0.5943
234.5145	0.5498
234.7303	0.583
234.9461	0.561
235.1619	0.564
235.3776	0.5625
235.5934	0.5099
235.8091	0.5722
236.0249	0.5361
236.2406	0.5633
236.4563	0.5547
236.672	0.5826
236.8877	0.5614
237.1034	0.5549
237.319	0.5523
237.5347	0.5468
237.7503	0.5512
237.966	0.5382
238.1816	0.5721
238.3972	0.5553
238.6128	0.5501
238.8284	0.5381
239.0439	0.5658
239.2595	0.5498
239.475	0.5442
239.6906	0.5235
239.9061	0.5376
240.1216	0.5255
240.3371	0.5372
240.5526	0.5253
240.7681	0.5488
240.9836	0.5186
241.199	0.5115
241.4145	0.4982
241.6299	0.4855
241.8453	0.5046
242.0607	0.5108
242.2761	0.4799
242.4915	0.4742
242.7069	0.4674
242.9223	0.4828
243.1376	0.4492
243.353	0.4475
243.5683	0.4302
243.7836	0.4287
243.9989	0.4276
244.2142	0.4132
244.4295	0.3856
244.6448	0.4037
244.86	0.3938
245.0753	0.3683
245.2905	0.3853
245.5057	0.3796
245.721	0.3437
245.9362	0.347
246.1514	0.3504
246.3665	0.3329
246.5817	0.3438
246.7969	0.3144
247.012	0.3177
247.2271	0.3181
247.4423	0.3002
247.6574	0.3136
247.8725	0.3035
248.0876	0.2902
248.3026	0.278
248.5177	0.2935
248.7328	0.285
248.9478	0.2931
249.1628	0.2761
249.3779	0.2681
249.5929	0.2593
249.8079	0.2571
250.0228	0.2589
250.2378	0.2499
250.4528	0.2413
250.6677	0.2471
250.8827	0.2322
251.0976	0.2347
251.3125	0.2392
251.5274	0.2349
251.7423	0.2259
251.9572	0.2207
252.172	0.2291
252.3869	0.2299
252.6017	0.2123
252.8166	0.2084
253.0314	0.2018
253.2462	0.2174
253.461	0.2143
253.6758	0.1993
253.8906	0.2214
254.1053	0.205
254.3201	0.2101
254.5348	0.2004
254.7496	0.2019
254.9643	0.1846
255.179	0.2035
255.3937	0.1889
255.6083	0.1838
255.823	0.1871
256.0377	0.1898
256.2523	0.1958
256.467	0.2044
256.6816	0.1929
256.8962	0.1999
257.1108	0.1948
257.3254	0.185
257.54	0.1866
257.7545	0.1949
257.9691	0.2065
258.1836	0.1887
258.3981	0.1846
258.6127	0.2015
258.8272	0.2122
259.0417	0.1842
259.2561	0.1891
259.4706	0.1828
259.6851	0.1832
259.8995	0.1919
260.114	0.1659
260.3284	0.1833
260.5428	0.1769
260.7572	0.1992
260.9716	0.1947
261.186	0.193
261.4003	0.1986
261.6147	0.2038
261.829	0.1932
262.0433	0.1686
262.2577	0.1978
262.472	0.1927
262.6863	0.1857
262.9005	0.1734
263.1148	0.1729
263.3291	0.1884
263.5433	0.1824
263.7576	0.1836
263.9718	0.177
264.186	0.1779
264.4002	0.1864
264.6144	0.1848
264.8286	0.1873
265.0427	0.1944
265.2569	0.1951
265.471	0.1825
265.6851	0.1671
265.8993	0.1945
266.1134	0.1859
266.3275	0.1877
266.5415	0.1973
266.7556	0.1809
266.9697	0.1975
267.1837	0.1913
267.3978	0.1929
267.6118	0.1924
267.8258	0.1951
268.0398	0.1932
268.2538	0.2025
268.4677	0.1836
268.6817	0.1927
268.8957	0.1916
269.1096	0.175
269.3235	0.1874
269.5374	0.1686
269.7514	0.1797
269.9652	0.1883
270.1791	0.1829
270.393	0.1781
270.6068	0.1727
270.8207	0.1832
271.0345	0.1642
271.2483	0.1774
271.4622	0.1729
271.676	0.1767
271.8897	0.1784
272.1035	0.1813
272.3173	0.1831
272.531	0.1684
272.7448	0.1684
272.9585	0.1699
273.1722	0.1931
273.3859	0.1814
273.5996	0.175
273.8133	0.1673
274.0269	0.1801
274.2406	0.1803
274.4542	0.1677
274.6679	0.1627
274.8815	0.1802
275.0951	0.1801
275.3087	0.1738
275.5223	0.1804
275.7358	0.1731
275.9494	0.1662
276.1629	0.1866
276.3765	0.1756
276.59	0.177
276.8035	0.1661
277.017	0.1719
277.2305	0.1775
277.444	0.1667
277.6574	0.1796
277.8709	0.1664
278.0843	0.1874
278.2978	0.1832
278.5112	0.1842
278.7246	0.1739
278.938	0.1805
279.1513	0.1913
279.3647	0.1787
279.5781	0.1904
279.7914	0.1814
280.0047	0.1742
280.2181	0.1691
280.4314	0.1749
280.6447	0.1939
280.8579	0.1893
281.0712	0.1828
281.2845	0.1753
281.4977	0.1733
281.711	0.1823
281.9242	0.1752
282.1374	0.188
282.3506	0.17
282.5638	0.1921
282.7769	0.1823
282.9901	0.2004
283.2033	0.1869
283.4164	0.1821
283.6295	0.178
283.8426	0.1812
284.0557	0.1837
284.2688	0.1778
284.4819	0.1811
284.695	0.1911
284.908	0.1915
285.1211	0.1823
285.3341	0.1984
285.5471	0.1957
285.7601	0.192
285.9731	0.1796
286.1861	0.1932
286.3991	0.1749
286.612	0.1851
286.825	0.1815
287.0379	0.1806
287.2508	0.1931
287.4637	0.2015
287.6766	0.1721
287.8895	0.1805
288.1024	0.194
288.3152	0.197
288.5281	0.1731
288.7409	0.1846
288.9538	0.1875
289.1666	0.1864
289.3794	0.1832
289.5922	0.1803
289.8049	0.1697
290.0177	0.1887
290.2304	0.1858
290.4432	0.1768
290.6559	0.1909
290.8686	0.1828
291.0813	0.1774
291.294	0.1805
291.5067	0.176
291.7194	0.174
291.932	0.1861
292.1447	0.1781
292.3573	0.1959
292.5699	0.1798
292.7825	0.1789
292.9951	0.1953
293.2077	0.1893
293.4203	0.1838
293.6328	0.1996
293.8454	0.1837
294.0579	0.1864
294.2704	0.1781
294.4829	0.189
294.6954	0.1892
294.9079	0.1836
295.1204	0.1866
295.3328	0.1707
295.5453	0.1803
295.7577	0.1755
295.9701	0.1835
296.1825	0.1761
296.3949	0.1699
296.6073	0.1823
296.8197	0.1886
297.0321	0.1748
297.2444	0.1663
297.4567	0.1743
297.6691	0.1719
297.8814	0.1804
298.0937	0.1864
298.306	0.1814
298.5182	0.1798
298.7305	0.1777
298.9428	0.1756
299.155	0.1776
299.3672	0.1606
299.5794	0.1816
299.7916	0.1676
300.0038	0.17
300.216	0.1726
300.4282	0.1774
300.6403	0.1801
300.8525	0.1804
301.0646	0.176
301.2767	0.1826
301.4888	0.1739
301.7009	0.1693
301.913	0.1877
302.125	0.1691
302.3371	0.1828
302.5491	0.1724
302.7612	0.1737
302.9732	0.1703
303.1852	0.1851
303.3972	0.1666
303.6092	0.1721
303.8211	0.174
304.0331	0.1624
304.245	0.1712
304.457	0.1671
304.6689	0.1593
304.8808	0.1511
305.0927	0.1593
305.3046	0.1618
305.5164	0.1693
305.7283	0.1717
305.9401	0.1657
306.152	0.1548
306.3638	0.1516
306.5756	0.1561
306.7874	0.1488
306.9992	0.157
307.2109	0.1589
307.4227	0.1604
307.6344	0.161
307.8462	0.1301
308.0579	0.155
308.2696	0.1508
308.4813	0.1479
308.693	0.1495
308.9046	0.1395
309.1163	0.1387
309.328	0.1379
309.5396	0.136
309.7512	0.1306
309.9628	0.1278
310.1744	0.1304
310.386	0.1182
310.5976	0.1237
310.8091	0.1237
311.0207	0.1313
311.2322	0.1141
311.4437	0.1312
311.6552	0.1324
311.8667	0.1122
312.0782	0.1289
312.2897	0.1083
312.5012	0.1203
312.7126	0.1263
312.924	0.1069
313.1355	0.124
313.3469	0.1117
313.5583	0.1149
313.7696	0.1139
313.981	0.1108
314.1924	0.1177
314.4037	0.1044
314.6151	0.1145
314.8264	0.1161
315.0377	0.1035
315.249	0.1075
315.4603	0.111
315.6716	0.1177
315.8828	0.1048
316.0941	0.093
316.3053	0.1079
316.5165	0.1069
316.7277	0.0997
316.9389	0.1085
317.1501	0.112
317.3613	0.0901
317.5724	0.0996
317.7836	0.1068
317.9947	0.1073
318.2058	0.1171
318.417	0.1047
318.6281	0.1071
318.8391	0.1016
319.0502	0.1011
319.2613	0.1058
319.4723	0.1078
319.6834	0.1017
319.8944	0.0962
320.1054	0.0947
320.3164	0.1121
320.5274	0.099
320.7383	0.1048
320.9493	0.1044
321.1602	0.1116
321.3712	0.0951
321.5821	0.1076
321.793	0.1083
322.0039	0.1038
322.2148	0.1063
322.4257	0.0974
322.6365	0.1059
322.8474	0.1009
323.0582	0.1112
323.269	0.1048
323.4798	0.1091
323.6906	0.1026
323.9014	0.1112
324.1122	0.1093
324.3229	0.1079
324.5337	0.1144
324.7444	0.1138
324.9551	0.1198
325.1658	0.1098
325.3765	0.1085
325.5872	0.1094
325.7979	0.121
326.0085	0.1026
326.2192	0.0964
326.4298	0.118
326.6404	0.1141
326.851	0.1051
327.0616	0.1082
327.2722	0.1058
327.4828	0.1015
327.6933	0.1062
327.9039	0.0987
328.1144	0.099
328.3249	0.1054
328.5354	0.0982
328.7459	0.122
328.9564	0.1135
329.1669	0.1181
329.3773	0.114
329.5878	0.1028
329.7982	0.1059
330.0086	0.1061
330.219	0.1072
330.4294	0.1148
330.6398	0.1079
330.8502	0.1042
331.0605	0.1184
331.2708	0.1092
331.4812	0.1113
331.6915	0.112
331.9018	0.1134
332.1121	0.1115
332.3224	0.1203
332.5326	0.1222
332.7429	0.1
332.9531	0.1031
333.1633	0.103
333.3735	0.1074
333.5837	0.0977
333.7939	0.1121
334.0041	0.1209
334.2143	0.1145
334.4244	0.1115
334.6346	0.0905
334.8447	0.1134
335.0548	0.1129
335.2649	0.1031
335.475	0.1059
335.685	0.1046
335.8951	0.1116
336.1051	0.1133
336.3152	0.113
336.5252	0.1039
336.7352	0.1135
336.9452	0.1176
337.1552	0.1288
337.3652	0.1165
337.5751	0.1217
337.7851	0.1148
337.995	0.1095
338.2049	0.1053
338.4148	0.122
338.6247	0.1083
338.8346	0.1183
339.0445	0.1023
339.2543	0.1218
339.4642	0.1278
339.674	0.1218
339.8838	0.123
340.0936	0.1152
340.3034	0.1262
340.5132	0.1298
340.7229	0.1344
340.9327	0.1316
341.1424	0.11
341.3522	0.1118
341.5619	0.1242
341.7716	0.1265
341.9813	0.1339
342.1909	0.1102
342.4006	0.1256
342.6102	0.1215
342.8199	0.1125
343.0295	0.1328
343.2391	0.1247
343.4487	0.1219
343.6583	0.1165
343.8679	0.1355
344.0774	0.1213
344.287	0.1328
344.4965	0.1262
344.706	0.1368
344.9155	0.127
345.125	0.1269
345.3345	0.1294
345.544	0.1458
345.7534	0.1241
345.9629	0.1199
346.1723	0.1304
346.3817	0.1199
346.5911	0.1477
346.8005	0.1344
347.0099	0.1313
347.2193	0.1507
347.4286	0.1447
347.638	0.1336
347.8473	0.1383
348.0566	0.1303
348.2659	0.1531
348.4752	0.1344
348.6845	0.1326
348.8937	0.1357
349.103	0.1282
349.3122	0.1325
349.5214	0.134
349.7306	0.1447
349.9398	0.1456
350.149	0.1391
350.3582	0.1386
350.5674	0.1415
350.7765	0.139
350.9856	0.1418
351.1948	0.1297
351.4039	0.1561
351.613	0.1285
351.822	0.1531
352.0311	0.1548
352.2402	0.1351
352.4492	0.138
352.6582	0.1388
352.8672	0.1382
353.0762	0.1381
353.2852	0.1622
353.4942	0.149
353.7032	0.164
353.9121	0.1579
354.1211	0.1452
354.33	0.1585
354.5389	0.1427
354.7478	0.1675
354.9567	0.1524
355.1655	0.1535
355.3744	0.1438
355.5833	0.1665
355.7921	0.1578
356.0009	0.1541
356.2097	0.1473
356.4185	0.1544
356.6273	0.1606
356.8361	0.1596
357.0448	0.1465
357.2536	0.1537
357.4623	0.1429
357.671	0.1481
357.8797	0.166
358.0884	0.1818
358.2971	0.1508
358.5057	0.1662
358.7144	0.1573
358.923	0.1692
359.1316	0.1697
359.3402	0.1895
359.5488	0.1641
359.7574	0.1723
359.966	0.1678
360.1746	0.1695
360.3831	0.1605
360.5916	0.1854
360.8002	0.1792
361.0087	0.1759
361.2172	0.1597
361.4256	0.1935
361.6341	0.187
361.8426	0.1932
362.051	0.1831
362.2594	0.1826
362.4678	0.187
362.6762	0.1761
362.8846	0.1901
363.093	0.1808
363.3014	0.1884
363.5097	0.1872
363.718	0.1894
363.9264	0.1945
364.1347	0.185
364.343	0.1888
364.5513	0.1854
364.7595	0.1975
364.9678	0.1918
365.176	0.2064
365.3842	0.2007
365.5925	0.1812
365.8007	0.2118
366.0089	0.1911
366.217	0.2106
366.4252	0.1965
366.6333	0.2064
366.8415	0.2155
367.0496	0.1917
367.2577	0.1986
367.4658	0.2165
367.6739	0.2016
367.882	0.2008
368.09	0.2092
368.2981	0.2062
368.5061	0.2063
368.7141	0.2076
368.9221	0.1982
369.1301	0.2141
369.3381	0.2164
369.5461	0.2155
369.754	0.1915
369.962	0.2055
370.1699	0.2058
370.3778	0.2112
370.5857	0.2229
370.7936	0.2109
371.0015	0.2259
371.2093	0.211
371.4172	0.226
371.625	0.2048
371.8328	0.218
372.0406	0.2189
372.2484	0.2047
372.4562	0.224
372.664	0.2049
372.8717	0.2081
373.0795	0.2169
373.2872	0.2228
373.4949	0.2158
373.7026	0.2246
373.9103	0.2355
374.118	0.2043
374.3256	0.2119
374.5333	0.2252
374.7409	0.214
374.9485	0.232
375.1561	0.2082
375.3637	0.2202
375.5713	0.2306
375.7789	0.237
375.9864	0.2287
376.194	0.2272
376.4015	0.2223
376.609	0.2266
376.8165	0.2195
377.024	0.2245
377.2315	0.2294
377.4389	0.2241
377.6464	0.2277
377.8538	0.2345
378.0612	0.2279
378.2686	0.2393
378.476	0.2329
378.6834	0.244
378.8908	0.2267
379.0981	0.2399
379.3055	0.2463
379.5128	0.2433
379.7201	0.2366
379.9274	0.2252
380.1347	0.2352
380.342	0.24
380.5492	0.2381
380.7565	0.2586
380.9637	0.2527
381.1709	0.2413
381.3781	0.2381
381.5853	0.2538
381.7925	0.2357
381.9997	0.2286
382.2068	0.2319
382.4139	0.2558
382.6211	0.269
382.8282	0.2368
383.0353	0.2477
383.2424	0.2329
383.4494	0.2406
383.6565	0.243
383.8635	0.2516
384.0706	0.2439
384.2776	0.2793
384.4846	0.2368
384.6916	0.28
384.8986	0.2455
385.1055	0.2324
385.3125	0.2488
385.5194	0.2426
385.7263	0.2454
385.9333	0.244
386.1402	0.2441
386.347	0.2508
386.5539	0.2395
386.7608	0.2452
386.9676	0.2594
387.1744	0.2472
387.3813	0.2432
387.5881	0.2492
387.7948	0.2473
388.0016	0.2477
388.2084	0.2465
388.4151	0.2478
388.6219	0.2457
388.8286	0.2365
389.0353	0.2495
389.242	0.2498
389.4487	0.2415
389.6553	0.228
389.862	0.2465
390.0686	0.2434
390.2753	0.2608
390.4819	0.2298
390.6885	0.2393
390.8951	0.2334
391.1016	0.2371
391.3082	0.236
391.5147	0.2053
391.7213	0.2275
391.9278	0.2285
392.1343	0.2166
392.3408	0.2346
392.5473	0.2194
392.7537	0.2141
392.9602	0.2276
393.1666	0.2287
393.373	0.2156
393.5794	0.2146
393.7858	0.2224
393.9922	0.2369
394.1986	0.2378
394.4049	0.2127
394.6113	0.2012
394.8176	0.2196
395.0239	0.214
395.2302	0.2046
395.4365	0.1998
395.6428	0.213
395.8491	0.1997
396.0553	0.2319
396.2615	0.2083
396.4678	0.2155
396.674	0.1961
396.8802	0.2123
397.0863	0.2022
397.2925	0.2061
397.4987	0.2159
397.7048	0.2028
397.9109	0.2239
398.117	0.1899
398.3231	0.2218
398.5292	0.2348
398.7353	0.2174
398.9413	0.2029
399.1474	0.2057
399.3534	0.2241
399.5594	0.221
399.7654	0.2153
399.9714	0.1928
400.1774	0.203
400.3833	0.2079
400.5893	0.2002
400.7952	0.1862
401.0011	0.2161
401.207	0.2054
401.4129	0.2006
401.6188	0.2136
401.8247	0.1991
402.0305	0.2131
402.2364	0.1919
402.4422	0.2205
402.648	0.1904
402.8538	0.2054
403.0596	0.2013
403.2654	0.2074
403.4711	0.207
403.6768	0.2058
403.8826	0.2051
404.0883	0.1966
404.294	0.2121
404.4997	0.1959
404.7054	0.2028
404.911	0.2128
405.1167	0.2009
405.3223	0.2043
405.5279	0.2027
405.7335	0.2206
405.9391	0.2203
406.1447	0.2065
406.3502	0.2009
406.5558	0.2158
406.7613	0.2179
406.9668	0.2069
407.1724	0.2083
407.3778	0.2151
407.5833	0.1998
407.7888	0.2229
407.9942	0.1967
408.1997	0.1898
408.4051	0.1975
408.6105	0.1858
408.8159	0.1858
409.0213	0.2091
409.2267	0.2192
409.432	0.2053
409.6374	0.2031
409.8427	0.2119
410.048	0.2156
410.2533	0.2
410.4586	0.184
410.6639	0.2128
410.8691	0.19
411.0744	0.1943
411.2796	0.1985
411.4848	0.2018
411.69	0.1977
411.8952	0.1838
412.1004	0.1869
412.3056	0.1957
412.5107	0.1964
412.7158	0.1953
412.921	0.2279
413.1261	0.1861
413.3312	0.1845
413.5362	0.1893
413.7413	0.1916
413.9464	0.2159
414.1514	0.2114
414.3564	0.1851
414.5614	0.18
414.7664	0.2055
414.9714	0.2043
415.1764	0.2084
415.3813	0.1866
415.5863	0.2059
415.7912	0.1998
415.9961	0.1877
416.201	0.2043
416.4059	0.2048
416.6108	0.1931
416.8156	0.1798
417.0205	0.186
417.2253	0.1974
417.4301	0.2062
417.6349	0.199
417.8397	0.1797
418.0445	0.1834
418.2492	0.174
418.454	0.1943
418.6587	0.1873
418.8634	0.2018
419.0681	0.2094
419.2728	0.1795
419.4775	0.204
419.6822	0.2109
419.8868	0.1903
420.0915	0.1795
420.2961	0.2069
420.5007	0.1811
420.7053	0.1858
420.9099	0.1904
421.1144	0.2065
421.319	0.1898
421.5235	0.2008
421.728	0.1777
421.9325	0.1951
422.137	0.1886
422.3415	0.1889
422.546	0.1693
422.7504	0.1956
422.9549	0.1792
423.1593	0.1651
423.3637	0.1863
423.5681	0.185
423.7725	0.1776
423.9769	0.1814
424.1812	0.1751
424.3856	0.173
424.5899	0.1755
424.7942	0.1663
424.9985	0.1855
425.2028	0.1727
425.4071	0.1607
425.6113	0.1621
425.8156	0.1882
426.0198	0.1644
426.224	0.1765
426.4282	0.1845
426.6324	0.1723
426.8366	0.1637
427.0407	0.1605
427.2449	0.1571
427.449	0.1564
427.6531	0.1512
427.8572	0.1555
428.0613	0.1476
428.2654	0.127
428.4694	0.1483
428.6735	0.1516
428.8775	0.1423
429.0815	0.1513
429.2855	0.1613
429.4895	0.1337
429.6935	0.1422
429.8975	0.1492
430.1014	0.1364
430.3053	0.145
430.5093	0.1482
430.7132	0.1265
430.9171	0.1273
431.1209	0.1315
431.3248	0.1411
431.5286	0.1377
431.7325	0.1346
431.9363	0.1283
432.1401	0.1271
432.3439	0.1403
432.5477	0.1442
432.7514	0.1358
432.9552	0.1179
433.1589	0.1277
433.3627	0.1317
433.5664	0.1148
433.7701	0.1156
433.9737	0.0985
434.1774	0.1229
434.3811	0.124
434.5847	0.1087
434.7883	0.1219
434.9919	0.1029
435.1955	0.1094
435.3991	0.1074
435.6027	0.0903
435.8062	0.0995
436.0098	0.0984
436.2133	0.0801
436.4168	0.1066
436.6203	0.1085
436.8238	0.0915
437.0272	0.0838
437.2307	0.1005
437.4341	0.0767
437.6375	0.0905
437.841	0.084
438.0443	0.0844
438.2477	0.1023
438.4511	0.0742
438.6545	0.0842
438.8578	0.0917
439.0611	0.0764
439.2644	0.0684
439.4677	0.0831
439.671	0.0771
439.8743	0.0801
440.0775	0.0805
440.2808	0.0658
440.484	0.073
440.6872	0.067
440.8904	0.0677
441.0936	0.0615
441.2967	0.0529
441.4999	0.0629
441.703	0.0717
441.9062	0.0587
442.1093	0.0461
442.3124	0.0681
442.5155	0.0553
442.7185	0.0582
442.9216	0.045
443.1246	0.0687
443.3276	0.0723
443.5307	0.0626
443.7337	0.0557
443.9366	0.0529
444.1396	0.0566
444.3426	0.0475
444.5455	0.0596
444.7484	0.0627
444.9513	0.0548
445.1542	0.0374
445.3571	0.0445
445.56	0.0498
445.7628	0.057
445.9657	0.0464
446.1685	0.0424
446.3713	0.0551
446.5741	0.0216
446.7769	0.0546
446.9797	0.0438
447.1824	0.0298
447.3852	0.0662
447.5879	0.0407
447.7906	0.0468
447.9933	0.0493
448.196	0.0423
448.3986	0.0437
448.6013	0.0274
448.8039	0.038
449.0066	0.0196
449.2092	0.0342
449.4118	0.0348
449.6143	0.0292
449.8169	0.0279
450.0195	0.012
450.222	0.0205
450.4245	0.0216
450.627	0.0291
450.8295	0.017
451.032	0.0376
451.2345	0.0236
451.4369	0.0335
451.6394	0.026
451.8418	0.0054
452.0442	0.014
452.2466	0.0006
452.449	0.0177
452.6513	0.0277
452.8537	0.0207
453.056	0.0147
453.2583	0.0219
453.4607	0.0123
453.663	0.0208
453.8652	0.0152
454.0675	0.007
454.2697	0.0301
454.472	0.019
454.6742	0.0195
454.8764	0.0028
455.0786	0.0161
455.2808	0.0019
455.4829	0.0211
455.6851	0.0196
455.8872	0.0221
456.0893	0.0215
456.2915	0.0138
456.4935	0.003
456.6956	0.003
456.8977	-0.0014
457.0997	0.0287
457.3018	0.0215
457.5038	0.0067
457.7058	0.0169
457.9078	0.0067
458.1098	0.007
458.3117	0.0199
458.5137	0.0058
458.7156	0.0142
458.9175	0.005
459.1194	0.0076
459.3213	0.0083
459.5232	-0.0009
459.725	0.0096
459.9269	0.0201
460.1287	0.019
460.3305	-0.0007
460.5323	0.015
460.7341	-0.0041
460.9359	0.0059
461.1376	0.0192
461.3394	0.0011
461.5411	0.0058
461.7428	0.0103
461.9445	0.0184
462.1462	-0.0006
462.3479	-0.0062
462.5495	-0.0081
462.7512	0.0072
462.9528	0.0104
463.1544	0.0147
463.356	-0.0108
463.5576	0.0026
463.7592	-0.0124
463.9607	0.0104
464.1623	-0.014
464.3638	0.0106
464.5653	-0.0048
464.7668	0.0006
464.9683	0.0111
465.1697	0.0138
465.3712	0.0018
465.5726	0.0126
465.7741	0.0146
465.9755	-0.0092
466.1769	0.0016
466.3782	0.005
466.5796	-0.001
466.7809	0.009
466.9823	-0.0169
467.1836	0.0061
467.3849	0.0076
467.5862	-0.0039
467.7875	0.0062
467.9887	0.0208
468.19	-0.0122
468.3912	0.0203
468.5924	-0.0221
468.7936	0.0065
468.9948	-0.0161
469.196	0.0156
469.3972	0.0034
469.5983	0.0035
469.7994	-0.004
470.0006	-0.0212
470.2017	0.0088
470.4027	-0.0022
470.6038	-0.0038
470.8049	0.0023
471.0059	0.0019
471.2069	-0.0018
471.408	0.0053
471.6089	-0.0027
471.8099	-0.0055
472.0109	-0.0041
472.2119	0.0003
472.4128	-0.0183
472.6137	0.0098
472.8146	-0.0114
473.0155	-0.0068
473.2164	0.0135
473.4173	-0.0041
473.6181	-0.0185
473.819	0.0071
474.0198	-0.0217
474.2206	-0.0098
474.4214	-0.0054
474.6222	0.0042
474.8229	-0.0041
475.0237	0.0036
475.2244	-0.0041
475.4251	0.0025
475.6258	-0.0078
475.8265	-0.0242
476.0272	-0.002
476.2278	-0.0103
476.4285	-0.0116
476.6291	-0.0033
476.8297	-0.0034
477.0303	-0.0021
477.2309	-0.0084
477.4315	-0.0076
477.632	-0.0107
477.8326	-0.0021
478.0331	-0.0191
478.2336	-0.0076
478.4341	-0.0117
478.6346	-0.0106
478.8351	-0.0098
479.0355	-0.0186
479.236	-0.017
479.4364	-0.0103
479.6368	0.0109
479.8372	0.002
480.0376	-0.0048
480.2379	-0.0121
480.4383	-0.0048
480.6386	0.0051
480.8389	0.0028
481.0392	0.0009
481.2395	-0.0095
481.4398	-0.0145
481.6401	-0.0035
481.8403	-0.0015
482.0405	-0.0119
482.2408	-0.0144
482.441	-0.013
482.6411	-0.0249
482.8413	-0.015
483.0415	-0.0081
483.2416	-0.0147
483.4417	-0.0055
483.6419	-0.0253
483.8419	0.0055
484.042	-0.0036
484.2421	-0.0106
484.4422	-0.0128
484.6422	0.0036
484.8422	0.0009
485.0422	-0.0031
485.2422	-0.0075
485.4422	-0.0092
485.6422	-0.009
485.8421	0.0049
486.042	0.0007
486.242	-0.0066
486.4419	-0.0097
486.6417	-0.0005
486.8416	-0.0106
487.0415	-0.0014
487.2413	-0.0129
487.4411	-0.0048
487.641	-0.0035
487.8408	-0.0099
488.0405	-0.0024
488.2403	-0.0047
488.4401	-0.0014
488.6398	-0.0115
488.8395	-0.0076
489.0392	0.0008
489.2389	-0.0157
489.4386	-0.0148
489.6383	-0.0127
489.8379	-0.0044
490.0376	0.0019
490.2372	-0.0048
490.4368	-0.002
490.6364	-0.0026
490.836	-0.0141
491.0355	-0.0067
491.2351	-0.0125
491.4346	-0.0091
491.6341	-0.0074
491.8336	0.0004
492.0331	-0.0103
492.2326	-0.0084
492.432	-0.0045
492.6315	-0.0151
492.8309	-0.0058
493.0303	-0.0088
493.2297	-0.001
493.4291	-0.0085
493.6284	-0.0209
493.8278	-0.0047
494.0271	-0.0093
494.2264	-0.0087
494.4257	-0.0059
494.625	-0.0048
494.8243	-0.0085
495.0236	-0.01
495.2228	-0.0111
495.422	-0.0079
495.6213	-0.0046
495.8205	-0.0093
496.0196	-0.0174
496.2188	-0.0025
496.418	-0.01
496.6171	-0.0106
496.8162	-0.0091
497.0153	0.0017
497.2144	-0.0001
497.4135	-0.0015
497.6126	-0.0083
497.8116	-0.014
498.0107	-0.0064
498.2097	-0.0159
498.4087	-0.0043
498.6077	-0.0091
498.8067	0.0011
499.0056	-0.0058
499.2046	-0.0071
499.4035	-0.0146
499.6024	-0.0137
499.8013	-0.0107
500.0002	-0.0115
500.199	-0.0071
500.3979	-0.0081
500.5967	-0.0137
500.7956	-0.004
500.9944	-0.0121
501.1932	-0.0014
501.3919	-0.0119
501.5907	-0.0083
501.7895	-0.0164
501.9882	-0.0173
502.1869	-0.0142
502.3856	-0.0156
502.5843	-0.0146
502.783	0.0018
502.9816	-0.0033
503.1803	-0.0104
503.3789	-0.0083
503.5775	-0.0064
503.7761	-0.0142
503.9747	-0.0063
504.1732	-0.0113
504.3718	0.0064
504.5703	0.0031
504.7689	-0.0085
504.9674	-0.0088
505.1658	-0.0046
505.3643	-0.0019
505.5628	0.0012
505.7612	-0.0058
505.9597	-0.0052
506.1581	0.0056
506.3565	-0.007
506.5549	-0.0088
506.7532	-0.0063
506.9516	-0.0108
507.1499	-0.0087
507.3482	-0.0021
507.5465	0.0104
507.7448	-0.0046
507.9431	-0.0066
508.1414	-0.0137
508.3396	-0.0095
508.5379	-0.0091
508.7361	-0.0131
508.9343	-0.0076
509.1325	-0.0063
509.3306	-0.0096
509.5288	-0.0159
509.7269	0.0011
509.9251	-0.0067
510.1232	-0.0039
510.3213	0.0037
510.5193	-0.0037
510.7174	-0.0138
510.9154	-0.0013
511.1135	-0.0158
511.3115	-0.0051
511.5095	-0.0038
511.7075	0.0025
511.9055	-0.0048
512.1034	-0.0011
512.3014	-0.0111
512.4993	0.0087
512.6972	0.0032
512.8951	-0.0024
513.093	-0.0084
513.2908	-0.0122
513.4887	-0.0003
513.6865	0.005
513.8844	-0.0034
514.0822	-0.0064
514.2799	-0.0071
514.4777	0.0022
514.6755	0.0006
514.8732	-0.0073
515.0709	-0.0062
515.2687	-0.0077
515.4664	-0.0001
515.664	-0.0203
515.8617	0.0023
516.0594	-0
516.257	-0.0042
516.4546	-0.0211
516.6522	-0.0009
516.8498	-0.0052
517.0474	-0.0059
517.2449	-0.0038
517.4425	-0.0058
517.64	-0.0217
517.8375	-0.0043
518.035	-0.0122
518.2325	-0.0118
518.43	-0
518.6274	-0.0039
518.8249	0.0093
519.0223	-0.0036
519.2197	-0.0069
519.4171	-0.0018
519.6145	-0.0056
519.8118	-0.0047
520.0092	-0.011
520.2065	-0.0127
520.4038	-0.014
520.6011	-0.0117
520.7984	0.0078
520.9956	0.0044
521.1929	-0.0077
521.3901	-0.005
521.5874	-0.012
521.7846	-0.0033
521.9818	-0.008
522.1789	0.0015
522.3761	0.0061
522.5732	-0.0052
522.7704	0.0055
522.9675	-0.005
523.1646	-0.0066
523.3617	-0.009
523.5587	-0.0045
523.7558	-0.0032
523.9528	-0.0003
524.1498	0.0053
524.3468	0.0005
524.5438	0.0022
524.7408	-0.0072
524.9378	0.0114
525.1347	0.003
525.3316	0.0003
525.5285	-0.014
525.7254	0.0021
525.9223	-0.0129
526.1192	-0.0143
526.316	0.0084
526.5129	0.0038
526.7097	-0.0001
526.9065	0.0032
527.1033	-0.006
527.3	-0.0047
527.4968	-0.0102
527.6935	0.0098
527.8903	0.009
528.087	0.0012
528.2837	-0.0085
528.4804	0.0158
528.677	0.0122
528.8737	0.0027
529.0703	0.0106
529.2669	0.0002
529.4635	0.0006
529.6601	0.0027
529.8567	0.0051
530.0532	0.0004
530.2498	-0.0014
530.4463	-0.0068
530.6428	-0.0091
530.8393	-0.0055
531.0358	-0.0036
531.2322	0.013
531.4287	0.0027
531.6251	0.0031
531.8215	-0.0077
532.0179	-0.0095
532.2143	0.0005
532.4107	-0.0011
532.607	-0.003
532.8034	-0.0057
532.9997	0.0044
533.196	-0.0044
533.3923	-0.0013
533.5886	0.0003
533.7848	0.0003
533.9811	0.0041
534.1773	-0.0143
534.3735	-0.0048
534.5697	0.0004
534.7659	0.0025
534.9621	-0.0129
535.1582	-0.0017
535.3544	-0.0056
535.5505	-0.0022
535.7466	0.0045
535.9427	0.0001
536.1387	-0.0016
536.3348	-0.0125
536.5308	-0.0145
536.7269	0.0049
536.9229	-0.0038
537.1189	0.0048
537.3148	-0.0116
537.5108	0.0048
537.7068	-0.0008
537.9027	0.0044
538.0986	0.0027
538.2945	-0.0068
538.4904	-0.0018
538.6863	0.0053
538.8821	0.0064
539.078	0.0018
539.2738	0.0095
539.4696	-0.0154
539.6654	-0.0017
539.8611	0.0106
540.0569	0.0007
540.2526	0.0001
540.4484	-0.0021
540.6441	-0.0035
540.8398	-0.008
541.0355	0.0057
541.2311	-0.0033
541.4268	0.0047
541.6224	0.0075
541.818	0.0048
542.0136	-0.0003
542.2092	0.0017
542.4048	0.0078
542.6003	0.0065
542.7959	-0.0008
542.9914	0.0053
543.1869	-0.0055
543.3824	-0.0073
543.5779	-0.0023
543.7734	0.0021
543.9688	-0.0044
544.1642	0.0029
544.3596	0.0076
544.555	-0.0042
544.7504	0.0113
544.9458	-0.0035
545.1411	-0.0011
545.3365	0.0073
545.5318	0.0031
545.7271	0.0108
545.9224	0.0035
546.1177	-0.0059
546.3129	-0.006
546.5081	-0.0139
546.7034	0.0002
546.8986	-0.0011
547.0938	0.0071
547.289	0.0077
547.4841	0.0074
547.6793	-0.0007
547.8744	0.0074
548.0695	0.0014
548.2646	-0.0053
548.4597	-0.0051
548.6548	-0.0032
548.8498	0.0105
549.0448	0.0014
549.2399	-0.0015
549.4349	-0.0078
549.6298	0.0058
549.8248	0.0068
550.0198	0.0125
550.2147	-0.0061
550.4096	-0.0076
550.6045	-0.0002
550.7994	-0.0097
550.9943	0.0008
551.1892	-0.0098
551.384	0.0014
551.5788	0.0032
551.7737	-0.0041
551.9685	-0.0018
552.1632	-0.0034
552.358	-0.0034
552.5528	-0.0096
552.7475	-0.0009
552.9422	0.0019
553.1369	0.0031
553.3316	0.0032
553.5263	0.0062
553.7209	-0.0052
553.9156	0.0061
554.1102	-0.0098
554.3048	0.0012
554.4994	0.0075
554.694	0.0063
554.8885	0.0055
555.0831	-0.0045
555.2776	0.0109
555.4721	0.0161
555.6666	-0.0035
555.8611	0.0036
556.0555	-0.002
556.25	0.0077
556.4444	0.0095
556.6388	0.0046
556.8332	-0.0006
557.0276	0.0114
557.222	0.0026
557.4163	0.008
557.6107	0.0119
557.805	-0.0004
557.9993	-0.0077
558.1936	0.0002
558.3879	0.0109
558.5821	0.0069
558.7764	0.0067
558.9706	0.0003
559.1648	0.0008
559.359	0.0119
559.5532	0.0018
559.7473	0.0129
559.9415	0.0054
560.1356	0.0085
560.3297	0.0035
560.5238	0.0033
560.7179	0.0064
560.9119	-0.0007
561.106	0.0034
561.3	0.0049
561.494	0.005
561.688	0.0056
561.882	0.003
562.076	0.0077
562.2699	0.002
562.4639	0.0042
562.6578	-0.0005
562.8517	0.0014
563.0456	0.0006
563.2395	0.0095
563.4333	-0.008
563.6272	0.0054
563.821	-0.0092
564.0148	0.0088
564.2086	-0.0081
564.4024	-0.0091
564.5961	0.01
564.7899	0.0015
564.9836	0.0054
565.1773	0.0063
565.371	0.0074
565.5647	0.0018
565.7584	-0.0004
565.952	0.0045
566.1456	0.0084
566.3393	0.0093
566.5329	-0.0038
566.7264	0.0131
566.92	0.0048
567.1136	0.0155
567.3071	0.0061
567.5006	0.0046
567.6941	0.0002
567.8876	0.0036
568.0811	-0.0044
568.2745	0.0034
568.468	0.0016
568.6614	0.004
568.8548	0.0063
569.0482	0.0078
569.2416	0.001
569.4349	0.0038
569.6283	0.0074
569.8216	0.0106
570.0149	0.0036
570.2082	0.0098
570.4015	0.0025
570.5947	0.0027
570.788	0.0038
570.9812	0.0003
571.1744	0.0034
571.3676	0.0012
571.5608	-0.0007
571.754	0.0035
571.9471	-0.0078
572.1402	0.0029
572.3333	0.0062
572.5264	0.0047
572.7195	-0.0032
572.9126	0.0077
573.1057	-0.0005
573.2987	0.009
573.4917	-0.0007
573.6847	-0.0025
573.8777	0.0025
574.0707	0.0016
574.2636	-0.0014
574.4566	0.0033
574.6495	-0.0008
574.8424	0.0055
575.0353	-0.0037
575.2281	0.005
575.421	0.0013
575.6138	-0.0009
575.8067	0.0034
575.9995	0.0069
576.1923	0.0084
576.385	-0.0018
576.5778	0.0008
576.7706	0.0137
576.9633	-0.0039
577.156	0.0034
577.3487	-0.0006
577.5414	0.0008
577.734	-0.009
577.9267	0.0024
578.1193	0.0062
578.3119	0.0003
578.5045	0.0065
578.6971	-0.0025
578.8897	0.0001
579.0822	-0.0002
579.2747	0.0073
579.4673	-0.0004
579.6598	0.012
579.8522	0.0051
580.0447	-0.0018
580.2372	0.0059
580.4296	0.0111
580.622	0.0061
580.8144	0.0092
581.0068	0.0058
581.1992	0.002
581.3915	0.0041
581.5839	0.01
581.7762	0.0022
581.9685	0.0011
582.1608	0.0006
582.353	-0.0039
582.5453	-0.0012
582.7375	-0
582.9298	-0.0012
583.122	0.0126
583.3142	0.0011
583.5063	-0.0006
583.6985	-0.0022
583.8906	-0.0002
584.0827	-0.0032
584.2749	-0.0024
584.4669	-0.0025
584.659	0.0012
584.8511	0.0033
585.0431	-0.0019
585.2352	-0.0045
585.4272	-0.003
585.6192	0.0062
585.8111	-0.0057
586.0031	0.005
586.195	-0.002
586.387	-0.0021
586.5789	-0.0019
586.7708	0.001
586.9627	-0.0053
587.1545	0.0071
587.3464	0.0137
587.5382	-0.0048
587.73	0.0102
587.9218	-0.0001
588.1136	0.0035
588.3053	-0.0021
588.4971	-0.0005
588.6888	0.0079
588.8805	0.0021
589.0722	0.0146
589.2639	0.0062
589.4556	-0.0031
589.6472	0.0023
589.8389	-0.0002
590.0305	0.0018
590.2221	0.0142
590.4137	0.0011
590.6052	0.0079
590.7968	0.0042
590.9883	-0.0006
591.1798	-0.0055
591.3713	0.0008
591.5628	-0.0036
591.7543	0.0081
591.9458	0.0112
592.1372	-0.0004
592.3286	0.0036
592.52	0.0032
592.7114	0.0069
592.9028	-0.0025
593.0941	0.0045
593.2855	0.0047
593.4768	-0.0008
593.6681	-0.0016
593.8594	0.0012
594.0506	-0.0119
594.2419	0.0028
594.4331	0.0022
594.6244	-0.0004
594.8156	0.0048
595.0067	0.0005
595.1979	-0.0016
595.3891	0.0018
595.5802	0.004
595.7713	-0.0033
595.9624	0.0044
596.1535	-0.0034
596.3446	0.008
596.5357	0.0045
596.7267	0.0047
596.9177	0.0051
597.1087	0.0162
597.2997	0.001
597.4907	0.0012
597.6817	0.0001
597.8726	0.0113
598.0635	0.0047
598.2544	0.0073
598.4453	0.0117
598.6362	0.0009
598.827	0.0116
599.0179	0.0031
599.2087	0.0037
599.3995	0.0099
599.5903	0.0051
599.7811	0.0054
599.9718	-0.005
600.1626	0.0039
600.3533	0.0022
600.544	0.0028
600.7347	0.0043
600.9254	-0.0019
601.116	0.0036
601.3067	-0.0085
601.4973	-0.0004
601.6879	0.0047
601.8785	0.0039
602.0691	0.0031
602.2596	-0.0002
602.4502	-0.0002
602.6407	0.002
602.8312	0.0007
603.0217	0.0044
603.2122	-0.0002
603.4027	0.0035
603.5931	0.0036
603.7835	0.0062
603.9739	0.0029
604.1643	0.0052
604.3547	0.0017
604.5451	-0.0018
604.7354	0.0037
604.9257	0.0041
605.116	-0.0021
605.3063	0.0067
605.4966	-0.0003
605.6869	0.0131
605.8771	0.0028
606.0673	0
606.2575	0.0041
606.4477	0.0013
606.6379	0.0125
606.8281	-0.0009
607.0182	0.0017
607.2083	0.0006
607.3985	0.0097
607.5885	-0.0009
607.7786	0.0044
607.9687	-0.0013
608.1587	0.0082
608.3488	0.0027
608.5388	0.0089
608.7288	0.004
608.9187	0.0063
609.1087	0.0003
609.2986	0.0081
609.4886	0.0046
609.6785	0.0017
609.8684	0.0081
610.0582	0.0087
610.2481	0.0079
610.4379	-0.0022
610.6278	-0.0003
610.8176	0.0062
611.0074	0.0008
611.1971	0.0035
611.3869	-0.0024
611.5766	0.0025
611.7664	0.0026
611.9561	0.0067
612.1458	0.0095
612.3354	0.0142
612.5251	0.0066
612.7147	-0.0016
612.9044	0.0064
613.094	0.0023
613.2836	0.0068
613.4731	0.0095
613.6627	0.0066
613.8522	0.0083
614.0417	0.0015
614.2313	0.0059
614.4207	0.0049
614.6102	-0.0029
614.7997	0.0083
614.9891	0.0038
615.1785	0.0001
615.3679	0.012
615.5573	0.0051
615.7467	0.0033
615.9361	-0.001
616.1254	0.0034
616.3147	0.0067
616.504	0.0049
616.6933	0.0044
616.8826	0.0062
617.0718	0.0035
617.2611	0.0063
617.4503	0.0131
617.6395	0.0001
617.8287	0.0123
618.0179	0.0061
618.207	0.0069
618.3961	0.0052
618.5853	0.0091
618.7744	0.0039
618.9634	0.0085
619.1525	0.0046
619.3416	0.0008
619.5306	0.0077
619.7196	-0.0017
619.9086	0.0054
620.0976	0.005
620.2866	0.0119
620.4755	0.0077
620.6645	0.0105
620.8534	0.0124
621.0423	0.0008
621.2312	0.0001
621.42	0.008
621.6089	0.012
621.7977	0.0096
621.9865	0.0139
622.1753	0.0091
622.3641	0.0111
622.5529	0.0065
622.7416	0.0021
622.9303	0.0093
623.1191	0.0148
623.3078	0.002
623.4964	0.0117
623.6851	0.0189
623.8737	0.0142
624.0624	0.0061
624.251	0.0089
624.4396	0.0022
624.6282	0.0133
624.8167	0.0163
625.0053	0.0067
625.1938	0.0095
625.3823	0.0101
625.5708	0.0092
625.7593	0.0033
625.9477	0.0109
626.1362	0.0046
626.3246	0.0151
626.513	0.0039
626.7014	0.0031
626.8898	0.0034
627.0781	-0.0022
627.2665	0.0073
627.4548	0.0054
627.6431	0.0002
627.8314	0.0081
628.0197	0.0085
628.2079	0.008
628.3962	0.0078
628.5844	0.0117
628.7726	0.0107
628.9608	0.0122
629.1489	0.0081
629.3371	0.0081
629.5252	0.0055
629.7134	0.0049
629.9015	0.0073
630.0895	0.004
630.2776	0.0068
630.4657	0.0043
630.6537	0.0103
630.8417	0.0091
631.0297	0.0115
631.2177	0.0042
631.4057	0.0103
631.5936	0.0081
631.7815	0.013
631.9695	0.0138
632.1574	0.011
632.3452	0.0112
632.5331	0.0003
632.7209	0.0038
632.9088	0.0042
633.0966	0.0039
633.2844	0.0032
633.4722	0.0019
633.6599	0.0061
633.8477	0.0102
634.0354	0.0066
634.2231	0.0077
634.4108	0.0065
634.5985	0.006
634.7861	0.0053
634.9738	0.0187
635.1614	0.0064
635.349	0.0046
635.5366	0.0004
635.7242	0.0062
635.9117	0.0035
636.0993	0.0109
636.2868	0.0058
636.4743	-0.0021
636.6618	0.0137
636.8492	0.0134
637.0367	0.0094
637.2241	0.0157
637.4115	0.0093
637.5989	0.012
637.7863	0.0053
637.9737	0.0024
638.161	0.0133
638.3484	0.0095
638.5357	0.0072
638.723	-0.0012
638.9103	0.0043
639.0975	0.0006
639.2848	0.0074
639.472	0.0069
639.6592	0.0083
639.8464	0.0134
640.0336	0.0013
640.2208	0.0059
640.4079	0.0021
640.595	0.0016
640.7821	0.0037
640.9692	0.0091
641.1563	0.0102
641.3434	0.0105
641.5304	0.0108
641.7174	0.0028
641.9044	-0.0001
642.0914	0.0057
642.2784	-0.0057
642.4653	0.0095
642.6523	-0.0048
642.8392	0.0044
643.0261	0.0081
643.213	0.0056
643.3999	-0
643.5867	0.0066
643.7735	0.0035
643.9604	0.0043
644.1472	0.0043
644.3339	0.0006
644.5207	0.0021
644.7075	-0.0007
644.8942	0.0072
645.0809	0.0071
645.2676	0.0072
645.4543	0.006
645.6409	0.0032
645.8276	0.0021
646.0142	0.0097
646.2008	0.0149
646.3874	0.0102
646.574	0.0045
646.7605	0.0046
646.9471	0.0123
647.1336	0.0059
647.3201	0.011
647.5066	0.0047
647.6931	0.0017
647.8795	0.0019
648.0659	0.0051
648.2524	0.0138
648.4388	0.0081
648.6252	-0.0033
648.8115	0.0044
648.9979	0.0063
649.1842	0.0068
649.3705	-0.0071
649.5568	0.0059
649.7431	0.0141
649.9294	0.011
650.1156	0.0053
650.3018	0.0148
650.488	0.0041
650.6742	0.0103
650.8604	0.006
651.0466	0.0037
651.2327	0.0119
651.4188	0.0048
651.6049	0.0197
651.791	0.0072
651.9771	0.0098
652.1632	0.0075
652.3492	0.0013
652.5352	0.0042
652.7212	0.0017
652.9072	-0.0068
653.0932	-0.0029
653.2791	0.0073
653.465	0.0047
653.651	0.0044
653.8369	0.002
654.0227	0.0038
654.2086	0.0046
654.3944	0.0103
654.5803	-0.0023
654.7661	0.0044
654.9519	-0.001
655.1377	0.0012
655.3234	-0.0029
655.5092	-0.005
655.6949	-0.0083
655.8806	-0.0063
656.0663	0.0001
656.2519	-0.0022
656.4376	0.0073
656.6232	-0.0002
656.8088	0.0127
656.9945	0.004
657.18	0.0033
657.3656	0.0137
657.5511	-0.0025
657.7367	0.0049
657.9222	0.0068
658.1077	0.0053
658.2932	-0.0038
658.4786	-0.0019
658.6641	-0.0049
658.8495	0.0069
659.0349	0.0043
659.2203	-0.0024
659.4057	-0.0014
659.591	0.0132
659.7764	-0
659.9617	-0.0015
660.147	0.0011
660.3323	-0.0007
660.5176	0.0066
660.7028	-0.0027
660.888	0.0068
661.0733	0.0104
661.2585	0.0038
661.4436	0.0082
661.6288	0.0181
661.8139	0.0064
661.9991	-0.0022
662.1842	0.0041
662.3693	0.0018
662.5544	0.0143
662.7394	0.0094
662.9245	0.0148
663.1095	0.0098
663.2945	0.0183
663.4795	-0.0017
663.6644	0.0106
663.8494	0.0059
664.0343	0.0112
664.2193	0.0164
664.4042	0.0073
664.589	0.0013
664.7739	-0.0015
664.9587	0.0096
665.1436	-0.0018
665.3284	0.0073
665.5132	0.0069
665.698	0.0043
665.8827	0.0063
666.0675	0.0019
666.2522	0.0054
666.4369	0.0075
666.6216	0.009
666.8063	0.0091
666.9909	0.0061
667.1756	0.0158
667.3602	0.0087
667.5448	0.018
667.7294	0.0063
667.9139	0.0045
668.0985	0.0076
668.283	0.0012
668.4675	0.0077
668.652	0.0112
668.8365	0.0012
669.0209	0.006
669.2054	0.0034
669.3898	0.0037
669.5742	0.0046
669.7586	0.01
669.943	0.0024
670.1273	0.0025
670.3117	0.0094
670.496	-0.0031
670.6803	0.0077
670.8646	0.0032
671.0488	0.0103
671.2331	0.0119
671.4173	0.0131
671.6015	0.0033
671.7857	0.0006
671.9699	0.0164
672.1541	0.0085
672.3382	0.0122
672.5223	0.0107
672.7064	0.0072
672.8905	0.0117
673.0746	0.0077
673.2587	0.0086
673.4427	0.0007
673.6267	0.0047
673.8107	0.0131
673.9947	0.0109
674.1787	0.008
674.3626	0.0155
674.5465	0.0109
674.7304	0.0117
674.9143	0.0103
675.0982	0.0095
675.2821	0.0055
675.4659	0.0144
675.6497	-0.001
675.8335	0.0158
676.0173	0.0022
676.2011	0.0062
676.3849	0.012
676.5686	0.0171
676.7523	0.0131
676.936	-0.0033
677.1197	0.0095
677.3034	0.01
677.487	0.007
677.6706	0.0094
677.8542	0.0136
678.0378	0.0039
678.2214	0.0011
678.405	0.013
678.5885	0.0101
678.772	0.0107
678.9555	0.006
679.139	0.0087
679.3225	0.0111
679.5059	0.0083
679.6894	0.0096
679.8728	0.0111
680.0562	0.0118
680.2395	0.02
680.4229	-0.0013
680.6062	-0.0023
680.7896	0.007
680.9729	0.0051
681.1562	0.0092
681.3394	0.0075
681.5227	0.0093
681.7059	-0.0049
681.8891	0.0021
682.0723	-0.002
682.2555	-0.0035
682.4387	0.004
682.6218	0.0142
682.805	0.0081
682.9881	0.0167
683.1712	0.01
683.3542	0.0001
683.5373	0.0059
683.7203	0.0074
683.9034	0.0135
684.0864	0.004
684.2694	0.0125
684.4523	0.0052
684.6353	-0
684.8182	0.008
685.0011	0.0048
685.184	-0.0004
685.3669	0.0023
685.5498	-0.0018
685.7326	0.0047
685.9154	0.0121
686.0982	0.017
686.281	0.0083
686.4638	0.0061
686.6465	0.0144
686.8293	0.0129
687.012	0.0133
687.1947	0.0071
687.3774	0.0131
687.56	0.0081
687.7427	0.0146
687.9253	0.0017
688.1079	0.0063
688.2905	0.0065
688.4731	0.005
688.6556	0.0053
688.8382	0.0071
689.0207	0.0068
689.2032	0.0095
689.3857	0.01
689.5681	0.0074
689.7506	-0.0029
689.933	0.0025
690.1154	0.0012
690.2978	0.0054
690.4802	-0.0011
690.6626	0.0082
690.8449	0.0115
691.0272	0.0085
691.2095	0.0165
691.3918	0.0031
691.5741	0.0173
691.7563	0.0136
691.9386	0.0074
692.1208	0.0036
692.303	-0.0024
692.4852	0.011
692.6673	0.0098
692.8495	0.0136
693.0316	0.0059
693.2137	0.0095
693.3958	0.0105
693.5778	0.0097
693.7599	0.0125
693.9419	0.0126
694.1239	0.0044
694.3059	0.0196
694.4879	0.0112
694.6699	0.0094
694.8518	0.0038
695.0337	0.0112
695.2157	0.0109
695.3975	0.003
695.5794	0.0108
695.7613	0.0107
695.9431	0.013
696.1249	0.0051
696.3067	-0.0032
696.4885	0.0099
696.6703	0.0095
696.852	0.01
697.0337	0.0153
697.2154	0.0106
697.3971	0.0063
697.5788	0.0112
697.7605	0.0063
697.9421	0.0073
698.1237	0.015
698.3053	0.014
698.4869	0.0124
698.6685	0.0064
698.85	0.0118
699.0315	0.0204
699.213	0.0064
699.3945	0.0047
699.576	0.0167
699.7575	0.0118
699.9389	0.0234
700.1203	0.0179
700.3017	0.0162
700.4831	0.004
700.6645	0.0044
700.8458	0.0099
701.0271	0.015
701.2084	0.0003
701.3897	-0.0023
701.571	0.0041
701.7523	-0.0011
701.9335	0.0006
702.1147	0.0065
702.2959	0.0033
702.4771	0.0011
702.6583	0.0035
702.8394	0.007
703.0205	-0.0021
703.2016	0.0079
703.3827	0.0092
703.5638	0.0126
703.7449	0.011
703.9259	-0.0026
704.1069	0.0086
704.2879	-0.0017
704.4689	0.008
704.6499	-0
704.8308	0.0075
705.0117	0.0123
705.1927	0.014
705.3735	0.0011
705.5544	0.0014
705.7353	0.0045
705.9161	0.0072
706.0969	0.0084
706.2777	0.0095
706.4585	0.0048
706.6393	0.0115
706.82	0.0039
707.0007	-0.0016
707.1815	0.0022
707.3621	0.0015
707.5428	0.0084
707.7235	0.0049
707.9041	0.0041
708.0847	0.0165
708.2653	0.0106
708.4459	0.0089
708.6265	0.0158
708.807	0.0152
708.9875	0.0212
709.168	0.0135
709.3485	0.0069
709.529	0.0035
709.7095	0.0205
709.8899	0.0056
710.0703	0.0075
710.2507	0.009
710.4311	0.0071
710.6115	0.0044
710.7918	0.015
710.9721	0.0068
711.1524	0.0041
711.3327	0.002
711.513	-0.0018
711.6932	0.0027
711.8735	0.0053
712.0537	-0.003
712.2339	-0.0025
712.4141	-0.0004
712.5942	-0.0022
712.7744	0.0109
712.9545	0.0002
713.1346	0.0012
713.3147	-0
713.4947	-0.0011
713.6748	0.0071
713.8548	-0.0008
714.0348	0.0037
714.2148	-0.0009
714.3948	0.0021
714.5748	-0.0011
714.7547	0.0042
714.9346	0.0011
715.1145	0.0037
715.2944	-0.0012
715.4743	0.0069
715.6541	0.0146
715.834	0.0024
716.0138	0.0136
716.1936	0.0113
716.3733	0.0066
716.5531	0.0159
716.7328	0.0061
716.9126	0.0033
717.0923	0.0032
717.2719	0.0164
717.4516	0.0044
717.6312	0.0146
717.8109	0.002
717.9905	0.0101
718.1701	-0.0038
718.3496	0.0091
718.5292	0.0057
718.7087	-0.0058
718.8882	-0.0049
719.0677	0.0097
719.2472	0.0043
719.4267	0.0134
719.6061	0.0061
719.7856	0.0033
719.965	0.0025
720.1443	0.0026
720.3237	0.0126
720.5031	0.0069
720.6824	0.011
720.8617	0.005
721.041	0.002
721.2203	0.0018
721.3995	0.0164
721.5788	0.0095
721.758	-0.0067
721.9372	0.0141
722.1164	0.0098
722.2956	0.008
722.4747	0.0122
722.6538	0.005
722.8329	0.0044
723.012	0.0076
723.1911	0.0023
723.3702	0.0065
723.5492	0.0085
723.7282	0.0091
723.9072	0.0095
724.0862	0.0081
724.2652	0.0071
724.4441	-0.0081
724.623	0.0072
724.8019	-0.0032
724.9808	0.0117
725.1597	0.0037
725.3385	0.0123
725.5174	0.0042
725.6962	0.0034
725.875	0.0023
726.0538	0.0031
726.2325	0.0098
726.4112	0.0016
726.59	0.0146
726.7687	0.0017
726.9474	-0.0058
727.126	0.0016
727.3047	-0.0003
727.4833	0.0027
727.6619	-0.0012
727.8405	-0.0005
728.0191	-0.0034
728.1976	0.0002
728.3762	0.004
728.5547	-0.0039
728.7332	0.0048
728.9116	0.0001
729.0901	-0.0013
729.2686	0.0001
729.447	0.005
729.6254	0.0026
729.8038	0.0053
729.9821	0.007
730.1605	0.0069
730.3388	0.0038
730.5171	0.0077
730.6954	0.0084
730.8737	0.0034
731.0519	0.0027
731.2302	0.0035
731.4084	0.0014
731.5866	-0.0073
731.7648	0.0098
731.9429	0.0057
732.1211	-0.0032
732.2992	0.0049
732.4773	-0.0019
732.6554	-0.0068
732.8335	-0.0013
733.0115	-0.0014
733.1896	0.0079
733.3676	0.0048
733.5456	0.0015
733.7235	-0.0012
733.9015	0.0075
734.0794	0.0063
734.2574	0.0112
734.4353	-0.0015
734.6131	0.0011
734.791	0.0071
734.9689	0.0075
735.1467	0.0043
735.3245	-0.005
735.5023	0.013
735.68	0.0111
735.8578	0.0109
736.0355	-0.0011
736.2132	0.0058
736.3909	0.0025
736.5686	0.019
736.7463	0.0077
736.9239	0.0028
737.1015	0.0116
737.2791	0.0093
737.4567	0.0019
737.6343	0.0005
737.8118	0.0083
737.9894	0.0001
738.1669	0.0001
738.3444	0.0004
738.5218	0.0095
738.6993	0.0021
738.8767	0.0017
739.0541	0.0042
739.2315	-0.0007
739.4089	0.0128
739.5863	0.0052
739.7636	0.0013
739.9409	-0.0002
740.1182	0.0043
740.2955	0.0133
740.4728	0.0084
740.65	-0.0009
740.8272	-0.0005
741.0044	-0.0072
741.1816	0.008
741.3588	0.0094
741.5359	0.0099
741.7131	0.0018
741.8902	-0.0002
742.0673	0.019
742.2444	-0.0009
742.4214	0.0024
742.5985	0.0065
742.7755	0.0027
742.9525	-0.0014
743.1295	0.0139
743.3064	0.0057
743.4834	0.0083
743.6603	-0.005
743.8372	-0.0079
744.0141	0.0009
744.191	0.0116
744.3678	-0.0005
744.5446	-0.0056
744.7215	0.0162
744.8982	0.0037
745.075	0.0032
745.2518	-0.0032
745.4285	0.0047
745.6052	0.0041
745.7819	-0.0087
745.9586	-0.0051
746.1353	-0.0031
746.3119	0.0056
746.4885	-0.001
746.6651	0.0049
746.8417	0.0078
747.0183	0.0099
747.1948	0.0115
747.3714	0.013
747.5479	-0.0023
747.7244	0.01
747.9008	0.0117
748.0773	0.0045
748.2537	-0.0025
748.4301	-0.0024
748.6065	0.0087
748.7829	-0.0043
748.9593	0.0068
749.1356	0.0107
749.3119	0.0163
749.4882	0.0076
749.6645	0.0026
749.8408	0.007
750.017	0.0042
750.1933	0.0234
750.3695	0.0143
750.5457	0.0181
750.7218	0.014
750.898	0.0207
751.0741	0.0157
751.2502	0.0129
751.4263	0.018
751.6024	0.0066
751.7784	0.0013
751.9545	0.0117
752.1305	0.012
752.3065	0.0094
752.4825	0.0037
752.6584	0.0033
752.8344	0.0071
753.0103	0.0101
753.1862	0.0097
753.3621	0.0027
753.5379	0.0041
753.7138	0.0133
753.8896	0.0012
754.0654	0.0038
754.2412	0.0037
754.417	0.0011
754.5927	0.0066
754.7685	0.0062
754.9442	0.0077
755.1199	0.0121
755.2956	0.0029
755.4712	-0.0043
755.6469	0.0109
755.8225	0.0151
755.9981	0.0108
756.1736	-0.0041
756.3492	0.0078
756.5248	0.0126
756.7003	0.0044
756.8758	0.0175
757.0513	0.0052
757.2267	-0.0005
757.4022	0.0041
757.5776	0.0032
757.753	0.0039
757.9284	0.0043
758.1038	-0.0038
758.2791	0.0094
758.4545	0.009
758.6298	0.0129
758.8051	0.0015
758.9803	0.0119
759.1556	0.0081
759.3308	0.0155
759.506	0.0132
759.6812	0.0034
759.8564	0.0029
760.0316	0.0055
760.2067	-0.0025
760.3819	0.0031
760.557	-0.0083
760.732	0.0104
760.9071	0.0149
761.0821	0.0125
761.2572	0.0181
761.4322	0.004
761.6072	0.0018
761.7821	0.0046
761.9571	0.0039
762.132	0.0022
762.3069	0.0165
762.4818	0.0003
762.6567	0.0028
762.8316	0.0038
763.0064	-0.0067
763.1812	0.0103
763.356	0.0044
763.5308	0.0021
763.7055	0.0097
763.8803	0.0017
764.055	0.004
764.2297	0.0081
764.4044	0.0026
764.579	0.007
764.7537	-0.0012
764.9283	0.0057
765.1029	-0.0008
765.2775	0.0043
765.4521	-0.0017
765.6266	-0.0011
765.8011	0.0049
765.9756	-0.0023
766.1501	0.0037
766.3246	-0.0025
766.4991	0.0165
766.6735	-0.0031
766.8479	0.005
767.0223	-0.0047
767.1967	0.0041
767.371	0.008
767.5454	-0.0056
767.7197	-0.0038
767.894	0.0101
768.0683	0.0048
768.2425	-0.0007
768.4168	0.0061
768.591	0.0032
768.7652	0.0145
768.9394	0.0005
769.1135	0.0105
769.2877	-0.0022
769.4618	0.022
769.6359	0.0069
769.81	0.0084
769.984	0.0023
770.1581	0.0064
770.3321	0.0112
770.5061	-0.0001
770.6801	-0.0015
770.8541	0.0156
771.028	0.0173
771.202	-0.0024
771.3759	-0.0127
771.5498	0.0178
771.7236	0.0056
771.8975	0.0089
772.0713	0.0074
772.2451	0.0031
772.4189	0.002
772.5927	0.0134
772.7665	0.0042
772.9402	0.0148
773.1139	-0.0016
773.2876	-0.0052
773.4613	0.0054
773.635	0.0173
773.8086	-0.0027
773.9822	0.0072
774.1558	0.0123
774.3294	0.0114
774.503	0.0026
774.6765	0.0249
774.8501	0.004
775.0236	0.0087
775.1971	0.0284
775.3705	0.0244
775.544	0.0201
775.7174	0.0113
775.8908	0.0218
776.0642	-0.0006
776.2376	0.006
776.4109	-0.0014
776.5843	-0.0003
776.7576	0.0072
776.9309	0.006
777.1041	0.0108
777.2774	0.007
777.4506	0.0127
777.6238	0.0027
777.797	0.0104
777.9702	0.013
778.1434	0.0246
778.3165	-0.0007
778.4896	-0.0054
778.6627	0.0009
778.8358	0.0078
779.0089	0.0009
779.1819	0.0011
779.3549	0.0071
779.5279	0.0196
779.7009	0.0119
779.8739	-0.0064
780.0468	-0.0017
780.2197	0.0103
780.3926	-0.0028
780.5655	-0.0053
780.7384	-0.0005
780.9112	0.0117
781.0841	-0.0066
781.2569	-0.0087
781.4297	-0.0106
781.6024	0.0063
781.7752	-0.0103
781.9479	-0.0043
782.1206	0.0064
782.2933	-0.0003
782.466	-0.0078
782.6386	0.0206
782.8113	-0.0045
782.9839	0.0096
783.1565	0.0101
783.329	0.0107
783.5016	0.0077
783.6741	0.0093
783.8466	0.0108
784.0191	0.0019
784.1916	0.0113
784.3641	0.0014
784.5365	0.0159
784.7089	0.0017
784.8813	0.015
785.0537	-0.0133
785.2261	-0.0115
785.3984	0.003
785.5707	0.0054
785.743	0.0036
785.9153	0.0066
786.0876	0.0035
786.2598	-0.009
786.432	0.0187
786.6042	0.0045
786.7764	-0.0063
786.9486	0.0148
787.1207	-0.002
787.2928	0.0009
787.4649	-0.0061
787.637	0.0089
787.8091	0.0212
787.9811	0.0008
788.1532	0.0016
788.3252	0.0004
788.4972	0.0053
788.6691	0.0091
788.8411	-0.0009
789.013	0.0015
789.1849	0.0203
789.3568	0.0097
789.5287	0.0172
789.7005	0.0125
789.8723	0.0074
790.0442	0.0126
790.2159	-0.0001
790.3877	0.0185
790.5595	0.0098
790.7312	-0.0056
790.9029	0.0102
791.0746	0.0089
791.2463	0.0209
791.4179	0.0049
791.5896	0.0172
791.7612	0.0163
791.9328	0.0197
792.1044	0.0183
792.2759	0.0125
792.4474	0.0135
792.619	0.0114
792.7905	0.0251
792.9619	0.0084
793.1334	0.018
793.3048	0.0125
793.4762	0.0176
793.6476	-0.0036
793.819	0.0253
793.9904	0.0137
794.1617	-0.0043
794.333	-0.0025
794.5043	0.0015
794.6756	0.0014
794.8469	0.0087
795.0181	0.0156
795.1893	0.0028
795.3605	0.0138
795.5317	-0.0166
795.7029	-0.0001
795.874	0.0071
796.0452	-0.0042
796.2163	0.0161
796.3873	0.0114
796.5584	0.0163
796.7294	0.0042
796.9005	-0.0032
797.0715	0.0063
797.2425	0.0024
797.4134	0.0162
797.5844	0.0111
797.7553	0.0006
797.9262	0.008
798.0971	0.0158
798.2679	0.0042
798.4388	0.003
798.6096	-0.007
798.7804	0.0145
798.9512	0.0143
799.122	-0.0013
799.2927	0.0025
799.4635	-0.0002
799.6342	0.0245
799.8049	0.0152
799.9755	0.01
800.1462	0.0239
800.3168	0.0233
800.4874	0.0003
800.658	0.0026
800.8286	0.0115
800.9991	0.0218
801.1696	0.0119
801.3402	0.0126
801.5106	0.0153
801.6811	-0.0157
801.8516	0.0001
802.022	0.0059
802.1924	-0.0033
802.3628	0.0057
802.5332	0.0241
802.7035	0.0131
802.8739	0.0079
803.0442	-0.0023
803.2145	-0.0043
803.3847	0.0104
803.555	0.0102
803.7252	0.0088
803.8954	-0.0046
804.0656	-0.0022
804.2358	0.0145
804.4059	0.0132
804.5761	0.0082
804.7462	0.0085
804.9163	0.0199
805.0864	0.0008
805.2564	-0.0013
805.4264	0.0001
805.5965	0.0082
805.7665	0.0115
805.9364	-0.0024
806.1064	0.0246
806.2763	0.0014
806.4462	0.0163
806.6161	0.0066
806.786	0.0024
806.9559	0.0116
807.1257	0.0109
807.2955	0.022
807.4653	0.02
807.6351	0.0152
807.8048	0.0201
807.9746	0.028
808.1443	-0.0104
808.314	0.0166
808.4837	0.0176
808.6533	0.0204
808.8229	0.0119
808.9926	0.0017
809.1622	0.0093
809.3317	0.0128
809.5013	0.0352
809.6708	0.018
809.8403	0.0162
810.0098	0.0246
810.1793	0.0079
810.3488	-0.0023
810.5182	0.0266
810.6876	0.0105
810.857	0.0182
811.0264	-0.0111
811.1958	0.0234
811.3651	0.007
811.5344	0.0166
811.7037	0.0048
811.873	0.0049
812.0422	0.0138
812.2115	0.0134
812.3807	0.0159
812.5499	0.0167
812.7191	0.0162
812.8882	0.0065
813.0574	0.0088
813.2265	0.0325
813.3956	0.0044
813.5646	0.0061
813.7337	0.0206
813.9027	-0.0037
814.0718	0.0185
814.2407	0.0286
814.4097	0.0285
814.5787	0.0002
814.7476	0.0121
814.9165	0.0268
815.0854	-0.0051
815.2543	0.001
815.4232	0.0182
815.592	0.0008
815.7608	0.0222
815.9296	0.0055
816.0984	0.0013
816.2671	-0.0241
816.4359	-0.0133
816.6046	-0.0004
816.7733	-0.0174
816.942	0.0131
817.1106	0.0104
817.2793	-0.0102
817.4479	0.0043
817.6165	0.0014
817.785	0.0175
817.9536	0.0169
818.1221	-0.0053
818.2906	0.0112
818.4591	0.0162
818.6276	0.0109
818.7961	-0.0065
818.9645	0.0147
819.1329	0.0104
819.3013	0.0172
819.4697	0.0345
819.638	0.0156
819.8064	-0.0027
819.9747	-0.0122
820.143	0.0056
820.3113	0.0012
820.4795	-0.0133
820.6477	-0.0004
820.816	-0.0125
820.9842	-0.0034
821.1523	0.0135
821.3205	0.0002
821.4886	0.0111
821.6567	0.0172
821.8248	0.0151
821.9929	0.011
822.1609	-0.0144
822.329	0.0068
822.497	-0.0169
822.665	-0.0235
822.833	-0.0053
823.0009	-0.0182
823.1688	0.0112
823.3367	0.0039
823.5046	-0.0338
823.6725	-0.0234
823.8404	-0.0501
824.0082	0.0067
824.176	0.0296
824.3438	0.0222
824.5116	0.0095
824.6793	-0.0126
824.847	0.0095
825.0147	0.0064
825.1824	0.0027
825.3501	-0.03
825.5177	0.0011
825.6854	-0.0115
825.853	0.0378
826.0206	0.0176
826.1881	0.021
826.3557	0.0036
826.5232	0.0245
826.6907	0.0085
826.8582	0.0282
827.0257	0.0414
827.1931	0.0184
827.3605	0.0337
827.528	0.0381
827.6953	0.0195
827.8627	0.0375
828.03	0.0576
828.1974	0.0381
828.3647	0.0101
828.532	-0.0144
828.6992	0.003
828.8665	0.035
829.0337	0.0287
829.2009	0.044
829.3681	-0.012
829.5352	0.0384
829.7024	0.0081
829.8695	0.05
830.0366	-0.0002
830.2037	0.0169
830.3707	0.0089
830.5378	0.0094
830.7048	-0.0143
830.8718	0.028
831.0388	-0.0033
831.2057	0.0039
831.3727	0.0047
831.5396	-0.0036
831.7065	-0.0108
831.8734	0.0019
832.0402	-0.0213
832.2071	-0.0108
832.3739	0.0067
832.5407	0.0391
832.7075	-0.0038
832.8742	0.0195
833.041	-0.0041
833.2077	0.0269
833.3744	0.0367
833.541	0.042
833.7077	0.0534
833.8743	0.0661
834.0409	0.0624
834.2075	0.0401
834.3741	0.0138
834.5407	-0.0289
834.7072	-0.0089
834.8737	-0.0087
835.0402	0.0162
835.2067	-0.032
835.3731	0.0054
835.5395	-0.0147
835.706	0.0429
835.8723	-0.0264
836.0387	0.0235
836.2051	0.0175
836.3714	-0.0412
836.5377	-0.0002
836.704	-0.0248
836.8703	-0.0071
837.0365	-0.004
837.2027	-0.0262
837.3689	0.0005
837.5351	-0.0235
837.7013	-0.0412
837.8674	-0.0055
838.0335	-0.0032
838.1997	-0.0407
838.3657	0.0322
838.5318	0.0207
838.6978	-0.0056
838.8639	-0.0429
839.0299	-0.0124
839.1958	0.0248
839.3618	-0.0228
839.5277	0.0625
839.6937	-0.0035
839.8596	-0.0069
840.0254	0.0433
840.1913	0.0177
840.3571	-0.0057
840.523	-0.0027
840.6888	0.0189
840.8545	0.0471
841.0203	0.043
841.186	0.0751
841.3517	-0.0061
841.5174	-0.0242
841.6831	0.0224
841.8488	-0.0003
842.0144	0.0139
842.18	-0.0374
842.3456	0.0377
842.5112	0.0633
842.6767	-0.0255
842.8422	-0.002
843.0077	0.0332
843.1732	0.0045
843.3387	-0.0486
843.5042	-0.0274
843.6696	0.0594
843.835	-0.0148
844.0004	-0.0571
844.1657	0.0301
844.3311	-0.048
844.4964	0.0097
844.6617	-0.0917
844.827	0.0807
844.9923	0.0183
845.1575	0.0825
845.3227	-0.0079
845.4879	-0.0254
845.6531	-0.0155
845.8183	-0.0239
845.9834	0.058
846.1485	-0.0338
846.3136	-0.0144
846.4787	-0.0168
846.6438	-0.0013
846.8088	0.0512
846.9738	-0.0046
847.1388	0.0055
847.3038	-0.0164
847.4687	0.0035
847.6337	-0.0403
847.7986	0.0682
847.9635	0.0385
848.1284	-0.0261
848.2932	0.074
848.458	0.0091
848.6228	0.0369
848.7876	-0.0031
848.9524	-0.1165
849.1172	0.0212
849.2819	0.0637
849.4466	0.0644
849.6113	0.0879
849.7759	-0.0498
849.9406	-0.0037
850.1052	-0.1098
850.2698	0.1163
850.4344	-0.0758
850.599	0.0294
850.7635	0.0091
850.928	-0.0526
851.0925	0.0183
851.257	0.0355
851.4215	-0.0923
851.5859	0.0054
851.7503	-0.1817
851.9147	0.0283
852.0791	-0.0354
852.2434	0.0735
852.4078	-0.0677
852.5721	0.033
852.7364	-0.057
852.9007	-0.1917
853.0649	0.0986
853.2291	0.1284
853.3934	0.0424
853.5575	-0.0723
853.7217	0.0497
853.8859	-0.0268
854.05	0.0188
854.2141	0.0495
854.3782	0.0663
854.5423	-0.0395
854.7063	0.0303
854.8703	-0.0173
855.0343	-0.0661
855.1983	0.0629
855.3623	-0.0436
855.5262	0.0496
855.6901	-0.1898
855.854	-0.0718
856.0179	-0.145
856.1818	0.1643
856.3456	-0.0341
856.5094	0.0383
856.6732	-0.0628
856.837	0.3221
857.0008	-0.2377
857.1645	0.0834
857.3282	0.1715
857.4919	-0.0584
857.6556	0.0083
857.8192	0.1025
857.9828	0.0621
858.1465	-0.0117
858.31	0.0639
858.4736	0.019
858.6372	-0.2302
858.8007	-0.2808
858.9642	0.1377
859.1277	-0.0555
859.2911	-0.073
859.4546	0.0192
859.618	-0.5166
859.7814	0.0821
859.9448	0.0496
860.1081	-0.0507
860.2715	0.1156
860.4348	0.1302
860.5981	-0.1097
860.7614	0.135
860.9246	-0.1279
861.0879	-0.1092
861.2511	0.1458
861.4143	-0.0599
861.5774	-0.0292
861.7406	-0.0192
861.9037	-0.4982
862.0668	-0.0342
862.2299	0.1848
862.393	0.0386
862.556	-0.0135
862.7191	0.2207
862.8821	0.5369
863.0451	0.0684
863.208	0.2651
863.371	-0.3291
863.5339	0.1562
863.6968	-0.1178
863.8597	-0.2165
864.0225	0.7038
864.1854	-0.0361
864.3482	-0.0391
864.511	-0.0579
864.6737	0.0545
864.8365	0.0787
864.9992	-0.018
865.1619	-0.1976
865.3246	0.4508
865.4873	0.1296
865.65	-0.3513
865.8126	0.3526
865.9752	-0.1038
866.1378	0.1279
866.3004	-0.8401
866.4629	0.0348
866.6254	-0.3305
866.7879	-0.0597
866.9504	0.2068
867.1129	0.218
867.2753	0.2176
867.4377	-0.1473
867.6001	1.0533
867.7625	0.3965
867.9249	-0.3337
868.0872	0.1963
868.2495	0.1368
868.4118	0.7853
868.5741	-0.1492
868.7363	0.0371
868.8986	-0.0403
869.0608	-0.2836
869.223	-0.131
869.3851	-0.2954
869.5473	0.3421
869.7094	0.0746
869.8715	0.2257
870.0336	-0
870.1957	-0
870.3577	-0.1858
870.5197	-0
870.6817	-0.073
870.8437	0.4246
871.0057	-0
871.1676	0.1722
871.3295	0.2374
871.4914	-0
871.6533	0.2475
871.8151	0.38
871.977	-0
872.1388	-0
872.3006	0.1133
872.4623	0.1783
872.6241	-0.6754
872.7858	0.064
872.9475	0.1567
873.1092	0.1495
873.2709	-0
873.4325	-0
873.5941	-0.1831
873.7557	-0.5921
873.9173	0.0487
874.0789	-0
874.2404	0.0636
874.4019	-0
874.5634	-0
874.7249	0.4112
874.8863	-0.0698
875.0478	-0.1555
875.2092	0.3526
875.3706	-0.2877
875.5319	-0.083
875.6933	-0.8242
875.8546	0.0781
876.0159	-0.0162
876.1772	-0
876.3385	-0.415
876.4997	-0
876.6609	-0
876.8221	-0.3734
876.9833	0.0341
877.1445	0.0801
877.3056	0.0383
877.4667	-0.1703
877.6278	0.088
877.7889	0.1371
877.9499	-0.1294
878.111	-0.6669
878.272	0.0262
878.433	-0.1376
878.5939	0.1123
878.7549	0.2445
878.9158	-0.2457
879.0767	0.0536
879.2376	0.0473
879.3984	-0
879.5593	-0
879.7201	-0.199
879.8809	-0.2181
880.0417	0.2982
880.2024	0.1485
880.3632	0.0875
880.5239	-0
880.6846	-0.2532
880.8452	-0.3067
881.0059	-0.4348
881.1665	-0.3623
881.3271	-0.4928
881.4877	-0
881.6483	-0
881.8088	-0.321
881.9693	-0
882.1298	-0
882.2903	-0
