Data from MonoPyChalIsomerACN10uM400nmA_Absorbance_12-08-41-129.txt Node
Date: Fri Jul 05 12:08:41 BST 2024
User: LASERRRRR
Spectrometer: FLMT03099
Trigger mode: 0
Integration Time (sec): 1.000000E-1
Scans to average: 1
Electric dark correction enabled: true
Nonlinearity correction enabled: false
Boxcar width: 0
XAxis mode: Wavelengths
Number of Pixels in Spectrum: 3648
>>>>>Begin Spectral Data<<<<<
179.3399	-0.1198
179.5586	-0.1198
179.7771	-0.1198
179.9957	0.2529
180.2143	0.1012
180.4329	-0.4326
180.6514	-0
180.8699	0.1855
181.0885	0.243
181.307	0.2537
181.5255	0.3049
181.744	0.0786
181.9625	-0.6021
182.181	-0
182.3994	0.2622
182.6179	0.4036
182.8363	-0.159
183.0547	0.2105
183.2732	0.1507
183.4916	0.0713
183.71	0.0399
183.9284	0.2091
184.1467	0.1064
184.3651	-0.0762
184.5835	0.3137
184.8018	0.0386
185.0201	0.1674
185.2385	-0.0559
185.4568	0.4572
185.6751	0.0983
185.8934	-0.0729
186.1117	0.2026
186.3299	0.4245
186.5482	0.0546
186.7664	0.2486
186.9847	0.086
187.2029	0.0733
187.4211	-0.3451
187.6393	-0.196
187.8575	0.1668
188.0757	-0.0462
188.2939	0.0967
188.512	0.0903
188.7302	0.0325
188.9483	-0.0357
189.1665	0.305
189.3846	0.02
189.6027	0.1636
189.8208	0.1597
190.0389	0.1954
190.257	0.2239
190.475	0.4412
190.6931	0.4869
190.9111	0.1615
191.1292	0.5801
191.3472	0.7182
191.5652	0.1751
191.7832	0.3228
192.0012	0.7749
192.2192	0.3291
192.4371	0.4763
192.6551	0.3916
192.873	0.4944
193.091	0.2606
193.3089	0.4256
193.5268	0.8174
193.7447	0.3951
193.9626	0.4552
194.1805	0.5643
194.3984	0.3573
194.6162	0.4376
194.8341	0.5744
195.0519	0.5595
195.2697	0.4963
195.4875	0.6258
195.7054	0.5624
195.9231	0.5904
196.1409	0.9134
196.3587	0.7156
196.5765	0.7207
196.7942	0.5509
197.012	0.799
197.2297	0.6953
197.4474	0.7502
197.6651	0.7683
197.8828	0.611
198.1005	0.7443
198.3182	0.6763
198.5358	0.9961
198.7535	0.6749
198.9711	0.5793
199.1888	0.6947
199.4064	0.769
199.624	0.7376
199.8416	0.5415
200.0592	0.6794
200.2767	0.5259
200.4943	0.6876
200.7119	0.8467
200.9294	0.6318
201.1469	0.87
201.3645	0.6614
201.582	0.6917
201.7995	1.0659
202.017	0.678
202.2344	0.6925
202.4519	0.8617
202.6694	0.8745
202.8868	0.8267
203.1042	0.744
203.3217	0.6576
203.5391	0.8271
203.7565	0.8002
203.9739	0.8279
204.1913	0.996
204.4086	0.6839
204.626	0.884
204.8433	1.1066
205.0607	0.6677
205.278	0.8662
205.4953	0.7635
205.7126	0.6
205.9299	0.9461
206.1472	0.7842
206.3644	0.6852
206.5817	0.6649
206.7989	0.6629
207.0162	0.8242
207.2334	0.7446
207.4506	0.754
207.6678	0.7788
207.885	0.8027
208.1022	0.8176
208.3194	0.7459
208.5365	0.71
208.7537	0.7851
208.9708	0.8654
209.1879	0.791
209.405	0.7122
209.6222	0.8225
209.8392	0.7188
210.0563	0.7311
210.2734	0.7942
210.4905	0.7948
210.7075	0.8339
210.9245	0.793
211.1416	0.791
211.3586	0.8364
211.5756	0.7657
211.7926	0.7651
212.0096	0.7073
212.2265	0.7269
212.4435	0.723
212.6604	0.6968
212.8774	0.7045
213.0943	0.6882
213.3112	0.7579
213.5281	0.6247
213.745	0.7667
213.9619	0.7092
214.1788	0.7014
214.3956	0.673
214.6125	0.6041
214.8293	0.6726
215.0461	0.7166
215.2629	0.6438
215.4798	0.6399
215.6965	0.6589
215.9133	0.6152
216.1301	0.5745
216.3469	0.648
216.5636	0.6535
216.7803	0.6034
216.9971	0.6275
217.2138	0.6447
217.4305	0.6119
217.6472	0.6246
217.8639	0.58
218.0805	0.6476
218.2972	0.5729
218.5138	0.5888
218.7305	0.6036
218.9471	0.5697
219.1637	0.5962
219.3803	0.5025
219.5969	0.5888
219.8135	0.548
220.0301	0.5699
220.2466	0.5551
220.4632	0.5641
220.6797	0.5957
220.8962	0.5708
221.1127	0.6266
221.3292	0.5077
221.5457	0.5895
221.7622	0.5897
221.9787	0.5211
222.1951	0.5865
222.4116	0.522
222.628	0.5866
222.8444	0.5499
223.0608	0.5564
223.2772	0.5519
223.4936	0.5733
223.71	0.5508
223.9264	0.5171
224.1427	0.5242
224.3591	0.5452
224.5754	0.5491
224.7917	0.536
225.008	0.6353
225.2243	0.546
225.4406	0.5416
225.6569	0.545
225.8732	0.6102
226.0894	0.5401
226.3057	0.586
226.5219	0.5842
226.7381	0.5986
226.9543	0.5872
227.1705	0.5699
227.3867	0.5525
227.6029	0.5366
227.8191	0.5482
228.0352	0.5663
228.2513	0.5782
228.4675	0.6133
228.6836	0.5975
228.8997	0.5622
229.1158	0.5921
229.3319	0.5865
229.548	0.5739
229.764	0.5795
229.9801	0.6001
230.1961	0.5747
230.4121	0.575
230.6282	0.6069
230.8442	0.5942
231.0602	0.541
231.2761	0.5981
231.4921	0.5769
231.7081	0.5917
231.924	0.5867
232.14	0.5957
232.3559	0.6085
232.5718	0.5781
232.7877	0.5583
233.0036	0.5929
233.2195	0.5756
233.4353	0.6119
233.6512	0.5876
233.867	0.5732
234.0829	0.5633
234.2987	0.5695
234.5145	0.5488
234.7303	0.5797
234.9461	0.5715
235.1619	0.5667
235.3776	0.5784
235.5934	0.5332
235.8091	0.5561
236.0249	0.5474
236.2406	0.5615
236.4563	0.5673
236.672	0.5441
236.8877	0.5722
237.1034	0.5384
237.319	0.5371
237.5347	0.5682
237.7503	0.5639
237.966	0.5369
238.1816	0.554
238.3972	0.5675
238.6128	0.5375
238.8284	0.53
239.0439	0.5559
239.2595	0.5368
239.475	0.5523
239.6906	0.5234
239.9061	0.5199
240.1216	0.5371
240.3371	0.5377
240.5526	0.5212
240.7681	0.5267
240.9836	0.5321
241.199	0.5075
241.4145	0.4856
241.6299	0.4848
241.8453	0.4791
242.0607	0.5003
242.2761	0.4934
242.4915	0.4487
242.7069	0.46
242.9223	0.4573
243.1376	0.4214
243.353	0.4279
243.5683	0.4174
243.7836	0.4161
243.9989	0.4222
244.2142	0.4249
244.4295	0.3921
244.6448	0.382
244.86	0.3805
245.0753	0.3791
245.2905	0.3699
245.5057	0.3556
245.721	0.3596
245.9362	0.3399
246.1514	0.3383
246.3665	0.3284
246.5817	0.3207
246.7969	0.2989
247.012	0.3259
247.2271	0.3088
247.4423	0.2944
247.6574	0.3088
247.8725	0.2782
248.0876	0.2926
248.3026	0.2708
248.5177	0.2886
248.7328	0.2935
248.9478	0.2688
249.1628	0.2412
249.3779	0.2549
249.5929	0.2576
249.8079	0.2586
250.0228	0.2486
250.2378	0.2512
250.4528	0.2284
250.6677	0.2318
250.8827	0.2298
251.0976	0.222
251.3125	0.2346
251.5274	0.2478
251.7423	0.226
251.9572	0.2255
252.172	0.2162
252.3869	0.2263
252.6017	0.2142
252.8166	0.2082
253.0314	0.2155
253.2462	0.2152
253.461	0.2219
253.6758	0.2053
253.8906	0.21
254.1053	0.1976
254.3201	0.2219
254.5348	0.2076
254.7496	0.2093
254.9643	0.1966
255.179	0.1926
255.3937	0.1979
255.6083	0.1887
255.823	0.1896
256.0377	0.1918
256.2523	0.1979
256.467	0.209
256.6816	0.1906
256.8962	0.1929
257.1108	0.2
257.3254	0.2052
257.54	0.2015
257.7545	0.1951
257.9691	0.2032
258.1836	0.1874
258.3981	0.1868
258.6127	0.1967
258.8272	0.1974
259.0417	0.1869
259.2561	0.1835
259.4706	0.1876
259.6851	0.2033
259.8995	0.1847
260.114	0.1737
260.3284	0.1911
260.5428	0.1956
260.7572	0.1986
260.9716	0.1825
261.186	0.1792
261.4003	0.2054
261.6147	0.1983
261.829	0.1905
262.0433	0.1858
262.2577	0.1881
262.472	0.1892
262.6863	0.1858
262.9005	0.1777
263.1148	0.1981
263.3291	0.1851
263.5433	0.1719
263.7576	0.1914
263.9718	0.1864
264.186	0.1837
264.4002	0.194
264.6144	0.1989
264.8286	0.1836
265.0427	0.1807
265.2569	0.1816
265.471	0.1882
265.6851	0.1856
265.8993	0.1865
266.1134	0.1927
266.3275	0.1898
266.5415	0.1814
266.7556	0.1912
266.9697	0.2007
267.1837	0.1873
267.3978	0.1815
267.6118	0.1825
267.8258	0.1955
268.0398	0.1968
268.2538	0.1929
268.4677	0.1848
268.6817	0.1696
268.8957	0.1856
269.1096	0.1864
269.3235	0.1718
269.5374	0.1887
269.7514	0.1652
269.9652	0.1695
270.1791	0.177
270.393	0.1651
270.6068	0.1713
270.8207	0.1721
271.0345	0.1655
271.2483	0.1718
271.4622	0.1702
271.676	0.1669
271.8897	0.1831
272.1035	0.1773
272.3173	0.1748
272.531	0.1607
272.7448	0.1653
272.9585	0.1719
273.1722	0.175
273.3859	0.1604
273.5996	0.1752
273.8133	0.1601
274.0269	0.1579
274.2406	0.1593
274.4542	0.1744
274.6679	0.1706
274.8815	0.1606
275.0951	0.1805
275.3087	0.1686
275.5223	0.1794
275.7358	0.1671
275.9494	0.1577
276.1629	0.1594
276.3765	0.1659
276.59	0.171
276.8035	0.1671
277.017	0.1711
277.2305	0.1728
277.444	0.1627
277.6574	0.1658
277.8709	0.163
278.0843	0.1826
278.2978	0.1609
278.5112	0.1865
278.7246	0.16
278.938	0.1782
279.1513	0.1774
279.3647	0.1651
279.5781	0.1684
279.7914	0.1679
280.0047	0.1836
280.2181	0.1755
280.4314	0.1798
280.6447	0.1767
280.8579	0.18
281.0712	0.1864
281.2845	0.1816
281.4977	0.1813
281.711	0.1723
281.9242	0.1804
282.1374	0.1704
282.3506	0.1736
282.5638	0.1781
282.7769	0.1792
282.9901	0.1703
283.2033	0.1833
283.4164	0.1758
283.6295	0.1803
283.8426	0.1761
284.0557	0.1759
284.2688	0.1723
284.4819	0.1846
284.695	0.1871
284.908	0.1885
285.1211	0.1754
285.3341	0.1807
285.5471	0.2057
285.7601	0.1856
285.9731	0.1817
286.1861	0.1868
286.3991	0.1807
286.612	0.1848
286.825	0.1893
287.0379	0.1923
287.2508	0.197
287.4637	0.1899
287.6766	0.1817
287.8895	0.1746
288.1024	0.1895
288.3152	0.1956
288.5281	0.1816
288.7409	0.1835
288.9538	0.1931
289.1666	0.1884
289.3794	0.1866
289.5922	0.1826
289.8049	0.1704
290.0177	0.1875
290.2304	0.1741
290.4432	0.1766
290.6559	0.1927
290.8686	0.1802
291.0813	0.1819
291.294	0.1917
291.5067	0.1828
291.7194	0.1759
291.932	0.1953
292.1447	0.1973
292.3573	0.1987
292.5699	0.201
292.7825	0.1715
292.9951	0.195
293.2077	0.1869
293.4203	0.1875
293.6328	0.1933
293.8454	0.1766
294.0579	0.1961
294.2704	0.187
294.4829	0.1906
294.6954	0.1843
294.9079	0.1862
295.1204	0.1837
295.3328	0.1821
295.5453	0.1744
295.7577	0.1796
295.9701	0.1874
296.1825	0.1845
296.3949	0.1755
296.6073	0.1856
296.8197	0.1846
297.0321	0.1862
297.2444	0.1759
297.4567	0.1801
297.6691	0.1759
297.8814	0.1828
298.0937	0.1739
298.306	0.1798
298.5182	0.1892
298.7305	0.1838
298.9428	0.1858
299.155	0.1872
299.3672	0.172
299.5794	0.1789
299.7916	0.1812
300.0038	0.1902
300.216	0.1705
300.4282	0.1842
300.6403	0.1947
300.8525	0.1778
301.0646	0.1917
301.2767	0.1991
301.4888	0.1794
301.7009	0.1771
301.913	0.1873
302.125	0.1779
302.3371	0.1895
302.5491	0.1783
302.7612	0.1742
302.9732	0.1692
303.1852	0.1824
303.3972	0.1802
303.6092	0.1696
303.8211	0.1841
304.0331	0.1662
304.245	0.176
304.457	0.1795
304.6689	0.1598
304.8808	0.1631
305.0927	0.1738
305.3046	0.1673
305.5164	0.1775
305.7283	0.1761
305.9401	0.1537
306.152	0.1506
306.3638	0.1547
306.5756	0.1549
306.7874	0.1586
306.9992	0.1507
307.2109	0.1546
307.4227	0.1696
307.6344	0.1564
307.8462	0.1393
308.0579	0.1388
308.2696	0.1551
308.4813	0.1435
308.693	0.1473
308.9046	0.1374
309.1163	0.1403
309.328	0.1507
309.5396	0.149
309.7512	0.1324
309.9628	0.1327
310.1744	0.1302
310.386	0.1223
310.5976	0.1293
310.8091	0.1357
311.0207	0.1286
311.2322	0.1228
311.4437	0.1223
311.6552	0.1319
311.8667	0.1134
312.0782	0.1149
312.2897	0.1108
312.5012	0.1059
312.7126	0.1227
312.924	0.1073
313.1355	0.1131
313.3469	0.1057
313.5583	0.1138
313.7696	0.1038
313.981	0.1166
314.1924	0.1188
314.4037	0.0986
314.6151	0.1061
314.8264	0.1019
315.0377	0.1141
315.249	0.107
315.4603	0.1048
315.6716	0.109
315.8828	0.1006
316.0941	0.0903
316.3053	0.0992
316.5165	0.1048
316.7277	0.0934
316.9389	0.1049
317.1501	0.0999
317.3613	0.0942
317.5724	0.112
317.7836	0.1022
317.9947	0.1111
318.2058	0.1064
318.417	0.0975
318.6281	0.1077
318.8391	0.0984
319.0502	0.0983
319.2613	0.104
319.4723	0.1077
319.6834	0.0942
319.8944	0.0937
320.1054	0.1018
320.3164	0.097
320.5274	0.0868
320.7383	0.0971
320.9493	0.0994
321.1602	0.1051
321.3712	0.0908
321.5821	0.0998
321.793	0.105
322.0039	0.1012
322.2148	0.0955
322.4257	0.1008
322.6365	0.1065
322.8474	0.0978
323.0582	0.0956
323.269	0.1003
323.4798	0.1101
323.6906	0.0837
323.9014	0.1063
324.1122	0.0917
324.3229	0.1029
324.5337	0.1026
324.7444	0.1049
324.9551	0.1098
325.1658	0.1047
325.3765	0.1132
325.5872	0.1051
325.7979	0.1024
326.0085	0.0995
326.2192	0.0852
326.4298	0.1128
326.6404	0.0974
326.851	0.0998
327.0616	0.1007
327.2722	0.1122
327.4828	0.1069
327.6933	0.1034
327.9039	0.0903
328.1144	0.0941
328.3249	0.0956
328.5354	0.094
328.7459	0.0968
328.9564	0.1033
329.1669	0.1177
329.3773	0.1078
329.5878	0.1012
329.7982	0.0934
330.0086	0.0919
330.219	0.0956
330.4294	0.0949
330.6398	0.0964
330.8502	0.1121
331.0605	0.1173
331.2708	0.0937
331.4812	0.1056
331.6915	0.1068
331.9018	0.1001
332.1121	0.1029
332.3224	0.0975
332.5326	0.1089
332.7429	0.1114
332.9531	0.1013
333.1633	0.1017
333.3735	0.1054
333.5837	0.1107
333.7939	0.0959
334.0041	0.1141
334.2143	0.1074
334.4244	0.1063
334.6346	0.0898
334.8447	0.0992
335.0548	0.1132
335.2649	0.1141
335.475	0.0956
335.685	0.0941
335.8951	0.1184
336.1051	0.1069
336.3152	0.1199
336.5252	0.1078
336.7352	0.1237
336.9452	0.1158
337.1552	0.1101
337.3652	0.1096
337.5751	0.1146
337.7851	0.1018
337.995	0.1164
338.2049	0.1007
338.4148	0.1171
338.6247	0.1032
338.8346	0.1124
339.0445	0.1039
339.2543	0.1142
339.4642	0.1178
339.674	0.124
339.8838	0.1217
340.0936	0.1149
340.3034	0.1223
340.5132	0.1296
340.7229	0.1158
340.9327	0.1188
341.1424	0.1182
341.3522	0.1193
341.5619	0.1052
341.7716	0.121
341.9813	0.1074
342.1909	0.1096
342.4006	0.1186
342.6102	0.1044
342.8199	0.1143
343.0295	0.127
343.2391	0.1219
343.4487	0.1177
343.6583	0.1331
343.8679	0.1255
344.0774	0.1256
344.287	0.1195
344.4965	0.1329
344.706	0.1162
344.9155	0.1193
345.125	0.1214
345.3345	0.1197
345.544	0.1277
345.7534	0.1243
345.9629	0.1254
346.1723	0.1188
346.3817	0.1318
346.5911	0.1273
346.8005	0.1258
347.0099	0.1211
347.2193	0.1273
347.4286	0.1409
347.638	0.1275
347.8473	0.1226
348.0566	0.1336
348.2659	0.1348
348.4752	0.1415
348.6845	0.1315
348.8937	0.1378
349.103	0.1207
349.3122	0.1373
349.5214	0.1438
349.7306	0.1301
349.9398	0.1441
350.149	0.1402
350.3582	0.1402
350.5674	0.1423
350.7765	0.1359
350.9856	0.1343
351.1948	0.1359
351.4039	0.1507
351.613	0.1481
351.822	0.1397
352.0311	0.1509
352.2402	0.1303
352.4492	0.1547
352.6582	0.1427
352.8672	0.1505
353.0762	0.1482
353.2852	0.1569
353.4942	0.1482
353.7032	0.161
353.9121	0.1454
354.1211	0.1382
354.33	0.1562
354.5389	0.1519
354.7478	0.1582
354.9567	0.1663
355.1655	0.1603
355.3744	0.1556
355.5833	0.1627
355.7921	0.1518
356.0009	0.1531
356.2097	0.1529
356.4185	0.1443
356.6273	0.1494
356.8361	0.1637
357.0448	0.1398
357.2536	0.1649
357.4623	0.1679
357.671	0.1588
357.8797	0.1718
358.0884	0.1646
358.2971	0.1575
358.5057	0.166
358.7144	0.1683
358.923	0.1612
359.1316	0.1667
359.3402	0.1772
359.5488	0.1767
359.7574	0.1778
359.966	0.1626
360.1746	0.1645
360.3831	0.1855
360.5916	0.1963
360.8002	0.2036
361.0087	0.1838
361.2172	0.1813
361.4256	0.187
361.6341	0.1876
361.8426	0.1904
362.051	0.1795
362.2594	0.1827
362.4678	0.1776
362.6762	0.176
362.8846	0.184
363.093	0.1956
363.3014	0.1832
363.5097	0.189
363.718	0.1952
363.9264	0.2037
364.1347	0.1918
364.343	0.1848
364.5513	0.1817
364.7595	0.1874
364.9678	0.2083
365.176	0.2013
365.3842	0.1922
365.5925	0.1847
365.8007	0.1999
366.0089	0.2094
366.217	0.206
366.4252	0.2025
366.6333	0.2048
366.8415	0.2008
367.0496	0.2006
367.2577	0.2201
367.4658	0.2078
367.6739	0.2105
367.882	0.2174
368.09	0.2202
368.2981	0.1924
368.5061	0.2107
368.7141	0.2037
368.9221	0.2047
369.1301	0.2083
369.3381	0.2179
369.5461	0.2061
369.754	0.2021
369.962	0.2073
370.1699	0.2033
370.3778	0.2195
370.5857	0.226
370.7936	0.2084
371.0015	0.2314
371.2093	0.2333
371.4172	0.2144
371.625	0.2311
371.8328	0.2432
372.0406	0.2199
372.2484	0.2262
372.4562	0.212
372.664	0.2491
372.8717	0.2221
373.0795	0.2197
373.2872	0.2334
373.4949	0.2325
373.7026	0.2398
373.9103	0.244
374.118	0.2265
374.3256	0.2328
374.5333	0.227
374.7409	0.2312
374.9485	0.2302
375.1561	0.2407
375.3637	0.2105
375.5713	0.2506
375.7789	0.2407
375.9864	0.2308
376.194	0.2245
376.4015	0.2554
376.609	0.2328
376.8165	0.2229
377.024	0.2272
377.2315	0.2463
377.4389	0.2276
377.6464	0.2296
377.8538	0.2458
378.0612	0.2224
378.2686	0.2573
378.476	0.2431
378.6834	0.2391
378.8908	0.2326
379.0981	0.2469
379.3055	0.2525
379.5128	0.2758
379.7201	0.2454
379.9274	0.2476
380.1347	0.2473
380.342	0.2476
380.5492	0.2529
380.7565	0.273
380.9637	0.2626
381.1709	0.2571
381.3781	0.2643
381.5853	0.2713
381.7925	0.2657
381.9997	0.2245
382.2068	0.2637
382.4139	0.2635
382.6211	0.246
382.8282	0.245
383.0353	0.2659
383.2424	0.2566
383.4494	0.2463
383.6565	0.2666
383.8635	0.2596
384.0706	0.2748
384.2776	0.2801
384.4846	0.2558
384.6916	0.2801
384.8986	0.2487
385.1055	0.2325
385.3125	0.2657
385.5194	0.2664
385.7263	0.2628
385.9333	0.26
386.1402	0.2542
386.347	0.2764
386.5539	0.2617
386.7608	0.2784
386.9676	0.2465
387.1744	0.2622
387.3813	0.2406
387.5881	0.2337
387.7948	0.2666
388.0016	0.2596
388.2084	0.2552
388.4151	0.2701
388.6219	0.2661
388.8286	0.2554
389.0353	0.2618
389.242	0.2716
389.4487	0.2591
389.6553	0.2643
389.862	0.2585
390.0686	0.2696
390.2753	0.2813
390.4819	0.27
390.6885	0.2584
390.8951	0.2396
391.1016	0.2435
391.3082	0.2395
391.5147	0.2471
391.7213	0.2535
391.9278	0.2435
392.1343	0.2274
392.3408	0.2334
392.5473	0.2404
392.7537	0.2385
392.9602	0.2638
393.1666	0.2425
393.373	0.2338
393.5794	0.2327
393.7858	0.2464
393.9922	0.2673
394.1986	0.261
394.4049	0.232
394.6113	0.2371
394.8176	0.23
395.0239	0.2348
395.2302	0.2198
395.4365	0.2249
395.6428	0.2254
395.8491	0.2103
396.0553	0.2389
396.2615	0.2163
396.4678	0.2201
396.674	0.2044
396.8802	0.2372
397.0863	0.2271
397.2925	0.2118
397.4987	0.2274
397.7048	0.2188
397.9109	0.239
398.117	0.2356
398.3231	0.231
398.5292	0.225
398.7353	0.2292
398.9413	0.2016
399.1474	0.2202
399.3534	0.2064
399.5594	0.2424
399.7654	0.2251
399.9714	0.217
400.1774	0.2076
400.3833	0.2302
400.5893	0.1969
400.7952	0.222
401.0011	0.234
401.207	0.2152
401.4129	0.2025
401.6188	0.2149
401.8247	0.2335
402.0305	0.2067
402.2364	0.2345
402.4422	0.2338
402.648	0.211
402.8538	0.2093
403.0596	0.1957
403.2654	0.2119
403.4711	0.2142
403.6768	0.2201
403.8826	0.2519
404.0883	0.2141
404.294	0.2218
404.4997	0.2128
404.7054	0.224
404.911	0.2321
405.1167	0.207
405.3223	0.2139
405.5279	0.2427
405.7335	0.2488
405.9391	0.2202
406.1447	0.2321
406.3502	0.2294
406.5558	0.2131
406.7613	0.2297
406.9668	0.1999
407.1724	0.226
407.3778	0.2042
407.5833	0.2264
407.7888	0.2361
407.9942	0.2285
408.1997	0.2409
408.4051	0.2018
408.6105	0.2025
408.8159	0.2013
409.0213	0.2116
409.2267	0.2218
409.432	0.2405
409.6374	0.2191
409.8427	0.2072
410.048	0.2189
410.2533	0.2256
410.4586	0.197
410.6639	0.2219
410.8691	0.2216
411.0744	0.2271
411.2796	0.2016
411.4848	0.2137
411.69	0.2197
411.8952	0.2222
412.1004	0.2202
412.3056	0.2063
412.5107	0.2086
412.7158	0.2132
412.921	0.2163
413.1261	0.2213
413.3312	0.209
413.5362	0.2216
413.7413	0.2251
413.9464	0.2213
414.1514	0.2229
414.3564	0.2118
414.5614	0.202
414.7664	0.2132
414.9714	0.2179
415.1764	0.1999
415.3813	0.2173
415.5863	0.2217
415.7912	0.217
415.9961	0.2233
416.201	0.2084
416.4059	0.2021
416.6108	0.2174
416.8156	0.2131
417.0205	0.2262
417.2253	0.2169
417.4301	0.2186
417.6349	0.231
417.8397	0.2055
418.0445	0.2019
418.2492	0.1974
418.454	0.204
418.6587	0.2236
418.8634	0.2216
419.0681	0.2215
419.2728	0.1998
419.4775	0.1967
419.6822	0.2128
419.8868	0.2141
420.0915	0.1874
420.2961	0.1992
420.5007	0.2003
420.7053	0.2106
420.9099	0.196
421.1144	0.223
421.319	0.2008
421.5235	0.2101
421.728	0.1952
421.9325	0.2058
422.137	0.1915
422.3415	0.2002
422.546	0.1946
422.7504	0.2134
422.9549	0.2068
423.1593	0.1904
423.3637	0.1978
423.5681	0.188
423.7725	0.1913
423.9769	0.178
424.1812	0.191
424.3856	0.2059
424.5899	0.2068
424.7942	0.1869
424.9985	0.1902
425.2028	0.1797
425.4071	0.1801
425.6113	0.1808
425.8156	0.2038
426.0198	0.2061
426.224	0.1805
426.4282	0.1963
426.6324	0.1775
426.8366	0.1999
427.0407	0.1703
427.2449	0.1908
427.449	0.1804
427.6531	0.1539
427.8572	0.1704
428.0613	0.1883
428.2654	0.1446
428.4694	0.1768
428.6735	0.1644
428.8775	0.1556
429.0815	0.1654
429.2855	0.1584
429.4895	0.1543
429.6935	0.1521
429.8975	0.1487
430.1014	0.1522
430.3053	0.1545
430.5093	0.1548
430.7132	0.1341
430.9171	0.1379
431.1209	0.1405
431.3248	0.1566
431.5286	0.1377
431.7325	0.1496
431.9363	0.1449
432.1401	0.1464
432.3439	0.1439
432.5477	0.1529
432.7514	0.1308
432.9552	0.1315
433.1589	0.1336
433.3627	0.1394
433.5664	0.1314
433.7701	0.118
433.9737	0.1199
434.1774	0.1239
434.3811	0.1154
434.5847	0.1236
434.7883	0.1293
434.9919	0.1154
435.1955	0.1285
435.3991	0.1238
435.6027	0.1183
435.8062	0.1239
436.0098	0.1219
436.2133	0.1008
436.4168	0.1244
436.6203	0.1105
436.8238	0.0907
437.0272	0.0993
437.2307	0.1181
437.4341	0.0863
437.6375	0.1084
437.841	0.0916
438.0443	0.0959
438.2477	0.0968
438.4511	0.0942
438.6545	0.0979
438.8578	0.1078
439.0611	0.0956
439.2644	0.0769
439.4677	0.0911
439.671	0.0928
439.8743	0.0745
440.0775	0.0801
440.2808	0.0806
440.484	0.0803
440.6872	0.0737
440.8904	0.0601
441.0936	0.0707
441.2967	0.0655
441.4999	0.0486
441.703	0.0789
441.9062	0.0594
442.1093	0.0556
442.3124	0.0741
442.5155	0.0751
442.7185	0.069
442.9216	0.0482
443.1246	0.0738
443.3276	0.0761
443.5307	0.0452
443.7337	0.0696
443.9366	0.069
444.1396	0.0587
444.3426	0.0465
444.5455	0.0635
444.7484	0.0649
444.9513	0.0467
445.1542	0.0398
445.3571	0.0544
445.56	0.0546
445.7628	0.0543
445.9657	0.0434
446.1685	0.0433
446.3713	0.0372
446.5741	0.0458
446.7769	0.0739
446.9797	0.0543
447.1824	0.0257
447.3852	0.054
447.5879	0.0498
447.7906	0.0466
447.9933	0.0337
448.196	0.0422
448.3986	0.0459
448.6013	0.0246
448.8039	0.0415
449.0066	0.027
449.2092	0.0404
449.4118	0.0534
449.6143	0.0237
449.8169	0.0498
450.0195	0.0212
450.222	0.0331
450.4245	0.0228
450.627	0.0095
450.8295	0.0307
451.032	0.0283
451.2345	0.015
451.4369	0.0357
451.6394	0.0151
451.8418	0.0109
452.0442	0.0053
452.2466	0.0062
452.449	0.0165
452.6513	0.0426
452.8537	0.0251
453.056	0.0204
453.2583	0.0252
453.4607	0.0169
453.663	0.0163
453.8652	0.0269
454.0675	0.0078
454.2697	0.0245
454.472	0.0056
454.6742	0.0158
454.8764	0.0093
455.0786	0.0002
455.2808	0.0043
455.4829	0.0352
455.6851	0.0428
455.8872	0.031
456.0893	0.0127
456.2915	0.0177
456.4935	0.0175
456.6956	-0.0086
456.8977	0.0015
457.0997	0.0223
457.3018	0.0159
457.5038	0.0141
457.7058	0.0208
457.9078	0.0028
458.1098	0.0033
458.3117	0.0211
458.5137	0.0058
458.7156	0.0055
458.9175	0.0037
459.1194	0.0064
459.3213	0.0072
459.5232	-0.0069
459.725	0.0222
459.9269	0.0013
460.1287	0.026
460.3305	0.0102
460.5323	0.0164
460.7341	0.0019
460.9359	0.0131
461.1376	0.0203
461.3394	0.0002
461.5411	0.0066
461.7428	0.02
461.9445	0.0054
462.1462	0.0087
462.3479	-0.0001
462.5495	0.0152
462.7512	0.0057
462.9528	-0.0044
463.1544	0.0129
463.356	-0.0013
463.5576	-0.0083
463.7592	-0.0161
463.9607	0.0225
464.1623	-0.0004
464.3638	0.0106
464.5653	-0.0048
464.7668	-0.0003
464.9683	0.002
465.1697	0.0076
465.3712	-0.0052
465.5726	0.0158
465.7741	0.0114
465.9755	-0.0111
466.1769	0.004
466.3782	0.006
466.5796	-0.0075
466.7809	0.0015
466.9823	0.0029
467.1836	0.0241
467.3849	-0.0012
467.5862	-0.0058
467.7875	0.024
467.9887	-0.0014
468.19	-0.0104
468.3912	0.0045
468.5924	-0.0048
468.7936	0.0049
468.9948	-0.016
469.196	-0.0086
469.3972	-0.0077
469.5983	0.0092
469.7994	-0.0036
470.0006	-0.0138
470.2017	-0.0006
470.4027	-0.0085
470.6038	-0.0068
470.8049	0.0035
471.0059	-0.0168
471.2069	0.0152
471.408	-0.0189
471.6089	-0.0053
471.8099	0.0069
472.0109	0.003
472.2119	0.0181
472.4128	-0.018
472.6137	0.0097
472.8146	-0.0037
473.0155	0.0065
473.2164	0.0047
473.4173	-0.0037
473.6181	-0.0194
473.819	0.0061
474.0198	-0.0035
474.2206	-0.0071
474.4214	0.0138
474.6222	0.002
474.8229	-0.0069
475.0237	-0.006
475.2244	-0.007
475.4251	-0.0021
475.6258	-0.002
475.8265	0.0029
476.0272	-0.0086
476.2278	-0.0146
476.4285	-0.0073
476.6291	-0.0067
476.8297	0.0053
477.0303	0.0041
477.2309	-0.0058
477.4315	0.0035
477.632	-0.0099
477.8326	-0.0049
478.0331	-0.0221
478.2336	-0.005
478.4341	-0.0014
478.6346	-0.0076
478.8351	-0.0128
479.0355	-0.0175
479.236	-0.0076
479.4364	-0.004
479.6368	0.0003
479.8372	-0.0047
480.0376	-0.0172
480.2379	-0.0076
480.4383	-0.0158
480.6386	0.001
480.8389	-0.0099
481.0392	-0.0026
481.2395	-0.0018
481.4398	-0.0171
481.6401	-0.0025
481.8403	0.0041
482.0405	-0.0061
482.2408	-0.0161
482.441	-0.0075
482.6411	-0.0174
482.8413	-0.0219
483.0415	-0.0051
483.2416	-0.0114
483.4417	0.0004
483.6419	-0.0045
483.8419	-0.0152
484.042	0.0009
484.2421	-0.004
484.4422	-0.0039
484.6422	0.0096
484.8422	0.0005
485.0422	-0.001
485.2422	-0.0104
485.4422	-0.0103
485.6422	-0.0078
485.8421	-0.0061
486.042	-0.0029
486.242	-0.0051
486.4419	-0.0099
486.6417	0.0052
486.8416	-0.0069
487.0415	-0.0057
487.2413	-0.014
487.4411	-0.0064
487.641	-0.0029
487.8408	-0.0008
488.0405	0.0029
488.2403	-0.0033
488.4401	0.0095
488.6398	-0.0206
488.8395	-0.0068
489.0392	-0.0084
489.2389	-0.0181
489.4386	-0.0123
489.6383	0.0021
489.8379	0.006
490.0376	0.0024
490.2372	0.0005
490.4368	-0.0031
490.6364	-0.0012
490.836	-0.0103
491.0355	-0.0103
491.2351	-0.0077
491.4346	-0.0185
491.6341	-0.0073
491.8336	-0.0057
492.0331	-0.007
492.2326	-0.0023
492.432	-0.0059
492.6315	-0.0069
492.8309	-0.0064
493.0303	-0.0159
493.2297	-0.0103
493.4291	-0.0069
493.6284	-0.0218
493.8278	-0.0161
494.0271	-0.0104
494.2264	-0.0024
494.4257	-0.0078
494.625	-0.007
494.8243	-0.0001
495.0236	-0.0187
495.2228	-0.0126
495.422	-0.0029
495.6213	-0.0089
495.8205	0.0002
496.0196	-0.0104
496.2188	-0.0053
496.418	-0.0067
496.6171	-0.0138
496.8162	-0.0109
497.0153	-0.0058
497.2144	-0.0105
497.4135	-0.0041
497.6126	-0.0142
497.8116	-0.0075
498.0107	-0.0021
498.2097	-0.004
498.4087	-0.0171
498.6077	-0.0155
498.8067	0.0087
499.0056	-0.012
499.2046	-0.0019
499.4035	-0.014
499.6024	-0.0164
499.8013	-0.0158
500.0002	-0.006
500.199	-0.0027
500.3979	-0.0036
500.5967	-0.0193
500.7956	-0.0074
500.9944	-0.0095
501.1932	0.0007
501.3919	-0.0095
501.5907	-0.0123
501.7895	-0.0222
501.9882	-0.0152
502.1869	-0.011
502.3856	-0.0235
502.5843	-0.0055
502.783	0.0028
502.9816	0.0037
503.1803	-0.0199
503.3789	-0.0124
503.5775	-0.0143
503.7761	-0.0121
503.9747	-0.0044
504.1732	-0.0041
504.3718	-0.002
504.5703	0.0006
504.7689	-0.0079
504.9674	-0.0077
505.1658	-0.0091
505.3643	-0.0111
505.5628	-0.0083
505.7612	-0.0051
505.9597	-0.0067
506.1581	-0.0094
506.3565	-0.0124
506.5549	0.0002
506.7532	0.0002
506.9516	-0.0058
507.1499	-0.0165
507.3482	-0.0093
507.5465	0.0047
507.7448	-0.0028
507.9431	-0.0061
508.1414	-0.0069
508.3396	-0.0097
508.5379	-0.0008
508.7361	-0.0083
508.9343	-0.013
509.1325	0.0012
509.3306	-0.0075
509.5288	-0.013
509.7269	0.0068
509.9251	0.0012
510.1232	-0.0101
510.3213	0.0004
510.5193	-0.0062
510.7174	-0.007
510.9154	-0.0033
511.1135	-0.0149
511.3115	-0.0039
511.5095	-0.0082
511.7075	-0.0054
511.9055	-0.0157
512.1034	-0.005
512.3014	0.0001
512.4993	0.0031
512.6972	-0.008
512.8951	0.0003
513.093	-0.0099
513.2908	-0.006
513.4887	0.0029
513.6865	-0.0002
513.8844	-0.0015
514.0822	-0.0018
514.2799	-0.0157
514.4777	-0.0009
514.6755	0.0071
514.8732	-0.0065
515.0709	-0.0093
515.2687	0.0046
515.4664	0.0054
515.664	-0.0154
515.8617	-0.0039
516.0594	0.002
516.257	-0.0034
516.4546	-0.0189
516.6522	-0.0029
516.8498	-0.0187
517.0474	-0.0072
517.2449	-0.0072
517.4425	0.001
517.64	-0.0163
517.8375	-0.0047
518.035	-0.0103
518.2325	-0.0243
518.43	-0.015
518.6274	-0.0025
518.8249	0.0058
519.0223	-0.0062
519.2197	0.0001
519.4171	-0.0058
519.6145	-0.0042
519.8118	-0.0076
520.0092	-0.0064
520.2065	-0.0117
520.4038	-0.0117
520.6011	-0.0056
520.7984	0.0041
520.9956	0.0011
521.1929	-0.0085
521.3901	-0.014
521.5874	-0.0015
521.7846	0.0025
521.9818	0.0088
522.1789	0.0003
522.3761	-0.0018
522.5732	-0.0109
522.7704	-0.0014
522.9675	-0.004
523.1646	0.0004
523.3617	-0.0043
523.5587	-0.0038
523.7558	-0.0015
523.9528	0.003
524.1498	-0.0003
524.3468	-0.0056
524.5438	0.0015
524.7408	0.0034
524.9378	0.0102
525.1347	0.0035
525.3316	-0.0012
525.5285	-0.014
525.7254	0.0093
525.9223	-0.0074
526.1192	-0.0119
526.316	0.0044
526.5129	0.0022
526.7097	0.0032
526.9065	0.0038
527.1033	-0.0079
527.3	-0.0082
527.4968	-0.0044
527.6935	0.0085
527.8903	0.0072
528.087	0.0048
528.2837	0.0012
528.4804	-0.0023
528.677	0.0047
528.8737	0
529.0703	-0.0037
529.2669	-0.0022
529.4635	0.0008
529.6601	0.006
529.8567	0.0092
530.0532	0.0001
530.2498	-0.0016
530.4463	-0.0145
530.6428	-0.001
530.8393	-0.0059
531.0358	-0.0002
531.2322	0.0081
531.4287	0.0026
531.6251	-0.0011
531.8215	0.0043
532.0179	-0.0074
532.2143	0.0056
532.4107	-0.002
532.607	-0.0003
532.8034	-0.007
532.9997	0.0032
533.196	-0.0008
533.3923	0.0004
533.5886	0.0085
533.7848	0.0096
533.9811	-0.0006
534.1773	-0.007
534.3735	-0.0068
534.5697	0
534.7659	-0.0075
534.9621	-0.0064
535.1582	0.006
535.3544	-0.0045
535.5505	-0.0048
535.7466	0.0084
535.9427	-0.0017
536.1387	-0.0126
536.3348	-0.0102
536.5308	-0.006
536.7269	-0.0004
536.9229	0.0015
537.1189	-0.0065
537.3148	0.0007
537.5108	0.0141
537.7068	-0.0109
537.9027	0.001
538.0986	-0.0018
538.2945	0.0001
538.4904	0.0027
538.6863	-0.0021
538.8821	-0.0054
539.078	-0.0044
539.2738	0.0016
539.4696	-0.006
539.6654	0.0024
539.8611	0.006
540.0569	0.0021
540.2526	0.0003
540.4484	0.0018
540.6441	0.0119
540.8398	-0.0013
541.0355	0.0048
541.2311	-0.0016
541.4268	0.0041
541.6224	0.0044
541.818	0.0072
542.0136	-0.0057
542.2092	0.0046
542.4048	-0.0041
542.6003	-0.0037
542.7959	-0.0012
542.9914	0
543.1869	0.0005
543.3824	-0.0057
543.5779	0.0009
543.7734	0.0038
543.9688	0.0005
544.1642	0.0025
544.3596	-0.0011
544.555	0.002
544.7504	0.0039
544.9458	0.006
545.1411	0.0013
545.3365	0.0015
545.5318	0.0027
545.7271	-0.0023
545.9224	-0.0024
546.1177	-0.0143
546.3129	-0.003
546.5081	-0.0054
546.7034	-0.0037
546.8986	0.0069
547.0938	-0.0018
547.289	0.0007
547.4841	0.002
547.6793	-0.0028
547.8744	0.0029
548.0695	-0.0016
548.2646	0.0004
548.4597	0.009
548.6548	0.003
548.8498	0.0016
549.0448	0.003
549.2399	-0.0031
549.4349	-0.0089
549.6298	0.0083
549.8248	0.0004
550.0198	0.0036
550.2147	-0.006
550.4096	-0.0031
550.6045	-0.0015
550.7994	-0.0004
550.9943	0.0096
551.1892	-0.008
551.384	-0.0028
551.5788	0.0066
551.7737	0.0028
551.9685	0.0063
552.1632	0.008
552.358	-0.0023
552.5528	-0.0064
552.7475	-0.0136
552.9422	0.0039
553.1369	-0.0048
553.3316	-0.0078
553.5263	0.0137
553.7209	0
553.9156	0.0023
554.1102	-0.0095
554.3048	0.0005
554.4994	0.0065
554.694	-0.002
554.8885	0.008
555.0831	0.0025
555.2776	0.008
555.4721	0.0076
555.6666	0.0052
555.8611	-0.0044
556.0555	0.0041
556.25	-0.0002
556.4444	0.0114
556.6388	0.0088
556.8332	0.006
557.0276	0.0104
557.222	-0.0067
557.4163	0.0053
557.6107	0.0112
557.805	0.0102
557.9993	-0.0075
558.1936	-0.0006
558.3879	0.0058
558.5821	0.0128
558.7764	0.0104
558.9706	0.0004
559.1648	0.0013
559.359	0.0045
559.5532	-0.0073
559.7473	0.0039
559.9415	0.0041
560.1356	0.0031
560.3297	0.0014
560.5238	0.0136
560.7179	0.0081
560.9119	0.0027
561.106	0.0053
561.3	0.0118
561.494	0.0113
561.688	0.0012
561.882	0.0127
562.076	-0.0022
562.2699	0.0001
562.4639	-0.0016
562.6578	0.0032
562.8517	0.0042
563.0456	0.0027
563.2395	0.0048
563.4333	-0.0088
563.6272	0.0004
563.821	-0.0098
564.0148	0.0084
564.2086	-0.0153
564.4024	-0.0001
564.5961	0.0075
564.7899	-0.0019
564.9836	0.0065
565.1773	0.0118
565.371	0.0093
565.5647	-0.0015
565.7584	-0.0005
565.952	0
566.1456	0.0051
566.3393	0.0072
566.5329	-0.0037
566.7264	0.007
566.92	0.0037
567.1136	0.018
567.3071	-0.0018
567.5006	0.0071
567.6941	0.0029
567.8876	0.004
568.0811	0.0039
568.2745	0.0022
568.468	0.0063
568.6614	0.0097
568.8548	0.0072
569.0482	0.0066
569.2416	0.0132
569.4349	0.0064
569.6283	0.0047
569.8216	0.0021
570.0149	0.005
570.2082	0.0062
570.4015	-0.0018
570.5947	0.0088
570.788	0.0114
570.9812	0.0096
571.1744	-0.001
571.3676	0.0025
571.5608	-0.0001
571.754	0.0033
571.9471	-0.0047
572.1402	-0.0006
572.3333	0.0011
572.5264	0.0014
572.7195	0.0017
572.9126	0.0058
573.1057	0.002
573.2987	0.0064
573.4917	-0.0012
573.6847	-0.001
573.8777	0
574.0707	0.0109
574.2636	0.0082
574.4566	0.0005
574.6495	0.0015
574.8424	0.0009
575.0353	0.0048
575.2281	0.008
575.421	0.0016
575.6138	-0.0013
575.8067	0.0044
575.9995	0.0071
576.1923	0.0021
576.385	0.0008
576.5778	-0.0053
576.7706	0.0052
576.9633	0.0037
577.156	0.0028
577.3487	-0.0008
577.5414	0.006
577.734	-0.0081
577.9267	-0.0007
578.1193	0.0064
578.3119	0.003
578.5045	0.0051
578.6971	0.0007
578.8897	0.0105
579.0822	0.0002
579.2747	0.0073
579.4673	0.0032
579.6598	0.0111
579.8522	0.0052
580.0447	0.0063
580.2372	0.0084
580.4296	0.0058
580.622	0.0043
580.8144	0.0098
581.0068	0.0107
581.1992	0.0028
581.3915	0.0043
581.5839	0.0026
581.7762	0.0049
581.9685	-0.0033
582.1608	0.0036
582.353	-0.0017
582.5453	-0.0022
582.7375	-0.0023
582.9298	-0.0031
583.122	0.0048
583.3142	-0.0013
583.5063	0.0027
583.6985	-0.0012
583.8906	-0.0013
584.0827	0.0007
584.2749	0.001
584.4669	-0.001
584.659	-0.0011
584.8511	-0.0009
585.0431	-0.0056
585.2352	-0.0057
585.4272	0.0002
585.6192	0.0036
585.8111	-0.0054
586.0031	0.001
586.195	0.0047
586.387	-0.0009
586.5789	0.0044
586.7708	-0.0004
586.9627	0.001
587.1545	0.0073
587.3464	0.0097
587.5382	-0.0057
587.73	0.0137
587.9218	0.0047
588.1136	-0.0004
588.3053	-0.0028
588.4971	0.0068
588.6888	0.0107
588.8805	0.0013
589.0722	0.0055
589.2639	0.0005
589.4556	-0.0019
589.6472	0.0015
589.8389	0.0019
590.0305	0.0076
590.2221	0.0113
590.4137	0.0036
590.6052	0.0008
590.7968	0.0102
590.9883	-0.0024
591.1798	-0.0039
591.3713	0.0127
591.5628	0.003
591.7543	0.0136
591.9458	0.0071
592.1372	0.0072
592.3286	-0.0002
592.52	0.0028
592.7114	0.0101
592.9028	-0.0053
593.0941	0.0002
593.2855	0.0047
593.4768	-0.0025
593.6681	-0.0071
593.8594	0.0014
594.0506	-0.0069
594.2419	0.0055
594.4331	0.0062
594.6244	0.0001
594.8156	0.009
595.0067	-0.0029
595.1979	-0.0027
595.3891	-0.0033
595.5802	0.0025
595.7713	-0.0009
595.9624	0.0068
596.1535	0.0006
596.3446	0.0095
596.5357	0.0069
596.7267	0.0018
596.9177	0.006
597.1087	0.0123
597.2997	0.0041
597.4907	0.0038
597.6817	0.0015
597.8726	0.0087
598.0635	0.0072
598.2544	0.0077
598.4453	0.0106
598.6362	0.0084
598.827	0.0088
599.0179	-0.0014
599.2087	0.0025
599.3995	0.0093
599.5903	0.0073
599.7811	0.0058
599.9718	-0.0068
600.1626	0.0009
600.3533	-0.0015
600.544	-0.0022
600.7347	0.0051
600.9254	-0.0009
601.116	0.0001
601.3067	-0.0048
601.4973	-0.0013
601.6879	-0.0007
601.8785	0.0035
602.0691	0.0029
602.2596	0.0089
602.4502	0.0053
602.6407	-0.0029
602.8312	-0.0009
603.0217	0.0017
603.2122	-0.0035
603.4027	0.0096
603.5931	0.0055
603.7835	0.0146
603.9739	0.0079
604.1643	0.0085
604.3547	0.0022
604.5451	0.0067
604.7354	0.0007
604.9257	0.0012
605.116	0.0011
605.3063	0.0048
605.4966	-0.0005
605.6869	0.0108
605.8771	0.0001
606.0673	0.0029
606.2575	0.0014
606.4477	-0.0055
606.6379	-0.0028
606.8281	0.003
607.0182	0.0056
607.2083	0.0067
607.3985	0.0025
607.5885	-0.0022
607.7786	0.0031
607.9687	0.0039
608.1587	0.0085
608.3488	0.0094
608.5388	0.0119
608.7288	0.0015
608.9187	0.0025
609.1087	0.003
609.2986	0.0087
609.4886	0.0058
609.6785	0.0016
609.8684	0.0102
610.0582	0.015
610.2481	0.0051
610.4379	-0.0059
610.6278	0.0057
610.8176	0.0054
611.0074	0.0019
611.1971	-0.0017
611.3869	0.0007
611.5766	0.0061
611.7664	0.0125
611.9561	0.0097
612.1458	0.006
612.3354	0.0105
612.5251	0.008
612.7147	-0.0029
612.9044	0.0072
613.094	0.0029
613.2836	0.012
613.4731	0.0075
613.6627	0.0058
613.8522	0.0143
614.0417	0.0035
614.2313	0.0072
614.4207	0.0037
614.6102	0.0036
614.7997	0.0078
614.9891	0.007
615.1785	0.0036
615.3679	0.0091
615.5573	0.0075
615.7467	0.0044
615.9361	0.0037
616.1254	0.0074
616.3147	0.0057
616.504	0.0063
616.6933	0.0027
616.8826	0.0034
617.0718	0.0003
617.2611	0.0088
617.4503	0.0041
617.6395	0.0019
617.8287	0.0112
618.0179	0.0078
618.207	0.0053
618.3961	0.0125
618.5853	0.0076
618.7744	0.007
618.9634	-0.0005
619.1525	0.011
619.3416	0.0077
619.5306	0.011
619.7196	-0.0038
619.9086	0.0047
620.0976	0.0038
620.2866	0.0053
620.4755	0.0103
620.6645	0.0088
620.8534	0.0063
621.0423	0.0088
621.2312	0.0025
621.42	0.0067
621.6089	0.0079
621.7977	0.0061
621.9865	0.0091
622.1753	0.0134
622.3641	0.0096
622.5529	0.0032
622.7416	0.0111
622.9303	0.009
623.1191	0.0117
623.3078	0.0057
623.4964	0.0051
623.6851	0.0113
623.8737	0.015
624.0624	0.0032
624.251	0.0107
624.4396	0.0093
624.6282	0.0042
624.8167	0.0102
625.0053	-0
625.1938	0.0046
625.3823	0.0098
625.5708	0.0161
625.7593	0.0153
625.9477	0.0195
626.1362	0.0067
626.3246	0.0081
626.513	0.0065
626.7014	0.0029
626.8898	0.0153
627.0781	0.0019
627.2665	0.0024
627.4548	0.0112
627.6431	0.0047
627.8314	0.0058
628.0197	0.0022
628.2079	0.0045
628.3962	0.0087
628.5844	0.0109
628.7726	0.006
628.9608	0.012
629.1489	0.0125
629.3371	0.0104
629.5252	0.0063
629.7134	0.0002
629.9015	0.006
630.0895	0.0154
630.2776	-0.0034
630.4657	0.0084
630.6537	0.0061
630.8417	0.0086
631.0297	0.0102
631.2177	0.0155
631.4057	0.0099
631.5936	0.0139
631.7815	0.0166
631.9695	0.0102
632.1574	0.013
632.3452	0.0144
632.5331	0.0074
632.7209	0.009
632.9088	0.0032
633.0966	-0.0015
633.2844	0.0012
633.4722	-0.0002
633.6599	0.0087
633.8477	0.0077
634.0354	0.0046
634.2231	0.0125
634.4108	0.0053
634.5985	0.0033
634.7861	0.0124
634.9738	0.0082
635.1614	0.0052
635.349	0.0045
635.5366	0.0052
635.7242	0.0114
635.9117	0.0024
636.0993	0.0052
636.2868	0.0116
636.4743	0.0054
636.6618	0.0081
636.8492	0.0225
637.0367	0.0041
637.2241	0.0095
637.4115	0.0086
637.5989	0.014
637.7863	0.0034
637.9737	0.009
638.161	0.0128
638.3484	0.0062
638.5357	0.008
638.723	0.0019
638.9103	0.0077
639.0975	0.0048
639.2848	0.0064
639.472	0.0124
639.6592	0.0019
639.8464	0.0082
640.0336	0.0091
640.2208	0.0068
640.4079	0.0032
640.595	0.005
640.7821	0.0097
640.9692	0.0034
641.1563	0.009
641.3434	0.0009
641.5304	0.0102
641.7174	0.0084
641.9044	0.0007
642.0914	0.0058
642.2784	-0.0044
642.4653	0.0105
642.6523	0.0016
642.8392	0.0099
643.0261	0.0016
643.213	-0.0036
643.3999	0.0001
643.5867	0.003
643.7735	0.0079
643.9604	0.0014
644.1472	0.0082
644.3339	0.0025
644.5207	0.0056
644.7075	-0.0008
644.8942	0.008
645.0809	0.0006
645.2676	0.003
645.4543	0.0093
645.6409	0.0108
645.8276	0.0043
646.0142	0.0025
646.2008	0.02
646.3874	0.0118
646.574	0.0097
646.7605	0.0087
646.9471	0.0079
647.1336	0.005
647.3201	0.008
647.5066	0.0011
647.6931	-0.0004
647.8795	0.0074
648.0659	0.0103
648.2524	0.0081
648.4388	0.0094
648.6252	0.0003
648.8115	0.0064
648.9979	0.0064
649.1842	0.0067
649.3705	0.0022
649.5568	0.0077
649.7431	0.0148
649.9294	0.0041
650.1156	0.0125
650.3018	0.0069
650.488	0.0022
650.6742	0.0054
650.8604	0.0092
651.0466	0.0142
651.2327	0.0119
651.4188	0.0087
651.6049	0.0154
651.791	0.0119
651.9771	0.0114
652.1632	0.0085
652.3492	0.0037
652.5352	0.0067
652.7212	0.0139
652.9072	-0.0039
653.0932	0.0018
653.2791	-0.0013
653.465	0.0027
653.651	0.0074
653.8369	0.0028
654.0227	0.0129
654.2086	0.007
654.3944	0.0001
654.5803	0.0018
654.7661	0.0095
654.9519	-0.0057
655.1377	-0.0016
655.3234	-0.0024
655.5092	0.001
655.6949	-0.0073
655.8806	-0.0044
656.0663	0.0018
656.2519	-0.0011
656.4376	0.0036
656.6232	-0.0019
656.8088	0.0071
656.9945	-0.0017
657.18	0.0074
657.3656	0.007
657.5511	-0.0046
657.7367	0.0073
657.9222	0.0057
658.1077	0.0018
658.2932	0.0014
658.4786	-0.0007
658.6641	0.0021
658.8495	0.0047
659.0349	0.0035
659.2203	-0.0005
659.4057	0.0047
659.591	0.0067
659.7764	0.0053
659.9617	-0.0031
660.147	0.0112
660.3323	0.0088
660.5176	-0.0013
660.7028	0.0084
660.888	0.0133
661.0733	0.0102
661.2585	0.0073
661.4436	0.0117
661.6288	0.0076
661.8139	0.0068
661.9991	-0.0075
662.1842	0.008
662.3693	0.0032
662.5544	0.0116
662.7394	0.0078
662.9245	0.0067
663.1095	0.0164
663.2945	0.004
663.4795	0.0094
663.6644	0.0077
663.8494	0.0054
664.0343	0.009
664.2193	0.0127
664.4042	0.0073
664.589	0.0098
664.7739	0.0018
664.9587	0.0045
665.1436	0.0023
665.3284	0.0051
665.5132	0.0043
665.698	0.004
665.8827	0.0127
666.0675	0.0017
666.2522	0.006
666.4369	0.0019
666.6216	0.0182
666.8063	0.0081
666.9909	0.007
667.1756	0.0036
667.3602	0.009
667.5448	0.011
667.7294	0.0062
667.9139	0.005
668.0985	0.0117
668.283	-0
668.4675	0.004
668.652	0.018
668.8365	-0.0015
669.0209	0.0107
669.2054	-0.0016
669.3898	0.0025
669.5742	0.0119
669.7586	0.0056
669.943	0.0039
670.1273	0.0059
670.3117	0.0064
670.496	0.0011
670.6803	0.0089
670.8646	0.008
671.0488	0.0104
671.2331	0.0127
671.4173	0.0116
671.6015	0.009
671.7857	0.0023
671.9699	0.0153
672.1541	0.006
672.3382	0.0076
672.5223	0.0064
672.7064	0.0114
672.8905	0.0132
673.0746	0.009
673.2587	0.0085
673.4427	0.0051
673.6267	0.0044
673.8107	0.0132
673.9947	0.0041
674.1787	0.0089
674.3626	0.0184
674.5465	0.0181
674.7304	0.0106
674.9143	0.0105
675.0982	0.006
675.2821	0.0022
675.4659	0.0147
675.6497	0.0039
675.8335	0.02
676.0173	0.002
676.2011	0.0108
676.3849	0.0068
676.5686	0.018
676.7523	0.0149
676.936	-0.0011
677.1197	0.01
677.3034	0.0043
677.487	0.0134
677.6706	0.0149
677.8542	0.0076
678.0378	0.0022
678.2214	0.0094
678.405	0.0197
678.5885	0.0162
678.772	0.009
678.9555	0.0139
679.139	0.0078
679.3225	0.0111
679.5059	0.0051
679.6894	0.0089
679.8728	0.0099
680.0562	0.0045
680.2395	0.0084
680.4229	0.0041
680.6062	0.0006
680.7896	0.009
680.9729	-0.0031
681.1562	0.0121
681.3394	0.0073
681.5227	0.0104
681.7059	-0.0027
681.8891	0.0088
682.0723	0.0017
682.2555	0.0037
682.4387	0.0049
682.6218	0.0072
682.805	0.0154
682.9881	0.0093
683.1712	0.0158
683.3542	0.0082
683.5373	0.0166
683.7203	0.0095
683.9034	0.0121
684.0864	0.002
684.2694	0.0076
684.4523	0.0112
684.6353	0.0094
684.8182	0.013
685.0011	0.0087
685.184	0.0036
685.3669	0.0001
685.5498	0.0079
685.7326	0.0115
685.9154	0.0051
686.0982	0.0139
686.281	0.0065
686.4638	0.0085
686.6465	0.0138
686.8293	0.0113
687.012	0.0096
687.1947	0.0112
687.3774	0.0131
687.56	0.0082
687.7427	0.0183
687.9253	0.0065
688.1079	0.0107
688.2905	0.0022
688.4731	0.011
688.6556	0.0083
688.8382	0.0117
689.0207	0.0052
689.2032	0.0142
689.3857	0.0136
689.5681	0.0076
689.7506	-0.0003
689.933	0.0034
690.1154	0.0065
690.2978	0.0044
690.4802	0.0057
690.6626	0.0087
690.8449	0.0136
691.0272	0.0064
691.2095	0.0097
691.3918	0.0058
691.5741	0.016
691.7563	0.0104
691.9386	0.0052
692.1208	0.002
692.303	0.0026
692.4852	0.0108
692.6673	0.0166
692.8495	0.013
693.0316	0.0185
693.2137	0.006
693.3958	0.0108
693.5778	0.0155
693.7599	0.0153
693.9419	0.0069
694.1239	0.0096
694.3059	0.0174
694.4879	0.0096
694.6699	0.0056
694.8518	0.011
695.0337	0.0015
695.2157	0.0119
695.3975	0.0031
695.5794	0.0062
695.7613	0.0086
695.9431	0.0116
696.1249	0.0084
696.3067	0.0012
696.4885	0.0077
696.6703	0.0069
696.852	0.0039
697.0337	0.0065
697.2154	0.0203
697.3971	0.0132
697.5788	0.0117
697.7605	0.0079
697.9421	0.0025
698.1237	0.0177
698.3053	0.0175
698.4869	0.0119
698.6685	0.0103
698.85	0.0101
699.0315	0.0118
699.213	0.0105
699.3945	0.0039
699.576	0.0143
699.7575	0.0265
699.9389	0.0187
700.1203	0.0174
700.3017	0.0107
700.4831	0.0032
700.6645	0.0075
700.8458	0.0084
701.0271	0.0127
701.2084	-0.001
701.3897	-0.0005
701.571	0.0073
701.7523	0.0014
701.9335	-0.0007
702.1147	0.0038
702.2959	0.0026
702.4771	0.0065
702.6583	-0.0007
702.8394	0.003
703.0205	0.0039
703.2016	0.0051
703.3827	0.0092
703.5638	0.0117
703.7449	0.0023
703.9259	0.0105
704.1069	0.0049
704.2879	0.0056
704.4689	0.0126
704.6499	-0.0081
704.8308	0.0046
705.0117	0.0091
705.1927	0.0096
705.3735	0.0001
705.5544	-0.0035
705.7353	0.0038
705.9161	0.0043
706.0969	0.0123
706.2777	0.0035
706.4585	0.0131
706.6393	0.0062
706.82	-0.0022
707.0007	0.0036
707.1815	0.0048
707.3621	0.0039
707.5428	0.0098
707.7235	0.0013
707.9041	0.0051
708.0847	0.0144
708.2653	0.0123
708.4459	0.0116
708.6265	0.0159
708.807	0.0138
708.9875	0.0177
709.168	0.0192
709.3485	0.0075
709.529	0.0112
709.7095	0.0103
709.8899	0.0128
710.0703	0.0036
710.2507	0.0089
710.4311	0.007
710.6115	0.0078
710.7918	0.0122
710.9721	0.0053
711.1524	0.0049
711.3327	-0.0006
711.513	0.004
711.6932	0.0082
711.8735	0.0033
712.0537	0.0058
712.2339	-0.0029
712.4141	0.0024
712.5942	0.0003
712.7744	0.002
712.9545	0.0009
713.1346	0.0009
713.3147	0.0001
713.4947	-0.0076
713.6748	-0.0018
713.8548	0.0066
714.0348	0.0066
714.2148	-0.0002
714.3948	0.0053
714.5748	0.0092
714.7547	0.0102
714.9346	-0.0021
715.1145	0.0074
715.2944	0.0037
715.4743	0.0078
715.6541	0.0162
715.834	-0.0024
716.0138	0.0185
716.1936	0.0126
716.3733	0.0173
716.5531	0.0134
716.7328	0.007
716.9126	0.0072
717.0923	0.0143
717.2719	0.0141
717.4516	-0.0044
717.6312	0.0046
717.8109	0.0042
717.9905	0.0088
718.1701	-0.0036
718.3496	0.0012
718.5292	-0.0057
718.7087	-0.0059
718.8882	-0.0059
719.0677	-0.0021
719.2472	0.0125
719.4267	0.0077
719.6061	0.0011
719.7856	0.0067
719.965	0.0076
720.1443	0.0064
720.3237	0.0057
720.5031	0.0055
720.6824	0.0037
720.8617	0.0069
721.041	0.0043
721.2203	0.0042
721.3995	0.0087
721.5788	0.0108
721.758	-0.0006
721.9372	0.012
722.1164	0.0079
722.2956	0.0132
722.4747	0.0127
722.6538	-0.0037
722.8329	0.01
723.012	0.0017
723.1911	-0.0015
723.3702	0.005
723.5492	0.0042
723.7282	0.0122
723.9072	0.009
724.0862	0.0129
724.2652	0.0128
724.4441	-0.0047
724.623	0.0123
724.8019	0.0011
724.9808	0.0073
725.1597	0.0113
725.3385	0.0121
725.5174	0.0042
725.6962	0.0009
725.875	0.0042
726.0538	0.0075
726.2325	0.0097
726.4112	0.0084
726.59	0.0067
726.7687	0.0042
726.9474	-0.0045
727.126	0.0043
727.3047	-0.0022
727.4833	0.0042
727.6619	-0.0016
727.8405	0.0027
728.0191	0.0031
728.1976	0.0003
728.3762	0.0069
728.5547	0.0002
728.7332	0.0078
728.9116	-0.0012
729.0901	0.0001
729.2686	-0.0007
729.447	-0.0023
729.6254	0.0023
729.8038	0.0145
729.9821	0.0173
730.1605	0.0074
730.3388	0.0005
730.5171	0.0109
730.6954	-0.0005
730.8737	0.0086
731.0519	0.0015
731.2302	0.0037
731.4084	0.0061
731.5866	-0.0047
731.7648	0.0056
731.9429	-0.0013
732.1211	-0.0001
732.2992	0.0004
732.4773	-0.003
732.6554	-0.0048
732.8335	0.0004
733.0115	0.0036
733.1896	0.0038
733.3676	-0.0024
733.5456	-0.0035
733.7235	-0.0019
733.9015	0.0107
734.0794	-0.0016
734.2574	0.0031
734.4353	0.0015
734.6131	0.0055
734.791	0.0071
734.9689	0.0098
735.1467	0.0001
735.3245	-0.0036
735.5023	0.0044
735.68	0.0159
735.8578	0.0144
736.0355	0.0009
736.2132	0.0025
736.3909	0.0089
736.5686	0.0159
736.7463	0.0164
736.9239	0.0137
737.1015	0.0145
737.2791	0.0145
737.4567	0.002
737.6343	0.006
737.8118	0.004
737.9894	0.0011
738.1669	0.0071
738.3444	0.0042
738.5218	0.0087
738.6993	-0.0038
738.8767	0.0076
739.0541	0.0063
739.2315	0.0079
739.4089	0.0117
739.5863	0.0108
739.7636	0.0024
739.9409	0.0038
740.1182	0.0007
740.2955	0.0117
740.4728	0.0108
740.65	-0.0032
740.8272	-0.0046
741.0044	-0.0025
741.1816	0.0115
741.3588	0.0046
741.5359	0.0095
741.7131	0.0119
741.8902	0.0042
742.0673	0.0091
742.2444	-0.004
742.4214	-0.001
742.5985	0.0111
742.7755	0.001
742.9525	0.0067
743.1295	0.0079
743.3064	0.0004
743.4834	0.005
743.6603	-0.0008
743.8372	-0.0025
744.0141	0.0067
744.191	0.0071
744.3678	0.0002
744.5446	-0.0055
744.7215	0.0158
744.8982	0.012
745.075	0.0054
745.2518	-0.0099
745.4285	0.0055
745.6052	0.0035
745.7819	-0.0078
745.9586	-0.0017
746.1353	-0.0017
746.3119	0.0027
746.4885	0.0011
746.6651	-0.0001
746.8417	0.0034
747.0183	0.002
747.1948	0.0053
747.3714	0.0113
747.5479	0.0032
747.7244	0.0033
747.9008	0.0031
748.0773	0.0038
748.2537	0.0092
748.4301	-0.0027
748.6065	0.0027
748.7829	0.0007
748.9593	0.0059
749.1356	-0.003
749.3119	0.0118
749.4882	0.0062
749.6645	0.0065
749.8408	0.008
750.017	0.0096
750.1933	0.018
750.3695	0.0132
750.5457	0.0106
750.7218	0.0123
750.898	0.0195
751.0741	0.0105
751.2502	0.0218
751.4263	0.0083
751.6024	0.0141
751.7784	0.0101
751.9545	0.0121
752.1305	0.0085
752.3065	0.0095
752.4825	0.0187
752.6584	0.0158
752.8344	0.0131
753.0103	0.0055
753.1862	0.0094
753.3621	-0.0017
753.5379	-0.0021
753.7138	0.0058
753.8896	0.0073
754.0654	0.0045
754.2412	0.0078
754.417	0
754.5927	0.012
754.7685	0.0045
754.9442	0.0035
755.1199	0.0229
755.2956	0.0036
755.4712	0.0005
755.6469	0.0121
755.8225	0.0085
755.9981	0.0081
756.1736	-0.0021
756.3492	0.0078
756.5248	0.0126
756.7003	0.0011
756.8758	0.023
757.0513	0.004
757.2267	0.0037
757.4022	0.0062
757.5776	0.0125
757.753	0.0083
757.9284	0.0102
758.1038	-0.0032
758.2791	0.0137
758.4545	0.0104
758.6298	0.0027
758.8051	0.002
758.9803	0.013
759.1556	0.0056
759.3308	0.0069
759.506	0.0174
759.6812	0.001
759.8564	0.0055
760.0316	0.0119
760.2067	0.002
760.3819	0.0057
760.557	0.0004
760.732	0.0016
760.9071	0.0165
761.0821	0.0202
761.2572	0.0082
761.4322	0.0003
761.6072	0.0039
761.7821	0.0065
761.9571	0.0024
762.132	0.0014
762.3069	0.0121
762.4818	0.0062
762.6567	-0.0015
762.8316	0.0113
763.0064	-0.0072
763.1812	0.0174
763.356	0.0105
763.5308	0.0019
763.7055	0.0044
763.8803	0.0104
764.055	0.0048
764.2297	0.007
764.4044	0.0107
764.579	0.0099
764.7537	-0.0036
764.9283	0.0107
765.1029	0.0065
765.2775	-0.0012
765.4521	-0.001
765.6266	0.0056
765.8011	0.0096
765.9756	0.0069
766.1501	0.0108
766.3246	0.001
766.4991	0.0045
766.6735	-0.0005
766.8479	0.0104
767.0223	-0.0034
767.1967	0.0138
767.371	0.0184
767.5454	-0.0019
767.7197	0.0122
767.894	0.0172
768.0683	0.0097
768.2425	0.015
768.4168	-0.0011
768.591	0.0108
768.7652	0.0085
768.9394	0.0059
769.1135	0.0071
769.2877	0.0037
769.4618	0.0046
769.6359	0.0134
769.81	0.0075
769.984	0.0079
770.1581	0.0016
770.3321	0.0223
770.5061	0.0045
770.6801	-0.0049
770.8541	0.0081
771.028	0.0087
771.202	-0.0014
771.3759	0.0046
771.5498	0.0121
771.7236	0.0026
771.8975	0.0053
772.0713	0.0104
772.2451	0.0073
772.4189	-0.0042
772.5927	-0.0055
772.7665	-0.0005
772.9402	0.0103
773.1139	0.0067
773.2876	-0.0088
773.4613	0.0078
773.635	0.0038
773.8086	-0.003
773.9822	0.0095
774.1558	0.0141
774.3294	0.0027
774.503	-0.0035
774.6765	0.0144
774.8501	-0.0001
775.0236	0.0071
775.1971	0.0094
775.3705	0.0157
775.544	0.0165
775.7174	0.0029
775.8908	0.0153
776.0642	0.0068
776.2376	0.0049
776.4109	0.0139
776.5843	0.0076
776.7576	-0.0043
776.9309	0.0196
777.1041	0.0038
777.2774	0.0044
777.4506	0.0109
777.6238	0.0036
777.797	0.0133
777.9702	0.015
778.1434	0.005
778.3165	-0.0009
778.4896	0.013
778.6627	0.0022
778.8358	-0.0012
779.0089	0.0126
779.1819	-0.0091
779.3549	0.0049
779.5279	0.004
779.7009	-0.0001
779.8739	0.0064
780.0468	0.0029
780.2197	0.0129
780.3926	0.0005
780.5655	-0.0028
780.7384	0.0029
780.9112	0.0144
781.0841	-0.0093
781.2569	0.0093
781.4297	-0.013
781.6024	-0.002
781.7752	-0.0002
781.9479	0.001
782.1206	0.0004
782.2933	0.0137
782.466	-0.0048
782.6386	0.0171
782.8113	-0.0112
782.9839	0.0145
783.1565	0.0091
783.329	0.0039
783.5016	-0.0022
783.6741	0.0032
783.8466	0.009
784.0191	-0.0008
784.1916	0.0052
784.3641	0.0002
784.5365	0.0102
784.7089	0.0036
784.8813	0.0128
785.0537	-0.0088
785.2261	0.0028
785.3984	-0.0004
785.5707	0.014
785.743	0.015
785.9153	-0.003
786.0876	0.007
786.2598	0.0007
786.432	0.0189
786.6042	0.0098
786.7764	0.0098
786.9486	0.0092
787.1207	0.0097
787.2928	0.0063
787.4649	0.0042
787.637	-0.0098
787.8091	-0.0006
787.9811	-0.0041
788.1532	0.0046
788.3252	0.0034
788.4972	-0.0015
788.6691	0.0072
788.8411	-0.0046
789.013	0.0055
789.1849	0.0102
789.3568	0.0174
789.5287	-0.001
789.7005	0.0019
789.8723	0.0069
790.0442	-0.0016
790.2159	0.0064
790.3877	0.016
790.5595	0.0125
790.7312	-0.0088
790.9029	0.0041
791.0746	0.0047
791.2463	0.0196
791.4179	0.0053
791.5896	0.0096
791.7612	0.0207
791.9328	0.004
792.1044	0.0189
792.2759	0.0011
792.4474	0.0177
792.619	0.0215
792.7905	0.0213
792.9619	0.009
793.1334	0.0227
793.3048	0.0085
793.4762	0.0196
793.6476	0.0013
793.819	0.0136
793.9904	0.0236
794.1617	-0.0006
794.333	0.0023
794.5043	0.0139
794.6756	-0.0054
794.8469	0.0052
795.0181	0.0144
795.1893	0
795.3605	0.004
795.5317	-0.0001
795.7029	0.0229
795.874	0.0075
796.0452	0.0096
796.2163	0.0042
796.3873	0.0105
796.5584	0.0168
796.7294	0.011
796.9005	0.0131
797.0715	0.003
797.2425	0.0018
797.4134	0.0081
797.5844	-0.0015
797.7553	0.0115
797.9262	0.0102
798.0971	0.0033
798.2679	0.0072
798.4388	0.0008
798.6096	-0.0202
798.7804	0.0035
798.9512	0.0074
799.122	0.02
799.2927	0.0174
799.4635	0.0103
799.6342	0.0231
799.8049	0.0067
799.9755	0.0206
800.1462	0.0111
800.3168	0.0114
800.4874	0.0112
800.658	0.0067
800.8286	0.0102
800.9991	0.0077
801.1696	0.007
801.3402	0.009
801.5106	0.0084
801.6811	-0.0026
801.8516	-0.0013
802.022	0.0004
802.1924	0.0074
802.3628	0.0098
802.5332	0.0113
802.7035	-0.0104
802.8739	0.0014
803.0442	0.0146
803.2145	0.0152
803.3847	-0.0024
803.555	0.0053
803.7252	0.0286
803.8954	0.0055
804.0656	-0.0068
804.2358	0.0079
804.4059	0.0251
804.5761	0.0025
804.7462	0.0047
804.9163	0.0105
805.0864	-0.0161
805.2564	0.0078
805.4264	0.0064
805.5965	0.0007
805.7665	0.0203
805.9364	-0.0221
806.1064	0.0218
806.2763	0.0172
806.4462	0.0232
806.6161	0.0075
806.786	0.0123
806.9559	0.0217
807.1257	0.0149
807.2955	0.01
807.4653	0.0304
807.6351	0.0235
807.8048	0.0031
807.9746	0.0254
808.1443	0.0083
808.314	0.0167
808.4837	0.0527
808.6533	0.0027
808.8229	0.0234
808.9926	0.0169
809.1622	0.015
809.3317	0.026
809.5013	0.0299
809.6708	0.0179
809.8403	0.0134
810.0098	0.0092
810.1793	0.0033
810.3488	-0.0109
810.5182	0.026
810.6876	0.0099
810.857	0.0246
811.0264	0.0078
811.1958	0.004
811.3651	0.0031
811.5344	0.0287
811.7037	0.0129
811.873	0.0132
812.0422	-0.0044
812.2115	0.0193
812.3807	0.009
812.5499	-0.0017
812.7191	0.0107
812.8882	-0.0072
813.0574	-0.0094
813.2265	0.0332
813.3956	0.004
813.5646	-0.0002
813.7337	0.0075
813.9027	0.0135
814.0718	0.0263
814.2407	0.0093
814.4097	0.0143
814.5787	0.0051
814.7476	0.0083
814.9165	-0.0082
815.0854	0.0043
815.2543	0.0133
815.4232	0.0093
815.592	-0.0031
815.7608	0.0298
815.9296	0.0001
816.0984	-0.0107
816.2671	-0.0109
816.4359	-0.0132
816.6046	0.0024
816.7733	-0.0159
816.942	0.0192
817.1106	-0.0136
817.2793	0.0144
817.4479	-0.0025
817.6165	0.0091
817.785	-0.0038
817.9536	-0.0039
818.1221	-0.0048
818.2906	0.0001
818.4591	0.0053
818.6276	0.0179
818.7961	0.0234
818.9645	-0.0056
819.1329	0.03
819.3013	0.0023
819.4697	0.0515
819.638	-0.0248
819.8064	0.0081
819.9747	-0.0079
820.143	-0.0183
820.3113	-0.0159
820.4795	-0.016
820.6477	-0.0073
820.816	-0.0259
820.9842	0.0011
821.1523	0.0133
821.3205	-0.0087
821.4886	-0.0241
821.6567	-0.0009
821.8248	0.0099
821.9929	0.0088
822.1609	-0.0128
822.329	0.0116
822.497	0.004
822.665	-0.0055
822.833	-0.0161
823.0009	-0.0159
823.1688	-0.0013
823.3367	0.0045
823.5046	-0.0125
823.6725	-0.0288
823.8404	-0.0181
824.0082	0.0039
824.176	0.0328
824.3438	0.0267
824.5116	-0.0079
824.6793	-0.0214
824.847	0.0373
825.0147	0.0207
825.1824	-0.0056
825.3501	-0.0024
825.5177	-0.0115
825.6854	-0.0052
825.853	0.0233
826.0206	0.0216
826.1881	0.0133
826.3557	0.0162
826.5232	-0.0023
826.6907	-0.0025
826.8582	0.0268
827.0257	0.0266
827.1931	0.0037
827.3605	0.0009
827.528	0.0264
827.6953	0.0362
827.8627	-0.0064
828.03	0.0359
828.1974	0.0455
828.3647	0.0104
828.532	-0.0111
828.6992	0.0037
828.8665	0.0067
829.0337	0.0285
829.2009	0.0011
829.3681	0.0108
829.5352	0.0057
829.7024	0.0244
829.8695	0.0177
830.0366	0.0208
830.2037	0.0036
830.3707	0.0269
830.5378	-0.0214
830.7048	0.0116
830.8718	-0.0278
831.0388	-0.0252
831.2057	0.0032
831.3727	0.0309
831.5396	0.0107
831.7065	-0.0209
831.8734	0.0174
832.0402	-0.0194
832.2071	-0.0172
832.3739	-0.0016
832.5407	0.0196
832.7075	-0.0201
832.8742	-0.0083
833.041	-0.033
833.2077	-0.0158
833.3744	0.0393
833.541	0.0128
833.7077	0.0273
833.8743	0.035
834.0409	0.0234
834.2075	0.0374
834.3741	0.0287
834.5407	-0.006
834.7072	0.0071
834.8737	-0.0029
835.0402	-0.001
835.2067	-0.0264
835.3731	-0.0102
835.5395	-0.0131
835.706	0.023
835.8723	-0.0401
836.0387	0.0252
836.2051	-0.0121
836.3714	-0.0542
836.5377	-0.0151
836.704	-0.0257
836.8703	-0.0094
837.0365	-0.0285
837.2027	0.0029
837.3689	0.0119
837.5351	-0.0026
837.7013	-0.0257
837.8674	0.0035
838.0335	-0.0121
838.1997	-0.0612
838.3657	-0.0019
838.5318	0.0181
838.6978	-0.0006
838.8639	-0.0724
839.0299	0.028
839.1958	0.001
839.3618	0.0026
839.5277	0.014
839.6937	-0.0149
839.8596	-0.0121
840.0254	-0.0053
840.1913	0.0076
840.3571	0.003
840.523	0.0377
840.6888	-0.0151
840.8545	-0.0037
841.0203	0.0313
841.186	0.0702
841.3517	-0.0039
841.5174	-0.0132
841.6831	0.0255
841.8488	0.0354
842.0144	0.0826
842.18	-0.0275
842.3456	0.0201
842.5112	-0.0049
842.6767	0.0377
842.8422	-0.0175
843.0077	-0.0165
843.1732	-0.0223
843.3387	-0.0231
843.5042	0.0082
843.6696	-0.0173
843.835	0.013
844.0004	-0.0616
844.1657	0.0013
844.3311	0.0086
844.4964	-0.0246
844.6617	-0.05
844.827	0.017
844.9923	0.0107
845.1575	0.0523
845.3227	0.0306
845.4879	-0.0199
845.6531	-0.0028
845.8183	-0.0184
845.9834	0.0783
846.1485	-0.0414
846.3136	0.0312
846.4787	0.0438
846.6438	0.0269
846.8088	-0.0195
846.9738	-0.0624
847.1388	-0.0158
847.3038	-0.0084
847.4687	0.0362
847.6337	-0.0576
847.7986	0.0533
847.9635	0.0187
848.1284	0.0336
848.2932	0.0252
848.458	0.0382
848.6228	0.0655
848.7876	-0.0191
848.9524	-0.0113
849.1172	0.0387
849.2819	-0.0052
849.4466	-0.0113
849.6113	0.018
849.7759	0.0039
849.9406	0.0984
850.1052	-0.0967
850.2698	0.0339
850.4344	-0.0496
850.599	-0.0076
850.7635	-0.009
850.928	-0.1162
851.0925	0.0218
851.257	0.0655
851.4215	-0.0789
851.5859	0.095
851.7503	-0.1108
851.9147	0.0178
852.0791	0.0554
852.2434	0.0187
852.4078	-0.1248
852.5721	0.1496
852.7364	-0.0592
852.9007	-0.14
853.0649	-0.0304
853.2291	0.0713
853.3934	0.0205
853.5575	0.0029
853.7217	-0.0121
853.8859	-0.0521
854.05	0.0537
854.2141	-0.0135
854.3782	-0.0595
854.5423	0.0707
854.7063	0.0136
854.8703	-0.0263
855.0343	0.0387
855.1983	-0.1216
855.3623	-0.0545
855.5262	0.0093
855.6901	-0.117
855.854	0.0158
856.0179	0.0275
856.1818	-0.0093
856.3456	-0.0507
856.5094	0.0125
856.6732	-0.1129
856.837	0.0163
857.0008	-0.359
857.1645	-0.0192
857.3282	0.2589
857.4919	-0.0267
857.6556	-0.0959
857.8192	-0.0353
857.9828	0.0108
858.1465	-0.0302
858.31	0.0709
858.4736	0.0612
858.6372	-0.2388
858.8007	-0.3378
858.9642	0.0613
859.1277	-0.0863
859.2911	-0.0484
859.4546	-0.0742
859.618	-0.4542
859.7814	0.014
859.9448	-0.1318
860.1081	-0.0663
860.2715	0.0536
860.4348	0.1284
860.5981	0.0191
860.7614	-0.1096
860.9246	0.1191
861.0879	-0.0442
861.2511	0.1283
861.4143	-0.2276
861.5774	-0.1853
861.7406	-0.0063
861.9037	-0.2344
862.0668	-0.0589
862.2299	0.1447
862.393	0.2402
862.556	0.2391
862.7191	0.0935
862.8821	-0.319
863.0451	-0.1445
863.208	0.2749
863.371	-0.5082
863.5339	0.0462
863.6968	0.1302
863.8597	-0.1157
864.0225	0.1986
864.1854	-0.1154
864.3482	-0.035
864.511	-0.1123
864.6737	0.0139
864.8365	0.1492
864.9992	-0.0041
865.1619	-0.2306
865.3246	0.2517
865.4873	-0.187
865.65	-0.3352
865.8126	-0.215
865.9752	0.3142
866.1378	0.0663
866.3004	-0
866.4629	0.1359
866.6254	-0.3029
866.7879	0.106
866.9504	0.247
867.1129	0.1524
867.2753	0.2534
867.4377	-0.2388
867.6001	-0.149
867.7625	-0.1552
867.9249	-0.3031
868.0872	0.2791
868.2495	-0.0837
868.4118	0.113
868.5741	0.1725
868.7363	0.4988
868.8986	-0.198
869.0608	-0.116
869.223	-0.077
869.3851	-0.0565
869.5473	-0.1962
869.7094	-0.1673
869.8715	-0
870.0336	-0
870.1957	0.0808
870.3577	0.1359
870.5197	-0.3293
870.6817	2.016
870.8437	0.4171
871.0057	-0
871.1676	-0.1434
871.3295	-1.3101
871.4914	-0.0706
871.6533	0.313
871.8151	-0.2098
871.977	-0.2707
872.1388	-0
872.3006	0.3005
872.4623	-0.251
872.6241	-0.5875
872.7858	-0.182
872.9475	-0.1566
873.1092	-0.0264
873.2709	-0
873.4325	-0
873.5941	0.0457
873.7557	-0.3531
873.9173	-0.098
874.0789	-0
874.2404	0.38
874.4019	-0
874.5634	-0.1888
874.7249	1.3297
874.8863	-0.1897
875.0478	0.3002
875.2092	-0.3112
875.3706	-0.2021
875.5319	-0
875.6933	-0
875.8546	-0.0249
876.0159	0.5764
876.1772	-0
876.3385	-0.4565
876.4997	-0
876.6609	-0
876.8221	-0.6804
876.9833	-0.4906
877.1445	0.3844
877.3056	-0.1937
877.4667	0.0135
877.6278	-0
877.7889	-0.0817
877.9499	0.049
878.111	-0.6148
878.272	-0.06
878.433	0.1908
878.5939	-0
878.7549	-0.065
878.9158	-0.0265
879.0767	-0.1473
879.2376	0.3141
879.3984	-0
879.5593	-0.3524
879.7201	0.483
879.8809	-0
880.0417	-0.0086
880.2024	-0
880.3632	0.4379
880.5239	-0
880.6846	-0.3909
880.8452	1.9332
881.0059	-0.3379
881.1665	0.4379
881.3271	-0.3959
881.4877	-0
881.6483	-0.0801
881.8088	-0.2791
881.9693	-0.4524
882.1298	-0.4524
882.2903	-0.4524
