Data from MonoPyChalIsomerACN10uM400nmA_Absorbance_12-08-41-728.txt Node
Date: Fri Jul 05 12:08:41 BST 2024
User: LASERRRRR
Spectrometer: FLMT03099
Trigger mode: 0
Integration Time (sec): 1.000000E-1
Scans to average: 1
Electric dark correction enabled: true
Nonlinearity correction enabled: false
Boxcar width: 0
XAxis mode: Wavelengths
Number of Pixels in Spectrum: 3648
>>>>>Begin Spectral Data<<<<<
179.3399	1.4128
179.5586	1.4128
179.7771	1.4128
179.9957	0.549
180.2143	-0.3074
180.4329	-0
180.6514	0.0446
180.8699	-0.1112
181.0885	0.0753
181.307	-0.1155
181.5255	-0.6291
181.744	-0
181.9625	-0.9928
182.181	-0.0357
182.3994	-0.3149
182.6179	0.7992
182.8363	-0.0656
183.0547	0.1236
183.2732	0.5818
183.4916	0.1148
183.71	0.221
183.9284	0.0066
184.1467	-0.0113
184.3651	-0.0543
184.5835	0.075
184.8018	0.0209
185.0201	0.2605
185.2385	0.12
185.4568	0.139
185.6751	0.1734
185.8934	-0.0421
186.1117	0.3397
186.3299	0.0235
186.5482	0.2305
186.7664	0.1214
186.9847	0.1748
187.2029	0.623
187.4211	-0.3596
187.6393	-0.1517
187.8575	0.325
188.0757	0.3212
188.2939	0.0373
188.512	-0.0139
188.7302	0.7356
188.9483	0.2186
189.1665	0.215
189.3846	0.1177
189.6027	0.1703
189.8208	0.0913
190.0389	0.1719
190.257	0.2722
190.475	0.2192
190.6931	0.2666
190.9111	0.3497
191.1292	0.4432
191.3472	0.4502
191.5652	0.3051
191.7832	0.8305
192.0012	0.3419
192.2192	0.4503
192.4371	0.5419
192.6551	0.482
192.873	0.45
193.091	0.4419
193.3089	0.4035
193.5268	0.684
193.7447	0.4388
193.9626	0.4365
194.1805	0.5221
194.3984	0.4412
194.6162	0.5993
194.8341	0.7673
195.0519	0.6963
195.2697	0.5975
195.4875	0.6732
195.7054	0.5725
195.9231	0.5107
196.1409	0.5422
196.3587	0.6009
196.5765	0.5803
196.7942	0.5885
197.012	0.6343
197.2297	0.7642
197.4474	0.7104
197.6651	0.657
197.8828	0.6712
198.1005	0.7129
198.3182	0.8163
198.5358	0.8205
198.7535	0.9113
198.9711	0.623
199.1888	0.9089
199.4064	0.8913
199.624	0.813
199.8416	0.8438
200.0592	0.9058
200.2767	0.6946
200.4943	0.7417
200.7119	0.6776
200.9294	0.856
201.1469	0.857
201.3645	0.7441
201.582	0.9339
201.7995	0.7525
202.017	0.7203
202.2344	0.7398
202.4519	0.8205
202.6694	0.7988
202.8868	0.8971
203.1042	0.7733
203.3217	0.6827
203.5391	0.783
203.7565	0.77
203.9739	0.7017
204.1913	1.1148
204.4086	0.8406
204.626	0.7924
204.8433	1.084
205.0607	0.8617
205.278	0.8299
205.4953	0.7338
205.7126	0.7183
205.9299	0.9274
206.1472	0.6841
206.3644	0.7402
206.5817	0.8953
206.7989	0.7214
207.0162	0.9466
207.2334	0.8607
207.4506	0.7527
207.6678	0.8358
207.885	0.7181
208.1022	0.7268
208.3194	0.8806
208.5365	0.7439
208.7537	0.8701
208.9708	0.733
209.1879	0.7942
209.405	0.655
209.6222	0.8485
209.8392	0.7865
210.0563	0.7434
210.2734	0.7199
210.4905	0.7957
210.7075	0.7673
210.9245	0.802
211.1416	0.7729
211.3586	0.8241
211.5756	0.7972
211.7926	0.7342
212.0096	0.6125
212.2265	0.7116
212.4435	0.7298
212.6604	0.8209
212.8774	0.8229
213.0943	0.7668
213.3112	0.7361
213.5281	0.6598
213.745	0.7241
213.9619	0.701
214.1788	0.7301
214.3956	0.671
214.6125	0.6254
214.8293	0.809
215.0461	0.65
215.2629	0.7091
215.4798	0.6381
215.6965	0.697
215.9133	0.6745
216.1301	0.5884
216.3469	0.6085
216.5636	0.6143
216.7803	0.6048
216.9971	0.6329
217.2138	0.6588
217.4305	0.6376
217.6472	0.623
217.8639	0.6538
218.0805	0.5761
218.2972	0.584
218.5138	0.598
218.7305	0.582
218.9471	0.587
219.1637	0.6027
219.3803	0.5482
219.5969	0.612
219.8135	0.611
220.0301	0.571
220.2466	0.5716
220.4632	0.5733
220.6797	0.5815
220.8962	0.5877
221.1127	0.5287
221.3292	0.5379
221.5457	0.611
221.7622	0.5409
221.9787	0.5239
222.1951	0.5312
222.4116	0.562
222.628	0.5736
222.8444	0.5701
223.0608	0.5821
223.2772	0.5555
223.4936	0.5461
223.71	0.5778
223.9264	0.5562
224.1427	0.5393
224.3591	0.5569
224.5754	0.561
224.7917	0.5205
225.008	0.6216
225.2243	0.5153
225.4406	0.5794
225.6569	0.5554
225.8732	0.6035
226.0894	0.5887
226.3057	0.5668
226.5219	0.5711
226.7381	0.5929
226.9543	0.5636
227.1705	0.5707
227.3867	0.5844
227.6029	0.544
227.8191	0.5443
228.0352	0.5898
228.2513	0.5687
228.4675	0.573
228.6836	0.5719
228.8997	0.5747
229.1158	0.5526
229.3319	0.5857
229.548	0.5767
229.764	0.5867
229.9801	0.5876
230.1961	0.6023
230.4121	0.5855
230.6282	0.5828
230.8442	0.5981
231.0602	0.5723
231.2761	0.5803
231.4921	0.5893
231.7081	0.5485
231.924	0.5879
232.14	0.582
232.3559	0.6036
232.5718	0.6253
232.7877	0.5607
233.0036	0.5643
233.2195	0.5734
233.4353	0.5857
233.6512	0.5564
233.867	0.5798
234.0829	0.5652
234.2987	0.6145
234.5145	0.5687
234.7303	0.5903
234.9461	0.5682
235.1619	0.5582
235.3776	0.5829
235.5934	0.5701
235.8091	0.5655
236.0249	0.534
236.2406	0.5357
236.4563	0.5837
236.672	0.5595
236.8877	0.5598
237.1034	0.5471
237.319	0.5455
237.5347	0.5476
237.7503	0.5364
237.966	0.5447
238.1816	0.588
238.3972	0.5697
238.6128	0.5509
238.8284	0.5418
239.0439	0.5556
239.2595	0.5569
239.475	0.5635
239.6906	0.5477
239.9061	0.5332
240.1216	0.5391
240.3371	0.5079
240.5526	0.535
240.7681	0.5341
240.9836	0.5169
241.199	0.4891
241.4145	0.51
241.6299	0.4836
241.8453	0.4675
242.0607	0.5008
242.2761	0.4873
242.4915	0.464
242.7069	0.4451
242.9223	0.4455
243.1376	0.4345
243.353	0.4449
243.5683	0.4464
243.7836	0.4157
243.9989	0.4257
244.2142	0.3994
244.4295	0.3895
244.6448	0.375
244.86	0.3873
245.0753	0.3816
245.2905	0.3652
245.5057	0.366
245.721	0.3461
245.9362	0.3511
246.1514	0.3281
246.3665	0.3331
246.5817	0.3329
246.7969	0.3366
247.012	0.3044
247.2271	0.3147
247.4423	0.2869
247.6574	0.3032
247.8725	0.2976
248.0876	0.2911
248.3026	0.2769
248.5177	0.2924
248.7328	0.2745
248.9478	0.2852
249.1628	0.2613
249.3779	0.254
249.5929	0.2596
249.8079	0.2445
250.0228	0.2538
250.2378	0.2601
250.4528	0.2467
250.6677	0.2409
250.8827	0.2322
251.0976	0.2325
251.3125	0.2313
251.5274	0.2318
251.7423	0.2238
251.9572	0.2293
252.172	0.2175
252.3869	0.2236
252.6017	0.2404
252.8166	0.2104
253.0314	0.211
253.2462	0.2148
253.461	0.2098
253.6758	0.21
253.8906	0.2182
254.1053	0.1989
254.3201	0.2033
254.5348	0.1978
254.7496	0.2134
254.9643	0.2088
255.179	0.1884
255.3937	0.2162
255.6083	0.1817
255.823	0.1864
256.0377	0.1971
256.2523	0.209
256.467	0.1951
256.6816	0.1908
256.8962	0.1872
257.1108	0.1999
257.3254	0.1916
257.54	0.1938
257.7545	0.2073
257.9691	0.2049
258.1836	0.1884
258.3981	0.1776
258.6127	0.1937
258.8272	0.1905
259.0417	0.1886
259.2561	0.1929
259.4706	0.1798
259.6851	0.1866
259.8995	0.197
260.114	0.1751
260.3284	0.1896
260.5428	0.1862
260.7572	0.1853
260.9716	0.1843
261.186	0.1922
261.4003	0.1845
261.6147	0.2006
261.829	0.2096
262.0433	0.1762
262.2577	0.1956
262.472	0.1845
262.6863	0.1943
262.9005	0.1857
263.1148	0.1898
263.3291	0.1875
263.5433	0.1794
263.7576	0.1906
263.9718	0.1748
264.186	0.1835
264.4002	0.1893
264.6144	0.1849
264.8286	0.1905
265.0427	0.1959
265.2569	0.1941
265.471	0.1809
265.6851	0.1686
265.8993	0.1827
266.1134	0.1757
266.3275	0.1746
266.5415	0.1795
266.7556	0.1803
266.9697	0.1851
267.1837	0.1894
267.3978	0.1907
267.6118	0.1888
267.8258	0.2065
268.0398	0.1891
268.2538	0.1891
268.4677	0.194
268.6817	0.1907
268.8957	0.1924
269.1096	0.18
269.3235	0.1868
269.5374	0.176
269.7514	0.1672
269.9652	0.1783
270.1791	0.1703
270.393	0.1737
270.6068	0.1796
270.8207	0.1853
271.0345	0.1699
271.2483	0.1721
271.4622	0.1721
271.676	0.1741
271.8897	0.18
272.1035	0.1698
272.3173	0.174
272.531	0.1637
272.7448	0.1711
272.9585	0.1633
273.1722	0.1789
273.3859	0.1657
273.5996	0.1675
273.8133	0.1705
274.0269	0.1822
274.2406	0.1665
274.4542	0.1746
274.6679	0.1691
274.8815	0.166
275.0951	0.1695
275.3087	0.1734
275.5223	0.1669
275.7358	0.1773
275.9494	0.1709
276.1629	0.1594
276.3765	0.1627
276.59	0.1651
276.8035	0.175
277.017	0.1669
277.2305	0.1727
277.444	0.175
277.6574	0.1734
277.8709	0.1658
278.0843	0.1812
278.2978	0.1678
278.5112	0.1747
278.7246	0.1679
278.938	0.1694
279.1513	0.1856
279.3647	0.1594
279.5781	0.1791
279.7914	0.1819
280.0047	0.1801
280.2181	0.1795
280.4314	0.1799
280.6447	0.18
280.8579	0.1839
281.0712	0.1907
281.2845	0.1909
281.4977	0.1934
281.711	0.182
281.9242	0.175
282.1374	0.1789
282.3506	0.178
282.5638	0.1728
282.7769	0.1821
282.9901	0.1861
283.2033	0.1765
283.4164	0.1777
283.6295	0.1761
283.8426	0.1787
284.0557	0.1792
284.2688	0.1754
284.4819	0.1801
284.695	0.176
284.908	0.19
285.1211	0.1777
285.3341	0.1782
285.5471	0.1826
285.7601	0.1787
285.9731	0.1922
286.1861	0.1825
286.3991	0.1781
286.612	0.1887
286.825	0.1778
287.0379	0.1859
287.2508	0.1818
287.4637	0.177
287.6766	0.1747
287.8895	0.1772
288.1024	0.1766
288.3152	0.1924
288.5281	0.1834
288.7409	0.1837
288.9538	0.1938
289.1666	0.1937
289.3794	0.1826
289.5922	0.1877
289.8049	0.1768
290.0177	0.1768
290.2304	0.1836
290.4432	0.1741
290.6559	0.1863
290.8686	0.1914
291.0813	0.1963
291.294	0.1999
291.5067	0.192
291.7194	0.1819
291.932	0.2095
292.1447	0.1996
292.3573	0.1915
292.5699	0.1864
292.7825	0.1743
292.9951	0.207
293.2077	0.1894
293.4203	0.1962
293.6328	0.1892
293.8454	0.1938
294.0579	0.1867
294.2704	0.1853
294.4829	0.1907
294.6954	0.1952
294.9079	0.1805
295.1204	0.1813
295.3328	0.18
295.5453	0.1801
295.7577	0.186
295.9701	0.1746
296.1825	0.1866
296.3949	0.1765
296.6073	0.1766
296.8197	0.1813
297.0321	0.1755
297.2444	0.1672
297.4567	0.1897
297.6691	0.1839
297.8814	0.1991
298.0937	0.1819
298.306	0.179
298.5182	0.1818
298.7305	0.1873
298.9428	0.1823
299.155	0.1755
299.3672	0.1655
299.5794	0.1836
299.7916	0.1774
300.0038	0.1742
300.216	0.1695
300.4282	0.1757
300.6403	0.1915
300.8525	0.1852
301.0646	0.1764
301.2767	0.1864
301.4888	0.1848
301.7009	0.1839
301.913	0.1867
302.125	0.1892
302.3371	0.1792
302.5491	0.1788
302.7612	0.1727
302.9732	0.1702
303.1852	0.1801
303.3972	0.1701
303.6092	0.1774
303.8211	0.1788
304.0331	0.1713
304.245	0.1694
304.457	0.1649
304.6689	0.1709
304.8808	0.1703
305.0927	0.1614
305.3046	0.1654
305.5164	0.1814
305.7283	0.1511
305.9401	0.1559
306.152	0.1612
306.3638	0.1517
306.5756	0.1565
306.7874	0.1593
306.9992	0.1539
307.2109	0.159
307.4227	0.1505
307.6344	0.1565
307.8462	0.1405
308.0579	0.1491
308.2696	0.1578
308.4813	0.1426
308.693	0.1443
308.9046	0.1429
309.1163	0.1376
309.328	0.1281
309.5396	0.145
309.7512	0.1289
309.9628	0.1281
310.1744	0.1252
310.386	0.1347
310.5976	0.1361
310.8091	0.1289
311.0207	0.1205
311.2322	0.1155
311.4437	0.1269
311.6552	0.1268
311.8667	0.113
312.0782	0.1203
312.2897	0.1095
312.5012	0.1048
312.7126	0.1213
312.924	0.1142
313.1355	0.1197
313.3469	0.1225
313.5583	0.1127
313.7696	0.1114
313.981	0.1236
314.1924	0.1137
314.4037	0.1098
314.6151	0.1108
314.8264	0.1192
315.0377	0.12
315.249	0.1014
315.4603	0.1056
315.6716	0.1128
315.8828	0.0963
316.0941	0.094
316.3053	0.1041
316.5165	0.1047
316.7277	0.0985
316.9389	0.1149
317.1501	0.1034
317.3613	0.0837
317.5724	0.1089
317.7836	0.1115
317.9947	0.1118
318.2058	0.0912
318.417	0.0964
318.6281	0.1043
318.8391	0.1061
319.0502	0.0933
319.2613	0.0959
319.4723	0.103
319.6834	0.0965
319.8944	0.0963
320.1054	0.1078
320.3164	0.0987
320.5274	0.1006
320.7383	0.0999
320.9493	0.097
321.1602	0.0998
321.3712	0.1012
321.5821	0.0983
321.793	0.1017
322.0039	0.1042
322.2148	0.101
322.4257	0.0935
322.6365	0.0968
322.8474	0.0992
323.0582	0.1098
323.269	0.0986
323.4798	0.1147
323.6906	0.0816
323.9014	0.111
324.1122	0.1091
324.3229	0.105
324.5337	0.1052
324.7444	0.1142
324.9551	0.1113
325.1658	0.1105
325.3765	0.121
325.5872	0.0958
325.7979	0.1037
326.0085	0.0929
326.2192	0.0879
326.4298	0.1167
326.6404	0.1023
326.851	0.101
327.0616	0.1118
327.2722	0.1122
327.4828	0.1238
327.6933	0.1159
327.9039	0.1076
328.1144	0.1098
328.3249	0.1097
328.5354	0.1005
328.7459	0.11
328.9564	0.1033
329.1669	0.1204
329.3773	0.1169
329.5878	0.1058
329.7982	0.0987
330.0086	0.1078
330.219	0.1104
330.4294	0.1111
330.6398	0.1032
330.8502	0.1081
331.0605	0.1118
331.2708	0.0964
331.4812	0.1034
331.6915	0.0972
331.9018	0.1068
332.1121	0.1034
332.3224	0.0989
332.5326	0.1165
332.7429	0.1095
332.9531	0.1067
333.1633	0.1144
333.3735	0.0957
333.5837	0.1
333.7939	0.0978
334.0041	0.1277
334.2143	0.1093
334.4244	0.1073
334.6346	0.0846
334.8447	0.1066
335.0548	0.1028
335.2649	0.1201
335.475	0.1158
335.685	0.1045
335.8951	0.1243
336.1051	0.11
336.3152	0.1242
336.5252	0.108
336.7352	0.1183
336.9452	0.1211
337.1552	0.11
337.3652	0.0997
337.5751	0.1142
337.7851	0.1128
337.995	0.1106
338.2049	0.0949
338.4148	0.1292
338.6247	0.1133
338.8346	0.1208
339.0445	0.103
339.2543	0.1169
339.4642	0.1221
339.674	0.1272
339.8838	0.1135
340.0936	0.1241
340.3034	0.1198
340.5132	0.1212
340.7229	0.1171
340.9327	0.1185
341.1424	0.1102
341.3522	0.1056
341.5619	0.0975
341.7716	0.1211
341.9813	0.1205
342.1909	0.125
342.4006	0.1245
342.6102	0.1097
342.8199	0.1104
343.0295	0.1173
343.2391	0.1272
343.4487	0.1185
343.6583	0.119
343.8679	0.1305
344.0774	0.1316
344.287	0.1272
344.4965	0.1273
344.706	0.1267
344.9155	0.1241
345.125	0.1162
345.3345	0.1262
345.544	0.1454
345.7534	0.1293
345.9629	0.1213
346.1723	0.1309
346.3817	0.1266
346.5911	0.1219
346.8005	0.1289
347.0099	0.1287
347.2193	0.1378
347.4286	0.1337
347.638	0.1396
347.8473	0.1346
348.0566	0.1283
348.2659	0.1464
348.4752	0.1463
348.6845	0.1476
348.8937	0.1409
349.103	0.1431
349.3122	0.1272
349.5214	0.1491
349.7306	0.1344
349.9398	0.1313
350.149	0.1411
350.3582	0.1293
350.5674	0.1531
350.7765	0.1404
350.9856	0.1412
351.1948	0.1365
351.4039	0.1435
351.613	0.1471
351.822	0.1404
352.0311	0.1494
352.2402	0.1319
352.4492	0.1599
352.6582	0.1432
352.8672	0.1479
353.0762	0.1538
353.2852	0.1497
353.4942	0.1396
353.7032	0.1474
353.9121	0.1447
354.1211	0.1537
354.33	0.1668
354.5389	0.1541
354.7478	0.15
354.9567	0.1556
355.1655	0.1494
355.3744	0.1475
355.5833	0.1654
355.7921	0.1517
356.0009	0.1533
356.2097	0.1424
356.4185	0.1504
356.6273	0.1461
356.8361	0.1418
357.0448	0.1416
357.2536	0.1449
357.4623	0.1703
357.671	0.1695
357.8797	0.1702
358.0884	0.1636
358.2971	0.1812
358.5057	0.1677
358.7144	0.176
358.923	0.1733
359.1316	0.1568
359.3402	0.1881
359.5488	0.1691
359.7574	0.1908
359.966	0.1647
360.1746	0.1766
360.3831	0.1689
360.5916	0.1965
360.8002	0.1898
361.0087	0.1869
361.2172	0.1667
361.4256	0.185
361.6341	0.1879
361.8426	0.1838
362.051	0.1771
362.2594	0.1697
362.4678	0.185
362.6762	0.175
362.8846	0.1797
363.093	0.1754
363.3014	0.197
363.5097	0.1877
363.718	0.1942
363.9264	0.2047
364.1347	0.2006
364.343	0.1771
364.5513	0.1948
364.7595	0.1919
364.9678	0.1894
365.176	0.2064
365.3842	0.2023
365.5925	0.1906
365.8007	0.2075
366.0089	0.2047
366.217	0.2028
366.4252	0.1927
366.6333	0.1923
366.8415	0.2056
367.0496	0.2046
367.2577	0.2004
367.4658	0.2123
367.6739	0.2176
367.882	0.209
368.09	0.2297
368.2981	0.2129
368.5061	0.2021
368.7141	0.216
368.9221	0.1958
369.1301	0.1964
369.3381	0.2257
369.5461	0.2228
369.754	0.208
369.962	0.2238
370.1699	0.2073
370.3778	0.2154
370.5857	0.2278
370.7936	0.2195
371.0015	0.2343
371.2093	0.2315
371.4172	0.213
371.625	0.2099
371.8328	0.2163
372.0406	0.224
372.2484	0.2206
372.4562	0.2383
372.664	0.237
372.8717	0.21
373.0795	0.2216
373.2872	0.2457
373.4949	0.225
373.7026	0.2343
373.9103	0.2286
374.118	0.2135
374.3256	0.2282
374.5333	0.2235
374.7409	0.2186
374.9485	0.2252
375.1561	0.2339
375.3637	0.2246
375.5713	0.2254
375.7789	0.2322
375.9864	0.2329
376.194	0.2354
376.4015	0.2246
376.609	0.2436
376.8165	0.2271
377.024	0.2381
377.2315	0.2229
377.4389	0.233
377.6464	0.2571
377.8538	0.2307
378.0612	0.2279
378.2686	0.2574
378.476	0.243
378.6834	0.239
378.8908	0.2263
379.0981	0.2618
379.3055	0.2541
379.5128	0.2427
379.7201	0.2617
379.9274	0.2493
380.1347	0.2593
380.342	0.2372
380.5492	0.264
380.7565	0.2597
380.9637	0.2566
381.1709	0.2486
381.3781	0.2488
381.5853	0.2515
381.7925	0.262
381.9997	0.2393
382.2068	0.2402
382.4139	0.2652
382.6211	0.2613
382.8282	0.2324
383.0353	0.2542
383.2424	0.2434
383.4494	0.251
383.6565	0.2617
383.8635	0.265
384.0706	0.2741
384.2776	0.2533
384.4846	0.2592
384.6916	0.2577
384.8986	0.238
385.1055	0.2591
385.3125	0.2498
385.5194	0.2645
385.7263	0.2585
385.9333	0.2462
386.1402	0.262
386.347	0.2586
386.5539	0.2565
386.7608	0.258
386.9676	0.255
387.1744	0.2553
387.3813	0.2763
387.5881	0.2609
387.7948	0.2667
388.0016	0.262
388.2084	0.2648
388.4151	0.2652
388.6219	0.2527
388.8286	0.2538
389.0353	0.2481
389.242	0.2458
389.4487	0.2548
389.6553	0.2388
389.862	0.2517
390.0686	0.2605
390.2753	0.2584
390.4819	0.2363
390.6885	0.2612
390.8951	0.2176
391.1016	0.2571
391.3082	0.2297
391.5147	0.2222
391.7213	0.2436
391.9278	0.2347
392.1343	0.2405
392.3408	0.2421
392.5473	0.2278
392.7537	0.234
392.9602	0.2401
393.1666	0.2202
393.373	0.2088
393.5794	0.2317
393.7858	0.2168
393.9922	0.2436
394.1986	0.2451
394.4049	0.2296
394.6113	0.2077
394.8176	0.2081
395.0239	0.2287
395.2302	0.2211
395.4365	0.2128
395.6428	0.2388
395.8491	0.2151
396.0553	0.2416
396.2615	0.2333
396.4678	0.2137
396.674	0.2236
396.8802	0.2432
397.0863	0.2075
397.2925	0.2177
397.4987	0.2232
397.7048	0.2112
397.9109	0.2349
398.117	0.2182
398.3231	0.2096
398.5292	0.2228
398.7353	0.2206
398.9413	0.2077
399.1474	0.2235
399.3534	0.2048
399.5594	0.2332
399.7654	0.2206
399.9714	0.2231
400.1774	0.2178
400.3833	0.2377
400.5893	0.2108
400.7952	0.2217
401.0011	0.2302
401.207	0.2164
401.4129	0.2105
401.6188	0.2271
401.8247	0.2223
402.0305	0.1948
402.2364	0.2307
402.4422	0.2339
402.648	0.2145
402.8538	0.2285
403.0596	0.2165
403.2654	0.2339
403.4711	0.2247
403.6768	0.2061
403.8826	0.2153
404.0883	0.2153
404.294	0.2161
404.4997	0.2079
404.7054	0.1982
404.911	0.2135
405.1167	0.2104
405.3223	0.2204
405.5279	0.2353
405.7335	0.227
405.9391	0.2226
406.1447	0.2302
406.3502	0.2167
406.5558	0.2349
406.7613	0.2222
406.9668	0.218
407.1724	0.2088
407.3778	0.2246
407.5833	0.2172
407.7888	0.2169
407.9942	0.196
408.1997	0.2349
408.4051	0.1926
408.6105	0.2069
408.8159	0.1981
409.0213	0.2018
409.2267	0.2267
409.432	0.2298
409.6374	0.2269
409.8427	0.2107
410.048	0.2123
410.2533	0.2104
410.4586	0.194
410.6639	0.1979
410.8691	0.2302
411.0744	0.2269
411.2796	0.199
411.4848	0.2006
411.69	0.2121
411.8952	0.1978
412.1004	0.1972
412.3056	0.2185
412.5107	0.1932
412.7158	0.2
412.921	0.2235
413.1261	0.2167
413.3312	0.195
413.5362	0.2036
413.7413	0.2056
413.9464	0.2024
414.1514	0.2074
414.3564	0.2051
414.5614	0.2021
414.7664	0.2102
414.9714	0.2087
415.1764	0.2136
415.3813	0.2022
415.5863	0.2231
415.7912	0.2056
415.9961	0.2283
416.201	0.2038
416.4059	0.2158
416.6108	0.2223
416.8156	0.2132
417.0205	0.1946
417.2253	0.2163
417.4301	0.2062
417.6349	0.2038
417.8397	0.1937
418.0445	0.1987
418.2492	0.1918
418.454	0.2002
418.6587	0.2126
418.8634	0.215
419.0681	0.2133
419.2728	0.203
419.4775	0.2079
419.6822	0.2154
419.8868	0.1896
420.0915	0.1839
420.2961	0.1957
420.5007	0.1997
420.7053	0.1976
420.9099	0.1884
421.1144	0.2109
421.319	0.2127
421.5235	0.2149
421.728	0.1775
421.9325	0.2049
422.137	0.195
422.3415	0.199
422.546	0.1695
422.7504	0.2067
422.9549	0.1982
423.1593	0.1705
423.3637	0.2003
423.5681	0.1859
423.7725	0.1807
423.9769	0.1836
424.1812	0.1919
424.3856	0.1842
424.5899	0.1892
424.7942	0.1845
424.9985	0.1998
425.2028	0.1514
425.4071	0.1674
425.6113	0.1786
425.8156	0.1869
426.0198	0.1882
426.224	0.1966
426.4282	0.1753
426.6324	0.1944
426.8366	0.1628
427.0407	0.1882
427.2449	0.1696
427.449	0.1638
427.6531	0.1483
427.8572	0.1682
428.0613	0.1637
428.2654	0.1406
428.4694	0.1637
428.6735	0.1622
428.8775	0.1686
429.0815	0.1682
429.2855	0.1583
429.4895	0.1572
429.6935	0.1478
429.8975	0.1572
430.1014	0.1517
430.3053	0.1493
430.5093	0.1573
430.7132	0.1398
430.9171	0.1288
431.1209	0.1343
431.3248	0.1553
431.5286	0.1413
431.7325	0.1552
431.9363	0.1405
432.1401	0.1487
432.3439	0.1362
432.5477	0.1609
432.7514	0.1237
432.9552	0.1225
433.1589	0.1235
433.3627	0.1357
433.5664	0.1188
433.7701	0.1274
433.9737	0.1229
434.1774	0.1205
434.3811	0.1105
434.5847	0.1275
434.7883	0.1175
434.9919	0.111
435.1955	0.1014
435.3991	0.1224
435.6027	0.1049
435.8062	0.1152
436.0098	0.1255
436.2133	0.0823
436.4168	0.0956
436.6203	0.1063
436.8238	0.0963
437.0272	0.0971
437.2307	0.1272
437.4341	0.0946
437.6375	0.111
437.841	0.0857
438.0443	0.0939
438.2477	0.0954
438.4511	0.0977
438.6545	0.0811
438.8578	0.0982
439.0611	0.088
439.2644	0.0776
439.4677	0.0774
439.671	0.0775
439.8743	0.0778
440.0775	0.0705
440.2808	0.0792
440.484	0.0764
440.6872	0.083
440.8904	0.0721
441.0936	0.066
441.2967	0.0657
441.4999	0.044
441.703	0.0796
441.9062	0.0518
442.1093	0.0667
442.3124	0.0633
442.5155	0.0686
442.7185	0.072
442.9216	0.0487
443.1246	0.0578
443.3276	0.0635
443.5307	0.0564
443.7337	0.0592
443.9366	0.0587
444.1396	0.0508
444.3426	0.0276
444.5455	0.0711
444.7484	0.0488
444.9513	0.0526
445.1542	0.0527
445.3571	0.0612
445.56	0.0574
445.7628	0.0579
445.9657	0.0459
446.1685	0.0456
446.3713	0.0515
446.5741	0.0653
446.7769	0.061
446.9797	0.0324
447.1824	0.0371
447.3852	0.063
447.5879	0.051
447.7906	0.0501
447.9933	0.047
448.196	0.0443
448.3986	0.0449
448.6013	0.0207
448.8039	0.0426
449.0066	0.0135
449.2092	0.0331
449.4118	0.0358
449.6143	0.0236
449.8169	0.0359
450.0195	0.0159
450.222	0.0215
450.4245	0.0327
450.627	0.0189
450.8295	0.0298
451.032	0.0248
451.2345	0.0351
451.4369	0.0363
451.6394	0.0163
451.8418	0.0049
452.0442	0.0098
452.2466	0.0097
452.449	0.008
452.6513	0.0163
452.8537	0.0257
453.056	0.0069
453.2583	0.0239
453.4607	0.006
453.663	0.021
453.8652	0.0253
454.0675	0.0073
454.2697	0.0309
454.472	0.0234
454.6742	0.0257
454.8764	0.0079
455.0786	0.0001
455.2808	0.0006
455.4829	0.0203
455.6851	0.0346
455.8872	0.0351
456.0893	0.0119
456.2915	0.0208
456.4935	0.0028
456.6956	-0.0125
456.8977	0.0023
457.0997	0.0179
457.3018	0.0219
457.5038	0.0125
457.7058	0.0217
457.9078	0.0067
458.1098	0.0122
458.3117	0.0179
458.5137	0.0144
458.7156	0.0161
458.9175	0.002
459.1194	0.006
459.3213	0.0128
459.5232	0.0018
459.725	0.0044
459.9269	0.003
460.1287	0.0142
460.3305	-0.0039
460.5323	0.001
460.7341	0.0048
460.9359	0.008
461.1376	0.0179
461.3394	-0.0069
461.5411	0.005
461.7428	0.0068
461.9445	0.0015
462.1462	0.0036
462.3479	-0.0055
462.5495	0.005
462.7512	0.0035
462.9528	0.0067
463.1544	0.004
463.356	-0.0007
463.5576	-0.0095
463.7592	-0.0094
463.9607	0.0221
464.1623	-0.0029
464.3638	0.0177
464.5653	-0.0109
464.7668	-0.0016
464.9683	0.013
465.1697	0.0001
465.3712	0.0123
465.5726	0.0195
465.7741	0.0229
465.9755	-0.0182
466.1769	0.0025
466.3782	0.0032
466.5796	0.0045
466.7809	0.0004
466.9823	0.0018
467.1836	0.0164
467.3849	0.0107
467.5862	-0.0197
467.7875	0.0087
467.9887	0.0107
468.19	0.0039
468.3912	0.0155
468.5924	0.0067
468.7936	0.0159
468.9948	-0.0134
469.196	-0.002
469.3972	-0.006
469.5983	0.012
469.7994	-0.0099
470.0006	-0.0069
470.2017	0.0099
470.4027	0.0004
470.6038	-0.0012
470.8049	-0.0004
471.0059	-0.0046
471.2069	0.0055
471.408	-0.0131
471.6089	-0.007
471.8099	0.0153
472.0109	-0.0049
472.2119	0.0078
472.4128	-0.0117
472.6137	-0.0041
472.8146	0.0134
473.0155	-0.0017
473.2164	0.0034
473.4173	0.0001
473.6181	0.001
473.819	0.0024
474.0198	-0.0102
474.2206	-0.0175
474.4214	0.0101
474.6222	0.0088
474.8229	-0.0014
475.0237	0.0102
475.2244	0.0029
475.4251	0.0049
475.6258	-0.0092
475.8265	-0.0062
476.0272	-0.009
476.2278	-0.0189
476.4285	-0.0005
476.6291	-0.0093
476.8297	0.0014
477.0303	0.0111
477.2309	-0.0103
477.4315	-0.0083
477.632	-0.0145
477.8326	-0.0082
478.0331	-0.0248
478.2336	-0.0086
478.4341	0.0056
478.6346	-0.0043
478.8351	-0.0086
479.0355	-0.0131
479.236	-0.0103
479.4364	-0.0059
479.6368	0.0068
479.8372	0.002
480.0376	-0.0155
480.2379	-0.0057
480.4383	-0.0111
480.6386	-0.0152
480.8389	-0.0044
481.0392	0.0007
481.2395	-0.0098
481.4398	-0.0114
481.6401	-0.003
481.8403	0.0043
482.0405	-0.0077
482.2408	-0.0138
482.441	-0.0098
482.6411	-0.0051
482.8413	-0.0138
483.0415	-0.0102
483.2416	-0.0124
483.4417	-0.0041
483.6419	-0.0109
483.8419	-0.0102
484.042	0.0057
484.2421	-0.0113
484.4422	-0.0074
484.6422	0.0037
484.8422	0.0004
485.0422	0.0007
485.2422	-0.0157
485.4422	-0.0039
485.6422	-0.0028
485.8421	-0.0012
486.042	0.0042
486.242	-0.0062
486.4419	-0.0072
486.6417	0.0021
486.8416	-0.0072
487.0415	-0.0074
487.2413	0.0041
487.4411	0.0031
487.641	0.0037
487.8408	-0.0116
488.0405	-0.0042
488.2403	-0.0075
488.4401	0.005
488.6398	-0.01
488.8395	-0.0125
489.0392	-0.0178
489.2389	-0.018
489.4386	-0.0043
489.6383	-0.0033
489.8379	0.0009
490.0376	0.0055
490.2372	-0.0079
490.4368	-0.0136
490.6364	0.001
490.836	-0.0207
491.0355	-0.0047
491.2351	0.0001
491.4346	-0.014
491.6341	-0.0028
491.8336	-0.016
492.0331	-0.0096
492.2326	-0.0058
492.432	-0.0042
492.6315	-0.0091
492.8309	-0.0067
493.0303	-0.0127
493.2297	-0.005
493.4291	-0.0031
493.6284	-0.0134
493.8278	-0.0089
494.0271	-0.0087
494.2264	-0.0092
494.4257	-0.0075
494.625	-0.0045
494.8243	-0.0057
495.0236	0.0008
495.2228	-0.0127
495.422	-0.0085
495.6213	-0.0151
495.8205	-0.0011
496.0196	-0.0189
496.2188	-0.0042
496.418	-0.0097
496.6171	-0.0117
496.8162	-0.0109
497.0153	0.0052
497.2144	-0.0139
497.4135	-0.0099
497.6126	-0.0028
497.8116	-0.0096
498.0107	-0.0071
498.2097	-0.0079
498.4087	-0.0152
498.6077	-0.0151
498.8067	0.0018
499.0056	-0.0117
499.2046	-0.0013
499.4035	-0.0186
499.6024	-0.0093
499.8013	-0.0095
500.0002	-0.0119
500.199	-0.0121
500.3979	-0.0017
500.5967	-0.0155
500.7956	-0.0064
500.9944	-0.0057
501.1932	-0.0027
501.3919	-0.0111
501.5907	-0.012
501.7895	-0.0149
501.9882	0.0027
502.1869	-0.013
502.3856	-0.0167
502.5843	-0.0045
502.783	0.0033
502.9816	-0.0013
503.1803	-0.0106
503.3789	-0.0031
503.5775	-0.0077
503.7761	-0.0166
503.9747	-0.0084
504.1732	-0.0088
504.3718	0.004
504.5703	-0.0078
504.7689	0.008
504.9674	-0.0066
505.1658	0.0008
505.3643	-0.0065
505.5628	-0.0095
505.7612	0.0002
505.9597	-0.0111
506.1581	0.0093
506.3565	-0.003
506.5549	-0.0045
506.7532	-0.0025
506.9516	-0.0099
507.1499	-0.0122
507.3482	0.0005
507.5465	0.0057
507.7448	-0.0005
507.9431	-0.0061
508.1414	-0.0094
508.3396	-0.0103
508.5379	-0.0066
508.7361	-0.0055
508.9343	-0.0016
509.1325	0.0053
509.3306	-0.0175
509.5288	-0.01
509.7269	0.0019
509.9251	0.0056
510.1232	-0.0005
510.3213	0.0024
510.5193	-0.002
510.7174	-0.0114
510.9154	-0.0014
511.1135	-0.0028
511.3115	-0.0116
511.5095	-0.0012
511.7075	0.0004
511.9055	-0.018
512.1034	-0.0034
512.3014	-0.009
512.4993	0.0063
512.6972	-0.0119
512.8951	0.0081
513.093	-0.0055
513.2908	-0.0123
513.4887	0.0019
513.6865	-0.0047
513.8844	0.0008
514.0822	0.0025
514.2799	-0.0005
514.4777	0.0012
514.6755	-0.0047
514.8732	-0.0043
515.0709	-0.0025
515.2687	-0.0017
515.4664	-0.0034
515.664	-0.0032
515.8617	0.005
516.0594	-0.0045
516.257	-0.0047
516.4546	-0.0076
516.6522	-0.0066
516.8498	-0.0133
517.0474	-0.0018
517.2449	-0.0107
517.4425	-0.0027
517.64	-0.0108
517.8375	0.0038
518.035	-0.0031
518.2325	-0.0127
518.43	-0.0028
518.6274	-0.0121
518.8249	0.0003
519.0223	-0.0101
519.2197	0.0039
519.4171	-0.0001
519.6145	0.0055
519.8118	-0.0071
520.0092	0.0061
520.2065	-0.0027
520.4038	-0.0132
520.6011	-0.0043
520.7984	0.0029
520.9956	0.0067
521.1929	-0.0163
521.3901	-0.0044
521.5874	-0.0037
521.7846	0.0048
521.9818	-0.0025
522.1789	0.0019
522.3761	0.0031
522.5732	-0.0091
522.7704	0.0031
522.9675	-0.0075
523.1646	-0.0027
523.3617	-0.0129
523.5587	-0.0044
523.7558	-0.003
523.9528	0.0077
524.1498	0.0012
524.3468	-0.0116
524.5438	0.0011
524.7408	-0.0042
524.9378	0.0125
525.1347	0.0003
525.3316	-0.0019
525.5285	-0.0026
525.7254	0.006
525.9223	-0.0074
526.1192	-0.0035
526.316	-0.0007
526.5129	0.0032
526.7097	-0.0002
526.9065	0.0075
527.1033	-0.0046
527.3	-0.005
527.4968	-0.0039
527.6935	0.001
527.8903	0.0136
528.087	0.0032
528.2837	0.0057
528.4804	0.0108
528.677	0.0118
528.8737	-0.0034
529.0703	0.0033
529.2669	-0.0035
529.4635	-0.0052
529.6601	0.0124
529.8567	0.0101
530.0532	0.0147
530.2498	0.0025
530.4463	-0.009
530.6428	-0.0001
530.8393	-0.0019
531.0358	0.0028
531.2322	0.0073
531.4287	0.011
531.6251	0.0056
531.8215	0.0052
532.0179	-0.0113
532.2143	0.0001
532.4107	0.0086
532.607	-0.0017
532.8034	-0.0103
532.9997	0.0011
533.196	0.0104
533.3923	-0.0064
533.5886	0.003
533.7848	0.0082
533.9811	-0
534.1773	-0.0055
534.3735	-0.0067
534.5697	-0.0125
534.7659	-0.0055
534.9621	0.0003
535.1582	0.0068
535.3544	-0.0035
535.5505	0.002
535.7466	-0.005
535.9427	-0.0023
536.1387	0.0018
536.3348	-0.0028
536.5308	-0.0012
536.7269	0.0049
536.9229	-0.0065
537.1189	0.001
537.3148	-0.01
537.5108	0.001
537.7068	0.0063
537.9027	-0.0019
538.0986	-0.0079
538.2945	0.0034
538.4904	0.0067
538.6863	0.0008
538.8821	0.0064
539.078	0.0051
539.2738	0.0077
539.4696	-0.0054
539.6654	0.009
539.8611	0.0064
540.0569	0.0054
540.2526	-0.0008
540.4484	0.0063
540.6441	0.0086
540.8398	-0.0043
541.0355	0.007
541.2311	0.0024
541.4268	0.011
541.6224	0.0162
541.818	0.0082
542.0136	-0.0029
542.2092	0.0106
542.4048	0.0057
542.6003	0.0035
542.7959	0.0081
542.9914	0.0078
543.1869	-0.0034
543.3824	-0.0009
543.5779	-0.0002
543.7734	0.0013
543.9688	-0.0006
544.1642	-0.0061
544.3596	0.002
544.555	0.007
544.7504	0.0098
544.9458	0.0022
545.1411	0.0104
545.3365	0.0069
545.5318	-0.0017
545.7271	0.0022
545.9224	0.0022
546.1177	-0.0084
546.3129	0.0015
546.5081	-0.0103
546.7034	-0.001
546.8986	-0.0056
547.0938	0
547.289	-0.0005
547.4841	-0.0023
547.6793	0.0007
547.8744	0.0064
548.0695	-0.0029
548.2646	-0.0111
548.4597	-0.0016
548.6548	0.0023
548.8498	0.0102
549.0448	0.0035
549.2399	0.0006
549.4349	-0.0067
549.6298	0.007
549.8248	0.0072
550.0198	0.0065
550.2147	0.0061
550.4096	0.0003
550.6045	-0.0037
550.7994	-0.0022
550.9943	0.0052
551.1892	-0.016
551.384	-0.0003
551.5788	0.0041
551.7737	-0.0021
551.9685	0.0038
552.1632	0.0029
552.358	0.0014
552.5528	-0.0064
552.7475	-0.0038
552.9422	0.0008
553.1369	0.0006
553.3316	0.0072
553.5263	0.0052
553.7209	-0.0044
553.9156	0.0059
554.1102	-0.0054
554.3048	-0.0033
554.4994	0.0076
554.694	0.0028
554.8885	-0.0036
555.0831	0.0013
555.2776	0.0069
555.4721	0.0079
555.6666	0.0071
555.8611	-0.0014
556.0555	0.0096
556.25	0.0016
556.4444	0.0115
556.6388	0.0049
556.8332	0.014
557.0276	0.0017
557.222	0.0011
557.4163	0.01
557.6107	0.0162
557.805	0.0097
557.9993	-0.0073
558.1936	0.0076
558.3879	0.0106
558.5821	0.0096
558.7764	0.0019
558.9706	0.005
559.1648	0.0071
559.359	0.0061
559.5532	0.003
559.7473	0.0173
559.9415	0.0111
560.1356	0.0041
560.3297	0.0029
560.5238	0.0066
560.7179	0.0115
560.9119	0.0013
561.106	0.0114
561.3	0.0111
561.494	0.0041
561.688	0.0133
561.882	0.0113
562.076	0.002
562.2699	0.0002
562.4639	0.0081
562.6578	0.0004
562.8517	0.0108
563.0456	0.0023
563.2395	0.0124
563.4333	-0.0062
563.6272	0.0033
563.821	-0.0075
564.0148	0.0074
564.2086	-0.0061
564.4024	-0.0063
564.5961	0.0148
564.7899	0.0048
564.9836	0.0052
565.1773	0.0094
565.371	0.0071
565.5647	-0.0006
565.7584	0.008
565.952	-0.0027
566.1456	0.0057
566.3393	-0.0019
566.5329	0.0027
566.7264	0.001
566.92	0.0048
567.1136	0.0199
567.3071	0.0064
567.5006	0.0081
567.6941	0.005
567.8876	0.0045
568.0811	0.0028
568.2745	-0.0008
568.468	0.0048
568.6614	0.0004
568.8548	0.0105
569.0482	0.0035
569.2416	0.0011
569.4349	0.0018
569.6283	0.0004
569.8216	0.005
570.0149	0.0074
570.2082	0.0145
570.4015	-0.0002
570.5947	0.0019
570.788	0.0065
570.9812	0.0046
571.1744	0.0032
571.3676	0.0098
571.5608	0.005
571.754	0.0033
571.9471	0.0048
572.1402	0.0017
572.3333	0.0106
572.5264	0.0059
572.7195	-0.0012
572.9126	0.0032
573.1057	0.003
573.2987	0.0103
573.4917	-0.0031
573.6847	0.0001
573.8777	-0.0048
574.0707	0.005
574.2636	0.0033
574.4566	0.0121
574.6495	-0.0004
574.8424	0.0051
575.0353	-0.0023
575.2281	0.0045
575.421	0.0053
575.6138	0.0049
575.8067	0.0037
575.9995	0.0019
576.1923	0.0084
576.385	0.0029
576.5778	-0.007
576.7706	0.0083
576.9633	0.0005
577.156	0.0064
577.3487	-0.0026
577.5414	0.0019
577.734	-0.0048
577.9267	-0.0031
578.1193	0.0043
578.3119	0.0036
578.5045	0.0071
578.6971	0.0062
578.8897	0.001
579.0822	0.0055
579.2747	0.0093
579.4673	-0.0008
579.6598	0.0111
579.8522	0.0071
580.0447	0.0055
580.2372	0.0084
580.4296	0.0131
580.622	0.0082
580.8144	0.0026
581.0068	0.0035
581.1992	0.0097
581.3915	0.0022
581.5839	0.0091
581.7762	0.0048
581.9685	0.0024
582.1608	-0.0051
582.353	-0.0013
582.5453	0.0022
582.7375	0.0054
582.9298	-0.0015
583.122	0.0083
583.3142	0.0073
583.5063	0.005
583.6985	0.004
583.8906	0.0015
584.0827	0.0045
584.2749	0.0075
584.4669	-0.004
584.659	0.0039
584.8511	-0.0017
585.0431	-0.0041
585.2352	-0.0045
585.4272	0.0048
585.6192	0.0041
585.8111	-0.0011
586.0031	0.0055
586.195	0.0002
586.387	0.0021
586.5789	-0.0037
586.7708	0.0048
586.9627	0.0028
587.1545	0.0087
587.3464	0.012
587.5382	-0.0006
587.73	0.0089
587.9218	0.0028
588.1136	0.0034
588.3053	-0.005
588.4971	-0.0035
588.6888	0.0014
588.8805	0.0019
589.0722	0.0036
589.2639	0.0043
589.4556	0
589.6472	-0.0011
589.8389	0.0032
590.0305	0.0046
590.2221	0.0089
590.4137	-0.0021
590.6052	0.0001
590.7968	0.0108
590.9883	-0.0044
591.1798	0.0002
591.3713	0.0024
591.5628	0.0054
591.7543	0.0099
591.9458	0.0017
592.1372	0.0097
592.3286	0.0068
592.52	-0.0001
592.7114	0.0106
592.9028	0.0008
593.0941	0.0084
593.2855	-0.0051
593.4768	-0.0023
593.6681	0.0015
593.8594	0.001
594.0506	-0.0046
594.2419	-0.001
594.4331	0.0001
594.6244	0.0051
594.8156	0.0033
595.0067	-0.0069
595.1979	-0.003
595.3891	0.002
595.5802	0.0029
595.7713	-0.0054
595.9624	0.0118
596.1535	-0.001
596.3446	0.0118
596.5357	0.0058
596.7267	-0.0002
596.9177	0.0092
597.1087	0.0108
597.2997	0.0027
597.4907	0.0011
597.6817	0.0024
597.8726	0.0185
598.0635	0.0012
598.2544	0.0078
598.4453	0.0092
598.6362	0.0111
598.827	0.0044
599.0179	0.0027
599.2087	-0.0037
599.3995	0.0085
599.5903	0.0088
599.7811	0.005
599.9718	-0.001
600.1626	0.004
600.3533	0.0049
600.544	0.0024
600.7347	0.0041
600.9254	-0.0022
601.116	0.0025
601.3067	-0.0092
601.4973	0.0054
601.6879	-0.0004
601.8785	-0
602.0691	0.0063
602.2596	0.0084
602.4502	0.0067
602.6407	-0.0024
602.8312	-0.0004
603.0217	0.0046
603.2122	-0.0009
603.4027	-0.0008
603.5931	0.0034
603.7835	0.0069
603.9739	-0.0017
604.1643	0.0105
604.3547	0.0071
604.5451	0.0005
604.7354	0.0068
604.9257	0.0062
605.116	-0.0027
605.3063	0.0041
605.4966	0.0004
605.6869	0.0135
605.8771	0.0069
606.0673	0.0069
606.2575	0.0011
606.4477	-0.0028
606.6379	0.0075
606.8281	-0.0022
607.0182	-0.0001
607.2083	-0.0003
607.3985	0.0056
607.5885	-0.0028
607.7786	0.0044
607.9687	0.0037
608.1587	0.0054
608.3488	0.0076
608.5388	0.0077
608.7288	-0.0028
608.9187	0.0051
609.1087	-0.0017
609.2986	0.0025
609.4886	0.0035
609.6785	-0.004
609.8684	0.005
610.0582	0.0068
610.2481	0.0027
610.4379	0.0013
610.6278	-0.0014
610.8176	0.0119
611.0074	-0.0044
611.1971	0.0019
611.3869	-0.0038
611.5766	0.0088
611.7664	0.0063
611.9561	0.008
612.1458	0.0064
612.3354	0.005
612.5251	0.0013
612.7147	0.0035
612.9044	0.0105
613.094	0.0018
613.2836	0.0146
613.4731	0.0061
613.6627	0.0029
613.8522	0.0073
614.0417	0.0143
614.2313	0.0052
614.4207	0.0066
614.6102	0.0042
614.7997	0.0101
614.9891	0.0095
615.1785	0.0032
615.3679	0.0084
615.5573	0.0077
615.7467	-0.0003
615.9361	0.0043
616.1254	0.0029
616.3147	0.0067
616.504	0.0009
616.6933	0.009
616.8826	0.0058
617.0718	0.0077
617.2611	0.0092
617.4503	0.0056
617.6395	0.0096
617.8287	0.011
618.0179	0.0098
618.207	0.0112
618.3961	0.0104
618.5853	0.0038
618.7744	0.004
618.9634	0.0087
619.1525	0.0089
619.3416	0.0043
619.5306	0.0046
619.7196	-0.0046
619.9086	0.0042
620.0976	0.0083
620.2866	0.0088
620.4755	0.0144
620.6645	0.0153
620.8534	0.0145
621.0423	0.0022
621.2312	0.0033
621.42	0.0026
621.6089	0.0081
621.7977	0.0078
621.9865	0.0122
622.1753	0.0099
622.3641	0.0029
622.5529	0.007
622.7416	0.0072
622.9303	0.0161
623.1191	0.0119
623.3078	0.0019
623.4964	0.0065
623.6851	0.0075
623.8737	0.0157
624.0624	0.0023
624.251	0.0195
624.4396	0.011
624.6282	0.0071
624.8167	0.0122
625.0053	0.0032
625.1938	0.0025
625.3823	0.0055
625.5708	0.0104
625.7593	0.0092
625.9477	0.0074
626.1362	0.0072
626.3246	0.0152
626.513	-0.0019
626.7014	0.0048
626.8898	0.0055
627.0781	-0.001
627.2665	0.0035
627.4548	0.0051
627.6431	0.0082
627.8314	0.0106
628.0197	0.0024
628.2079	0.0063
628.3962	0.0057
628.5844	0.0148
628.7726	0.0094
628.9608	0.0146
629.1489	0.0109
629.3371	0.0094
629.5252	0.0107
629.7134	0.0088
629.9015	0.0106
630.0895	0.0105
630.2776	0.0095
630.4657	0.0094
630.6537	0.0028
630.8417	0.0063
631.0297	0.0159
631.2177	0.0133
631.4057	0.0149
631.5936	0.0117
631.7815	0.0119
631.9695	0.0121
632.1574	0.0131
632.3452	0.0174
632.5331	0.0053
632.7209	0.0071
632.9088	-0.0004
633.0966	-0.0013
633.2844	-0.0001
633.4722	0.0072
633.6599	0.0067
633.8477	0.0119
634.0354	0.0053
634.2231	0.0114
634.4108	0.0088
634.5985	0.0063
634.7861	0.0082
634.9738	0.009
635.1614	0.0102
635.349	0.0093
635.5366	0.007
635.7242	0.0027
635.9117	-0.004
636.0993	0.011
636.2868	0.0107
636.4743	0.0059
636.6618	0.0067
636.8492	0.0176
637.0367	0.0033
637.2241	0.0107
637.4115	0.0089
637.5989	0.0126
637.7863	0.0045
637.9737	0.0016
638.161	0.0169
638.3484	0.0119
638.5357	0.011
638.723	0.0018
638.9103	0.009
639.0975	0.0023
639.2848	0.0052
639.472	0.005
639.6592	0.007
639.8464	0.0099
640.0336	0.0067
640.2208	0.0068
640.4079	0.0031
640.595	0.0089
640.7821	-0.0004
640.9692	0.0053
641.1563	0.003
641.3434	0.007
641.5304	0.0164
641.7174	0.012
641.9044	-0.0052
642.0914	-0.0019
642.2784	-0.0087
642.4653	0.0048
642.6523	0.0022
642.8392	0.0091
643.0261	0.0078
643.213	-0.0074
643.3999	0.0011
643.5867	0.0119
643.7735	0.004
643.9604	0.0067
644.1472	-0.0013
644.3339	-0.0008
644.5207	0.0056
644.7075	-0.0037
644.8942	0.0097
645.0809	0.0097
645.2676	0.0083
645.4543	0.0123
645.6409	0.0037
645.8276	0.0022
646.0142	0.0008
646.2008	0.0088
646.3874	0.0112
646.574	0.0072
646.7605	0.0092
646.9471	0.0054
647.1336	0.0064
647.3201	0.011
647.5066	-0.0008
647.6931	0.0007
647.8795	-0.0042
648.0659	0.0048
648.2524	0.0115
648.4388	0.0091
648.6252	-0.0027
648.8115	0.002
648.9979	0.0061
649.1842	-0.0027
649.3705	-0.0085
649.5568	0.0006
649.7431	0.0059
649.9294	0.0108
650.1156	0.0129
650.3018	0.012
650.488	0.0005
650.6742	0.0054
650.8604	0.0091
651.0466	0.0114
651.2327	0.014
651.4188	0.0085
651.6049	0.0142
651.791	0.0077
651.9771	0.0115
652.1632	0.0072
652.3492	0.01
652.5352	0.0078
652.7212	0.009
652.9072	-0.0001
653.0932	0.003
653.2791	-0.0053
653.465	0.0052
653.651	0.0086
653.8369	0.0078
654.0227	0.0032
654.2086	0.0111
654.3944	0.005
654.5803	-0.0007
654.7661	0.0043
654.9519	-0.0031
655.1377	-0.0014
655.3234	-0.0036
655.5092	-0
655.6949	-0.0052
655.8806	-0.0036
656.0663	-0.0023
656.2519	-0.0011
656.4376	0.0071
656.6232	-0.0019
656.8088	0.007
656.9945	0.0045
657.18	0.0019
657.3656	0.0139
657.5511	0.0022
657.7367	0.0091
657.9222	0.0036
658.1077	0.0047
658.2932	0.0056
658.4786	0.0005
658.6641	-0.0006
658.8495	0.005
659.0349	0.0063
659.2203	-0.0018
659.4057	-0.0012
659.591	0.0058
659.7764	0.0006
659.9617	-0.0033
660.147	0.0065
660.3323	-0.0033
660.5176	-0.0023
660.7028	0.0085
660.888	0.0057
661.0733	0.0109
661.2585	0.0097
661.4436	0.0157
661.6288	0.014
661.8139	0.0054
661.9991	-0.0048
662.1842	0.0061
662.3693	0.0044
662.5544	0.0143
662.7394	0.0091
662.9245	0.002
663.1095	0.0119
663.2945	0.002
663.4795	0.0076
663.6644	0.0134
663.8494	0.0122
664.0343	0.0096
664.2193	0.0154
664.4042	0.0086
664.589	0.0062
664.7739	0.0037
664.9587	0.0096
665.1436	0.0002
665.3284	0.0028
665.5132	-0.0031
665.698	0.0063
665.8827	0.0142
666.0675	0.0086
666.2522	0.0152
666.4369	0.0057
666.6216	0.0147
666.8063	0.0084
666.9909	0.0055
667.1756	0.017
667.3602	0.0083
667.5448	0.014
667.7294	0.0132
667.9139	0.0124
668.0985	0.0035
668.283	0.0054
668.4675	0.0066
668.652	0.01
668.8365	-0.0027
669.0209	0.0115
669.2054	0.003
669.3898	0.0071
669.5742	0.0061
669.7586	0.0026
669.943	0.0049
670.1273	0.0118
670.3117	0.0059
670.496	0.0018
670.6803	0.0095
670.8646	0.0025
671.0488	0.0087
671.2331	0.011
671.4173	0.0153
671.6015	0.0078
671.7857	0.0025
671.9699	0.0088
672.1541	0.0045
672.3382	0.0128
672.5223	0.0128
672.7064	0.0148
672.8905	0.0119
673.0746	0.006
673.2587	0.0077
673.4427	0.0086
673.6267	-0.0004
673.8107	0.0136
673.9947	0.0096
674.1787	0.0089
674.3626	0.0161
674.5465	0.0168
674.7304	0.0147
674.9143	0.0106
675.0982	0.0105
675.2821	0.0066
675.4659	0.0201
675.6497	0.0013
675.8335	0.0175
676.0173	0.0076
676.2011	0.0051
676.3849	0.0147
676.5686	0.0102
676.7523	0.0171
676.936	-0.0047
677.1197	0.0143
677.3034	0.007
677.487	0.0083
677.6706	0.0145
677.8542	0.0084
678.0378	0.0094
678.2214	0.0059
678.405	0.0176
678.5885	0.0126
678.772	0.0229
678.9555	0.0097
679.139	0.0174
679.3225	0.0096
679.5059	0.0164
679.6894	0.0049
679.8728	0.0085
680.0562	0.0058
680.2395	0.0127
680.4229	0.0076
680.6062	0.0031
680.7896	0.0037
680.9729	0.001
681.1562	0.0091
681.3394	0.0124
681.5227	0.0052
681.7059	0.0062
681.8891	0.0039
682.0723	0.0066
682.2555	0.0073
682.4387	0.0024
682.6218	0.0139
682.805	0.0152
682.9881	0.0137
683.1712	0.0109
683.3542	0.0098
683.5373	0.0105
683.7203	0.0163
683.9034	0.0144
684.0864	-0.0001
684.2694	0.0086
684.4523	0.0074
684.6353	0.0077
684.8182	0.0093
685.0011	0.0101
685.184	0.009
685.3669	0.0012
685.5498	0.0017
685.7326	0.0028
685.9154	0.0097
686.0982	0.014
686.281	0.0069
686.4638	0.0003
686.6465	0.0126
686.8293	0.0136
687.012	0.0124
687.1947	0.006
687.3774	0.0114
687.56	0.0077
687.7427	0.0149
687.9253	0.0091
688.1079	0.01
688.2905	0.0022
688.4731	0.0062
688.6556	0.0162
688.8382	0.0055
689.0207	0.0043
689.2032	0.0064
689.3857	0.0128
689.5681	0.0078
689.7506	0.0028
689.933	0.0115
690.1154	0.0015
690.2978	0.0042
690.4802	0.0016
690.6626	0.0105
690.8449	0.0112
691.0272	0.0053
691.2095	0.0172
691.3918	0.002
691.5741	0.0271
691.7563	0.0127
691.9386	0.0144
692.1208	0.0073
692.303	0.0018
692.4852	0.0151
692.6673	0.0097
692.8495	0.0136
693.0316	0.012
693.2137	0.0149
693.3958	0.0202
693.5778	0.0087
693.7599	0.0181
693.9419	0.0019
694.1239	0.0149
694.3059	0.0129
694.4879	0.0102
694.6699	0.0083
694.8518	0.0066
695.0337	0.0051
695.2157	0.0178
695.3975	0.0057
695.5794	0.0051
695.7613	0.0008
695.9431	0.0113
696.1249	0.0046
696.3067	-0.0029
696.4885	0.007
696.6703	0.0056
696.852	0.004
697.0337	0.0104
697.2154	0.011
697.3971	0.0107
697.5788	0.0064
697.7605	0.0062
697.9421	0.0031
698.1237	0.014
698.3053	0.0118
698.4869	0.0125
698.6685	0.0052
698.85	0.0131
699.0315	0.0111
699.213	0.0085
699.3945	0.0036
699.576	0.0212
699.7575	0.0161
699.9389	0.0152
700.1203	0.0134
700.3017	0.0081
700.4831	0.0035
700.6645	-0.0014
700.8458	0.0181
701.0271	0.0065
701.2084	0.0099
701.3897	0.0055
701.571	0.0038
701.7523	0.0011
701.9335	-0.0044
702.1147	0.0001
702.2959	-0.0058
702.4771	0.002
702.6583	0.0004
702.8394	0.0097
703.0205	0.0093
703.2016	0.005
703.3827	0.0054
703.5638	0.0094
703.7449	0.0113
703.9259	0.0011
704.1069	0.0071
704.2879	0.0008
704.4689	0.0016
704.6499	0.0063
704.8308	0.009
705.0117	0.0103
705.1927	0.0073
705.3735	0.0024
705.5544	-0.0105
705.7353	0.009
705.9161	0.0016
706.0969	0.0049
706.2777	0.0125
706.4585	0.0034
706.6393	0.01
706.82	0.0087
707.0007	0.0011
707.1815	0.006
707.3621	0.0066
707.5428	0.0096
707.7235	0.0038
707.9041	0.0124
708.0847	0.0197
708.2653	0.0088
708.4459	0.0112
708.6265	0.0135
708.807	0.0095
708.9875	0.0166
709.168	0.0145
709.3485	0.009
709.529	0.0066
709.7095	0.0149
709.8899	0.0148
710.0703	0.0073
710.2507	0.0009
710.4311	0.0073
710.6115	0.0117
710.7918	0.0045
710.9721	0.0078
711.1524	0.002
711.3327	0.0037
711.513	-0.0068
711.6932	0.0085
711.8735	0.0036
712.0537	0.0023
712.2339	-0.0105
712.4141	0.0009
712.5942	-0.0038
712.7744	0.0085
712.9545	0.0029
713.1346	0.0108
713.3147	0.0023
713.4947	0.0028
713.6748	0.0013
713.8548	0.0098
714.0348	0.0076
714.2148	0.0007
714.3948	-0.0018
714.5748	0.0054
714.7547	0.0066
714.9346	-0.001
715.1145	0.0051
715.2944	0.0028
715.4743	0.0074
715.6541	0.0149
715.834	0.0008
716.0138	0.0051
716.1936	0.0127
716.3733	0.013
716.5531	0.015
716.7328	0.008
716.9126	0.0043
717.0923	0.0073
717.2719	0.0101
717.4516	0.0039
717.6312	0.0113
717.8109	0.0068
717.9905	0.0021
718.1701	-0.0055
718.3496	0.0015
718.5292	0.0003
718.7087	-0.008
718.8882	0.0028
719.0677	0.0063
719.2472	0.0091
719.4267	0.0117
719.6061	0.0114
719.7856	0.0047
719.965	0.0061
720.1443	0.0076
720.3237	0.014
720.5031	0.0095
720.6824	0.0056
720.8617	0.0094
721.041	-0.0036
721.2203	0.0003
721.3995	0.0109
721.5788	0.0094
721.758	0.0005
721.9372	0.0148
722.1164	0.0071
722.2956	0.0062
722.4747	0.0112
722.6538	-0.0003
722.8329	0.0051
723.012	0.0088
723.1911	0.0072
723.3702	0.008
723.5492	0.0064
723.7282	0.0134
723.9072	0.0017
724.0862	0.0066
724.2652	0.0118
724.4441	-0.0014
724.623	0.0106
724.8019	-0.0029
724.9808	0.0015
725.1597	0.0119
725.3385	0.0078
725.5174	0.0055
725.6962	0.0033
725.875	0.0008
726.0538	0.0106
726.2325	0.0098
726.4112	0.0078
726.59	0.0088
726.7687	0.0023
726.9474	0.0021
727.126	0.0003
727.3047	-0.0033
727.4833	-0.0023
727.6619	0.0076
727.8405	-0.0046
728.0191	-0
728.1976	-0.0043
728.3762	0.0121
728.5547	0.001
728.7332	0.0072
728.9116	0.0057
729.0901	-0.0025
729.2686	-0.0013
729.447	-0.0047
729.6254	0.0053
729.8038	0.0079
729.9821	0.0159
730.1605	0.0112
730.3388	0.0029
730.5171	-0.0027
730.6954	0.008
730.8737	0.004
731.0519	0.0054
731.2302	-0.0059
731.4084	0.0043
731.5866	-0.0065
731.7648	0.0018
731.9429	0.0032
732.1211	-0.0017
732.2992	0.0045
732.4773	-0.0047
732.6554	-0.0048
732.8335	0.0069
733.0115	0.0007
733.1896	0.011
733.3676	-0.005
733.5456	0.0032
733.7235	-0.0001
733.9015	0.0057
734.0794	0.0009
734.2574	0.0024
734.4353	0.0036
734.6131	-0.0045
734.791	0.0071
734.9689	0.0147
735.1467	0.0019
735.3245	0.0048
735.5023	0.0033
735.68	0.0087
735.8578	0.0068
736.0355	-0.0005
736.2132	0.0095
736.3909	0.007
736.5686	0.0117
736.7463	0.0159
736.9239	0.0056
737.1015	0.0102
737.2791	0.0089
737.4567	0.0079
737.6343	-0.0053
737.8118	0.006
737.9894	0.0042
738.1669	0.0027
738.3444	0.0044
738.5218	0.0071
738.6993	0.0015
738.8767	0.0029
739.0541	0.0028
739.2315	0.0037
739.4089	0.0084
739.5863	0.0045
739.7636	0.0038
739.9409	0.0061
740.1182	0.0039
740.2955	0.0171
740.4728	0.0069
740.65	-0.0055
740.8272	-0.0045
741.0044	-0.0014
741.1816	0.0021
741.3588	0.0026
741.5359	0.0161
741.7131	0.0068
741.8902	-0.0056
742.0673	0.0156
742.2444	-0.0013
742.4214	0.0042
742.5985	0.0064
742.7755	0.0034
742.9525	-0.0007
743.1295	0.0101
743.3064	0.0018
743.4834	0.0097
743.6603	0.0049
743.8372	-0.0024
744.0141	0.0105
744.191	0.0139
744.3678	0.0064
744.5446	0.001
744.7215	0.0149
744.8982	0.0036
745.075	0.0076
745.2518	-0.0022
745.4285	-0.0059
745.6052	0.0091
745.7819	-0.0104
745.9586	0.0064
746.1353	0.0034
746.3119	0.0037
746.4885	0.0081
746.6651	0.0056
746.8417	0.0062
747.0183	0.0176
747.1948	0.0061
747.3714	0.0109
747.5479	0
747.7244	0.0067
747.9008	0.0118
748.0773	0.0051
748.2537	-0.0009
748.4301	-0.0045
748.6065	0.0087
748.7829	-0.0002
748.9593	0.0023
749.1356	0.0054
749.3119	0.012
749.4882	0.0052
749.6645	0.002
749.8408	0.0039
750.017	0.0123
750.1933	0.0097
750.3695	0.0146
750.5457	0.0143
750.7218	0.0043
750.898	0.0169
751.0741	0.0255
751.2502	0.028
751.4263	0.0081
751.6024	0.0122
751.7784	0.01
751.9545	0.0042
752.1305	0.009
752.3065	0.0072
752.4825	0.0168
752.6584	0.0013
752.8344	0.0034
753.0103	-0.0021
753.1862	0.0102
753.3621	0.0093
753.5379	-0.003
753.7138	0.0006
753.8896	0.0114
754.0654	0.0042
754.2412	0.0014
754.417	-0.0019
754.5927	0.0065
754.7685	0.0033
754.9442	0.0043
755.1199	0.0139
755.2956	0.0017
755.4712	0.003
755.6469	0.0133
755.8225	0.0126
755.9981	0.0082
756.1736	0.0019
756.3492	0.0102
756.5248	0.0123
756.7003	0.0071
756.8758	0.0118
757.0513	0.0078
757.2267	0.0101
757.4022	0.005
757.5776	0.007
757.753	0.0054
757.9284	0.002
758.1038	0.0009
758.2791	0.0098
758.4545	0.0116
758.6298	0.0104
758.8051	0.0125
758.9803	0.015
759.1556	0.0123
759.3308	0.0043
759.506	0.0124
759.6812	0.0068
759.8564	0.0064
760.0316	0.0115
760.2067	-0.0007
760.3819	0.0007
760.557	0.0061
760.732	0.0063
760.9071	0.0119
761.0821	0.0089
761.2572	0.0191
761.4322	0.0038
761.6072	0.0084
761.7821	-0.0004
761.9571	0.0046
762.132	-0.0043
762.3069	0.0141
762.4818	-0.0027
762.6567	0.0007
762.8316	0.0049
763.0064	-0.0063
763.1812	0.008
763.356	0.0084
763.5308	0.0093
763.7055	0.0049
763.8803	0.0083
764.055	0.0041
764.2297	0.0048
764.4044	0.0068
764.579	0.0061
764.7537	0.0037
764.9283	0.0113
765.1029	0.0035
765.2775	0.003
765.4521	-0.0069
765.6266	-0.0041
765.8011	0.0038
765.9756	-0.0032
766.1501	0.006
766.3246	-0
766.4991	0.0063
766.6735	0.0057
766.8479	-0.0041
767.0223	-0.0084
767.1967	0.0053
767.371	0.0062
767.5454	0.0065
767.7197	0.0059
767.894	0.0118
768.0683	0.0108
768.2425	0.0071
768.4168	-0.0018
768.591	0.0143
768.7652	0.0079
768.9394	-0.0082
769.1135	0.0153
769.2877	0.006
769.4618	0.0129
769.6359	0.0075
769.81	0.0103
769.984	0.0021
770.1581	-0.0028
770.3321	0.0102
770.5061	-0.0023
770.6801	0.0035
770.8541	0.012
771.028	0.0001
771.202	0.0008
771.3759	-0.0088
771.5498	0.0133
771.7236	-0.0021
771.8975	0.0069
772.0713	-0.0048
772.2451	0.0006
772.4189	0.0012
772.5927	-0.0013
772.7665	0.0023
772.9402	0.0037
773.1139	0.0048
773.2876	-0.0026
773.4613	0.0043
773.635	0.0104
773.8086	0.0041
773.9822	0.0128
774.1558	0.0153
774.3294	0.0183
774.503	-0.0032
774.6765	0.0111
774.8501	0.0015
775.0236	0.0056
775.1971	0.013
775.3705	0.0185
775.544	0.0205
775.7174	0.0225
775.8908	0.0146
776.0642	0.0025
776.2376	0.0039
776.4109	-0.0036
776.5843	0.0012
776.7576	0.0073
776.9309	0.0046
777.1041	0.0157
777.2774	-0.0061
777.4506	0.0071
777.6238	0.0039
777.797	0.0113
777.9702	0.0067
778.1434	0.0204
778.3165	0.0003
778.4896	0.0124
778.6627	0.0012
778.8358	0.0094
779.0089	0.0108
779.1819	0.0055
779.3549	0.0083
779.5279	0.0009
779.7009	0.0166
779.8739	-0.0037
780.0468	0.0211
780.2197	0.0101
780.3926	0.0079
780.5655	-0.0053
780.7384	-0.003
780.9112	0.0143
781.0841	-0.0032
781.2569	-0.0139
781.4297	-0.0177
781.6024	0.0028
781.7752	-0.0146
781.9479	0.0032
782.1206	0.0053
782.2933	0.0146
782.466	0.0034
782.6386	0.0222
782.8113	-0.004
782.9839	0.0101
783.1565	0.0057
783.329	-0.0046
783.5016	-0.0038
783.6741	0.0133
783.8466	0.0031
784.0191	0.0145
784.1916	0.0042
784.3641	0.0137
784.5365	0.0019
784.7089	-0
784.8813	-0.0043
785.0537	-0.0078
785.2261	0.003
785.3984	0.0071
785.5707	-0.0092
785.743	0.007
785.9153	-0.0002
786.0876	0.018
786.2598	-0.004
786.432	0.0182
786.6042	0.0078
786.7764	0.0071
786.9486	-0.0014
787.1207	0.0085
787.2928	0.0036
787.4649	0.0094
787.637	0.0072
787.8091	0.0141
787.9811	-0.0058
788.1532	0.0039
788.3252	0.0036
788.4972	0.006
788.6691	0.0069
788.8411	-0.0068
789.013	-0.003
789.1849	0.0196
789.3568	0.0086
789.5287	-0.0081
789.7005	-0.0005
789.8723	0.0078
790.0442	0.0162
790.2159	0.0024
790.3877	0.0282
790.5595	0.0058
790.7312	-0.0002
790.9029	0.0159
791.0746	0.0244
791.2463	0.0092
791.4179	0.0078
791.5896	0.008
791.7612	0.0266
791.9328	0.0084
792.1044	0.0069
792.2759	0.0083
792.4474	0.015
792.619	0.0247
792.7905	0.024
792.9619	-0.0005
793.1334	0.0314
793.3048	0.0158
793.4762	0.0098
793.6476	-0.0121
793.819	0.0171
793.9904	0.0078
794.1617	0.0029
794.333	0.0045
794.5043	0.0035
794.6756	-0.0016
794.8469	0.0077
795.0181	0.0119
795.1893	-0.0208
795.3605	0.0186
795.5317	-0.0015
795.7029	-0.0033
795.874	0.0013
796.0452	0.0131
796.2163	0.0178
796.3873	0.003
796.5584	0.0165
796.7294	0.0063
796.9005	0.0052
797.0715	-0.0033
797.2425	0.003
797.4134	0.018
797.5844	0.0066
797.7553	0.0303
797.9262	0.0074
798.0971	0.0275
798.2679	0.0136
798.4388	0.003
798.6096	-0.0163
798.7804	0.0049
798.9512	0.0089
799.122	0.0145
799.2927	0.0064
799.4635	0.0197
799.6342	0.0232
799.8049	0.0103
799.9755	0.0238
800.1462	0.0119
800.3168	0.0161
800.4874	-0.0004
800.658	0.0075
800.8286	0.0195
800.9991	0.0143
801.1696	0.0143
801.3402	0.0124
801.5106	0.0325
801.6811	-0.0171
801.8516	0.0135
802.022	0.0053
802.1924	-0.0091
802.3628	0.0121
802.5332	0.0117
802.7035	-0.0092
802.8739	0.0085
803.0442	0.0168
803.2145	-0.0061
803.3847	0.0166
803.555	0.0026
803.7252	0.0026
803.8954	-0.0089
804.0656	-0.0102
804.2358	0.0149
804.4059	0.0307
804.5761	0.0176
804.7462	0.0074
804.9163	0.0045
805.0864	0.0021
805.2564	0.0105
805.4264	0.0076
805.5965	0.0069
805.7665	0.0206
805.9364	-0.0092
806.1064	0.0103
806.2763	0.0081
806.4462	0.0065
806.6161	0.0203
806.786	-0.0024
806.9559	0.0245
807.1257	0.0093
807.2955	0.0175
807.4653	0.0409
807.6351	0.0163
807.8048	0.0142
807.9746	0.0105
808.1443	0.0163
808.314	0.0084
808.4837	0.0247
808.6533	0.0062
808.8229	0.011
808.9926	0.0289
809.1622	0.0141
809.3317	0.02
809.5013	0.0397
809.6708	0.0341
809.8403	0.0023
810.0098	0.0212
810.1793	0.0243
810.3488	-0.0168
810.5182	0.0132
810.6876	0.013
810.857	0.0069
811.0264	0.0218
811.1958	0.009
811.3651	0.0226
811.5344	0.0322
811.7037	0.0086
811.873	0.0133
812.0422	-0.0051
812.2115	0.0158
812.3807	0.029
812.5499	0.0132
812.7191	0.0148
812.8882	0.0153
813.0574	0.0186
813.2265	0.0177
813.3956	0.0234
813.5646	-0.0049
813.7337	0.0223
813.9027	-0.0065
814.0718	0.0299
814.2407	0.0101
814.4097	0.0123
814.5787	0.0246
814.7476	0.004
814.9165	0.0086
815.0854	0.0184
815.2543	0.0188
815.4232	0.0142
815.592	0.019
815.7608	0.0282
815.9296	0.0067
816.0984	0.004
816.2671	-0.0043
816.4359	0.0044
816.6046	0.0134
816.7733	-0.0138
816.942	0.0187
817.1106	0.0025
817.2793	-0.0024
817.4479	-0.0119
817.6165	-0.0044
817.785	0.0041
817.9536	0.0002
818.1221	-0.0001
818.2906	0.0153
818.4591	-0.001
818.6276	0.0257
818.7961	0.0051
818.9645	0.0254
819.1329	0.0154
819.3013	-0.0143
819.4697	0.0197
819.638	-0.0108
819.8064	0.0082
819.9747	-0.0233
820.143	-0.0004
820.3113	0.0096
820.4795	-0.0124
820.6477	0.0136
820.816	-0.0121
820.9842	-0.0231
821.1523	0.0125
821.3205	0.0127
821.4886	0.006
821.6567	0.0033
821.8248	0.0315
821.9929	-0.0028
822.1609	-0.0113
822.329	0.0236
822.497	-0.0054
822.665	0.0017
822.833	-0.0097
823.0009	-0.0031
823.1688	-0.0222
823.3367	-0.0102
823.5046	-0.0171
823.6725	-0.0139
823.8404	-0.0121
824.0082	0.0137
824.176	0.0511
824.3438	-0.0169
824.5116	-0.0118
824.6793	-0.0138
824.847	0.0399
825.0147	-0.0077
825.1824	0.0106
825.3501	-0.0272
825.5177	0.0052
825.6854	0.0123
825.853	0.0341
826.0206	-0.0133
826.1881	-0.0022
826.3557	0.0189
826.5232	0.0211
826.6907	0.0223
826.8582	0.0329
827.0257	0.0329
827.1931	0.0105
827.3605	0.0333
827.528	0.027
827.6953	0.014
827.8627	0.0003
828.03	0.0167
828.1974	0.0534
828.3647	0.0178
828.532	0.0113
828.6992	0.0373
828.8665	0.0378
829.0337	0.0263
829.2009	0.0403
829.3681	-0.004
829.5352	-0.02
829.7024	0.0193
829.8695	0.0436
830.0366	0.0068
830.2037	0.0038
830.3707	0.0113
830.5378	-0.0222
830.7048	0.0139
830.8718	0.0034
831.0388	-0.0235
831.2057	0.0197
831.3727	0.0157
831.5396	0.0003
831.7065	-0.0196
831.8734	-0.0049
832.0402	0.006
832.2071	-0.0023
832.3739	-0.0109
832.5407	0.0408
832.7075	0.0066
832.8742	-0.008
833.041	-0.024
833.2077	0.0263
833.3744	0.0273
833.541	0.045
833.7077	0.0528
833.8743	0.0346
834.0409	0.0211
834.2075	0.0195
834.3741	0.0015
834.5407	0.0142
834.7072	0.008
834.8737	0.0166
835.0402	0.0076
835.2067	0.0105
835.3731	-0.0045
835.5395	-0.0165
835.706	0.0614
835.8723	-0.0398
836.0387	-0.0062
836.2051	-0.0008
836.3714	-0.0348
836.5377	0.0032
836.704	-0.014
836.8703	0.0159
837.0365	-0.045
837.2027	-0.0236
837.3689	0.0018
837.5351	0.0039
837.7013	-0.0289
837.8674	0.0018
838.0335	0.0064
838.1997	-0.0407
838.3657	0.0438
838.5318	-0.0216
838.6978	-0.0211
838.8639	-0.0253
839.0299	-0.0017
839.1958	-0.0034
839.3618	-0.0577
839.5277	0.0293
839.6937	0.0188
839.8596	-0.0376
840.0254	0.0045
840.1913	0.0049
840.3571	-0.0208
840.523	0.0312
840.6888	-0.0445
840.8545	0.0524
841.0203	0.0373
841.186	0.0554
841.3517	0.0006
841.5174	0.0259
841.6831	0.0311
841.8488	0.0031
842.0144	0.0558
842.18	0.0074
842.3456	-0.0003
842.5112	0.0058
842.6767	-0.0074
842.8422	-0.0172
843.0077	0.0467
843.1732	0.0316
843.3387	-0.0373
843.5042	0.032
843.6696	0.0037
843.835	-0.0086
844.0004	-0.0591
844.1657	-0.024
844.3311	0.0383
844.4964	-0.0407
844.6617	-0.057
844.827	0.0469
844.9923	0.0531
845.1575	0.0433
845.3227	-0.0184
845.4879	-0.035
845.6531	-0.0243
845.8183	-0.0299
845.9834	0.0883
846.1485	0.0087
846.3136	0.036
846.4787	-0.0004
846.6438	0.0635
846.8088	-0.0111
846.9738	-0.0153
847.1388	0.0151
847.3038	0.0529
847.4687	0.1189
847.6337	-0.057
847.7986	0.0414
847.9635	0.04
848.1284	-0.0377
848.2932	-0.0031
848.458	0.0719
848.6228	0.0838
848.7876	0.0184
848.9524	0.0207
849.1172	0.0038
849.2819	0.0653
849.4466	0.0598
849.6113	0.0735
849.7759	-0.0725
849.9406	0.0308
850.1052	-0.0518
850.2698	0.0675
850.4344	0.0124
850.599	0.0011
850.7635	0.0341
850.928	-0.0006
851.0925	0.0553
851.257	0.0039
851.4215	-0.0006
851.5859	0.022
851.7503	-0.0504
851.9147	0.0701
852.0791	0.0763
852.2434	0.051
852.4078	-0.0504
852.5721	0.1692
852.7364	-0.0094
852.9007	-0.1455
853.0649	0.0705
853.2291	0.1261
853.3934	0.0346
853.5575	0.0085
853.7217	0.055
853.8859	-0.012
854.05	0.0998
854.2141	0.0686
854.3782	0.086
854.5423	0.0241
854.7063	0.042
854.8703	-0.0007
855.0343	0.0576
855.1983	-0.0454
855.3623	-0.0693
855.5262	0.0798
855.6901	-0.2017
855.854	-0.0564
856.0179	0.0054
856.1818	0.1906
856.3456	0.0117
856.5094	0.0646
856.6732	-0.0206
856.837	-0.0275
857.0008	-0.2257
857.1645	0.081
857.3282	0.1656
857.4919	0.0458
857.6556	0.0376
857.8192	0.1099
857.9828	0.0259
858.1465	-0.1108
858.31	-0.096
858.4736	0.1004
858.6372	-0.1509
858.8007	-0.1313
858.9642	0.0416
859.1277	-0.1386
859.2911	-0.0602
859.4546	-0.0361
859.618	-0.4299
859.7814	-0.0417
859.9448	0.0776
860.1081	-0.0171
860.2715	0.0509
860.4348	0.0721
860.5981	0.653
860.7614	0.0113
860.9246	0.0728
861.0879	-0.0013
861.2511	0.107
861.4143	-0.2295
861.5774	-0.0599
861.7406	0.2825
861.9037	0.2184
862.0668	0.1265
862.2299	0.019
862.393	0.0645
862.556	0.1705
862.7191	0.1749
862.8821	-0.2374
863.0451	0.0684
863.208	0.1119
863.371	-0.2169
863.5339	-0.0631
863.6968	0.0935
863.8597	-0.1065
864.0225	-0.0679
864.1854	0.2222
864.3482	-0.2012
864.511	0.0684
864.6737	-0.1261
864.8365	0.1054
864.9992	0.0763
865.1619	-0.262
865.3246	-0
865.4873	0.0045
865.65	-0.4495
865.8126	0.1374
865.9752	0.1325
866.1378	0.1835
866.3004	0.5287
866.4629	0.0976
866.6254	0.452
866.7879	-0.0793
866.9504	0.0775
867.1129	0.0602
867.2753	0.5045
867.4377	0.1311
867.6001	0.7947
867.7625	0.1119
867.9249	-0.1849
868.0872	0.185
868.2495	-0.0357
868.4118	0.0916
868.5741	0.5842
868.7363	-0
868.8986	-0.0403
869.0608	-0.3286
869.223	0.0755
869.3851	0.1077
869.5473	-0.2439
869.7094	-0.0835
869.8715	0.4958
870.0336	-0
870.1957	-0
870.3577	-0.3046
870.5197	0.3345
870.6817	0.2397
870.8437	0.7653
871.0057	-0.4937
871.1676	-0.2646
871.3295	-0
871.4914	0.1165
871.6533	0.5282
871.8151	-0.2592
871.977	-0
872.1388	0.0192
872.3006	0.0621
872.4623	0.0295
872.6241	0.415
872.7858	0.1418
872.9475	-0.1266
873.1092	0.3717
873.2709	-0
873.4325	-0
873.5941	0.1681
873.7557	-0.906
873.9173	-0.168
874.0789	0.4072
874.2404	-0
874.4019	-0
874.5634	-0.1418
874.7249	0.646
874.8863	0.2086
875.0478	0.1533
875.2092	0.6186
875.3706	-0.1513
875.5319	-0
875.6933	0.3536
875.8546	0.0671
876.0159	-0.0734
876.1772	-0.4796
876.3385	-0.4839
876.4997	-0
876.6609	1.0228
876.8221	-0.8677
876.9833	-0.699
877.1445	0.0801
877.3056	-0.1432
877.4667	-0.0723
877.6278	0.0652
877.7889	0.2993
877.9499	1.1749
878.111	-0
878.272	0.0687
878.433	-0.1476
878.5939	1.2801
878.7549	0.0606
878.9158	-0.2331
879.0767	-0.19
879.2376	0.0045
879.3984	-0
879.5593	0.9371
879.7201	-0.0843
879.8809	-0
880.0417	-0.0151
880.2024	-0.0981
880.3632	-0.0961
880.5239	0.3099
880.6846	-0.3746
880.8452	-0.2675
881.0059	-0
881.1665	-0
881.3271	-0.3162
881.4877	-0
881.6483	-0
881.8088	-0.0077
881.9693	-0
882.1298	-0
882.2903	-0
