Data from MonoPyChalIsomerACN10uM400nmA_Absorbance_12-08-46-328.txt Node
Date: Fri Jul 05 12:08:46 BST 2024
User: LASERRRRR
Spectrometer: FLMT03099
Trigger mode: 0
Integration Time (sec): 1.000000E-1
Scans to average: 1
Electric dark correction enabled: true
Nonlinearity correction enabled: false
Boxcar width: 0
XAxis mode: Wavelengths
Number of Pixels in Spectrum: 3648
>>>>>Begin Spectral Data<<<<<
179.3399	0.3646
179.5586	0.3646
179.7771	0.3646
179.9957	0.6745
180.2143	-0.1747
180.4329	0.5342
180.6514	-0.491
180.8699	-0.2751
181.0885	0.0405
181.307	0.2705
181.5255	-0.7214
181.744	-0
181.9625	-0.6037
182.181	-0.2759
182.3994	-0.4975
182.6179	-0.0656
182.8363	-0.029
183.0547	0.0875
183.2732	0.2687
183.4916	0.0811
183.71	0.2449
183.9284	0.1021
184.1467	0.1186
184.3651	0.0891
184.5835	0.1084
184.8018	0.0625
185.0201	0.1407
185.2385	0.1659
185.4568	0.5521
185.6751	0.0142
185.8934	-0.0693
186.1117	0.0453
186.3299	0.2998
186.5482	-0.0205
186.7664	0.1929
186.9847	0.1236
187.2029	0.1251
187.4211	-0.3496
187.6393	0.0473
187.8575	-0.0089
188.0757	0.0879
188.2939	0.1406
188.512	0.2372
188.7302	0.0836
188.9483	0.0598
189.1665	0.0007
189.3846	0.4
189.6027	0.2692
189.8208	0.1376
190.0389	0.1772
190.257	0.1953
190.475	0.4894
190.6931	0.1706
190.9111	0.2969
191.1292	0.4083
191.3472	0.3472
191.5652	0.1196
191.7832	1.6174
192.0012	0.4826
192.2192	0.3817
192.4371	0.3246
192.6551	0.2872
192.873	0.6221
193.091	0.4136
193.3089	0.5253
193.5268	0.4932
193.7447	0.5958
193.9626	0.4761
194.1805	0.3406
194.3984	0.3287
194.6162	0.5338
194.8341	0.4644
195.0519	0.6555
195.2697	0.5068
195.4875	0.9295
195.7054	0.4533
195.9231	0.5173
196.1409	0.495
196.3587	0.5829
196.5765	0.6956
196.7942	0.6832
197.012	0.8468
197.2297	0.727
197.4474	0.5826
197.6651	0.7354
197.8828	0.6265
198.1005	0.7803
198.3182	1.2654
198.5358	0.7043
198.7535	0.5654
198.9711	0.6215
199.1888	0.7832
199.4064	0.8243
199.624	0.6138
199.8416	0.7058
200.0592	0.7716
200.2767	0.5331
200.4943	0.5883
200.7119	0.7733
200.9294	0.7795
201.1469	0.8449
201.3645	0.7424
201.582	0.7691
201.7995	0.708
202.017	0.8355
202.2344	0.5915
202.4519	0.7757
202.6694	0.8694
202.8868	0.8906
203.1042	0.7091
203.3217	0.6705
203.5391	0.8732
203.7565	0.7625
203.9739	0.6568
204.1913	0.8085
204.4086	0.7304
204.626	0.7358
204.8433	0.8505
205.0607	0.8562
205.278	0.8623
205.4953	0.6413
205.7126	0.7621
205.9299	1.0131
206.1472	0.7005
206.3644	0.577
206.5817	0.7528
206.7989	0.659
207.0162	0.732
207.2334	0.7704
207.4506	0.6937
207.6678	0.7356
207.885	0.7333
208.1022	0.8174
208.3194	0.728
208.5365	0.7489
208.7537	0.7127
208.9708	0.6352
209.1879	0.7775
209.405	0.7048
209.6222	0.8421
209.8392	0.7767
210.0563	0.7853
210.2734	0.7549
210.4905	0.7236
210.7075	0.7746
210.9245	0.8331
211.1416	0.7452
211.3586	0.8186
211.5756	0.7206
211.7926	0.8469
212.0096	0.6501
212.2265	0.685
212.4435	0.7322
212.6604	0.7152
212.8774	0.7123
213.0943	0.7788
213.3112	0.7125
213.5281	0.6592
213.745	0.6624
213.9619	0.712
214.1788	0.6417
214.3956	0.6541
214.6125	0.6051
214.8293	0.7379
215.0461	0.6659
215.2629	0.6854
215.4798	0.6432
215.6965	0.6679
215.9133	0.68
216.1301	0.6509
216.3469	0.6269
216.5636	0.6363
216.7803	0.5955
216.9971	0.6945
217.2138	0.6369
217.4305	0.6007
217.6472	0.592
217.8639	0.6082
218.0805	0.5774
218.2972	0.5679
218.5138	0.6177
218.7305	0.5399
218.9471	0.5924
219.1637	0.5636
219.3803	0.5364
219.5969	0.5406
219.8135	0.5465
220.0301	0.543
220.2466	0.5536
220.4632	0.5618
220.6797	0.5833
220.8962	0.5358
221.1127	0.5256
221.3292	0.5096
221.5457	0.5446
221.7622	0.5367
221.9787	0.5358
222.1951	0.5315
222.4116	0.5616
222.628	0.5774
222.8444	0.5546
223.0608	0.5246
223.2772	0.524
223.4936	0.5664
223.71	0.5546
223.9264	0.5375
224.1427	0.546
224.3591	0.5774
224.5754	0.5708
224.7917	0.5413
225.008	0.5609
225.2243	0.5454
225.4406	0.5588
225.6569	0.5433
225.8732	0.5665
226.0894	0.534
226.3057	0.5758
226.5219	0.5663
226.7381	0.5763
226.9543	0.5567
227.1705	0.5659
227.3867	0.5525
227.6029	0.5411
227.8191	0.5476
228.0352	0.5804
228.2513	0.6117
228.4675	0.5435
228.6836	0.6013
228.8997	0.5558
229.1158	0.572
229.3319	0.5562
229.548	0.6079
229.764	0.5891
229.9801	0.5533
230.1961	0.615
230.4121	0.5953
230.6282	0.5815
230.8442	0.5703
231.0602	0.5537
231.2761	0.589
231.4921	0.5792
231.7081	0.5382
231.924	0.6134
232.14	0.5832
232.3559	0.5646
232.5718	0.6047
232.7877	0.5668
233.0036	0.5843
233.2195	0.5605
233.4353	0.6059
233.6512	0.5747
233.867	0.5768
234.0829	0.5697
234.2987	0.6138
234.5145	0.5372
234.7303	0.577
234.9461	0.5595
235.1619	0.5688
235.3776	0.5586
235.5934	0.5473
235.8091	0.5618
236.0249	0.5407
236.2406	0.5548
236.4563	0.5521
236.672	0.5614
236.8877	0.5625
237.1034	0.536
237.319	0.5457
237.5347	0.5363
237.7503	0.5297
237.966	0.5268
238.1816	0.5582
238.3972	0.5735
238.6128	0.5568
238.8284	0.5427
239.0439	0.5675
239.2595	0.55
239.475	0.561
239.6906	0.4949
239.9061	0.5237
240.1216	0.5218
240.3371	0.515
240.5526	0.5363
240.7681	0.5361
240.9836	0.5243
241.199	0.4979
241.4145	0.5172
241.6299	0.4825
241.8453	0.5083
242.0607	0.4993
242.2761	0.4835
242.4915	0.4663
242.7069	0.4529
242.9223	0.4685
243.1376	0.454
243.353	0.4694
243.5683	0.4619
243.7836	0.44
243.9989	0.4256
244.2142	0.4398
244.4295	0.3754
244.6448	0.3982
244.86	0.394
245.0753	0.3949
245.2905	0.394
245.5057	0.377
245.721	0.3798
245.9362	0.3571
246.1514	0.3475
246.3665	0.3269
246.5817	0.3651
246.7969	0.3323
247.012	0.329
247.2271	0.3385
247.4423	0.3159
247.6574	0.3178
247.8725	0.3057
248.0876	0.2972
248.3026	0.3029
248.5177	0.3084
248.7328	0.2881
248.9478	0.296
249.1628	0.2501
249.3779	0.2539
249.5929	0.2751
249.8079	0.2719
250.0228	0.2634
250.2378	0.2686
250.4528	0.2501
250.6677	0.2616
250.8827	0.2314
251.0976	0.2389
251.3125	0.2465
251.5274	0.2402
251.7423	0.2441
251.9572	0.2282
252.172	0.2213
252.3869	0.2309
252.6017	0.2293
252.8166	0.2104
253.0314	0.2145
253.2462	0.2127
253.461	0.2207
253.6758	0.1974
253.8906	0.2101
254.1053	0.198
254.3201	0.2126
254.5348	0.1986
254.7496	0.216
254.9643	0.193
255.179	0.1997
255.3937	0.2078
255.6083	0.1828
255.823	0.1884
256.0377	0.1951
256.2523	0.205
256.467	0.2014
256.6816	0.1868
256.8962	0.188
257.1108	0.1957
257.3254	0.1998
257.54	0.1933
257.7545	0.1903
257.9691	0.1966
258.1836	0.1835
258.3981	0.1883
258.6127	0.1922
258.8272	0.1999
259.0417	0.1837
259.2561	0.1839
259.4706	0.1939
259.6851	0.1925
259.8995	0.1846
260.114	0.1732
260.3284	0.1814
260.5428	0.1847
260.7572	0.183
260.9716	0.1733
261.186	0.208
261.4003	0.1933
261.6147	0.1923
261.829	0.1969
262.0433	0.1914
262.2577	0.1912
262.472	0.2016
262.6863	0.201
262.9005	0.1856
263.1148	0.1853
263.3291	0.1963
263.5433	0.1834
263.7576	0.1983
263.9718	0.1789
264.186	0.203
264.4002	0.1957
264.6144	0.1847
264.8286	0.1979
265.0427	0.193
265.2569	0.2014
265.471	0.185
265.6851	0.1926
265.8993	0.1885
266.1134	0.1793
266.3275	0.1966
266.5415	0.1907
266.7556	0.1926
266.9697	0.1855
267.1837	0.202
267.3978	0.201
267.6118	0.1987
267.8258	0.2045
268.0398	0.2013
268.2538	0.2091
268.4677	0.1937
268.6817	0.186
268.8957	0.1929
269.1096	0.1963
269.3235	0.1964
269.5374	0.1859
269.7514	0.1773
269.9652	0.1951
270.1791	0.1762
270.393	0.1776
270.6068	0.2042
270.8207	0.1967
271.0345	0.1743
271.2483	0.1727
271.4622	0.1905
271.676	0.1851
271.8897	0.1921
272.1035	0.1819
272.3173	0.1908
272.531	0.1671
272.7448	0.1786
272.9585	0.1786
273.1722	0.1812
273.3859	0.1943
273.5996	0.1927
273.8133	0.1871
274.0269	0.1759
274.2406	0.1854
274.4542	0.1819
274.6679	0.1855
274.8815	0.1762
275.0951	0.1915
275.3087	0.1795
275.5223	0.1892
275.7358	0.1845
275.9494	0.195
276.1629	0.1895
276.3765	0.1808
276.59	0.1984
276.8035	0.1759
277.017	0.182
277.2305	0.1915
277.444	0.1718
277.6574	0.1813
277.8709	0.1809
278.0843	0.1988
278.2978	0.1775
278.5112	0.204
278.7246	0.1891
278.938	0.1906
279.1513	0.2094
279.3647	0.1709
279.5781	0.1889
279.7914	0.194
280.0047	0.1908
280.2181	0.1933
280.4314	0.1934
280.6447	0.1979
280.8579	0.1953
281.0712	0.1897
281.2845	0.1984
281.4977	0.1924
281.711	0.2033
281.9242	0.1899
282.1374	0.1802
282.3506	0.1787
282.5638	0.1934
282.7769	0.2024
282.9901	0.1977
283.2033	0.1912
283.4164	0.1854
283.6295	0.2039
283.8426	0.1876
284.0557	0.1768
284.2688	0.1805
284.4819	0.1847
284.695	0.1967
284.908	0.1996
285.1211	0.1884
285.3341	0.189
285.5471	0.198
285.7601	0.1929
285.9731	0.1923
286.1861	0.1986
286.3991	0.1894
286.612	0.1918
286.825	0.1957
287.0379	0.1908
287.2508	0.1806
287.4637	0.1959
287.6766	0.1695
287.8895	0.1788
288.1024	0.1917
288.3152	0.1905
288.5281	0.1849
288.7409	0.1705
288.9538	0.1899
289.1666	0.1765
289.3794	0.1778
289.5922	0.1853
289.8049	0.1638
290.0177	0.1804
290.2304	0.1762
290.4432	0.1713
290.6559	0.1743
290.8686	0.1793
291.0813	0.1608
291.294	0.1865
291.5067	0.1754
291.7194	0.1743
291.932	0.1892
292.1447	0.1872
292.3573	0.1704
292.5699	0.1713
292.7825	0.1691
292.9951	0.2016
293.2077	0.1932
293.4203	0.1886
293.6328	0.182
293.8454	0.165
294.0579	0.1794
294.2704	0.1738
294.4829	0.1873
294.6954	0.1904
294.9079	0.1779
295.1204	0.1748
295.3328	0.156
295.5453	0.1661
295.7577	0.1567
295.9701	0.1681
296.1825	0.1593
296.3949	0.176
296.6073	0.1687
296.8197	0.1678
297.0321	0.1672
297.2444	0.1601
297.4567	0.1624
297.6691	0.1753
297.8814	0.179
298.0937	0.1706
298.306	0.1691
298.5182	0.1728
298.7305	0.1725
298.9428	0.1708
299.155	0.1687
299.3672	0.1454
299.5794	0.1717
299.7916	0.1619
300.0038	0.1645
300.216	0.1603
300.4282	0.159
300.6403	0.1796
300.8525	0.1736
301.0646	0.1663
301.2767	0.1713
301.4888	0.1646
301.7009	0.1696
301.913	0.1721
302.125	0.1596
302.3371	0.1751
302.5491	0.1721
302.7612	0.1589
302.9732	0.1514
303.1852	0.1693
303.3972	0.161
303.6092	0.1605
303.8211	0.1674
304.0331	0.1469
304.245	0.1512
304.457	0.1488
304.6689	0.1556
304.8808	0.1462
305.0927	0.1478
305.3046	0.1559
305.5164	0.1558
305.7283	0.1575
305.9401	0.1493
306.152	0.1475
306.3638	0.1486
306.5756	0.1449
306.7874	0.1568
306.9992	0.1494
307.2109	0.1517
307.4227	0.1524
307.6344	0.1461
307.8462	0.1382
308.0579	0.1427
308.2696	0.1421
308.4813	0.1331
308.693	0.1435
308.9046	0.134
309.1163	0.1431
309.328	0.1295
309.5396	0.1514
309.7512	0.1247
309.9628	0.1192
310.1744	0.1358
310.386	0.1144
310.5976	0.1296
310.8091	0.1211
311.0207	0.1237
311.2322	0.1155
311.4437	0.132
311.6552	0.1318
311.8667	0.1214
312.0782	0.1182
312.2897	0.1062
312.5012	0.1168
312.7126	0.1218
312.924	0.1106
313.1355	0.1323
313.3469	0.1224
313.5583	0.1144
313.7696	0.1189
313.981	0.1152
314.1924	0.1182
314.4037	0.1125
314.6151	0.1123
314.8264	0.1107
315.0377	0.1101
315.249	0.1077
315.4603	0.1127
315.6716	0.1203
315.8828	0.1085
316.0941	0.1054
316.3053	0.1033
316.5165	0.1231
316.7277	0.1048
316.9389	0.1116
317.1501	0.11
317.3613	0.0981
317.5724	0.1205
317.7836	0.1054
317.9947	0.1144
318.2058	0.1026
318.417	0.1134
318.6281	0.1093
318.8391	0.1035
319.0502	0.0985
319.2613	0.115
319.4723	0.1171
319.6834	0.1149
319.8944	0.1119
320.1054	0.1097
320.3164	0.1247
320.5274	0.0988
320.7383	0.1163
320.9493	0.1096
321.1602	0.1169
321.3712	0.1106
321.5821	0.107
321.793	0.1198
322.0039	0.1242
322.2148	0.1125
322.4257	0.1095
322.6365	0.1088
322.8474	0.1062
323.0582	0.1145
323.269	0.1078
323.4798	0.1069
323.6906	0.1094
323.9014	0.1123
324.1122	0.1112
324.3229	0.1137
324.5337	0.12
324.7444	0.1222
324.9551	0.1265
325.1658	0.1197
325.3765	0.1036
325.5872	0.1141
325.7979	0.1221
326.0085	0.1058
326.2192	0.1165
326.4298	0.1268
326.6404	0.1175
326.851	0.1193
327.0616	0.1243
327.2722	0.1298
327.4828	0.1389
327.6933	0.1252
327.9039	0.1103
328.1144	0.1179
328.3249	0.1091
328.5354	0.1173
328.7459	0.1242
328.9564	0.1203
329.1669	0.1248
329.3773	0.1285
329.5878	0.1135
329.7982	0.1124
330.0086	0.1144
330.219	0.1163
330.4294	0.1174
330.6398	0.1253
330.8502	0.1197
331.0605	0.1367
331.2708	0.1145
331.4812	0.1211
331.6915	0.1186
331.9018	0.1228
332.1121	0.118
332.3224	0.1158
332.5326	0.1208
332.7429	0.1101
332.9531	0.1161
333.1633	0.1224
333.3735	0.1119
333.5837	0.1119
333.7939	0.1202
334.0041	0.1209
334.2143	0.1185
334.4244	0.1279
334.6346	0.1033
334.8447	0.1209
335.0548	0.1208
335.2649	0.1163
335.475	0.1156
335.685	0.1165
335.8951	0.1304
336.1051	0.132
336.3152	0.1223
336.5252	0.1162
336.7352	0.1242
336.9452	0.1226
337.1552	0.1225
337.3652	0.1264
337.5751	0.1222
337.7851	0.1213
337.995	0.115
338.2049	0.1156
338.4148	0.1316
338.6247	0.1205
338.8346	0.125
339.0445	0.1185
339.2543	0.1305
339.4642	0.1297
339.674	0.1297
339.8838	0.1269
340.0936	0.1304
340.3034	0.1332
340.5132	0.1341
340.7229	0.1363
340.9327	0.1292
341.1424	0.1221
341.3522	0.1213
341.5619	0.1298
341.7716	0.1315
341.9813	0.1375
342.1909	0.1339
342.4006	0.1307
342.6102	0.126
342.8199	0.123
343.0295	0.13
343.2391	0.1333
343.4487	0.1295
343.6583	0.141
343.8679	0.14
344.0774	0.1316
344.287	0.1317
344.4965	0.1321
344.706	0.1446
344.9155	0.1303
345.125	0.1244
345.3345	0.1362
345.544	0.1529
345.7534	0.1503
345.9629	0.1369
346.1723	0.1282
346.3817	0.1409
346.5911	0.1373
346.8005	0.1368
347.0099	0.1445
347.2193	0.1534
347.4286	0.1502
347.638	0.1423
347.8473	0.1437
348.0566	0.1393
348.2659	0.1495
348.4752	0.1524
348.6845	0.1422
348.8937	0.1375
349.103	0.1464
349.3122	0.1388
349.5214	0.1467
349.7306	0.133
349.9398	0.1424
350.149	0.1499
350.3582	0.1497
350.5674	0.1468
350.7765	0.1462
350.9856	0.1318
351.1948	0.1363
351.4039	0.1578
351.613	0.147
351.822	0.1512
352.0311	0.1491
352.2402	0.139
352.4492	0.1544
352.6582	0.1539
352.8672	0.1642
353.0762	0.147
353.2852	0.1638
353.4942	0.1557
353.7032	0.1554
353.9121	0.1438
354.1211	0.1479
354.33	0.1574
354.5389	0.1563
354.7478	0.1572
354.9567	0.1527
355.1655	0.1579
355.3744	0.1636
355.5833	0.1713
355.7921	0.1576
356.0009	0.1665
356.2097	0.1615
356.4185	0.1328
356.6273	0.163
356.8361	0.1728
357.0448	0.1543
357.2536	0.1595
357.4623	0.1535
357.671	0.1638
357.8797	0.1618
358.0884	0.1749
358.2971	0.1656
358.5057	0.1812
358.7144	0.1643
358.923	0.1651
359.1316	0.1672
359.3402	0.1705
359.5488	0.1681
359.7574	0.1785
359.966	0.1684
360.1746	0.1693
360.3831	0.1478
360.5916	0.1688
360.8002	0.1784
361.0087	0.1843
361.2172	0.1751
361.4256	0.18
361.6341	0.1659
361.8426	0.18
362.051	0.171
362.2594	0.1825
362.4678	0.1913
362.6762	0.163
362.8846	0.1793
363.093	0.1739
363.3014	0.188
363.5097	0.1628
363.718	0.187
363.9264	0.1946
364.1347	0.1787
364.343	0.177
364.5513	0.1778
364.7595	0.1984
364.9678	0.1842
365.176	0.171
365.3842	0.1889
365.5925	0.1647
365.8007	0.1892
366.0089	0.1947
366.217	0.1892
366.4252	0.181
366.6333	0.1995
366.8415	0.1934
367.0496	0.1791
367.2577	0.2052
367.4658	0.1786
367.6739	0.2019
367.882	0.1953
368.09	0.2089
368.2981	0.1874
368.5061	0.1973
368.7141	0.1922
368.9221	0.1898
369.1301	0.1919
369.3381	0.2219
369.5461	0.2016
369.754	0.1908
369.962	0.1887
370.1699	0.1897
370.3778	0.2102
370.5857	0.2117
370.7936	0.2106
371.0015	0.1994
371.2093	0.215
371.4172	0.1974
371.625	0.1927
371.8328	0.1914
372.0406	0.2048
372.2484	0.1843
372.4562	0.1981
372.664	0.1838
372.8717	0.185
373.0795	0.2054
373.2872	0.2037
373.4949	0.1986
373.7026	0.2145
373.9103	0.2131
374.118	0.1848
374.3256	0.2193
374.5333	0.22
374.7409	0.1857
374.9485	0.2051
375.1561	0.2088
375.3637	0.1983
375.5713	0.2156
375.7789	0.2153
375.9864	0.2084
376.194	0.211
376.4015	0.2085
376.609	0.2103
376.8165	0.188
377.024	0.212
377.2315	0.2118
377.4389	0.2029
377.6464	0.2058
377.8538	0.2056
378.0612	0.2094
378.2686	0.2176
378.476	0.2052
378.6834	0.2053
378.8908	0.2085
379.0981	0.2093
379.3055	0.2372
379.5128	0.2225
379.7201	0.2257
379.9274	0.2037
380.1347	0.2017
380.342	0.2104
380.5492	0.2255
380.7565	0.2325
380.9637	0.2422
381.1709	0.2097
381.3781	0.2274
381.5853	0.2292
381.7925	0.2246
381.9997	0.203
382.2068	0.2137
382.4139	0.2138
382.6211	0.2262
382.8282	0.2242
383.0353	0.2124
383.2424	0.2389
383.4494	0.2122
383.6565	0.212
383.8635	0.2181
384.0706	0.2298
384.2776	0.2378
384.4846	0.2234
384.6916	0.2242
384.8986	0.2322
385.1055	0.2022
385.3125	0.2178
385.5194	0.2136
385.7263	0.2284
385.9333	0.2122
386.1402	0.2307
386.347	0.2352
386.5539	0.2241
386.7608	0.2199
386.9676	0.2137
387.1744	0.2255
387.3813	0.207
387.5881	0.2181
387.7948	0.2174
388.0016	0.2169
388.2084	0.2083
388.4151	0.21
388.6219	0.2299
388.8286	0.2159
389.0353	0.2146
389.242	0.2071
389.4487	0.2218
389.6553	0.1943
389.862	0.2075
390.0686	0.2037
390.2753	0.2182
390.4819	0.2092
390.6885	0.2132
390.8951	0.1888
391.1016	0.2054
391.3082	0.2035
391.5147	0.1945
391.7213	0.2038
391.9278	0.2157
392.1343	0.1973
392.3408	0.19
392.5473	0.2036
392.7537	0.1984
392.9602	0.2052
393.1666	0.2003
393.373	0.1837
393.5794	0.1988
393.7858	0.1945
393.9922	0.2021
394.1986	0.2006
394.4049	0.1926
394.6113	0.191
394.8176	0.1954
395.0239	0.1858
395.2302	0.1756
395.4365	0.1775
395.6428	0.1837
395.8491	0.1674
396.0553	0.1972
396.2615	0.1776
396.4678	0.1974
396.674	0.1704
396.8802	0.1999
397.0863	0.1742
397.2925	0.1746
397.4987	0.1857
397.7048	0.1758
397.9109	0.1936
398.117	0.1789
398.3231	0.1839
398.5292	0.1984
398.7353	0.1731
398.9413	0.1556
399.1474	0.1839
399.3534	0.1885
399.5594	0.19
399.7654	0.1842
399.9714	0.1745
400.1774	0.1618
400.3833	0.1779
400.5893	0.1831
400.7952	0.1727
401.0011	0.1866
401.207	0.1731
401.4129	0.1832
401.6188	0.1775
401.8247	0.1808
402.0305	0.1838
402.2364	0.1808
402.4422	0.1889
402.648	0.1754
402.8538	0.1735
403.0596	0.1673
403.2654	0.1972
403.4711	0.1637
403.6768	0.1777
403.8826	0.1744
404.0883	0.1764
404.294	0.1735
404.4997	0.1634
404.7054	0.1775
404.911	0.1791
405.1167	0.1646
405.3223	0.1872
405.5279	0.1767
405.7335	0.2066
405.9391	0.186
406.1447	0.169
406.3502	0.1829
406.5558	0.1827
406.7613	0.1907
406.9668	0.1645
407.1724	0.1799
407.3778	0.1937
407.5833	0.1777
407.7888	0.1761
407.9942	0.15
408.1997	0.1775
408.4051	0.1687
408.6105	0.1517
408.8159	0.1628
409.0213	0.1842
409.2267	0.1691
409.432	0.182
409.6374	0.1823
409.8427	0.1685
410.048	0.1815
410.2533	0.1786
410.4586	0.1525
410.6639	0.1805
410.8691	0.1513
411.0744	0.1698
411.2796	0.1507
411.4848	0.1541
411.69	0.1704
411.8952	0.1616
412.1004	0.1538
412.3056	0.1492
412.5107	0.1654
412.7158	0.1666
412.921	0.179
413.1261	0.1715
413.3312	0.1526
413.5362	0.1733
413.7413	0.1579
413.9464	0.1738
414.1514	0.1756
414.3564	0.1602
414.5614	0.1535
414.7664	0.159
414.9714	0.1627
415.1764	0.178
415.3813	0.1649
415.5863	0.1659
415.7912	0.1558
415.9961	0.1825
416.201	0.1747
416.4059	0.147
416.6108	0.1682
416.8156	0.1587
417.0205	0.1733
417.2253	0.1629
417.4301	0.173
417.6349	0.1751
417.8397	0.1529
418.0445	0.1599
418.2492	0.1523
418.454	0.1823
418.6587	0.1467
418.8634	0.157
419.0681	0.1794
419.2728	0.1566
419.4775	0.1691
419.6822	0.1753
419.8868	0.1708
420.0915	0.1284
420.2961	0.1569
420.5007	0.1572
420.7053	0.1517
420.9099	0.1526
421.1144	0.1708
421.319	0.1588
421.5235	0.1643
421.728	0.1428
421.9325	0.1532
422.137	0.1543
422.3415	0.154
422.546	0.1469
422.7504	0.1578
422.9549	0.1615
423.1593	0.1389
423.3637	0.1666
423.5681	0.1232
423.7725	0.1345
423.9769	0.145
424.1812	0.1575
424.3856	0.1598
424.5899	0.1451
424.7942	0.1452
424.9985	0.1509
425.2028	0.1319
425.4071	0.1305
425.6113	0.1514
425.8156	0.1415
426.0198	0.1377
426.224	0.133
426.4282	0.1428
426.6324	0.1431
426.8366	0.1399
427.0407	0.1348
427.2449	0.1362
427.449	0.1353
427.6531	0.1418
427.8572	0.1372
428.0613	0.1385
428.2654	0.1047
428.4694	0.1372
428.6735	0.1309
428.8775	0.13
429.0815	0.1272
429.2855	0.1365
429.4895	0.1174
429.6935	0.1253
429.8975	0.1203
430.1014	0.1183
430.3053	0.1123
430.5093	0.128
430.7132	0.1129
430.9171	0.1127
431.1209	0.1185
431.3248	0.1213
431.5286	0.1191
431.7325	0.122
431.9363	0.1158
432.1401	0.1032
432.3439	0.11
432.5477	0.1219
432.7514	0.1079
432.9552	0.0968
433.1589	0.1148
433.3627	0.1007
433.5664	0.1035
433.7701	0.0991
433.9737	0.079
434.1774	0.1089
434.3811	0.1001
434.5847	0.0991
434.7883	0.1032
434.9919	0.0862
435.1955	0.081
435.3991	0.0901
435.6027	0.0891
435.8062	0.0867
436.0098	0.085
436.2133	0.088
436.4168	0.0976
436.6203	0.083
436.8238	0.0717
437.0272	0.0743
437.2307	0.0942
437.4341	0.0854
437.6375	0.0883
437.841	0.068
438.0443	0.0794
438.2477	0.0855
438.4511	0.0546
438.6545	0.0706
438.8578	0.0732
439.0611	0.0714
439.2644	0.064
439.4677	0.0625
439.671	0.0532
439.8743	0.0466
440.0775	0.0539
440.2808	0.0578
440.484	0.0749
440.6872	0.0665
440.8904	0.0566
441.0936	0.055
441.2967	0.0534
441.4999	0.0446
441.703	0.0523
441.9062	0.0505
442.1093	0.0334
442.3124	0.0632
442.5155	0.0524
442.7185	0.05
442.9216	0.0269
443.1246	0.0574
443.3276	0.0545
443.5307	0.0405
443.7337	0.0496
443.9366	0.04
444.1396	0.0438
444.3426	0.0353
444.5455	0.0423
444.7484	0.0467
444.9513	0.0334
445.1542	0.0326
445.3571	0.0479
445.56	0.0425
445.7628	0.0492
445.9657	0.0437
446.1685	0.0335
446.3713	0.0281
446.5741	0.0456
446.7769	0.0383
446.9797	0.0311
447.1824	0.0262
447.3852	0.0533
447.5879	0.0332
447.7906	0.0513
447.9933	0.0338
448.196	0.0499
448.3986	0.03
448.6013	0.008
448.8039	0.0207
449.0066	0.0271
449.2092	0.0323
449.4118	0.0268
449.6143	0.0025
449.8169	0.0154
450.0195	-0.0022
450.222	0.0181
450.4245	0.0098
450.627	0.0121
450.8295	0.0189
451.032	0.0185
451.2345	0.0141
451.4369	0.0158
451.6394	0.0197
451.8418	0.0023
452.0442	0.0035
452.2466	-0.0024
452.449	0.017
452.6513	0.0136
452.8537	0.0178
453.056	0.0081
453.2583	0.0019
453.4607	0.015
453.663	0.0196
453.8652	0.0166
454.0675	-0.0103
454.2697	0.01
454.472	0.0211
454.6742	0.0058
454.8764	-0.0116
455.0786	0.0104
455.2808	-0.006
455.4829	0.009
455.6851	0.028
455.8872	0.0317
456.0893	-0.0034
456.2915	0.0065
456.4935	-0.0059
456.6956	-0.0089
456.8977	0.0097
457.0997	0.0271
457.3018	0.0178
457.5038	0.0182
457.7058	-0.005
457.9078	0.0025
458.1098	0.0004
458.3117	0.006
458.5137	-0.0017
458.7156	0.0033
458.9175	-0.0022
459.1194	-0.0003
459.3213	0
459.5232	-0.0206
459.725	0.0042
459.9269	-0.0013
460.1287	0.0202
460.3305	0.0021
460.5323	0.0103
460.7341	0.0005
460.9359	0.0072
461.1376	0.0145
461.3394	-0.0066
461.5411	-0.0061
461.7428	0.0195
461.9445	0.0023
462.1462	-0.0003
462.3479	-0.0316
462.5495	-0.0119
462.7512	0.0052
462.9528	0.011
463.1544	0.0018
463.356	0.005
463.5576	-0.0063
463.7592	-0.0112
463.9607	0.0206
464.1623	0.0048
464.3638	-0.001
464.5653	-0.0069
464.7668	-0.0041
464.9683	-0.0014
465.1697	0.0111
465.3712	-0.0026
465.5726	0.0156
465.7741	0.0187
465.9755	-0.0171
466.1769	0.004
466.3782	0.0079
466.5796	-0.0161
466.7809	-0.0011
466.9823	0.0019
467.1836	0.0093
467.3849	0.0221
467.5862	-0.012
467.7875	0.0133
467.9887	-0.0092
468.19	0.0017
468.3912	0.0134
468.5924	0.0015
468.7936	-0.0036
468.9948	-0.017
469.196	0.0013
469.3972	-0.0017
469.5983	0.0215
469.7994	-0.0012
470.0006	-0.0236
470.2017	0.0055
470.4027	0.0005
470.6038	0.0004
470.8049	-0.0082
471.0059	-0.0058
471.2069	-0.0096
471.408	-0.0063
471.6089	0.0019
471.8099	-0.0026
472.0109	-0.0053
472.2119	0.0136
472.4128	-0.0239
472.6137	0.0015
472.8146	0.0006
473.0155	-0.0111
473.2164	-0.0054
473.4173	-0.0032
473.6181	-0.0077
473.819	0.007
474.0198	-0.0141
474.2206	-0.0032
474.4214	0.0006
474.6222	0.0004
474.8229	-0.0107
475.0237	0.0051
475.2244	0.0058
475.4251	0.0083
475.6258	-0.0013
475.8265	-0.0189
476.0272	-0.0046
476.2278	-0.0094
476.4285	-0.004
476.6291	-0.0016
476.8297	0.0027
477.0303	0.005
477.2309	0.0128
477.4315	-0.0148
477.632	-0.0118
477.8326	0.0034
478.0331	-0.0262
478.2336	-0.01
478.4341	-0.0092
478.6346	-0.0062
478.8351	-0.0115
479.0355	-0.0155
479.236	-0.0013
479.4364	-0.0122
479.6368	0.0055
479.8372	-0.0012
480.0376	-0.0039
480.2379	-0.0055
480.4383	-0.0003
480.6386	-0.0082
480.8389	-0.009
481.0392	-0.0013
481.2395	-0.0137
481.4398	-0.0274
481.6401	-0.0084
481.8403	0.0057
482.0405	-0.0003
482.2408	-0.0141
482.441	-0.0108
482.6411	-0.0229
482.8413	-0.0063
483.0415	-0.0024
483.2416	-0.0056
483.4417	0.0006
483.6419	-0.0116
483.8419	-0.0167
484.042	0.014
484.2421	-0.0092
484.4422	-0.0061
484.6422	0.0108
484.8422	0.001
485.0422	-0.0044
485.2422	-0.0047
485.4422	-0.0045
485.6422	-0.0122
485.8421	-0.0004
486.042	-0.0025
486.242	-0.0116
486.4419	0.0064
486.6417	0.0069
486.8416	-0.0136
487.0415	-0.0069
487.2413	-0.0052
487.4411	0.014
487.641	-0.0029
487.8408	-0.0019
488.0405	-0.0012
488.2403	0.0064
488.4401	-0.0012
488.6398	-0.0021
488.8395	-0.0071
489.0392	-0.0068
489.2389	-0.0236
489.4386	-0.0038
489.6383	-0.0121
489.8379	0.0058
490.0376	-0.0017
490.2372	-0.0118
490.4368	-0.0145
490.6364	-0.0013
490.836	-0.0075
491.0355	-0.0182
491.2351	-0.0179
491.4346	-0.0086
491.6341	-0.008
491.8336	-0.0075
492.0331	-0.0079
492.2326	-0.0057
492.432	-0.0091
492.6315	-0.0027
492.8309	-0.0129
493.0303	-0.0173
493.2297	-0.0063
493.4291	-0.0185
493.6284	-0.0169
493.8278	-0.0094
494.0271	-0.0078
494.2264	-0.014
494.4257	-0.0142
494.625	-0.0078
494.8243	-0.0027
495.0236	-0.0173
495.2228	-0.0074
495.422	-0.0084
495.6213	-0.0034
495.8205	-0.0103
496.0196	-0.0101
496.2188	0.0009
496.418	-0.0128
496.6171	-0.0176
496.8162	-0.01
497.0153	-0.0081
497.2144	-0.0163
497.4135	-0.0016
497.6126	-0.0149
497.8116	-0.0144
498.0107	-0.0097
498.2097	-0.0122
498.4087	-0.0154
498.6077	-0.0129
498.8067	0.0081
499.0056	-0.0197
499.2046	0.0056
499.4035	-0.01
499.6024	-0.0189
499.8013	-0.0063
500.0002	-0.0146
500.199	-0.0032
500.3979	-0.001
500.5967	-0.0203
500.7956	-0.0052
500.9944	-0.0116
501.1932	-0.0018
501.3919	-0.0057
501.5907	-0.0091
501.7895	-0.0157
501.9882	-0.0014
502.1869	-0.0157
502.3856	-0.0073
502.5843	-0.0068
502.783	0.0041
502.9816	-0.0001
503.1803	-0.0162
503.3789	-0.016
503.5775	-0.0106
503.7761	-0.0124
503.9747	-0.0084
504.1732	-0.0081
504.3718	0.0091
504.5703	-0.007
504.7689	-0.0076
504.9674	-0.0022
505.1658	-0.004
505.3643	0.0038
505.5628	0.0013
505.7612	-0.0031
505.9597	-0.0017
506.1581	-0.0012
506.3565	-0.0159
506.5549	0.0007
506.7532	-0.0106
506.9516	-0.011
507.1499	-0.0111
507.3482	-0.0012
507.5465	0.005
507.7448	-0.0032
507.9431	-0.0112
508.1414	-0.0171
508.3396	-0.0144
508.5379	0.0055
508.7361	-0.0078
508.9343	-0.0094
509.1325	0.0051
509.3306	-0.0184
509.5288	-0.0089
509.7269	0.0028
509.9251	-0.0049
510.1232	-0.0056
510.3213	-0.0006
510.5193	-0.0076
510.7174	-0.0182
510.9154	0.0025
511.1135	-0.0126
511.3115	-0.0129
511.5095	-0.0099
511.7075	-0.0021
511.9055	-0.0103
512.1034	-0.001
512.3014	-0.0098
512.4993	0.0062
512.6972	-0.0037
512.8951	0.0086
513.093	-0.0153
513.2908	-0.0141
513.4887	0.0012
513.6865	-0.0007
513.8844	-0.0137
514.0822	0.0045
514.2799	-0.0169
514.4777	-0.0064
514.6755	0.0082
514.8732	-0.0059
515.0709	-0.0012
515.2687	-0.0001
515.4664	0.0006
515.664	-0.016
515.8617	-0.0135
516.0594	-0.0024
516.257	-0.007
516.4546	-0.0219
516.6522	0.0048
516.8498	-0.0126
517.0474	0.0011
517.2449	-0.0036
517.4425	-0.008
517.64	-0.02
517.8375	-0.0114
518.035	-0.0084
518.2325	-0.0201
518.43	-0.0017
518.6274	-0.0056
518.8249	0.0062
519.0223	-0.0033
519.2197	-0.0029
519.4171	-0.0003
519.6145	0.0001
519.8118	-0.0119
520.0092	-0.0045
520.2065	-0.0084
520.4038	-0.0145
520.6011	-0.0003
520.7984	0.0021
520.9956	0.0062
521.1929	-0.0069
521.3901	-0.0063
521.5874	-0.0098
521.7846	-0.0044
521.9818	-0.0064
522.1789	-0.0008
522.3761	0.0063
522.5732	-0.0125
522.7704	-0.0063
522.9675	-0.0048
523.1646	-0.0004
523.3617	-0.0082
523.5587	-0.0002
523.7558	-0.0018
523.9528	-0.005
524.1498	-0.0098
524.3468	-0.0051
524.5438	-0.0068
524.7408	-0.0126
524.9378	0.0181
525.1347	-0.0052
525.3316	0.0051
525.5285	-0.0112
525.7254	-0.0003
525.9223	-0.0084
526.1192	-0.0053
526.316	0.001
526.5129	-0.001
526.7097	0.0091
526.9065	-0.0068
527.1033	-0.0071
527.3	-0.0074
527.4968	-0.0101
527.6935	0.0044
527.8903	-0.0035
528.087	-0.0024
528.2837	0.0169
528.4804	-0.0065
528.677	0.0005
528.8737	-0.0039
529.0703	-0.0041
529.2669	-0.0038
529.4635	0.0049
529.6601	0.0038
529.8567	0.006
530.0532	-0.0001
530.2498	-0.008
530.4463	-0.0098
530.6428	-0.0005
530.8393	-0.0045
531.0358	0.0058
531.2322	0.0074
531.4287	0.0075
531.6251	-0.0009
531.8215	-0.0072
532.0179	-0.0124
532.2143	-0.0087
532.4107	0.0001
532.607	-0.0002
532.8034	-0.0043
532.9997	-0.0036
533.196	0.0046
533.3923	0.0039
533.5886	0.0042
533.7848	0
533.9811	-0.0024
534.1773	-0.0098
534.3735	0.0004
534.5697	-0.0033
534.7659	0.0006
534.9621	-0.0033
535.1582	-0.0042
535.3544	-0.0078
535.5505	-0.0016
535.7466	-0.0046
535.9427	0.0031
536.1387	-0.0004
536.3348	-0.0137
536.5308	-0.0047
536.7269	0.0079
536.9229	0.0004
537.1189	-0.0026
537.3148	-0.009
537.5108	0.009
537.7068	0.0016
537.9027	-0.0037
538.0986	-0.0016
538.2945	-0.0016
538.4904	0.0036
538.6863	0.0083
538.8821	-0.0039
539.078	-0.0037
539.2738	0.0041
539.4696	-0.0012
539.6654	-0.0026
539.8611	0.0062
540.0569	-0.0039
540.2526	-0.0012
540.4484	0.0034
540.6441	0.0054
540.8398	-0.0035
541.0355	0.0001
541.2311	-0.0009
541.4268	-0.0001
541.6224	0.0093
541.818	-0.0014
542.0136	-0.0091
542.2092	0.0017
542.4048	0.0014
542.6003	0.0017
542.7959	0.0066
542.9914	-0.0003
543.1869	-0.0041
543.3824	0.0099
543.5779	0.0072
543.7734	0.0009
543.9688	0.0028
544.1642	-0.0089
544.3596	0.0031
544.555	-0.0028
544.7504	0.0039
544.9458	0.0079
545.1411	0.0069
545.3365	0.003
545.5318	0.0072
545.7271	-0.0085
545.9224	0.0015
546.1177	-0.0188
546.3129	-0.0128
546.5081	-0.0097
546.7034	0.0011
546.8986	-0.0116
547.0938	-0.0075
547.289	0.006
547.4841	0.0078
547.6793	0.0081
547.8744	0.0026
548.0695	-0.005
548.2646	-0.0063
548.4597	0.0002
548.6548	0.003
548.8498	0.0116
549.0448	0.0059
549.2399	-0.004
549.4349	-0.0039
549.6298	0.0014
549.8248	-0.0059
550.0198	0.0066
550.2147	-0.0023
550.4096	-0.0034
550.6045	-0.0086
550.7994	-0.0116
550.9943	0.007
551.1892	0.0014
551.384	-0.0082
551.5788	0.0021
551.7737	-0.0101
551.9685	-0.0035
552.1632	0.0025
552.358	-0.0035
552.5528	-0.0049
552.7475	-0.006
552.9422	0.0076
553.1369	-0.0048
553.3316	0.0003
553.5263	0.0028
553.7209	-0.0051
553.9156	-0.0012
554.1102	-0.0089
554.3048	0.0063
554.4994	0.0013
554.694	-0.0028
554.8885	-0.0037
555.0831	0.0028
555.2776	0.0015
555.4721	0.0046
555.6666	-0.0098
555.8611	0.0004
556.0555	0.0105
556.25	0.0043
556.4444	0.0106
556.6388	0.011
556.8332	0.0014
557.0276	0.0096
557.222	-0.0026
557.4163	0.0047
557.6107	0.0137
557.805	0.0019
557.9993	-0.0002
558.1936	0.0022
558.3879	0.0106
558.5821	0.0071
558.7764	0.0119
558.9706	0.0004
559.1648	-0.0042
559.359	0.0039
559.5532	0.0004
559.7473	0.008
559.9415	0.0125
560.1356	0.0051
560.3297	0.0045
560.5238	0.0099
560.7179	0.0048
560.9119	-0.0032
561.106	0.0023
561.3	0.0104
561.494	0.0014
561.688	0.0029
561.882	0.0018
562.076	-0.0015
562.2699	0.0041
562.4639	0.0046
562.6578	-0.009
562.8517	0.0023
563.0456	0.0031
563.2395	0.0053
563.4333	-0.0082
563.6272	0.0034
563.821	-0.0097
564.0148	0.0053
564.2086	-0.0065
564.4024	0.0032
564.5961	0.0155
564.7899	0.0023
564.9836	0.0049
565.1773	0.0088
565.371	0.0038
565.5647	-0.0057
565.7584	0.0068
565.952	0.0043
566.1456	-0.0001
566.3393	0.0026
566.5329	0.0019
566.7264	0.0112
566.92	0.0055
567.1136	0.0111
567.3071	0.0016
567.5006	0.0089
567.6941	-0.0025
567.8876	0.0031
568.0811	-0.0025
568.2745	0.0007
568.468	0.0018
568.6614	0.0012
568.8548	0.0057
569.0482	0.0141
569.2416	0.0012
569.4349	0.0047
569.6283	-0.0023
569.8216	0.0075
570.0149	0.0025
570.2082	0.0128
570.4015	0.0011
570.5947	0.0023
570.788	0.0016
570.9812	0.0024
571.1744	-0.0017
571.3676	0.0031
571.5608	0.0029
571.754	-0.0028
571.9471	-0.0023
572.1402	0.0056
572.3333	0.0023
572.5264	0.0039
572.7195	-0.0025
572.9126	0.0046
573.1057	0.0019
573.2987	0.0055
573.4917	-0.0083
573.6847	-0.0065
573.8777	-0.0045
574.0707	0.0041
574.2636	0.0013
574.4566	0.0043
574.6495	0.0049
574.8424	0.0026
575.0353	0.0017
575.2281	0.0004
575.421	-0.0005
575.6138	0.0003
575.8067	0.0019
575.9995	0.0122
576.1923	0.0072
576.385	0.0043
576.5778	-0.0043
576.7706	0.0027
576.9633	-0.0025
577.156	-0.0018
577.3487	0.0041
577.5414	0.0018
577.734	-0.0096
577.9267	-0.0041
578.1193	0.0091
578.3119	0.002
578.5045	0.0016
578.6971	0.001
578.8897	0.0002
579.0822	0.0034
579.2747	0.0084
579.4673	0.0089
579.6598	0.0095
579.8522	0.0054
580.0447	-0.0033
580.2372	0.0058
580.4296	0.0124
580.622	-0.0002
580.8144	0.0072
581.0068	0.0043
581.1992	0.0059
581.3915	-0.0009
581.5839	0.0062
581.7762	0.0041
581.9685	-0.0041
582.1608	-0.0002
582.353	-0.0035
582.5453	0.0018
582.7375	-0.0056
582.9298	0.0028
583.122	0.0072
583.3142	-0.0009
583.5063	0.0053
583.6985	0.0012
583.8906	-0.0013
584.0827	-0.0066
584.2749	-0.0014
584.4669	-0.0045
584.659	-0.0004
584.8511	-0.0011
585.0431	-0.0107
585.2352	-0.0065
585.4272	0.0022
585.6192	0.0036
585.8111	-0.0013
586.0031	-0.0045
586.195	-0.0036
586.387	0.0003
586.5789	-0.0049
586.7708	-0.0011
586.9627	-0.0003
587.1545	0.008
587.3464	0.0068
587.5382	-0.0102
587.73	0.0085
587.9218	0.0017
588.1136	0.0052
588.3053	-0.001
588.4971	-0.0015
588.6888	0.0031
588.8805	0.001
589.0722	-0.0005
589.2639	0.0051
589.4556	-0.0052
589.6472	-0.0007
589.8389	-0.0002
590.0305	0.0008
590.2221	0.012
590.4137	-0.0001
590.6052	-0.0008
590.7968	-0.0006
590.9883	-0.0013
591.1798	-0.0025
591.3713	0.0001
591.5628	-0.0011
591.7543	0.0079
591.9458	0.0051
592.1372	0.0038
592.3286	0.0053
592.52	-0.0028
592.7114	0.0058
592.9028	-0.0031
593.0941	0.002
593.2855	0.0009
593.4768	-0.0015
593.6681	-0.0057
593.8594	0.0024
594.0506	-0.0157
594.2419	0.0056
594.4331	-0.0038
594.6244	0.0005
594.8156	0.0015
595.0067	0.0001
595.1979	-0.0071
595.3891	0.0023
595.5802	0.0008
595.7713	-0.0011
595.9624	-0.0016
596.1535	0.0015
596.3446	0.0087
596.5357	-0.0023
596.7267	-0.0014
596.9177	0.0075
597.1087	0.0181
597.2997	0.002
597.4907	-0.003
597.6817	-0.0013
597.8726	0.0072
598.0635	-0.0022
598.2544	0.005
598.4453	0.011
598.6362	0.0006
598.827	-0.0017
599.0179	-0.0009
599.2087	0.0026
599.3995	0.0071
599.5903	0.0063
599.7811	0.0079
599.9718	-0.0019
600.1626	0.0064
600.3533	-0.0032
600.544	-0.0017
600.7347	0.0053
600.9254	0.0006
601.116	0.0044
601.3067	-0.0096
601.4973	0.0016
601.6879	0.0035
601.8785	0.0052
602.0691	-0.0036
602.2596	0.0074
602.4502	0.002
602.6407	-0.003
602.8312	-0.0001
603.0217	0.0066
603.2122	0.0004
603.4027	-0.0006
603.5931	0.0053
603.7835	-0.0028
603.9739	0.0023
604.1643	0.0062
604.3547	-0.0019
604.5451	0.0002
604.7354	0.0066
604.9257	-0.0016
605.116	-0.0003
605.3063	0.0047
605.4966	-0.0039
605.6869	0.0084
605.8771	0.0027
606.0673	0.0007
606.2575	0.0006
606.4477	-0.0004
606.6379	0.0082
606.8281	-0.0055
607.0182	0.0012
607.2083	-0.0007
607.3985	0.0067
607.5885	0.0023
607.7786	0.002
607.9687	0.0003
608.1587	0.0027
608.3488	0.0049
608.5388	0.0024
608.7288	0.0027
608.9187	0.0001
609.1087	-0.0012
609.2986	0.002
609.4886	0.0012
609.6785	0.0015
609.8684	0.0051
610.0582	0.0114
610.2481	0.005
610.4379	0.0015
610.6278	-0.009
610.8176	0.0117
611.0074	-0.0014
611.1971	0.007
611.3869	-0.0032
611.5766	0.0011
611.7664	-0.0008
611.9561	0.0059
612.1458	0.0015
612.3354	0.0091
612.5251	0.0055
612.7147	-0.0042
612.9044	0.0096
613.094	0.008
613.2836	0.008
613.4731	-0.0017
613.6627	0.0044
613.8522	0.0098
614.0417	0.0038
614.2313	0.0041
614.4207	0.0056
614.6102	0.0063
614.7997	0.0018
614.9891	0.0039
615.1785	0.0072
615.3679	0.0058
615.5573	0.0087
615.7467	0.0001
615.9361	0.0051
616.1254	0.0015
616.3147	0.0036
616.504	0.0031
616.6933	-0.0002
616.8826	-0.0009
617.0718	-0.0024
617.2611	0.0033
617.4503	0.0068
617.6395	0.0102
617.8287	0.0144
618.0179	0.0012
618.207	0.0134
618.3961	0.0071
618.5853	0.0001
618.7744	0.0001
618.9634	0.0006
619.1525	0.0069
619.3416	0.0045
619.5306	0.0095
619.7196	-0.0011
619.9086	0.0127
620.0976	0.0099
620.2866	0.0055
620.4755	0.0024
620.6645	0.0051
620.8534	0.0063
621.0423	0.0056
621.2312	0.0038
621.42	0.0078
621.6089	0.0078
621.7977	0.0146
621.9865	0.0115
622.1753	0.0131
622.3641	0.0043
622.5529	0.0093
622.7416	0.0065
622.9303	0.0164
623.1191	0.0037
623.3078	0.0076
623.4964	0.005
623.6851	0.0114
623.8737	0.0169
624.0624	0.0066
624.251	0.0037
624.4396	0.0069
624.6282	0.0081
624.8167	0.0126
625.0053	0.0028
625.1938	0.0044
625.3823	0.0078
625.5708	0.0076
625.7593	-0.0014
625.9477	0.0076
626.1362	0.0067
626.3246	0.0144
626.513	-0.0029
626.7014	0.0061
626.8898	0.0042
627.0781	0.0041
627.2665	0.0053
627.4548	0.0066
627.6431	0.0058
627.8314	0.0049
628.0197	-0.0003
628.2079	0.0102
628.3962	0.0063
628.5844	0.0071
628.7726	0.0076
628.9608	0.0078
629.1489	0.0017
629.3371	0.0077
629.5252	0.0071
629.7134	0.0038
629.9015	0.0025
630.0895	0.013
630.2776	0.0036
630.4657	0.0044
630.6537	0.0072
630.8417	0.007
631.0297	0.0174
631.2177	0.0073
631.4057	0.007
631.5936	0.0104
631.7815	0.0081
631.9695	0.0136
632.1574	0.0047
632.3452	0.0114
632.5331	0.0079
632.7209	0.0059
632.9088	0.0035
633.0966	-0.0028
633.2844	-0.002
633.4722	0.0017
633.6599	0.0063
633.8477	0.0081
634.0354	-0.0003
634.2231	0.0061
634.4108	0.0063
634.5985	0.0032
634.7861	0.008
634.9738	0.0187
635.1614	0.0011
635.349	0.0102
635.5366	0.0023
635.7242	0.0153
635.9117	-0.0009
636.0993	0.0127
636.2868	0.0098
636.4743	0.0029
636.6618	0.0057
636.8492	0.0204
637.0367	0.0087
637.2241	0.0154
637.4115	0.0052
637.5989	0.0142
637.7863	0.0077
637.9737	0.0009
638.161	0.0096
638.3484	0.0094
638.5357	0.0106
638.723	-0.0002
638.9103	0.0069
639.0975	0.0009
639.2848	0.0026
639.472	0.0074
639.6592	0.0093
639.8464	0.0096
640.0336	-0.0016
640.2208	0.003
640.4079	0.0079
640.595	0.004
640.7821	0.0123
640.9692	0.0123
641.1563	0.0078
641.3434	0.004
641.5304	0.008
641.7174	0.0108
641.9044	0.0031
642.0914	0.0001
642.2784	-0.0032
642.4653	0.0027
642.6523	-0.0029
642.8392	-0.0041
643.0261	0.0067
643.213	-0.0007
643.3999	-0
643.5867	0.011
643.7735	0.0109
643.9604	0.001
644.1472	0.0043
644.3339	-0.0028
644.5207	0.0027
644.7075	0.0021
644.8942	0.0046
645.0809	0.0011
645.2676	0.0049
645.4543	0.0092
645.6409	0.0034
645.8276	0.0025
646.0142	0.0038
646.2008	0.013
646.3874	0.0094
646.574	0.0061
646.7605	0.0049
646.9471	0.008
647.1336	0.0125
647.3201	0.0105
647.5066	0.0012
647.6931	-0.0036
647.8795	-0.0022
648.0659	0.0099
648.2524	0.0075
648.4388	0.0055
648.6252	0.0017
648.8115	0.0023
648.9979	0.0058
649.1842	0.0036
649.3705	-0.0071
649.5568	0.0026
649.7431	0.0129
649.9294	0.0115
650.1156	0.0076
650.3018	0.0084
650.488	0.0012
650.6742	0.0004
650.8604	0.0031
651.0466	0.004
651.2327	0.011
651.4188	-0.0009
651.6049	0.0171
651.791	0.0095
651.9771	0.0115
652.1632	0.0083
652.3492	0.0066
652.5352	0.0044
652.7212	0.0061
652.9072	-0.0055
653.0932	0.0023
653.2791	0.0033
653.465	0.004
653.651	0.0072
653.8369	0.0072
654.0227	0.0053
654.2086	0.0012
654.3944	0.0112
654.5803	0.0003
654.7661	0.0116
654.9519	-0.0055
655.1377	-0.006
655.3234	-0.002
655.5092	-0.0037
655.6949	-0.0076
655.8806	-0.0101
656.0663	-0.0044
656.2519	-0.0053
656.4376	-0.0007
656.6232	0.0012
656.8088	0.0054
656.9945	0.0002
657.18	0.0006
657.3656	0.0061
657.5511	-0.003
657.7367	0.0032
657.9222	0.0075
658.1077	0.0033
658.2932	-0.0034
658.4786	-0.0054
658.6641	0.0015
658.8495	0.0069
659.0349	-0.0009
659.2203	0.0053
659.4057	-0.0012
659.591	0.01
659.7764	-0.0003
659.9617	-0.0058
660.147	0.0093
660.3323	0.002
660.5176	-0.0085
660.7028	0.0061
660.888	0.0091
661.0733	0.0101
661.2585	0.0156
661.4436	0.012
661.6288	0.0069
661.8139	0.0029
661.9991	-0.0037
662.1842	0.0047
662.3693	0.0068
662.5544	0.0079
662.7394	-0.0015
662.9245	0.0066
663.1095	0.0079
663.2945	0.0058
663.4795	0.0043
663.6644	0.0139
663.8494	0.0024
664.0343	0.0048
664.2193	0.0102
664.4042	0.0126
664.589	0.0032
664.7739	-0.0017
664.9587	0.0023
665.1436	0.0005
665.3284	0.0037
665.5132	-0.0004
665.698	0.012
665.8827	0.0071
666.0675	0.0015
666.2522	0.0079
666.4369	-0.0014
666.6216	0.006
666.8063	-0.0017
666.9909	0.0014
667.1756	0.0195
667.3602	0.0041
667.5448	0.0101
667.7294	0.0087
667.9139	0.0102
668.0985	0.0054
668.283	0.0052
668.4675	0.0002
668.652	0.0122
668.8365	-0.0046
669.0209	0.0033
669.2054	0.0003
669.3898	-0.0021
669.5742	0.0072
669.7586	0.0027
669.943	0.0042
670.1273	-0.0028
670.3117	0.0088
670.496	0.0011
670.6803	0.007
670.8646	0.0113
671.0488	0.0043
671.2331	0.0119
671.4173	0.0126
671.6015	0.0101
671.7857	0.0091
671.9699	0.0114
672.1541	0.0035
672.3382	0.0078
672.5223	0.0108
672.7064	0.0151
672.8905	0.0076
673.0746	0.0103
673.2587	0.0112
673.4427	-0.0022
673.6267	0.0065
673.8107	0.006
673.9947	0.0079
674.1787	0.0146
674.3626	0.016
674.5465	0.008
674.7304	0.01
674.9143	0.0064
675.0982	0.0022
675.2821	0.0037
675.4659	0.0115
675.6497	-0.0022
675.8335	0.0186
676.0173	0.006
676.2011	0.0012
676.3849	0.0073
676.5686	0.0176
676.7523	0.0117
676.936	-0.0087
677.1197	0.0106
677.3034	0.0039
677.487	0.0062
677.6706	0.0178
677.8542	0.0098
678.0378	0.0134
678.2214	0.004
678.405	0.0171
678.5885	0.0122
678.772	0.0102
678.9555	0.0104
679.139	0.01
679.3225	0.0035
679.5059	0.0127
679.6894	0.0115
679.8728	0.0059
680.0562	0.0099
680.2395	0.0052
680.4229	-0.0005
680.6062	-0.0015
680.7896	-0.0016
680.9729	0.0047
681.1562	0.0077
681.3394	0.0106
681.5227	0.0125
681.7059	0.0016
681.8891	0.0049
682.0723	0.0013
682.2555	0.0079
682.4387	0.0019
682.6218	0.0069
682.805	0.0063
682.9881	0.0116
683.1712	0.0106
683.3542	0.0072
683.5373	0.0122
683.7203	0.0121
683.9034	0.0096
684.0864	0.0038
684.2694	0.0038
684.4523	0.0092
684.6353	0.0042
684.8182	0.0151
685.0011	0.0074
685.184	0.003
685.3669	-0.0075
685.5498	-0.0005
685.7326	0.005
685.9154	0.0044
686.0982	0.0084
686.281	0.006
686.4638	0.0081
686.6465	0.0128
686.8293	0.0019
687.012	0.0042
687.1947	0.0111
687.3774	0.0054
687.56	0.0102
687.7427	0.0147
687.9253	0.0017
688.1079	0.0112
688.2905	0.005
688.4731	0.0038
688.6556	0.0111
688.8382	0.006
689.0207	0.0028
689.2032	0.0014
689.3857	0.0115
689.5681	0.0099
689.7506	-0.0018
689.933	-0.0012
690.1154	0.0017
690.2978	0.0016
690.4802	0.0079
690.6626	0.0085
690.8449	0.0106
691.0272	0.0043
691.2095	0.0109
691.3918	0.0042
691.5741	0.0127
691.7563	0.0067
691.9386	0.0062
692.1208	-0
692.303	0.0109
692.4852	0.0094
692.6673	0.0058
692.8495	0.0147
693.0316	0.009
693.2137	0.0147
693.3958	0.0149
693.5778	0.0105
693.7599	0.0131
693.9419	0.0091
694.1239	0.0107
694.3059	0.0046
694.4879	0.0019
694.6699	0.0044
694.8518	0.0062
695.0337	0.0024
695.2157	0.0087
695.3975	-0.0008
695.5794	0.0144
695.7613	0.0081
695.9431	0.0096
696.1249	0.0096
696.3067	0.003
696.4885	0.003
696.6703	0.0122
696.852	0.0052
697.0337	0.0139
697.2154	0.0127
697.3971	0.0046
697.5788	0.0044
697.7605	0.0047
697.9421	0.0017
698.1237	0.0163
698.3053	0.0073
698.4869	0.0074
698.6685	0.0007
698.85	0.0107
699.0315	0.01
699.213	0.01
699.3945	0.003
699.576	0.0142
699.7575	0.0135
699.9389	0.016
700.1203	0.0162
700.3017	0.014
700.4831	0.0129
700.6645	0.011
700.8458	0.0069
701.0271	0.0095
701.2084	0.0075
701.3897	0.0007
701.571	-0.004
701.7523	-0.0053
701.9335	-0.0023
702.1147	0.0032
702.2959	-0.0043
702.4771	0.0017
702.6583	0.0001
702.8394	0.0105
703.0205	0.0045
703.2016	0.0083
703.3827	0.0028
703.5638	0.0125
703.7449	0.016
703.9259	0.0065
704.1069	0.0124
704.2879	0.0017
704.4689	0.0069
704.6499	-0.0041
704.8308	0.0064
705.0117	0.0013
705.1927	0.0074
705.3735	-0.0026
705.5544	-0.0059
705.7353	0.0122
705.9161	0.007
706.0969	0.0092
706.2777	0.0015
706.4585	0.0049
706.6393	0.0062
706.82	0.0083
707.0007	-0.0019
707.1815	-0.0002
707.3621	0.003
707.5428	0.0071
707.7235	-0.0022
707.9041	0.0045
708.0847	0.0151
708.2653	0.0135
708.4459	0.0041
708.6265	0.0112
708.807	0.0086
708.9875	0.0193
709.168	0.0127
709.3485	0.0031
709.529	-0.005
709.7095	0.0047
709.8899	0.0069
710.0703	0.0071
710.2507	0.0043
710.4311	0.0097
710.6115	0.0096
710.7918	0.007
710.9721	0.0169
711.1524	0.0052
711.3327	0.0045
711.513	-0.0075
711.6932	-0.0025
711.8735	-0.0025
712.0537	-0.0025
712.2339	-0.0056
712.4141	-0.0064
712.5942	-0.003
712.7744	0.0048
712.9545	0.0062
713.1346	0.0057
713.3147	-0.0017
713.4947	-0.0006
713.6748	0.0036
713.8548	0.0058
714.0348	0.0103
714.2148	0.0064
714.3948	-0.0025
714.5748	0.0012
714.7547	0.0078
714.9346	0.0027
715.1145	0.0069
715.2944	-0.0027
715.4743	0.0078
715.6541	0.0116
715.834	0.0034
716.0138	0.0089
716.1936	0.0094
716.3733	0.0069
716.5531	0.013
716.7328	0.001
716.9126	0.0048
717.0923	0.0089
717.2719	0.0065
717.4516	-0.0025
717.6312	0.0053
717.8109	-0.0001
717.9905	-0.0007
718.1701	-0.0025
718.3496	0.0054
718.5292	-0.0024
718.7087	-0.0063
718.8882	-0.0014
719.0677	0.0068
719.2472	0.007
719.4267	0.006
719.6061	0.0062
719.7856	0.0071
719.965	0.0079
720.1443	0.0064
720.3237	0.0102
720.5031	0.0082
720.6824	0.002
720.8617	0.0025
721.041	-0.0008
721.2203	0.0086
721.3995	0.0025
721.5788	0.0053
721.758	-0.0038
721.9372	0.0062
722.1164	0.0027
722.2956	0.0017
722.4747	0.0057
722.6538	-0.0003
722.8329	0.0033
723.012	0.0033
723.1911	0.0081
723.3702	0.0076
723.5492	0.0054
723.7282	0.003
723.9072	0.0047
724.0862	0.0181
724.2652	0.0099
724.4441	0.0017
724.623	0.0105
724.8019	-0.0045
724.9808	0.0073
725.1597	0.0053
725.3385	0.0101
725.5174	0.0069
725.6962	-0.0011
725.875	0.0023
726.0538	0.0056
726.2325	0.0081
726.4112	-0.0014
726.59	0.0097
726.7687	-0.0034
726.9474	-0.0089
727.126	-0.0089
727.3047	-0.0168
727.4833	-0.0034
727.6619	-0.0059
727.8405	-0.0056
728.0191	-0.0033
728.1976	0.0027
728.3762	0.0033
728.5547	0.0006
728.7332	0.0133
728.9116	-0.0095
729.0901	-0.0022
729.2686	-0.0033
729.447	0.0013
729.6254	0.004
729.8038	0.0066
729.9821	-0.0044
730.1605	0.0048
730.3388	0.0045
730.5171	0.0005
730.6954	0.0054
730.8737	0.0035
731.0519	-0.0005
731.2302	0.0034
731.4084	0.0128
731.5866	-0.0036
731.7648	0.0076
731.9429	0.0036
732.1211	0.0018
732.2992	-0.0018
732.4773	-0.0072
732.6554	-0.0043
732.8335	-0.003
733.0115	0.0037
733.1896	0.0061
733.3676	0.0033
733.5456	-0.0007
733.7235	-0.0024
733.9015	0.0026
734.0794	-0.0047
734.2574	0.001
734.4353	0.0006
734.6131	0.0015
734.791	0.0009
734.9689	0.0133
735.1467	0.002
735.3245	-0.0038
735.5023	0.0144
735.68	0.0152
735.8578	0.0093
736.0355	0.0009
736.2132	0.0108
736.3909	0.0022
736.5686	0.009
736.7463	0.0082
736.9239	0.0098
737.1015	0.0155
737.2791	0.0121
737.4567	0.006
737.6343	0.0064
737.8118	0.0055
737.9894	-0.0014
738.1669	0.0041
738.3444	0.0078
738.5218	0.0027
738.6993	0.0072
738.8767	-0.0047
739.0541	-0.0029
739.2315	-0.0016
739.4089	0.0067
739.5863	0.0013
739.7636	0.0041
739.9409	-0.0008
740.1182	0.0025
740.2955	0.0132
740.4728	0.0079
740.65	-0.0072
740.8272	-0.0041
741.0044	-0.0064
741.1816	0.0114
741.3588	0.0074
741.5359	0.009
741.7131	-0.0012
741.8902	-0.0011
742.0673	0.0075
742.2444	0.0096
742.4214	0.0009
742.5985	0.0051
742.7755	0.0045
742.9525	0.0126
743.1295	0.0096
743.3064	0.0058
743.4834	0.0035
743.6603	-0.0011
743.8372	-0.0048
744.0141	0.0103
744.191	0.0044
744.3678	-0.0043
744.5446	-0.0074
744.7215	0.0148
744.8982	0.0111
745.075	0.0052
745.2518	0.0021
745.4285	-0.0053
745.6052	-0.0033
745.7819	-0.0004
745.9586	0.0083
746.1353	-0.0042
746.3119	-0.004
746.4885	0.0002
746.6651	0.0052
746.8417	-0.0048
747.0183	-0.0023
747.1948	0.0066
747.3714	0.0055
747.5479	0.003
747.7244	0.0018
747.9008	0.0079
748.0773	-0.0035
748.2537	0.0038
748.4301	0.0059
748.6065	0.0106
748.7829	-0.0005
748.9593	0.0027
749.1356	0.0082
749.3119	0.0226
749.4882	0.0055
749.6645	0.0097
749.8408	0.004
750.017	0.0133
750.1933	0.0158
750.3695	0.0115
750.5457	0.0146
750.7218	0.0136
750.898	0.0154
751.0741	0.0084
751.2502	0.0094
751.4263	0.008
751.6024	0.0074
751.7784	0.0081
751.9545	0.0075
752.1305	0.0019
752.3065	-0.0004
752.4825	0.0059
752.6584	0.0075
752.8344	-0.0004
753.0103	0.0098
753.1862	0.0015
753.3621	0.0018
753.5379	-0.0055
753.7138	0.002
753.8896	0.0054
754.0654	-0.0006
754.2412	-0.0063
754.417	0.0014
754.5927	0.006
754.7685	-0.0038
754.9442	0.0082
755.1199	0.0089
755.2956	0.0038
755.4712	0.0074
755.6469	0.0092
755.8225	0.008
755.9981	0.0163
756.1736	-0.0041
756.3492	0.0017
756.5248	0.0101
756.7003	0.0106
756.8758	0.0107
757.0513	0.0155
757.2267	0.0004
757.4022	0.0067
757.5776	0.0128
757.753	-0.0028
757.9284	0.0075
758.1038	-0.0073
758.2791	0.0022
758.4545	0.0049
758.6298	0.0134
758.8051	0.0079
758.9803	0.0112
759.1556	-0.0035
759.3308	0.0086
759.506	0.0098
759.6812	0.0018
759.8564	0.0153
760.0316	0.0081
760.2067	0.003
760.3819	0.0002
760.557	0.0038
760.732	0.005
760.9071	0.0095
761.0821	0.0178
761.2572	0.0177
761.4322	0.0058
761.6072	0.0051
761.7821	-0.0021
761.9571	0.0072
762.132	0.0015
762.3069	0.0116
762.4818	0.0086
762.6567	0.0024
762.8316	0
763.0064	-0.0046
763.1812	-0.0002
763.356	-0.0005
763.5308	0.0078
763.7055	-0.0005
763.8803	0.0094
764.055	0.002
764.2297	0.0101
764.4044	0.0024
764.579	0.0144
764.7537	-0.0084
764.9283	0.0078
765.1029	-0.0031
765.2775	0.0013
765.4521	0.0012
765.6266	-0.0068
765.8011	0.0144
765.9756	0.0016
766.1501	0.0091
766.3246	-0.0032
766.4991	0.0139
766.6735	0.0079
766.8479	-0.0001
767.0223	-0.0114
767.1967	0.0068
767.371	-0.0035
767.5454	-0.0112
767.7197	0.0089
767.894	0.0156
768.0683	0.0035
768.2425	0.0039
768.4168	0.002
768.591	0.006
768.7652	0.0055
768.9394	-0.0056
769.1135	0.008
769.2877	-0.0138
769.4618	0.0111
769.6359	0.0093
769.81	0.0024
769.984	-0.0019
770.1581	-0.0042
770.3321	0.0281
770.5061	-0.0082
770.6801	-0.0108
770.8541	0.0068
771.028	0.006
771.202	0.0043
771.3759	-0.0105
771.5498	0.0154
771.7236	0.0131
771.8975	-0.0083
772.0713	0.0004
772.2451	0.0091
772.4189	-0.0041
772.5927	0.0038
772.7665	-0.0095
772.9402	-0.0059
773.1139	0.0041
773.2876	-0.0095
773.4613	-0.0046
773.635	0.0004
773.8086	-0.004
773.9822	0.0088
774.1558	0.0073
774.3294	0.0169
774.503	0.0029
774.6765	0.0128
774.8501	0.0079
775.0236	0.0066
775.1971	0.0182
775.3705	0.014
775.544	0.0189
775.7174	0.0084
775.8908	0.0168
776.0642	0.0036
776.2376	0.0086
776.4109	0.002
776.5843	-0.0004
776.7576	0.0127
776.9309	0.0011
777.1041	0.0196
777.2774	0.006
777.4506	0.0054
777.6238	0.0059
777.797	0.0118
777.9702	0.0064
778.1434	0.021
778.3165	0.0104
778.4896	0.0021
778.6627	0.0085
778.8358	0.0103
779.0089	0.0111
779.1819	-0.0054
779.3549	0.0088
779.5279	0.0097
779.7009	0.0112
779.8739	-0.0022
780.0468	0.0003
780.2197	0.0017
780.3926	-0.0011
780.5655	0.0066
780.7384	-0.0099
780.9112	0.0018
781.0841	-0.0057
781.2569	0.0007
781.4297	-0.0233
781.6024	0.0115
781.7752	-0.0063
781.9479	-0.0061
782.1206	0.0043
782.2933	0.0081
782.466	0.0004
782.6386	0.0192
782.8113	-0.0042
782.9839	0.0066
783.1565	0.004
783.329	-0.001
783.5016	0.0005
783.6741	0.0192
783.8466	0.0047
784.0191	0.0021
784.1916	0.0055
784.3641	-0.0041
784.5365	0.0114
784.7089	0.0039
784.8813	0.0121
785.0537	0.0025
785.2261	0.0011
785.3984	0.0119
785.5707	0.0149
785.743	0.0047
785.9153	-0.0054
786.0876	0.0008
786.2598	-0.012
786.432	0.0113
786.6042	0.0034
786.7764	-0.0073
786.9486	0.0051
787.1207	0.0022
787.2928	0.0029
787.4649	0.0013
787.637	0.0055
787.8091	0.0153
787.9811	-0.006
788.1532	-0.0007
788.3252	0.0049
788.4972	-0.0041
788.6691	0.0067
788.8411	-0.0047
789.013	-0.0022
789.1849	0.0204
789.3568	0.0122
789.5287	-0.0035
789.7005	0.0155
789.8723	0
790.0442	0.0033
790.2159	-0.0018
790.3877	0.0361
790.5595	0.006
790.7312	-0.0096
790.9029	0.0144
791.0746	0.0094
791.2463	0.0115
791.4179	0.0118
791.5896	0.0053
791.7612	0.0134
791.9328	0.0088
792.1044	0.0039
792.2759	-0.0059
792.4474	0.0099
792.619	0.0173
792.7905	0.0241
792.9619	0.0131
793.1334	0.0243
793.3048	0.0187
793.4762	0.0156
793.6476	-0.0044
793.819	0.0119
793.9904	0.0145
794.1617	-0.0187
794.333	0.0137
794.5043	0.0144
794.6756	0.0062
794.8469	0.0081
795.0181	0.0085
795.1893	-0.0067
795.3605	0.0165
795.5317	-0.0084
795.7029	0
795.874	0.0026
796.0452	-0.0013
796.2163	0.0007
796.3873	0.0057
796.5584	0.011
796.7294	0.0025
796.9005	-0.0045
797.0715	0.0066
797.2425	-0.0016
797.4134	0.0117
797.5844	0.0044
797.7553	0.0179
797.9262	0.0117
798.0971	0.0148
798.2679	-0.0017
798.4388	0.0024
798.6096	-0.0107
798.7804	0.005
798.9512	-0.0112
799.122	0.0221
799.2927	0.0061
799.4635	0.007
799.6342	-0.0014
799.8049	0.0178
799.9755	0.0137
800.1462	0.0006
800.3168	-0.0005
800.4874	-0.0092
800.658	0.008
800.8286	0.0006
800.9991	0.0297
801.1696	0.0029
801.3402	0.0249
801.5106	0.0113
801.6811	-0.0205
801.8516	0.0148
802.022	0
802.1924	-0.0125
802.3628	0.0008
802.5332	0.0109
802.7035	-0.0069
802.8739	-0.0023
803.0442	0.0096
803.2145	0.0087
803.3847	-0.0022
803.555	0.0147
803.7252	0.0204
803.8954	-0.0037
804.0656	0.0143
804.2358	-0.001
804.4059	0.0245
804.5761	0.0065
804.7462	0.0116
804.9163	0.0178
805.0864	-0.0146
805.2564	-0.005
805.4264	-0.0037
805.5965	0.0053
805.7665	0.0133
805.9364	-0.0105
806.1064	0.004
806.2763	0.0452
806.4462	0.0287
806.6161	0.0176
806.786	0.0051
806.9559	0
807.1257	0.0098
807.2955	0.0203
807.4653	0.0164
807.6351	0.0013
807.8048	-0.0032
807.9746	0.0148
808.1443	-0.0043
808.314	0.0151
808.4837	0.0168
808.6533	0.0148
808.8229	0.0225
808.9926	0.0216
809.1622	0.0154
809.3317	0.0209
809.5013	0.0152
809.6708	0.0327
809.8403	0.0144
810.0098	0.0152
810.1793	-0.0063
810.3488	0.0098
810.5182	0.0224
810.6876	-0.0086
810.857	0.002
811.0264	0.0076
811.1958	0.0049
811.3651	0.0064
811.5344	0.0173
811.7037	0.0103
811.873	0.0105
812.0422	0.012
812.2115	-0.0017
812.3807	0.0254
812.5499	0.0068
812.7191	0.0047
812.8882	0.0008
813.0574	-0.0097
813.2265	0.0197
813.3956	0.0353
813.5646	0.0073
813.7337	0.0139
813.9027	0.0006
814.0718	0.0361
814.2407	0.011
814.4097	0.0232
814.5787	0.0118
814.7476	-0.0002
814.9165	0.009
815.0854	-0.0139
815.2543	0.0107
815.4232	-0.0024
815.592	-0.0028
815.7608	0.019
815.9296	0.0148
816.0984	0.0018
816.2671	-0.0182
816.4359	0.0018
816.6046	0.0021
816.7733	-0.0097
816.942	-0.0133
817.1106	0.0174
817.2793	0.0168
817.4479	-0.0005
817.6165	0.0013
817.785	-0.018
817.9536	0.0062
818.1221	0.0013
818.2906	0.0025
818.4591	-0.0058
818.6276	0.0132
818.7961	0.0059
818.9645	0.009
819.1329	0.0076
819.3013	-0.0034
819.4697	0.0242
819.638	-0.0279
819.8064	-0.0036
819.9747	-0.0117
820.143	-0.0023
820.3113	-0.0201
820.4795	-0.0182
820.6477	0.0113
820.816	-0.0285
820.9842	-0.0048
821.1523	0.0117
821.3205	-0.0054
821.4886	0.0065
821.6567	-0.0123
821.8248	0.001
821.9929	0.0139
822.1609	-0.0091
822.329	0.0262
822.497	-0.0153
822.665	0.0008
822.833	0.0034
823.0009	0.0041
823.1688	0.0055
823.3367	-0.0057
823.5046	-0.0041
823.6725	-0.0399
823.8404	-0.0097
824.0082	0.0178
824.176	0.0253
824.3438	0.0198
824.5116	0.0086
824.6793	-0.0163
824.847	0.0309
825.0147	0.0099
825.1824	-0.0068
825.3501	-0.0104
825.5177	-0.0064
825.6854	-0.0148
825.853	0.0125
826.0206	0.0416
826.1881	0.0399
826.3557	0.0089
826.5232	0.0001
826.6907	0.007
826.8582	0.013
827.0257	0.0279
827.1931	0.0332
827.3605	-0.0058
827.528	0.0285
827.6953	0.0314
827.8627	0.0092
828.03	0.0241
828.1974	0.0384
828.3647	0.0108
828.532	-0.012
828.6992	0.037
828.8665	0.02
829.0337	0.0104
829.2009	0.0432
829.3681	-0.0127
829.5352	0.017
829.7024	0.0069
829.8695	0.0476
830.0366	0.0207
830.2037	-0.0101
830.3707	0.0091
830.5378	-0.0264
830.7048	0.0184
830.8718	-0.0121
831.0388	-0.0072
831.2057	0.0253
831.3727	0.0231
831.5396	0.0061
831.7065	-0.0177
831.8734	-0.001
832.0402	0.0096
832.2071	0.0055
832.3739	-0.014
832.5407	0.0468
832.7075	-0.0025
832.8742	0.0145
833.041	0.0006
833.2077	-0.0153
833.3744	0.0438
833.541	0.0259
833.7077	0.0394
833.8743	0.0709
834.0409	0.0246
834.2075	-0.0039
834.3741	0.0195
834.5407	-0.0133
834.7072	0.0007
834.8737	0.0189
835.0402	0.0128
835.2067	-0.0128
835.3731	0.0145
835.5395	-0.0403
835.706	0.0381
835.8723	-0.0663
836.0387	0.0226
836.2051	-0.0048
836.3714	-0.0689
836.5377	-0.0702
836.704	-0.0218
836.8703	-0.0054
837.0365	-0.0589
837.2027	-0.0053
837.3689	-0.0026
837.5351	0.0175
837.7013	-0.0815
837.8674	-0.0032
838.0335	0.0068
838.1997	-0.0299
838.3657	0.0182
838.5318	0.0045
838.6978	-0.0029
838.8639	-0.0328
839.0299	-0.0099
839.1958	0.0154
839.3618	0.0066
839.5277	-0.0407
839.6937	-0.0158
839.8596	0.0043
840.0254	0.0033
840.1913	0.0212
840.3571	0.0047
840.523	0.0429
840.6888	-0.0321
840.8545	0.0041
841.0203	0.0224
841.186	0.043
841.3517	0.0295
841.5174	-0.0035
841.6831	0.001
841.8488	-0.0057
842.0144	0.0696
842.18	-0.0082
842.3456	-0.0181
842.5112	0.0312
842.6767	-0.0114
842.8422	0.0232
843.0077	-0.0184
843.1732	-0.015
843.3387	-0.0142
843.5042	-0.0194
843.6696	0.0103
843.835	-0.0389
844.0004	-0.0514
844.1657	-0.0059
844.3311	-0.012
844.4964	-0.0412
844.6617	-0.0639
844.827	0.0141
844.9923	-0.0286
845.1575	0.0234
845.3227	0.0282
845.4879	-0.0019
845.6531	-0.0019
845.8183	-0.034
845.9834	-0.0362
846.1485	0.0449
846.3136	0.0242
846.4787	0.0058
846.6438	0.034
846.8088	-0.0105
846.9738	-0.0147
847.1388	0.0181
847.3038	0.0438
847.4687	0.0136
847.6337	0.0301
847.7986	0.0689
847.9635	0.0058
848.1284	0.0487
848.2932	0.0111
848.458	0.0073
848.6228	0.0785
848.7876	-0.0329
848.9524	-0.0407
849.1172	0.0074
849.2819	0.0101
849.4466	0.0934
849.6113	0.0349
849.7759	-0.0732
849.9406	0.0116
850.1052	-0.0874
850.2698	-0.0308
850.4344	0.0286
850.599	-0.0293
850.7635	0.0265
850.928	0.026
851.0925	0.0082
851.257	0.009
851.4215	-0.0711
851.5859	0.093
851.7503	-0.1273
851.9147	-0.0059
852.0791	0.1106
852.2434	0.0556
852.4078	-0.0553
852.5721	0.078
852.7364	0.0259
852.9007	-0.157
853.0649	0.0259
853.2291	0.1026
853.3934	0.0869
853.5575	-0.0306
853.7217	0.1544
853.8859	-0.0167
854.05	0.0535
854.2141	0.1395
854.3782	0.0151
854.5423	-0.0214
854.7063	0.0047
854.8703	-0.0304
855.0343	0.0004
855.1983	0.053
855.3623	-0.126
855.5262	0.0708
855.6901	-0.1314
855.854	-0.0198
856.0179	-0.087
856.1818	0.0952
856.3456	-0.0166
856.5094	0.077
856.6732	0.0107
856.837	0.0321
857.0008	-0.2397
857.1645	0.1449
857.3282	0.1358
857.4919	-0.1379
857.6556	-0.0937
857.8192	0.0034
857.9828	0.2226
858.1465	-0.1122
858.31	0.0044
858.4736	0.1371
858.6372	0.0072
858.8007	-0.2055
858.9642	-0.0268
859.1277	-0.1511
859.2911	-0.2085
859.4546	0.2334
859.618	-0.5325
859.7814	0.0453
859.9448	-0.0496
860.1081	0.0951
860.2715	0.1821
860.4348	-0.1444
860.5981	0.0674
860.7614	-0.0035
860.9246	-0.0501
861.0879	-0.0445
861.2511	0.1774
861.4143	-0.0909
861.5774	0.1176
861.7406	0.5536
861.9037	-0.3927
862.0668	-0.0666
862.2299	0.1441
862.393	0.2202
862.556	0.0437
862.7191	0.0049
862.8821	-0.2272
863.0451	0.1716
863.208	0.0689
863.371	-0.5753
863.5339	0.102
863.6968	0.9524
863.8597	-0.1098
864.0225	0.3725
864.1854	0.1135
864.3482	0.017
864.511	-0.0305
864.6737	1.9777
864.8365	0.1935
864.9992	-0.1398
865.1619	0.0726
865.3246	0.1195
865.4873	-0.1265
865.65	-0.4005
865.8126	-0.0925
865.9752	0.3044
866.1378	0.071
866.3004	-0
866.4629	0.1461
866.6254	-0
866.7879	-0.1361
866.9504	0.0683
867.1129	0.2013
867.2753	0.0438
867.4377	-0.2196
867.6001	0.0511
867.7625	-0.0376
867.9249	-0.5964
868.0872	0.2384
868.2495	-0.0625
868.4118	0.1474
868.5741	0.0478
868.7363	-0.011
868.8986	-0.008
869.0608	0.0181
869.223	-0.1337
869.3851	-0.0572
869.5473	-0.2699
869.7094	-0.0476
869.8715	-0
870.0336	-0
870.1957	-0
870.3577	-0.2187
870.5197	0.0626
870.6817	-0
870.8437	0.0222
871.0057	0.1103
871.1676	0.203
871.3295	-0
871.4914	-0
871.6533	0.0973
871.8151	-0.2198
871.977	-0.2365
872.1388	-0.2019
872.3006	0.2995
872.4623	0.0591
872.6241	-0.6569
872.7858	-0.0978
872.9475	0.0601
873.1092	0.3661
873.2709	-0
873.4325	-0
873.5941	0.1912
873.7557	-0
873.9173	1.9191
874.0789	0.3313
874.2404	1.9991
874.4019	-0.1014
874.5634	0.2065
874.7249	0.1067
874.8863	-0.1211
875.0478	0.2597
875.2092	-0.078
875.3706	-0.0449
875.5319	-0
875.6933	-0
875.8546	0.0207
876.0159	1.0557
876.1772	0.0564
876.3385	-0.2666
876.4997	0.876
876.6609	-0
876.8221	-0.6693
876.9833	-0.9062
877.1445	0.1924
877.3056	-0.3543
877.4667	-0.0846
877.6278	-0
877.7889	0.8156
877.9499	0.3298
878.111	-0
878.272	0.1616
878.433	0.0226
878.5939	1.2113
878.7549	0.1039
878.9158	0.0557
879.0767	-0.2519
879.2376	0.1434
879.3984	0.5737
879.5593	-0.3648
879.7201	-0.1346
879.8809	-0
880.0417	0.051
880.2024	-0
880.3632	-0.268
880.5239	-0
880.6846	-0
880.8452	0.4822
881.0059	-0.5321
881.1665	0.7629
881.3271	0.1544
881.4877	-0
881.6483	-0.5047
881.8088	-0.1689
881.9693	-0.4092
882.1298	-0.4092
882.2903	-0.4092
