Data from MonoPyChalIsomerACN10uM400nmA_Absorbance_12-08-46-128.txt Node
Date: Fri Jul 05 12:08:46 BST 2024
User: LASERRRRR
Spectrometer: FLMT03099
Trigger mode: 0
Integration Time (sec): 1.000000E-1
Scans to average: 1
Electric dark correction enabled: true
Nonlinearity correction enabled: false
Boxcar width: 0
XAxis mode: Wavelengths
Number of Pixels in Spectrum: 3648
>>>>>Begin Spectral Data<<<<<
179.3399	-0.0876
179.5586	-0.0876
179.7771	-0.0876
179.9957	0.0927
180.2143	-0
180.4329	-0
180.6514	-0.4364
180.8699	1.1632
181.0885	-0.0247
181.307	0.0359
181.5255	-0.5618
181.744	-0
181.9625	0.1826
182.181	0.9708
182.3994	0.0358
182.6179	0.3181
182.8363	-0.0621
183.0547	0.108
183.2732	0.121
183.4916	0.0475
183.71	0.1209
183.9284	0.2981
184.1467	-0.0288
184.3651	-0.1292
184.5835	0.1033
184.8018	0.1144
185.0201	-0.0139
185.2385	0.0651
185.4568	0.1352
185.6751	0.0346
185.8934	-0.0411
186.1117	0.1153
186.3299	-0.0149
186.5482	0.164
186.7664	0.1801
186.9847	0.1222
187.2029	0.0867
187.4211	-0.2941
187.6393	-0.1187
187.8575	0.092
188.0757	0.062
188.2939	-0.0412
188.512	0.0442
188.7302	-0.2138
188.9483	-0.0139
189.1665	0.3108
189.3846	-0.0428
189.6027	-0.049
189.8208	0.0923
190.0389	0.1203
190.257	0.0654
190.475	0.1978
190.6931	0.3384
190.9111	0.1364
191.1292	0.2903
191.3472	0.4172
191.5652	0.174
191.7832	0.2721
192.0012	0.2552
192.2192	0.3035
192.4371	0.4462
192.6551	0.386
192.873	0.5243
193.091	0.226
193.3089	0.4639
193.5268	0.5422
193.7447	0.4466
193.9626	0.4839
194.1805	0.4829
194.3984	0.3434
194.6162	0.4364
194.8341	0.4971
195.0519	0.6422
195.2697	0.4644
195.4875	0.7057
195.7054	0.5908
195.9231	0.4779
196.1409	0.6171
196.3587	0.5337
196.5765	0.5886
196.7942	0.7587
197.012	0.6879
197.2297	0.6682
197.4474	0.7296
197.6651	0.6669
197.8828	0.5654
198.1005	0.5754
198.3182	0.7428
198.5358	0.5811
198.7535	0.6928
198.9711	0.602
199.1888	0.5546
199.4064	0.9396
199.624	0.6313
199.8416	0.602
200.0592	0.6702
200.2767	0.5794
200.4943	0.6991
200.7119	0.5901
200.9294	0.7552
201.1469	0.7532
201.3645	0.7054
201.582	0.7456
201.7995	0.8889
202.017	0.7312
202.2344	0.5773
202.4519	0.7035
202.6694	0.8413
202.8868	0.8181
203.1042	0.7057
203.3217	0.6834
203.5391	0.919
203.7565	0.7647
203.9739	0.7822
204.1913	0.7698
204.4086	0.9146
204.626	0.9621
204.8433	0.8605
205.0607	0.7976
205.278	0.8113
205.4953	0.7056
205.7126	0.5729
205.9299	0.8385
206.1472	0.7324
206.3644	0.6235
206.5817	0.7327
206.7989	0.6604
207.0162	0.676
207.2334	0.8438
207.4506	0.705
207.6678	0.6881
207.885	0.7693
208.1022	0.788
208.3194	0.6782
208.5365	0.7546
208.7537	0.6755
208.9708	0.7904
209.1879	0.7412
209.405	0.6335
209.6222	0.7383
209.8392	0.7533
210.0563	0.7458
210.2734	0.6562
210.4905	0.7286
210.7075	0.8479
210.9245	0.7536
211.1416	0.7642
211.3586	0.756
211.5756	0.7383
211.7926	0.6941
212.0096	0.6513
212.2265	0.712
212.4435	0.7058
212.6604	0.7212
212.8774	0.7199
213.0943	0.7307
213.3112	0.6606
213.5281	0.6663
213.745	0.7385
213.9619	0.7192
214.1788	0.657
214.3956	0.6441
214.6125	0.6616
214.8293	0.6848
215.0461	0.6441
215.2629	0.6367
215.4798	0.6317
215.6965	0.6676
215.9133	0.6299
216.1301	0.6159
216.3469	0.6465
216.5636	0.5989
216.7803	0.6001
216.9971	0.6252
217.2138	0.6059
217.4305	0.6192
217.6472	0.5774
217.8639	0.5962
218.0805	0.5704
218.2972	0.5581
218.5138	0.5755
218.7305	0.533
218.9471	0.5554
219.1637	0.5683
219.3803	0.5325
219.5969	0.5469
219.8135	0.5593
220.0301	0.5808
220.2466	0.5135
220.4632	0.5265
220.6797	0.5589
220.8962	0.5446
221.1127	0.5673
221.3292	0.5416
221.5457	0.5641
221.7622	0.5456
221.9787	0.526
222.1951	0.5193
222.4116	0.5309
222.628	0.538
222.8444	0.5484
223.0608	0.5157
223.2772	0.5136
223.4936	0.5502
223.71	0.5604
223.9264	0.5302
224.1427	0.5633
224.3591	0.5863
224.5754	0.5288
224.7917	0.4824
225.008	0.5841
225.2243	0.5202
225.4406	0.5465
225.6569	0.5683
225.8732	0.5663
226.0894	0.507
226.3057	0.5279
226.5219	0.5594
226.7381	0.5966
226.9543	0.5704
227.1705	0.5719
227.3867	0.5659
227.6029	0.5431
227.8191	0.5559
228.0352	0.5971
228.2513	0.5379
228.4675	0.6079
228.6836	0.5679
228.8997	0.5684
229.1158	0.5823
229.3319	0.5746
229.548	0.5604
229.764	0.6073
229.9801	0.5639
230.1961	0.5637
230.4121	0.5607
230.6282	0.5751
230.8442	0.5716
231.0602	0.5559
231.2761	0.5656
231.4921	0.5748
231.7081	0.5557
231.924	0.5757
232.14	0.5788
232.3559	0.5608
232.5718	0.5915
232.7877	0.5626
233.0036	0.5644
233.2195	0.5334
233.4353	0.5844
233.6512	0.5574
233.867	0.5423
234.0829	0.5547
234.2987	0.5628
234.5145	0.5537
234.7303	0.5595
234.9461	0.5539
235.1619	0.5793
235.3776	0.5552
235.5934	0.5335
235.8091	0.5638
236.0249	0.5439
236.2406	0.5422
236.4563	0.5735
236.672	0.5412
236.8877	0.5529
237.1034	0.5435
237.319	0.5198
237.5347	0.5536
237.7503	0.5178
237.966	0.5235
238.1816	0.5451
238.3972	0.5698
238.6128	0.515
238.8284	0.5079
239.0439	0.5354
239.2595	0.5285
239.475	0.5348
239.6906	0.5134
239.9061	0.5244
240.1216	0.5313
240.3371	0.5153
240.5526	0.5124
240.7681	0.519
240.9836	0.5197
241.199	0.4793
241.4145	0.5022
241.6299	0.4866
241.8453	0.4948
242.0607	0.5173
242.2761	0.4788
242.4915	0.478
242.7069	0.4447
242.9223	0.492
243.1376	0.4516
243.353	0.4419
243.5683	0.4207
243.7836	0.4255
243.9989	0.419
244.2142	0.4059
244.4295	0.395
244.6448	0.4012
244.86	0.3944
245.0753	0.387
245.2905	0.3949
245.5057	0.3781
245.721	0.372
245.9362	0.3557
246.1514	0.346
246.3665	0.3266
246.5817	0.35
246.7969	0.3322
247.012	0.3299
247.2271	0.3251
247.4423	0.2913
247.6574	0.3126
247.8725	0.3005
248.0876	0.3202
248.3026	0.2961
248.5177	0.3119
248.7328	0.2931
248.9478	0.2812
249.1628	0.2692
249.3779	0.2612
249.5929	0.2754
249.8079	0.2655
250.0228	0.2656
250.2378	0.2471
250.4528	0.2468
250.6677	0.2497
250.8827	0.2309
251.0976	0.2282
251.3125	0.2392
251.5274	0.2282
251.7423	0.2359
251.9572	0.227
252.172	0.2132
252.3869	0.2296
252.6017	0.2227
252.8166	0.2132
253.0314	0.215
253.2462	0.22
253.461	0.2108
253.6758	0.2059
253.8906	0.2242
254.1053	0.214
254.3201	0.2093
254.5348	0.2044
254.7496	0.225
254.9643	0.1928
255.179	0.1966
255.3937	0.2055
255.6083	0.1981
255.823	0.189
256.0377	0.1772
256.2523	0.1897
256.467	0.2151
256.6816	0.1935
256.8962	0.1862
257.1108	0.1983
257.3254	0.1919
257.54	0.1927
257.7545	0.186
257.9691	0.1978
258.1836	0.1994
258.3981	0.1827
258.6127	0.193
258.8272	0.1949
259.0417	0.179
259.2561	0.1856
259.4706	0.1915
259.6851	0.1865
259.8995	0.183
260.114	0.1869
260.3284	0.1752
260.5428	0.1934
260.7572	0.1995
260.9716	0.1928
261.186	0.1981
261.4003	0.1857
261.6147	0.1987
261.829	0.194
262.0433	0.1748
262.2577	0.1827
262.472	0.1733
262.6863	0.1949
262.9005	0.1898
263.1148	0.1869
263.3291	0.1865
263.5433	0.1792
263.7576	0.203
263.9718	0.1813
264.186	0.1906
264.4002	0.1968
264.6144	0.1812
264.8286	0.1964
265.0427	0.1894
265.2569	0.1919
265.471	0.1845
265.6851	0.1769
265.8993	0.1932
266.1134	0.1776
266.3275	0.1899
266.5415	0.2012
266.7556	0.1935
266.9697	0.1836
267.1837	0.1821
267.3978	0.1972
267.6118	0.2038
267.8258	0.1978
268.0398	0.2058
268.2538	0.2102
268.4677	0.1978
268.6817	0.1824
268.8957	0.1995
269.1096	0.1973
269.3235	0.1996
269.5374	0.1807
269.7514	0.1725
269.9652	0.1873
270.1791	0.1798
270.393	0.1717
270.6068	0.1853
270.8207	0.1972
271.0345	0.1674
271.2483	0.1833
271.4622	0.1782
271.676	0.1801
271.8897	0.1885
272.1035	0.1834
272.3173	0.1807
272.531	0.167
272.7448	0.189
272.9585	0.1899
273.1722	0.1733
273.3859	0.1884
273.5996	0.1864
273.8133	0.1774
274.0269	0.1838
274.2406	0.1859
274.4542	0.181
274.6679	0.179
274.8815	0.1772
275.0951	0.1942
275.3087	0.1686
275.5223	0.1785
275.7358	0.1791
275.9494	0.1805
276.1629	0.1796
276.3765	0.1846
276.59	0.1807
276.8035	0.1803
277.017	0.1827
277.2305	0.1804
277.444	0.1735
277.6574	0.1891
277.8709	0.1799
278.0843	0.1995
278.2978	0.1955
278.5112	0.1816
278.7246	0.1933
278.938	0.1885
279.1513	0.1903
279.3647	0.1768
279.5781	0.194
279.7914	0.1905
280.0047	0.1999
280.2181	0.1854
280.4314	0.1938
280.6447	0.1878
280.8579	0.1888
281.0712	0.199
281.2845	0.1905
281.4977	0.1846
281.711	0.1846
281.9242	0.1915
282.1374	0.1879
282.3506	0.1932
282.5638	0.1922
282.7769	0.1894
282.9901	0.1911
283.2033	0.1844
283.4164	0.1831
283.6295	0.179
283.8426	0.1838
284.0557	0.1892
284.2688	0.1779
284.4819	0.1821
284.695	0.1766
284.908	0.1855
285.1211	0.1894
285.3341	0.1964
285.5471	0.1968
285.7601	0.1786
285.9731	0.1988
286.1861	0.1865
286.3991	0.1838
286.612	0.1797
286.825	0.1855
287.0379	0.196
287.2508	0.188
287.4637	0.1772
287.6766	0.1726
287.8895	0.1791
288.1024	0.1845
288.3152	0.1783
288.5281	0.1713
288.7409	0.1752
288.9538	0.1787
289.1666	0.1742
289.3794	0.1828
289.5922	0.1829
289.8049	0.1687
290.0177	0.1735
290.2304	0.1791
290.4432	0.1756
290.6559	0.1837
290.8686	0.177
291.0813	0.1638
291.294	0.1782
291.5067	0.1728
291.7194	0.1714
291.932	0.1757
292.1447	0.1826
292.3573	0.1745
292.5699	0.1792
292.7825	0.1666
292.9951	0.1883
293.2077	0.1849
293.4203	0.1725
293.6328	0.1838
293.8454	0.1673
294.0579	0.1801
294.2704	0.1691
294.4829	0.1801
294.6954	0.1774
294.9079	0.167
295.1204	0.1764
295.3328	0.1664
295.5453	0.1687
295.7577	0.1636
295.9701	0.1712
296.1825	0.1619
296.3949	0.1604
296.6073	0.1707
296.8197	0.1628
297.0321	0.169
297.2444	0.1653
297.4567	0.1582
297.6691	0.1658
297.8814	0.165
298.0937	0.1604
298.306	0.1601
298.5182	0.1709
298.7305	0.1666
298.9428	0.1729
299.155	0.1655
299.3672	0.1466
299.5794	0.1691
299.7916	0.1555
300.0038	0.1591
300.216	0.1639
300.4282	0.1652
300.6403	0.1822
300.8525	0.1741
301.0646	0.1715
301.2767	0.1758
301.4888	0.165
301.7009	0.1641
301.913	0.1585
302.125	0.1705
302.3371	0.1759
302.5491	0.1555
302.7612	0.1619
302.9732	0.1544
303.1852	0.1727
303.3972	0.1607
303.6092	0.1649
303.8211	0.1606
304.0331	0.1411
304.245	0.1584
304.457	0.1547
304.6689	0.1535
304.8808	0.1555
305.0927	0.1507
305.3046	0.1398
305.5164	0.1542
305.7283	0.1509
305.9401	0.1439
306.152	0.1411
306.3638	0.1559
306.5756	0.1439
306.7874	0.1468
306.9992	0.1413
307.2109	0.1522
307.4227	0.1361
307.6344	0.1473
307.8462	0.1314
308.0579	0.1497
308.2696	0.1402
308.4813	0.1325
308.693	0.1379
308.9046	0.1354
309.1163	0.1311
309.328	0.1339
309.5396	0.1273
309.7512	0.1347
309.9628	0.1419
310.1744	0.1238
310.386	0.1222
310.5976	0.1249
310.8091	0.1229
311.0207	0.1215
311.2322	0.1106
311.4437	0.1194
311.6552	0.1194
311.8667	0.1111
312.0782	0.1083
312.2897	0.1122
312.5012	0.1139
312.7126	0.1312
312.924	0.1094
313.1355	0.1264
313.3469	0.1126
313.5583	0.1149
313.7696	0.1097
313.981	0.1085
314.1924	0.1129
314.4037	0.1086
314.6151	0.1205
314.8264	0.1096
315.0377	0.1061
315.249	0.1025
315.4603	0.1055
315.6716	0.1165
315.8828	0.1075
316.0941	0.1032
316.3053	0.1008
316.5165	0.1208
316.7277	0.1056
316.9389	0.108
317.1501	0.1145
317.3613	0.0929
317.5724	0.1053
317.7836	0.1054
317.9947	0.1009
318.2058	0.114
318.417	0.1118
318.6281	0.1174
318.8391	0.1058
319.0502	0.1145
319.2613	0.1052
319.4723	0.111
319.6834	0.1103
319.8944	0.1008
320.1054	0.1059
320.3164	0.1211
320.5274	0.0915
320.7383	0.1268
320.9493	0.1058
321.1602	0.1063
321.3712	0.1088
321.5821	0.1162
321.793	0.1176
322.0039	0.1134
322.2148	0.1088
322.4257	0.0989
322.6365	0.1144
322.8474	0.0995
323.0582	0.1153
323.269	0.1185
323.4798	0.1121
323.6906	0.1027
323.9014	0.1145
324.1122	0.1167
324.3229	0.1195
324.5337	0.117
324.7444	0.1223
324.9551	0.1158
325.1658	0.1157
325.3765	0.1112
325.5872	0.1127
325.7979	0.1178
326.0085	0.1005
326.2192	0.0927
326.4298	0.1245
326.6404	0.1097
326.851	0.108
327.0616	0.1193
327.2722	0.1224
327.4828	0.1294
327.6933	0.118
327.9039	0.1066
328.1144	0.1124
328.3249	0.1145
328.5354	0.1041
328.7459	0.1194
328.9564	0.1221
329.1669	0.1242
329.3773	0.1128
329.5878	0.1152
329.7982	0.1198
330.0086	0.1093
330.219	0.113
330.4294	0.1074
330.6398	0.1184
330.8502	0.1204
331.0605	0.1373
331.2708	0.1074
331.4812	0.1277
331.6915	0.1165
331.9018	0.1101
332.1121	0.1127
332.3224	0.1128
332.5326	0.1103
332.7429	0.1046
332.9531	0.1129
333.1633	0.1202
333.3735	0.1235
333.5837	0.1097
333.7939	0.0986
334.0041	0.1189
334.2143	0.1147
334.4244	0.1275
334.6346	0.0999
334.8447	0.1197
335.0548	0.1258
335.2649	0.1237
335.475	0.1203
335.685	0.1153
335.8951	0.1251
336.1051	0.1156
336.3152	0.1156
336.5252	0.1071
336.7352	0.1341
336.9452	0.1245
337.1552	0.1318
337.3652	0.1121
337.5751	0.1256
337.7851	0.1057
337.995	0.1213
338.2049	0.1157
338.4148	0.1297
338.6247	0.1196
338.8346	0.1196
339.0445	0.1165
339.2543	0.1138
339.4642	0.1266
339.674	0.1237
339.8838	0.1285
340.0936	0.1226
340.3034	0.1323
340.5132	0.1359
340.7229	0.1375
340.9327	0.1239
341.1424	0.1196
341.3522	0.1175
341.5619	0.1199
341.7716	0.1366
341.9813	0.1242
342.1909	0.1352
342.4006	0.1312
342.6102	0.1192
342.8199	0.1354
343.0295	0.1355
343.2391	0.1247
343.4487	0.1182
343.6583	0.1164
343.8679	0.1394
344.0774	0.1376
344.287	0.1334
344.4965	0.1408
344.706	0.1421
344.9155	0.1393
345.125	0.1217
345.3345	0.1354
345.544	0.143
345.7534	0.1472
345.9629	0.1288
346.1723	0.1271
346.3817	0.1319
346.5911	0.1413
346.8005	0.1389
347.0099	0.1404
347.2193	0.1291
347.4286	0.1424
347.638	0.1394
347.8473	0.132
348.0566	0.1383
348.2659	0.1355
348.4752	0.1503
348.6845	0.1473
348.8937	0.1413
349.103	0.1364
349.3122	0.1371
349.5214	0.1499
349.7306	0.1437
349.9398	0.1445
350.149	0.1394
350.3582	0.139
350.5674	0.1384
350.7765	0.1431
350.9856	0.1333
351.1948	0.1376
351.4039	0.1593
351.613	0.141
351.822	0.1543
352.0311	0.1388
352.2402	0.1477
352.4492	0.1444
352.6582	0.1382
352.8672	0.1337
353.0762	0.1445
353.2852	0.1445
353.4942	0.1582
353.7032	0.1548
353.9121	0.146
354.1211	0.1466
354.33	0.1442
354.5389	0.1432
354.7478	0.1521
354.9567	0.1523
355.1655	0.1577
355.3744	0.1581
355.5833	0.1644
355.7921	0.1562
356.0009	0.1444
356.2097	0.1369
356.4185	0.1452
356.6273	0.1477
356.8361	0.1505
357.0448	0.1428
357.2536	0.145
357.4623	0.1602
357.671	0.1695
357.8797	0.167
358.0884	0.182
358.2971	0.1563
358.5057	0.1731
358.7144	0.1587
358.923	0.1701
359.1316	0.1729
359.3402	0.1804
359.5488	0.1777
359.7574	0.167
359.966	0.1543
360.1746	0.1576
360.3831	0.1635
360.5916	0.1836
360.8002	0.1796
361.0087	0.1704
361.2172	0.1541
361.4256	0.1634
361.6341	0.1706
361.8426	0.1733
362.051	0.1646
362.2594	0.183
362.4678	0.17
362.6762	0.1794
362.8846	0.1796
363.093	0.1706
363.3014	0.1756
363.5097	0.1776
363.718	0.1878
363.9264	0.1838
364.1347	0.1781
364.343	0.1685
364.5513	0.1858
364.7595	0.1895
364.9678	0.1876
365.176	0.1901
365.3842	0.181
365.5925	0.1702
365.8007	0.1908
366.0089	0.1811
366.217	0.1827
366.4252	0.1901
366.6333	0.2028
366.8415	0.1891
367.0496	0.1894
367.2577	0.1886
367.4658	0.2024
367.6739	0.1905
367.882	0.2048
368.09	0.205
368.2981	0.1873
368.5061	0.1924
368.7141	0.1927
368.9221	0.1776
369.1301	0.1908
369.3381	0.1917
369.5461	0.2058
369.754	0.1885
369.962	0.1928
370.1699	0.1912
370.3778	0.1901
370.5857	0.2117
370.7936	0.1893
371.0015	0.1992
371.2093	0.2045
371.4172	0.1947
371.625	0.1982
371.8328	0.2195
372.0406	0.1872
372.2484	0.1945
372.4562	0.2031
372.664	0.1973
372.8717	0.1909
373.0795	0.211
373.2872	0.2162
373.4949	0.2086
373.7026	0.213
373.9103	0.1994
374.118	0.196
374.3256	0.1961
374.5333	0.1988
374.7409	0.2047
374.9485	0.212
375.1561	0.2145
375.3637	0.2068
375.5713	0.2082
375.7789	0.2144
375.9864	0.2042
376.194	0.2081
376.4015	0.2062
376.609	0.2061
376.8165	0.2045
377.024	0.1989
377.2315	0.1989
377.4389	0.2034
377.6464	0.2256
377.8538	0.2102
378.0612	0.2144
378.2686	0.2192
378.476	0.1951
378.6834	0.1929
378.8908	0.2008
379.0981	0.2187
379.3055	0.2204
379.5128	0.2225
379.7201	0.2281
379.9274	0.218
380.1347	0.2083
380.342	0.2238
380.5492	0.2003
380.7565	0.2132
380.9637	0.2259
381.1709	0.223
381.3781	0.2216
381.5853	0.233
381.7925	0.2057
381.9997	0.216
382.2068	0.2175
382.4139	0.216
382.6211	0.2189
382.8282	0.2315
383.0353	0.2148
383.2424	0.2332
383.4494	0.2048
383.6565	0.2317
383.8635	0.2085
384.0706	0.238
384.2776	0.2204
384.4846	0.2128
384.6916	0.2231
384.8986	0.2058
385.1055	0.2086
385.3125	0.2036
385.5194	0.2087
385.7263	0.2072
385.9333	0.2148
386.1402	0.2104
386.347	0.2106
386.5539	0.2167
386.7608	0.2255
386.9676	0.1983
387.1744	0.229
387.3813	0.2175
387.5881	0.205
387.7948	0.2184
388.0016	0.2163
388.2084	0.2238
388.4151	0.2127
388.6219	0.2035
388.8286	0.2106
389.0353	0.22
389.242	0.222
389.4487	0.217
389.6553	0.1956
389.862	0.2229
390.0686	0.2129
390.2753	0.2157
390.4819	0.2015
390.6885	0.2162
390.8951	0.1925
391.1016	0.1996
391.3082	0.2077
391.5147	0.1778
391.7213	0.19
391.9278	0.1935
392.1343	0.1909
392.3408	0.1885
392.5473	0.2077
392.7537	0.1908
392.9602	0.1947
393.1666	0.1977
393.373	0.1791
393.5794	0.2056
393.7858	0.1904
393.9922	0.1885
394.1986	0.2077
394.4049	0.1781
394.6113	0.176
394.8176	0.1844
395.0239	0.1971
395.2302	0.1765
395.4365	0.1758
395.6428	0.1967
395.8491	0.1644
396.0553	0.2036
396.2615	0.1995
396.4678	0.1921
396.674	0.1782
396.8802	0.1923
397.0863	0.1807
397.2925	0.1689
397.4987	0.1769
397.7048	0.1663
397.9109	0.1938
398.117	0.1768
398.3231	0.1736
398.5292	0.1866
398.7353	0.1678
398.9413	0.1857
399.1474	0.1725
399.3534	0.1658
399.5594	0.1768
399.7654	0.1869
399.9714	0.1719
400.1774	0.1772
400.3833	0.1792
400.5893	0.1727
400.7952	0.1783
401.0011	0.1748
401.207	0.1794
401.4129	0.1902
401.6188	0.1772
401.8247	0.1978
402.0305	0.1613
402.2364	0.1893
402.4422	0.1739
402.648	0.1514
402.8538	0.1657
403.0596	0.1613
403.2654	0.1688
403.4711	0.1726
403.6768	0.1575
403.8826	0.1849
404.0883	0.174
404.294	0.1743
404.4997	0.1572
404.7054	0.1747
404.911	0.1671
405.1167	0.1635
405.3223	0.185
405.5279	0.1882
405.7335	0.1915
405.9391	0.1735
406.1447	0.1582
406.3502	0.1612
406.5558	0.1778
406.7613	0.1864
406.9668	0.162
407.1724	0.178
407.3778	0.1853
407.5833	0.1641
407.7888	0.1727
407.9942	0.1724
408.1997	0.1777
408.4051	0.1581
408.6105	0.1602
408.8159	0.1757
409.0213	0.1718
409.2267	0.1671
409.432	0.1727
409.6374	0.1788
409.8427	0.1563
410.048	0.1639
410.2533	0.1688
410.4586	0.1594
410.6639	0.1644
410.8691	0.1643
411.0744	0.1739
411.2796	0.1636
411.4848	0.184
411.69	0.1669
411.8952	0.1698
412.1004	0.1526
412.3056	0.161
412.5107	0.1596
412.7158	0.1734
412.921	0.1713
413.1261	0.1763
413.3312	0.1636
413.5362	0.1872
413.7413	0.1666
413.9464	0.1894
414.1514	0.1567
414.3564	0.1574
414.5614	0.1554
414.7664	0.1532
414.9714	0.1615
415.1764	0.166
415.3813	0.1567
415.5863	0.1661
415.7912	0.1703
415.9961	0.1829
416.201	0.1729
416.4059	0.1531
416.6108	0.1628
416.8156	0.1696
417.0205	0.1582
417.2253	0.156
417.4301	0.1705
417.6349	0.1614
417.8397	0.1486
418.0445	0.1538
418.2492	0.1423
418.454	0.1636
418.6587	0.1616
418.8634	0.1723
419.0681	0.1674
419.2728	0.1434
419.4775	0.1631
419.6822	0.1372
419.8868	0.1648
420.0915	0.1502
420.2961	0.1752
420.5007	0.1584
420.7053	0.1458
420.9099	0.1442
421.1144	0.1645
421.319	0.1567
421.5235	0.1683
421.728	0.1599
421.9325	0.1618
422.137	0.1572
422.3415	0.1518
422.546	0.1584
422.7504	0.1636
422.9549	0.1749
423.1593	0.1355
423.3637	0.1586
423.5681	0.1455
423.7725	0.1343
423.9769	0.1437
424.1812	0.1415
424.3856	0.1355
424.5899	0.1442
424.7942	0.1329
424.9985	0.1415
425.2028	0.1264
425.4071	0.1403
425.6113	0.1419
425.8156	0.1456
426.0198	0.1364
426.224	0.1469
426.4282	0.149
426.6324	0.1471
426.8366	0.1392
427.0407	0.1475
427.2449	0.1368
427.449	0.1325
427.6531	0.1203
427.8572	0.1403
428.0613	0.137
428.2654	0.1046
428.4694	0.133
428.6735	0.1272
428.8775	0.122
429.0815	0.1235
429.2855	0.1345
429.4895	0.1133
429.6935	0.1286
429.8975	0.1238
430.1014	0.1224
430.3053	0.1218
430.5093	0.1297
430.7132	0.1066
430.9171	0.1018
431.1209	0.1243
431.3248	0.1164
431.5286	0.0852
431.7325	0.112
431.9363	0.1114
432.1401	0.1043
432.3439	0.0934
432.5477	0.1118
432.7514	0.102
432.9552	0.0936
433.1589	0.1005
433.3627	0.1009
433.5664	0.0915
433.7701	0.0974
433.9737	0.0942
434.1774	0.1036
434.3811	0.0894
434.5847	0.0991
434.7883	0.0853
434.9919	0.0746
435.1955	0.0848
435.3991	0.0955
435.6027	0.0956
435.8062	0.0861
436.0098	0.099
436.2133	0.0676
436.4168	0.0766
436.6203	0.0666
436.8238	0.055
437.0272	0.0745
437.2307	0.0952
437.4341	0.0647
437.6375	0.0786
437.841	0.0499
438.0443	0.0742
438.2477	0.0727
438.4511	0.0639
438.6545	0.0751
438.8578	0.0641
439.0611	0.0635
439.2644	0.0666
439.4677	0.0576
439.671	0.0596
439.8743	0.0379
440.0775	0.064
440.2808	0.0493
440.484	0.047
440.6872	0.0679
440.8904	0.06
441.0936	0.0456
441.2967	0.0425
441.4999	0.0435
441.703	0.0666
441.9062	0.0377
442.1093	0.042
442.3124	0.0561
442.5155	0.0534
442.7185	0.0628
442.9216	0.0336
443.1246	0.054
443.3276	0.0479
443.5307	0.0425
443.7337	0.0389
443.9366	0.0409
444.1396	0.0386
444.3426	0.0313
444.5455	0.0487
444.7484	0.0378
444.9513	0.0456
445.1542	0.0359
445.3571	0.0429
445.56	0.0443
445.7628	0.0446
445.9657	0.0331
446.1685	0.0339
446.3713	0.0292
446.5741	0.0335
446.7769	0.0457
446.9797	0.0258
447.1824	0.0129
447.3852	0.0477
447.5879	0.0237
447.7906	0.0535
447.9933	0.0206
448.196	0.037
448.3986	0.0208
448.6013	0.0152
448.8039	0.0377
449.0066	0.0203
449.2092	0.0341
449.4118	0.0269
449.6143	0.0198
449.8169	0.0303
450.0195	0.0053
450.222	0.0039
450.4245	0.0061
450.627	0.025
450.8295	0.007
451.032	0.011
451.2345	0.0256
451.4369	0.0045
451.6394	0.0186
451.8418	0.0005
452.0442	0.0103
452.2466	0.0089
452.449	0.019
452.6513	0.0291
452.8537	0.0267
453.056	-0.008
453.2583	0.001
453.4607	-0.0055
453.663	0.0198
453.8652	0.0183
454.0675	-0.0044
454.2697	0.0096
454.472	0.0135
454.6742	0.0233
454.8764	0.0051
455.0786	-0.0068
455.2808	0.0054
455.4829	0.021
455.6851	0.0155
455.8872	0.0255
456.0893	0.0129
456.2915	0.0115
456.4935	0.002
456.6956	0.0048
456.8977	0.0037
457.0997	0.0276
457.3018	0.0098
457.5038	0.0128
457.7058	0.0036
457.9078	-0.0106
458.1098	0.0106
458.3117	0.0249
458.5137	0.0028
458.7156	0.0072
458.9175	0.0044
459.1194	-0.0091
459.3213	0.0092
459.5232	-0.003
459.725	-0.0151
459.9269	0.0164
460.1287	0.0066
460.3305	0.0074
460.5323	0.0123
460.7341	-0.0165
460.9359	0.0135
461.1376	0.0208
461.3394	-0.0187
461.5411	-0.019
461.7428	-0.0032
461.9445	-0.0046
462.1462	-0.0008
462.3479	-0.0158
462.5495	-0.0043
462.7512	-0.0049
462.9528	-0.0024
463.1544	0.0108
463.356	0.0047
463.5576	-0.0029
463.7592	-0.0258
463.9607	0.0068
464.1623	-0.0104
464.3638	0.02
464.5653	-0.004
464.7668	-0.0079
464.9683	0.0021
465.1697	0.0132
465.3712	-0.0074
465.5726	0.0161
465.7741	0.001
465.9755	-0.0185
466.1769	-0.0016
466.3782	0.0074
466.5796	-0.0078
466.7809	-0.0069
466.9823	-0.013
467.1836	0.0134
467.3849	0.0011
467.5862	-0.0134
467.7875	0.006
467.9887	-0.0037
468.19	-0.0033
468.3912	0.0129
468.5924	-0.013
468.7936	0.0001
468.9948	-0.0099
469.196	0.0052
469.3972	-0.0019
469.5983	0.0131
469.7994	-0.0078
470.0006	-0.0194
470.2017	0.0005
470.4027	-0.0087
470.6038	-0.0109
470.8049	0.0112
471.0059	-0.0092
471.2069	-0.01
471.408	0.0071
471.6089	-0.005
471.8099	-0.0002
472.0109	-0.017
472.2119	-0.0028
472.4128	-0.0132
472.6137	0.0146
472.8146	-0.0003
473.0155	-0.0051
473.2164	-0.0006
473.4173	-0.0051
473.6181	-0.0073
473.819	-0.0003
474.0198	-0.0115
474.2206	-0.0093
474.4214	-0.0024
474.6222	0.0027
474.8229	-0.0122
475.0237	-0.0088
475.2244	-0.005
475.4251	-0.0063
475.6258	-0.012
475.8265	-0.0124
476.0272	-0.0034
476.2278	-0.0109
476.4285	-0.0174
476.6291	-0.0047
476.8297	0.0093
477.0303	0.0038
477.2309	-0.0144
477.4315	-0.0071
477.632	-0.0194
477.8326	-0.0136
478.0331	-0.0217
478.2336	-0.0152
478.4341	-0.0096
478.6346	-0.0021
478.8351	-0.0081
479.0355	-0.0232
479.236	-0.0246
479.4364	-0.0164
479.6368	-0.0037
479.8372	-0.0065
480.0376	-0.015
480.2379	-0.0116
480.4383	-0.0109
480.6386	-0.0055
480.8389	-0.0181
481.0392	-0.003
481.2395	0.0003
481.4398	-0.0202
481.6401	-0.0084
481.8403	-0.0013
482.0405	-0.0119
482.2408	-0.0202
482.441	-0.0194
482.6411	-0.026
482.8413	-0.008
483.0415	-0.0026
483.2416	-0.0182
483.4417	0.0087
483.6419	-0.0143
483.8419	-0.0132
484.042	0.001
484.2421	-0.0112
484.4422	-0.0089
484.6422	0.0036
484.8422	-0.0071
485.0422	0.0004
485.2422	-0.0128
485.4422	-0.0125
485.6422	-0.013
485.8421	0.0025
486.042	-0.0064
486.242	-0.0133
486.4419	-0.0075
486.6417	-0.0008
486.8416	-0.0071
487.0415	-0.0116
487.2413	-0.0064
487.4411	-0.0002
487.641	0.006
487.8408	-0.0161
488.0405	-0.0062
488.2403	0.0006
488.4401	0.0018
488.6398	-0.0172
488.8395	-0.0163
489.0392	-0.0029
489.2389	-0.0096
489.4386	-0.0164
489.6383	-0.0157
489.8379	-0.0098
490.0376	-0.0057
490.2372	0.0053
490.4368	-0.0014
490.6364	-0.0072
490.836	-0.0176
491.0355	-0.0062
491.2351	-0.0167
491.4346	-0.0256
491.6341	-0.0052
491.8336	-0.0097
492.0331	-0.0232
492.2326	-0.0163
492.432	-0.0125
492.6315	-0.0095
492.8309	-0.0107
493.0303	-0.011
493.2297	-0.0118
493.4291	-0.0069
493.6284	-0.0282
493.8278	-0.0125
494.0271	-0.0035
494.2264	-0.0085
494.4257	-0.0177
494.625	-0.0063
494.8243	-0.0061
495.0236	-0.0034
495.2228	-0.0073
495.422	-0.0047
495.6213	-0.0178
495.8205	-0.0165
496.0196	-0.0157
496.2188	-0.0025
496.418	-0.0151
496.6171	-0.0236
496.8162	-0.0051
497.0153	-0.0016
497.2144	-0.0087
497.4135	-0.0076
497.6126	-0.0147
497.8116	-0.0152
498.0107	-0.0054
498.2097	-0.0089
498.4087	-0.0215
498.6077	-0.0184
498.8067	0.0105
499.0056	-0.0218
499.2046	0.0048
499.4035	-0.014
499.6024	-0.0148
499.8013	-0.0105
500.0002	-0.0163
500.199	-0.0123
500.3979	-0.002
500.5967	-0.0196
500.7956	-0.0177
500.9944	-0.0125
501.1932	-0.0069
501.3919	-0.0078
501.5907	-0.013
501.7895	-0.0193
501.9882	-0.009
502.1869	-0.0173
502.3856	-0.0101
502.5843	-0.0071
502.783	0.0052
502.9816	-0.0038
503.1803	0.0022
503.3789	-0.0075
503.5775	-0.006
503.7761	-0.0052
503.9747	-0.0165
504.1732	-0.0082
504.3718	0.011
504.5703	-0.0073
504.7689	-0.0081
504.9674	-0.0094
505.1658	-0.001
505.3643	-0.0044
505.5628	-0.001
505.7612	-0.0049
505.9597	-0.0165
506.1581	-0.003
506.3565	-0.0073
506.5549	-0.0092
506.7532	-0.0037
506.9516	-0.0103
507.1499	-0.0122
507.3482	-0.0152
507.5465	0.0058
507.7448	-0.0037
507.9431	-0.0014
508.1414	-0.0199
508.3396	-0.0139
508.5379	-0.002
508.7361	-0.008
508.9343	-0.0106
509.1325	-0.0063
509.3306	-0.0203
509.5288	-0.0197
509.7269	-0.0068
509.9251	-0.0085
510.1232	-0.0107
510.3213	-0.0031
510.5193	0.005
510.7174	-0.0179
510.9154	-0.0027
511.1135	-0.0113
511.3115	-0.0064
511.5095	-0.0127
511.7075	0.0006
511.9055	-0.0118
512.1034	-0.0028
512.3014	-0.0018
512.4993	0.0056
512.6972	-0.0082
512.8951	0.0033
513.093	-0.0158
513.2908	-0.0113
513.4887	-0.0131
513.6865	0.0033
513.8844	-0.0039
514.0822	-0.006
514.2799	-0.0145
514.4777	-0.0014
514.6755	-0.0025
514.8732	-0.0119
515.0709	-0.0046
515.2687	0.001
515.4664	0.0038
515.664	-0.0169
515.8617	0.0063
516.0594	-0.0091
516.257	-0.0029
516.4546	-0.0126
516.6522	0.0016
516.8498	-0.0134
517.0474	-0.0038
517.2449	-0.02
517.4425	-0.0008
517.64	-0.0126
517.8375	-0.0047
518.035	-0.0135
518.2325	-0.0158
518.43	-0.0072
518.6274	-0.0001
518.8249	-0.0043
519.0223	-0.0123
519.2197	0.0062
519.4171	-0.0005
519.6145	-0.0047
519.8118	-0.0145
520.0092	-0.0086
520.2065	-0.0092
520.4038	-0.014
520.6011	-0.0089
520.7984	-0.0016
520.9956	-0.0005
521.1929	-0.0039
521.3901	-0.0049
521.5874	-0.0062
521.7846	-0.0027
521.9818	0.0009
522.1789	-0.0043
522.3761	-0.0047
522.5732	-0.0107
522.7704	-0.0047
522.9675	-0.009
523.1646	-0.0079
523.3617	-0.0069
523.5587	0.0005
523.7558	-0.0026
523.9528	-0.0044
524.1498	0.0004
524.3468	-0.0083
524.5438	-0.0018
524.7408	-0.0174
524.9378	0.0139
525.1347	0.0021
525.3316	-0.0014
525.5285	-0.0113
525.7254	-0.0022
525.9223	-0.005
526.1192	-0.0086
526.316	-0.0022
526.5129	-0.0005
526.7097	0.0046
526.9065	0.0063
527.1033	-0.008
527.3	-0.006
527.4968	-0.0125
527.6935	0.0118
527.8903	-0.0053
528.087	-0.006
528.2837	0.0072
528.4804	0.0003
528.677	-0.0004
528.8737	-0.0098
529.0703	0.0004
529.2669	-0.0097
529.4635	0.0057
529.6601	-0.009
529.8567	0.0008
530.0532	0.0051
530.2498	0.0003
530.4463	-0.0011
530.6428	-0.004
530.8393	0.0002
531.0358	-0.0066
531.2322	0.0119
531.4287	0.0017
531.6251	-0.0008
531.8215	0.0023
532.0179	-0.0054
532.2143	-0.0028
532.4107	-0.0052
532.607	-0.0073
532.8034	-0.0107
532.9997	-0.0098
533.196	-0.0004
533.3923	0.0014
533.5886	-0.0027
533.7848	0.0047
533.9811	0.0005
534.1773	-0.0033
534.3735	-0.0061
534.5697	-0.0029
534.7659	-0.0132
534.9621	-0.0003
535.1582	-0.0029
535.3544	0.0025
535.5505	-0
535.7466	0.0031
535.9427	-0.0084
536.1387	-0.0009
536.3348	-0.0073
536.5308	-0.0094
536.7269	-0.0023
536.9229	-0.0039
537.1189	-0.0136
537.3148	-0.01
537.5108	0.0055
537.7068	-0.0052
537.9027	-0.0045
538.0986	-0.007
538.2945	-0.0085
538.4904	-0.0053
538.6863	-0.0059
538.8821	-0.0078
539.078	0.005
539.2738	0.0006
539.4696	-0.0107
539.6654	-0.0042
539.8611	-0.0032
540.0569	-0.0064
540.2526	-0.0051
540.4484	0.0024
540.6441	0.0007
540.8398	-0.0043
541.0355	0.0044
541.2311	-0.0078
541.4268	0.0004
541.6224	0.002
541.818	-0.0009
542.0136	-0.0013
542.2092	0.0023
542.4048	0.0059
542.6003	0.0005
542.7959	-0.0022
542.9914	-0.0027
543.1869	-0.0052
543.3824	-0.0032
543.5779	0.0063
543.7734	-0.0009
543.9688	-0.0059
544.1642	-0.0117
544.3596	0.0072
544.555	0.0011
544.7504	0.0031
544.9458	0.0075
545.1411	0.0008
545.3365	0.0102
545.5318	0.0075
545.7271	-0.0033
545.9224	0.005
546.1177	-0.0114
546.3129	-0.0045
546.5081	-0.0113
546.7034	-0.001
546.8986	-0.0013
547.0938	-0.0024
547.289	-0.0026
547.4841	0.0044
547.6793	-0.0001
547.8744	-0.0011
548.0695	-0.0014
548.2646	-0.0005
548.4597	-0.0064
548.6548	-0.0012
548.8498	-0.0042
549.0448	-0.009
549.2399	0.0033
549.4349	0.0039
549.6298	0.0014
549.8248	0.0015
550.0198	0.0027
550.2147	0.0005
550.4096	-0.006
550.6045	-0.0103
550.7994	-0.0063
550.9943	-0.0028
551.1892	-0.0182
551.384	-0.0008
551.5788	-0.0017
551.7737	-0.0036
551.9685	-0.0028
552.1632	-0.0032
552.358	-0.008
552.5528	-0.0019
552.7475	-0.0023
552.9422	0.0047
553.1369	-0.0001
553.3316	-0.0079
553.5263	0.0093
553.7209	-0.0052
553.9156	0.0044
554.1102	-0.007
554.3048	-0.0037
554.4994	0.0007
554.694	0.0071
554.8885	0.0015
555.0831	-0.0023
555.2776	0.0051
555.4721	0.0102
555.6666	-0.0053
555.8611	-0.0043
556.0555	0.0051
556.25	0.0007
556.4444	0.0059
556.6388	0.0053
556.8332	0.0005
557.0276	0.004
557.222	-0.0064
557.4163	0.0109
557.6107	0.018
557.805	0.0078
557.9993	-0.0085
558.1936	0.0031
558.3879	0.0076
558.5821	0.0119
558.7764	0.0089
558.9706	0.0054
559.1648	0.0077
559.359	0.0098
559.5532	0.0036
559.7473	0.0113
559.9415	0.005
560.1356	0.0087
560.3297	-0.0039
560.5238	0.0099
560.7179	0.0027
560.9119	-0.0009
561.106	-0.0001
561.3	0.0075
561.494	0.0042
561.688	0.0036
561.882	0.0045
562.076	0.0052
562.2699	0.0037
562.4639	-0.0009
562.6578	-0.0049
562.8517	0.0046
563.0456	0.007
563.2395	0.0065
563.4333	-0.0069
563.6272	0.0043
563.821	-0.0082
564.0148	0.0031
564.2086	-0.0122
564.4024	-0.0114
564.5961	0.0005
564.7899	-0.002
564.9836	0.0001
565.1773	0.0054
565.371	0.0102
565.5647	-0.009
565.7584	-0.0007
565.952	0.0031
566.1456	0.0091
566.3393	0.0032
566.5329	-0.009
566.7264	0.0043
566.92	-0.0048
567.1136	0.007
567.3071	0.0059
567.5006	0.001
567.6941	0.0051
567.8876	-0.0041
568.0811	0.0003
568.2745	-0.0006
568.468	0.0026
568.6614	0.0037
568.8548	0.0042
569.0482	0.0078
569.2416	0.0034
569.4349	-0.005
569.6283	-0.0031
569.8216	0.0041
570.0149	0.0049
570.2082	0.008
570.4015	-0.0023
570.5947	0.0006
570.788	0.0026
570.9812	0.0066
571.1744	0.0028
571.3676	-0.0005
571.5608	-0.002
571.754	-0.0009
571.9471	0.0014
572.1402	0.0045
572.3333	0.0043
572.5264	0
572.7195	-0.0069
572.9126	0.0045
573.1057	0.0075
573.2987	0.005
573.4917	-0.0018
573.6847	-0.0065
573.8777	-0.0006
574.0707	0.0043
574.2636	0.0053
574.4566	0.0006
574.6495	-0.0011
574.8424	0.0021
575.0353	0
575.2281	0.0004
575.421	0.0037
575.6138	0.0004
575.8067	0.0026
575.9995	-0.001
576.1923	0.0073
576.385	-0.0027
576.5778	-0.0081
576.7706	0.0031
576.9633	-0.001
577.156	0.0022
577.3487	0.0004
577.5414	0.0007
577.734	-0.0091
577.9267	-0.0045
578.1193	0.0004
578.3119	-0.0015
578.5045	0.0046
578.6971	-0.0021
578.8897	-0.0003
579.0822	0.0034
579.2747	-0.0034
579.4673	-0.0019
579.6598	0.0073
579.8522	0.0051
580.0447	-0.0006
580.2372	0.008
580.4296	0.0087
580.622	0.0033
580.8144	0.0067
581.0068	0.0042
581.1992	0.0051
581.3915	0.0025
581.5839	0.0013
581.7762	0.0015
581.9685	0.0007
582.1608	0.003
582.353	0.0003
582.5453	0.001
582.7375	0.001
582.9298	-0.0043
583.122	0.0068
583.3142	0.0039
583.5063	-0.0005
583.6985	0.0001
583.8906	0.0024
584.0827	0.0005
584.2749	-0.0041
584.4669	-0.0037
584.659	0.0019
584.8511	-0.005
585.0431	-0.0068
585.2352	-0.0034
585.4272	-0.0058
585.6192	0.0036
585.8111	-0.0056
586.0031	0.0003
586.195	0.0009
586.387	-0.0022
586.5789	0.001
586.7708	-0.0036
586.9627	0.0028
587.1545	0.0059
587.3464	0.008
587.5382	-0.008
587.73	0.0018
587.9218	-0.0022
588.1136	-0.0036
588.3053	-0.0106
588.4971	0.0006
588.6888	0.0036
588.8805	-0.0037
589.0722	0.0022
589.2639	-0.0023
589.4556	0.0006
589.6472	-0.0033
589.8389	-0.0001
590.0305	-0.0001
590.2221	0.002
590.4137	-0.0034
590.6052	-0.0011
590.7968	-0.0026
590.9883	0.0017
591.1798	-0.0067
591.3713	0.004
591.5628	-0.001
591.7543	0.0116
591.9458	0.0033
592.1372	0.0045
592.3286	0.0038
592.52	0.0053
592.7114	0.0099
592.9028	-0.0026
593.0941	0.0047
593.2855	-0.0027
593.4768	-0.0005
593.6681	-0.0013
593.8594	0.0007
594.0506	-0.0092
594.2419	0.0077
594.4331	-0.0057
594.6244	-0.0023
594.8156	-0.0008
595.0067	-0.0044
595.1979	0
595.3891	-0.0034
595.5802	-0.0041
595.7713	-0.0059
595.9624	0.0055
596.1535	-0.0001
596.3446	0.001
596.5357	0.0029
596.7267	-0.0027
596.9177	0.0076
597.1087	0.0087
597.2997	0.0015
597.4907	0.0032
597.6817	0.001
597.8726	0.0111
598.0635	0.0018
598.2544	0.0044
598.4453	0.0034
598.6362	0.0028
598.827	0.0034
599.0179	-0.0001
599.2087	0.002
599.3995	0.0043
599.5903	-0.0027
599.7811	0.0048
599.9718	-0.0009
600.1626	0.0085
600.3533	0.0031
600.544	0.0033
600.7347	0.0056
600.9254	0.0016
601.116	-0.0005
601.3067	-0.0081
601.4973	-0.0072
601.6879	-0.002
601.8785	0.0045
602.0691	0.0042
602.2596	0.0044
602.4502	0.0009
602.6407	-0.0019
602.8312	0.0016
603.0217	0.0019
603.2122	-0.0029
603.4027	0.005
603.5931	0.0049
603.7835	0.0019
603.9739	0.0002
604.1643	0.0025
604.3547	0.0006
604.5451	0.0017
604.7354	0.0116
604.9257	0.0032
605.116	-0.0018
605.3063	-0.0006
605.4966	0.0001
605.6869	0.0107
605.8771	0.006
606.0673	-0.0007
606.2575	-0.0012
606.4477	0.0015
606.6379	0.0088
606.8281	0.0001
607.0182	-0.0011
607.2083	-0.0018
607.3985	0.0061
607.5885	-0.0107
607.7786	0.0052
607.9687	0.0032
608.1587	0.005
608.3488	0.0063
608.5388	0.0024
608.7288	-0.0098
608.9187	0.0011
609.1087	-0.0009
609.2986	0.0005
609.4886	0.0009
609.6785	-0.0014
609.8684	0.0039
610.0582	0.0076
610.2481	0.0031
610.4379	-0.0035
610.6278	0.0024
610.8176	0.0087
611.0074	0.0078
611.1971	0.0018
611.3869	-0.0038
611.5766	-0.0008
611.7664	0.0088
611.9561	0.0075
612.1458	-0.0006
612.3354	0.009
612.5251	0.0013
612.7147	0.0012
612.9044	0.0015
613.094	-0.0012
613.2836	0.0089
613.4731	0.0023
613.6627	0.0038
613.8522	0.005
614.0417	0.0075
614.2313	0.0075
614.4207	0.008
614.6102	-0.0033
614.7997	0.0042
614.9891	0.0051
615.1785	0.0019
615.3679	0.0086
615.5573	0.0036
615.7467	0.0022
615.9361	0.0047
616.1254	0.0058
616.3147	-0.0028
616.504	-0.002
616.6933	0.0052
616.8826	0.0042
617.0718	0.008
617.2611	0.0063
617.4503	0.011
617.6395	0.011
617.8287	0.0161
618.0179	0.0019
618.207	0.0107
618.3961	0.0061
618.5853	0.0092
618.7744	0.0013
618.9634	0.0061
619.1525	0.0098
619.3416	0.0104
619.5306	0.0072
619.7196	-0.0045
619.9086	0.0081
620.0976	0.0067
620.2866	0.0065
620.4755	0.0077
620.6645	0.0079
620.8534	0.0042
621.0423	-0.001
621.2312	0.0043
621.42	0.0067
621.6089	0.0133
621.7977	0.0107
621.9865	0.0145
622.1753	0.0165
622.3641	0.0044
622.5529	0.008
622.7416	0.0099
622.9303	0.01
623.1191	0.0106
623.3078	0.0014
623.4964	0.0153
623.6851	0.0078
623.8737	0.0182
624.0624	0.0065
624.251	0.0043
624.4396	0.001
624.6282	0.0072
624.8167	0.0097
625.0053	-0.0012
625.1938	0.0053
625.3823	0.0059
625.5708	0.0104
625.7593	0.003
625.9477	0.0132
626.1362	0.0053
626.3246	0.0111
626.513	-0.0016
626.7014	0.0076
626.8898	0.0085
627.0781	0.0005
627.2665	0.0059
627.4548	0.0019
627.6431	0.0067
627.8314	0.013
628.0197	0.0038
628.2079	0.0076
628.3962	0.0044
628.5844	0.0122
628.7726	0.0046
628.9608	0.0112
629.1489	0.0002
629.3371	0.0095
629.5252	0.0022
629.7134	0.006
629.9015	0.0046
630.0895	0.0077
630.2776	-0.0002
630.4657	0.0069
630.6537	0.0049
630.8417	0.0138
631.0297	0.0156
631.2177	0.0026
631.4057	0.0067
631.5936	0.0105
631.7815	0.0061
631.9695	0.0117
632.1574	0.0061
632.3452	0.0093
632.5331	0.0043
632.7209	0.0052
632.9088	0.0028
633.0966	0.0003
633.2844	0.0017
633.4722	0.0074
633.6599	-0.0011
633.8477	0.0106
634.0354	-0.0013
634.2231	0.0075
634.4108	0.0031
634.5985	0.0076
634.7861	0.0086
634.9738	0.0125
635.1614	0.0101
635.349	0.0031
635.5366	0.0077
635.7242	0.0067
635.9117	0.0129
636.0993	0.0049
636.2868	0.0099
636.4743	0.0012
636.6618	0.0059
636.8492	0.0169
637.0367	0.0049
637.2241	0.007
637.4115	0.0062
637.5989	0.0164
637.7863	0.006
637.9737	0.005
638.161	0.0098
638.3484	0.0069
638.5357	-0.0019
638.723	-0.0025
638.9103	0.0069
639.0975	0.0003
639.2848	0.0112
639.472	0.005
639.6592	0.0088
639.8464	0.0108
640.0336	0.0032
640.2208	-0.0035
640.4079	0.0058
640.595	0.0027
640.7821	0.0046
640.9692	0.0046
641.1563	-0.0011
641.3434	0.0129
641.5304	0.0069
641.7174	0.0075
641.9044	0.0037
642.0914	0.0014
642.2784	-0.0025
642.4653	0.0056
642.6523	0.0044
642.8392	0.0059
643.0261	0.0088
643.213	-0.0006
643.3999	-0.0004
643.5867	0.0115
643.7735	0.0075
643.9604	-0.0027
644.1472	0.0028
644.3339	-0.0075
644.5207	0.0121
644.7075	0.0038
644.8942	0.0062
645.0809	-0.0003
645.2676	0.0077
645.4543	0.0086
645.6409	0.0024
645.8276	-0.0011
646.0142	0.0058
646.2008	0.0123
646.3874	0.0069
646.574	0.0083
646.7605	0.0048
646.9471	0.0086
647.1336	0.0004
647.3201	0.0078
647.5066	-0.0004
647.6931	0.0009
647.8795	-0.0012
648.0659	0.0085
648.2524	0.0033
648.4388	-0.0003
648.6252	-0.0114
648.8115	0.0004
648.9979	-0.0001
649.1842	0.0061
649.3705	-0.0074
649.5568	0.0001
649.7431	0.0091
649.9294	0.0064
650.1156	0.0094
650.3018	0.0091
650.488	0.0054
650.6742	0.0044
650.8604	0.0096
651.0466	0.0123
651.2327	0.0116
651.4188	0.0082
651.6049	0.0125
651.791	0.006
651.9771	0.0103
652.1632	0.0051
652.3492	0.0066
652.5352	0.0091
652.7212	0.0087
652.9072	-0.005
653.0932	-0.0003
653.2791	-0.0024
653.465	0.0035
653.651	0.0119
653.8369	0.0002
654.0227	0.0084
654.2086	0.0044
654.3944	0.0084
654.5803	0.0063
654.7661	0.0076
654.9519	-0.0037
655.1377	-0.0021
655.3234	-0.0018
655.5092	-0.0021
655.6949	-0.0074
655.8806	-0.0101
656.0663	-0.0026
656.2519	-0.0076
656.4376	-0.0044
656.6232	0.0028
656.8088	0.0054
656.9945	0.0038
657.18	0.0034
657.3656	0.0019
657.5511	-0.0032
657.7367	0.0094
657.9222	-0.0002
658.1077	0.0028
658.2932	0.0038
658.4786	0.0016
658.6641	0.0017
658.8495	0.0062
659.0349	0.0053
659.2203	0.0033
659.4057	0.0008
659.591	0.0094
659.7764	0
659.9617	-0.005
660.147	0.0105
660.3323	0.0052
660.5176	-0.0043
660.7028	0.002
660.888	0.0125
661.0733	0.0089
661.2585	0.0091
661.4436	0.0075
661.6288	0.0078
661.8139	0.0039
661.9991	-0.0088
662.1842	0.0034
662.3693	-0.0027
662.5544	0.0045
662.7394	0.0116
662.9245	0.0092
663.1095	0.0109
663.2945	0.0116
663.4795	0.0058
663.6644	0.0111
663.8494	0.0042
664.0343	0.0047
664.2193	0.0113
664.4042	0.0112
664.589	0.0024
664.7739	0.0008
664.9587	0.0026
665.1436	-0.0012
665.3284	0.0056
665.5132	0.0092
665.698	0.0034
665.8827	0.0116
666.0675	0.0007
666.2522	0.0021
666.4369	0.0051
666.6216	0.0095
666.8063	0.0066
666.9909	-0.0017
667.1756	0.0133
667.3602	0.006
667.5448	0.0174
667.7294	0.0112
667.9139	0.0031
668.0985	0.0088
668.283	-0.0005
668.4675	0.0076
668.652	0.0088
668.8365	-0.0039
669.0209	0.0121
669.2054	0.0046
669.3898	-0.0046
669.5742	-0.0011
669.7586	0.0057
669.943	0.0011
670.1273	0.0114
670.3117	-0.0033
670.496	0.0042
670.6803	0.0072
670.8646	0.0065
671.0488	0.0053
671.2331	0.0092
671.4173	0.0086
671.6015	0.0061
671.7857	0.0031
671.9699	0.0124
672.1541	0.0034
672.3382	0.0117
672.5223	0.0116
672.7064	0.0061
672.8905	0.0045
673.0746	0.0136
673.2587	0.0073
673.4427	0.0019
673.6267	0.0015
673.8107	0.0175
673.9947	0.0034
674.1787	0.0071
674.3626	0.0059
674.5465	0.0112
674.7304	0.0095
674.9143	0.0092
675.0982	0.0061
675.2821	0.0006
675.4659	0.0083
675.6497	-0.0019
675.8335	0.0147
676.0173	0.0067
676.2011	0.0064
676.3849	0.006
676.5686	0.0185
676.7523	0.0037
676.936	-0.0016
677.1197	0.0081
677.3034	0.002
677.487	0.0148
677.6706	0.0164
677.8542	0.0083
678.0378	0.0061
678.2214	0.0054
678.405	0.0183
678.5885	0.0024
678.772	0.0099
678.9555	0.0078
679.139	0.0073
679.3225	0.0086
679.5059	0.0109
679.6894	0.0057
679.8728	0.0027
680.0562	0.0046
680.2395	0.0097
680.4229	-0.0002
680.6062	0.0037
680.7896	0.0062
680.9729	-0.0019
681.1562	-0.0023
681.3394	0.0004
681.5227	0.0023
681.7059	0.001
681.8891	0.0068
682.0723	0.0034
682.2555	0.0136
682.4387	-0.0047
682.6218	0.0078
682.805	0.0062
682.9881	0.0151
683.1712	0.0129
683.3542	0.0062
683.5373	0.0099
683.7203	0.0157
683.9034	0.0129
684.0864	0.0065
684.2694	0.01
684.4523	0.009
684.6353	0.0038
684.8182	0.0055
685.0011	0.0016
685.184	0.0067
685.3669	0.0045
685.5498	0.001
685.7326	-0.0037
685.9154	0.0057
686.0982	0.0067
686.281	0.0039
686.4638	-0.0005
686.6465	0.0067
686.8293	0.0003
687.012	0.0118
687.1947	-0.0021
687.3774	0.0103
687.56	0.0044
687.7427	0.0128
687.9253	0.0056
688.1079	0.0058
688.2905	-0.0022
688.4731	0.0069
688.6556	0.012
688.8382	0.0056
689.0207	0.0066
689.2032	0.0019
689.3857	0.0087
689.5681	-0.0007
689.7506	-0.0023
689.933	0.0043
690.1154	0.004
690.2978	0.0027
690.4802	-0.0058
690.6626	0.0017
690.8449	0.0146
691.0272	0.0052
691.2095	0.0087
691.3918	0.0052
691.5741	0.012
691.7563	0.0039
691.9386	0.0061
692.1208	0.0008
692.303	0.0031
692.4852	0.0141
692.6673	0.0157
692.8495	0.0077
693.0316	0.0138
693.2137	0.0122
693.3958	0.0035
693.5778	0.0065
693.7599	0.0137
693.9419	0.0127
694.1239	0.0124
694.3059	0.0121
694.4879	0.0049
694.6699	0.0043
694.8518	0.0137
695.0337	0.0057
695.2157	0.01
695.3975	0.0055
695.5794	0.0019
695.7613	0.0063
695.9431	0.0062
696.1249	0.0119
696.3067	-0.0006
696.4885	0.0071
696.6703	0.0159
696.852	0.0037
697.0337	0.0096
697.2154	0.0122
697.3971	0.003
697.5788	0.0103
697.7605	0.0052
697.9421	-0.0014
698.1237	0.0114
698.3053	0.0012
698.4869	0.0058
698.6685	0.0047
698.85	0.0039
699.0315	0.0159
699.213	0.016
699.3945	-0.0014
699.576	0.0185
699.7575	0.015
699.9389	0.0116
700.1203	0.0147
700.3017	0.014
700.4831	0.0036
700.6645	0.0026
700.8458	0.0073
701.0271	0.0102
701.2084	0.0019
701.3897	-0.009
701.571	0.0044
701.7523	-0.0051
701.9335	-0.0016
702.1147	-0.0082
702.2959	-0.0064
702.4771	0.0023
702.6583	-0.0059
702.8394	0.002
703.0205	-0.0067
703.2016	0.0058
703.3827	0.0009
703.5638	0.0085
703.7449	0.0086
703.9259	-0.0037
704.1069	0.0025
704.2879	0.0034
704.4689	0.0043
704.6499	-0.0022
704.8308	0.001
705.0117	0.0013
705.1927	0.008
705.3735	-0.0022
705.5544	-0.0052
705.7353	0.008
705.9161	0.0001
706.0969	0.0063
706.2777	0.0073
706.4585	0.0067
706.6393	0.0047
706.82	0.0017
707.0007	0.0032
707.1815	0.002
707.3621	0.0049
707.5428	0.0035
707.7235	0.0019
707.9041	0.0001
708.0847	0.0128
708.2653	0.0107
708.4459	0.0114
708.6265	0.0107
708.807	0.0087
708.9875	0.0175
709.168	0.0163
709.3485	0.0087
709.529	0.0021
709.7095	0.0082
709.8899	0.0085
710.0703	0.0032
710.2507	-0.001
710.4311	0.0161
710.6115	0.003
710.7918	0.0109
710.9721	0.0131
711.1524	0.0045
711.3327	0.0119
711.513	-0.0085
711.6932	0.0041
711.8735	0.0003
712.0537	0.0032
712.2339	-0.0102
712.4141	-0.0034
712.5942	-0.0027
712.7744	0.0067
712.9545	0.0035
713.1346	0.0052
713.3147	-0.0043
713.4947	0.0025
713.6748	-0.0011
713.8548	0.0083
714.0348	0.0001
714.2148	-0.0017
714.3948	-0.0007
714.5748	0.0051
714.7547	0.0036
714.9346	-0.0021
715.1145	-0.0014
715.2944	-0.0032
715.4743	0.0003
715.6541	0.0168
715.834	0.0001
716.0138	0.0099
716.1936	0.0039
716.3733	0.0068
716.5531	0.0125
716.7328	0.0005
716.9126	0.0032
717.0923	0.0078
717.2719	0.0054
717.4516	0.0044
717.6312	0.0055
717.8109	0.005
717.9905	-0.0001
718.1701	-0.0066
718.3496	0.0099
718.5292	0.0029
718.7087	-0.0053
718.8882	-0.0033
719.0677	0.0038
719.2472	-0.0037
719.4267	0.0079
719.6061	0.0005
719.7856	0.0012
719.965	0.0042
720.1443	0.0111
720.3237	0.0097
720.5031	0.0052
720.6824	0.0033
720.8617	0.0028
721.041	-0.0057
721.2203	0.0088
721.3995	0.006
721.5788	0.0071
721.758	-0.0036
721.9372	0.0117
722.1164	0.0023
722.2956	0.0015
722.4747	0.0077
722.6538	0.0013
722.8329	0.0034
723.012	0.0013
723.1911	0.0039
723.3702	0.004
723.5492	0.0021
723.7282	0.0082
723.9072	0.0018
724.0862	0.0077
724.2652	0.0093
724.4441	-0.0066
724.623	0.0112
724.8019	-0.0091
724.9808	0.0026
725.1597	0.0006
725.3385	0.0139
725.5174	0.002
725.6962	0.0003
725.875	-0.0017
726.0538	-0.0022
726.2325	0.0015
726.4112	-0.0013
726.59	0.0005
726.7687	-0.0091
726.9474	-0.0105
727.126	-0.0012
727.3047	-0.0058
727.4833	-0.0048
727.6619	-0.0044
727.8405	-0.0061
728.0191	-0.0045
728.1976	-0.0044
728.3762	0.009
728.5547	0.0003
728.7332	0.0039
728.9116	-0.0097
729.0901	-0.0003
729.2686	-0.005
729.447	-0.0003
729.6254	0.0089
729.8038	0.0054
729.9821	-0.0052
730.1605	0.0075
730.3388	0.0007
730.5171	-0.0005
730.6954	0.0053
730.8737	-0.0018
731.0519	-0.0001
731.2302	0.0005
731.4084	0.0005
731.5866	-0
731.7648	0.0117
731.9429	-0.0009
732.1211	0.0036
732.2992	0.0075
732.4773	-0.0046
732.6554	-0.0079
732.8335	-0.0041
733.0115	0.0045
733.1896	-0.0059
733.3676	-0.0061
733.5456	-0.0066
733.7235	-0.0039
733.9015	0.0098
734.0794	0.0051
734.2574	0.0051
734.4353	-0.0001
734.6131	0.0005
734.791	0.001
734.9689	0.013
735.1467	-0.0027
735.3245	-0.0001
735.5023	0.0121
735.68	0.0165
735.8578	0.0095
736.0355	-0.003
736.2132	0.0103
736.3909	-0.0003
736.5686	0.0216
736.7463	0.0022
736.9239	0.0088
737.1015	0.0043
737.2791	0.0134
737.4567	-0.0001
737.6343	0.0041
737.8118	0.0092
737.9894	-0.0046
738.1669	0.0119
738.3444	-0.0054
738.5218	0.0078
738.6993	0.0064
738.8767	-0.0007
739.0541	-0.0026
739.2315	0.0062
739.4089	0.007
739.5863	0.0067
739.7636	-0.0023
739.9409	-0.0014
740.1182	0.0007
740.2955	0.0108
740.4728	0.0098
740.65	-0.0005
740.8272	-0.0043
741.0044	-0.0088
741.1816	0.0099
741.3588	-0.0063
741.5359	-0.0025
741.7131	0.0034
741.8902	0.0018
742.0673	0.0199
742.2444	-0.0001
742.4214	-0.0027
742.5985	0.0078
742.7755	0.0023
742.9525	0.0051
743.1295	0.0061
743.3064	0.0094
743.4834	-0.0026
743.6603	-0.0058
743.8372	-0.005
744.0141	0.002
744.191	0.0031
744.3678	-0.0021
744.5446	0.0018
744.7215	0.0072
744.8982	0.0041
745.075	-0.0035
745.2518	-0.0076
745.4285	-0.0077
745.6052	0.0042
745.7819	-0.0122
745.9586	-0.0055
746.1353	-0.006
746.3119	-0.0018
746.4885	-0.0005
746.6651	-0.0093
746.8417	0.0026
747.0183	0.0071
747.1948	0.0083
747.3714	0.0062
747.5479	-0.0057
747.7244	-0.0026
747.9008	0.0119
748.0773	0.0119
748.2537	0.0022
748.4301	0.0018
748.6065	0.0091
748.7829	-0.0069
748.9593	-0.0006
749.1356	-0.0027
749.3119	0.0082
749.4882	0.0101
749.6645	0.0013
749.8408	0.0032
750.017	0.0066
750.1933	0.0123
750.3695	0.0097
750.5457	0.0055
750.7218	0.004
750.898	0.0135
751.0741	0.0168
751.2502	0.0154
751.4263	0.0109
751.6024	0.0124
751.7784	0.0036
751.9545	0.0049
752.1305	0.0017
752.3065	0.0105
752.4825	0.0065
752.6584	0.006
752.8344	-0.0024
753.0103	0.0012
753.1862	0.0065
753.3621	-0.0063
753.5379	0.003
753.7138	0.0067
753.8896	0.005
754.0654	0.0078
754.2412	-0.0051
754.417	-0.011
754.5927	0.008
754.7685	0.0042
754.9442	-0.0003
755.1199	0.0037
755.2956	0.0035
755.4712	-0.0046
755.6469	0.0101
755.8225	0.003
755.9981	0.0069
756.1736	-0.0072
756.3492	0.0032
756.5248	0.0145
756.7003	0.0051
756.8758	0.0086
757.0513	0.0048
757.2267	0.0044
757.4022	0.0032
757.5776	0.0052
757.753	0.0119
757.9284	0.0092
758.1038	-0.0024
758.2791	0.0022
758.4545	0.0001
758.6298	0.0081
758.8051	0.0044
758.9803	0.0166
759.1556	0.008
759.3308	0.0075
759.506	0.0056
759.6812	0.0001
759.8564	0.0039
760.0316	0.0173
760.2067	-0.0056
760.3819	0.0054
760.557	-0.0026
760.732	0.0074
760.9071	0.0166
761.0821	0.0085
761.2572	0.0154
761.4322	0.0021
761.6072	-0.0009
761.7821	-0.0021
761.9571	-0.0049
762.132	0.0031
762.3069	0.0026
762.4818	0.0042
762.6567	-0.0015
762.8316	0.0062
763.0064	-0.0077
763.1812	0.0104
763.356	0.0056
763.5308	0.0107
763.7055	-0.0013
763.8803	0.0073
764.055	-0.0107
764.2297	0.0005
764.4044	0.0009
764.579	0.0112
764.7537	0.0032
764.9283	0.0037
765.1029	-0.0032
765.2775	-0.012
765.4521	-0.0039
765.6266	-0.0043
765.8011	-0.006
765.9756	-0.0059
766.1501	0.0072
766.3246	-0.0102
766.4991	0.0048
766.6735	-0.0107
766.8479	-0.0123
767.0223	-0.0112
767.1967	0.0119
767.371	0.0014
767.5454	-0.0017
767.7197	0.0085
767.894	0.004
768.0683	0.0107
768.2425	0.0034
768.4168	0.0031
768.591	0.0009
768.7652	0.0073
768.9394	-0.0028
769.1135	0.0107
769.2877	-0.0045
769.4618	0.0149
769.6359	0.0075
769.81	0.0004
769.984	0.0045
770.1581	-0.0051
770.3321	0.0131
770.5061	0.002
770.6801	-0.0076
770.8541	0.0125
771.028	0.0046
771.202	0.0007
771.3759	-0.0003
771.5498	0.0213
771.7236	0.0005
771.8975	0.0082
772.0713	-0.0063
772.2451	0.0012
772.4189	0.0029
772.5927	0.0043
772.7665	-0.0023
772.9402	0.009
773.1139	0.0001
773.2876	-0.0072
773.4613	-0.0058
773.635	0.0069
773.8086	-0.0111
773.9822	0.0019
774.1558	0.0032
774.3294	0.004
774.503	-0.0136
774.6765	0.0102
774.8501	0.0015
775.0236	0.0128
775.1971	0.012
775.3705	0.0126
775.544	0.0092
775.7174	0.0205
775.8908	0.0063
776.0642	0.0087
776.2376	0.0034
776.4109	0.0017
776.5843	0.0036
776.7576	0.0032
776.9309	0.0062
777.1041	0.0085
777.2774	0.0056
777.4506	0.0079
777.6238	0.009
777.797	0.0051
777.9702	0.0058
778.1434	0.0106
778.3165	-0.0005
778.4896	0.0034
778.6627	0.0101
778.8358	-0.0019
779.0089	0.0084
779.1819	-0.0027
779.3549	0.0084
779.5279	0.0056
779.7009	-0.0023
779.8739	-0.0145
780.0468	0.0126
780.2197	-0.0037
780.3926	0.003
780.5655	-0.0014
780.7384	-0.0014
780.9112	0.003
781.0841	-0.0234
781.2569	0.0036
781.4297	-0.0272
781.6024	-0.0039
781.7752	-0.0066
781.9479	0.0003
782.1206	-0.0021
782.2933	0.0061
782.466	-0.0095
782.6386	0.0064
782.8113	-0.0172
782.9839	0.0025
783.1565	0.0007
783.329	-0.0032
783.5016	0.0068
783.6741	0.0044
783.8466	0.0056
784.0191	-0.0047
784.1916	0.0087
784.3641	-0.0073
784.5365	0.0139
784.7089	0.0073
784.8813	0.0033
785.0537	-0.019
785.2261	0.0054
785.3984	0.0002
785.5707	0.0008
785.743	0.0042
785.9153	-0.0123
786.0876	0.0006
786.2598	-0.0097
786.432	0.0056
786.6042	0.0148
786.7764	0.007
786.9486	-0.0064
787.1207	0.0122
787.2928	-0
787.4649	0.0032
787.637	0.0022
787.8091	0.017
787.9811	-0.0044
788.1532	-0.0031
788.3252	-0.0141
788.4972	-0.0058
788.6691	-0.0083
788.8411	-0.003
789.013	0.0061
789.1849	0.0109
789.3568	0.0087
789.5287	0.0159
789.7005	0.001
789.8723	0.0115
790.0442	0.0148
790.2159	-0.0058
790.3877	0.0149
790.5595	0.0109
790.7312	-0.0089
790.9029	0.0107
791.0746	0.0062
791.2463	0.0203
791.4179	0.0066
791.5896	0.0063
791.7612	0.0166
791.9328	0.0076
792.1044	0.0107
792.2759	-0.0031
792.4474	0.0148
792.619	-0.0009
792.7905	0.0206
792.9619	0.0056
793.1334	0.0168
793.3048	0.0198
793.4762	0.0123
793.6476	-0.0057
793.819	0.0071
793.9904	0.005
794.1617	0.0004
794.333	0.009
794.5043	0.0145
794.6756	-0.0111
794.8469	-0.0034
795.0181	0.007
795.1893	-0.0074
795.3605	-0.004
795.5317	-0.0021
795.7029	0.0039
795.874	0.0039
796.0452	-0.0027
796.2163	0.0187
796.3873	-0.0043
796.5584	0.0059
796.7294	-0.0004
796.9005	0.0068
797.0715	0.001
797.2425	-0.0053
797.4134	0.0055
797.5844	0.0113
797.7553	0.0056
797.9262	0.0053
798.0971	0.0105
798.2679	0.0048
798.4388	-0.002
798.6096	-0.021
798.7804	0.0003
798.9512	-0.007
799.122	0.007
799.2927	0.007
799.4635	0.0075
799.6342	0.0302
799.8049	0.0181
799.9755	0.0182
800.1462	0.0047
800.3168	0.0169
800.4874	-0.0055
800.658	0.0057
800.8286	0.0144
800.9991	0.0269
801.1696	0.0094
801.3402	-0.009
801.5106	0.0122
801.6811	-0.0182
801.8516	0.0172
802.022	-0.0134
802.1924	-0.011
802.3628	0.0134
802.5332	0.0059
802.7035	-0.0032
802.8739	-0.0028
803.0442	-0.0084
803.2145	0.002
803.3847	-0.0122
803.555	-0.0018
803.7252	0.0144
803.8954	-0.0131
804.0656	-0.0083
804.2358	0.0008
804.4059	0.0174
804.5761	0.0016
804.7462	-0.0036
804.9163	0.0002
805.0864	-0.0019
805.2564	0.0017
805.4264	0.0032
805.5965	-0.0042
805.7665	0.0275
805.9364	0.0006
806.1064	0.0117
806.2763	0.014
806.4462	0.0095
806.6161	0.0066
806.786	0.0269
806.9559	0.0209
807.1257	0.0033
807.2955	0.0114
807.4653	0.0227
807.6351	0.0121
807.8048	0.0149
807.9746	0.0329
808.1443	0.0055
808.314	0.0153
808.4837	0.0233
808.6533	0.011
808.8229	0.0254
808.9926	0.008
809.1622	0.0406
809.3317	0.0148
809.5013	0.035
809.6708	0.0123
809.8403	0.0045
810.0098	0.0178
810.1793	-0.0217
810.3488	-0.0054
810.5182	0.005
810.6876	0.0041
810.857	-0.0064
811.0264	-0.004
811.1958	0.0158
811.3651	-0.001
811.5344	0.0109
811.7037	0.0092
811.873	-0.0075
812.0422	-0.0008
812.2115	0.0028
812.3807	-0.0028
812.5499	0.007
812.7191	0.0216
812.8882	-0.0044
813.0574	-0.0006
813.2265	0.0299
813.3956	-0.0026
813.5646	0.0072
813.7337	-0.018
813.9027	0.0224
814.0718	0.0354
814.2407	0.0138
814.4097	0.0081
814.5787	-0.0231
814.7476	0.0158
814.9165	0.0167
815.0854	0.0011
815.2543	-0.0147
815.4232	0.0083
815.592	-0.0026
815.7608	0.032
815.9296	-0.0108
816.0984	-0.012
816.2671	-0.0084
816.4359	-0.0242
816.6046	0.0077
816.7733	-0.0157
816.942	0.0022
817.1106	0.0037
817.2793	-0.0024
817.4479	-0.0391
817.6165	-0.011
817.785	-0.012
817.9536	0.0117
818.1221	-0.0202
818.2906	-0.0039
818.4591	-0.0016
818.6276	0.016
818.7961	-0.0061
818.9645	-0.0029
819.1329	-0.0016
819.3013	-0.0042
819.4697	0.0016
819.638	-0.012
819.8064	-0.0127
819.9747	-0.0039
820.143	-0.0027
820.3113	-0.0176
820.4795	-0.0171
820.6477	0.0051
820.816	-0.0279
820.9842	-0.0082
821.1523	0.0031
821.3205	-0.0131
821.4886	0.0003
821.6567	-0.0121
821.8248	0.0042
821.9929	-0.0157
822.1609	-0.0218
822.329	0.0036
822.497	-0.0144
822.665	-0.0201
822.833	-0.0129
823.0009	-0.0192
823.1688	-0.0114
823.3367	0.0007
823.5046	-0.0192
823.6725	-0.0218
823.8404	-0.0182
824.0082	-0.0027
824.176	0.0149
824.3438	0.0055
824.5116	0.0057
824.6793	-0.0137
824.847	0.0138
825.0147	0.0131
825.1824	-0.0321
825.3501	0.0017
825.5177	0.0049
825.6854	-0.0094
825.853	0.0329
826.0206	-0.0041
826.1881	-0.0069
826.3557	0.0156
826.5232	0.0008
826.6907	0.0284
826.8582	0.0064
827.0257	0.0037
827.1931	-0.0108
827.3605	0.0119
827.528	0.0163
827.6953	0.0145
827.8627	0.0082
828.03	0.0189
828.1974	0.0266
828.3647	0.0282
828.532	-0.0054
828.6992	0.034
828.8665	0.0277
829.0337	0.0112
829.2009	0.0124
829.3681	-0.0174
829.5352	0.0164
829.7024	0.0036
829.8695	0.0236
830.0366	0.0225
830.2037	-0.0221
830.3707	0.0207
830.5378	-0.0089
830.7048	0.0056
830.8718	-0.0157
831.0388	-0.0042
831.2057	0.0093
831.3727	0.0049
831.5396	-0.0157
831.7065	0.0132
831.8734	0.0178
832.0402	-0.0342
832.2071	-0.021
832.3739	-0.0029
832.5407	0.0309
832.7075	-0.0088
832.8742	0.0085
833.041	-0.0039
833.2077	-0.0067
833.3744	0.0188
833.541	0.0206
833.7077	0.0429
833.8743	0.0267
834.0409	0.0029
834.2075	0.012
834.3741	0.0303
834.5407	-0.0098
834.7072	-0.0366
834.8737	0.003
835.0402	0.0264
835.2067	-0.0231
835.3731	-0.0116
835.5395	-0.0337
835.706	0.0457
835.8723	-0.0608
836.0387	-0.0001
836.2051	-0.0194
836.3714	-0.0398
836.5377	-0.0288
836.704	-0.0597
836.8703	-0.0314
837.0365	-0.0604
837.2027	-0.0109
837.3689	-0.0168
837.5351	0.0152
837.7013	-0.0274
837.8674	0.0162
838.0335	-0.0277
838.1997	-0.0329
838.3657	0.0218
838.5318	0.0073
838.6978	-0.0114
838.8639	-0.0441
839.0299	0.0285
839.1958	-0.026
839.3618	-0.0852
839.5277	-0.0028
839.6937	-0.0214
839.8596	-0.0647
840.0254	-0.0338
840.1913	0.0351
840.3571	-0.0171
840.523	-0.0017
840.6888	-0.0262
840.8545	0.0508
841.0203	0.0183
841.186	0.0228
841.3517	-0.0504
841.5174	-0.0743
841.6831	0.0192
841.8488	-0.0207
842.0144	0.0093
842.18	0.0025
842.3456	0.0189
842.5112	0.0518
842.6767	-0.0295
842.8422	0.0113
843.0077	0.0028
843.1732	-0.0839
843.3387	-0.0824
843.5042	0.0181
843.6696	0.0182
843.835	-0.0448
844.0004	-0.0558
844.1657	0.0516
844.3311	-0.0346
844.4964	-0.0524
844.6617	-0.0796
844.827	0.0186
844.9923	-0.0125
845.1575	0.0363
845.3227	0.0131
845.4879	-0.0442
845.6531	-0.0308
845.8183	-0.0976
845.9834	0.0193
846.1485	-0.0014
846.3136	-0.057
846.4787	-0.0012
846.6438	0.0135
846.8088	-0.0161
846.9738	-0.0137
847.1388	0.0178
847.3038	-0.0149
847.4687	-0.038
847.6337	-0.0872
847.7986	0.0363
847.9635	0.0343
848.1284	-0.0257
848.2932	-0.0531
848.458	0.013
848.6228	0.0708
848.7876	-0.017
848.9524	-0.0582
849.1172	-0.0327
849.2819	-0.0296
849.4466	-0.0105
849.6113	0.0508
849.7759	0.014
849.9406	-0.0111
850.1052	-0.1301
850.2698	0.0381
850.4344	-0.1051
850.599	0.0247
850.7635	-0.0049
850.928	-0.0442
851.0925	-0.013
851.257	0.0057
851.4215	-0.0601
851.5859	0.0365
851.7503	-0.0369
851.9147	0.0597
852.0791	0.0678
852.2434	0.0589
852.4078	-0.0928
852.5721	0.0047
852.7364	-0.119
852.9007	-0.2416
853.0649	-0.0408
853.2291	0.0788
853.3934	0.0449
853.5575	-0.0458
853.7217	0.0396
853.8859	-0.0317
854.05	-0.0001
854.2141	-0.0165
854.3782	0.048
854.5423	-0.02
854.7063	-0.0766
854.8703	-0.1069
855.0343	-0.0715
855.1983	-0.0002
855.3623	0.023
855.5262	-0.0002
855.6901	-0.2439
855.854	-0.132
856.0179	-0.085
856.1818	-0.0101
856.3456	-0.0492
856.5094	0.0045
856.6732	-0.0101
856.837	0.0909
857.0008	-0.2081
857.1645	0.0268
857.3282	0.0692
857.4919	-0.1589
857.6556	-0.0213
857.8192	0.0027
857.9828	0.0097
858.1465	0.0568
858.31	0.0738
858.4736	-0.0055
858.6372	-0.1135
858.8007	-0.4917
858.9642	0.0157
859.1277	-0.2423
859.2911	-0.1926
859.4546	-0.0756
859.618	-0.6634
859.7814	-0.0368
859.9448	-0.2021
860.1081	-0.0123
860.2715	-0.0651
860.4348	-0.0629
860.5981	0.0316
860.7614	-0.1235
860.9246	0.0801
861.0879	-0.1689
861.2511	0.0298
861.4143	-0.0966
861.5774	-0.1677
861.7406	-0.1995
861.9037	-0.3939
862.0668	-0.0564
862.2299	-0.0574
862.393	0.0113
862.556	0.1764
862.7191	-0.0798
862.8821	-0.4236
863.0451	-0.212
863.208	0.0603
863.371	-0.4242
863.5339	0.0044
863.6968	-0.1481
863.8597	-0.3031
864.0225	-0.075
864.1854	-0.1913
864.3482	-0.2545
864.511	-0.091
864.6737	-0.0525
864.8365	-0.0089
864.9992	-0.0716
865.1619	-0.0921
865.3246	-0.0493
865.4873	0.0272
865.65	-0.4434
865.8126	-0.0667
865.9752	-0.0886
866.1378	0.0084
866.3004	-0
866.4629	0.0799
866.6254	-0.5573
866.7879	-0.2913
866.9504	0.2625
867.1129	-0.0003
867.2753	-0.0636
867.4377	-0.0014
867.6001	0.0667
867.7625	-0.0512
867.9249	-0.385
868.0872	0.3029
868.2495	0.0444
868.4118	-0.007
868.5741	-0.058
868.7363	0.446
868.8986	-0.2
869.0608	-0.4285
869.223	-0.2694
869.3851	-0.1503
869.5473	-0.3139
869.7094	-0.113
869.8715	0.473
870.0336	-0
870.1957	-0
870.3577	-0.1519
870.5197	-0.0848
870.6817	-0
870.8437	-0.058
871.0057	-0.5548
871.1676	-0.2554
871.3295	-0.2264
871.4914	-0
871.6533	-0.0005
871.8151	-0.3612
871.977	-0
872.1388	-0.0334
872.3006	0.1561
872.4623	-0.0699
872.6241	-0.6342
872.7858	-0.0633
872.9475	0.0502
873.1092	0.0498
873.2709	-0
873.4325	-0
873.5941	0.1286
873.7557	-0.8111
873.9173	-0.001
874.0789	-0
874.2404	0.4833
874.4019	-0
874.5634	-0.4036
874.7249	0.0545
874.8863	-0
875.0478	0.1286
875.2092	-0.2186
875.3706	-0.1722
875.5319	-0
875.6933	-0.4753
875.8546	-0.3303
876.0159	0.0361
876.1772	-0.6383
876.3385	-0.4397
876.4997	-0
876.6609	-0
876.8221	-0.5461
876.9833	-0
877.1445	-0.1558
877.3056	-0.1505
877.4667	-0.1001
877.6278	0.3083
877.7889	0.1205
877.9499	-0.0006
878.111	-0.3137
878.272	-0.2143
878.433	-0.161
878.5939	0.0317
878.7549	-0.0439
878.9158	-0.1871
879.0767	-0.1203
879.2376	-0.1706
879.3984	-0
879.5593	-0.4493
879.7201	-0.278
879.8809	-0
880.0417	-0.0652
880.2024	-0
880.3632	-0.2703
880.5239	-0
880.6846	-0.0023
880.8452	0.185
881.0059	-0.7458
881.1665	-0.034
881.3271	-0.8246
881.4877	-0
881.6483	-0.5802
881.8088	0.3313
881.9693	-0.4004
882.1298	-0.4004
882.2903	-0.4004
