Data from MonoPyChalIsomerACN10uM400nmA_Absorbance_12-08-43-428.txt Node
Date: Fri Jul 05 12:08:43 BST 2024
User: LASERRRRR
Spectrometer: FLMT03099
Trigger mode: 0
Integration Time (sec): 1.000000E-1
Scans to average: 1
Electric dark correction enabled: true
Nonlinearity correction enabled: false
Boxcar width: 0
XAxis mode: Wavelengths
Number of Pixels in Spectrum: 3648
>>>>>Begin Spectral Data<<<<<
179.3399	0.9053
179.5586	0.9053
179.7771	0.9053
179.9957	0.3824
180.2143	-0
180.4329	-0
180.6514	-0
180.8699	-0
181.0885	0.838
181.307	-0.1744
181.5255	-0.5923
181.744	-0
181.9625	-1.1571
182.181	-0
182.3994	0.2738
182.6179	-0.0509
182.8363	-0.4025
183.0547	0.2725
183.2732	0.1941
183.4916	0.0523
183.71	0.3513
183.9284	0.0056
184.1467	0.038
184.3651	-0.1513
184.5835	0.4806
184.8018	0.1883
185.0201	0.016
185.2385	-0.064
185.4568	0.0936
185.6751	0.0907
185.8934	-0.0559
186.1117	0.2464
186.3299	0.1469
186.5482	0.0512
186.7664	-0.0058
186.9847	0.4367
187.2029	0.0549
187.4211	-0.2678
187.6393	-0.0186
187.8575	0.1075
188.0757	-0.0304
188.2939	0.0973
188.512	0.0326
188.7302	0.05
188.9483	0.3899
189.1665	0.1928
189.3846	0.1736
189.6027	0.1071
189.8208	0.1302
190.0389	0.2592
190.257	0.0774
190.475	0.4746
190.6931	0.2007
190.9111	0.0825
191.1292	0.571
191.3472	0.4731
191.5652	0.3858
191.7832	0.3863
192.0012	0.3834
192.2192	0.369
192.4371	0.3829
192.6551	0.446
192.873	0.6412
193.091	0.4099
193.3089	0.4126
193.5268	0.504
193.7447	0.5163
193.9626	0.4316
194.1805	0.5956
194.3984	0.4482
194.6162	0.4799
194.8341	0.5508
195.0519	0.7218
195.2697	0.6908
195.4875	0.5957
195.7054	0.7148
195.9231	0.6357
196.1409	0.5218
196.3587	0.525
196.5765	0.7478
196.7942	0.8283
197.012	0.739
197.2297	0.8545
197.4474	0.6287
197.6651	0.8044
197.8828	0.7026
198.1005	0.5467
198.3182	0.7139
198.5358	0.9438
198.7535	0.6948
198.9711	0.6352
199.1888	0.6552
199.4064	0.7512
199.624	0.6455
199.8416	0.6006
200.0592	0.6277
200.2767	0.7083
200.4943	0.5938
200.7119	0.7009
200.9294	0.8011
201.1469	0.8092
201.3645	0.6619
201.582	0.6434
201.7995	0.9831
202.017	0.8454
202.2344	0.6675
202.4519	0.6836
202.6694	1.0325
202.8868	0.788
203.1042	0.6988
203.3217	0.6554
203.5391	0.7785
203.7565	0.7754
203.9739	0.594
204.1913	0.8367
204.4086	0.8843
204.626	0.7503
204.8433	1.0201
205.0607	0.7684
205.278	0.9856
205.4953	0.6998
205.7126	0.5532
205.9299	0.8369
206.1472	0.7847
206.3644	0.7444
206.5817	0.6993
206.7989	0.6881
207.0162	0.8427
207.2334	0.8039
207.4506	0.71
207.6678	0.6871
207.885	0.8656
208.1022	0.7986
208.3194	0.7909
208.5365	0.7947
208.7537	0.7903
208.9708	0.7036
209.1879	0.7323
209.405	0.6843
209.6222	0.8743
209.8392	0.8062
210.0563	0.7409
210.2734	0.7946
210.4905	0.7867
210.7075	0.8392
210.9245	0.7913
211.1416	0.7544
211.3586	0.8213
211.5756	0.7036
211.7926	0.8218
212.0096	0.7411
212.2265	0.7288
212.4435	0.7201
212.6604	0.757
212.8774	0.7543
213.0943	0.7592
213.3112	0.6969
213.5281	0.6238
213.745	0.6817
213.9619	0.7094
214.1788	0.7057
214.3956	0.6903
214.6125	0.6688
214.8293	0.7063
215.0461	0.6793
215.2629	0.6361
215.4798	0.6179
215.6965	0.6569
215.9133	0.6706
216.1301	0.6227
216.3469	0.7386
216.5636	0.6324
216.7803	0.6206
216.9971	0.6336
217.2138	0.6126
217.4305	0.6403
217.6472	0.5997
217.8639	0.6176
218.0805	0.6357
218.2972	0.5445
218.5138	0.6068
218.7305	0.5538
218.9471	0.5535
219.1637	0.5964
219.3803	0.5211
219.5969	0.5953
219.8135	0.6018
220.0301	0.5693
220.2466	0.5736
220.4632	0.5512
220.6797	0.5709
220.8962	0.5471
221.1127	0.5538
221.3292	0.5349
221.5457	0.5475
221.7622	0.5212
221.9787	0.5601
222.1951	0.5512
222.4116	0.5374
222.628	0.5679
222.8444	0.5609
223.0608	0.5397
223.2772	0.5606
223.4936	0.5545
223.71	0.5356
223.9264	0.5462
224.1427	0.5368
224.3591	0.5648
224.5754	0.5565
224.7917	0.5255
225.008	0.6012
225.2243	0.5782
225.4406	0.5367
225.6569	0.5547
225.8732	0.5643
226.0894	0.5391
226.3057	0.5121
226.5219	0.5733
226.7381	0.581
226.9543	0.5873
227.1705	0.5649
227.3867	0.551
227.6029	0.5738
227.8191	0.5499
228.0352	0.6001
228.2513	0.5617
228.4675	0.5537
228.6836	0.6151
228.8997	0.5768
229.1158	0.5863
229.3319	0.5553
229.548	0.6081
229.764	0.5822
229.9801	0.5875
230.1961	0.5728
230.4121	0.5812
230.6282	0.5703
230.8442	0.5839
231.0602	0.5465
231.2761	0.5961
231.4921	0.5962
231.7081	0.5635
231.924	0.6015
232.14	0.5786
232.3559	0.6019
232.5718	0.5739
232.7877	0.577
233.0036	0.5882
233.2195	0.5683
233.4353	0.588
233.6512	0.5767
233.867	0.5651
234.0829	0.5608
234.2987	0.5674
234.5145	0.5435
234.7303	0.5547
234.9461	0.5769
235.1619	0.5761
235.3776	0.5653
235.5934	0.5678
235.8091	0.5497
236.0249	0.5271
236.2406	0.5549
236.4563	0.5836
236.672	0.5627
236.8877	0.5638
237.1034	0.5445
237.319	0.5299
237.5347	0.5732
237.7503	0.5559
237.966	0.528
238.1816	0.5468
238.3972	0.5724
238.6128	0.5455
238.8284	0.5366
239.0439	0.5563
239.2595	0.5668
239.475	0.5497
239.6906	0.5572
239.9061	0.5342
240.1216	0.5265
240.3371	0.5336
240.5526	0.5248
240.7681	0.5205
240.9836	0.5466
241.199	0.4933
241.4145	0.5053
241.6299	0.4994
241.8453	0.5074
242.0607	0.4874
242.2761	0.479
242.4915	0.457
242.7069	0.4538
242.9223	0.4538
243.1376	0.4711
243.353	0.4707
243.5683	0.4339
243.7836	0.4205
243.9989	0.4323
244.2142	0.3939
244.4295	0.3877
244.6448	0.3877
244.86	0.4004
245.0753	0.3708
245.2905	0.385
245.5057	0.3735
245.721	0.3572
245.9362	0.3538
246.1514	0.3437
246.3665	0.3259
246.5817	0.3431
246.7969	0.322
247.012	0.3234
247.2271	0.3188
247.4423	0.3165
247.6574	0.3072
247.8725	0.2987
248.0876	0.3053
248.3026	0.2919
248.5177	0.2907
248.7328	0.2703
248.9478	0.2824
249.1628	0.2566
249.3779	0.2681
249.5929	0.2596
249.8079	0.2511
250.0228	0.2667
250.2378	0.2666
250.4528	0.2561
250.6677	0.2462
250.8827	0.2407
251.0976	0.2359
251.3125	0.2492
251.5274	0.2336
251.7423	0.2273
251.9572	0.22
252.172	0.2204
252.3869	0.2367
252.6017	0.2324
252.8166	0.2176
253.0314	0.1978
253.2462	0.2047
253.461	0.2152
253.6758	0.1964
253.8906	0.2057
254.1053	0.2028
254.3201	0.211
254.5348	0.208
254.7496	0.1956
254.9643	0.2111
255.179	0.1946
255.3937	0.2073
255.6083	0.2023
255.823	0.1905
256.0377	0.2001
256.2523	0.2032
256.467	0.192
256.6816	0.1922
256.8962	0.1895
257.1108	0.2131
257.3254	0.188
257.54	0.1979
257.7545	0.1838
257.9691	0.2005
258.1836	0.1956
258.3981	0.1737
258.6127	0.1941
258.8272	0.1942
259.0417	0.1762
259.2561	0.196
259.4706	0.1791
259.6851	0.1756
259.8995	0.1958
260.114	0.1799
260.3284	0.2007
260.5428	0.1822
260.7572	0.1927
260.9716	0.1918
261.186	0.201
261.4003	0.1779
261.6147	0.1919
261.829	0.1901
262.0433	0.192
262.2577	0.1705
262.472	0.1917
262.6863	0.1831
262.9005	0.1894
263.1148	0.1931
263.3291	0.1859
263.5433	0.1788
263.7576	0.1911
263.9718	0.1668
264.186	0.1889
264.4002	0.1928
264.6144	0.1928
264.8286	0.1867
265.0427	0.1817
265.2569	0.1921
265.471	0.1862
265.6851	0.1869
265.8993	0.184
266.1134	0.1844
266.3275	0.1794
266.5415	0.1864
266.7556	0.1898
266.9697	0.1912
267.1837	0.1866
267.3978	0.1878
267.6118	0.2
267.8258	0.1967
268.0398	0.202
268.2538	0.1954
268.4677	0.1958
268.6817	0.1905
268.8957	0.1877
269.1096	0.1828
269.3235	0.1687
269.5374	0.1805
269.7514	0.1776
269.9652	0.1696
270.1791	0.1802
270.393	0.1735
270.6068	0.1805
270.8207	0.1786
271.0345	0.1715
271.2483	0.1714
271.4622	0.1816
271.676	0.1819
271.8897	0.1799
272.1035	0.1836
272.3173	0.1735
272.531	0.1758
272.7448	0.1595
272.9585	0.1763
273.1722	0.1762
273.3859	0.1733
273.5996	0.1764
273.8133	0.1758
274.0269	0.1777
274.2406	0.1723
274.4542	0.1786
274.6679	0.1786
274.8815	0.1734
275.0951	0.1841
275.3087	0.1747
275.5223	0.1723
275.7358	0.1725
275.9494	0.177
276.1629	0.1684
276.3765	0.1655
276.59	0.177
276.8035	0.1907
277.017	0.1683
277.2305	0.1936
277.444	0.176
277.6574	0.1724
277.8709	0.1634
278.0843	0.1838
278.2978	0.1798
278.5112	0.195
278.7246	0.1819
278.938	0.1888
279.1513	0.1817
279.3647	0.1799
279.5781	0.1821
279.7914	0.1784
280.0047	0.1764
280.2181	0.1881
280.4314	0.1799
280.6447	0.2009
280.8579	0.188
281.0712	0.1877
281.2845	0.1867
281.4977	0.1857
281.711	0.1885
281.9242	0.176
282.1374	0.1748
282.3506	0.1911
282.5638	0.1918
282.7769	0.179
282.9901	0.186
283.2033	0.1929
283.4164	0.1833
283.6295	0.1763
283.8426	0.1697
284.0557	0.182
284.2688	0.185
284.4819	0.1867
284.695	0.1843
284.908	0.193
285.1211	0.1896
285.3341	0.1964
285.5471	0.1911
285.7601	0.1877
285.9731	0.1942
286.1861	0.2101
286.3991	0.1846
286.612	0.1859
286.825	0.1919
287.0379	0.1872
287.2508	0.1828
287.4637	0.1802
287.6766	0.1812
287.8895	0.1822
288.1024	0.181
288.3152	0.1858
288.5281	0.1784
288.7409	0.181
288.9538	0.176
289.1666	0.1877
289.3794	0.1821
289.5922	0.1749
289.8049	0.1804
290.0177	0.1813
290.2304	0.1855
290.4432	0.1705
290.6559	0.1899
290.8686	0.1849
291.0813	0.1706
291.294	0.1965
291.5067	0.1905
291.7194	0.1822
291.932	0.191
292.1447	0.1972
292.3573	0.1903
292.5699	0.1928
292.7825	0.1815
292.9951	0.1939
293.2077	0.1892
293.4203	0.1832
293.6328	0.1848
293.8454	0.1718
294.0579	0.1775
294.2704	0.1777
294.4829	0.1842
294.6954	0.1764
294.9079	0.1736
295.1204	0.1955
295.3328	0.164
295.5453	0.1599
295.7577	0.183
295.9701	0.176
296.1825	0.1723
296.3949	0.1764
296.6073	0.1702
296.8197	0.1812
297.0321	0.1722
297.2444	0.1749
297.4567	0.1738
297.6691	0.1728
297.8814	0.1779
298.0937	0.1756
298.306	0.1739
298.5182	0.1772
298.7305	0.1716
298.9428	0.1747
299.155	0.1729
299.3672	0.1594
299.5794	0.1729
299.7916	0.1692
300.0038	0.1772
300.216	0.1648
300.4282	0.1744
300.6403	0.1824
300.8525	0.1748
301.0646	0.1797
301.2767	0.1796
301.4888	0.1735
301.7009	0.1733
301.913	0.177
302.125	0.1796
302.3371	0.1818
302.5491	0.1713
302.7612	0.1604
302.9732	0.1725
303.1852	0.1649
303.3972	0.1738
303.6092	0.1752
303.8211	0.1842
304.0331	0.1603
304.245	0.1632
304.457	0.1629
304.6689	0.162
304.8808	0.1556
305.0927	0.1604
305.3046	0.1522
305.5164	0.1666
305.7283	0.1552
305.9401	0.1482
306.152	0.153
306.3638	0.1549
306.5756	0.148
306.7874	0.1572
306.9992	0.1487
307.2109	0.1533
307.4227	0.1439
307.6344	0.1401
307.8462	0.1418
308.0579	0.1477
308.2696	0.1494
308.4813	0.1464
308.693	0.1462
308.9046	0.1373
309.1163	0.1312
309.328	0.1347
309.5396	0.1431
309.7512	0.1191
309.9628	0.128
310.1744	0.127
310.386	0.1264
310.5976	0.1192
310.8091	0.1274
311.0207	0.1237
311.2322	0.109
311.4437	0.1241
311.6552	0.1295
311.8667	0.1176
312.0782	0.1237
312.2897	0.1111
312.5012	0.1115
312.7126	0.1131
312.924	0.1071
313.1355	0.1216
313.3469	0.1145
313.5583	0.111
313.7696	0.1145
313.981	0.1206
314.1924	0.1168
314.4037	0.1074
314.6151	0.1119
314.8264	0.1124
315.0377	0.1128
315.249	0.1079
315.4603	0.0991
315.6716	0.1091
315.8828	0.1116
316.0941	0.0901
316.3053	0.1037
316.5165	0.1003
316.7277	0.0909
316.9389	0.1106
317.1501	0.1092
317.3613	0.1059
317.5724	0.1081
317.7836	0.1057
317.9947	0.1182
318.2058	0.1119
318.417	0.1207
318.6281	0.1008
318.8391	0.0959
319.0502	0.106
319.2613	0.1045
319.4723	0.117
319.6834	0.1049
319.8944	0.111
320.1054	0.107
320.3164	0.1191
320.5274	0.0922
320.7383	0.0987
320.9493	0.1035
321.1602	0.1092
321.3712	0.1034
321.5821	0.1076
321.793	0.1031
322.0039	0.1123
322.2148	0.1053
322.4257	0.091
322.6365	0.1086
322.8474	0.0893
323.0582	0.1115
323.269	0.1131
323.4798	0.111
323.6906	0.0996
323.9014	0.1065
324.1122	0.105
324.3229	0.1085
324.5337	0.1055
324.7444	0.1111
324.9551	0.1148
325.1658	0.1049
325.3765	0.1127
325.5872	0.1116
325.7979	0.1052
326.0085	0.0943
326.2192	0.1008
326.4298	0.1151
326.6404	0.1139
326.851	0.1104
327.0616	0.1206
327.2722	0.123
327.4828	0.1099
327.6933	0.1104
327.9039	0.1044
328.1144	0.1134
328.3249	0.0942
328.5354	0.1009
328.7459	0.108
328.9564	0.1127
329.1669	0.1118
329.3773	0.1147
329.5878	0.1102
329.7982	0.1123
330.0086	0.1152
330.219	0.1162
330.4294	0.106
330.6398	0.1089
330.8502	0.1211
331.0605	0.1244
331.2708	0.1149
331.4812	0.1139
331.6915	0.1086
331.9018	0.124
332.1121	0.1179
332.3224	0.0926
332.5326	0.1206
332.7429	0.1038
332.9531	0.1081
333.1633	0.1132
333.3735	0.1123
333.5837	0.1106
333.7939	0.1027
334.0041	0.1252
334.2143	0.1115
334.4244	0.1237
334.6346	0.0925
334.8447	0.1178
335.0548	0.1157
335.2649	0.1184
335.475	0.1155
335.685	0.1092
335.8951	0.1168
336.1051	0.1241
336.3152	0.1164
336.5252	0.1107
336.7352	0.1218
336.9452	0.1217
337.1552	0.1276
337.3652	0.1214
337.5751	0.1168
337.7851	0.0988
337.995	0.1161
338.2049	0.1129
338.4148	0.1217
338.6247	0.114
338.8346	0.1314
339.0445	0.1084
339.2543	0.1215
339.4642	0.1255
339.674	0.1328
339.8838	0.1294
340.0936	0.1095
340.3034	0.1368
340.5132	0.131
340.7229	0.1392
340.9327	0.1153
341.1424	0.1148
341.3522	0.1207
341.5619	0.1051
341.7716	0.1192
341.9813	0.1286
342.1909	0.134
342.4006	0.115
342.6102	0.1148
342.8199	0.1227
343.0295	0.1269
343.2391	0.116
343.4487	0.1353
343.6583	0.1169
343.8679	0.132
344.0774	0.1271
344.287	0.1297
344.4965	0.1222
344.706	0.127
344.9155	0.1296
345.125	0.1322
345.3345	0.1394
345.544	0.1305
345.7534	0.127
345.9629	0.1365
346.1723	0.1272
346.3817	0.1262
346.5911	0.1391
346.8005	0.1385
347.0099	0.1181
347.2193	0.1358
347.4286	0.1366
347.638	0.1327
347.8473	0.1357
348.0566	0.1346
348.2659	0.1381
348.4752	0.1356
348.6845	0.141
348.8937	0.1408
349.103	0.1321
349.3122	0.1322
349.5214	0.1417
349.7306	0.1422
349.9398	0.1364
350.149	0.143
350.3582	0.1461
350.5674	0.1578
350.7765	0.1497
350.9856	0.1424
351.1948	0.1439
351.4039	0.1501
351.613	0.141
351.822	0.1449
352.0311	0.1537
352.2402	0.1297
352.4492	0.1452
352.6582	0.1265
352.8672	0.1536
353.0762	0.1562
353.2852	0.1492
353.4942	0.1337
353.7032	0.1481
353.9121	0.1527
354.1211	0.1437
354.33	0.1612
354.5389	0.1516
354.7478	0.1571
354.9567	0.1524
355.1655	0.1514
355.3744	0.1479
355.5833	0.1578
355.7921	0.1502
356.0009	0.1654
356.2097	0.1575
356.4185	0.1403
356.6273	0.1591
356.8361	0.1493
357.0448	0.152
357.2536	0.1567
357.4623	0.1637
357.671	0.1691
357.8797	0.1683
358.0884	0.1651
358.2971	0.1567
358.5057	0.1702
358.7144	0.1749
358.923	0.1715
359.1316	0.1621
359.3402	0.1836
359.5488	0.1659
359.7574	0.1758
359.966	0.1624
360.1746	0.1724
360.3831	0.1666
360.5916	0.1733
360.8002	0.1799
361.0087	0.1783
361.2172	0.1702
361.4256	0.1801
361.6341	0.1634
361.8426	0.179
362.051	0.1735
362.2594	0.1744
362.4678	0.1926
362.6762	0.1795
362.8846	0.1835
363.093	0.1617
363.3014	0.1696
363.5097	0.1888
363.718	0.1892
363.9264	0.1821
364.1347	0.1914
364.343	0.2025
364.5513	0.1826
364.7595	0.1924
364.9678	0.1959
365.176	0.2032
365.3842	0.1984
365.5925	0.1646
365.8007	0.1851
366.0089	0.1897
366.217	0.1892
366.4252	0.1941
366.6333	0.1906
366.8415	0.2076
367.0496	0.1851
367.2577	0.222
367.4658	0.1952
367.6739	0.198
367.882	0.201
368.09	0.211
368.2981	0.2002
368.5061	0.1987
368.7141	0.2189
368.9221	0.194
369.1301	0.2017
369.3381	0.212
369.5461	0.2046
369.754	0.2127
369.962	0.1986
370.1699	0.2057
370.3778	0.2049
370.5857	0.222
370.7936	0.2031
371.0015	0.21
371.2093	0.2153
371.4172	0.2168
371.625	0.2039
371.8328	0.2308
372.0406	0.2116
372.2484	0.1985
372.4562	0.2309
372.664	0.2248
372.8717	0.19
373.0795	0.2119
373.2872	0.2085
373.4949	0.2066
373.7026	0.2203
373.9103	0.2404
374.118	0.2132
374.3256	0.2042
374.5333	0.2292
374.7409	0.1895
374.9485	0.2334
375.1561	0.2282
375.3637	0.2008
375.5713	0.2212
375.7789	0.2177
375.9864	0.2207
376.194	0.2239
376.4015	0.2339
376.609	0.2186
376.8165	0.2341
377.024	0.2213
377.2315	0.2135
377.4389	0.2338
377.6464	0.2239
377.8538	0.2023
378.0612	0.2254
378.2686	0.2475
378.476	0.2306
378.6834	0.2304
378.8908	0.2167
379.0981	0.2288
379.3055	0.2251
379.5128	0.2318
379.7201	0.2488
379.9274	0.2325
380.1347	0.23
380.342	0.2288
380.5492	0.2354
380.7565	0.2336
380.9637	0.2438
381.1709	0.2303
381.3781	0.2541
381.5853	0.251
381.7925	0.2401
381.9997	0.2303
382.2068	0.2357
382.4139	0.2369
382.6211	0.2387
382.8282	0.2312
383.0353	0.2438
383.2424	0.2406
383.4494	0.2421
383.6565	0.2523
383.8635	0.2435
384.0706	0.2502
384.2776	0.239
384.4846	0.2298
384.6916	0.2576
384.8986	0.2312
385.1055	0.2337
385.3125	0.2442
385.5194	0.2416
385.7263	0.2491
385.9333	0.2365
386.1402	0.2336
386.347	0.2451
386.5539	0.2437
386.7608	0.2376
386.9676	0.2314
387.1744	0.2476
387.3813	0.2406
387.5881	0.2439
387.7948	0.2234
388.0016	0.2384
388.2084	0.2411
388.4151	0.241
388.6219	0.2224
388.8286	0.2291
389.0353	0.2455
389.242	0.2308
389.4487	0.2386
389.6553	0.2169
389.862	0.2309
390.0686	0.232
390.2753	0.2404
390.4819	0.2241
390.6885	0.2343
390.8951	0.2336
391.1016	0.2412
391.3082	0.2252
391.5147	0.2304
391.7213	0.2263
391.9278	0.2263
392.1343	0.2167
392.3408	0.2216
392.5473	0.2146
392.7537	0.2158
392.9602	0.2409
393.1666	0.2085
393.373	0.1935
393.5794	0.2048
393.7858	0.2263
393.9922	0.2382
394.1986	0.2221
394.4049	0.2144
394.6113	0.1857
394.8176	0.2205
395.0239	0.2211
395.2302	0.2038
395.4365	0.207
395.6428	0.2142
395.8491	0.1914
396.0553	0.2146
396.2615	0.2105
396.4678	0.1958
396.674	0.2099
396.8802	0.2056
397.0863	0.2073
397.2925	0.2058
397.4987	0.2043
397.7048	0.2002
397.9109	0.2134
398.117	0.1967
398.3231	0.1979
398.5292	0.2037
398.7353	0.1948
398.9413	0.1884
399.1474	0.203
399.3534	0.2024
399.5594	0.1951
399.7654	0.2127
399.9714	0.2138
400.1774	0.2027
400.3833	0.2097
400.5893	0.1914
400.7952	0.2036
401.0011	0.1957
401.207	0.2198
401.4129	0.1914
401.6188	0.1973
401.8247	0.1983
402.0305	0.207
402.2364	0.2065
402.4422	0.2062
402.648	0.2045
402.8538	0.2035
403.0596	0.1921
403.2654	0.2046
403.4711	0.2053
403.6768	0.1724
403.8826	0.1981
404.0883	0.1896
404.294	0.22
404.4997	0.1727
404.7054	0.1846
404.911	0.2169
405.1167	0.196
405.3223	0.2164
405.5279	0.1974
405.7335	0.2022
405.9391	0.2094
406.1447	0.2018
406.3502	0.1992
406.5558	0.2124
406.7613	0.2263
406.9668	0.2134
407.1724	0.2029
407.3778	0.2062
407.5833	0.1855
407.7888	0.1923
407.9942	0.2047
408.1997	0.205
408.4051	0.1989
408.6105	0.1665
408.8159	0.2053
409.0213	0.1865
409.2267	0.2144
409.432	0.1988
409.6374	0.1932
409.8427	0.1945
410.048	0.1984
410.2533	0.1945
410.4586	0.1845
410.6639	0.2056
410.8691	0.1921
411.0744	0.2043
411.2796	0.2019
411.4848	0.2052
411.69	0.1969
411.8952	0.1899
412.1004	0.1898
412.3056	0.1981
412.5107	0.1799
412.7158	0.2147
412.921	0.2156
413.1261	0.1939
413.3312	0.1769
413.5362	0.2031
413.7413	0.1871
413.9464	0.2019
414.1514	0.188
414.3564	0.1843
414.5614	0.1619
414.7664	0.1946
414.9714	0.1987
415.1764	0.1872
415.3813	0.2042
415.5863	0.1789
415.7912	0.1924
415.9961	0.1976
416.201	0.1879
416.4059	0.1902
416.6108	0.1933
416.8156	0.1976
417.0205	0.186
417.2253	0.1842
417.4301	0.1819
417.6349	0.1844
417.8397	0.1734
418.0445	0.1741
418.2492	0.1854
418.454	0.168
418.6587	0.1952
418.8634	0.2096
419.0681	0.1869
419.2728	0.1699
419.4775	0.184
419.6822	0.1802
419.8868	0.1867
420.0915	0.1677
420.2961	0.182
420.5007	0.1848
420.7053	0.1721
420.9099	0.1795
421.1144	0.1883
421.319	0.1889
421.5235	0.1868
421.728	0.1824
421.9325	0.1807
422.137	0.1909
422.3415	0.1633
422.546	0.1639
422.7504	0.1896
422.9549	0.1728
423.1593	0.1626
423.3637	0.1885
423.5681	0.1514
423.7725	0.157
423.9769	0.1712
424.1812	0.1775
424.3856	0.1774
424.5899	0.1832
424.7942	0.165
424.9985	0.1631
425.2028	0.1606
425.4071	0.1567
425.6113	0.1703
425.8156	0.1811
426.0198	0.1562
426.224	0.1616
426.4282	0.1922
426.6324	0.1678
426.8366	0.1618
427.0407	0.1402
427.2449	0.1518
427.449	0.1466
427.6531	0.1548
427.8572	0.168
428.0613	0.1717
428.2654	0.1199
428.4694	0.148
428.6735	0.1499
428.8775	0.151
429.0815	0.1523
429.2855	0.1487
429.4895	0.1392
429.6935	0.1495
429.8975	0.1447
430.1014	0.1382
430.3053	0.1336
430.5093	0.1407
430.7132	0.1238
430.9171	0.1376
431.1209	0.1303
431.3248	0.1397
431.5286	0.1102
431.7325	0.1252
431.9363	0.1193
432.1401	0.1229
432.3439	0.1312
432.5477	0.1477
432.7514	0.1266
432.9552	0.1064
433.1589	0.1179
433.3627	0.1197
433.5664	0.1174
433.7701	0.1053
433.9737	0.0844
434.1774	0.1196
434.3811	0.0969
434.5847	0.1139
434.7883	0.1083
434.9919	0.115
435.1955	0.0991
435.3991	0.1061
435.6027	0.1005
435.8062	0.1045
436.0098	0.0877
436.2133	0.0839
436.4168	0.0816
436.6203	0.0983
436.8238	0.0812
437.0272	0.0913
437.2307	0.1001
437.4341	0.0919
437.6375	0.0888
437.841	0.083
438.0443	0.0782
438.2477	0.0819
438.4511	0.0811
438.6545	0.0796
438.8578	0.0884
439.0611	0.0902
439.2644	0.0669
439.4677	0.0712
439.671	0.0712
439.8743	0.0767
440.0775	0.0688
440.2808	0.0722
440.484	0.0699
440.6872	0.068
440.8904	0.0606
441.0936	0.0545
441.2967	0.0641
441.4999	0.0555
441.703	0.0693
441.9062	0.0653
442.1093	0.0488
442.3124	0.0715
442.5155	0.0483
442.7185	0.0583
442.9216	0.0456
443.1246	0.0766
443.3276	0.0738
443.5307	0.0559
443.7337	0.0399
443.9366	0.0517
444.1396	0.0547
444.3426	0.0347
444.5455	0.0673
444.7484	0.0382
444.9513	0.0371
445.1542	0.0421
445.3571	0.0603
445.56	0.0568
445.7628	0.0465
445.9657	0.0368
446.1685	0.0348
446.3713	0.0369
446.5741	0.0399
446.7769	0.0559
446.9797	0.0415
447.1824	0.0174
447.3852	0.0481
447.5879	0.0277
447.7906	0.0447
447.9933	0.0445
448.196	0.0372
448.3986	0.0334
448.6013	0.0194
448.8039	0.0347
449.0066	0.0269
449.2092	0.0411
449.4118	0.0554
449.6143	0.0239
449.8169	0.033
450.0195	0.0152
450.222	0.0153
450.4245	0.0243
450.627	0.0195
450.8295	0.0157
451.032	0.017
451.2345	0.0211
451.4369	0.0261
451.6394	0.0319
451.8418	0.0021
452.0442	0.0037
452.2466	0.0055
452.449	0.0207
452.6513	0.0281
452.8537	0.0267
453.056	-0.0115
453.2583	0.0172
453.4607	0.0076
453.663	0.016
453.8652	0.0324
454.0675	-0.0101
454.2697	0.0064
454.472	0.0292
454.6742	0.0127
454.8764	0.0004
455.0786	0.0101
455.2808	0.0071
455.4829	0.0331
455.6851	0.0182
455.8872	0.0167
456.0893	0.0348
456.2915	0.0124
456.4935	0.0086
456.6956	-0.0067
456.8977	0.0118
457.0997	0.0198
457.3018	0.0204
457.5038	0.0095
457.7058	0.0344
457.9078	0.0002
458.1098	0.0043
458.3117	0.0293
458.5137	0.0129
458.7156	0.0276
458.9175	0.0031
459.1194	-0.0065
459.3213	0.0096
459.5232	-0.0082
459.725	-0.0039
459.9269	0.0036
460.1287	0.0132
460.3305	0.0021
460.5323	0.0143
460.7341	0.0035
460.9359	0.0031
461.1376	0.0301
461.3394	-0.0079
461.5411	0.0017
461.7428	0.0085
461.9445	0.0143
462.1462	-0.0036
462.3479	-0.0152
462.5495	0.0009
462.7512	0.0041
462.9528	0.0065
463.1544	0.0205
463.356	-0.0064
463.5576	0.0013
463.7592	-0.0123
463.9607	0.0115
464.1623	0.0012
464.3638	0.0021
464.5653	-0.0151
464.7668	-0.0022
464.9683	0.0027
465.1697	0.0196
465.3712	0.0026
465.5726	0.0225
465.7741	0.0144
465.9755	-0.0019
466.1769	0.0063
466.3782	-0.0001
466.5796	-0.0133
466.7809	0.011
466.9823	-0.001
467.1836	0.0201
467.3849	0.0027
467.5862	0.0013
467.7875	0.0198
467.9887	-0.0025
468.19	-0.0004
468.3912	0.0264
468.5924	-0.0115
468.7936	0.0063
468.9948	-0.016
469.196	-0.0012
469.3972	-0.0154
469.5983	-0.002
469.7994	-0.0036
470.0006	-0.015
470.2017	0.0118
470.4027	-0.0031
470.6038	-0.007
470.8049	0.0104
471.0059	-0.0011
471.2069	0.016
471.408	-0.0016
471.6089	0.0093
471.8099	0.0007
472.0109	0.0078
472.2119	0.0007
472.4128	-0.012
472.6137	0.0065
472.8146	-0.0086
473.0155	0.0037
473.2164	-0.0026
473.4173	-0.0013
473.6181	-0.0135
473.819	0.0188
474.0198	-0.005
474.2206	-0.0129
474.4214	0.009
474.6222	-0.0153
474.8229	0.0022
475.0237	-0.0059
475.2244	-0.0179
475.4251	-0.0013
475.6258	-0.0036
475.8265	-0.0154
476.0272	-0.0102
476.2278	-0.015
476.4285	-0.0131
476.6291	0.0005
476.8297	-0.0006
477.0303	0.0085
477.2309	-0.006
477.4315	-0.0074
477.632	-0.0164
477.8326	-0.0035
478.0331	-0.0186
478.2336	-0.007
478.4341	-0.0144
478.6346	-0.0101
478.8351	-0.0026
479.0355	-0.024
479.236	-0.0099
479.4364	-0.0148
479.6368	0.0059
479.8372	-0.0002
480.0376	-0.0201
480.2379	-0.0197
480.4383	-0.0051
480.6386	-0.0064
480.8389	-0.012
481.0392	0.0093
481.2395	-0.0137
481.4398	-0.0119
481.6401	-0.008
481.8403	-0.0004
482.0405	-0.0036
482.2408	-0.0188
482.441	-0.0138
482.6411	-0.0259
482.8413	-0.0127
483.0415	-0.0055
483.2416	-0.0064
483.4417	-0.002
483.6419	-0.0146
483.8419	-0.0068
484.042	0.0085
484.2421	-0.0142
484.4422	0.004
484.6422	0.0041
484.8422	-0.0069
485.0422	-0.0025
485.2422	-0.0082
485.4422	-0.0063
485.6422	-0.0106
485.8421	-0.0035
486.042	-0.0019
486.242	-0.0145
486.4419	0.0025
486.6417	-0.0001
486.8416	-0.0088
487.0415	-0.0119
487.2413	-0.009
487.4411	0.0045
487.641	0.006
487.8408	0.0038
488.0405	-0.0163
488.2403	0.0072
488.4401	-0.0005
488.6398	-0.0162
488.8395	-0.0193
489.0392	-0.0081
489.2389	-0.0193
489.4386	-0.0162
489.6383	-0.0105
489.8379	-0.0009
490.0376	0.0041
490.2372	-0.0087
490.4368	-0.0021
490.6364	-0.0066
490.836	-0.0144
491.0355	-0.0091
491.2351	-0.006
491.4346	-0.008
491.6341	-0.0069
491.8336	-0.0094
492.0331	-0.0008
492.2326	-0.0132
492.432	-0.0023
492.6315	-0.012
492.8309	-0.0172
493.0303	-0.0096
493.2297	-0.0052
493.4291	-0.0095
493.6284	-0.0242
493.8278	-0.0024
494.0271	-0.0076
494.2264	-0.0082
494.4257	-0.0121
494.625	-0.0017
494.8243	-0.0046
495.0236	-0.0066
495.2228	-0.0046
495.422	-0.0078
495.6213	-0.0077
495.8205	-0.0078
496.0196	-0.0206
496.2188	-0.0127
496.418	-0.007
496.6171	-0.0089
496.8162	-0.0066
497.0153	-0.0105
497.2144	-0.0134
497.4135	-0.0054
497.6126	-0.0111
497.8116	-0.016
498.0107	-0.0113
498.2097	-0.0157
498.4087	-0.0127
498.6077	-0.0184
498.8067	-0.0028
499.0056	-0.0131
499.2046	0.0023
499.4035	-0.0089
499.6024	-0.0156
499.8013	-0.0095
500.0002	-0.0081
500.199	-0.016
500.3979	-0.0058
500.5967	-0.0147
500.7956	-0.0119
500.9944	-0.0176
501.1932	-0.0071
501.3919	-0.0053
501.5907	-0.0139
501.7895	-0.0211
501.9882	-0.0118
502.1869	-0.0164
502.3856	-0.0123
502.5843	-0.0087
502.783	-0.0093
502.9816	-0.0028
503.1803	-0.006
503.3789	0.0017
503.5775	-0.0047
503.7761	-0.0045
503.9747	-0.001
504.1732	-0.005
504.3718	0.0076
504.5703	0.0007
504.7689	-0.0125
504.9674	-0.0106
505.1658	0.0002
505.3643	-0.0062
505.5628	-0.0021
505.7612	-0.0039
505.9597	-0.0077
506.1581	-0.0029
506.3565	-0.0137
506.5549	-0.0104
506.7532	-0.0003
506.9516	-0.0153
507.1499	-0.0182
507.3482	-0.0089
507.5465	0.0012
507.7448	-0.0076
507.9431	-0.0013
508.1414	-0.0193
508.3396	-0.0066
508.5379	0.0022
508.7361	-0.0032
508.9343	-0.0032
509.1325	0.0013
509.3306	-0.0075
509.5288	-0.0126
509.7269	0.0005
509.9251	0.003
510.1232	-0.0057
510.3213	0.0095
510.5193	-0.011
510.7174	0.0005
510.9154	0.0028
511.1135	-0.0094
511.3115	-0.0061
511.5095	-0.0131
511.7075	-0.0051
511.9055	-0.0039
512.1034	0.0008
512.3014	-0.0117
512.4993	-0.0019
512.6972	-0.0095
512.8951	0.001
513.093	-0.0141
513.2908	-0.012
513.4887	-0.0004
513.6865	0.0011
513.8844	-0.0049
514.0822	-0.0046
514.2799	-0.0181
514.4777	-0.0061
514.6755	0.0098
514.8732	-0.0058
515.0709	-0.0042
515.2687	0.0029
515.4664	0.0048
515.664	-0.0132
515.8617	0.0035
516.0594	-0.0024
516.257	-0.0075
516.4546	-0.0085
516.6522	-0.0038
516.8498	-0.0093
517.0474	-0.0019
517.2449	-0.0063
517.4425	0.0012
517.64	-0.0125
517.8375	-0.0011
518.035	0.0013
518.2325	-0.0113
518.43	0.0004
518.6274	-0.0018
518.8249	-0.0018
519.0223	-0.0042
519.2197	0.0034
519.4171	-0.0013
519.6145	-0.0009
519.8118	-0.0094
520.0092	0.0023
520.2065	-0.005
520.4038	-0.0071
520.6011	0.0001
520.7984	0.0055
520.9956	-0.0075
521.1929	-0.0049
521.3901	-0.0054
521.5874	-0.0095
521.7846	-0.0011
521.9818	-0.0117
522.1789	0.0004
522.3761	0.0046
522.5732	-0.0018
522.7704	-0.0062
522.9675	-0.0001
523.1646	-0.0079
523.3617	-0.0041
523.5587	-0.0002
523.7558	-0.012
523.9528	0.0061
524.1498	-0.0043
524.3468	-0.0027
524.5438	-0.0035
524.7408	-0.0084
524.9378	0.004
525.1347	-0.0009
525.3316	-0.001
525.5285	-0.0135
525.7254	-0.005
525.9223	-0.0056
526.1192	-0.0057
526.316	0.0085
526.5129	-0.004
526.7097	0.0002
526.9065	-0.0006
527.1033	-0.0014
527.3	-0.0058
527.4968	0.0104
527.6935	0.0001
527.8903	0.008
528.087	0.0047
528.2837	-0.0008
528.4804	0.0101
528.677	0.0014
528.8737	0.0027
529.0703	-0.0014
529.2669	-0.0047
529.4635	-0.0002
529.6601	0.0047
529.8567	0.0152
530.0532	0.0102
530.2498	-0.0076
530.4463	-0.0036
530.6428	-0.0067
530.8393	-0.0031
531.0358	0.0042
531.2322	0.0086
531.4287	-0.0008
531.6251	0.0055
531.8215	0.0024
532.0179	-0.0083
532.2143	-0.0027
532.4107	-0.0049
532.607	0.0039
532.8034	-0.007
532.9997	-0.002
533.196	0.0004
533.3923	0.0002
533.5886	-0.0061
533.7848	-0.0047
533.9811	0.0009
534.1773	-0.0143
534.3735	0.0003
534.5697	0.0028
534.7659	0.0046
534.9621	0.0077
535.1582	-0.0007
535.3544	-0.0021
535.5505	-0.0027
535.7466	0.0042
535.9427	0.0065
536.1387	0
536.3348	-0.0052
536.5308	-0.0072
536.7269	0.0038
536.9229	0.0063
537.1189	-0.0073
537.3148	-0.0056
537.5108	0.0093
537.7068	0.004
537.9027	-0.0061
538.0986	-0.0059
538.2945	-0.0015
538.4904	0.0053
538.6863	0.0003
538.8821	0.0017
539.078	-0.0097
539.2738	0.0072
539.4696	-0.0032
539.6654	0.0027
539.8611	0.0066
540.0569	-0.0007
540.2526	-0.0018
540.4484	0.0076
540.6441	0.0094
540.8398	-0.0087
541.0355	0.01
541.2311	0.0003
541.4268	-0.0013
541.6224	0.0011
541.818	0.0112
542.0136	-0.0077
542.2092	0.0005
542.4048	0.0067
542.6003	0.0102
542.7959	-0.0004
542.9914	0.0017
543.1869	0.0026
543.3824	-0.0062
543.5779	0.0039
543.7734	0.0021
543.9688	0.0016
544.1642	-0.0028
544.3596	0.0013
544.555	-0.008
544.7504	0.0012
544.9458	0.0029
545.1411	0.0101
545.3365	0.0003
545.5318	-0.0003
545.7271	0.0007
545.9224	0.0047
546.1177	-0.012
546.3129	0.0017
546.5081	-0.0072
546.7034	0.0063
546.8986	-0.0069
547.0938	-0.0072
547.289	0.0046
547.4841	0.0017
547.6793	-0.0009
547.8744	0.004
548.0695	0.0042
548.2646	0.0075
548.4597	-0.0014
548.6548	-0.0033
548.8498	0.0103
549.0448	0.0086
549.2399	0.0001
549.4349	0
549.6298	0.0049
549.8248	0.0041
550.0198	0.0038
550.2147	-0.0028
550.4096	-0.0021
550.6045	-0.0013
550.7994	-0.0019
550.9943	0.0037
551.1892	-0.0121
551.384	0.0021
551.5788	0.0035
551.7737	-0.0036
551.9685	0.0063
552.1632	0.0082
552.358	0.0065
552.5528	-0.0115
552.7475	-0.0094
552.9422	0.0037
553.1369	-0.0001
553.3316	-0.0019
553.5263	0.0045
553.7209	-0.0015
553.9156	0.0093
554.1102	-0.016
554.3048	0.0016
554.4994	0.0053
554.694	0.0072
554.8885	0.0049
555.0831	0.005
555.2776	0.0059
555.4721	0.0139
555.6666	-0.0088
555.8611	0.0066
556.0555	0.0033
556.25	0.0103
556.4444	0.0112
556.6388	0.0111
556.8332	-0.0012
557.0276	-0.0013
557.222	0.0057
557.4163	0.0067
557.6107	0.0179
557.805	0.005
557.9993	-0.0029
558.1936	0.0102
558.3879	0.003
558.5821	0.0076
558.7764	0.0086
558.9706	0.0048
559.1648	0.008
559.359	0.0142
559.5532	0.0058
559.7473	0.0079
559.9415	0.0123
560.1356	0.0107
560.3297	0.0049
560.5238	0.0067
560.7179	0.0126
560.9119	-0.0009
561.106	0.0092
561.3	0.0095
561.494	0.0042
561.688	0.0057
561.882	-0.0012
562.076	0.0004
562.2699	0.013
562.4639	0.0035
562.6578	0.0047
562.8517	0.0075
563.0456	0.0085
563.2395	0.001
563.4333	-0.0046
563.6272	-0.0028
563.821	-0.0174
564.0148	0.0092
564.2086	-0.0055
564.4024	-0.0065
564.5961	0.0061
564.7899	0.0039
564.9836	0.0002
565.1773	0.0038
565.371	0.0109
565.5647	-0.0016
565.7584	0.0067
565.952	0.0104
566.1456	0.0051
566.3393	0.0059
566.5329	-0.0022
566.7264	-0.0002
566.92	0.0002
567.1136	0.0102
567.3071	0.0017
567.5006	0.0012
567.6941	0.0048
567.8876	0.0009
568.0811	-0.0023
568.2745	0.008
568.468	0.0067
568.6614	0.0022
568.8548	0.0094
569.0482	0.0046
569.2416	0.0079
569.4349	-0.006
569.6283	0.0073
569.8216	0.0033
570.0149	0.0015
570.2082	0.0074
570.4015	-0.0007
570.5947	0.0152
570.788	0.0077
570.9812	0.0107
571.1744	-0.0022
571.3676	0.0067
571.5608	0.002
571.754	0.0021
571.9471	-0.0016
572.1402	0.0113
572.3333	0.0028
572.5264	0.0033
572.7195	-0.0056
572.9126	0.0086
573.1057	0.0043
573.2987	0.0066
573.4917	-0.0014
573.6847	0.0011
573.8777	-0.0017
574.0707	0.0036
574.2636	-0
574.4566	0.0081
574.6495	0.0025
574.8424	0.0004
575.0353	0.0024
575.2281	0.0069
575.421	0.0027
575.6138	-0.0012
575.8067	0.0073
575.9995	0.0074
576.1923	0.005
576.385	0.004
576.5778	-0.0037
576.7706	0.0072
576.9633	0.0002
577.156	0.0023
577.3487	0.0048
577.5414	-0.0023
577.734	-0.0056
577.9267	-0.0004
578.1193	0.0054
578.3119	0.0032
578.5045	0.0035
578.6971	-0.0015
578.8897	-0.0038
579.0822	0.0037
579.2747	0.0014
579.4673	0.0021
579.6598	0.0065
579.8522	0.0021
580.0447	-0.0032
580.2372	0.0013
580.4296	0.0132
580.622	0.0017
580.8144	0.0106
581.0068	0.0003
581.1992	0.0056
581.3915	0.0017
581.5839	0.0071
581.7762	0.0036
581.9685	-0.0018
582.1608	0.0011
582.353	-0.0059
582.5453	0.0029
582.7375	-0.0051
582.9298	-0.0022
583.122	0.0068
583.3142	0.0023
583.5063	-0.0021
583.6985	-0.0052
583.8906	0.0009
584.0827	-0.0032
584.2749	0.0008
584.4669	0.0031
584.659	0.0003
584.8511	-0.0015
585.0431	0.0021
585.2352	-0.002
585.4272	0.0019
585.6192	-0.004
585.8111	0.0008
586.0031	0.0014
586.195	-0.0009
586.387	0.0006
586.5789	0.0032
586.7708	0.0035
586.9627	0.001
587.1545	0.0036
587.3464	0.0075
587.5382	-0.0037
587.73	0.0087
587.9218	0.0075
588.1136	0.0052
588.3053	-0.0086
588.4971	0.0011
588.6888	0.0084
588.8805	-0.0012
589.0722	0.0033
589.2639	0.0023
589.4556	-0.0014
589.6472	-0.0028
589.8389	-0.0025
590.0305	0.0076
590.2221	0.0105
590.4137	-0.0026
590.6052	0.0044
590.7968	0.0067
590.9883	0.0034
591.1798	-0.0014
591.3713	0.0057
591.5628	0.0042
591.7543	0.0069
591.9458	0.0032
592.1372	-0.0021
592.3286	0.0057
592.52	-0.0003
592.7114	0.0057
592.9028	0.003
593.0941	0.0063
593.2855	0.0017
593.4768	-0.0003
593.6681	-0.0008
593.8594	0.0001
594.0506	-0.0025
594.2419	0.0011
594.4331	0.0021
594.6244	-0.0002
594.8156	0.0085
595.0067	0.004
595.1979	-0.0047
595.3891	-0.0014
595.5802	0.0062
595.7713	-0.0128
595.9624	0.01
596.1535	0.0032
596.3446	0.0108
596.5357	0.0037
596.7267	0.0059
596.9177	0.0035
597.1087	0.0174
597.2997	0.0034
597.4907	-0.0013
597.6817	-0.0035
597.8726	0.0115
598.0635	0.0067
598.2544	0.0036
598.4453	0.012
598.6362	0.0067
598.827	0.0051
599.0179	0.0123
599.2087	0.0018
599.3995	0.0077
599.5903	0.0021
599.7811	0.0044
599.9718	0.0038
600.1626	0.0047
600.3533	0.0019
600.544	0.0037
600.7347	0.0021
600.9254	0.0025
601.116	-0.0051
601.3067	-0.0105
601.4973	0.0009
601.6879	-0.0022
601.8785	-0.0001
602.0691	-0.0019
602.2596	0.0116
602.4502	-0.0017
602.6407	-0.0026
602.8312	-0.0018
603.0217	0.007
603.2122	-0.0016
603.4027	0.0042
603.5931	0.0041
603.7835	0.0134
603.9739	0.008
604.1643	0.0049
604.3547	0.0045
604.5451	0.002
604.7354	0.0064
604.9257	-0.0011
605.116	0.0052
605.3063	0.0061
605.4966	-0.0036
605.6869	0.0101
605.8771	0.0019
606.0673	0.0045
606.2575	-0.0002
606.4477	0.0008
606.6379	0.0081
606.8281	0.0053
607.0182	0.0055
607.2083	-0.0013
607.3985	0.0024
607.5885	0.0008
607.7786	0.0019
607.9687	-0.0012
608.1587	0.0096
608.3488	0.0076
608.5388	0.0061
608.7288	0.0035
608.9187	0.0018
609.1087	-0.0005
609.2986	0.0042
609.4886	-0.0012
609.6785	0.0069
609.8684	0.0063
610.0582	0.0079
610.2481	-0.0003
610.4379	0.0011
610.6278	0.0043
610.8176	0.0143
611.0074	0.002
611.1971	0.0023
611.3869	-0.0036
611.5766	0.0044
611.7664	-0.0057
611.9561	0.0039
612.1458	0.008
612.3354	0.006
612.5251	0.0061
612.7147	0.0005
612.9044	0.0022
613.094	0.0041
613.2836	0.007
613.4731	0.0029
613.6627	0.0071
613.8522	0.0093
614.0417	0.0034
614.2313	0.0026
614.4207	0.0003
614.6102	0.0003
614.7997	0.0083
614.9891	0.0087
615.1785	0.0077
615.3679	0.0085
615.5573	0.012
615.7467	0.003
615.9361	0.0099
616.1254	0.0038
616.3147	0.0029
616.504	0.0019
616.6933	-0.0002
616.8826	0.005
617.0718	-0.0053
617.2611	-0.0006
617.4503	0.0158
617.6395	0.0103
617.8287	0.022
618.0179	-0.0006
618.207	0.0093
618.3961	0.0029
618.5853	0.0055
618.7744	0.0005
618.9634	0.0062
619.1525	0.0055
619.3416	0.0055
619.5306	0.0056
619.7196	-0.0019
619.9086	0.0066
620.0976	0.0079
620.2866	0.0068
620.4755	0.0066
620.6645	0.008
620.8534	0.007
621.0423	-0.0004
621.2312	0.0055
621.42	0.0095
621.6089	0.0188
621.7977	0.0135
621.9865	0.0175
622.1753	0.0122
622.3641	0.008
622.5529	0.0042
622.7416	0.0125
622.9303	0.0139
623.1191	0.0088
623.3078	0.0043
623.4964	0.0098
623.6851	0.0164
623.8737	0.0118
624.0624	0.0017
624.251	0.008
624.4396	0.0049
624.6282	0.0071
624.8167	0.0107
625.0053	-0.0033
625.1938	0.0015
625.3823	0.0038
625.5708	0.0058
625.7593	0.008
625.9477	0.0125
626.1362	0.0088
626.3246	0.0116
626.513	0.0125
626.7014	0.0018
626.8898	0.0095
627.0781	0.0121
627.2665	0.0063
627.4548	0.0083
627.6431	0.0076
627.8314	0.015
628.0197	0.0097
628.2079	0.0075
628.3962	0.0095
628.5844	0.0097
628.7726	0.0094
628.9608	0.0049
629.1489	0.0106
629.3371	0.0028
629.5252	0.0044
629.7134	0.0071
629.9015	0.0072
630.0895	0.0089
630.2776	-0.0013
630.4657	0.0067
630.6537	0.0079
630.8417	0.0065
631.0297	0.0149
631.2177	0.0113
631.4057	0.0074
631.5936	0.0065
631.7815	0.0007
631.9695	0.0147
632.1574	-0.0003
632.3452	0.0125
632.5331	0.0006
632.7209	0.0045
632.9088	-0.0024
633.0966	0.0019
633.2844	-0.0007
633.4722	0.0098
633.6599	0.0068
633.8477	0.0081
634.0354	-0.0002
634.2231	0.0007
634.4108	0.0031
634.5985	-0.0009
634.7861	0.0093
634.9738	0.0159
635.1614	0.0077
635.349	0.0049
635.5366	-0.0047
635.7242	0.0111
635.9117	0.0108
636.0993	0.008
636.2868	0.0078
636.4743	0.0055
636.6618	0.0075
636.8492	0.0179
637.0367	0.0032
637.2241	0.0068
637.4115	0.011
637.5989	0.0205
637.7863	0.0089
637.9737	0.0027
638.161	0.0081
638.3484	0.0066
638.5357	0.0074
638.723	0.0011
638.9103	0.0032
639.0975	0.007
639.2848	0.0116
639.472	0.002
639.6592	0.0029
639.8464	0.0087
640.0336	0.0026
640.2208	0.0012
640.4079	-0.0032
640.595	0.0021
640.7821	-0.0016
640.9692	0.0054
641.1563	0.009
641.3434	0.0091
641.5304	0.0095
641.7174	0.0095
641.9044	0.0015
642.0914	-0.001
642.2784	-0.0006
642.4653	0.0061
642.6523	-0.0039
642.8392	0.0084
643.0261	0.0061
643.213	0.0013
643.3999	-0.001
643.5867	0.0157
643.7735	0.0026
643.9604	0.0042
644.1472	0.0039
644.3339	0.0047
644.5207	0.0007
644.7075	0.0005
644.8942	0.0098
645.0809	0.0064
645.2676	0.01
645.4543	0.0161
645.6409	0.0055
645.8276	0.0036
646.0142	0.0023
646.2008	0.0159
646.3874	0.0094
646.574	0.0105
646.7605	0.002
646.9471	0.0038
647.1336	0.006
647.3201	0.0104
647.5066	0.0076
647.6931	-0.0031
647.8795	-0.0004
648.0659	0.0073
648.2524	0.0038
648.4388	-0.0003
648.6252	-0.0027
648.8115	0.0071
648.9979	0.0024
649.1842	0.0013
649.3705	-0.0015
649.5568	0.0085
649.7431	0.0173
649.9294	0.0086
650.1156	0.0087
650.3018	0.0052
650.488	0.0047
650.6742	0.0033
650.8604	0.0031
651.0466	0.0106
651.2327	0.0052
651.4188	0.001
651.6049	0.0154
651.791	0.012
651.9771	0.0126
652.1632	0.0107
652.3492	0.0118
652.5352	0.0064
652.7212	0.0091
652.9072	-0.0016
653.0932	-0.0001
653.2791	-0.0014
653.465	0.0045
653.651	0.0065
653.8369	0.0086
654.0227	0.0041
654.2086	0.0036
654.3944	0.014
654.5803	-0.002
654.7661	0.0004
654.9519	0.0022
655.1377	-0.0038
655.3234	-0.0002
655.5092	0.0017
655.6949	-0.0043
655.8806	-0.0096
656.0663	0.0033
656.2519	-0.0012
656.4376	0.0014
656.6232	0.0036
656.8088	0.0089
656.9945	0.0061
657.18	0.0019
657.3656	0.0128
657.5511	0.0025
657.7367	0.008
657.9222	0.0048
658.1077	0.0069
658.2932	0.0004
658.4786	0.005
658.6641	-0.0018
658.8495	0.0001
659.0349	0.0055
659.2203	0.0026
659.4057	-0.0008
659.591	0.0135
659.7764	0.0016
659.9617	0.0042
660.147	0.0013
660.3323	0.0059
660.5176	0.0001
660.7028	0.004
660.888	0.0039
661.0733	0.0072
661.2585	0.0095
661.4436	0.013
661.6288	0.0071
661.8139	0.0053
661.9991	-0.0023
662.1842	0.0061
662.3693	0.0005
662.5544	0.0091
662.7394	0.0032
662.9245	0.0075
663.1095	0.0115
663.2945	0.0058
663.4795	0.0057
663.6644	0.005
663.8494	0.0068
664.0343	0.005
664.2193	0.0112
664.4042	0.013
664.589	0.0067
664.7739	0.0027
664.9587	0.0116
665.1436	0.0023
665.3284	0.0079
665.5132	0.005
665.698	0.0021
665.8827	0.0108
666.0675	0.0029
666.2522	0.0036
666.4369	0.0015
666.6216	0.0182
666.8063	0.0078
666.9909	-0.0004
667.1756	0.0077
667.3602	0.0049
667.5448	0.0104
667.7294	0.0108
667.9139	0.0122
668.0985	0.0081
668.283	0.0006
668.4675	0.0041
668.652	0.0166
668.8365	-0.0044
669.0209	0.0112
669.2054	0.0033
669.3898	0.0104
669.5742	0.0031
669.7586	-0.0039
669.943	0.0102
670.1273	0.0141
670.3117	0.0028
670.496	0.0024
670.6803	0.0036
670.8646	0.0054
671.0488	0.0127
671.2331	0.0088
671.4173	0.0116
671.6015	0.0036
671.7857	0.0028
671.9699	0.014
672.1541	0.0044
672.3382	0.0123
672.5223	0.0186
672.7064	0.0095
672.8905	0.005
673.0746	0.0048
673.2587	0.013
673.4427	0.0086
673.6267	0.0047
673.8107	0.0087
673.9947	0.0114
674.1787	0.0117
674.3626	0.0142
674.5465	0.0119
674.7304	0.0068
674.9143	0.0083
675.0982	0.0144
675.2821	0.0021
675.4659	0.0166
675.6497	-0.0065
675.8335	0.0151
676.0173	0.003
676.2011	0.0036
676.3849	0.0038
676.5686	0.0209
676.7523	0.0138
676.936	0.0016
677.1197	0.0109
677.3034	0.0033
677.487	0.0089
677.6706	0.0147
677.8542	0.0044
678.0378	0.0055
678.2214	0.0034
678.405	0.0122
678.5885	0.008
678.772	0.0175
678.9555	0.005
679.139	0.0161
679.3225	0.0089
679.5059	0.016
679.6894	0.009
679.8728	0.0044
680.0562	0.0106
680.2395	0.0152
680.4229	0.0058
680.6062	0.0024
680.7896	0.0043
680.9729	0.0007
681.1562	0.0087
681.3394	0.0087
681.5227	0.012
681.7059	-0.0001
681.8891	0.0073
682.0723	0.0123
682.2555	0.0057
682.4387	0.004
682.6218	0.0091
682.805	0.0099
682.9881	0.0154
683.1712	0.0172
683.3542	0.0101
683.5373	0.0152
683.7203	0.011
683.9034	0.0065
684.0864	0.0027
684.2694	0.0135
684.4523	0.0086
684.6353	0.0068
684.8182	0.0123
685.0011	0.004
685.184	0.0005
685.3669	0.0033
685.5498	0.0014
685.7326	0.0052
685.9154	0.0038
686.0982	0.0084
686.281	-0.0025
686.4638	0.0008
686.6465	0.0075
686.8293	0.0129
687.012	0.0132
687.1947	0.0119
687.3774	0.0145
687.56	0.0067
687.7427	0.0126
687.9253	0.0046
688.1079	0.0069
688.2905	-0.0005
688.4731	0.0058
688.6556	0.0123
688.8382	-0.0006
689.0207	0.0014
689.2032	0.0073
689.3857	0.0061
689.5681	0.0069
689.7506	0.002
689.933	0.0049
690.1154	0.0021
690.2978	-0.0012
690.4802	0.0075
690.6626	0.0053
690.8449	0.0124
691.0272	0.0034
691.2095	0.017
691.3918	0.0041
691.5741	0.0175
691.7563	0.0093
691.9386	0.0115
692.1208	0.0066
692.303	-0.0015
692.4852	0.0122
692.6673	0.0084
692.8495	0.0143
693.0316	0.0092
693.2137	0.0111
693.3958	0.0139
693.5778	0.0041
693.7599	0.0162
693.9419	0.0112
694.1239	0.0126
694.3059	0.0193
694.4879	0.0106
694.6699	0.0136
694.8518	0.0105
695.0337	0.0078
695.2157	0.0094
695.3975	0.0096
695.5794	0.0058
695.7613	0.0019
695.9431	0.0107
696.1249	0.0021
696.3067	0.0043
696.4885	0.0098
696.6703	0.007
696.852	0.0063
697.0337	0.0138
697.2154	0.0111
697.3971	0.0088
697.5788	0.0025
697.7605	0.0036
697.9421	-0.003
698.1237	0.0188
698.3053	0.0167
698.4869	0.0109
698.6685	0.0012
698.85	0.0097
699.0315	0.012
699.213	0.0126
699.3945	0.0066
699.576	0.0129
699.7575	0.0138
699.9389	0.021
700.1203	0.0109
700.3017	0.0055
700.4831	0.0062
700.6645	0.0089
700.8458	0.0052
701.0271	0.0088
701.2084	0.009
701.3897	-0.0016
701.571	0
701.7523	-0.0021
701.9335	-0.0001
702.1147	0.01
702.2959	0.0054
702.4771	0.0071
702.6583	0.0032
702.8394	0.0051
703.0205	0.0019
703.2016	0.0029
703.3827	-0.0032
703.5638	0.0084
703.7449	0.01
703.9259	-0.0059
704.1069	0.002
704.2879	0.0019
704.4689	0.0028
704.6499	0.0037
704.8308	0.0039
705.0117	0.002
705.1927	0.0175
705.3735	0.0022
705.5544	0.0032
705.7353	0.0082
705.9161	0.0005
706.0969	0.0023
706.2777	0.0063
706.4585	0.0054
706.6393	0.0095
706.82	0.0079
707.0007	-0.0018
707.1815	0.0041
707.3621	0.0086
707.5428	0.0112
707.7235	0.0071
707.9041	0.0044
708.0847	0.0161
708.2653	0.0089
708.4459	0.0062
708.6265	0.0134
708.807	0.0135
708.9875	0.0218
709.168	0.0056
709.3485	0.0033
709.529	-0.0005
709.7095	0.015
709.8899	0.0058
710.0703	0.0054
710.2507	0.0114
710.4311	0.007
710.6115	0.0059
710.7918	-0.002
710.9721	0.0153
711.1524	0.0041
711.3327	0.0013
711.513	-0.0055
711.6932	0.006
711.8735	0.0031
712.0537	-0.0049
712.2339	-0.0026
712.4141	-0.004
712.5942	-0.005
712.7744	0.0067
712.9545	0.0052
713.1346	0.0098
713.3147	-0.0003
713.4947	0.0003
713.6748	-0.0048
713.8548	0.0115
714.0348	0.0098
714.2148	0.0039
714.3948	0.0013
714.5748	0.0026
714.7547	0.0067
714.9346	0.0073
715.1145	0.0071
715.2944	0.0024
715.4743	0.0094
715.6541	0.0144
715.834	0.006
716.0138	0.0092
716.1936	-0.0002
716.3733	0.0108
716.5531	0.0166
716.7328	0.0049
716.9126	0.0059
717.0923	0.0093
717.2719	0.0124
717.4516	-0.0052
717.6312	0.0019
717.8109	0.0057
717.9905	0.0062
718.1701	0.0028
718.3496	0.0052
718.5292	0.0058
718.7087	-0.0052
718.8882	0.0041
719.0677	0.0033
719.2472	0.0082
719.4267	0.0082
719.6061	0.0058
719.7856	0.0018
719.965	-0.001
720.1443	0.0146
720.3237	0.0093
720.5031	0.0081
720.6824	0.0043
720.8617	-0.0009
721.041	0.0005
721.2203	0.0045
721.3995	0.0056
721.5788	0.0052
721.758	-0.0015
721.9372	0.0083
722.1164	0.009
722.2956	0.0062
722.4747	0.0063
722.6538	-0.0002
722.8329	0.0062
723.012	0.0026
723.1911	-0.0005
723.3702	-0.0016
723.5492	0.0093
723.7282	0.0076
723.9072	0.0079
724.0862	0.0157
724.2652	0.0102
724.4441	-0.002
724.623	0.0175
724.8019	-0.0036
724.9808	0.005
725.1597	0.0048
725.3385	0.0046
725.5174	-0.0052
725.6962	0.0012
725.875	-0.0018
726.0538	0.0046
726.2325	0.0057
726.4112	-0.0014
726.59	0.0015
726.7687	0.0049
726.9474	-0.0059
727.126	-0.0026
727.3047	-0.0072
727.4833	0.0082
727.6619	0.0019
727.8405	-0.0011
728.0191	-0.004
728.1976	0
728.3762	0.0075
728.5547	-0.0058
728.7332	-0.0021
728.9116	-0.007
729.0901	0.0024
729.2686	0.0018
729.447	0.0023
729.6254	0.0089
729.8038	0.0092
729.9821	0.0119
730.1605	0.0038
730.3388	0.0048
730.5171	0.0062
730.6954	0.0044
730.8737	0.0023
731.0519	0.0002
731.2302	0.0022
731.4084	0.0041
731.5866	-0.0078
731.7648	0.0038
731.9429	-0.0034
732.1211	-0.001
732.2992	-0.0004
732.4773	-0.0005
732.6554	-0.0055
732.8335	-0.001
733.0115	-0.0002
733.1896	-0.0014
733.3676	0.004
733.5456	-0.0072
733.7235	-0.0026
733.9015	0.0046
734.0794	-0.0009
734.2574	-0.0011
734.4353	-0.0085
734.6131	0.0058
734.791	0.0046
734.9689	0.0086
735.1467	-0.0003
735.3245	-0.0033
735.5023	0.0114
735.68	0.0148
735.8578	0.0058
736.0355	0.0079
736.2132	0.0123
736.3909	0.0068
736.5686	0.0174
736.7463	0.0115
736.9239	0.0092
737.1015	0.0165
737.2791	0.0121
737.4567	0.0023
737.6343	-0.0042
737.8118	0.0024
737.9894	-0.0001
738.1669	0.0018
738.3444	0.0063
738.5218	0.0041
738.6993	-0.0052
738.8767	0.0069
739.0541	0.0073
739.2315	-0.0004
739.4089	0.0077
739.5863	0.005
739.7636	0.0054
739.9409	-0.0019
740.1182	0.0034
740.2955	0.0103
740.4728	0.0055
740.65	-0.0028
740.8272	0.0061
741.0044	-0.0046
741.1816	0.0077
741.3588	0.0032
741.5359	0.004
741.7131	0.0085
741.8902	0.0013
742.0673	0.011
742.2444	-0.0021
742.4214	0.0041
742.5985	0.0127
742.7755	0.0047
742.9525	0.0064
743.1295	0.0149
743.3064	0.0035
743.4834	0.0064
743.6603	-0.004
743.8372	0.0022
744.0141	0.0083
744.191	0.0091
744.3678	-0
744.5446	-0.0003
744.7215	0.0174
744.8982	0.0092
745.075	0.0041
745.2518	-0.0075
745.4285	-0.0065
745.6052	0.0035
745.7819	-0.0068
745.9586	0.001
746.1353	-0.0058
746.3119	0.0127
746.4885	0.009
746.6651	0.0054
746.8417	-0
747.0183	0.0052
747.1948	0.0059
747.3714	0.0075
747.5479	0.0013
747.7244	0.0059
747.9008	0.01
748.0773	0.0063
748.2537	0.0013
748.4301	0.0017
748.6065	0.0122
748.7829	0.0073
748.9593	0.01
749.1356	0.0033
749.3119	0.0028
749.4882	0.0086
749.6645	0.0043
749.8408	0.0015
750.017	0.001
750.1933	0.0101
750.3695	0.0067
750.5457	0.0136
750.7218	0.0099
750.898	0.0145
751.0741	0.0171
751.2502	0.0224
751.4263	0.0094
751.6024	0.0032
751.7784	0.013
751.9545	0.0065
752.1305	0.008
752.3065	0.0152
752.4825	0.0101
752.6584	0.0068
752.8344	0.0115
753.0103	0.01
753.1862	0.007
753.3621	-0.0006
753.5379	0.0001
753.7138	0.0022
753.8896	0.0061
754.0654	0.0031
754.2412	-0.0039
754.417	0.0026
754.5927	-0.0009
754.7685	0.0026
754.9442	0.0059
755.1199	0.0056
755.2956	0.0057
755.4712	-0.0012
755.6469	0.0105
755.8225	0.0152
755.9981	0.014
756.1736	-0.0012
756.3492	0.0081
756.5248	0.0158
756.7003	0.0116
756.8758	0.0102
757.0513	0.001
757.2267	0.0101
757.4022	0.0078
757.5776	0.0048
757.753	0.0049
757.9284	0.0067
758.1038	-0.0088
758.2791	0.0064
758.4545	0.004
758.6298	0.0032
758.8051	0.001
758.9803	0.0091
759.1556	-0.0053
759.3308	0.006
759.506	0.0186
759.6812	0.0106
759.8564	0.002
760.0316	0.0038
760.2067	0.0081
760.3819	0.0039
760.557	0.0089
760.732	0.0144
760.9071	0.0058
761.0821	0.0164
761.2572	0.0048
761.4322	0.0076
761.6072	0.0002
761.7821	-0.0044
761.9571	0.0033
762.132	0.0054
762.3069	0.0097
762.4818	0.0088
762.6567	0.0044
762.8316	0.0015
763.0064	0.0009
763.1812	0.0065
763.356	-0.0018
763.5308	0.006
763.7055	0.0061
763.8803	0.003
764.055	-0.0045
764.2297	0.0038
764.4044	-0.0001
764.579	0.0038
764.7537	0.004
764.9283	0.0079
765.1029	-0.0012
765.2775	0.0101
765.4521	0.0059
765.6266	-0.0009
765.8011	-0.0014
765.9756	-0.0029
766.1501	0.0039
766.3246	0.0009
766.4991	0.0022
766.6735	0.0045
766.8479	0.0026
767.0223	-0.0085
767.1967	0.0105
767.371	0.0028
767.5454	0.0051
767.7197	-0.0006
767.894	0.0026
768.0683	0.0088
768.2425	0.0012
768.4168	0.0096
768.591	0.0017
768.7652	0.0035
768.9394	-0.0098
769.1135	0.0066
769.2877	0.0063
769.4618	0.0108
769.6359	0.0178
769.81	0.0028
769.984	0.0078
770.1581	-0.0037
770.3321	0.0068
770.5061	-0.0023
770.6801	-0.004
770.8541	0.0027
771.028	0.0136
771.202	0.0027
771.3759	-0.0128
771.5498	0.0097
771.7236	0.0014
771.8975	-0.0067
772.0713	0.0033
772.2451	0.0035
772.4189	0.0009
772.5927	-0.0011
772.7665	0.0002
772.9402	0.0142
773.1139	0.0042
773.2876	-0.0034
773.4613	0.0037
773.635	0.0037
773.8086	-0.0053
773.9822	0.0098
774.1558	0.013
774.3294	0.0168
774.503	-0.004
774.6765	0.0187
774.8501	0.0115
775.0236	0.0234
775.1971	0.0154
775.3705	0.0147
775.544	0.0194
775.7174	0.0178
775.8908	0.0227
776.0642	0.0099
776.2376	0.0105
776.4109	0.0174
776.5843	-0.0048
776.7576	0.0143
776.9309	0.0149
777.1041	0.0102
777.2774	0.0066
777.4506	0.0127
777.6238	0.0007
777.797	0.0144
777.9702	0.007
778.1434	0.0222
778.3165	0.0027
778.4896	0.015
778.6627	0.0078
778.8358	0.001
779.0089	-0.0051
779.1819	0.0004
779.3549	0.0156
779.5279	0.01
779.7009	-0.0075
779.8739	0.0064
780.0468	0.0122
780.2197	0.0173
780.3926	0.0015
780.5655	0.0077
780.7384	-0.0157
780.9112	0.0065
781.0841	-0.0023
781.2569	-0.007
781.4297	-0.0098
781.6024	-0.0004
781.7752	-0.0051
781.9479	-0.0017
782.1206	0.0096
782.2933	0.0073
782.466	-0.0002
782.6386	0.0044
782.8113	-0.0171
782.9839	-0.0004
783.1565	-0.0019
783.329	0.0002
783.5016	-0.0103
783.6741	0.0091
783.8466	-0.0028
784.0191	-0.0116
784.1916	0.0101
784.3641	0.0029
784.5365	0.0003
784.7089	-0.0024
784.8813	0.0119
785.0537	-0.0138
785.2261	-0.0014
785.3984	0.002
785.5707	0.0121
785.743	-0.0032
785.9153	-0.0005
786.0876	0.0158
786.2598	-0.0012
786.432	0.018
786.6042	0.0138
786.7764	0.0053
786.9486	0.0041
787.1207	0.0077
787.2928	-0.0124
787.4649	-0.0016
787.637	0.0075
787.8091	0.0067
787.9811	0.0052
788.1532	0.0196
788.3252	-0.0027
788.4972	0.0049
788.6691	0.0127
788.8411	-0.0216
789.013	0.0062
789.1849	0.0166
789.3568	0.0143
789.5287	0.0135
789.7005	0.0066
789.8723	0.0042
790.0442	0.0192
790.2159	0.0096
790.3877	0.0239
790.5595	0.0098
790.7312	-0.0145
790.9029	0.0038
791.0746	-0.0043
791.2463	0.0207
791.4179	0.0153
791.5896	0.0095
791.7612	0.0164
791.9328	0.0042
792.1044	0.0089
792.2759	-0.013
792.4474	0.0107
792.619	0.0117
792.7905	0.0163
792.9619	0.0084
793.1334	0.0192
793.3048	0.0062
793.4762	0.0198
793.6476	0.0035
793.819	0.0101
793.9904	0.0248
794.1617	0.0066
794.333	-0.0016
794.5043	0.0086
794.6756	0.003
794.8469	-0.0009
795.0181	0.0024
795.1893	-0.0053
795.3605	0.0089
795.5317	-0.0114
795.7029	0.0074
795.874	0.0043
796.0452	0.007
796.2163	0.0145
796.3873	0.0058
796.5584	0.0252
796.7294	0.0086
796.9005	0.0004
797.0715	-0.0032
797.2425	0.0018
797.4134	0.0121
797.5844	0.0096
797.7553	-0.0025
797.9262	0.0036
798.0971	0.0219
798.2679	0.0031
798.4388	-0.003
798.6096	-0.0259
798.7804	-0.0014
798.9512	0.0067
799.122	0.0307
799.2927	0.0272
799.4635	0.0063
799.6342	0.0303
799.8049	0.0215
799.9755	0.0187
800.1462	0.0176
800.3168	0.0132
800.4874	-0.0078
800.658	0.0059
800.8286	0.0149
800.9991	0.0162
801.1696	0.0001
801.3402	0.0102
801.5106	0.0014
801.6811	0.0086
801.8516	0.0015
802.022	0.0017
802.1924	0.0031
802.3628	0.0056
802.5332	0.0111
802.7035	-0.0088
802.8739	0.0053
803.0442	-0.0079
803.2145	0.0038
803.3847	-0.0041
803.555	0.023
803.7252	0.0245
803.8954	-0.0007
804.0656	0.0045
804.2358	0.0144
804.4059	0.0227
804.5761	0.0101
804.7462	0.0182
804.9163	0.0176
805.0864	-0.0037
805.2564	-0.0139
805.4264	0.0073
805.5965	-0.0083
805.7665	0.0241
805.9364	-0.009
806.1064	0.0118
806.2763	0.0003
806.4462	0.0322
806.6161	0.0048
806.786	0.0221
806.9559	0.0312
807.1257	0.0295
807.2955	0.0233
807.4653	0.032
807.6351	0.03
807.8048	0.0078
807.9746	0.0053
808.1443	0.0151
808.314	0.0297
808.4837	0.0262
808.6533	0.0037
808.8229	0.023
808.9926	0.015
809.1622	0.0206
809.3317	0.0204
809.5013	0.0136
809.6708	0.0027
809.8403	0.009
810.0098	0.0285
810.1793	0.0124
810.3488	-0.0046
810.5182	0.0155
810.6876	0.0023
810.857	0.0275
811.0264	0.0069
811.1958	0.019
811.3651	0.0233
811.5344	0.0324
811.7037	0.0009
811.873	0.0127
812.0422	0.0102
812.2115	0.0189
812.3807	0.0117
812.5499	0.0161
812.7191	0.0111
812.8882	0.0163
813.0574	0.0131
813.2265	0.0245
813.3956	0.0261
813.5646	0.0155
813.7337	0.0228
813.9027	0.0038
814.0718	0.0288
814.2407	0.0057
814.4097	0.0346
814.5787	-0.0004
814.7476	0.0194
814.9165	0.002
815.0854	-0.0024
815.2543	0.0007
815.4232	0.0059
815.592	-0.0027
815.7608	0.0304
815.9296	0.0074
816.0984	-0.0019
816.2671	-0.0155
816.4359	-0.0102
816.6046	-0.0144
816.7733	-0.0071
816.942	-0.0113
817.1106	0.001
817.2793	-0.0134
817.4479	-0.0151
817.6165	-0.0029
817.785	0.0022
817.9536	0.0169
818.1221	0.002
818.2906	0.0038
818.4591	0.0168
818.6276	0.0096
818.7961	-0.0045
818.9645	0.0199
819.1329	0.0173
819.3013	0.0128
819.4697	-0.0083
819.638	-0.0054
819.8064	0.0045
819.9747	0.0151
820.143	0.0011
820.3113	-0.0178
820.4795	-0.0147
820.6477	0.0097
820.816	-0.0016
820.9842	-0.0064
821.1523	0.0225
821.3205	-0.0136
821.4886	-0.0341
821.6567	0.0053
821.8248	0.0339
821.9929	0.0005
822.1609	-0.0009
822.329	0.0097
822.497	-0.0183
822.665	0.016
822.833	-0.0298
823.0009	-0.0013
823.1688	-0.0027
823.3367	0.0169
823.5046	-0.0095
823.6725	-0.0354
823.8404	-0.0277
824.0082	0.0298
824.176	0.0336
824.3438	0.0275
824.5116	0.0294
824.6793	-0.0039
824.847	0.0128
825.0147	0.0183
825.1824	0.0043
825.3501	-0.0019
825.5177	-0.0107
825.6854	0.0064
825.853	0.0377
826.0206	-0.0176
826.1881	0.0218
826.3557	-0.0011
826.5232	0.0059
826.6907	0.0218
826.8582	0.0115
827.0257	0.0315
827.1931	0.0158
827.3605	0.034
827.528	0.0295
827.6953	0.0368
827.8627	0.0207
828.03	0.0307
828.1974	0.0446
828.3647	0.0028
828.532	-0.0021
828.6992	0.0232
828.8665	0.042
829.0337	0.0262
829.2009	0.018
829.3681	-0.0041
829.5352	0.0157
829.7024	0.0103
829.8695	0.0223
830.0366	0.0165
830.2037	-0.01
830.3707	0.0093
830.5378	-0.0055
830.7048	-0.0218
830.8718	0.044
831.0388	0.0145
831.2057	0.009
831.3727	0.0432
831.5396	0.0206
831.7065	-0.0325
831.8734	0.0023
832.0402	-0.0209
832.2071	-0.0258
832.3739	-0.0111
832.5407	0.0469
832.7075	0.0044
832.8742	-0.0048
833.041	0.003
833.2077	-0.0086
833.3744	0.0186
833.541	0.0169
833.7077	0.0162
833.8743	0.0368
834.0409	0.0362
834.2075	-0.0009
834.3741	0.0483
834.5407	-0.0131
834.7072	-0.0096
834.8737	0.0184
835.0402	0.0216
835.2067	-0.0138
835.3731	-0.0137
835.5395	-0.0142
835.706	0.0653
835.8723	-0.0266
836.0387	0.0176
836.2051	0.0173
836.3714	-0.0783
836.5377	-0.0291
836.704	-0.0431
836.8703	-0.0265
837.0365	-0.0027
837.2027	-0.0295
837.3689	-0.0211
837.5351	0.0113
837.7013	-0.0527
837.8674	0.0348
838.0335	-0.0349
838.1997	-0.0346
838.3657	-0.0011
838.5318	-0.0055
838.6978	-0.008
838.8639	-0.0154
839.0299	-0.0168
839.1958	-0.0113
839.3618	0.0183
839.5277	0.0106
839.6937	-0.0249
839.8596	-0.0079
840.0254	0.01
840.1913	0.0592
840.3571	-0.0347
840.523	0.0183
840.6888	0.023
840.8545	-0.0388
841.0203	0.0064
841.186	0.016
841.3517	0.0062
841.5174	0.0133
841.6831	0.0256
841.8488	-0.0097
842.0144	0.0744
842.18	-0.008
842.3456	-0.0283
842.5112	0.0465
842.6767	0.0225
842.8422	0.042
843.0077	-0.0099
843.1732	-0.0479
843.3387	-0.0249
843.5042	-0.0255
843.6696	-0.0332
843.835	-0.015
844.0004	-0.0417
844.1657	0.0591
844.3311	-0.0077
844.4964	-0.0255
844.6617	-0.0254
844.827	0.0517
844.9923	0.0528
845.1575	0.0023
845.3227	0.0296
845.4879	-0.0247
845.6531	-0.0057
845.8183	-0.0566
845.9834	0.0016
846.1485	-0.04
846.3136	-0.0319
846.4787	0.0061
846.6438	0.016
846.8088	-0.0542
846.9738	-0.0008
847.1388	0.0334
847.3038	0.0373
847.4687	0.0223
847.6337	-0.0661
847.7986	0.0664
847.9635	0.0366
848.1284	0.009
848.2932	0.0341
848.458	0.0785
848.6228	0.0299
848.7876	-0.0099
848.9524	-0.0294
849.1172	0.0298
849.2819	0.0062
849.4466	0.0418
849.6113	0.0991
849.7759	-0.0743
849.9406	0.0103
850.1052	-0.0471
850.2698	0.0389
850.4344	-0.0493
850.599	-0.0089
850.7635	0.0423
850.928	-0.001
851.0925	0.1087
851.257	0.0382
851.4215	-0.0771
851.5859	0.011
851.7503	-0.0358
851.9147	0.1117
852.0791	0.0244
852.2434	0.0258
852.4078	-0.0247
852.5721	0.0824
852.7364	-0.015
852.9007	-0.1647
853.0649	0.0025
853.2291	0.0967
853.3934	-0.0385
853.5575	-0.0669
853.7217	0.0691
853.8859	-0.003
854.05	0.0095
854.2141	0.0106
854.3782	0.1477
854.5423	0.0689
854.7063	-0.0012
854.8703	-0.0117
855.0343	0.0865
855.1983	-0.0324
855.3623	-0.0013
855.5262	0.0278
855.6901	-0.0022
855.854	-0.0518
856.0179	0.0602
856.1818	-0.0137
856.3456	-0.0676
856.5094	0.0506
856.6732	0.0699
856.837	0.0043
857.0008	-0.2836
857.1645	0.1932
857.3282	0.4003
857.4919	-0.0967
857.6556	-0.0079
857.8192	-0.0632
857.9828	0.1871
858.1465	0.1018
858.31	-0.052
858.4736	-0.1438
858.6372	-0.1063
858.8007	-0.3195
858.9642	0.1282
859.1277	-0.1794
859.2911	-0.1128
859.4546	-0.0466
859.618	-0.5403
859.7814	0.0236
859.9448	-0.0655
860.1081	-0.1271
860.2715	0.1196
860.4348	0.057
860.5981	0.0535
860.7614	-0.0066
860.9246	0.1202
861.0879	0.0434
861.2511	0.3106
861.4143	-0.0089
861.5774	-0.0358
861.7406	-0.1015
861.9037	-0.483
862.0668	-0.062
862.2299	0.0988
862.393	0.0093
862.556	0.0109
862.7191	0.2259
862.8821	-0.43
863.0451	-0.0796
863.208	0.1657
863.371	-0.6872
863.5339	0.0165
863.6968	-0.0761
863.8597	-0.275
864.0225	0.2566
864.1854	-0.0628
864.3482	-0.0872
864.511	0.0914
864.6737	-0.0064
864.8365	0.1819
864.9992	-0.2158
865.1619	-0.2168
865.3246	-0.1778
865.4873	0.0096
865.65	-0.3936
865.8126	-0.2023
865.9752	0.131
866.1378	0.5376
866.3004	-0.1818
866.4629	0.0595
866.6254	0.0093
866.7879	-0.2609
866.9504	0.376
867.1129	0.4307
867.2753	-0.0695
867.4377	-0.301
867.6001	0.0622
867.7625	-0.1252
867.9249	-0.1726
868.0872	1.2745
868.2495	0.8487
868.4118	0.0369
868.5741	0.137
868.7363	0.8932
868.8986	0.0909
869.0608	-0.0513
869.223	-0.2752
869.3851	0.0513
869.5473	-0.3114
869.7094	0.0027
869.8715	0.0042
870.0336	-0
870.1957	-0
870.3577	-0.2611
870.5197	-0.1481
870.6817	-0.1785
870.8437	0.2826
871.0057	-0.4483
871.1676	0.2304
871.3295	-0.7125
871.4914	-0.7949
871.6533	-0.0273
871.8151	0.2752
871.977	-0.4815
872.1388	-0
872.3006	-0.0152
872.4623	-0.1782
872.6241	-0
872.7858	0.0414
872.9475	0.0068
873.1092	0.1347
873.2709	-0
873.4325	-0
873.5941	1.5623
873.7557	-0.4583
873.9173	-0.2405
874.0789	-0.018
874.2404	-0
874.4019	-0.3697
874.5634	-0.3207
874.7249	0.2575
874.8863	0.6302
875.0478	0.4483
875.2092	0.2394
875.3706	-0.2212
875.5319	-0
875.6933	-0.1887
875.8546	0.0231
876.0159	-0.0178
876.1772	-0.3441
876.3385	-0.335
876.4997	-0
876.6609	-0
876.8221	-0.6138
876.9833	-0
877.1445	0.5903
877.3056	0.0199
877.4667	-0.1673
877.6278	0.3598
877.7889	0.1158
877.9499	0.6826
878.111	-0
878.272	0.004
878.433	0.1048
878.5939	0.2952
878.7549	0.4585
878.9158	-0.29
879.0767	0.5372
879.2376	0.3306
879.3984	-0
879.5593	0.2125
879.7201	-0.1328
879.8809	0.8359
880.0417	0.3664
880.2024	-0
880.3632	-0
880.5239	-0
880.6846	0.4794
880.8452	-0.09
881.0059	-0
881.1665	-0.0418
881.3271	-0.3402
881.4877	-1.0915
881.6483	0.221
881.8088	-0.6349
881.9693	-0.201
882.1298	-0.201
882.2903	-0.201
