Data from MonoPyChalIsomerACN10uM400nmA_Absorbance_12-08-45-828.txt Node
Date: Fri Jul 05 12:08:45 BST 2024
User: LASERRRRR
Spectrometer: FLMT03099
Trigger mode: 0
Integration Time (sec): 1.000000E-1
Scans to average: 1
Electric dark correction enabled: true
Nonlinearity correction enabled: false
Boxcar width: 0
XAxis mode: Wavelengths
Number of Pixels in Spectrum: 3648
>>>>>Begin Spectral Data<<<<<
179.3399	0.0186
179.5586	0.0186
179.7771	0.0186
179.9957	0.7284
180.2143	0.1122
180.4329	-0
180.6514	-0
180.8699	-0.3698
181.0885	-0.0228
181.307	0.1036
181.5255	-0.8743
181.744	-0
181.9625	-0.7374
182.181	-0.0504
182.3994	-0.448
182.6179	0.635
182.8363	0.1816
183.0547	0.4731
183.2732	0.1497
183.4916	0.2155
183.71	0.1882
183.9284	0.1433
184.1467	-0.0235
184.3651	-0.1356
184.5835	0.1205
184.8018	-0.031
185.0201	0.2087
185.2385	0.1296
185.4568	0.4554
185.6751	0.0614
185.8934	0.1456
186.1117	0.1948
186.3299	0.0004
186.5482	0.2995
186.7664	0.1755
186.9847	0.1906
187.2029	0.1532
187.4211	-0.1582
187.6393	-0.0915
187.8575	0.211
188.0757	0.1083
188.2939	0.3348
188.512	-0.0244
188.7302	0.1778
188.9483	0.0144
189.1665	0.1289
189.3846	-0.0179
189.6027	0.2627
189.8208	0.27
190.0389	0.6505
190.257	0.1237
190.475	0.1146
190.6931	0.1743
190.9111	0.3762
191.1292	0.386
191.3472	0.3108
191.5652	0.3263
191.7832	0.5436
192.0012	0.3651
192.2192	0.3585
192.4371	0.5313
192.6551	0.2771
192.873	0.4467
193.091	0.4233
193.3089	0.4721
193.5268	0.6945
193.7447	0.5715
193.9626	0.6379
194.1805	0.6758
194.3984	0.459
194.6162	0.6517
194.8341	0.5534
195.0519	0.812
195.2697	0.4993
195.4875	1.3457
195.7054	0.6142
195.9231	0.7616
196.1409	0.7311
196.3587	0.5865
196.5765	0.7915
196.7942	0.8893
197.012	0.9924
197.2297	0.7314
197.4474	0.9123
197.6651	0.773
197.8828	0.7465
198.1005	0.6494
198.3182	0.9372
198.5358	0.8338
198.7535	0.7614
198.9711	0.7855
199.1888	0.6264
199.4064	1.1222
199.624	0.6918
199.8416	0.6948
200.0592	0.9019
200.2767	0.7457
200.4943	0.7685
200.7119	0.8662
200.9294	0.6608
201.1469	0.89
201.3645	0.7421
201.582	0.7462
201.7995	0.8505
202.017	0.948
202.2344	0.589
202.4519	0.7905
202.6694	1.1366
202.8868	0.6924
203.1042	0.6445
203.3217	0.7304
203.5391	1.0591
203.7565	0.7362
203.9739	0.9193
204.1913	0.9952
204.4086	0.7674
204.626	0.755
204.8433	1.2315
205.0607	0.9019
205.278	0.8952
205.4953	0.8711
205.7126	0.7016
205.9299	0.9454
206.1472	0.7575
206.3644	0.6891
206.5817	0.7974
206.7989	0.7117
207.0162	0.8237
207.2334	0.7069
207.4506	0.7427
207.6678	0.8235
207.885	0.7521
208.1022	0.8273
208.3194	0.7599
208.5365	0.7872
208.7537	0.7871
208.9708	0.8081
209.1879	0.8138
209.405	0.7343
209.6222	0.7917
209.8392	0.726
210.0563	0.7851
210.2734	0.8137
210.4905	0.9658
210.7075	0.8239
210.9245	0.7576
211.1416	0.8247
211.3586	0.8936
211.5756	0.7917
211.7926	0.754
212.0096	0.7261
212.2265	0.7466
212.4435	0.7581
212.6604	0.7963
212.8774	0.7383
213.0943	0.7445
213.3112	0.7446
213.5281	0.6566
213.745	0.7698
213.9619	0.6973
214.1788	0.6944
214.3956	0.6858
214.6125	0.6644
214.8293	0.7265
215.0461	0.6468
215.2629	0.6693
215.4798	0.6691
215.6965	0.7176
215.9133	0.6848
216.1301	0.6266
216.3469	0.6445
216.5636	0.6677
216.7803	0.6391
216.9971	0.571
217.2138	0.6101
217.4305	0.5879
217.6472	0.6354
217.8639	0.6072
218.0805	0.6305
218.2972	0.6068
218.5138	0.6129
218.7305	0.5798
218.9471	0.6024
219.1637	0.5926
219.3803	0.5635
219.5969	0.6166
219.8135	0.5522
220.0301	0.5389
220.2466	0.5787
220.4632	0.5293
220.6797	0.5562
220.8962	0.5729
221.1127	0.5735
221.3292	0.5696
221.5457	0.5932
221.7622	0.5418
221.9787	0.5293
222.1951	0.5613
222.4116	0.5825
222.628	0.5503
222.8444	0.5518
223.0608	0.5544
223.2772	0.5597
223.4936	0.5865
223.71	0.63
223.9264	0.528
224.1427	0.5555
224.3591	0.5609
224.5754	0.565
224.7917	0.53
225.008	0.5984
225.2243	0.5352
225.4406	0.5523
225.6569	0.5444
225.8732	0.5752
226.0894	0.5529
226.3057	0.5512
226.5219	0.5841
226.7381	0.5943
226.9543	0.5633
227.1705	0.5905
227.3867	0.5688
227.6029	0.5605
227.8191	0.5571
228.0352	0.5977
228.2513	0.5375
228.4675	0.6439
228.6836	0.5969
228.8997	0.5799
229.1158	0.5538
229.3319	0.6047
229.548	0.6175
229.764	0.6034
229.9801	0.5862
230.1961	0.5853
230.4121	0.5733
230.6282	0.5706
230.8442	0.592
231.0602	0.5486
231.2761	0.5692
231.4921	0.5856
231.7081	0.5886
231.924	0.6029
232.14	0.5742
232.3559	0.5784
232.5718	0.5951
232.7877	0.5677
233.0036	0.5852
233.2195	0.5582
233.4353	0.598
233.6512	0.569
233.867	0.5912
234.0829	0.5456
234.2987	0.6061
234.5145	0.5738
234.7303	0.596
234.9461	0.5843
235.1619	0.5755
235.3776	0.584
235.5934	0.552
235.8091	0.5365
236.0249	0.5354
236.2406	0.5673
236.4563	0.561
236.672	0.5721
236.8877	0.5335
237.1034	0.5505
237.319	0.5477
237.5347	0.5689
237.7503	0.5509
237.966	0.5588
238.1816	0.5861
238.3972	0.5859
238.6128	0.529
238.8284	0.5138
239.0439	0.5474
239.2595	0.5408
239.475	0.5545
239.6906	0.5031
239.9061	0.5119
240.1216	0.5469
240.3371	0.5491
240.5526	0.5145
240.7681	0.5486
240.9836	0.5403
241.199	0.4982
241.4145	0.5062
241.6299	0.4857
241.8453	0.5037
242.0607	0.4905
242.2761	0.4856
242.4915	0.4623
242.7069	0.4526
242.9223	0.4676
243.1376	0.4502
243.353	0.4712
243.5683	0.444
243.7836	0.4316
243.9989	0.4328
244.2142	0.4381
244.4295	0.3916
244.6448	0.4005
244.86	0.3996
245.0753	0.38
245.2905	0.3847
245.5057	0.3795
245.721	0.3758
245.9362	0.3575
246.1514	0.3462
246.3665	0.3394
246.5817	0.3522
246.7969	0.3365
247.012	0.3406
247.2271	0.3391
247.4423	0.3052
247.6574	0.3002
247.8725	0.3137
248.0876	0.3027
248.3026	0.2984
248.5177	0.2918
248.7328	0.295
248.9478	0.2761
249.1628	0.2658
249.3779	0.2687
249.5929	0.267
249.8079	0.2666
250.0228	0.2557
250.2378	0.2566
250.4528	0.2601
250.6677	0.248
250.8827	0.2418
251.0976	0.2587
251.3125	0.2417
251.5274	0.2545
251.7423	0.2397
251.9572	0.23
252.172	0.2242
252.3869	0.2288
252.6017	0.2208
252.8166	0.2084
253.0314	0.2117
253.2462	0.2159
253.461	0.2178
253.6758	0.2142
253.8906	0.2251
254.1053	0.2027
254.3201	0.2195
254.5348	0.2053
254.7496	0.2009
254.9643	0.1935
255.179	0.2077
255.3937	0.2005
255.6083	0.209
255.823	0.1956
256.0377	0.1966
256.2523	0.1859
256.467	0.2023
256.6816	0.1898
256.8962	0.1973
257.1108	0.2017
257.3254	0.1981
257.54	0.1832
257.7545	0.1893
257.9691	0.2093
258.1836	0.1921
258.3981	0.1875
258.6127	0.2053
258.8272	0.2015
259.0417	0.1853
259.2561	0.1899
259.4706	0.1946
259.6851	0.1892
259.8995	0.1842
260.114	0.1824
260.3284	0.189
260.5428	0.1844
260.7572	0.2011
260.9716	0.1918
261.186	0.1981
261.4003	0.1952
261.6147	0.2001
261.829	0.1881
262.0433	0.182
262.2577	0.1842
262.472	0.1869
262.6863	0.2067
262.9005	0.1961
263.1148	0.1876
263.3291	0.1986
263.5433	0.1782
263.7576	0.2013
263.9718	0.182
264.186	0.1938
264.4002	0.1975
264.6144	0.1976
264.8286	0.1956
265.0427	0.1845
265.2569	0.1915
265.471	0.1987
265.6851	0.1795
265.8993	0.1995
266.1134	0.1835
266.3275	0.1926
266.5415	0.1825
266.7556	0.1957
266.9697	0.1946
267.1837	0.2091
267.3978	0.1973
267.6118	0.1947
267.8258	0.2015
268.0398	0.1873
268.2538	0.197
268.4677	0.1937
268.6817	0.1906
268.8957	0.1898
269.1096	0.184
269.3235	0.1943
269.5374	0.1924
269.7514	0.1721
269.9652	0.1976
270.1791	0.1837
270.393	0.1718
270.6068	0.1906
270.8207	0.1961
271.0345	0.1765
271.2483	0.1852
271.4622	0.1876
271.676	0.1787
271.8897	0.1841
272.1035	0.1841
272.3173	0.1878
272.531	0.176
272.7448	0.1849
272.9585	0.1804
273.1722	0.1835
273.3859	0.1913
273.5996	0.1771
273.8133	0.1888
274.0269	0.1807
274.2406	0.1865
274.4542	0.1699
274.6679	0.1767
274.8815	0.1827
275.0951	0.189
275.3087	0.1881
275.5223	0.1806
275.7358	0.1864
275.9494	0.1824
276.1629	0.1798
276.3765	0.1927
276.59	0.1856
276.8035	0.1852
277.017	0.1733
277.2305	0.1902
277.444	0.1784
277.6574	0.1969
277.8709	0.1799
278.0843	0.1892
278.2978	0.1891
278.5112	0.1984
278.7246	0.1893
278.938	0.18
279.1513	0.1884
279.3647	0.1873
279.5781	0.1873
279.7914	0.1882
280.0047	0.1983
280.2181	0.1903
280.4314	0.1797
280.6447	0.1918
280.8579	0.1992
281.0712	0.2009
281.2845	0.1816
281.4977	0.1913
281.711	0.1938
281.9242	0.1896
282.1374	0.1793
282.3506	0.1952
282.5638	0.1985
282.7769	0.1927
282.9901	0.1902
283.2033	0.1818
283.4164	0.1807
283.6295	0.1837
283.8426	0.1846
284.0557	0.1927
284.2688	0.19
284.4819	0.1834
284.695	0.1905
284.908	0.1971
285.1211	0.2055
285.3341	0.1886
285.5471	0.1952
285.7601	0.2007
285.9731	0.1936
286.1861	0.1886
286.3991	0.186
286.612	0.1886
286.825	0.1886
287.0379	0.187
287.2508	0.1867
287.4637	0.1945
287.6766	0.1828
287.8895	0.1736
288.1024	0.1878
288.3152	0.1862
288.5281	0.1783
288.7409	0.1747
288.9538	0.1833
289.1666	0.1864
289.3794	0.1796
289.5922	0.1727
289.8049	0.1818
290.0177	0.1884
290.2304	0.1803
290.4432	0.1719
290.6559	0.1906
290.8686	0.18
291.0813	0.169
291.294	0.1819
291.5067	0.1824
291.7194	0.1738
291.932	0.1828
292.1447	0.1808
292.3573	0.1892
292.5699	0.182
292.7825	0.1726
292.9951	0.1929
293.2077	0.193
293.4203	0.1826
293.6328	0.1795
293.8454	0.1656
294.0579	0.1828
294.2704	0.1677
294.4829	0.1719
294.6954	0.1773
294.9079	0.166
295.1204	0.1818
295.3328	0.1655
295.5453	0.1662
295.7577	0.168
295.9701	0.1697
296.1825	0.1581
296.3949	0.1767
296.6073	0.1681
296.8197	0.1835
297.0321	0.1658
297.2444	0.1664
297.4567	0.1688
297.6691	0.1694
297.8814	0.162
298.0937	0.1613
298.306	0.1712
298.5182	0.175
298.7305	0.1681
298.9428	0.1688
299.155	0.1732
299.3672	0.1652
299.5794	0.1708
299.7916	0.1553
300.0038	0.1568
300.216	0.17
300.4282	0.1608
300.6403	0.1898
300.8525	0.1761
301.0646	0.1688
301.2767	0.1657
301.4888	0.1666
301.7009	0.1733
301.913	0.1756
302.125	0.1611
302.3371	0.1757
302.5491	0.1664
302.7612	0.1707
302.9732	0.1708
303.1852	0.1513
303.3972	0.166
303.6092	0.1577
303.8211	0.1629
304.0331	0.1527
304.245	0.1667
304.457	0.1586
304.6689	0.1603
304.8808	0.152
305.0927	0.1548
305.3046	0.1495
305.5164	0.1669
305.7283	0.1593
305.9401	0.1494
306.152	0.1456
306.3638	0.1616
306.5756	0.1438
306.7874	0.1626
306.9992	0.1482
307.2109	0.1476
307.4227	0.1454
307.6344	0.1494
307.8462	0.1245
308.0579	0.1449
308.2696	0.1511
308.4813	0.1358
308.693	0.1461
308.9046	0.1353
309.1163	0.137
309.328	0.142
309.5396	0.1368
309.7512	0.1203
309.9628	0.1316
310.1744	0.1372
310.386	0.126
310.5976	0.1275
310.8091	0.1244
311.0207	0.1247
311.2322	0.1145
311.4437	0.1313
311.6552	0.126
311.8667	0.1227
312.0782	0.127
312.2897	0.1116
312.5012	0.1199
312.7126	0.1246
312.924	0.1103
313.1355	0.1347
313.3469	0.1085
313.5583	0.1241
313.7696	0.1064
313.981	0.1192
314.1924	0.1199
314.4037	0.1237
314.6151	0.1184
314.8264	0.1126
315.0377	0.1083
315.249	0.1094
315.4603	0.1198
315.6716	0.1103
315.8828	0.1114
316.0941	0.1111
316.3053	0.1014
316.5165	0.1222
316.7277	0.1053
316.9389	0.1221
317.1501	0.1011
317.3613	0.0993
317.5724	0.1123
317.7836	0.1072
317.9947	0.1248
318.2058	0.1166
318.417	0.1168
318.6281	0.1179
318.8391	0.1051
319.0502	0.1106
319.2613	0.1122
319.4723	0.1138
319.6834	0.1097
319.8944	0.1095
320.1054	0.1144
320.3164	0.119
320.5274	0.1038
320.7383	0.1086
320.9493	0.112
321.1602	0.1233
321.3712	0.1088
321.5821	0.114
321.793	0.1109
322.0039	0.1182
322.2148	0.1102
322.4257	0.1149
322.6365	0.1159
322.8474	0.0961
323.0582	0.1307
323.269	0.1082
323.4798	0.1238
323.6906	0.0985
323.9014	0.1269
324.1122	0.1078
324.3229	0.1252
324.5337	0.1178
324.7444	0.1274
324.9551	0.1225
325.1658	0.1125
325.3765	0.1125
325.5872	0.1225
325.7979	0.1187
326.0085	0.1085
326.2192	0.098
326.4298	0.111
326.6404	0.1152
326.851	0.1181
327.0616	0.1086
327.2722	0.1266
327.4828	0.1308
327.6933	0.1299
327.9039	0.1166
328.1144	0.1062
328.3249	0.1061
328.5354	0.1141
328.7459	0.1307
328.9564	0.1175
329.1669	0.1215
329.3773	0.1223
329.5878	0.1233
329.7982	0.1064
330.0086	0.108
330.219	0.1218
330.4294	0.1212
330.6398	0.1154
330.8502	0.1253
331.0605	0.1221
331.2708	0.1185
331.4812	0.1218
331.6915	0.119
331.9018	0.1296
332.1121	0.1271
332.3224	0.1213
332.5326	0.1207
332.7429	0.1077
332.9531	0.1202
333.1633	0.1295
333.3735	0.1086
333.5837	0.1197
333.7939	0.1158
334.0041	0.1254
334.2143	0.1277
334.4244	0.1237
334.6346	0.1004
334.8447	0.1082
335.0548	0.126
335.2649	0.1291
335.475	0.1119
335.685	0.1166
335.8951	0.1227
336.1051	0.1204
336.3152	0.1239
336.5252	0.1269
336.7352	0.1365
336.9452	0.1282
337.1552	0.1289
337.3652	0.1211
337.5751	0.12
337.7851	0.1102
337.995	0.1214
338.2049	0.1256
338.4148	0.133
338.6247	0.1211
338.8346	0.1287
339.0445	0.1266
339.2543	0.1357
339.4642	0.1325
339.674	0.1166
339.8838	0.1402
340.0936	0.1387
340.3034	0.135
340.5132	0.1279
340.7229	0.1377
340.9327	0.1282
341.1424	0.1243
341.3522	0.1278
341.5619	0.1184
341.7716	0.1427
341.9813	0.1389
342.1909	0.1223
342.4006	0.1408
342.6102	0.1307
342.8199	0.1161
343.0295	0.1285
343.2391	0.1299
343.4487	0.1384
343.6583	0.1269
343.8679	0.1471
344.0774	0.1309
344.287	0.1396
344.4965	0.1428
344.706	0.1496
344.9155	0.1295
345.125	0.1204
345.3345	0.1428
345.544	0.1406
345.7534	0.13
345.9629	0.133
346.1723	0.1307
346.3817	0.129
346.5911	0.1375
346.8005	0.1361
347.0099	0.143
347.2193	0.1404
347.4286	0.1406
347.638	0.1388
347.8473	0.1354
348.0566	0.1343
348.2659	0.1556
348.4752	0.1368
348.6845	0.1407
348.8937	0.1362
349.103	0.1462
349.3122	0.1453
349.5214	0.1511
349.7306	0.1358
349.9398	0.1507
350.149	0.1393
350.3582	0.1447
350.5674	0.1476
350.7765	0.1373
350.9856	0.137
351.1948	0.1497
351.4039	0.1604
351.613	0.1515
351.822	0.142
352.0311	0.1401
352.2402	0.1458
352.4492	0.1566
352.6582	0.155
352.8672	0.1497
353.0762	0.1449
353.2852	0.1465
353.4942	0.1469
353.7032	0.1616
353.9121	0.1536
354.1211	0.1549
354.33	0.1599
354.5389	0.1567
354.7478	0.1601
354.9567	0.1676
355.1655	0.1614
355.3744	0.151
355.5833	0.1632
355.7921	0.1624
356.0009	0.167
356.2097	0.141
356.4185	0.144
356.6273	0.1512
356.8361	0.1604
357.0448	0.1667
357.2536	0.1628
357.4623	0.1697
357.671	0.1795
357.8797	0.1598
358.0884	0.1754
358.2971	0.1687
358.5057	0.1806
358.7144	0.1653
358.923	0.1677
359.1316	0.1615
359.3402	0.1849
359.5488	0.1621
359.7574	0.1679
359.966	0.1564
360.1746	0.178
360.3831	0.1719
360.5916	0.1966
360.8002	0.1832
361.0087	0.1743
361.2172	0.1678
361.4256	0.1863
361.6341	0.1746
361.8426	0.1856
362.051	0.1733
362.2594	0.1864
362.4678	0.1847
362.6762	0.1699
362.8846	0.1796
363.093	0.1694
363.3014	0.1821
363.5097	0.1782
363.718	0.2061
363.9264	0.1984
364.1347	0.1691
364.343	0.1827
364.5513	0.1896
364.7595	0.1656
364.9678	0.1773
365.176	0.2002
365.3842	0.1944
365.5925	0.1658
365.8007	0.1847
366.0089	0.1997
366.217	0.19
366.4252	0.1933
366.6333	0.1967
366.8415	0.1897
367.0496	0.1812
367.2577	0.2123
367.4658	0.187
367.6739	0.2002
367.882	0.2013
368.09	0.2065
368.2981	0.2057
368.5061	0.1854
368.7141	0.1972
368.9221	0.1809
369.1301	0.1904
369.3381	0.2059
369.5461	0.1958
369.754	0.205
369.962	0.1938
370.1699	0.1958
370.3778	0.1989
370.5857	0.2091
370.7936	0.2084
371.0015	0.2126
371.2093	0.2121
371.4172	0.2079
371.625	0.1972
371.8328	0.2074
372.0406	0.2015
372.2484	0.2015
372.4562	0.2263
372.664	0.2044
372.8717	0.1825
373.0795	0.2006
373.2872	0.2068
373.4949	0.2045
373.7026	0.2079
373.9103	0.2199
374.118	0.195
374.3256	0.2083
374.5333	0.2236
374.7409	0.1932
374.9485	0.2057
375.1561	0.204
375.3637	0.1997
375.5713	0.216
375.7789	0.2214
375.9864	0.2055
376.194	0.2126
376.4015	0.2137
376.609	0.2117
376.8165	0.2026
377.024	0.2048
377.2315	0.2051
377.4389	0.2256
377.6464	0.2215
377.8538	0.2117
378.0612	0.2028
378.2686	0.2298
378.476	0.2137
378.6834	0.2221
378.8908	0.2096
379.0981	0.2215
379.3055	0.2275
379.5128	0.2077
379.7201	0.233
379.9274	0.2168
380.1347	0.214
380.342	0.239
380.5492	0.2266
380.7565	0.226
380.9637	0.232
381.1709	0.2124
381.3781	0.227
381.5853	0.2283
381.7925	0.2283
381.9997	0.2007
382.2068	0.2376
382.4139	0.2303
382.6211	0.2244
382.8282	0.236
383.0353	0.22
383.2424	0.2215
383.4494	0.2082
383.6565	0.2434
383.8635	0.2327
384.0706	0.2526
384.2776	0.231
384.4846	0.2302
384.6916	0.2234
384.8986	0.2136
385.1055	0.2064
385.3125	0.2098
385.5194	0.2221
385.7263	0.2315
385.9333	0.2213
386.1402	0.233
386.347	0.2402
386.5539	0.2355
386.7608	0.2166
386.9676	0.2032
387.1744	0.2151
387.3813	0.218
387.5881	0.2283
387.7948	0.2386
388.0016	0.2246
388.2084	0.217
388.4151	0.2238
388.6219	0.2215
388.8286	0.2156
389.0353	0.2008
389.242	0.221
389.4487	0.2265
389.6553	0.2133
389.862	0.2443
390.0686	0.2187
390.2753	0.2295
390.4819	0.209
390.6885	0.2368
390.8951	0.1938
391.1016	0.2138
391.3082	0.2091
391.5147	0.2045
391.7213	0.2085
391.9278	0.2212
392.1343	0.2147
392.3408	0.1996
392.5473	0.1879
392.7537	0.2142
392.9602	0.2206
393.1666	0.1989
393.373	0.1859
393.5794	0.1845
393.7858	0.1998
393.9922	0.215
394.1986	0.1937
394.4049	0.1952
394.6113	0.1988
394.8176	0.209
395.0239	0.2053
395.2302	0.1904
395.4365	0.1855
395.6428	0.2065
395.8491	0.1709
396.0553	0.1976
396.2615	0.1996
396.4678	0.1845
396.674	0.1878
396.8802	0.1822
397.0863	0.1888
397.2925	0.1701
397.4987	0.214
397.7048	0.1893
397.9109	0.1838
398.117	0.1852
398.3231	0.1882
398.5292	0.2064
398.7353	0.1896
398.9413	0.1796
399.1474	0.1852
399.3534	0.1769
399.5594	0.1996
399.7654	0.1932
399.9714	0.194
400.1774	0.1804
400.3833	0.1885
400.5893	0.1814
400.7952	0.1813
401.0011	0.1846
401.207	0.19
401.4129	0.1867
401.6188	0.1835
401.8247	0.1788
402.0305	0.1702
402.2364	0.1832
402.4422	0.1876
402.648	0.1718
402.8538	0.1931
403.0596	0.1907
403.2654	0.1763
403.4711	0.1843
403.6768	0.1941
403.8826	0.1871
404.0883	0.1683
404.294	0.1955
404.4997	0.1709
404.7054	0.1853
404.911	0.1709
405.1167	0.1804
405.3223	0.1857
405.5279	0.1897
405.7335	0.1866
405.9391	0.1943
406.1447	0.1843
406.3502	0.1829
406.5558	0.1914
406.7613	0.1812
406.9668	0.1827
407.1724	0.1932
407.3778	0.1825
407.5833	0.1642
407.7888	0.186
407.9942	0.184
408.1997	0.1855
408.4051	0.1844
408.6105	0.154
408.8159	0.1891
409.0213	0.1791
409.2267	0.1771
409.432	0.1838
409.6374	0.1708
409.8427	0.1648
410.048	0.1743
410.2533	0.1809
410.4586	0.1538
410.6639	0.1886
410.8691	0.1596
411.0744	0.1671
411.2796	0.1772
411.4848	0.1869
411.69	0.1883
411.8952	0.1865
412.1004	0.1615
412.3056	0.1748
412.5107	0.165
412.7158	0.1723
412.921	0.1898
413.1261	0.1815
413.3312	0.1703
413.5362	0.1712
413.7413	0.185
413.9464	0.1869
414.1514	0.18
414.3564	0.1541
414.5614	0.1625
414.7664	0.1887
414.9714	0.1657
415.1764	0.1816
415.3813	0.1709
415.5863	0.1655
415.7912	0.1774
415.9961	0.1801
416.201	0.1783
416.4059	0.1651
416.6108	0.1718
416.8156	0.1792
417.0205	0.1711
417.2253	0.1822
417.4301	0.1679
417.6349	0.1596
417.8397	0.15
418.0445	0.1615
418.2492	0.168
418.454	0.157
418.6587	0.1752
418.8634	0.1768
419.0681	0.1849
419.2728	0.1467
419.4775	0.1825
419.6822	0.161
419.8868	0.1669
420.0915	0.1459
420.2961	0.1635
420.5007	0.1504
420.7053	0.1604
420.9099	0.1681
421.1144	0.183
421.319	0.1548
421.5235	0.1729
421.728	0.1513
421.9325	0.1632
422.137	0.143
422.3415	0.1534
422.546	0.1445
422.7504	0.1686
422.9549	0.1607
423.1593	0.1672
423.3637	0.1614
423.5681	0.1552
423.7725	0.1509
423.9769	0.1417
424.1812	0.1579
424.3856	0.151
424.5899	0.1696
424.7942	0.1636
424.9985	0.1581
425.2028	0.1412
425.4071	0.1396
425.6113	0.1361
425.8156	0.1479
426.0198	0.149
426.224	0.1554
426.4282	0.1674
426.6324	0.154
426.8366	0.1511
427.0407	0.1509
427.2449	0.1483
427.449	0.1338
427.6531	0.1286
427.8572	0.1273
428.0613	0.1503
428.2654	0.1155
428.4694	0.1347
428.6735	0.1325
428.8775	0.1322
429.0815	0.1356
429.2855	0.1336
429.4895	0.1318
429.6935	0.1288
429.8975	0.1108
430.1014	0.1269
430.3053	0.1248
430.5093	0.1385
430.7132	0.1136
430.9171	0.1174
431.1209	0.1218
431.3248	0.1334
431.5286	0.1157
431.7325	0.1344
431.9363	0.1151
432.1401	0.1204
432.3439	0.108
432.5477	0.1229
432.7514	0.113
432.9552	0.0978
433.1589	0.1092
433.3627	0.1017
433.5664	0.1072
433.7701	0.1021
433.9737	0.09
434.1774	0.0962
434.3811	0.0984
434.5847	0.1019
434.7883	0.108
434.9919	0.1016
435.1955	0.0771
435.3991	0.0889
435.6027	0.0877
435.8062	0.0896
436.0098	0.1026
436.2133	0.0687
436.4168	0.0901
436.6203	0.0865
436.8238	0.0621
437.0272	0.0729
437.2307	0.0982
437.4341	0.0792
437.6375	0.0889
437.841	0.0809
438.0443	0.0841
438.2477	0.075
438.4511	0.0695
438.6545	0.079
438.8578	0.0818
439.0611	0.0665
439.2644	0.0674
439.4677	0.0651
439.671	0.0601
439.8743	0.0558
440.0775	0.0739
440.2808	0.0519
440.484	0.052
440.6872	0.0584
440.8904	0.0689
441.0936	0.0562
441.2967	0.0486
441.4999	0.0484
441.703	0.0612
441.9062	0.0528
442.1093	0.0531
442.3124	0.0673
442.5155	0.0526
442.7185	0.0652
442.9216	0.0424
443.1246	0.0485
443.3276	0.0593
443.5307	0.074
443.7337	0.0534
443.9366	0.0467
444.1396	0.0433
444.3426	0.0315
444.5455	0.0577
444.7484	0.0384
444.9513	0.0412
445.1542	0.043
445.3571	0.0423
445.56	0.0484
445.7628	0.0397
445.9657	0.0273
446.1685	0.0515
446.3713	0.0413
446.5741	0.0433
446.7769	0.0526
446.9797	0.0353
447.1824	0.0251
447.3852	0.0596
447.5879	0.0409
447.7906	0.0429
447.9933	0.0385
448.196	0.0521
448.3986	0.0392
448.6013	0.0151
448.8039	0.0295
449.0066	0.0308
449.2092	0.038
449.4118	0.0298
449.6143	0.0233
449.8169	0.0264
450.0195	0.0177
450.222	0.0167
450.4245	0.0121
450.627	0.0183
450.8295	0.0227
451.032	0.0076
451.2345	0.0114
451.4369	0.0317
451.6394	0.027
451.8418	0.008
452.0442	0.0021
452.2466	0.007
452.449	0.0095
452.6513	0.0185
452.8537	0.0368
453.056	-0.0018
453.2583	0.0139
453.4607	0.0079
453.663	0.0138
453.8652	0.0179
454.0675	0.0058
454.2697	0.0062
454.472	0.0213
454.6742	0.0156
454.8764	0.0098
455.0786	-0.0108
455.2808	0.0018
455.4829	0.0365
455.6851	0.0196
455.8872	0.023
456.0893	0.0166
456.2915	0.0181
456.4935	0.0029
456.6956	0.0085
456.8977	0.0081
457.0997	0.0218
457.3018	0.023
457.5038	0.0038
457.7058	0.0027
457.9078	0.008
458.1098	0.0086
458.3117	0.0236
458.5137	0.0146
458.7156	-0.0008
458.9175	-0.003
459.1194	0.0047
459.3213	0.008
459.5232	-0.0056
459.725	-0.0039
459.9269	0.0043
460.1287	0.0109
460.3305	-0.0067
460.5323	0.0076
460.7341	0.0079
460.9359	0.0119
461.1376	0.0114
461.3394	0.0038
461.5411	0.0051
461.7428	0.0131
461.9445	-0.0041
462.1462	0.0102
462.3479	0.0004
462.5495	0.0049
462.7512	0.0105
462.9528	0.0019
463.1544	0.0039
463.356	0.004
463.5576	0.0019
463.7592	-0.0087
463.9607	0.0125
464.1623	-0.0126
464.3638	0.013
464.5653	-0.0132
464.7668	0.0108
464.9683	0.0121
465.1697	0.0212
465.3712	0
465.5726	0.0146
465.7741	0.0131
465.9755	-0.0084
466.1769	-0.0006
466.3782	0.0137
466.5796	0.0067
466.7809	-0.0042
466.9823	-0.0036
467.1836	0.0161
467.3849	0.0117
467.5862	0.0135
467.7875	0.0014
467.9887	0.006
468.19	0.0058
468.3912	0.0115
468.5924	-0.0048
468.7936	0.0118
468.9948	-0.0143
469.196	-0.0075
469.3972	0.0049
469.5983	-0.0002
469.7994	-0.004
470.0006	-0.0233
470.2017	0.0065
470.4027	-0.013
470.6038	0.0014
470.8049	0.0074
471.0059	-0.012
471.2069	-0.0024
471.408	-0.0119
471.6089	-0.016
471.8099	0.0105
472.0109	-0.0001
472.2119	0.0149
472.4128	-0.0069
472.6137	0.0089
472.8146	-0.013
473.0155	-0.0078
473.2164	-0.0116
473.4173	0.0088
473.6181	-0.0006
473.819	-0.006
474.0198	-0.0078
474.2206	-0.0045
474.4214	0
474.6222	-0.0021
474.8229	-0.0072
475.0237	-0.012
475.2244	0.0001
475.4251	-0.004
475.6258	0.0012
475.8265	-0.0063
476.0272	-0.0124
476.2278	-0.0126
476.4285	-0.0032
476.6291	-0.0004
476.8297	0.0126
477.0303	-0.0061
477.2309	-0.0012
477.4315	-0.0109
477.632	-0.0135
477.8326	-0.0092
478.0331	-0.0163
478.2336	-0.0203
478.4341	-0.0013
478.6346	0
478.8351	-0.003
479.0355	-0.0231
479.236	-0.0137
479.4364	0.0001
479.6368	0.0065
479.8372	0.0016
480.0376	-0.0108
480.2379	-0.0015
480.4383	0.0024
480.6386	0.0021
480.8389	-0.017
481.0392	0.0038
481.2395	-0.0026
481.4398	-0.013
481.6401	-0.0092
481.8403	0.005
482.0405	-0.011
482.2408	-0.0156
482.441	-0.0187
482.6411	-0.0104
482.8413	-0.0085
483.0415	0.0005
483.2416	-0.0058
483.4417	-0.0039
483.6419	-0.0126
483.8419	-0.0127
484.042	-0.0018
484.2421	-0.0043
484.4422	-0.0052
484.6422	0.0055
484.8422	0.0011
485.0422	-0.0005
485.2422	-0.0029
485.4422	0.0002
485.6422	-0.0077
485.8421	-0.0032
486.042	0.0034
486.242	-0.008
486.4419	-0.0081
486.6417	0.0091
486.8416	-0.0087
487.0415	-0.0058
487.2413	0.0072
487.4411	0.0085
487.641	-0.0043
487.8408	-0.0029
488.0405	-0.0133
488.2403	0
488.4401	0.0056
488.6398	-0.007
488.8395	-0.0064
489.0392	0.0015
489.2389	-0.0198
489.4386	-0.0086
489.6383	-0.0069
489.8379	-0.0016
490.0376	0.0045
490.2372	-0.0093
490.4368	-0.013
490.6364	-0.0074
490.836	-0.0085
491.0355	-0.0015
491.2351	-0.0095
491.4346	-0.0045
491.6341	0.008
491.8336	-0.0103
492.0331	-0.0087
492.2326	-0.0104
492.432	-0.0028
492.6315	-0.0012
492.8309	0.001
493.0303	-0.0042
493.2297	-0.0066
493.4291	-0.0017
493.6284	-0.0283
493.8278	-0.0002
494.0271	-0.0014
494.2264	-0.0019
494.4257	0.0057
494.625	-0.0085
494.8243	0.0021
495.0236	-0.0076
495.2228	-0.0145
495.422	-0.0081
495.6213	-0.0055
495.8205	-0.0076
496.0196	-0.0167
496.2188	-0.0027
496.418	-0.0004
496.6171	-0.0176
496.8162	-0.0125
497.0153	0.0024
497.2144	-0.0077
497.4135	-0.0073
497.6126	-0.0149
497.8116	-0.0096
498.0107	0.0007
498.2097	-0.0051
498.4087	-0.0273
498.6077	-0.0156
498.8067	0.0012
499.0056	-0.0082
499.2046	-0.0019
499.4035	-0.0159
499.6024	-0.0107
499.8013	-0.0059
500.0002	-0.0123
500.199	-0.0043
500.3979	-0.0004
500.5967	-0.0141
500.7956	-0.0087
500.9944	-0.0122
501.1932	-0.0059
501.3919	-0.0105
501.5907	-0.0054
501.7895	-0.011
501.9882	-0.0089
502.1869	-0.012
502.3856	-0.0181
502.5843	-0.0092
502.783	0.0029
502.9816	0.0066
503.1803	-0.0122
503.3789	-0.0119
503.5775	-0.0181
503.7761	-0.0069
503.9747	-0.0114
504.1732	-0.008
504.3718	0.0085
504.5703	0.0017
504.7689	-0.0203
504.9674	-0.005
505.1658	-0.0005
505.3643	-0.0087
505.5628	-0.0011
505.7612	0.0003
505.9597	-0.0117
506.1581	0.0107
506.3565	-0.005
506.5549	0.0054
506.7532	-0.0011
506.9516	-0.0026
507.1499	-0.0082
507.3482	-0.0037
507.5465	-0.0032
507.7448	-0.0047
507.9431	-0.0027
508.1414	-0.0052
508.3396	-0.0138
508.5379	-0.003
508.7361	-0.0159
508.9343	-0.0072
509.1325	0.0074
509.3306	-0.0152
509.5288	-0.0015
509.7269	0.0059
509.9251	-0.0091
510.1232	-0.0101
510.3213	0.0048
510.5193	-0.0085
510.7174	-0.0033
510.9154	-0.0086
511.1135	-0.0153
511.3115	-0.006
511.5095	-0.0036
511.7075	0.0029
511.9055	-0.014
512.1034	-0.0009
512.3014	-0.0052
512.4993	0.0066
512.6972	-0.0018
512.8951	0.0007
513.093	-0.0106
513.2908	-0.0095
513.4887	-0.0021
513.6865	0.0054
513.8844	-0.0052
514.0822	0.0054
514.2799	-0.0113
514.4777	-0.0014
514.6755	0.0037
514.8732	-0.0054
515.0709	-0.0004
515.2687	0.0007
515.4664	0.0018
515.664	-0.0048
515.8617	0.0054
516.0594	-0.0046
516.257	-0.002
516.4546	-0.0125
516.6522	-0.0049
516.8498	-0.0083
517.0474	0.0027
517.2449	-0.0029
517.4425	0.005
517.64	-0.0083
517.8375	-0.0097
518.035	-0.0059
518.2325	-0.0185
518.43	-0.0059
518.6274	-0.0008
518.8249	0.0083
519.0223	0.0031
519.2197	0.0049
519.4171	0.0011
519.6145	-0.0013
519.8118	-0.0074
520.0092	-0.0064
520.2065	-0.0072
520.4038	-0.009
520.6011	-0.0021
520.7984	0.0008
520.9956	0.0022
521.1929	-0.0191
521.3901	-0.0002
521.5874	-0.0113
521.7846	-0.0008
521.9818	0.0043
522.1789	0.0023
522.3761	-0.0001
522.5732	-0.0121
522.7704	-0.0042
522.9675	-0.0055
523.1646	-0.001
523.3617	-0.0013
523.5587	0.0088
523.7558	-0.0071
523.9528	0.003
524.1498	-0.0016
524.3468	-0.0064
524.5438	0.0089
524.7408	-0.0053
524.9378	0.0213
525.1347	0.002
525.3316	-0.0006
525.5285	-0.0039
525.7254	0.0036
525.9223	0.0059
526.1192	-0.0064
526.316	0.0019
526.5129	0.0021
526.7097	-0.0073
526.9065	0.0064
527.1033	-0.0026
527.3	-0.0026
527.4968	-0.0082
527.6935	0.0015
527.8903	0.0066
528.087	-0.0005
528.2837	0.0037
528.4804	0.01
528.677	0.0029
528.8737	-0.0019
529.0703	-0.0103
529.2669	-0.006
529.4635	0.0018
529.6601	-0.0022
529.8567	0.0107
530.0532	0.0128
530.2498	-0.0012
530.4463	-0.0008
530.6428	-0.0018
530.8393	0.0056
531.0358	0.0051
531.2322	0.0079
531.4287	-0.0019
531.6251	0.0102
531.8215	-0.0059
532.0179	0.006
532.2143	0.0049
532.4107	-0.0073
532.607	-0.0002
532.8034	-0.0038
532.9997	0.0069
533.196	-0.0013
533.3923	-0.0086
533.5886	-0.0014
533.7848	0.0045
533.9811	0.005
534.1773	-0.01
534.3735	-0.0041
534.5697	-0.0031
534.7659	-0.0065
534.9621	-0.0005
535.1582	0.0054
535.3544	-0.0041
535.5505	0.0043
535.7466	0.0082
535.9427	0.002
536.1387	0.0069
536.3348	-0.0061
536.5308	-0.0039
536.7269	0.0038
536.9229	0.0078
537.1189	-0.002
537.3148	-0.0089
537.5108	0.0092
537.7068	-0.0085
537.9027	-0.0074
538.0986	-0.0013
538.2945	-0.008
538.4904	0.0072
538.6863	0.0067
538.8821	0.0008
539.078	-0.0059
539.2738	0.0096
539.4696	-0.0086
539.6654	0.0033
539.8611	0.0023
540.0569	-0.008
540.2526	0.0023
540.4484	-0.0002
540.6441	-0.0027
540.8398	-0.0004
541.0355	0.0048
541.2311	0.0012
541.4268	0.0026
541.6224	-0.0002
541.818	0.0045
542.0136	-0.0024
542.2092	0.0016
542.4048	0.0142
542.6003	0.001
542.7959	0.0066
542.9914	0.0002
543.1869	-0.0005
543.3824	-0.0051
543.5779	0.0068
543.7734	0.0029
543.9688	0.0029
544.1642	-0.0098
544.3596	-0.0096
544.555	0.0049
544.7504	0.007
544.9458	0.0007
545.1411	-0.0001
545.3365	0.0037
545.5318	0.0055
545.7271	0.0052
545.9224	0.0032
546.1177	-0.005
546.3129	0.0001
546.5081	-0.0027
546.7034	0.0013
546.8986	-0.0005
547.0938	-0.0024
547.289	-0.0046
547.4841	0.0027
547.6793	0.0047
547.8744	0.0036
548.0695	-0.0004
548.2646	-0.0122
548.4597	-0.0002
548.6548	-0.0034
548.8498	0.0064
549.0448	-0.0033
549.2399	0.005
549.4349	-0.004
549.6298	0.0067
549.8248	0.0056
550.0198	0.0058
550.2147	0.0078
550.4096	0.0003
550.6045	-0.0124
550.7994	0.0025
550.9943	0.0063
551.1892	-0.0084
551.384	-0.0019
551.5788	0.0044
551.7737	-0.0023
551.9685	0.0111
552.1632	-0.0034
552.358	-0.0004
552.5528	-0.0015
552.7475	-0.0096
552.9422	0.011
553.1369	-0.0039
553.3316	-0.0005
553.5263	0.0077
553.7209	-0.0016
553.9156	-0.0031
554.1102	-0.0069
554.3048	-0.0061
554.4994	0.0012
554.694	0.0054
554.8885	0.0022
555.0831	0.0068
555.2776	0.0041
555.4721	0.0087
555.6666	0.0019
555.8611	-0.0006
556.0555	0.01
556.25	0.0078
556.4444	0.0098
556.6388	0.0055
556.8332	0
557.0276	0.0101
557.222	-0.0036
557.4163	0.0043
557.6107	0.0167
557.805	0.0024
557.9993	0.0002
558.1936	0.0068
558.3879	0.0064
558.5821	0.0099
558.7764	0.0027
558.9706	0.0028
559.1648	0.0074
559.359	0.0078
559.5532	-0.0016
559.7473	0.0089
559.9415	0.0036
560.1356	0.004
560.3297	-0.0087
560.5238	0.0092
560.7179	0.0124
560.9119	-0.0035
561.106	0.006
561.3	-0.0003
561.494	0.0068
561.688	0.0054
561.882	0.0122
562.076	-0.0005
562.2699	0.0028
562.4639	0.0027
562.6578	-0.0027
562.8517	0.0015
563.0456	0.0038
563.2395	0.0069
563.4333	-0.002
563.6272	0.0026
563.821	-0.0159
564.0148	0.0022
564.2086	-0.0088
564.4024	-0.005
564.5961	0.0056
564.7899	0.0003
564.9836	0.0099
565.1773	0.0128
565.371	0.007
565.5647	-0.0033
565.7584	-0.0015
565.952	0.0028
566.1456	0.0039
566.3393	0.0039
566.5329	-0.0024
566.7264	0.0132
566.92	0.0088
567.1136	0.0108
567.3071	-0.0014
567.5006	0.0012
567.6941	0.0076
567.8876	0.0019
568.0811	0.005
568.2745	0.001
568.468	0.0054
568.6614	0.0009
568.8548	0.008
569.0482	0.0067
569.2416	0.0051
569.4349	0.0022
569.6283	0.0052
569.8216	0.0071
570.0149	0.0067
570.2082	0.0098
570.4015	0.0011
570.5947	-0.0003
570.788	0.0098
570.9812	0.0116
571.1744	0.0046
571.3676	0.0055
571.5608	-0.002
571.754	0.0019
571.9471	-0.0033
572.1402	0.0028
572.3333	0.0002
572.5264	-0.0037
572.7195	-0.0043
572.9126	0.0151
573.1057	0.0065
573.2987	0.0019
573.4917	-0.0013
573.6847	0.0036
573.8777	0.0012
574.0707	0.0084
574.2636	0.0047
574.4566	0.0056
574.6495	0.0048
574.8424	0.0014
575.0353	0.0021
575.2281	0.0002
575.421	-0.0003
575.6138	-0.001
575.8067	-0.0025
575.9995	0.007
576.1923	0.0047
576.385	0.0074
576.5778	-0.0063
576.7706	0.0042
576.9633	0.0038
577.156	0.0085
577.3487	0.0053
577.5414	0.0064
577.734	-0.0076
577.9267	-0.0042
578.1193	0.0125
578.3119	0.0015
578.5045	0.0062
578.6971	0.0022
578.8897	-0.0001
579.0822	0.0015
579.2747	-0.0008
579.4673	0.0019
579.6598	0.0119
579.8522	0.0094
580.0447	-0.0066
580.2372	0.0037
580.4296	0.006
580.622	0.0064
580.8144	0.0078
581.0068	0.007
581.1992	0.0043
581.3915	0.0057
581.5839	0.0056
581.7762	0.0033
581.9685	-0.002
582.1608	0.0041
582.353	-0.0054
582.5453	-0.0025
582.7375	-0.0048
582.9298	-0.0006
583.122	0.0078
583.3142	0.0062
583.5063	0.0015
583.6985	0.001
583.8906	-0.0028
584.0827	0.0072
584.2749	-0.0016
584.4669	-0.0029
584.659	-0.0009
584.8511	-0.0016
585.0431	0.0036
585.2352	-0.004
585.4272	-0.0017
585.6192	0.0056
585.8111	-0.0037
586.0031	0.0003
586.195	0.0044
586.387	0.0028
586.5789	-0.0068
586.7708	-0.002
586.9627	-0.002
587.1545	0.0076
587.3464	0.0062
587.5382	-0.0088
587.73	0.0069
587.9218	0.0033
588.1136	0.0055
588.3053	-0.0017
588.4971	-0.001
588.6888	0.0004
588.8805	0.0015
589.0722	0.0061
589.2639	0.0035
589.4556	-0.0052
589.6472	-0.0009
589.8389	0.0033
590.0305	0.0096
590.2221	0.0102
590.4137	0.0036
590.6052	0.0017
590.7968	0.0049
590.9883	0.0072
591.1798	-0.0055
591.3713	0.0039
591.5628	0.0018
591.7543	0.0129
591.9458	0.0073
592.1372	0.0017
592.3286	0.0032
592.52	-0.0001
592.7114	0.005
592.9028	0.0028
593.0941	0.0012
593.2855	-0.0013
593.4768	-0.002
593.6681	-0.0056
593.8594	-0.0019
594.0506	-0.009
594.2419	0.0021
594.4331	0.0032
594.6244	-0.0017
594.8156	0.0035
595.0067	-0.0055
595.1979	-0.0045
595.3891	-0.0019
595.5802	0.0022
595.7713	-0.0109
595.9624	0.0054
596.1535	0.0013
596.3446	0.0096
596.5357	0.0012
596.7267	-0.0047
596.9177	0.0057
597.1087	0.0099
597.2997	0.0054
597.4907	-0.0042
597.6817	0.0007
597.8726	0.0135
598.0635	0.0003
598.2544	0.0087
598.4453	0.0061
598.6362	-0.002
598.827	0.0108
599.0179	0.0004
599.2087	-0.0011
599.3995	0.0102
599.5903	0.0002
599.7811	0.0052
599.9718	-0.0003
600.1626	0.0022
600.3533	0.0016
600.544	0.0053
600.7347	0.0092
600.9254	0.0003
601.116	-0.0005
601.3067	0.0024
601.4973	0.0033
601.6879	0.0028
601.8785	0.0068
602.0691	0.0008
602.2596	0.0074
602.4502	-0.0033
602.6407	-0.0048
602.8312	-0.002
603.0217	0.0045
603.2122	-0.0061
603.4027	0.0009
603.5931	0.0034
603.7835	0.0072
603.9739	0.0084
604.1643	0.0065
604.3547	-0.0004
604.5451	0.0059
604.7354	-0.0031
604.9257	0.0054
605.116	-0.0012
605.3063	0.0051
605.4966	0.0036
605.6869	0.0119
605.8771	0.0039
606.0673	0.0017
606.2575	0.0028
606.4477	-0.0061
606.6379	0.0069
606.8281	0.0002
607.0182	0.0027
607.2083	0.0056
607.3985	0.0096
607.5885	-0.0039
607.7786	0.0023
607.9687	0.0028
608.1587	0.0058
608.3488	0.003
608.5388	0.0068
608.7288	0.007
608.9187	-0
609.1087	-0.0016
609.2986	-0.0019
609.4886	-0.004
609.6785	0.0103
609.8684	0.0055
610.0582	0.0096
610.2481	0.0018
610.4379	-0.0036
610.6278	-0.0031
610.8176	0.0083
611.0074	-0.0001
611.1971	-0.0004
611.3869	0.0019
611.5766	-0.0029
611.7664	0.0065
611.9561	0.0043
612.1458	0.006
612.3354	0.0087
612.5251	0.0033
612.7147	-0.0022
612.9044	0.0005
613.094	0.0039
613.2836	0.0123
613.4731	0.0082
613.6627	0.0037
613.8522	0.0061
614.0417	0.0067
614.2313	0.0002
614.4207	0.0143
614.6102	0.0046
614.7997	0.0004
614.9891	0.0054
615.1785	0.003
615.3679	0.0092
615.5573	0.0065
615.7467	0.0053
615.9361	-0.0005
616.1254	0.0084
616.3147	0.0016
616.504	0.0047
616.6933	0.0074
616.8826	0.0061
617.0718	0.0004
617.2611	0.0052
617.4503	0.0122
617.6395	0.0126
617.8287	0.0143
618.0179	0.0044
618.207	0.0073
618.3961	0.0116
618.5853	0.0108
618.7744	0.0076
618.9634	0.0026
619.1525	0.0087
619.3416	0.0074
619.5306	0.0122
619.7196	-0.0038
619.9086	0.002
620.0976	0.0074
620.2866	0.0072
620.4755	0.01
620.6645	0.0138
620.8534	0.0058
621.0423	0.0049
621.2312	0.0093
621.42	0.0121
621.6089	0.0118
621.7977	0.0078
621.9865	0.0119
622.1753	0.0169
622.3641	0.0082
622.5529	0.0096
622.7416	0.0099
622.9303	0.012
623.1191	0.01
623.3078	0.0054
623.4964	0.0093
623.6851	0.0161
623.8737	0.0089
624.0624	0.0025
624.251	0.0062
624.4396	0.0076
624.6282	0.0097
624.8167	0.0104
625.0053	-0.0034
625.1938	0.0067
625.3823	0.0048
625.5708	0.0056
625.7593	0.0077
625.9477	0.0096
626.1362	0.0054
626.3246	0.0105
626.513	0.001
626.7014	0.0065
626.8898	-0.0001
627.0781	0.0109
627.2665	0.0073
627.4548	0.0042
627.6431	0.0064
627.8314	0.0082
628.0197	0.005
628.2079	0.0101
628.3962	0.001
628.5844	0.0059
628.7726	0.0001
628.9608	0.0064
629.1489	0.0035
629.3371	0.0129
629.5252	0.0025
629.7134	-0.0018
629.9015	0.0078
630.0895	0.0034
630.2776	0.0011
630.4657	0.0099
630.6537	0.0047
630.8417	0.0111
631.0297	0.0156
631.2177	0.0146
631.4057	0.0113
631.5936	0.0028
631.7815	0.0147
631.9695	0.0104
632.1574	0.0065
632.3452	0.0128
632.5331	-0.0017
632.7209	0.0101
632.9088	0.0009
633.0966	0.0026
633.2844	0.0058
633.4722	0.0113
633.6599	0.0112
633.8477	0.0135
634.0354	0.0031
634.2231	0.0089
634.4108	0.011
634.5985	0.0006
634.7861	0.0136
634.9738	0.0175
635.1614	0.0153
635.349	0.0013
635.5366	0.0026
635.7242	0.0165
635.9117	0.0094
636.0993	0.0141
636.2868	0.0086
636.4743	-0.0063
636.6618	0.0113
636.8492	0.0206
637.0367	0.0063
637.2241	0.0083
637.4115	0.0068
637.5989	0.0136
637.7863	0.0038
637.9737	0.0105
638.161	0.0115
638.3484	0.0101
638.5357	0.0061
638.723	0.006
638.9103	0.0053
639.0975	0.0105
639.2848	0.0052
639.472	0.0007
639.6592	0.0042
639.8464	0.0042
640.0336	0.0138
640.2208	-0.0058
640.4079	0.0038
640.595	0.0034
640.7821	0.0077
640.9692	0.0105
641.1563	0.0074
641.3434	0.0091
641.5304	0.0087
641.7174	0.0154
641.9044	0.0031
642.0914	0.006
642.2784	-0.0004
642.4653	0.0054
642.6523	0.0005
642.8392	0.0058
643.0261	0.0037
643.213	-0.0023
643.3999	0.0003
643.5867	0.0056
643.7735	0.0072
643.9604	0.0058
644.1472	0.0068
644.3339	0
644.5207	0.0041
644.7075	-0.005
644.8942	0.0088
645.0809	0.0056
645.2676	0.0026
645.4543	0.0087
645.6409	0.0101
645.8276	0.003
646.0142	0.0023
646.2008	0.0156
646.3874	0.0132
646.574	0.0088
646.7605	0.0059
646.9471	0.014
647.1336	0.0158
647.3201	0.0125
647.5066	0.0002
647.6931	-0.0076
647.8795	-0.0002
648.0659	0.0059
648.2524	0.0037
648.4388	0.0033
648.6252	0.0016
648.8115	0.0045
648.9979	0.0093
649.1842	0.0062
649.3705	-0.0049
649.5568	0.005
649.7431	0.0073
649.9294	0.0102
650.1156	0.0067
650.3018	0.0087
650.488	0.0065
650.6742	0.0085
650.8604	0.0057
651.0466	0.0107
651.2327	0.0143
651.4188	0.0084
651.6049	0.0184
651.791	0.0107
651.9771	0.0078
652.1632	0.0127
652.3492	0.0114
652.5352	0.0042
652.7212	0.0054
652.9072	-0.0012
653.0932	-0.0005
653.2791	0.0038
653.465	0.0085
653.651	0.0055
653.8369	0.011
654.0227	0.0064
654.2086	0.0122
654.3944	0.0038
654.5803	0.0054
654.7661	0.0048
654.9519	-0.0046
655.1377	-0.0013
655.3234	-0.0021
655.5092	-0.0022
655.6949	-0.0061
655.8806	-0.0076
656.0663	-0.0033
656.2519	-0.0005
656.4376	-0.0029
656.6232	-0.0028
656.8088	0.0096
656.9945	0.0064
657.18	0.0012
657.3656	0.0039
657.5511	-0.004
657.7367	0.0014
657.9222	0.0088
658.1077	0.0099
658.2932	0.0007
658.4786	0.0028
658.6641	0.0014
658.8495	0.0069
659.0349	0.0058
659.2203	-0.0011
659.4057	0.0007
659.591	0.0108
659.7764	-0.001
659.9617	0.0001
660.147	0.0057
660.3323	-0.0014
660.5176	-0.0017
660.7028	0.0018
660.888	0.008
661.0733	0.0133
661.2585	0.0131
661.4436	0.0087
661.6288	0.01
661.8139	0.0032
661.9991	-0.0032
662.1842	0.0016
662.3693	-0.0017
662.5544	0.0083
662.7394	0.0049
662.9245	0.0078
663.1095	0.0151
663.2945	0.0104
663.4795	0.0133
663.6644	0.0111
663.8494	0.0015
664.0343	0.0042
664.2193	0.0165
664.4042	0.0147
664.589	0.0027
664.7739	0.0106
664.9587	0.0058
665.1436	0.0029
665.3284	-0.0005
665.5132	0.0023
665.698	0.0087
665.8827	0.0155
666.0675	0.0029
666.2522	0.0086
666.4369	-0.0028
666.6216	0.014
666.8063	0.0067
666.9909	0.0056
667.1756	0.0081
667.3602	0.006
667.5448	0.0117
667.7294	0.008
667.9139	0.0033
668.0985	0.0094
668.283	-0.0024
668.4675	-0.0015
668.652	0.0151
668.8365	0.003
669.0209	0.0081
669.2054	0.0059
669.3898	0.0046
669.5742	0.0105
669.7586	0.0054
669.943	0.006
670.1273	0.0075
670.3117	0.001
670.496	0.0033
670.6803	0.012
670.8646	0.001
671.0488	0.0118
671.2331	0.0133
671.4173	0.0046
671.6015	0.0039
671.7857	0.0076
671.9699	0.0058
672.1541	0.0045
672.3382	0.0131
672.5223	0.0146
672.7064	0.0098
672.8905	0.0083
673.0746	0.0099
673.2587	0.0063
673.4427	0.0089
673.6267	0.0068
673.8107	0.0155
673.9947	0.0107
674.1787	0.0103
674.3626	0.0109
674.5465	0.0078
674.7304	0.0117
674.9143	0.0105
675.0982	0.0014
675.2821	0.0039
675.4659	0.0115
675.6497	0.0015
675.8335	0.0118
676.0173	0.0026
676.2011	0.0084
676.3849	0.0095
676.5686	0.0139
676.7523	0.0133
676.936	-0.0011
677.1197	0.0091
677.3034	0.0057
677.487	0.0124
677.6706	0.0208
677.8542	0.0084
678.0378	0.0067
678.2214	0.0018
678.405	0.018
678.5885	0.0154
678.772	0.0119
678.9555	0.0052
679.139	0.0124
679.3225	0.0075
679.5059	0.0168
679.6894	0.007
679.8728	0.0043
680.0562	0.0096
680.2395	0.0084
680.4229	0.0004
680.6062	0.0014
680.7896	0.0077
680.9729	0.0031
681.1562	0.012
681.3394	0.006
681.5227	0.017
681.7059	0.0053
681.8891	0.0075
682.0723	0.0031
682.2555	0.0063
682.4387	0.0042
682.6218	0.0069
682.805	0.011
682.9881	0.0066
683.1712	0.0129
683.3542	0.0002
683.5373	0.0062
683.7203	0.0098
683.9034	0.0149
684.0864	0.0092
684.2694	0.0119
684.4523	0.003
684.6353	0.0099
684.8182	0.0008
685.0011	0.0044
685.184	0.0031
685.3669	0.0023
685.5498	0.0015
685.7326	0.0033
685.9154	0.0097
686.0982	0.0035
686.281	0.0074
686.4638	0.0022
686.6465	0.0066
686.8293	0.0081
687.012	0.007
687.1947	0.0035
687.3774	0.0104
687.56	0.0014
687.7427	0.0157
687.9253	0.0057
688.1079	0.0114
688.2905	-0.003
688.4731	0.0131
688.6556	0.0101
688.8382	0.0041
689.0207	0.0053
689.2032	0.0051
689.3857	0.01
689.5681	0.0054
689.7506	-0.0058
689.933	0.0107
690.1154	0.0018
690.2978	-0.0052
690.4802	0.0063
690.6626	0.0088
690.8449	0.0158
691.0272	0.0025
691.2095	0.0102
691.3918	0.0074
691.5741	0.0135
691.7563	0.0061
691.9386	0.0082
692.1208	0.0021
692.303	0.016
692.4852	0.008
692.6673	0.0119
692.8495	0.0112
693.0316	0.0113
693.2137	0.0104
693.3958	-0.0002
693.5778	0.0169
693.7599	0.0167
693.9419	0.0056
694.1239	0.0141
694.3059	0.0145
694.4879	0.01
694.6699	0.0066
694.8518	0.0068
695.0337	0.003
695.2157	0.0123
695.3975	0.0009
695.5794	0.0079
695.7613	0.0043
695.9431	0.0166
696.1249	0.0093
696.3067	-0.0006
696.4885	0.0066
696.6703	0.0139
696.852	0.0098
697.0337	0.0149
697.2154	0.0132
697.3971	0.0102
697.5788	0.0139
697.7605	0.002
697.9421	-0.0013
698.1237	0.0158
698.3053	0.0116
698.4869	0.0128
698.6685	0.0074
698.85	0.0122
699.0315	0.0113
699.213	0.0067
699.3945	0.0065
699.576	0.0223
699.7575	0.0153
699.9389	0.0179
700.1203	0.0118
700.3017	0.0061
700.4831	-0.0016
700.6645	0.0051
700.8458	0.0142
701.0271	0.0067
701.2084	0.0073
701.3897	0.0035
701.571	-0.0002
701.7523	-0.0051
701.9335	-0.0005
702.1147	0.011
702.2959	-0.0043
702.4771	0.0058
702.6583	-0.0033
702.8394	0.0056
703.0205	0.0081
703.2016	0.009
703.3827	0.0023
703.5638	0.0134
703.7449	0.0103
703.9259	-0.0012
704.1069	0.0052
704.2879	0.0036
704.4689	0.0039
704.6499	-0.0025
704.8308	0.0072
705.0117	0.0099
705.1927	0.01
705.3735	0.0065
705.5544	-0.0037
705.7353	0.0058
705.9161	0.009
706.0969	0.0106
706.2777	0.0124
706.4585	0.0043
706.6393	0.0107
706.82	0.0065
707.0007	0.0053
707.1815	-0.0021
707.3621	0.0075
707.5428	0.0152
707.7235	0.0058
707.9041	0.0039
708.0847	0.0145
708.2653	0.004
708.4459	0.0055
708.6265	0.0208
708.807	0.0128
708.9875	0.0162
709.168	0.0132
709.3485	0.0083
709.529	0.0024
709.7095	0.0094
709.8899	0.009
710.0703	0.0127
710.2507	-0.0021
710.4311	0.0159
710.6115	0.0102
710.7918	0.0088
710.9721	0.0069
711.1524	-0.0016
711.3327	0.0078
711.513	-0.003
711.6932	0.0024
711.8735	0.0076
712.0537	-0.0014
712.2339	-0.0076
712.4141	-0.0025
712.5942	-0.0023
712.7744	0.0073
712.9545	0.003
713.1346	0.0037
713.3147	-0.0011
713.4947	-0.0015
713.6748	-0.0003
713.8548	0.0112
714.0348	0.0128
714.2148	-0.0031
714.3948	-0.0032
714.5748	0.0039
714.7547	0.0049
714.9346	0.0042
715.1145	0.0075
715.2944	0.0069
715.4743	0.0062
715.6541	0.0192
715.834	0.0045
716.0138	0.0076
716.1936	0.0071
716.3733	0.007
716.5531	0.0092
716.7328	0.0084
716.9126	0.0029
717.0923	0.013
717.2719	0.0122
717.4516	0.0046
717.6312	0.0047
717.8109	0.0016
717.9905	0.0034
718.1701	-0.0039
718.3496	0.008
718.5292	0.002
718.7087	-0.0084
718.8882	-0.0063
719.0677	0.012
719.2472	0.0057
719.4267	0.0083
719.6061	-0.0039
719.7856	0.0058
719.965	0.0141
720.1443	0.0072
720.3237	0.0077
720.5031	0.0033
720.6824	0.0057
720.8617	0.0082
721.041	-0.0004
721.2203	0.0063
721.3995	0.0134
721.5788	0.0099
721.758	-0.001
721.9372	0.0155
722.1164	0.0088
722.2956	0.0101
722.4747	0.0088
722.6538	0.0007
722.8329	0.0095
723.012	-0.0044
723.1911	-0.001
723.3702	0.0051
723.5492	0.0071
723.7282	0.0052
723.9072	0.0068
724.0862	0.013
724.2652	0.0098
724.4441	-0.0051
724.623	0.01
724.8019	-0.0061
724.9808	0.0023
725.1597	0.0006
725.3385	0.0099
725.5174	0.0029
725.6962	-0.0055
725.875	-0.0094
726.0538	0.003
726.2325	0.0048
726.4112	-0.0032
726.59	0.0086
726.7687	0.0022
726.9474	0.0005
727.126	-0.0021
727.3047	-0.0013
727.4833	0.0033
727.6619	-0.0006
727.8405	-0.0068
728.0191	0
728.1976	0.0026
728.3762	-0.0012
728.5547	-0.0016
728.7332	-0.0013
728.9116	-0.006
729.0901	0.0008
729.2686	0.0017
729.447	0.0015
729.6254	0.0066
729.8038	0.0058
729.9821	0.0137
730.1605	0.0008
730.3388	0.0076
730.5171	0.0003
730.6954	0.0133
730.8737	0.0073
731.0519	0.0035
731.2302	0.0028
731.4084	-0.0003
731.5866	0.0063
731.7648	0.0038
731.9429	-0.0016
732.1211	0.0022
732.2992	0.0134
732.4773	0.0019
732.6554	-0.0017
732.8335	-0.0001
733.0115	-0.0036
733.1896	0.0036
733.3676	-0.0003
733.5456	0.0029
733.7235	-0.0031
733.9015	0.0039
734.0794	0.0057
734.2574	0.0069
734.4353	0.0075
734.6131	0.0072
734.791	0.0093
734.9689	0.0182
735.1467	0.0007
735.3245	0.0012
735.5023	0.006
735.68	0.0163
735.8578	0.0122
736.0355	0.0043
736.2132	0.0067
736.3909	0.006
736.5686	0.0146
736.7463	0.012
736.9239	0.0109
737.1015	0.0156
737.2791	0.0093
737.4567	-0.001
737.6343	0.0102
737.8118	0.0094
737.9894	0.0025
738.1669	0.0074
738.3444	0.0043
738.5218	0.0082
738.6993	0.0096
738.8767	0.0028
739.0541	0.0028
739.2315	0.0014
739.4089	0.0085
739.5863	0.008
739.7636	0.0004
739.9409	0.0004
740.1182	0.0096
740.2955	0.0104
740.4728	0.0088
740.65	0.0005
740.8272	-0.007
741.0044	-0.0083
741.1816	0.0027
741.3588	0.0113
741.5359	0.0047
741.7131	0.0063
741.8902	0.0023
742.0673	0.0132
742.2444	-0.0019
742.4214	0.0001
742.5985	0.0085
742.7755	0.0019
742.9525	0.0083
743.1295	0.0046
743.3064	0.0092
743.4834	0.0047
743.6603	-0.0037
743.8372	-0.0128
744.0141	0.0062
744.191	0.0113
744.3678	-0.0033
744.5446	-0.0021
744.7215	0.0236
744.8982	0.0091
745.075	0.003
745.2518	-0.0034
745.4285	-0.0071
745.6052	-0.0026
745.7819	-0.0078
745.9586	0.0082
746.1353	0.0054
746.3119	0.0069
746.4885	-0.0016
746.6651	-0.0006
746.8417	0.0095
747.0183	0.0007
747.1948	0.0029
747.3714	0.0065
747.5479	-0.0033
747.7244	0.0093
747.9008	0.0102
748.0773	0.0021
748.2537	0.006
748.4301	-0.0034
748.6065	0.0019
748.7829	0.0015
748.9593	0.0005
749.1356	0.0063
749.3119	0.0098
749.4882	0.0058
749.6645	0.0068
749.8408	0.0109
750.017	0.0062
750.1933	0.0083
750.3695	0.0165
750.5457	0.0027
750.7218	0.0088
750.898	0.0115
751.0741	0.0168
751.2502	0.012
751.4263	0.0051
751.6024	0.0007
751.7784	0.0058
751.9545	0.001
752.1305	0.0062
752.3065	0.0077
752.4825	-0.0024
752.6584	0.0111
752.8344	-0.0041
753.0103	0.0037
753.1862	0.0044
753.3621	0.0017
753.5379	0.0061
753.7138	0.0044
753.8896	0.0077
754.0654	0.0029
754.2412	0.0037
754.417	0.0069
754.5927	0.0037
754.7685	0.003
754.9442	0.0009
755.1199	0.0093
755.2956	0.015
755.4712	-0.0016
755.6469	0.002
755.8225	0.0089
755.9981	0.0075
756.1736	-0.005
756.3492	0.0123
756.5248	0.0098
756.7003	0.0057
756.8758	0.0159
757.0513	0.008
757.2267	0.0059
757.4022	0.0058
757.5776	0.0025
757.753	-0.0017
757.9284	0.0146
758.1038	-0.0145
758.2791	0.012
758.4545	0.0088
758.6298	0.0065
758.8051	0.0013
758.9803	0.0086
759.1556	-0.0004
759.3308	0.0046
759.506	0.0108
759.6812	0.0175
759.8564	0.002
760.0316	0.0115
760.2067	0.0053
760.3819	0.0042
760.557	0.0103
760.732	0.0146
760.9071	0.0112
761.0821	0.0127
761.2572	0.0108
761.4322	0.0029
761.6072	0.0116
761.7821	0.0101
761.9571	0.004
762.132	0.0044
762.3069	0.0166
762.4818	0.0041
762.6567	-0.0009
762.8316	0.0042
763.0064	-0.0037
763.1812	0.0097
763.356	0.0058
763.5308	0.0044
763.7055	-0.0047
763.8803	0.0125
764.055	0.0009
764.2297	0.0054
764.4044	0.0038
764.579	-0.0013
764.7537	-0.0032
764.9283	0.0066
765.1029	0.0036
765.2775	-0.001
765.4521	-0.008
765.6266	0.0051
765.8011	0.0102
765.9756	0.0024
766.1501	0.0018
766.3246	0.0015
766.4991	0.0093
766.6735	-0.0082
766.8479	0.0063
767.0223	-0.0124
767.1967	0.0052
767.371	-0.008
767.5454	0.0017
767.7197	0.0111
767.894	0.005
768.0683	0.0094
768.2425	0.0062
768.4168	-0.0033
768.591	0.0036
768.7652	0.0059
768.9394	-0.001
769.1135	0.0118
769.2877	0.0012
769.4618	0.0043
769.6359	0.0083
769.81	0.0026
769.984	-0.0011
770.1581	-0.0001
770.3321	0.0147
770.5061	-0.0025
770.6801	0.0049
770.8541	0.0115
771.028	0.0149
771.202	0.0053
771.3759	-0.0001
771.5498	0.0131
771.7236	0.0033
771.8975	0.0079
772.0713	0.0043
772.2451	0.0127
772.4189	0.0077
772.5927	0.0065
772.7665	-0.0018
772.9402	0.007
773.1139	0.0033
773.2876	-0.0047
773.4613	0.0031
773.635	0.0151
773.8086	-0.0109
773.9822	0.0035
774.1558	0.0162
774.3294	0.0077
774.503	0
774.6765	0.0127
774.8501	-0.0018
775.0236	0.0056
775.1971	0.0172
775.3705	0.0213
775.544	0.0151
775.7174	-0.0007
775.8908	0.0208
776.0642	0.0027
776.2376	0.0038
776.4109	0.0068
776.5843	-0.0001
776.7576	0.005
776.9309	0.0215
777.1041	0.0126
777.2774	0.0126
777.4506	0.0081
777.6238	-0.0025
777.797	0.0223
777.9702	0.0062
778.1434	0.0154
778.3165	0.0099
778.4896	0.0005
778.6627	0.0137
778.8358	0.0083
779.0089	0.0063
779.1819	0.0081
779.3549	0.0108
779.5279	0.0138
779.7009	0.0087
779.8739	-0.0034
780.0468	0.002
780.2197	0.0115
780.3926	0.0038
780.5655	0.0066
780.7384	0.0017
780.9112	0.0076
781.0841	-0.0046
781.2569	-0.0093
781.4297	-0.0137
781.6024	0
781.7752	-0.0064
781.9479	0.0012
782.1206	0.007
782.2933	0.0062
782.466	0.0028
782.6386	0.0125
782.8113	-0.0165
782.9839	0.0013
783.1565	-0.0015
783.329	0.0018
783.5016	-0.0049
783.6741	0.0115
783.8466	0.0051
784.0191	-0.007
784.1916	0.0083
784.3641	0.0057
784.5365	0.0095
784.7089	0.0164
784.8813	0.0026
785.0537	-0.0128
785.2261	-0.0003
785.3984	0.0057
785.5707	0.0154
785.743	0.0188
785.9153	-0.0013
786.0876	0.0107
786.2598	-0.0108
786.432	0.011
786.6042	0.0064
786.7764	0.0094
786.9486	0.0123
787.1207	0.0118
787.2928	0.0138
787.4649	0.0028
787.637	0.0031
787.8091	-0.004
787.9811	0.0002
788.1532	-0.0015
788.3252	-0.0057
788.4972	-0.0041
788.6691	0.0025
788.8411	-0.0155
789.013	0.008
789.1849	0.0134
789.3568	0.0155
789.5287	0.0093
789.7005	0.017
789.8723	0.0094
790.0442	0.0148
790.2159	0.0074
790.3877	0.0148
790.5595	0.0207
790.7312	-0.004
790.9029	0.0104
791.0746	0.0077
791.2463	0.0118
791.4179	0.0166
791.5896	0.0151
791.7612	0.0213
791.9328	-0.0006
792.1044	0.0056
792.2759	0.0124
792.4474	0.0043
792.619	0.0033
792.7905	0.0319
792.9619	0.0167
793.1334	0.0182
793.3048	0.0225
793.4762	0.0147
793.6476	-0.0089
793.819	0.024
793.9904	0.0095
794.1617	-0.0017
794.333	0.0089
794.5043	0.0172
794.6756	0.0035
794.8469	-0.0001
795.0181	0.0202
795.1893	0.0037
795.3605	0.0144
795.5317	-0.0067
795.7029	0.0003
795.874	0.0103
796.0452	0.0012
796.2163	0.0254
796.3873	0.0059
796.5584	0.0182
796.7294	0
796.9005	-0.0034
797.0715	0.006
797.2425	-0.003
797.4134	0.0091
797.5844	0.006
797.7553	0.0038
797.9262	0.0137
798.0971	0.0213
798.2679	0.0052
798.4388	0.0087
798.6096	-0.009
798.7804	0.0141
798.9512	0.018
799.122	0.0078
799.2927	0.0098
799.4635	0.0194
799.6342	0.0352
799.8049	0.0054
799.9755	0.0161
800.1462	0.0166
800.3168	0.0236
800.4874	-0.0045
800.658	0.0151
800.8286	0.0176
800.9991	0.0192
801.1696	0.0046
801.3402	0.0123
801.5106	0.017
801.6811	0.0016
801.8516	-0.0017
802.022	-0.0031
802.1924	0.0047
802.3628	0.0179
802.5332	0.0207
802.7035	0.0097
802.8739	0.0162
803.0442	0.0012
803.2145	-0.0014
803.3847	-0.0076
803.555	0.021
803.7252	0.0325
803.8954	0.0126
804.0656	0.0032
804.2358	0.0173
804.4059	0.0314
804.5761	0.0102
804.7462	0.0075
804.9163	0.0038
805.0864	0.0013
805.2564	-0.0107
805.4264	0.0165
805.5965	0.0124
805.7665	0.0023
805.9364	-0.0101
806.1064	0.0152
806.2763	0.0253
806.4462	0.0197
806.6161	0.0147
806.786	0.0078
806.9559	0.0337
807.1257	0.0196
807.2955	0.0304
807.4653	0.029
807.6351	0.0099
807.8048	0.0016
807.9746	0.0017
808.1443	0.0111
808.314	0.0201
808.4837	0.0261
808.6533	0.004
808.8229	0.0332
808.9926	0.0164
809.1622	0.0275
809.3317	0.0182
809.5013	0.0401
809.6708	0
809.8403	0.0176
810.0098	0.015
810.1793	0.0189
810.3488	-0.0044
810.5182	0.0138
810.6876	0.0166
810.857	0.0116
811.0264	-0.0005
811.1958	-0.0046
811.3651	0.0008
811.5344	0.0289
811.7037	0.0132
811.873	0.0164
812.0422	0.0088
812.2115	0.0061
812.3807	0.0243
812.5499	0.0047
812.7191	0.0318
812.8882	0.0304
813.0574	0.0213
813.2265	0.0367
813.3956	0.0185
813.5646	-0.002
813.7337	0.0077
813.9027	0.0105
814.0718	0.0328
814.2407	0.0204
814.4097	0.015
814.5787	0.0172
814.7476	0.0133
814.9165	0.0063
815.0854	-0.0028
815.2543	0.0098
815.4232	0.027
815.592	0.017
815.7608	0.0364
815.9296	0.0051
816.0984	0.0177
816.2671	0.0043
816.4359	0.0036
816.6046	0.0027
816.7733	0.0009
816.942	-0.0092
817.1106	0.0132
817.2793	0.0068
817.4479	0.0086
817.6165	0.0031
817.785	0.0201
817.9536	0.0133
818.1221	0.0013
818.2906	0.0076
818.4591	0.0138
818.6276	0.0082
818.7961	-0.0018
818.9645	0.0168
819.1329	0.0341
819.3013	-0.0009
819.4697	0.0532
819.638	0.0127
819.8064	-0.0043
819.9747	0.0018
820.143	0.014
820.3113	-0.0111
820.4795	-0.0019
820.6477	-0.002
820.816	-0.0285
820.9842	-0.0049
821.1523	0.0253
821.3205	-0.0173
821.4886	-0.004
821.6567	0.001
821.8248	0.0203
821.9929	0.0108
822.1609	-0.034
822.329	0.0179
822.497	-0.0167
822.665	-0.0136
822.833	-0.015
823.0009	-0.0237
823.1688	-0.0172
823.3367	0.0225
823.5046	-0.0195
823.6725	-0.0374
823.8404	-0.0015
824.0082	0.0107
824.176	0.0435
824.3438	0.0178
824.5116	0.0039
824.6793	-0.0128
824.847	0.0219
825.0147	0.0198
825.1824	-0.012
825.3501	-0.0029
825.5177	-0.041
825.6854	-0.0101
825.853	0.0409
826.0206	0.0082
826.1881	0.0128
826.3557	0.0418
826.5232	-0.004
826.6907	0.0127
826.8582	0.0225
827.0257	0.0201
827.1931	0.0336
827.3605	0.0377
827.528	0.0189
827.6953	0.0438
827.8627	0.0071
828.03	0.0271
828.1974	0.0685
828.3647	0.0094
828.532	-0.0147
828.6992	0.0549
828.8665	0.0442
829.0337	0.0527
829.2009	0.0359
829.3681	0.0206
829.5352	0.0056
829.7024	0.0415
829.8695	0.0063
830.0366	0.0359
830.2037	-0.014
830.3707	0.039
830.5378	-0.0235
830.7048	-0.0086
830.8718	0.0052
831.0388	-0.0233
831.2057	0.0253
831.3727	0.0104
831.5396	0.0267
831.7065	-0.0258
831.8734	-0.0063
832.0402	-0.0253
832.2071	0.017
832.3739	0.0242
832.5407	0.0721
832.7075	-0.0031
832.8742	-0.029
833.041	-0.0044
833.2077	0.0028
833.3744	0.0292
833.541	0.0328
833.7077	0.0486
833.8743	0.0608
834.0409	0.0634
834.2075	0.0505
834.3741	0.0598
834.5407	-0.0049
834.7072	-0.0272
834.8737	-0.0108
835.0402	0.0121
835.2067	0.0069
835.3731	0.0025
835.5395	0.0037
835.706	0.0484
835.8723	-0.0432
836.0387	-0.0048
836.2051	-0.0164
836.3714	-0.0326
836.5377	-0.0562
836.704	-0.0245
836.8703	0.0271
837.0365	-0.0258
837.2027	-0.002
837.3689	0.0014
837.5351	0.016
837.7013	-0.0396
837.8674	0.031
838.0335	0.0097
838.1997	-0.0163
838.3657	0.0513
838.5318	0.0015
838.6978	0.0277
838.8639	-0.0343
839.0299	0.0388
839.1958	0.0088
839.3618	-0.0187
839.5277	-0.0067
839.6937	0.0141
839.8596	-0.013
840.0254	0.0147
840.1913	0.0336
840.3571	0.0323
840.523	0.0089
840.6888	-0.0168
840.8545	-0.0169
841.0203	0.0725
841.186	0.0549
841.3517	0.0085
841.5174	-0.0071
841.6831	0.0297
841.8488	0.0307
842.0144	0.0239
842.18	-0.0083
842.3456	0.0086
842.5112	0.0158
842.6767	0.0454
842.8422	0.0295
843.0077	0.0175
843.1732	-0.0076
843.3387	-0.0133
843.5042	0.0171
843.6696	0.03
843.835	-0.0062
844.0004	-0.0125
844.1657	-0.008
844.3311	-0.02
844.4964	0.0194
844.6617	-0.0292
844.827	0.0473
844.9923	0.0224
845.1575	0.0154
845.3227	0.0281
845.4879	0.0169
845.6531	0.0201
845.8183	-0.0173
845.9834	0.023
846.1485	-0.0037
846.3136	0.0422
846.4787	0.0473
846.6438	0.0476
846.8088	-0.0687
846.9738	-0.0013
847.1388	0.0577
847.3038	0.0207
847.4687	0.0476
847.6337	-0.0702
847.7986	0.0258
847.9635	0.0156
848.1284	-0.004
848.2932	0.0794
848.458	0.0341
848.6228	0.1577
848.7876	-0.0129
848.9524	-0.0326
849.1172	-0.011
849.2819	-0.0136
849.4466	0.0413
849.6113	0.0465
849.7759	-0.0085
849.9406	0.0617
850.1052	-0.0859
850.2698	0.0547
850.4344	0.0131
850.599	-0.0219
850.7635	0.0098
850.928	0.0297
851.0925	0.0107
851.257	0.134
851.4215	0.0255
851.5859	0.0432
851.7503	-0.1256
851.9147	0.1031
852.0791	0.0795
852.2434	0.1341
852.4078	0.0068
852.5721	0.1184
852.7364	-0.0405
852.9007	-0.1793
853.0649	0.0109
853.2291	0.1364
853.3934	0.1045
853.5575	0.0778
853.7217	0.0667
853.8859	-0.0205
854.05	0.0399
854.2141	0.0897
854.3782	-0.0279
854.5423	0.1335
854.7063	0.0574
854.8703	-0.0827
855.0343	0.1645
855.1983	0.0445
855.3623	-0.0508
855.5262	-0.0105
855.6901	-0.1029
855.854	-0.1023
856.0179	0.14
856.1818	0.0857
856.3456	0.0052
856.5094	0.2097
856.6732	0.1545
856.837	0.2121
857.0008	-0.2883
857.1645	0.0514
857.3282	0.2005
857.4919	-0.0235
857.6556	0.1288
857.8192	0.0061
857.9828	0.1034
858.1465	-0.0307
858.31	-0.0565
858.4736	0.1435
858.6372	0.0194
858.8007	-0.1866
858.9642	0.1395
859.1277	-0.0506
859.2911	-0.0107
859.4546	0.1601
859.618	-0.455
859.7814	0.1568
859.9448	0.0859
860.1081	-0.0194
860.2715	0.214
860.4348	0.1532
860.5981	0.1456
860.7614	0.0833
860.9246	0.3851
861.0879	-0.0554
861.2511	0.2691
861.4143	0.4448
861.5774	-0.1223
861.7406	-0.062
861.9037	-0.0996
862.0668	0.0599
862.2299	0.0721
862.393	0.1774
862.556	0.0874
862.7191	0.5076
862.8821	-0.0325
863.0451	-0.3264
863.208	0.1314
863.371	-0.2115
863.5339	0.1523
863.6968	0.4361
863.8597	0.1502
864.0225	-0.023
864.1854	0.2392
864.3482	0.7315
864.511	0.1961
864.6737	0.0725
864.8365	-0.0248
864.9992	-0.2398
865.1619	0.386
865.3246	0.0756
865.4873	0.0818
865.65	-0.2526
865.8126	0.3695
865.9752	0.2297
866.1378	0.4523
866.3004	-0
866.4629	0.3482
866.6254	0.8939
866.7879	-0.169
866.9504	0.3598
867.1129	0.0482
867.2753	0.08
867.4377	-0.1543
867.6001	0.3928
867.7625	0.0284
867.9249	-0.4992
868.0872	0.3519
868.2495	-0
868.4118	0.1654
868.5741	0.1213
868.7363	0.2458
868.8986	-0.0951
869.0608	-0.2472
869.223	-0.0204
869.3851	-0.0578
869.5473	0.0009
869.7094	0.1441
869.8715	-0
870.0336	0.4185
870.1957	-0
870.3577	0.1338
870.5197	-0
870.6817	-0
870.8437	0.2783
871.0057	0.7251
871.1676	-0.3032
871.3295	-1.2237
871.4914	-0
871.6533	-0.1403
871.8151	-0.1062
871.977	-0.157
872.1388	0.5652
872.3006	1.4629
872.4623	-0
872.6241	-0
872.7858	0.2203
872.9475	0.1498
873.1092	0.1801
873.2709	-0
873.4325	-0
873.5941	-0.1525
873.7557	-0
873.9173	-0
874.0789	0.6489
874.2404	-0
874.4019	0.0335
874.5634	-0.0724
874.7249	0.328
874.8863	-0.2003
875.0478	0.4679
875.2092	0.0582
875.3706	-0.1821
875.5319	0.5006
875.6933	-0
875.8546	-0.1206
876.0159	0.2154
876.1772	-0
876.3385	-0.2674
876.4997	0.0707
876.6609	-0
876.8221	0.1395
876.9833	-0.973
877.1445	-0
877.3056	-0.168
877.4667	0.4274
877.6278	-0.0285
877.7889	-0
877.9499	-0.138
878.111	-0.6929
878.272	0.3916
878.433	0.129
878.5939	0.648
878.7549	0.1849
878.9158	0.0387
879.0767	-0.0746
879.2376	0.2723
879.3984	-0
879.5593	-0.0475
879.7201	0.6181
879.8809	-0.1961
880.0417	-0.0635
880.2024	-0.6185
880.3632	1.2319
880.5239	-0
880.6846	0.132
880.8452	0.3592
881.0059	-0.3429
881.1665	-0
881.3271	-0.6334
881.4877	-0
881.6483	-0.2192
881.8088	-0.1019
881.9693	-0
882.1298	-0
882.2903	-0
