Data from MonoPyChalIsomerACN10uM400nmA_Absorbance_12-08-42-828.txt Node
Date: Fri Jul 05 12:08:42 BST 2024
User: LASERRRRR
Spectrometer: FLMT03099
Trigger mode: 0
Integration Time (sec): 1.000000E-1
Scans to average: 1
Electric dark correction enabled: true
Nonlinearity correction enabled: false
Boxcar width: 0
XAxis mode: Wavelengths
Number of Pixels in Spectrum: 3648
>>>>>Begin Spectral Data<<<<<
179.3399	0.138
179.5586	0.138
179.7771	0.138
179.9957	0.0968
180.2143	-0
180.4329	-0
180.6514	-1.1646
180.8699	-0
181.0885	-0.2275
181.307	0.4828
181.5255	-0.472
181.744	-0
181.9625	-0
182.181	-0.088
182.3994	-0.0184
182.6179	0.0599
182.8363	-0.3541
183.0547	1.292
183.2732	0.0828
183.4916	0.1253
183.71	0.0838
183.9284	0.2171
184.1467	0.2063
184.3651	-0.102
184.5835	0.2159
184.8018	-0.0589
185.0201	0.1971
185.2385	0.2504
185.4568	0.2173
185.6751	0.121
185.8934	-0.0877
186.1117	0.0516
186.3299	0.0074
186.5482	0.1566
186.7664	0.2373
186.9847	0.0474
187.2029	0.0553
187.4211	-0.1155
187.6393	0.0227
187.8575	0.5841
188.0757	-0.0262
188.2939	0.0538
188.512	0.1298
188.7302	-0.0758
188.9483	0.154
189.1665	-0.0504
189.3846	0.0249
189.6027	0.2095
189.8208	0.3086
190.0389	0.2151
190.257	0.1177
190.475	0.3107
190.6931	0.4416
190.9111	0.4585
191.1292	0.3355
191.3472	0.5799
191.5652	0.0771
191.7832	0.6447
192.0012	0.4012
192.2192	0.4026
192.4371	0.374
192.6551	0.4012
192.873	0.5281
193.091	0.711
193.3089	0.444
193.5268	1.0725
193.7447	0.4451
193.9626	0.6406
194.1805	0.56
194.3984	0.4526
194.6162	0.522
194.8341	0.4433
195.0519	0.9461
195.2697	0.7839
195.4875	0.8451
195.7054	0.6869
195.9231	0.5278
196.1409	0.359
196.3587	0.5764
196.5765	0.5688
196.7942	0.8288
197.012	0.8958
197.2297	0.5806
197.4474	0.6797
197.6651	0.6878
197.8828	0.8789
198.1005	0.8824
198.3182	0.7143
198.5358	0.7016
198.7535	0.768
198.9711	0.613
199.1888	0.6247
199.4064	0.7702
199.624	0.649
199.8416	0.8187
200.0592	0.7355
200.2767	0.6125
200.4943	0.8613
200.7119	0.667
200.9294	0.6185
201.1469	0.9745
201.3645	0.6035
201.582	0.7193
201.7995	0.7951
202.017	0.8413
202.2344	0.7558
202.4519	0.6868
202.6694	0.8309
202.8868	0.7815
203.1042	0.776
203.3217	0.8514
203.5391	0.8085
203.7565	0.6996
203.9739	0.8472
204.1913	0.8265
204.4086	0.7568
204.626	0.8045
204.8433	0.8446
205.0607	0.8059
205.278	0.8038
205.4953	0.812
205.7126	0.6288
205.9299	1.0347
206.1472	0.7535
206.3644	0.6531
206.5817	0.7317
206.7989	0.7023
207.0162	0.7777
207.2334	0.6852
207.4506	0.7821
207.6678	0.8408
207.885	0.7381
208.1022	0.8685
208.3194	0.7364
208.5365	0.8304
208.7537	0.7905
208.9708	0.7894
209.1879	0.8124
209.405	0.7036
209.6222	0.88
209.8392	0.8498
210.0563	0.8712
210.2734	0.7737
210.4905	0.8289
210.7075	0.7994
210.9245	0.8406
211.1416	0.7896
211.3586	0.8795
211.5756	0.7526
211.7926	0.7655
212.0096	0.6521
212.2265	0.7422
212.4435	0.7112
212.6604	0.7589
212.8774	0.776
213.0943	0.6737
213.3112	0.7358
213.5281	0.6633
213.745	0.7148
213.9619	0.6646
214.1788	0.6652
214.3956	0.6971
214.6125	0.6521
214.8293	0.7299
215.0461	0.6848
215.2629	0.6198
215.4798	0.6105
215.6965	0.6788
215.9133	0.6272
216.1301	0.6123
216.3469	0.6416
216.5636	0.6325
216.7803	0.5997
216.9971	0.6469
217.2138	0.6484
217.4305	0.6121
217.6472	0.6112
217.8639	0.6075
218.0805	0.6099
218.2972	0.5723
218.5138	0.5718
218.7305	0.5648
218.9471	0.5536
219.1637	0.5964
219.3803	0.5397
219.5969	0.5568
219.8135	0.6011
220.0301	0.5679
220.2466	0.5707
220.4632	0.5519
220.6797	0.5658
220.8962	0.5636
221.1127	0.6051
221.3292	0.5335
221.5457	0.5799
221.7622	0.5526
221.9787	0.5636
222.1951	0.5423
222.4116	0.5307
222.628	0.5917
222.8444	0.5609
223.0608	0.5854
223.2772	0.5109
223.4936	0.584
223.71	0.5688
223.9264	0.5662
224.1427	0.5433
224.3591	0.5974
224.5754	0.5697
224.7917	0.5439
225.008	0.577
225.2243	0.5613
225.4406	0.5855
225.6569	0.5519
225.8732	0.5892
226.0894	0.5486
226.3057	0.5743
226.5219	0.5487
226.7381	0.5863
226.9543	0.6047
227.1705	0.5594
227.3867	0.5581
227.6029	0.5388
227.8191	0.5605
228.0352	0.5624
228.2513	0.5478
228.4675	0.6054
228.6836	0.5943
228.8997	0.5628
229.1158	0.5795
229.3319	0.5776
229.548	0.5861
229.764	0.6393
229.9801	0.5784
230.1961	0.6038
230.4121	0.5766
230.6282	0.5572
230.8442	0.566
231.0602	0.5543
231.2761	0.5579
231.4921	0.5882
231.7081	0.5517
231.924	0.6068
232.14	0.5786
232.3559	0.5815
232.5718	0.6147
232.7877	0.5932
233.0036	0.5859
233.2195	0.554
233.4353	0.5909
233.6512	0.5753
233.867	0.5792
234.0829	0.5773
234.2987	0.6082
234.5145	0.5583
234.7303	0.5667
234.9461	0.5751
235.1619	0.5639
235.3776	0.582
235.5934	0.584
235.8091	0.5762
236.0249	0.5567
236.2406	0.5666
236.4563	0.5819
236.672	0.5611
236.8877	0.5507
237.1034	0.5495
237.319	0.533
237.5347	0.5691
237.7503	0.5559
237.966	0.5547
238.1816	0.5732
238.3972	0.6064
238.6128	0.5459
238.8284	0.5323
239.0439	0.5598
239.2595	0.5457
239.475	0.5416
239.6906	0.5361
239.9061	0.5144
240.1216	0.5614
240.3371	0.535
240.5526	0.521
240.7681	0.4963
240.9836	0.5898
241.199	0.4893
241.4145	0.4911
241.6299	0.4995
241.8453	0.4959
242.0607	0.5124
242.2761	0.4932
242.4915	0.4619
242.7069	0.4555
242.9223	0.4521
243.1376	0.4417
243.353	0.4409
243.5683	0.4243
243.7836	0.4117
243.9989	0.423
244.2142	0.4058
244.4295	0.3939
244.6448	0.375
244.86	0.3817
245.0753	0.3779
245.2905	0.3815
245.5057	0.3644
245.721	0.3493
245.9362	0.3549
246.1514	0.3585
246.3665	0.3327
246.5817	0.3331
246.7969	0.3123
247.012	0.3206
247.2271	0.3285
247.4423	0.2989
247.6574	0.3003
247.8725	0.3032
248.0876	0.2926
248.3026	0.2821
248.5177	0.307
248.7328	0.2994
248.9478	0.2843
249.1628	0.2684
249.3779	0.2626
249.5929	0.2662
249.8079	0.2389
250.0228	0.262
250.2378	0.2428
250.4528	0.2578
250.6677	0.236
250.8827	0.2456
251.0976	0.2398
251.3125	0.2451
251.5274	0.237
251.7423	0.2442
251.9572	0.2145
252.172	0.2272
252.3869	0.2325
252.6017	0.2417
252.8166	0.2028
253.0314	0.2012
253.2462	0.2187
253.461	0.2179
253.6758	0.1964
253.8906	0.2148
254.1053	0.1891
254.3201	0.2073
254.5348	0.223
254.7496	0.2173
254.9643	0.1979
255.179	0.1957
255.3937	0.1985
255.6083	0.199
255.823	0.1831
256.0377	0.1827
256.2523	0.2009
256.467	0.1953
256.6816	0.2023
256.8962	0.1946
257.1108	0.1975
257.3254	0.1939
257.54	0.1939
257.7545	0.1867
257.9691	0.1975
258.1836	0.1867
258.3981	0.186
258.6127	0.1973
258.8272	0.1856
259.0417	0.1898
259.2561	0.1796
259.4706	0.1956
259.6851	0.187
259.8995	0.1946
260.114	0.1829
260.3284	0.1874
260.5428	0.1787
260.7572	0.2002
260.9716	0.188
261.186	0.198
261.4003	0.1843
261.6147	0.2014
261.829	0.1962
262.0433	0.1877
262.2577	0.1859
262.472	0.2
262.6863	0.195
262.9005	0.1761
263.1148	0.1869
263.3291	0.2
263.5433	0.1823
263.7576	0.1956
263.9718	0.1755
264.186	0.1782
264.4002	0.2008
264.6144	0.187
264.8286	0.1882
265.0427	0.1916
265.2569	0.1825
265.471	0.1872
265.6851	0.1791
265.8993	0.1924
266.1134	0.1759
266.3275	0.1807
266.5415	0.1885
266.7556	0.1989
266.9697	0.1885
267.1837	0.1898
267.3978	0.1875
267.6118	0.1796
267.8258	0.197
268.0398	0.1854
268.2538	0.1974
268.4677	0.1909
268.6817	0.177
268.8957	0.1814
269.1096	0.1795
269.3235	0.1729
269.5374	0.1785
269.7514	0.1707
269.9652	0.1867
270.1791	0.1812
270.393	0.1842
270.6068	0.1683
270.8207	0.1905
271.0345	0.1651
271.2483	0.1686
271.4622	0.1736
271.676	0.1841
271.8897	0.1713
272.1035	0.1669
272.3173	0.1832
272.531	0.173
272.7448	0.1606
272.9585	0.1711
273.1722	0.18
273.3859	0.1761
273.5996	0.1745
273.8133	0.177
274.0269	0.1798
274.2406	0.1737
274.4542	0.1737
274.6679	0.1686
274.8815	0.1769
275.0951	0.1786
275.3087	0.1788
275.5223	0.163
275.7358	0.184
275.9494	0.1684
276.1629	0.1635
276.3765	0.1815
276.59	0.1704
276.8035	0.1746
277.017	0.1734
277.2305	0.1908
277.444	0.1748
277.6574	0.165
277.8709	0.1643
278.0843	0.1802
278.2978	0.1767
278.5112	0.1918
278.7246	0.175
278.938	0.1813
279.1513	0.1732
279.3647	0.1788
279.5781	0.1767
279.7914	0.18
280.0047	0.1878
280.2181	0.1875
280.4314	0.1756
280.6447	0.2024
280.8579	0.1851
281.0712	0.1892
281.2845	0.1836
281.4977	0.1922
281.711	0.1815
281.9242	0.1806
282.1374	0.1665
282.3506	0.1818
282.5638	0.1797
282.7769	0.1856
282.9901	0.175
283.2033	0.1801
283.4164	0.178
283.6295	0.1816
283.8426	0.1845
284.0557	0.1846
284.2688	0.1828
284.4819	0.1816
284.695	0.1764
284.908	0.1872
285.1211	0.1907
285.3341	0.1906
285.5471	0.2019
285.7601	0.1815
285.9731	0.1889
286.1861	0.19
286.3991	0.1782
286.612	0.1885
286.825	0.1892
287.0379	0.1946
287.2508	0.1838
287.4637	0.1893
287.6766	0.186
287.8895	0.1773
288.1024	0.1857
288.3152	0.1898
288.5281	0.1863
288.7409	0.1822
288.9538	0.1868
289.1666	0.1885
289.3794	0.1804
289.5922	0.1779
289.8049	0.1765
290.0177	0.1801
290.2304	0.1808
290.4432	0.1726
290.6559	0.1916
290.8686	0.1911
291.0813	0.1754
291.294	0.1902
291.5067	0.18
291.7194	0.1841
291.932	0.1863
292.1447	0.1883
292.3573	0.1798
292.5699	0.1973
292.7825	0.1772
292.9951	0.2008
293.2077	0.1922
293.4203	0.1834
293.6328	0.1881
293.8454	0.1685
294.0579	0.1959
294.2704	0.1867
294.4829	0.1925
294.6954	0.1792
294.9079	0.1838
295.1204	0.1937
295.3328	0.1732
295.5453	0.1836
295.7577	0.1725
295.9701	0.1799
296.1825	0.1765
296.3949	0.1695
296.6073	0.179
296.8197	0.1753
297.0321	0.1842
297.2444	0.1721
297.4567	0.1725
297.6691	0.1805
297.8814	0.1828
298.0937	0.1785
298.306	0.175
298.5182	0.1835
298.7305	0.1893
298.9428	0.1827
299.155	0.1818
299.3672	0.1707
299.5794	0.1745
299.7916	0.1735
300.0038	0.174
300.216	0.1916
300.4282	0.1743
300.6403	0.1774
300.8525	0.1827
301.0646	0.175
301.2767	0.184
301.4888	0.1841
301.7009	0.1688
301.913	0.1677
302.125	0.1797
302.3371	0.186
302.5491	0.1677
302.7612	0.1745
302.9732	0.172
303.1852	0.1803
303.3972	0.1693
303.6092	0.1786
303.8211	0.1662
304.0331	0.1587
304.245	0.1586
304.457	0.1713
304.6689	0.1606
304.8808	0.1613
305.0927	0.164
305.3046	0.1556
305.5164	0.1669
305.7283	0.1611
305.9401	0.1502
306.152	0.1551
306.3638	0.1516
306.5756	0.1588
306.7874	0.1522
306.9992	0.1517
307.2109	0.1505
307.4227	0.1544
307.6344	0.1553
307.8462	0.148
308.0579	0.1452
308.2696	0.1447
308.4813	0.1369
308.693	0.1497
308.9046	0.1399
309.1163	0.1361
309.328	0.126
309.5396	0.1357
309.7512	0.1212
309.9628	0.1324
310.1744	0.1367
310.386	0.1248
310.5976	0.129
310.8091	0.1299
311.0207	0.1185
311.2322	0.1206
311.4437	0.1206
311.6552	0.124
311.8667	0.1187
312.0782	0.1242
312.2897	0.1066
312.5012	0.1223
312.7126	0.1199
312.924	0.1092
313.1355	0.127
313.3469	0.1195
313.5583	0.1059
313.7696	0.1155
313.981	0.1184
314.1924	0.1208
314.4037	0.1006
314.6151	0.1097
314.8264	0.1086
315.0377	0.1099
315.249	0.1095
315.4603	0.1081
315.6716	0.1063
315.8828	0.0965
316.0941	0.1019
316.3053	0.1004
316.5165	0.1136
316.7277	0.1042
316.9389	0.1093
317.1501	0.1114
317.3613	0.095
317.5724	0.1162
317.7836	0.1017
317.9947	0.1132
318.2058	0.1152
318.417	0.1038
318.6281	0.1055
318.8391	0.0977
319.0502	0.1047
319.2613	0.1124
319.4723	0.1093
319.6834	0.0999
319.8944	0.1086
320.1054	0.1081
320.3164	0.1131
320.5274	0.1008
320.7383	0.0984
320.9493	0.0874
321.1602	0.1189
321.3712	0.0929
321.5821	0.1125
321.793	0.1144
322.0039	0.1026
322.2148	0.0953
322.4257	0.1021
322.6365	0.1072
322.8474	0.0966
323.0582	0.1067
323.269	0.1145
323.4798	0.1001
323.6906	0.0881
323.9014	0.1144
324.1122	0.1106
324.3229	0.1162
324.5337	0.116
324.7444	0.1244
324.9551	0.1129
325.1658	0.1198
325.3765	0.1059
325.5872	0.1116
325.7979	0.1099
326.0085	0.0988
326.2192	0.0856
326.4298	0.112
326.6404	0.1137
326.851	0.1025
327.0616	0.1135
327.2722	0.1184
327.4828	0.12
327.6933	0.1157
327.9039	0.1003
328.1144	0.0956
328.3249	0.107
328.5354	0.1106
328.7459	0.1098
328.9564	0.1132
329.1669	0.124
329.3773	0.1085
329.5878	0.0936
329.7982	0.0996
330.0086	0.1054
330.219	0.1038
330.4294	0.1077
330.6398	0.1115
330.8502	0.1193
331.0605	0.1231
331.2708	0.1027
331.4812	0.1126
331.6915	0.111
331.9018	0.1147
332.1121	0.1087
332.3224	0.1127
332.5326	0.1156
332.7429	0.1058
332.9531	0.1219
333.1633	0.1148
333.3735	0.1025
333.5837	0.1112
333.7939	0.1157
334.0041	0.1225
334.2143	0.1174
334.4244	0.1278
334.6346	0.0929
334.8447	0.1063
335.0548	0.1267
335.2649	0.1267
335.475	0.1061
335.685	0.1085
335.8951	0.1169
336.1051	0.1274
336.3152	0.1056
336.5252	0.1104
336.7352	0.1217
336.9452	0.1142
337.1552	0.1218
337.3652	0.1077
337.5751	0.1192
337.7851	0.1189
337.995	0.1134
338.2049	0.1087
338.4148	0.1306
338.6247	0.1062
338.8346	0.1258
339.0445	0.1166
339.2543	0.123
339.4642	0.1366
339.674	0.1274
339.8838	0.1218
340.0936	0.1304
340.3034	0.1262
340.5132	0.1227
340.7229	0.1395
340.9327	0.1196
341.1424	0.1102
341.3522	0.1195
341.5619	0.117
341.7716	0.1309
341.9813	0.1217
342.1909	0.1182
342.4006	0.1231
342.6102	0.1212
342.8199	0.1152
343.0295	0.1315
343.2391	0.1216
343.4487	0.1251
343.6583	0.1193
343.8679	0.1322
344.0774	0.1293
344.287	0.1291
344.4965	0.1263
344.706	0.1348
344.9155	0.1299
345.125	0.1221
345.3345	0.1334
345.544	0.1379
345.7534	0.1311
345.9629	0.1297
346.1723	0.1222
346.3817	0.1375
346.5911	0.1288
346.8005	0.1407
347.0099	0.1335
347.2193	0.1352
347.4286	0.1411
347.638	0.1356
347.8473	0.1426
348.0566	0.1314
348.2659	0.1464
348.4752	0.1395
348.6845	0.1339
348.8937	0.1384
349.103	0.1264
349.3122	0.1378
349.5214	0.1525
349.7306	0.1378
349.9398	0.1362
350.149	0.1388
350.3582	0.1501
350.5674	0.1515
350.7765	0.1415
350.9856	0.1455
351.1948	0.1403
351.4039	0.1566
351.613	0.1351
351.822	0.146
352.0311	0.1528
352.2402	0.1429
352.4492	0.1596
352.6582	0.1517
352.8672	0.153
353.0762	0.1557
353.2852	0.1463
353.4942	0.1536
353.7032	0.1519
353.9121	0.1467
354.1211	0.1342
354.33	0.17
354.5389	0.1411
354.7478	0.1576
354.9567	0.1647
355.1655	0.1449
355.3744	0.1392
355.5833	0.1617
355.7921	0.1523
356.0009	0.1635
356.2097	0.1553
356.4185	0.1379
356.6273	0.1446
356.8361	0.1672
357.0448	0.151
357.2536	0.1495
357.4623	0.1661
357.671	0.1745
357.8797	0.1803
358.0884	0.1577
358.2971	0.1494
358.5057	0.1809
358.7144	0.1767
358.923	0.1614
359.1316	0.1619
359.3402	0.1867
359.5488	0.1666
359.7574	0.1746
359.966	0.1766
360.1746	0.1666
360.3831	0.1772
360.5916	0.1942
360.8002	0.1947
361.0087	0.1787
361.2172	0.1725
361.4256	0.186
361.6341	0.1807
361.8426	0.1869
362.051	0.1872
362.2594	0.1811
362.4678	0.1748
362.6762	0.1818
362.8846	0.1791
363.093	0.1695
363.3014	0.1799
363.5097	0.184
363.718	0.1899
363.9264	0.193
364.1347	0.1747
364.343	0.1706
364.5513	0.2023
364.7595	0.1869
364.9678	0.1989
365.176	0.2079
365.3842	0.1917
365.5925	0.1927
365.8007	0.2004
366.0089	0.2054
366.217	0.1961
366.4252	0.2015
366.6333	0.2018
366.8415	0.2041
367.0496	0.2004
367.2577	0.2062
367.4658	0.2058
367.6739	0.2139
367.882	0.2147
368.09	0.2273
368.2981	0.2087
368.5061	0.1925
368.7141	0.208
368.9221	0.2125
369.1301	0.212
369.3381	0.2208
369.5461	0.2165
369.754	0.2175
369.962	0.2031
370.1699	0.2122
370.3778	0.2225
370.5857	0.212
370.7936	0.2123
371.0015	0.2236
371.2093	0.2278
371.4172	0.2042
371.625	0.2222
371.8328	0.2302
372.0406	0.2032
372.2484	0.2189
372.4562	0.2252
372.664	0.2131
372.8717	0.1952
373.0795	0.2329
373.2872	0.2357
373.4949	0.2427
373.7026	0.2182
373.9103	0.2328
374.118	0.2124
374.3256	0.2232
374.5333	0.2236
374.7409	0.2121
374.9485	0.2199
375.1561	0.2383
375.3637	0.2082
375.5713	0.2398
375.7789	0.2208
375.9864	0.2422
376.194	0.2363
376.4015	0.2392
376.609	0.2265
376.8165	0.2241
377.024	0.2185
377.2315	0.2279
377.4389	0.2295
377.6464	0.2351
377.8538	0.2198
378.0612	0.226
378.2686	0.2578
378.476	0.2155
378.6834	0.2371
378.8908	0.2238
379.0981	0.2309
379.3055	0.2387
379.5128	0.2337
379.7201	0.2488
379.9274	0.2494
380.1347	0.241
380.342	0.2346
380.5492	0.2343
380.7565	0.2578
380.9637	0.2513
381.1709	0.2413
381.3781	0.2409
381.5853	0.2485
381.7925	0.2492
381.9997	0.2341
382.2068	0.2352
382.4139	0.2481
382.6211	0.2504
382.8282	0.2469
383.0353	0.2553
383.2424	0.2436
383.4494	0.2408
383.6565	0.2588
383.8635	0.2465
384.0706	0.2635
384.2776	0.2503
384.4846	0.2404
384.6916	0.2451
384.8986	0.2359
385.1055	0.239
385.3125	0.2513
385.5194	0.2337
385.7263	0.2384
385.9333	0.2399
386.1402	0.2271
386.347	0.2552
386.5539	0.243
386.7608	0.236
386.9676	0.2334
387.1744	0.2457
387.3813	0.2425
387.5881	0.2324
387.7948	0.2436
388.0016	0.2511
388.2084	0.2393
388.4151	0.2579
388.6219	0.2479
388.8286	0.2305
389.0353	0.246
389.242	0.2359
389.4487	0.2398
389.6553	0.2443
389.862	0.2421
390.0686	0.2424
390.2753	0.252
390.4819	0.237
390.6885	0.2302
390.8951	0.2193
391.1016	0.2305
391.3082	0.2283
391.5147	0.2323
391.7213	0.2352
391.9278	0.23
392.1343	0.2176
392.3408	0.2525
392.5473	0.222
392.7537	0.2192
392.9602	0.229
393.1666	0.2274
393.373	0.2016
393.5794	0.2124
393.7858	0.232
393.9922	0.2371
394.1986	0.2488
394.4049	0.2214
394.6113	0.2059
394.8176	0.2198
395.0239	0.2118
395.2302	0.205
395.4365	0.2053
395.6428	0.2337
395.8491	0.1921
396.0553	0.2235
396.2615	0.2331
396.4678	0.2141
396.674	0.2155
396.8802	0.2019
397.0863	0.2024
397.2925	0.2118
397.4987	0.2112
397.7048	0.2163
397.9109	0.2128
398.117	0.2121
398.3231	0.2092
398.5292	0.2179
398.7353	0.2147
398.9413	0.1819
399.1474	0.1787
399.3534	0.1898
399.5594	0.2121
399.7654	0.205
399.9714	0.2105
400.1774	0.2005
400.3833	0.2145
400.5893	0.1955
400.7952	0.2234
401.0011	0.2083
401.207	0.2068
401.4129	0.1917
401.6188	0.2094
401.8247	0.2245
402.0305	0.201
402.2364	0.2289
402.4422	0.2158
402.648	0.2054
402.8538	0.2171
403.0596	0.2106
403.2654	0.2083
403.4711	0.1945
403.6768	0.2118
403.8826	0.2123
404.0883	0.1888
404.294	0.1956
404.4997	0.1845
404.7054	0.2058
404.911	0.1933
405.1167	0.1969
405.3223	0.2084
405.5279	0.202
405.7335	0.2222
405.9391	0.2191
406.1447	0.2098
406.3502	0.1988
406.5558	0.222
406.7613	0.2234
406.9668	0.1882
407.1724	0.2195
407.3778	0.2129
407.5833	0.2135
407.7888	0.1923
407.9942	0.2069
408.1997	0.2204
408.4051	0.1957
408.6105	0.1914
408.8159	0.1955
409.0213	0.1921
409.2267	0.1914
409.432	0.212
409.6374	0.2014
409.8427	0.2109
410.048	0.2073
410.2533	0.2034
410.4586	0.1937
410.6639	0.2093
410.8691	0.2045
411.0744	0.206
411.2796	0.1897
411.4848	0.1956
411.69	0.186
411.8952	0.2171
412.1004	0.1862
412.3056	0.2052
412.5107	0.1875
412.7158	0.1948
412.921	0.2149
413.1261	0.2085
413.3312	0.1926
413.5362	0.2123
413.7413	0.1984
413.9464	0.2103
414.1514	0.2066
414.3564	0.1901
414.5614	0.179
414.7664	0.1883
414.9714	0.2063
415.1764	0.205
415.3813	0.1836
415.5863	0.1817
415.7912	0.203
415.9961	0.1941
416.201	0.2084
416.4059	0.1865
416.6108	0.2014
416.8156	0.2127
417.0205	0.1936
417.2253	0.1825
417.4301	0.1955
417.6349	0.1955
417.8397	0.1959
418.0445	0.1807
418.2492	0.19
418.454	0.1874
418.6587	0.2115
418.8634	0.2025
419.0681	0.1909
419.2728	0.1874
419.4775	0.1903
419.6822	0.1964
419.8868	0.1925
420.0915	0.1736
420.2961	0.1801
420.5007	0.1926
420.7053	0.1957
420.9099	0.1804
421.1144	0.2026
421.319	0.1952
421.5235	0.2087
421.728	0.1818
421.9325	0.1844
422.137	0.175
422.3415	0.1849
422.546	0.1712
422.7504	0.1844
422.9549	0.1977
423.1593	0.1834
423.3637	0.189
423.5681	0.1724
423.7725	0.1793
423.9769	0.1621
424.1812	0.175
424.3856	0.1662
424.5899	0.1729
424.7942	0.165
424.9985	0.1769
425.2028	0.1625
425.4071	0.1697
425.6113	0.184
425.8156	0.1767
426.0198	0.1809
426.224	0.177
426.4282	0.1576
426.6324	0.1775
426.8366	0.1674
427.0407	0.1623
427.2449	0.1658
427.449	0.1599
427.6531	0.1564
427.8572	0.1675
428.0613	0.1535
428.2654	0.1341
428.4694	0.1771
428.6735	0.1571
428.8775	0.1559
429.0815	0.1593
429.2855	0.1574
429.4895	0.1414
429.6935	0.1564
429.8975	0.1396
430.1014	0.1325
430.3053	0.1322
430.5093	0.1454
430.7132	0.1296
430.9171	0.1398
431.1209	0.1339
431.3248	0.1456
431.5286	0.1373
431.7325	0.1503
431.9363	0.1234
432.1401	0.1301
432.3439	0.1293
432.5477	0.1399
432.7514	0.1205
432.9552	0.1225
433.1589	0.1177
433.3627	0.1272
433.5664	0.1035
433.7701	0.1141
433.9737	0.1039
434.1774	0.1183
434.3811	0.1151
434.5847	0.1208
434.7883	0.1132
434.9919	0.1213
435.1955	0.103
435.3991	0.1143
435.6027	0.1086
435.8062	0.1071
436.0098	0.1114
436.2133	0.0892
436.4168	0.0903
436.6203	0.0997
436.8238	0.0838
437.0272	0.0951
437.2307	0.117
437.4341	0.0837
437.6375	0.0987
437.841	0.0737
438.0443	0.0913
438.2477	0.0928
438.4511	0.0901
438.6545	0.0883
438.8578	0.0849
439.0611	0.0906
439.2644	0.0911
439.4677	0.0753
439.671	0.0758
439.8743	0.0697
440.0775	0.0625
440.2808	0.0801
440.484	0.0562
440.6872	0.0732
440.8904	0.0641
441.0936	0.0632
441.2967	0.0582
441.4999	0.0479
441.703	0.0775
441.9062	0.056
442.1093	0.0539
442.3124	0.078
442.5155	0.0618
442.7185	0.0722
442.9216	0.0512
443.1246	0.0697
443.3276	0.0808
443.5307	0.0453
443.7337	0.0481
443.9366	0.0542
444.1396	0.0432
444.3426	0.0505
444.5455	0.0586
444.7484	0.0594
444.9513	0.0414
445.1542	0.0422
445.3571	0.0494
445.56	0.0533
445.7628	0.0544
445.9657	0.0365
446.1685	0.0495
446.3713	0.0498
446.5741	0.045
446.7769	0.0491
446.9797	0.0423
447.1824	0.0282
447.3852	0.0502
447.5879	0.0436
447.7906	0.0377
447.9933	0.0458
448.196	0.0473
448.3986	0.0411
448.6013	0.0207
448.8039	0.0341
449.0066	0.0295
449.2092	0.0443
449.4118	0.0337
449.6143	0.0322
449.8169	0.0324
450.0195	0.0162
450.222	0.0339
450.4245	0.0235
450.627	0.0173
450.8295	0.0208
451.032	0.0184
451.2345	0.0092
451.4369	0.0438
451.6394	0.0324
451.8418	0.0162
452.0442	0.0114
452.2466	0.0042
452.449	0.0232
452.6513	0.0219
452.8537	0.027
453.056	0.0113
453.2583	0.0073
453.4607	0.0073
453.663	0.0148
453.8652	0.0295
454.0675	0.0077
454.2697	0.0163
454.472	0.0221
454.6742	0.0062
454.8764	0.012
455.0786	0.0032
455.2808	0.0166
455.4829	0.0256
455.6851	0.0381
455.8872	0.0344
456.0893	0.0242
456.2915	0.0026
456.4935	0.0123
456.6956	0.0027
456.8977	-0.0029
457.0997	0.0258
457.3018	0.0146
457.5038	0.0187
457.7058	0.0133
457.9078	-0.0062
458.1098	0.0166
458.3117	0.0301
458.5137	0.0077
458.7156	0.0112
458.9175	0.0034
459.1194	0.0099
459.3213	0.0056
459.5232	-0.0022
459.725	0.0064
459.9269	0.0119
460.1287	0.0192
460.3305	0.0053
460.5323	0.0223
460.7341	0.0075
460.9359	0.0089
461.1376	0.0097
461.3394	0.0012
461.5411	0.0058
461.7428	0.0052
461.9445	0.0108
462.1462	-0.0085
462.3479	0.0068
462.5495	0.002
462.7512	0.012
462.9528	-0.0004
463.1544	0.0014
463.356	-0.0052
463.5576	0.0035
463.7592	-0.007
463.9607	0.015
464.1623	0.0081
464.3638	0.0207
464.5653	-0.0039
464.7668	-0.0073
464.9683	0.0032
465.1697	0.0011
465.3712	-0.0041
465.5726	0.0118
465.7741	0.0089
465.9755	-0.0129
466.1769	0.0093
466.3782	0.0111
466.5796	-0.0148
466.7809	0.0058
466.9823	-0.0045
467.1836	0.0173
467.3849	0.0113
467.5862	-0.0188
467.7875	0.017
467.9887	0.0002
468.19	0.0092
468.3912	0.015
468.5924	-0.0009
468.7936	0.0114
468.9948	-0.011
469.196	0.0081
469.3972	-0.0079
469.5983	-0.0018
469.7994	-0.0039
470.0006	-0.0306
470.2017	0.0006
470.4027	-0.0031
470.6038	0.0013
470.8049	0.0116
471.0059	-0.0117
471.2069	0.0025
471.408	0.0001
471.6089	-0.0021
471.8099	0.0081
472.0109	0.0017
472.2119	0.0135
472.4128	-0.0158
472.6137	0.0081
472.8146	-0.0053
473.0155	-0.0103
473.2164	0.0025
473.4173	0.0119
473.6181	-0.0042
473.819	0.0161
474.0198	-0.0134
474.2206	-0.0034
474.4214	0.0106
474.6222	0.0101
474.8229	-0.0145
475.0237	0.0079
475.2244	0.0014
475.4251	-0.0042
475.6258	0.0053
475.8265	0.0027
476.0272	-0.0148
476.2278	-0.0098
476.4285	-0.004
476.6291	0.0015
476.8297	0.0096
477.0303	0.0081
477.2309	0.0007
477.4315	-0.0031
477.632	-0.0127
477.8326	-0.0011
478.0331	-0.0159
478.2336	-0.0177
478.4341	-0.009
478.6346	-0.0017
478.8351	-0.0045
479.0355	-0.0196
479.236	-0.0121
479.4364	-0.0101
479.6368	0.001
479.8372	-0.0026
480.0376	-0.0036
480.2379	0.0035
480.4383	-0.0143
480.6386	-0.0116
480.8389	-0.0063
481.0392	-0.0079
481.2395	-0.0054
481.4398	-0.0218
481.6401	0.0018
481.8403	-0.0022
482.0405	-0.004
482.2408	-0.0226
482.441	-0.0106
482.6411	-0.0181
482.8413	-0.0041
483.0415	-0.0051
483.2416	-0.007
483.4417	-0.0029
483.6419	-0.0121
483.8419	-0.0094
484.042	0.0062
484.2421	-0.0037
484.4422	-0.007
484.6422	0.0087
484.8422	-0.0035
485.0422	-0.0042
485.2422	-0.0113
485.4422	0.0042
485.6422	-0.0076
485.8421	-0.0065
486.042	-0.0002
486.242	-0.0086
486.4419	-0.0077
486.6417	0.0001
486.8416	-0.012
487.0415	-0.0067
487.2413	-0.0035
487.4411	0.0049
487.641	-0.004
487.8408	0.0014
488.0405	-0.0082
488.2403	-0.0062
488.4401	0.0017
488.6398	-0.0114
488.8395	-0.0094
489.0392	-0.0039
489.2389	-0.0178
489.4386	-0.0104
489.6383	-0.0068
489.8379	-0.0002
490.0376	-0.0019
490.2372	-0.0079
490.4368	-0.0161
490.6364	-0.0062
490.836	-0.0122
491.0355	-0.0166
491.2351	-0.0107
491.4346	-0.0153
491.6341	0.0025
491.8336	-0.0098
492.0331	-0.0119
492.2326	-0.005
492.432	-0.0086
492.6315	-0.0059
492.8309	-0.0107
493.0303	-0.0052
493.2297	-0.0044
493.4291	-0.0024
493.6284	-0.0172
493.8278	-0.0059
494.0271	-0.0049
494.2264	-0.005
494.4257	0.0031
494.625	-0.0059
494.8243	-0.01
495.0236	-0.0126
495.2228	-0.0112
495.422	-0.0123
495.6213	-0.0082
495.8205	-0.0119
496.0196	-0.0008
496.2188	-0.008
496.418	-0.0084
496.6171	-0.0157
496.8162	-0.0061
497.0153	-0.0049
497.2144	-0.0096
497.4135	-0.0088
497.6126	-0.0083
497.8116	-0.0142
498.0107	-0.0116
498.2097	-0.0137
498.4087	-0.0167
498.6077	-0.0125
498.8067	-0.0023
499.0056	-0.0129
499.2046	0.0041
499.4035	-0.0136
499.6024	-0.0195
499.8013	-0.0161
500.0002	-0.01
500.199	-0.0108
500.3979	-0.0077
500.5967	-0.0125
500.7956	-0.0073
500.9944	-0.0103
501.1932	-0.0096
501.3919	-0.0139
501.5907	-0.0074
501.7895	-0.0239
501.9882	-0.0138
502.1869	-0.0088
502.3856	-0.022
502.5843	-0.013
502.783	0.0004
502.9816	-0.0042
503.1803	-0.0056
503.3789	-0.0074
503.5775	-0.0122
503.7761	-0.0046
503.9747	-0.0088
504.1732	-0.0121
504.3718	0.0025
504.5703	-0.0069
504.7689	-0.0133
504.9674	-0.0065
505.1658	-0.0019
505.3643	0.0027
505.5628	0.0067
505.7612	-0.0048
505.9597	-0.0069
506.1581	-0.0024
506.3565	-0.0143
506.5549	-0.0031
506.7532	0.0064
506.9516	-0.0031
507.1499	-0.0191
507.3482	-0.0083
507.5465	0.0048
507.7448	-0.0061
507.9431	-0.0101
508.1414	-0.0083
508.3396	-0.0096
508.5379	-0.001
508.7361	-0.0128
508.9343	-0.0101
509.1325	0.005
509.3306	-0.0091
509.5288	-0.0155
509.7269	-0.0033
509.9251	0.0047
510.1232	0.0003
510.3213	0.012
510.5193	-0.0116
510.7174	-0.0081
510.9154	-0.0034
511.1135	-0.0095
511.3115	0.0001
511.5095	-0.0045
511.7075	0.0054
511.9055	-0.0122
512.1034	-0.0028
512.3014	-0.0076
512.4993	0.0076
512.6972	-0.0118
512.8951	0.002
513.093	-0.0099
513.2908	-0.0172
513.4887	0.0017
513.6865	-0.0008
513.8844	-0.0054
514.0822	-0.0012
514.2799	-0.0075
514.4777	0.0026
514.6755	-0.0024
514.8732	-0.0113
515.0709	-0.0039
515.2687	-0.0048
515.4664	0.0024
515.664	-0.019
515.8617	-0.003
516.0594	-0.0041
516.257	0.0006
516.4546	-0.0155
516.6522	0.0056
516.8498	-0.0098
517.0474	0.0001
517.2449	-0.0098
517.4425	0.0053
517.64	-0.012
517.8375	-0.0033
518.035	-0.0048
518.2325	-0.0043
518.43	-0.0039
518.6274	-0.003
518.8249	0.0046
519.0223	-0.001
519.2197	-0.0068
519.4171	0.0015
519.6145	-0.0037
519.8118	-0.0126
520.0092	-0.0046
520.2065	-0.0001
520.4038	-0.0158
520.6011	-0.0078
520.7984	-0.0038
520.9956	-0.0036
521.1929	-0.0043
521.3901	-0.0105
521.5874	-0.0053
521.7846	-0.0037
521.9818	-0.0004
522.1789	-0.0019
522.3761	0.0055
522.5732	-0.0146
522.7704	0.0078
522.9675	-0.0002
523.1646	-0.0106
523.3617	-0.0029
523.5587	0.0049
523.7558	-0.0027
523.9528	-0.0015
524.1498	0.0008
524.3468	-0.0057
524.5438	-0.0075
524.7408	-0.0051
524.9378	0.0098
525.1347	-0.0061
525.3316	0.0063
525.5285	-0.008
525.7254	0.0022
525.9223	0.0002
526.1192	-0.0067
526.316	0.0001
526.5129	0.0018
526.7097	0.0011
526.9065	0.0043
527.1033	-0.0042
527.3	-0.006
527.4968	-0.0034
527.6935	0.0008
527.8903	0.0083
528.087	-0.0001
528.2837	0.0001
528.4804	0.0107
528.677	0.0029
528.8737	-0.0016
529.0703	0.0076
529.2669	-0.0096
529.4635	0.0017
529.6601	0.0013
529.8567	0.0024
530.0532	0.0115
530.2498	-0.0006
530.4463	-0.0015
530.6428	-0.0071
530.8393	-0.0112
531.0358	0.0084
531.2322	0.008
531.4287	-0.0009
531.6251	0.0048
531.8215	-0.0086
532.0179	-0.0086
532.2143	0.0041
532.4107	-0.0041
532.607	0.0039
532.8034	-0.0009
532.9997	-0.0011
533.196	0.001
533.3923	0.0029
533.5886	-0.0011
533.7848	0.0025
533.9811	0.0025
534.1773	-0.0038
534.3735	0.0069
534.5697	0.0008
534.7659	0.0039
534.9621	-0.0036
535.1582	0.0014
535.3544	-0.0023
535.5505	-0.0035
535.7466	0.0001
535.9427	-0.0091
536.1387	0.0005
536.3348	-0.0024
536.5308	-0.002
536.7269	0.0088
536.9229	0.0063
537.1189	-0.0027
537.3148	-0.0047
537.5108	0.0063
537.7068	0.005
537.9027	-0.0002
538.0986	-0.002
538.2945	-0.0093
538.4904	0.0024
538.6863	0.0039
538.8821	-0.0046
539.078	-0.0031
539.2738	0.0034
539.4696	-0.0104
539.6654	0.0023
539.8611	0.0066
540.0569	-0.0052
540.2526	-0.0025
540.4484	0.0043
540.6441	-0.003
540.8398	-0.006
541.0355	0.0075
541.2311	-0.0067
541.4268	0.0062
541.6224	0.0038
541.818	-0.0055
542.0136	-0.0056
542.2092	-0.0052
542.4048	0.0091
542.6003	0.014
542.7959	-0.0022
542.9914	0.001
543.1869	-0.0077
543.3824	-0.0018
543.5779	0.0039
543.7734	0.0034
543.9688	0.0014
544.1642	0.0013
544.3596	0.0065
544.555	-0.003
544.7504	0.012
544.9458	-0.0017
545.1411	0.0077
545.3365	0.0044
545.5318	0.0004
545.7271	-0.0031
545.9224	-0.002
546.1177	-0.0098
546.3129	-0.0074
546.5081	-0.0025
546.7034	0.0003
546.8986	0.0006
547.0938	-0.0038
547.289	0.0006
547.4841	0.005
547.6793	0.002
547.8744	0.0005
548.0695	0.0065
548.2646	-0.0066
548.4597	0.0028
548.6548	-0.0023
548.8498	0.0016
549.0448	-0.0001
549.2399	-0.0074
549.4349	-0.0053
549.6298	0.0162
549.8248	0.0074
550.0198	-0.0002
550.2147	-0.0014
550.4096	-0.0037
550.6045	-0.0018
550.7994	0.0011
550.9943	-0.0043
551.1892	-0.0127
551.384	-0
551.5788	-0.0008
551.7737	-0.0053
551.9685	0.0004
552.1632	0.0034
552.358	0.0003
552.5528	-0.0042
552.7475	-0.0075
552.9422	0.0079
553.1369	-0.0023
553.3316	0.0041
553.5263	0.0047
553.7209	-0.005
553.9156	0.0087
554.1102	-0.0096
554.3048	-0.0073
554.4994	-0.0015
554.694	0.0028
554.8885	0.0033
555.0831	0.0083
555.2776	0.011
555.4721	0.0081
555.6666	-0.0065
555.8611	0.0022
556.0555	0.0111
556.25	0.0019
556.4444	0.0085
556.6388	0.0092
556.8332	0.0056
557.0276	0.0086
557.222	-0.0037
557.4163	0.0114
557.6107	0.0092
557.805	0.0064
557.9993	-0.0028
558.1936	0.0066
558.3879	0.0068
558.5821	0.0074
558.7764	0.0084
558.9706	0.0042
559.1648	0.0072
559.359	0.0053
559.5532	0.0086
559.7473	0.0156
559.9415	0.006
560.1356	0.0044
560.3297	0.0012
560.5238	0.0105
560.7179	0.0035
560.9119	-0.0035
561.106	-0.0037
561.3	0.0117
561.494	0.0024
561.688	0.007
561.882	0.0039
562.076	-0.0018
562.2699	0.0051
562.4639	-0.0012
562.6578	-0.0045
562.8517	0.0131
563.0456	0.0023
563.2395	0.002
563.4333	0.0005
563.6272	-0.0041
563.821	-0.0113
564.0148	0.006
564.2086	-0.0118
564.4024	-0.0053
564.5961	0.0053
564.7899	-0.0041
564.9836	0.0024
565.1773	0.0071
565.371	0.0126
565.5647	-0.0044
565.7584	-0.0043
565.952	0.0111
566.1456	0.0102
566.3393	0.0052
566.5329	0.0011
566.7264	0.0041
566.92	0.0054
567.1136	0.0122
567.3071	0.0055
567.5006	0.0022
567.6941	0.003
567.8876	0.0042
568.0811	0.0002
568.2745	0.0094
568.468	0.0005
568.6614	-0.0027
568.8548	0.0072
569.0482	0.0054
569.2416	0.0066
569.4349	0.0013
569.6283	0.0086
569.8216	0.0042
570.0149	0.0097
570.2082	0.0116
570.4015	-0.0012
570.5947	0.0038
570.788	0.0095
570.9812	0.0053
571.1744	-0.001
571.3676	0.0072
571.5608	-0.0068
571.754	0.0039
571.9471	-0.0026
572.1402	0.0062
572.3333	0.0023
572.5264	0.0049
572.7195	-0.0057
572.9126	0.0041
573.1057	0.0061
573.2987	0.0052
573.4917	-0.0021
573.6847	0.0029
573.8777	-0.0036
574.0707	0.0039
574.2636	0.0056
574.4566	0.0053
574.6495	0.003
574.8424	0.0072
575.0353	-0.0033
575.2281	0.0014
575.421	0.0058
575.6138	0.0046
575.8067	0.0012
575.9995	0.009
576.1923	0.0123
576.385	0.0029
576.5778	-0.0019
576.7706	0.0099
576.9633	-0.0012
577.156	-0.0003
577.3487	-0.0008
577.5414	0.0055
577.734	-0.0024
577.9267	-0.0058
578.1193	0.0045
578.3119	-0.0014
578.5045	0.0109
578.6971	0.0037
578.8897	-0.001
579.0822	0.0077
579.2747	-0.0026
579.4673	0.0041
579.6598	0.0115
579.8522	0.0065
580.0447	0.0001
580.2372	0.0115
580.4296	0.0126
580.622	0.0059
580.8144	0.0025
581.0068	0.0009
581.1992	0.0049
581.3915	0.0059
581.5839	0.0024
581.7762	0.0008
581.9685	-0.0018
582.1608	-0.0028
582.353	0.0004
582.5453	0.0019
582.7375	-0.0055
582.9298	-0.0019
583.122	0.0055
583.3142	0.0012
583.5063	-0.0024
583.6985	0.0019
583.8906	0.0032
584.0827	-0.0008
584.2749	0.0043
584.4669	-0.0004
584.659	0.0058
584.8511	-0.0031
585.0431	-0.0071
585.2352	-0.0071
585.4272	0.003
585.6192	0.0005
585.8111	-0.0016
586.0031	0.0006
586.195	-0.0007
586.387	-0.0005
586.5789	-0.0018
586.7708	0.0012
586.9627	-0.003
587.1545	0.0052
587.3464	0.0116
587.5382	0.0012
587.73	0.0088
587.9218	-0.0004
588.1136	0.0044
588.3053	-0.0043
588.4971	-0.0017
588.6888	0.0043
588.8805	-0.0049
589.0722	0.0032
589.2639	0.0034
589.4556	-0.0036
589.6472	-0.0004
589.8389	0.0067
590.0305	0.0046
590.2221	0.0082
590.4137	0.0048
590.6052	0.0087
590.7968	0.004
590.9883	0.0046
591.1798	-0.004
591.3713	0.005
591.5628	-0.0033
591.7543	0.0119
591.9458	0.0061
592.1372	0.0002
592.3286	0.01
592.52	0.0032
592.7114	0.0033
592.9028	-0.005
593.0941	-0.0028
593.2855	0.0013
593.4768	-0.0002
593.6681	-0.0009
593.8594	0.0059
594.0506	-0.0099
594.2419	0.0065
594.4331	-0.004
594.6244	-0.0007
594.8156	0.0043
595.0067	0.0007
595.1979	-0.0039
595.3891	0.0041
595.5802	0.0017
595.7713	-0.0043
595.9624	0.0034
596.1535	0.0053
596.3446	0.0038
596.5357	0.0008
596.7267	0.0022
596.9177	0.0096
597.1087	0.0078
597.2997	0.0074
597.4907	0.0079
597.6817	-0.0003
597.8726	0.0137
598.0635	0.0051
598.2544	0.0107
598.4453	0.0148
598.6362	0.0038
598.827	0.013
599.0179	0.0056
599.2087	-0.0001
599.3995	0.0062
599.5903	0.0043
599.7811	0.0062
599.9718	-0.0011
600.1626	-0.002
600.3533	0.002
600.544	-0.0004
600.7347	0.0092
600.9254	-0.002
601.116	-0
601.3067	-0.0085
601.4973	0.0037
601.6879	0.004
601.8785	0.0031
602.0691	0.0053
602.2596	0.009
602.4502	0.0069
602.6407	-0
602.8312	-0.0026
603.0217	0.0008
603.2122	-0.0026
603.4027	0.0018
603.5931	-0.0042
603.7835	0.0028
603.9739	0.0047
604.1643	0.008
604.3547	0.0095
604.5451	0.0006
604.7354	0.0059
604.9257	0.0024
605.116	0.0044
605.3063	-0.0001
605.4966	-0.0003
605.6869	0.0106
605.8771	-0.0006
606.0673	0.0071
606.2575	-0.0005
606.4477	-0.0009
606.6379	0.0097
606.8281	0.001
607.0182	0.0065
607.2083	-0.0011
607.3985	0.0016
607.5885	-0.0001
607.7786	-0.0002
607.9687	0.0053
608.1587	0.0078
608.3488	0.0067
608.5388	0.0084
608.7288	-0.0007
608.9187	0.0005
609.1087	-0.001
609.2986	0.0065
609.4886	0.0082
609.6785	-0.0004
609.8684	0.0038
610.0582	0.013
610.2481	0.0042
610.4379	0.0007
610.6278	0.0011
610.8176	0.0091
611.0074	0.005
611.1971	-0.0007
611.3869	-0.0011
611.5766	0.0021
611.7664	0.0038
611.9561	0.0077
612.1458	0.0063
612.3354	0.0073
612.5251	0.008
612.7147	0.0034
612.9044	0.0115
613.094	0.002
613.2836	0.0046
613.4731	0.0059
613.6627	0.0016
613.8522	0.0134
614.0417	0.0035
614.2313	0.0021
614.4207	0.0121
614.6102	-0.0006
614.7997	0.0021
614.9891	0.0067
615.1785	0.0009
615.3679	0.0128
615.5573	0.0115
615.7467	0.0013
615.9361	0.0026
616.1254	0.0065
616.3147	0.008
616.504	0.0062
616.6933	-0.0003
616.8826	0.0088
617.0718	0.0037
617.2611	0.007
617.4503	0.0198
617.6395	0.0092
617.8287	0.0173
618.0179	0.0002
618.207	0.0079
618.3961	0.0095
618.5853	0.0017
618.7744	0.015
618.9634	-0.0067
619.1525	0.0107
619.3416	0.0034
619.5306	0.0123
619.7196	-0.0055
619.9086	0.0108
620.0976	0.0056
620.2866	0.0087
620.4755	0.0012
620.6645	0.0089
620.8534	0.0096
621.0423	0.0073
621.2312	0.0046
621.42	0.0117
621.6089	0.0132
621.7977	0.0133
621.9865	0.013
622.1753	0.0113
622.3641	0.0076
622.5529	0.0166
622.7416	0.0074
622.9303	0.0166
623.1191	0.0092
623.3078	0.0034
623.4964	-0.0016
623.6851	0.0171
623.8737	0.0164
624.0624	0.0014
624.251	0.0101
624.4396	0.0076
624.6282	0.0173
624.8167	0.0132
625.0053	0.0059
625.1938	0.0066
625.3823	0.0133
625.5708	0.0043
625.7593	0.006
625.9477	0.0101
626.1362	0.0072
626.3246	0.0077
626.513	0.0038
626.7014	0.0082
626.8898	0.0127
627.0781	0.0066
627.2665	-0.0021
627.4548	0.0068
627.6431	0.0025
627.8314	0.0089
628.0197	0.0017
628.2079	0.0095
628.3962	0.0074
628.5844	0.0151
628.7726	0.0133
628.9608	0.0082
629.1489	0.015
629.3371	0.0125
629.5252	0.0075
629.7134	0.0052
629.9015	0.0032
630.0895	0.0139
630.2776	0.0024
630.4657	0.0165
630.6537	0.013
630.8417	0.0051
631.0297	0.0127
631.2177	0.0176
631.4057	0.0128
631.5936	0.012
631.7815	0.0124
631.9695	0.0132
632.1574	0.0078
632.3452	0.0177
632.5331	0.0028
632.7209	0.0095
632.9088	-0.0014
633.0966	-0.0019
633.2844	0.0071
633.4722	0.0049
633.6599	0.0044
633.8477	0.0047
634.0354	0.0012
634.2231	0.0068
634.4108	0.0038
634.5985	-0.0022
634.7861	0.0082
634.9738	0.0103
635.1614	0.0064
635.349	0.0066
635.5366	0.005
635.7242	0.0094
635.9117	0.0068
636.0993	0.01
636.2868	0.0116
636.4743	0.005
636.6618	0.0101
636.8492	0.0151
637.0367	0.0101
637.2241	0.0126
637.4115	0.0101
637.5989	0.0122
637.7863	0.0087
637.9737	0.0114
638.161	0.0115
638.3484	0.0117
638.5357	0.0107
638.723	0.0032
638.9103	0.0022
639.0975	0.0051
639.2848	0.0127
639.472	0.0078
639.6592	0.0063
639.8464	0.0164
640.0336	0.0067
640.2208	0.0021
640.4079	0.0021
640.595	0.0072
640.7821	0.0077
640.9692	0.0077
641.1563	0.0064
641.3434	0.0081
641.5304	0.0146
641.7174	0.0126
641.9044	0.0001
642.0914	0.0082
642.2784	-0.0066
642.4653	0.0019
642.6523	0.0006
642.8392	0.0053
643.0261	0.0077
643.213	-0.0049
643.3999	0.001
643.5867	0.0105
643.7735	0.0041
643.9604	0.0032
644.1472	0.0043
644.3339	0.0019
644.5207	0.0066
644.7075	-0.0027
644.8942	0.009
645.0809	0.0081
645.2676	0.0119
645.4543	0.0027
645.6409	0.0087
645.8276	0.0071
646.0142	0.0023
646.2008	0.0172
646.3874	0.0123
646.574	0.0102
646.7605	0.0054
646.9471	0.0083
647.1336	0.0058
647.3201	0.009
647.5066	0.004
647.6931	0.0007
647.8795	-0.0004
648.0659	0.0085
648.2524	0.0096
648.4388	0.0115
648.6252	0.0052
648.8115	0.0086
648.9979	0.0007
649.1842	0.0039
649.3705	-0.0041
649.5568	0.0058
649.7431	0.0144
649.9294	0.0043
650.1156	0.0057
650.3018	0.0143
650.488	0.0039
650.6742	0.0082
650.8604	0.0101
651.0466	0.0065
651.2327	0.0102
651.4188	0.0009
651.6049	0.0163
651.791	0.0068
651.9771	0.0058
652.1632	0.0112
652.3492	0.0047
652.5352	0.003
652.7212	0.0073
652.9072	-0.0022
653.0932	-0.0015
653.2791	0.0056
653.465	-0.0019
653.651	0.0073
653.8369	0.0025
654.0227	0.0098
654.2086	0.008
654.3944	0.0072
654.5803	0.0044
654.7661	0.008
654.9519	-0.0015
655.1377	0.0017
655.3234	-0.004
655.5092	-0.0028
655.6949	-0.0059
655.8806	-0.0067
656.0663	0.0003
656.2519	-0.0038
656.4376	0.0065
656.6232	0.0031
656.8088	0.0046
656.9945	0.0019
657.18	0.0063
657.3656	0.0137
657.5511	0.0006
657.7367	0.0071
657.9222	0.0043
658.1077	0.0042
658.2932	0.0003
658.4786	-0.0064
658.6641	-0.0014
658.8495	0.0029
659.0349	0.0065
659.2203	0.0065
659.4057	0.0056
659.591	0.0092
659.7764	-0.0008
659.9617	-0.004
660.147	0.0078
660.3323	0.0063
660.5176	0.0019
660.7028	0.007
660.888	0.0113
661.0733	0.0111
661.2585	0.0054
661.4436	0.0107
661.6288	0.0155
661.8139	0.0107
661.9991	-0.0015
662.1842	0.0114
662.3693	0.0056
662.5544	0.0116
662.7394	0.0066
662.9245	0.0086
663.1095	0.0114
663.2945	0.007
663.4795	0.0046
663.6644	0.0094
663.8494	0.0039
664.0343	0.007
664.2193	0.0131
664.4042	0.0156
664.589	0.0039
664.7739	0.0004
664.9587	0.0065
665.1436	0.0018
665.3284	0.0034
665.5132	0.0062
665.698	0.0109
665.8827	0.0115
666.0675	0.0059
666.2522	0.0092
666.4369	0.0038
666.6216	0.0104
666.8063	0.0036
666.9909	0.0123
667.1756	0.0124
667.3602	0.0111
667.5448	0.0107
667.7294	0.0037
667.9139	0.0098
668.0985	0.0051
668.283	-0.0052
668.4675	0.0032
668.652	0.0146
668.8365	0.0068
669.0209	0.0054
669.2054	0.0055
669.3898	0.008
669.5742	-0.0029
669.7586	-0.0019
669.943	0.0051
670.1273	0.0157
670.3117	0.0051
670.496	0.0088
670.6803	0.0074
670.8646	0.0095
671.0488	0.0118
671.2331	0.0187
671.4173	0.0099
671.6015	0.0071
671.7857	-0.003
671.9699	0.0102
672.1541	0.0084
672.3382	0.0122
672.5223	0.0106
672.7064	0.0057
672.8905	0.0153
673.0746	0.0108
673.2587	0.013
673.4427	-0.003
673.6267	0.0013
673.8107	0.0099
673.9947	0.012
674.1787	0.0093
674.3626	0.0151
674.5465	0.0088
674.7304	0.011
674.9143	0.0047
675.0982	0.0055
675.2821	0.0083
675.4659	0.0197
675.6497	-0.0004
675.8335	0.0102
676.0173	0.0074
676.2011	0.0058
676.3849	0.0072
676.5686	0.024
676.7523	0.0117
676.936	-0.0016
677.1197	0.0105
677.3034	0.0027
677.487	0.0069
677.6706	0.0086
677.8542	0.0038
678.0378	0.006
678.2214	0.0106
678.405	0.0162
678.5885	0.0126
678.772	0.0085
678.9555	0.0043
679.139	0.0138
679.3225	0.0184
679.5059	0.0125
679.6894	0.0019
679.8728	0.002
680.0562	0.0103
680.2395	0.0148
680.4229	0.0084
680.6062	0.0007
680.7896	0.0102
680.9729	0.0086
681.1562	0.0036
681.3394	0.0112
681.5227	0.0098
681.7059	-0.0035
681.8891	0.0076
682.0723	-0.0014
682.2555	0.0015
682.4387	0.0065
682.6218	0.0141
682.805	0.0137
682.9881	0.0097
683.1712	0.0202
683.3542	0.0089
683.5373	0.0108
683.7203	0.0069
683.9034	0.0136
684.0864	0.0043
684.2694	0.0158
684.4523	0.0031
684.6353	0.0036
684.8182	0.0028
685.0011	0.007
685.184	0.0064
685.3669	0.0028
685.5498	0.0005
685.7326	0.0034
685.9154	0.0134
686.0982	0.0093
686.281	0.005
686.4638	0.0031
686.6465	0.0109
686.8293	0.0139
687.012	0.01
687.1947	0.0082
687.3774	0.0101
687.56	0.0035
687.7427	0.0164
687.9253	0.0049
688.1079	0.0101
688.2905	0.0038
688.4731	0.007
688.6556	0.0087
688.8382	0.0039
689.0207	0.0075
689.2032	0.0086
689.3857	0.0086
689.5681	0.0012
689.7506	0.0089
689.933	0.0109
690.1154	0.0028
690.2978	-0.0015
690.4802	0.0031
690.6626	0.0016
690.8449	0.0009
691.0272	0.0069
691.2095	0.0136
691.3918	0.0083
691.5741	0.019
691.7563	0.0102
691.9386	0.0089
692.1208	0.0022
692.303	0.006
692.4852	0.0082
692.6673	0.0039
692.8495	0.0134
693.0316	0.0163
693.2137	0.0166
693.3958	0.0136
693.5778	0.0135
693.7599	0.0137
693.9419	0.0123
694.1239	0.0144
694.3059	0.0086
694.4879	0.0072
694.6699	0.0008
694.8518	0.0014
695.0337	0.0079
695.2157	0.0133
695.3975	-0.0011
695.5794	0.0053
695.7613	0.009
695.9431	0.0128
696.1249	0.0067
696.3067	0.0078
696.4885	0.017
696.6703	0.0076
696.852	0.0047
697.0337	0.0164
697.2154	0.0105
697.3971	0.0016
697.5788	0.0064
697.7605	0.0015
697.9421	0.0036
698.1237	0.0261
698.3053	0.0229
698.4869	0.0101
698.6685	0.0055
698.85	0.0125
699.0315	0.0118
699.213	0.012
699.3945	0.0018
699.576	0.0197
699.7575	0.0155
699.9389	0.0155
700.1203	0.0068
700.3017	0.011
700.4831	0.0093
700.6645	0.0017
700.8458	0.0144
701.0271	0.0061
701.2084	0.0016
701.3897	-0.0005
701.571	0.0014
701.7523	-0.0044
701.9335	-0.0022
702.1147	0.0005
702.2959	0.0049
702.4771	0.0048
702.6583	0.0073
702.8394	0.012
703.0205	0.0024
703.2016	0.0082
703.3827	0.011
703.5638	0.0039
703.7449	0.0122
703.9259	0.0045
704.1069	0.0011
704.2879	0.0044
704.4689	0.0096
704.6499	-0.0016
704.8308	0.0062
705.0117	0.0149
705.1927	0.0049
705.3735	0.0037
705.5544	-0.0031
705.7353	0.0038
705.9161	0.0055
706.0969	0.0138
706.2777	0.012
706.4585	0.0095
706.6393	0.0086
706.82	0.0086
707.0007	-0.0016
707.1815	0.0054
707.3621	0.0014
707.5428	0.0149
707.7235	0.0059
707.9041	0.0059
708.0847	0.0184
708.2653	0.0141
708.4459	0.0032
708.6265	0.0189
708.807	0.0075
708.9875	0.0144
709.168	0.012
709.3485	0.0132
709.529	0.009
709.7095	0.017
709.8899	0.0061
710.0703	0.0065
710.2507	0.0032
710.4311	0.0153
710.6115	0.0095
710.7918	0.0128
710.9721	0.0064
711.1524	0.0073
711.3327	0.0004
711.513	0.0009
711.6932	0.004
711.8735	0.0014
712.0537	-0.0023
712.2339	-0.0073
712.4141	-0.0086
712.5942	0.0014
712.7744	0.0066
712.9545	0.0064
713.1346	0.0063
713.3147	-0.001
713.4947	-0.0014
713.6748	0.0069
713.8548	0.0055
714.0348	0.0062
714.2148	-0.0003
714.3948	-0.0017
714.5748	0.0036
714.7547	0.0053
714.9346	-0.0009
715.1145	0.0009
715.2944	0.0047
715.4743	0.0011
715.6541	0.019
715.834	0.0063
716.0138	0.0174
716.1936	0.0095
716.3733	0.0165
716.5531	0.0156
716.7328	0.0054
716.9126	0.0032
717.0923	0.0136
717.2719	0.0067
717.4516	0.0035
717.6312	0.0116
717.8109	0.0017
717.9905	0.0086
718.1701	0.0021
718.3496	0.0058
718.5292	0.0052
718.7087	-0.0047
718.8882	0.0045
719.0677	0.0106
719.2472	-0.0017
719.4267	0.0103
719.6061	-0.0005
719.7856	0.0036
719.965	-0.0036
720.1443	0.0114
720.3237	0.0055
720.5031	0.0098
720.6824	0.0092
720.8617	0.0038
721.041	-0.0028
721.2203	0.0027
721.3995	0.012
721.5788	0.0148
721.758	0.0038
721.9372	0.0135
722.1164	0.0107
722.2956	0.0168
722.4747	0.0076
722.6538	-0.0011
722.8329	0.0084
723.012	0.0001
723.1911	0.0052
723.3702	0.0071
723.5492	0.0098
723.7282	0.0079
723.9072	-0.0011
724.0862	0.005
724.2652	0.0119
724.4441	-0.0026
724.623	0.0142
724.8019	-0.0008
724.9808	0.0069
725.1597	0.0108
725.3385	0.0163
725.5174	0.0063
725.6962	0.0008
725.875	-0.0016
726.0538	0.0086
726.2325	0.0095
726.4112	0.001
726.59	0.0063
726.7687	0.0033
726.9474	-0.0014
727.126	-0.0012
727.3047	-0.0027
727.4833	0.0008
727.6619	0.0031
727.8405	-0.0032
728.0191	0.0016
728.1976	-0.0076
728.3762	-0.0001
728.5547	0.0043
728.7332	0.008
728.9116	-0.006
729.0901	0.0012
729.2686	0.0038
729.447	0.0059
729.6254	0.0122
729.8038	0.0085
729.9821	0.0095
730.1605	0.009
730.3388	0.0015
730.5171	0.0139
730.6954	0.0074
730.8737	-0.0016
731.0519	0.0028
731.2302	0.0031
731.4084	0.0061
731.5866	-0.0002
731.7648	0.0043
731.9429	0.0082
732.1211	-0.0033
732.2992	0.0094
732.4773	-0.0047
732.6554	-0.0067
732.8335	-0.0008
733.0115	-0.0031
733.1896	0.0109
733.3676	-0.003
733.5456	-0.0047
733.7235	-0.0002
733.9015	0.0105
734.0794	0.0013
734.2574	0.0024
734.4353	0.004
734.6131	0.0062
734.791	0.0039
734.9689	0.005
735.1467	0.0005
735.3245	-0.0001
735.5023	0.0095
735.68	0.008
735.8578	0.0172
736.0355	0.0046
736.2132	0.0101
736.3909	-0.0002
736.5686	0.0164
736.7463	0.0061
736.9239	0.0072
737.1015	0.0097
737.2791	0.0121
737.4567	0.0032
737.6343	0.0028
737.8118	-0.0024
737.9894	0.0033
738.1669	0.0015
738.3444	0.008
738.5218	0.008
738.6993	-0.0012
738.8767	0.0071
739.0541	0.0025
739.2315	0.0049
739.4089	0.0117
739.5863	-0.0021
739.7636	-0.0061
739.9409	-0.0071
740.1182	0.0055
740.2955	0.0055
740.4728	0.0106
740.65	-0.0054
740.8272	-0.0061
741.0044	-0.0072
741.1816	0.0142
741.3588	-0.0015
741.5359	0.0052
741.7131	-0
741.8902	-0.0022
742.0673	0.0106
742.2444	0.0012
742.4214	0.0042
742.5985	0.0085
742.7755	0.0124
742.9525	0.003
743.1295	0.0088
743.3064	0.009
743.4834	0.0083
743.6603	0.0016
743.8372	-0.0028
744.0141	0.0093
744.191	-0.0024
744.3678	-0.0048
744.5446	0.0029
744.7215	0.0159
744.8982	0.0142
745.075	0.0068
745.2518	-0.009
745.4285	-0.0061
745.6052	0.0103
745.7819	-0.0042
745.9586	-0.0009
746.1353	-0.0037
746.3119	0.0015
746.4885	0.0042
746.6651	0.0171
746.8417	0.0077
747.0183	0.0119
747.1948	0.0109
747.3714	0.007
747.5479	0.0075
747.7244	0.0094
747.9008	0.0112
748.0773	0.0053
748.2537	0.0012
748.4301	0.0003
748.6065	0.0065
748.7829	0.0013
748.9593	-0.0004
749.1356	0.0037
749.3119	0.0098
749.4882	0.0081
749.6645	-0.0022
749.8408	0.0067
750.017	0.0027
750.1933	0.015
750.3695	0.0128
750.5457	0.0038
750.7218	0.0109
750.898	0.0147
751.0741	0.0196
751.2502	0.0147
751.4263	0.0143
751.6024	0.0104
751.7784	0.0068
751.9545	0.0077
752.1305	0.0034
752.3065	0.0081
752.4825	0.0087
752.6584	0.0059
752.8344	0.003
753.0103	0.0095
753.1862	0.0035
753.3621	0.0017
753.5379	0.0067
753.7138	-0.0011
753.8896	0.0148
754.0654	0.0055
754.2412	-0.0027
754.417	-0.0012
754.5927	0.0034
754.7685	-0.0011
754.9442	-0.0005
755.1199	0.0166
755.2956	-0.0009
755.4712	-0.0042
755.6469	0.0145
755.8225	0.0097
755.9981	0.0078
756.1736	-0.0033
756.3492	0.0071
756.5248	0.0086
756.7003	0.0073
756.8758	0.0112
757.0513	0.0041
757.2267	0.0036
757.4022	0.0049
757.5776	0.0043
757.753	0.0006
757.9284	0.0075
758.1038	-0.0059
758.2791	0.0132
758.4545	0.0115
758.6298	0.0151
758.8051	0.0042
758.9803	0.0113
759.1556	0.0032
759.3308	0.0049
759.506	0.0076
759.6812	0.0017
759.8564	0.0074
760.0316	0.0075
760.2067	0.0067
760.3819	-0.0039
760.557	-0.0034
760.732	0.0049
760.9071	0.0123
761.0821	0.0177
761.2572	0.0111
761.4322	0.0105
761.6072	0.0039
761.7821	0.0048
761.9571	0.0037
762.132	0.0043
762.3069	0.0021
762.4818	0.0143
762.6567	0.0069
762.8316	0.0085
763.0064	0.0061
763.1812	0.014
763.356	0.0032
763.5308	0.0103
763.7055	0.0027
763.8803	0.0059
764.055	-0.0003
764.2297	0.0076
764.4044	0.0147
764.579	0.006
764.7537	0.0032
764.9283	0.0069
765.1029	-0.0007
765.2775	0.0025
765.4521	-0.0012
765.6266	0.0034
765.8011	0.0056
765.9756	-0.0034
766.1501	0.0097
766.3246	0.0054
766.4991	0.005
766.6735	0.0087
766.8479	0.0073
767.0223	-0.0061
767.1967	0.0111
767.371	0.0084
767.5454	0.0012
767.7197	0.0078
767.894	0.0123
768.0683	0.0032
768.2425	0.0113
768.4168	-0.0025
768.591	0.0032
768.7652	0.0043
768.9394	-0.01
769.1135	0.0117
769.2877	0.0018
769.4618	0.0103
769.6359	0.0133
769.81	0.0104
769.984	0.0063
770.1581	0.0015
770.3321	0.0138
770.5061	0.0001
770.6801	0.0063
770.8541	0.0129
771.028	0.004
771.202	-0.0015
771.3759	0.0031
771.5498	0.0174
771.7236	0.0057
771.8975	0.0095
772.0713	0.0065
772.2451	-0.0052
772.4189	-0.0026
772.5927	0.0038
772.7665	0.001
772.9402	0.0077
773.1139	0.0113
773.2876	-0.0087
773.4613	0.0051
773.635	0.0053
773.8086	0.0004
773.9822	0.0146
774.1558	0.0145
774.3294	0.0092
774.503	-0.0054
774.6765	0.0184
774.8501	0.0073
775.0236	0.0184
775.1971	0.015
775.3705	0.0204
775.544	0.0057
775.7174	0.0131
775.8908	0.0133
776.0642	0.0166
776.2376	0.0133
776.4109	0.014
776.5843	0.0041
776.7576	0.0092
776.9309	0.0104
777.1041	0.0164
777.2774	-0.0015
777.4506	0.0058
777.6238	0.0117
777.797	0.0145
777.9702	0.0095
778.1434	0.0229
778.3165	0.0065
778.4896	0.0173
778.6627	0.0026
778.8358	0.0095
779.0089	0.0031
779.1819	-0.0034
779.3549	0.0156
779.5279	0.0087
779.7009	-0.0022
779.8739	-0.0061
780.0468	0.0072
780.2197	0.0087
780.3926	0.0047
780.5655	0.0069
780.7384	-0.007
780.9112	-0.0009
781.0841	-0.0046
781.2569	-0.0063
781.4297	-0.0208
781.6024	-0.0007
781.7752	-0.0111
781.9479	-0.0074
782.1206	0.0085
782.2933	0.0159
782.466	-0.0039
782.6386	0.0159
782.8113	-0.0089
782.9839	-0.0075
783.1565	-0.007
783.329	0.0007
783.5016	-0.0007
783.6741	0.0168
783.8466	0.007
784.0191	-0.0045
784.1916	-0.0031
784.3641	-0.0076
784.5365	0.0074
784.7089	0.0034
784.8813	0.0065
785.0537	-0.0082
785.2261	-0.0015
785.3984	-0.0005
785.5707	0.0072
785.743	0.0116
785.9153	-0.0001
786.0876	0.0229
786.2598	-0.0115
786.432	0.012
786.6042	0.0077
786.7764	0.0151
786.9486	0.0144
787.1207	0.003
787.2928	-0.002
787.4649	0.0117
787.637	-0.0008
787.8091	0.001
787.9811	-0.0015
788.1532	-0.0018
788.3252	-0.0105
788.4972	0.0032
788.6691	0.0115
788.8411	-0.0111
789.013	0.0132
789.1849	0.0127
789.3568	0.0164
789.5287	0.0086
789.7005	0.0086
789.8723	0.0145
790.0442	0.0141
790.2159	0.004
790.3877	0.0171
790.5595	0.0191
790.7312	0.0145
790.9029	0.014
791.0746	0.0063
791.2463	0.018
791.4179	0.0196
791.5896	0.0235
791.7612	0.0259
791.9328	0.0062
792.1044	0.0116
792.2759	0.0128
792.4474	0.0087
792.619	0.0068
792.7905	0.0259
792.9619	0.0213
793.1334	0.0177
793.3048	0.0087
793.4762	0.0146
793.6476	-0.0085
793.819	0.0138
793.9904	0.0109
794.1617	-0.0099
794.333	0.0054
794.5043	0.0004
794.6756	0.0021
794.8469	-0.0106
795.0181	0.0135
795.1893	-0.0009
795.3605	0.0128
795.5317	-0.0138
795.7029	0.0088
795.874	0.0031
796.0452	0.0074
796.2163	0.0027
796.3873	0.0082
796.5584	0.0252
796.7294	-0.0074
796.9005	0.0162
797.0715	0.0111
797.2425	-0.0043
797.4134	0.0142
797.5844	-0.001
797.7553	0.009
797.9262	0.0171
798.0971	0.0136
798.2679	-0.0015
798.4388	-0.0033
798.6096	-0.01
798.7804	0.0124
798.9512	0.0132
799.122	0.0188
799.2927	0.0174
799.4635	0.0222
799.6342	0.0214
799.8049	0.0163
799.9755	0.0025
800.1462	0.0104
800.3168	0.0151
800.4874	0.0003
800.658	0.0084
800.8286	0.0243
800.9991	0.0216
801.1696	0.0206
801.3402	0.0058
801.5106	0.0096
801.6811	-0.0087
801.8516	0.0074
802.022	0.0025
802.1924	0.0089
802.3628	0.0099
802.5332	0.0082
802.7035	0.0082
802.8739	-0.0031
803.0442	-0.0007
803.2145	-0.0031
803.3847	0.0093
803.555	0.0046
803.7252	0.0361
803.8954	-0.0069
804.0656	0.0065
804.2358	0.0185
804.4059	0.0281
804.5761	0.0141
804.7462	0.0119
804.9163	0.0062
805.0864	-0.0071
805.2564	-0.0066
805.4264	0.0054
805.5965	0.0071
805.7665	0.0021
805.9364	-0.0077
806.1064	0.0208
806.2763	0.0326
806.4462	0.0261
806.6161	0.0098
806.786	0.0073
806.9559	0.0122
807.1257	0.0092
807.2955	0.0333
807.4653	0.0291
807.6351	0.0282
807.8048	0.0081
807.9746	0.018
808.1443	-0.0051
808.314	0.0265
808.4837	0.0212
808.6533	0.022
808.8229	0.0298
808.9926	0.0113
809.1622	0.0271
809.3317	0.0183
809.5013	0.008
809.6708	0.0143
809.8403	0.025
810.0098	0.0163
810.1793	0.0001
810.3488	0.0043
810.5182	0.0493
810.6876	0.0197
810.857	0.0215
811.0264	0.0061
811.1958	0.0035
811.3651	0.0067
811.5344	0.0105
811.7037	0.0188
811.873	-0.0081
812.0422	-0.011
812.2115	0.0116
812.3807	0.0244
812.5499	0.0001
812.7191	0.0289
812.8882	0.0064
813.0574	-0.002
813.2265	0.0417
813.3956	0.014
813.5646	0.0089
813.7337	0.0135
813.9027	-0.0019
814.0718	0.0161
814.2407	0.0219
814.4097	0.0141
814.5787	0.0071
814.7476	0.0101
814.9165	0.0108
815.0854	-0.0094
815.2543	0.0153
815.4232	0.0316
815.592	0.0054
815.7608	0.0264
815.9296	0.0106
816.0984	-0.0121
816.2671	-0.0067
816.4359	0.001
816.6046	0.0016
816.7733	-0.0056
816.942	0.0096
817.1106	0.0025
817.2793	0.0078
817.4479	-0.0042
817.6165	-0.0048
817.785	-0.0196
817.9536	0.0169
818.1221	0.0029
818.2906	-0.0185
818.4591	0.0039
818.6276	0.0143
818.7961	0.0167
818.9645	0.0021
819.1329	0.0143
819.3013	0.0211
819.4697	0.0233
819.638	-0.0162
819.8064	0.0153
819.9747	0.0037
820.143	0.018
820.3113	0.0028
820.4795	0.0051
820.6477	0.0139
820.816	-0.0135
820.9842	-0.0083
821.1523	0.0291
821.3205	-0.0198
821.4886	0.0022
821.6567	-0.0142
821.8248	0.0051
821.9929	0.014
822.1609	-0.0172
822.329	0.013
822.497	0.0117
822.665	-0.0212
822.833	-0.0127
823.0009	0.0234
823.1688	0.0056
823.3367	-0.0092
823.5046	-0.0009
823.6725	-0.0492
823.8404	-0.0238
824.0082	0.0097
824.176	0.0574
824.3438	0.0135
824.5116	0.0218
824.6793	0.0031
824.847	0.019
825.0147	0.0047
825.1824	0.0288
825.3501	0.0396
825.5177	-0.0146
825.6854	-0.0099
825.853	0.0234
826.0206	0.0294
826.1881	0.0138
826.3557	0.0103
826.5232	-0.0158
826.6907	0.0498
826.8582	0.0406
827.0257	0.0355
827.1931	0.0125
827.3605	0.0294
827.528	0.0295
827.6953	0.0503
827.8627	0.0186
828.03	0.0299
828.1974	0.026
828.3647	-0.0015
828.532	0.0085
828.6992	0.0242
828.8665	0.0257
829.0337	0.0445
829.2009	0.0127
829.3681	-0.0012
829.5352	0.0114
829.7024	0.0279
829.8695	0.0289
830.0366	0.0262
830.2037	0.0012
830.3707	0.0255
830.5378	-0.0217
830.7048	0.0154
830.8718	-0.0134
831.0388	-0.0206
831.2057	0.0148
831.3727	0.0032
831.5396	0.0227
831.7065	-0.012
831.8734	-0.0133
832.0402	-0.0041
832.2071	0.0008
832.3739	-0.0275
832.5407	0.0208
832.7075	0.0092
832.8742	-0.0031
833.041	-0.0204
833.2077	0.0076
833.3744	0.0273
833.541	0.029
833.7077	0.0508
833.8743	0.0416
834.0409	0.021
834.2075	0.0248
834.3741	0.0209
834.5407	0.011
834.7072	-0.0168
834.8737	0.0354
835.0402	0.028
835.2067	0.0187
835.3731	0.004
835.5395	-0.0305
835.706	0.0219
835.8723	-0.0184
836.0387	-0.0021
836.2051	0.0187
836.3714	-0.049
836.5377	-0.0024
836.704	-0.0328
836.8703	-0.0092
837.0365	-0.0064
837.2027	-0.0112
837.3689	0.0128
837.5351	-0.0051
837.7013	-0.0332
837.8674	0.0385
838.0335	-0.0239
838.1997	-0.0517
838.3657	0.0532
838.5318	0.0198
838.6978	0.0144
838.8639	0.0057
839.0299	0.0205
839.1958	-0.0004
839.3618	0.0012
839.5277	0.0107
839.6937	-0.0458
839.8596	0.0217
840.0254	0.0502
840.1913	0.0245
840.3571	-0.033
840.523	0.0336
840.6888	0.0213
840.8545	0.0297
841.0203	0.0251
841.186	-0.0228
841.3517	0.0209
841.5174	-0.0112
841.6831	0.0363
841.8488	-0.0112
842.0144	0.0418
842.18	0.0176
842.3456	0.0275
842.5112	-0.0139
842.6767	-0.0282
842.8422	0.0244
843.0077	0.0043
843.1732	-0.0202
843.3387	-0.0854
843.5042	-0.0105
843.6696	-0.0035
843.835	-0.0119
844.0004	-0.0531
844.1657	0.0421
844.3311	-0.0046
844.4964	-0.0558
844.6617	-0.0276
844.827	0.0153
844.9923	0.029
845.1575	0.0601
845.3227	0.0379
845.4879	-0.0056
845.6531	0.0088
845.8183	0.0032
845.9834	0.039
846.1485	0.0111
846.3136	-0.0698
846.4787	0.0283
846.6438	0.0502
846.8088	-0.0419
846.9738	-0.0438
847.1388	0.0322
847.3038	0.0292
847.4687	0.0709
847.6337	-0.0286
847.7986	0.0873
847.9635	0.0397
848.1284	0.0619
848.2932	0.0689
848.458	0.0758
848.6228	0.0972
848.7876	0.01
848.9524	-0.0375
849.1172	-0.0132
849.2819	0.0049
849.4466	0.0319
849.6113	0.0412
849.7759	-0.0327
849.9406	-0.0255
850.1052	-0.1009
850.2698	0.0723
850.4344	-0.017
850.599	-0.0212
850.7635	0.0321
850.928	0.0063
851.0925	0.0796
851.257	0.0848
851.4215	-0.0009
851.5859	-0.0165
851.7503	-0.0529
851.9147	0.098
852.0791	0.0245
852.2434	0.1134
852.4078	-0.0527
852.5721	0.0905
852.7364	0.0303
852.9007	-0.225
853.0649	0.0419
853.2291	0.0821
853.3934	-0.0149
853.5575	-0.0256
853.7217	0.0371
853.8859	-0.0271
854.05	-0.0243
854.2141	-0.0547
854.3782	0.0311
854.5423	0.018
854.7063	0.0209
854.8703	0.0011
855.0343	0.065
855.1983	-0.0435
855.3623	0.0885
855.5262	0.0952
855.6901	-0.1703
855.854	-0.1151
856.0179	0.0081
856.1818	0.0603
856.3456	-0.1059
856.5094	0.0253
856.6732	-0.0487
856.837	0.1494
857.0008	-0.1608
857.1645	0.1055
857.3282	0.174
857.4919	-0.1601
857.6556	-0.0313
857.8192	-0.0346
857.9828	0.1926
858.1465	-0.1483
858.31	-0.0056
858.4736	0.1914
858.6372	-0.1384
858.8007	-0.3007
858.9642	0.1728
859.1277	-0.0457
859.2911	-0.0306
859.4546	-0.0554
859.618	-0.3833
859.7814	-0.0964
859.9448	-0.1309
860.1081	0.2318
860.2715	0.0455
860.4348	-0.0614
860.5981	0.3209
860.7614	0.1759
860.9246	-0.0262
861.0879	0.1362
861.2511	0.1833
861.4143	-0.0508
861.5774	0.0324
861.7406	-0.0805
861.9037	-0.0303
862.0668	0.1143
862.2299	0.2504
862.393	0.1915
862.556	0.235
862.7191	0.1159
862.8821	-0.1581
863.0451	-0.1058
863.208	0.0017
863.371	-0.5259
863.5339	0.2535
863.6968	-0.1812
863.8597	-0.2274
864.0225	0.3128
864.1854	-0.2021
864.3482	0.8451
864.511	-0.0723
864.6737	-0.2894
864.8365	0.2026
864.9992	-0.2924
865.1619	-0.0383
865.3246	0.1715
865.4873	0.0691
865.65	-0.1915
865.8126	2.4698
865.9752	0.0159
866.1378	0.1212
866.3004	-0
866.4629	-0.0661
866.6254	-0
866.7879	-0.0804
866.9504	0.5588
867.1129	0.1201
867.2753	0.2016
867.4377	-0.1493
867.6001	-0.1849
867.7625	0.3038
867.9249	-0.4458
868.0872	0.3757
868.2495	0.3801
868.4118	0.1324
868.5741	0.3714
868.7363	0.4308
868.8986	-0.1368
869.0608	-0.1131
869.223	-0.0989
869.3851	-0.2382
869.5473	-0.0894
869.7094	-0.0571
869.8715	2.7185
870.0336	-0
870.1957	-0
870.3577	0.0145
870.5197	-0.2515
870.6817	0.5806
870.8437	0.0703
871.0057	-0
871.1676	0.0494
871.3295	-1.0577
871.4914	-0
871.6533	0.1852
871.8151	0.0234
871.977	-0.66
872.1388	0.5042
872.3006	0.2068
872.4623	2.6875
872.6241	-0.6527
872.7858	0.3704
872.9475	-0.2257
873.1092	0.1978
873.2709	-0
873.4325	-0.2802
873.5941	0.4805
873.7557	-0
873.9173	-0.1608
874.0789	0.2956
874.2404	-0.316
874.4019	0.0817
874.5634	-0.2795
874.7249	0.3223
874.8863	-0.0471
875.0478	0.0485
875.2092	-0.1785
875.3706	-0.0424
875.5319	-0
875.6933	-0.3879
875.8546	0.411
876.0159	0.1452
876.1772	0.3705
876.3385	-0.4963
876.4997	-0
876.6609	-0.086
876.8221	-0.9061
876.9833	0.1802
877.1445	-0.066
877.3056	-0.2255
877.4667	0.286
877.6278	0.0453
877.7889	0.4866
877.9499	0.6856
878.111	-0
878.272	-0.3054
878.433	0.2392
878.5939	0.2524
878.7549	-0
878.9158	-0.0108
879.0767	0.3827
879.2376	0.1192
879.3984	-0
879.5593	-0.061
879.7201	0.2953
879.8809	-0
880.0417	-0.079
880.2024	-0.1807
880.3632	-0.274
880.5239	-0
880.6846	-0.3881
880.8452	-0.3226
881.0059	-0
881.1665	-0.2461
881.3271	-0.7003
881.4877	-0
881.6483	0.4269
881.8088	-0.3944
881.9693	-0
882.1298	-0
882.2903	-0
