Data from MonoPyChalIsomerACN10uM400nmA_Absorbance_12-08-43-628.txt Node
Date: Fri Jul 05 12:08:43 BST 2024
User: LASERRRRR
Spectrometer: FLMT03099
Trigger mode: 0
Integration Time (sec): 1.000000E-1
Scans to average: 1
Electric dark correction enabled: true
Nonlinearity correction enabled: false
Boxcar width: 0
XAxis mode: Wavelengths
Number of Pixels in Spectrum: 3648
>>>>>Begin Spectral Data<<<<<
179.3399	-0.0364
179.5586	-0.0364
179.7771	-0.0364
179.9957	0.3996
180.2143	-0
180.4329	-0
180.6514	0.2148
180.8699	-0
181.0885	0.7792
181.307	0.6664
181.5255	-0.5586
181.744	-0
181.9625	-0.8543
182.181	-0
182.3994	-0
182.6179	-0.1603
182.8363	-0.0928
183.0547	0.4552
183.2732	0.5818
183.4916	0.0193
183.71	0.1409
183.9284	0.1869
184.1467	-0.1387
184.3651	0.2597
184.5835	0.2064
184.8018	0.1523
185.0201	0.1911
185.2385	0.0636
185.4568	0.356
185.6751	0.1086
185.8934	0.17
186.1117	0.2558
186.3299	-0.0776
186.5482	0.0024
186.7664	0.1623
186.9847	0.1622
187.2029	0.4522
187.4211	-0.2566
187.6393	-0.0729
187.8575	0.1154
188.0757	0.0467
188.2939	0.1343
188.512	-0.0678
188.7302	-0.0534
188.9483	0.1699
189.1665	0.1152
189.3846	0.2283
189.6027	0.3302
189.8208	0.3034
190.0389	0.2158
190.257	0.1666
190.475	0.3474
190.6931	0.2148
190.9111	0.2557
191.1292	0.5036
191.3472	0.3311
191.5652	0.2243
191.7832	1.0075
192.0012	0.3318
192.2192	0.4729
192.4371	0.244
192.6551	0.3233
192.873	0.6099
193.091	0.4062
193.3089	0.3875
193.5268	1.1134
193.7447	0.4122
193.9626	0.6416
194.1805	0.7119
194.3984	0.4034
194.6162	0.6734
194.8341	0.6488
195.0519	0.6525
195.2697	0.63
195.4875	0.8124
195.7054	0.4919
195.9231	0.6804
196.1409	0.5304
196.3587	0.6009
196.5765	0.5415
196.7942	0.8937
197.012	0.8505
197.2297	0.72
197.4474	0.8096
197.6651	0.6614
197.8828	0.7135
198.1005	0.6764
198.3182	0.8056
198.5358	0.9456
198.7535	0.688
198.9711	0.5235
199.1888	0.8212
199.4064	0.924
199.624	0.6399
199.8416	0.8438
200.0592	0.7841
200.2767	0.6535
200.4943	0.7977
200.7119	0.6776
200.9294	0.8373
201.1469	0.8773
201.3645	0.6349
201.582	0.9013
201.7995	0.9538
202.017	0.7442
202.2344	0.7366
202.4519	1.0135
202.6694	1.133
202.8868	0.8245
203.1042	0.6861
203.3217	0.6309
203.5391	0.7653
203.7565	0.8148
203.9739	0.7182
204.1913	0.8706
204.4086	0.8233
204.626	0.7742
204.8433	0.8706
205.0607	0.7633
205.278	0.9252
205.4953	0.7754
205.7126	0.69
205.9299	0.9355
206.1472	0.7565
206.3644	0.6715
206.5817	0.7908
206.7989	0.6886
207.0162	0.7308
207.2334	0.8607
207.4506	0.7731
207.6678	0.8358
207.885	0.7989
208.1022	0.8365
208.3194	0.8539
208.5365	0.6853
208.7537	0.7933
208.9708	0.6293
209.1879	0.7041
209.405	0.6934
209.6222	0.793
209.8392	0.6922
210.0563	0.7532
210.2734	0.7782
210.4905	0.7587
210.7075	0.8785
210.9245	0.7404
211.1416	0.8016
211.3586	0.8351
211.5756	0.7972
211.7926	0.7658
212.0096	0.7114
212.2265	0.7054
212.4435	0.7283
212.6604	0.813
212.8774	0.7478
213.0943	0.6949
213.3112	0.7074
213.5281	0.6475
213.745	0.8006
213.9619	0.7128
214.1788	0.682
214.3956	0.6933
214.6125	0.6665
214.8293	0.7217
215.0461	0.726
215.2629	0.6199
215.4798	0.6698
215.6965	0.6837
215.9133	0.7205
216.1301	0.5797
216.3469	0.6791
216.5636	0.6264
216.7803	0.594
216.9971	0.624
217.2138	0.617
217.4305	0.6436
217.6472	0.6065
217.8639	0.6032
218.0805	0.5937
218.2972	0.6003
218.5138	0.5944
218.7305	0.5626
218.9471	0.5432
219.1637	0.6134
219.3803	0.533
219.5969	0.5915
219.8135	0.5839
220.0301	0.5517
220.2466	0.5814
220.4632	0.5902
220.6797	0.58
220.8962	0.5644
221.1127	0.5561
221.3292	0.5112
221.5457	0.6134
221.7622	0.5737
221.9787	0.5562
222.1951	0.5312
222.4116	0.5548
222.628	0.5991
222.8444	0.5597
223.0608	0.5801
223.2772	0.5542
223.4936	0.5441
223.71	0.5791
223.9264	0.567
224.1427	0.5469
224.3591	0.5732
224.5754	0.547
224.7917	0.5333
225.008	0.5891
225.2243	0.5288
225.4406	0.5464
225.6569	0.5676
225.8732	0.5559
226.0894	0.5257
226.3057	0.5732
226.5219	0.5505
226.7381	0.5935
226.9543	0.5603
227.1705	0.5645
227.3867	0.5609
227.6029	0.545
227.8191	0.5574
228.0352	0.5947
228.2513	0.5363
228.4675	0.5859
228.6836	0.6033
228.8997	0.5561
229.1158	0.559
229.3319	0.5755
229.548	0.5674
229.764	0.5824
229.9801	0.5926
230.1961	0.5516
230.4121	0.5626
230.6282	0.5704
230.8442	0.572
231.0602	0.5661
231.2761	0.5772
231.4921	0.5834
231.7081	0.5773
231.924	0.5996
232.14	0.5935
232.3559	0.585
232.5718	0.5604
232.7877	0.5554
233.0036	0.6137
233.2195	0.5725
233.4353	0.5745
233.6512	0.5792
233.867	0.5779
234.0829	0.5774
234.2987	0.5645
234.5145	0.5549
234.7303	0.5728
234.9461	0.5823
235.1619	0.5606
235.3776	0.5735
235.5934	0.5643
235.8091	0.566
236.0249	0.5418
236.2406	0.5413
236.4563	0.5692
236.672	0.5563
236.8877	0.5919
237.1034	0.5374
237.319	0.5531
237.5347	0.5575
237.7503	0.5584
237.966	0.5781
238.1816	0.6087
238.3972	0.5624
238.6128	0.5452
238.8284	0.5348
239.0439	0.5435
239.2595	0.5551
239.475	0.5604
239.6906	0.5301
239.9061	0.52
240.1216	0.5457
240.3371	0.5309
240.5526	0.543
240.7681	0.5285
240.9836	0.5518
241.199	0.5171
241.4145	0.5174
241.6299	0.4933
241.8453	0.4847
242.0607	0.4777
242.2761	0.4736
242.4915	0.4583
242.7069	0.4485
242.9223	0.4669
243.1376	0.4524
243.353	0.4546
243.5683	0.4302
243.7836	0.4246
243.9989	0.4119
244.2142	0.4035
244.4295	0.3969
244.6448	0.391
244.86	0.4002
245.0753	0.3869
245.2905	0.3855
245.5057	0.3844
245.721	0.364
245.9362	0.3518
246.1514	0.339
246.3665	0.3257
246.5817	0.3346
246.7969	0.317
247.012	0.3416
247.2271	0.3359
247.4423	0.3182
247.6574	0.3061
247.8725	0.3158
248.0876	0.303
248.3026	0.2872
248.5177	0.2937
248.7328	0.2795
248.9478	0.289
249.1628	0.2663
249.3779	0.2708
249.5929	0.2692
249.8079	0.2528
250.0228	0.2723
250.2378	0.2498
250.4528	0.2546
250.6677	0.2423
250.8827	0.2346
251.0976	0.2422
251.3125	0.2476
251.5274	0.245
251.7423	0.2359
251.9572	0.2322
252.172	0.2196
252.3869	0.2297
252.6017	0.2245
252.8166	0.212
253.0314	0.2159
253.2462	0.2168
253.461	0.2226
253.6758	0.2131
253.8906	0.2129
254.1053	0.2043
254.3201	0.2112
254.5348	0.2019
254.7496	0.2016
254.9643	0.195
255.179	0.1861
255.3937	0.2016
255.6083	0.2063
255.823	0.1903
256.0377	0.1901
256.2523	0.1934
256.467	0.1876
256.6816	0.1948
256.8962	0.2008
257.1108	0.1985
257.3254	0.2002
257.54	0.1984
257.7545	0.207
257.9691	0.1942
258.1836	0.1913
258.3981	0.1914
258.6127	0.1854
258.8272	0.2024
259.0417	0.1906
259.2561	0.184
259.4706	0.1761
259.6851	0.1872
259.8995	0.1828
260.114	0.1877
260.3284	0.1847
260.5428	0.1922
260.7572	0.1891
260.9716	0.1983
261.186	0.1941
261.4003	0.1873
261.6147	0.1864
261.829	0.1983
262.0433	0.1767
262.2577	0.176
262.472	0.1947
262.6863	0.1961
262.9005	0.1944
263.1148	0.1976
263.3291	0.1828
263.5433	0.189
263.7576	0.1985
263.9718	0.1931
264.186	0.1946
264.4002	0.2014
264.6144	0.1756
264.8286	0.1965
265.0427	0.1856
265.2569	0.2037
265.471	0.1783
265.6851	0.1667
265.8993	0.1789
266.1134	0.1815
266.3275	0.1874
266.5415	0.1911
266.7556	0.1795
266.9697	0.1939
267.1837	0.1838
267.3978	0.1985
267.6118	0.1862
267.8258	0.1918
268.0398	0.2124
268.2538	0.1878
268.4677	0.1904
268.6817	0.1963
268.8957	0.1956
269.1096	0.1946
269.3235	0.1808
269.5374	0.1846
269.7514	0.1716
269.9652	0.1787
270.1791	0.1846
270.393	0.1771
270.6068	0.1888
270.8207	0.1867
271.0345	0.1699
271.2483	0.1773
271.4622	0.1849
271.676	0.1837
271.8897	0.1916
272.1035	0.1907
272.3173	0.176
272.531	0.175
272.7448	0.1651
272.9585	0.1785
273.1722	0.1846
273.3859	0.1833
273.5996	0.1769
273.8133	0.1804
274.0269	0.1862
274.2406	0.1781
274.4542	0.1817
274.6679	0.1796
274.8815	0.1764
275.0951	0.1852
275.3087	0.1706
275.5223	0.1704
275.7358	0.1824
275.9494	0.1842
276.1629	0.1813
276.3765	0.1709
276.59	0.177
276.8035	0.18
277.017	0.1792
277.2305	0.1847
277.444	0.1829
277.6574	0.1754
277.8709	0.1757
278.0843	0.1872
278.2978	0.1901
278.5112	0.1859
278.7246	0.1702
278.938	0.1799
279.1513	0.1879
279.3647	0.1861
279.5781	0.1832
279.7914	0.1835
280.0047	0.1838
280.2181	0.1874
280.4314	0.1709
280.6447	0.1941
280.8579	0.1959
281.0712	0.182
281.2845	0.1801
281.4977	0.1983
281.711	0.1897
281.9242	0.1851
282.1374	0.1749
282.3506	0.1867
282.5638	0.1861
282.7769	0.1874
282.9901	0.178
283.2033	0.1804
283.4164	0.1756
283.6295	0.1846
283.8426	0.1931
284.0557	0.1815
284.2688	0.183
284.4819	0.1888
284.695	0.203
284.908	0.1892
285.1211	0.1858
285.3341	0.1867
285.5471	0.1844
285.7601	0.197
285.9731	0.1825
286.1861	0.1967
286.3991	0.1921
286.612	0.1839
286.825	0.1791
287.0379	0.1894
287.2508	0.1817
287.4637	0.1877
287.6766	0.1668
287.8895	0.1795
288.1024	0.1847
288.3152	0.1832
288.5281	0.1878
288.7409	0.1951
288.9538	0.1865
289.1666	0.1989
289.3794	0.1882
289.5922	0.1752
289.8049	0.1758
290.0177	0.1724
290.2304	0.1736
290.4432	0.1777
290.6559	0.1933
290.8686	0.1747
291.0813	0.182
291.294	0.1999
291.5067	0.1815
291.7194	0.1816
291.932	0.1885
292.1447	0.1916
292.3573	0.1862
292.5699	0.1901
292.7825	0.1735
292.9951	0.1938
293.2077	0.1884
293.4203	0.1848
293.6328	0.183
293.8454	0.1739
294.0579	0.1904
294.2704	0.1795
294.4829	0.1813
294.6954	0.1848
294.9079	0.1746
295.1204	0.1829
295.3328	0.177
295.5453	0.1539
295.7577	0.1756
295.9701	0.1794
296.1825	0.1801
296.3949	0.1693
296.6073	0.1835
296.8197	0.1767
297.0321	0.176
297.2444	0.1614
297.4567	0.1766
297.6691	0.1739
297.8814	0.1846
298.0937	0.18
298.306	0.1776
298.5182	0.1812
298.7305	0.1732
298.9428	0.1842
299.155	0.174
299.3672	0.1531
299.5794	0.1779
299.7916	0.1662
300.0038	0.1788
300.216	0.1792
300.4282	0.1833
300.6403	0.1782
300.8525	0.1812
301.0646	0.1677
301.2767	0.1698
301.4888	0.1739
301.7009	0.1683
301.913	0.1734
302.125	0.1716
302.3371	0.1789
302.5491	0.1652
302.7612	0.1565
302.9732	0.1696
303.1852	0.1706
303.3972	0.1628
303.6092	0.1728
303.8211	0.1767
304.0331	0.1532
304.245	0.164
304.457	0.1741
304.6689	0.1635
304.8808	0.1594
305.0927	0.1707
305.3046	0.1667
305.5164	0.1645
305.7283	0.1713
305.9401	0.1506
306.152	0.1477
306.3638	0.1561
306.5756	0.1576
306.7874	0.1468
306.9992	0.1425
307.2109	0.1542
307.4227	0.1589
307.6344	0.1486
307.8462	0.1303
308.0579	0.1522
308.2696	0.149
308.4813	0.1383
308.693	0.1488
308.9046	0.1372
309.1163	0.1411
309.328	0.1334
309.5396	0.1435
309.7512	0.1264
309.9628	0.1283
310.1744	0.1254
310.386	0.1179
310.5976	0.1302
310.8091	0.1241
311.0207	0.125
311.2322	0.1163
311.4437	0.128
311.6552	0.1211
311.8667	0.123
312.0782	0.1179
312.2897	0.114
312.5012	0.1168
312.7126	0.1219
312.924	0.1038
313.1355	0.1361
313.3469	0.1188
313.5583	0.1047
313.7696	0.1165
313.981	0.1231
314.1924	0.1188
314.4037	0.1122
314.6151	0.1146
314.8264	0.1161
315.0377	0.1095
315.249	0.1114
315.4603	0.1122
315.6716	0.1219
315.8828	0.1057
316.0941	0.0959
316.3053	0.1032
316.5165	0.1226
316.7277	0.1074
316.9389	0.1134
317.1501	0.1062
317.3613	0.0931
317.5724	0.1157
317.7836	0.1006
317.9947	0.1057
318.2058	0.1075
318.417	0.1098
318.6281	0.1123
318.8391	0.1081
319.0502	0.1133
319.2613	0.1096
319.4723	0.1033
319.6834	0.1069
319.8944	0.1017
320.1054	0.1151
320.3164	0.1017
320.5274	0.0889
320.7383	0.1051
320.9493	0.0997
321.1602	0.1175
321.3712	0.107
321.5821	0.1195
321.793	0.1057
322.0039	0.1009
322.2148	0.1101
322.4257	0.1039
322.6365	0.1067
322.8474	0.0978
323.0582	0.1073
323.269	0.1004
323.4798	0.1127
323.6906	0.101
323.9014	0.1198
324.1122	0.1076
324.3229	0.1178
324.5337	0.1083
324.7444	0.1161
324.9551	0.1203
325.1658	0.1177
325.3765	0.114
325.5872	0.1183
325.7979	0.1101
326.0085	0.112
326.2192	0.1047
326.4298	0.116
326.6404	0.113
326.851	0.1154
327.0616	0.1154
327.2722	0.1264
327.4828	0.1244
327.6933	0.1237
327.9039	0.1181
328.1144	0.108
328.3249	0.1055
328.5354	0.1133
328.7459	0.1156
328.9564	0.1069
329.1669	0.1169
329.3773	0.1121
329.5878	0.1075
329.7982	0.1063
330.0086	0.1032
330.219	0.1065
330.4294	0.1005
330.6398	0.1094
330.8502	0.1217
331.0605	0.1218
331.2708	0.1014
331.4812	0.1123
331.6915	0.105
331.9018	0.1114
332.1121	0.1159
332.3224	0.1039
332.5326	0.113
332.7429	0.0976
332.9531	0.1116
333.1633	0.1161
333.3735	0.1144
333.5837	0.12
333.7939	0.0987
334.0041	0.1122
334.2143	0.11
334.4244	0.1198
334.6346	0.0883
334.8447	0.1101
335.0548	0.1189
335.2649	0.1272
335.475	0.1034
335.685	0.0956
335.8951	0.1145
336.1051	0.1053
336.3152	0.1403
336.5252	0.1188
336.7352	0.124
336.9452	0.1237
337.1552	0.127
337.3652	0.1197
337.5751	0.1172
337.7851	0.1011
337.995	0.1241
338.2049	0.1106
338.4148	0.1206
338.6247	0.1164
338.8346	0.1281
339.0445	0.1279
339.2543	0.1247
339.4642	0.1228
339.674	0.1245
339.8838	0.1176
340.0936	0.1288
340.3034	0.138
340.5132	0.126
340.7229	0.1337
340.9327	0.1148
341.1424	0.1132
341.3522	0.1172
341.5619	0.1127
341.7716	0.1218
341.9813	0.1292
342.1909	0.1287
342.4006	0.1218
342.6102	0.1271
342.8199	0.1233
343.0295	0.1217
343.2391	0.1377
343.4487	0.1272
343.6583	0.1225
343.8679	0.1373
344.0774	0.1434
344.287	0.1178
344.4965	0.1342
344.706	0.1475
344.9155	0.1318
345.125	0.1347
345.3345	0.1273
345.544	0.1372
345.7534	0.1391
345.9629	0.1179
346.1723	0.1319
346.3817	0.1286
346.5911	0.1343
346.8005	0.1349
347.0099	0.135
347.2193	0.1421
347.4286	0.1369
347.638	0.1326
347.8473	0.1353
348.0566	0.127
348.2659	0.1431
348.4752	0.1547
348.6845	0.1454
348.8937	0.1536
349.103	0.1501
349.3122	0.1333
349.5214	0.1405
349.7306	0.1384
349.9398	0.1419
350.149	0.1333
350.3582	0.1439
350.5674	0.1613
350.7765	0.1389
350.9856	0.142
351.1948	0.1417
351.4039	0.1707
351.613	0.1369
351.822	0.1459
352.0311	0.1349
352.2402	0.1273
352.4492	0.1442
352.6582	0.1565
352.8672	0.1452
353.0762	0.1486
353.2852	0.1543
353.4942	0.1527
353.7032	0.1491
353.9121	0.1588
354.1211	0.1296
354.33	0.1586
354.5389	0.1588
354.7478	0.1589
354.9567	0.1535
355.1655	0.1506
355.3744	0.1418
355.5833	0.1855
355.7921	0.16
356.0009	0.1598
356.2097	0.1518
356.4185	0.1436
356.6273	0.16
356.8361	0.156
357.0448	0.1496
357.2536	0.1461
357.4623	0.1728
357.671	0.1488
357.8797	0.1665
358.0884	0.1618
358.2971	0.1514
358.5057	0.1707
358.7144	0.1683
358.923	0.1694
359.1316	0.1659
359.3402	0.1748
359.5488	0.1568
359.7574	0.166
359.966	0.1682
360.1746	0.1709
360.3831	0.1722
360.5916	0.184
360.8002	0.1835
361.0087	0.1819
361.2172	0.1774
361.4256	0.1746
361.6341	0.1773
361.8426	0.1836
362.051	0.1764
362.2594	0.1938
362.4678	0.1743
362.6762	0.1828
362.8846	0.1772
363.093	0.1836
363.3014	0.1748
363.5097	0.1978
363.718	0.1912
363.9264	0.1941
364.1347	0.1848
364.343	0.1945
364.5513	0.1838
364.7595	0.1893
364.9678	0.1857
365.176	0.2003
365.3842	0.1893
365.5925	0.1803
365.8007	0.1909
366.0089	0.1979
366.217	0.1935
366.4252	0.1975
366.6333	0.1913
366.8415	0.195
367.0496	0.2005
367.2577	0.2022
367.4658	0.2056
367.6739	0.2055
367.882	0.2063
368.09	0.2289
368.2981	0.1929
368.5061	0.2017
368.7141	0.2084
368.9221	0.1956
369.1301	0.2113
369.3381	0.222
369.5461	0.2137
369.754	0.2066
369.962	0.1912
370.1699	0.2056
370.3778	0.216
370.5857	0.2351
370.7936	0.2293
371.0015	0.2347
371.2093	0.2204
371.4172	0.2177
371.625	0.2269
371.8328	0.21
372.0406	0.2236
372.2484	0.1994
372.4562	0.2151
372.664	0.2238
372.8717	0.2081
373.0795	0.2103
373.2872	0.2265
373.4949	0.2337
373.7026	0.2117
373.9103	0.2124
374.118	0.2111
374.3256	0.2226
374.5333	0.2318
374.7409	0.2096
374.9485	0.2191
375.1561	0.2233
375.3637	0.2023
375.5713	0.2283
375.7789	0.2213
375.9864	0.2199
376.194	0.2212
376.4015	0.2223
376.609	0.2244
376.8165	0.2143
377.024	0.2154
377.2315	0.226
377.4389	0.2349
377.6464	0.2385
377.8538	0.2101
378.0612	0.2238
378.2686	0.2232
378.476	0.2281
378.6834	0.2299
378.8908	0.2279
379.0981	0.219
379.3055	0.2621
379.5128	0.2408
379.7201	0.244
379.9274	0.2322
380.1347	0.2371
380.342	0.2175
380.5492	0.2304
380.7565	0.2549
380.9637	0.2388
381.1709	0.2228
381.3781	0.2407
381.5853	0.2434
381.7925	0.2504
381.9997	0.2119
382.2068	0.248
382.4139	0.2518
382.6211	0.2637
382.8282	0.2293
383.0353	0.2224
383.2424	0.2534
383.4494	0.2352
383.6565	0.2343
383.8635	0.2288
384.0706	0.2455
384.2776	0.2611
384.4846	0.217
384.6916	0.2595
384.8986	0.2251
385.1055	0.2367
385.3125	0.2372
385.5194	0.241
385.7263	0.2473
385.9333	0.2462
386.1402	0.2348
386.347	0.241
386.5539	0.2438
386.7608	0.2367
386.9676	0.2402
387.1744	0.2416
387.3813	0.2498
387.5881	0.2434
387.7948	0.2541
388.0016	0.2312
388.2084	0.2369
388.4151	0.2224
388.6219	0.2513
388.8286	0.2356
389.0353	0.2365
389.242	0.2215
389.4487	0.2505
389.6553	0.2246
389.862	0.238
390.0686	0.2407
390.2753	0.2398
390.4819	0.238
390.6885	0.2243
390.8951	0.2232
391.1016	0.2348
391.3082	0.2369
391.5147	0.2371
391.7213	0.2152
391.9278	0.2218
392.1343	0.2117
392.3408	0.2225
392.5473	0.2329
392.7537	0.2066
392.9602	0.2308
393.1666	0.2154
393.373	0.2107
393.5794	0.2141
393.7858	0.2129
393.9922	0.2408
394.1986	0.2285
394.4049	0.2123
394.6113	0.2081
394.8176	0.2163
395.0239	0.2221
395.2302	0.2048
395.4365	0.2002
395.6428	0.2154
395.8491	0.1926
396.0553	0.2242
396.2615	0.211
396.4678	0.2075
396.674	0.1927
396.8802	0.2148
397.0863	0.1937
397.2925	0.196
397.4987	0.2065
397.7048	0.199
397.9109	0.2172
398.117	0.2048
398.3231	0.1995
398.5292	0.2232
398.7353	0.197
398.9413	0.1893
399.1474	0.202
399.3534	0.197
399.5594	0.2061
399.7654	0.2191
399.9714	0.1954
400.1774	0.1972
400.3833	0.1974
400.5893	0.1938
400.7952	0.1992
401.0011	0.211
401.207	0.1985
401.4129	0.1915
401.6188	0.1931
401.8247	0.1972
402.0305	0.2011
402.2364	0.2299
402.4422	0.1964
402.648	0.2055
402.8538	0.1921
403.0596	0.1788
403.2654	0.1997
403.4711	0.1862
403.6768	0.1855
403.8826	0.2015
404.0883	0.1884
404.294	0.1988
404.4997	0.1913
404.7054	0.1993
404.911	0.1942
405.1167	0.1881
405.3223	0.1984
405.5279	0.2048
405.7335	0.2007
405.9391	0.2119
406.1447	0.1995
406.3502	0.1995
406.5558	0.1895
406.7613	0.2101
406.9668	0.1859
407.1724	0.1969
407.3778	0.1964
407.5833	0.1911
407.7888	0.2013
407.9942	0.192
408.1997	0.2001
408.4051	0.1801
408.6105	0.1787
408.8159	0.1953
409.0213	0.1936
409.2267	0.1914
409.432	0.2032
409.6374	0.2036
409.8427	0.1939
410.048	0.1955
410.2533	0.2144
410.4586	0.1668
410.6639	0.1951
410.8691	0.1773
411.0744	0.2108
411.2796	0.1917
411.4848	0.2168
411.69	0.1834
411.8952	0.1961
412.1004	0.193
412.3056	0.1921
412.5107	0.1715
412.7158	0.1771
412.921	0.198
413.1261	0.1967
413.3312	0.1836
413.5362	0.1821
413.7413	0.1949
413.9464	0.2055
414.1514	0.203
414.3564	0.1921
414.5614	0.1543
414.7664	0.192
414.9714	0.1968
415.1764	0.1964
415.3813	0.1836
415.5863	0.1982
415.7912	0.189
415.9961	0.1939
416.201	0.195
416.4059	0.1767
416.6108	0.1911
416.8156	0.196
417.0205	0.1904
417.2253	0.1793
417.4301	0.1721
417.6349	0.1847
417.8397	0.1888
418.0445	0.1886
418.2492	0.1713
418.454	0.1738
418.6587	0.1933
418.8634	0.2023
419.0681	0.1943
419.2728	0.1722
419.4775	0.1832
419.6822	0.1911
419.8868	0.1725
420.0915	0.1721
420.2961	0.18
420.5007	0.1713
420.7053	0.1758
420.9099	0.1781
421.1144	0.1979
421.319	0.1834
421.5235	0.1981
421.728	0.163
421.9325	0.1912
422.137	0.178
422.3415	0.169
422.546	0.1793
422.7504	0.198
422.9549	0.1788
423.1593	0.17
423.3637	0.1648
423.5681	0.1704
423.7725	0.1653
423.9769	0.1843
424.1812	0.181
424.3856	0.1664
424.5899	0.1928
424.7942	0.1722
424.9985	0.1716
425.2028	0.153
425.4071	0.1614
425.6113	0.1642
425.8156	0.1714
426.0198	0.1597
426.224	0.1711
426.4282	0.1624
426.6324	0.1723
426.8366	0.1609
427.0407	0.1598
427.2449	0.1476
427.449	0.146
427.6531	0.1441
427.8572	0.1454
428.0613	0.1582
428.2654	0.1212
428.4694	0.1634
428.6735	0.1375
428.8775	0.1413
429.0815	0.1475
429.2855	0.1537
429.4895	0.1467
429.6935	0.1467
429.8975	0.1512
430.1014	0.1179
430.3053	0.1369
430.5093	0.1577
430.7132	0.1336
430.9171	0.1357
431.1209	0.1237
431.3248	0.1455
431.5286	0.1047
431.7325	0.1311
431.9363	0.1304
432.1401	0.1378
432.3439	0.1362
432.5477	0.1293
432.7514	0.1305
432.9552	0.1019
433.1589	0.1156
433.3627	0.1077
433.5664	0.1116
433.7701	0.1097
433.9737	0.0985
434.1774	0.1199
434.3811	0.101
434.5847	0.1121
434.7883	0.0962
434.9919	0.0932
435.1955	0.1045
435.3991	0.1078
435.6027	0.1108
435.8062	0.1146
436.0098	0.0888
436.2133	0.0925
436.4168	0.0923
436.6203	0.0876
436.8238	0.0824
437.0272	0.093
437.2307	0.1069
437.4341	0.0893
437.6375	0.0964
437.841	0.0871
438.0443	0.0947
438.2477	0.0885
438.4511	0.0817
438.6545	0.0865
438.8578	0.0786
439.0611	0.0789
439.2644	0.0732
439.4677	0.0797
439.671	0.0714
439.8743	0.0829
440.0775	0.0691
440.2808	0.0622
440.484	0.0786
440.6872	0.069
440.8904	0.0691
441.0936	0.0622
441.2967	0.0588
441.4999	0.0542
441.703	0.0683
441.9062	0.0618
442.1093	0.063
442.3124	0.0801
442.5155	0.0581
442.7185	0.0592
442.9216	0.0385
443.1246	0.0543
443.3276	0.0657
443.5307	0.0443
443.7337	0.0557
443.9366	0.0541
444.1396	0.0364
444.3426	0.0316
444.5455	0.0647
444.7484	0.0395
444.9513	0.0543
445.1542	0.0421
445.3571	0.0464
445.56	0.0493
445.7628	0.0576
445.9657	0.0368
446.1685	0.0485
446.3713	0.045
446.5741	0.046
446.7769	0.0524
446.9797	0.037
447.1824	0.0232
447.3852	0.0632
447.5879	0.0362
447.7906	0.0489
447.9933	0.0273
448.196	0.0543
448.3986	0.0471
448.6013	0.0213
448.8039	0.0342
449.0066	0.0214
449.2092	0.0398
449.4118	0.0279
449.6143	0.0292
449.8169	0.0366
450.0195	0.0125
450.222	0.0239
450.4245	0.0266
450.627	0.0175
450.8295	0.0361
451.032	0.0248
451.2345	0.018
451.4369	0.0316
451.6394	0.0176
451.8418	-0.0055
452.0442	0.0186
452.2466	0.0107
452.449	0.0255
452.6513	0.0288
452.8537	0.0252
453.056	0.0004
453.2583	0.0153
453.4607	0.0075
453.663	0.021
453.8652	0.034
454.0675	0.0013
454.2697	0.0215
454.472	0.0153
454.6742	0.0217
454.8764	0.0097
455.0786	0.0064
455.2808	0.0095
455.4829	0.0258
455.6851	0.0204
455.8872	0.024
456.0893	0.0133
456.2915	0.0106
456.4935	0.0082
456.6956	-0.0041
456.8977	0.012
457.0997	0.0246
457.3018	0.0157
457.5038	0.0261
457.7058	0.0153
457.9078	0.0175
458.1098	0.005
458.3117	0.0227
458.5137	-0.0041
458.7156	0.0055
458.9175	-0.001
459.1194	0.0071
459.3213	0.0053
459.5232	-0.0229
459.725	0.0082
459.9269	0.009
460.1287	0.0075
460.3305	-0.0046
460.5323	0.0147
460.7341	0.0051
460.9359	0.0123
461.1376	0.0105
461.3394	-0.0098
461.5411	-0.0047
461.7428	0.0267
461.9445	0.0042
462.1462	0.0033
462.3479	0.0015
462.5495	-0.0026
462.7512	0.0122
462.9528	0.0188
463.1544	0.0202
463.356	0.0162
463.5576	-0.0009
463.7592	-0.0155
463.9607	0.0074
464.1623	0.0056
464.3638	0.0081
464.5653	-0.0016
464.7668	0.0095
464.9683	0.0066
465.1697	0.0111
465.3712	0.0123
465.5726	0.0151
465.7741	0.0142
465.9755	-0.004
466.1769	0.0162
466.3782	0.0064
466.5796	-0.0034
466.7809	0.0129
466.9823	0.0014
467.1836	0.0196
467.3849	0.0092
467.5862	-0.0077
467.7875	0.0152
467.9887	0.0066
468.19	-0.0032
468.3912	0.0155
468.5924	0.0001
468.7936	0.0088
468.9948	-0.0006
469.196	0.0178
469.3972	-0.014
469.5983	-0.0009
469.7994	-0.0124
470.0006	-0.0158
470.2017	0.0104
470.4027	-0.0047
470.6038	0.002
470.8049	0.0022
471.0059	0.0068
471.2069	-0.0119
471.408	-0.0116
471.6089	0.003
471.8099	0.0076
472.0109	0.0006
472.2119	0.0151
472.4128	-0.017
472.6137	0.001
472.8146	-0.0134
473.0155	-0.0095
473.2164	-0.0121
473.4173	0.0021
473.6181	-0.0036
473.819	-0.0118
474.0198	-0.0154
474.2206	-0.0085
474.4214	0.0128
474.6222	-0.0083
474.8229	-0.017
475.0237	-0.0047
475.2244	0.002
475.4251	-0.0041
475.6258	-0.0004
475.8265	-0.0166
476.0272	0.0009
476.2278	-0.0123
476.4285	-0.0079
476.6291	-0.0068
476.8297	0.006
477.0303	-0.0042
477.2309	-0.0112
477.4315	0.0009
477.632	-0.0121
477.8326	-0.0133
478.0331	-0.0184
478.2336	-0.0024
478.4341	-0.011
478.6346	-0.0132
478.8351	0.0048
479.0355	-0.0262
479.236	-0.0146
479.4364	0.0065
479.6368	0.0111
479.8372	-0.0163
480.0376	-0.0141
480.2379	-0.0132
480.4383	-0.0021
480.6386	0.0041
480.8389	-0.0134
481.0392	-0.0023
481.2395	-0.0149
481.4398	-0.0119
481.6401	-0.0004
481.8403	0.0035
482.0405	-0.0103
482.2408	-0.0171
482.441	-0.0147
482.6411	-0.0147
482.8413	-0.0128
483.0415	-0.0058
483.2416	-0.0079
483.4417	0.0118
483.6419	-0.0173
483.8419	-0.0028
484.042	0.0017
484.2421	-0.0065
484.4422	-0.0115
484.6422	0.0022
484.8422	-0.0058
485.0422	0.0022
485.2422	-0.0057
485.4422	-0.0034
485.6422	-0.0122
485.8421	-0.0018
486.042	0.0065
486.242	-0.0076
486.4419	-0.0039
486.6417	0.0061
486.8416	-0.0147
487.0415	-0.0147
487.2413	-0.0058
487.4411	0.0046
487.641	0.0002
487.8408	-0.0094
488.0405	-0.0067
488.2403	-0.0055
488.4401	-0.002
488.6398	-0.0065
488.8395	-0.0243
489.0392	-0.0126
489.2389	-0.0194
489.4386	-0.0057
489.6383	-0.0143
489.8379	-0.0078
490.0376	-0.0036
490.2372	-0.0114
490.4368	-0.0063
490.6364	-0.0047
490.836	-0.0198
491.0355	-0.0149
491.2351	-0.0022
491.4346	-0.0111
491.6341	-0.0038
491.8336	-0.0125
492.0331	-0.0084
492.2326	-0.005
492.432	-0.0082
492.6315	-0.0107
492.8309	-0.0015
493.0303	-0.0122
493.2297	-0.0076
493.4291	-0.014
493.6284	-0.0203
493.8278	-0.0008
494.0271	-0.0017
494.2264	-0.009
494.4257	-0.0032
494.625	-0.0028
494.8243	-0.0076
495.0236	-0.009
495.2228	-0.0057
495.422	-0.0071
495.6213	-0.0145
495.8205	-0.01
496.0196	-0.0129
496.2188	-0.0014
496.418	-0.0148
496.6171	-0.0149
496.8162	-0.0143
497.0153	-0.0058
497.2144	0.0008
497.4135	0.0016
497.6126	-0.0171
497.8116	-0.0151
498.0107	-0.0149
498.2097	-0.0054
498.4087	-0.0196
498.6077	-0.0148
498.8067	-0.0049
499.0056	-0.0069
499.2046	0.0006
499.4035	-0.0156
499.6024	-0.008
499.8013	-0.0145
500.0002	-0.0188
500.199	-0.0074
500.3979	-0.001
500.5967	-0.0175
500.7956	-0.0059
500.9944	-0.0168
501.1932	-0.0077
501.3919	-0.0067
501.5907	-0.0117
501.7895	-0.0161
501.9882	-0.0108
502.1869	-0.0015
502.3856	-0.0324
502.5843	-0.0135
502.783	-0.0023
502.9816	0.0052
503.1803	-0.0166
503.3789	-0.0025
503.5775	-0.0101
503.7761	-0.0182
503.9747	-0.0147
504.1732	-0.0069
504.3718	-0.0045
504.5703	-0.0094
504.7689	-0.0084
504.9674	-0.0096
505.1658	-0.0071
505.3643	-0.0076
505.5628	0.0003
505.7612	-0.0124
505.9597	-0.01
506.1581	0.0026
506.3565	-0.0084
506.5549	-0.0068
506.7532	-0.0033
506.9516	-0.0086
507.1499	-0.0203
507.3482	-0.0137
507.5465	0.0066
507.7448	-0.0037
507.9431	-0.007
508.1414	-0.0166
508.3396	-0.015
508.5379	-0.0126
508.7361	-0.008
508.9343	-0.0163
509.1325	0.0042
509.3306	-0.0161
509.5288	-0.0097
509.7269	0.0062
509.9251	-0.0099
510.1232	0.0009
510.3213	-0.0022
510.5193	-0.0123
510.7174	-0.0223
510.9154	-0.0037
511.1135	-0.0086
511.3115	-0.0058
511.5095	-0.0041
511.7075	-0.0078
511.9055	-0.0154
512.1034	-0.0032
512.3014	-0.0153
512.4993	0.0036
512.6972	-0.0163
512.8951	0.0037
513.093	-0.0106
513.2908	-0.0124
513.4887	0.0021
513.6865	0.0014
513.8844	0.0002
514.0822	0.0035
514.2799	-0.0108
514.4777	-0.0032
514.6755	-0.0062
514.8732	-0.0119
515.0709	-0.0092
515.2687	0.0011
515.4664	0.0044
515.664	-0.0213
515.8617	-0.0008
516.0594	0.0002
516.257	0.0031
516.4546	-0.0067
516.6522	-0.0018
516.8498	-0.0134
517.0474	0.001
517.2449	-0.0096
517.4425	-0.0018
517.64	-0.0051
517.8375	-0.0005
518.035	-0.0102
518.2325	-0.0109
518.43	-0.0097
518.6274	-0.0118
518.8249	0.0117
519.0223	-0.0023
519.2197	0.0025
519.4171	-0.0074
519.6145	0.016
519.8118	-0.0034
520.0092	0.003
520.2065	-0.0156
520.4038	-0.012
520.6011	-0.0032
520.7984	-0.0085
520.9956	0.0074
521.1929	-0.0077
521.3901	-0.0118
521.5874	-0.0044
521.7846	-0.0011
521.9818	0.0038
522.1789	0.0029
522.3761	0.0014
522.5732	-0.013
522.7704	-0.0001
522.9675	-0.0069
523.1646	-0.001
523.3617	-0.002
523.5587	0.0046
523.7558	-0.0132
523.9528	-0.0055
524.1498	-0.004
524.3468	-0.0039
524.5438	-0
524.7408	-0.0057
524.9378	0.0056
525.1347	-0.0088
525.3316	-0.0012
525.5285	-0.0157
525.7254	-0
525.9223	-0.0059
526.1192	-0.0111
526.316	0.0003
526.5129	0.001
526.7097	-0.001
526.9065	0.0091
527.1033	0.0066
527.3	-0.0066
527.4968	-0.0148
527.6935	0.0033
527.8903	0.0115
528.087	0.0051
528.2837	0.0155
528.4804	0.008
528.677	0.0001
528.8737	-0.0037
529.0703	0.0088
529.2669	0.0046
529.4635	0.0128
529.6601	0.0011
529.8567	0.0095
530.0532	-0.0011
530.2498	0.0007
530.4463	0.0036
530.6428	-0.0058
530.8393	0.0012
531.0358	-0.0006
531.2322	0.0088
531.4287	0.0037
531.6251	0.0003
531.8215	-0.0109
532.0179	0.0015
532.2143	0.001
532.4107	0.0045
532.607	-0.0073
532.8034	-0.0063
532.9997	-0.0043
533.196	-0.0007
533.3923	0.0028
533.5886	-0.0064
533.7848	0.0011
533.9811	-0.0071
534.1773	-0.0076
534.3735	0.0022
534.5697	-0.0116
534.7659	-0.0049
534.9621	-0.0043
535.1582	0.0046
535.3544	-0.003
535.5505	-0.0099
535.7466	0.004
535.9427	-0.005
536.1387	-0.0084
536.3348	-0.0001
536.5308	-0.0111
536.7269	0.0044
536.9229	0.0028
537.1189	-0.003
537.3148	-0.0136
537.5108	0.0047
537.7068	-0.0078
537.9027	-0.0048
538.0986	0.0002
538.2945	-0.0007
538.4904	0.0001
538.6863	0.0014
538.8821	-0.0017
539.078	-0.007
539.2738	0.0024
539.4696	-0.0102
539.6654	0.0031
539.8611	0.0076
540.0569	0.0004
540.2526	-0.0005
540.4484	0.0004
540.6441	0.0026
540.8398	-0.0074
541.0355	0.0109
541.2311	-0.0054
541.4268	0.0056
541.6224	0.007
541.818	0.009
542.0136	-0.0043
542.2092	-0.0038
542.4048	0.0126
542.6003	0.0092
542.7959	0.0042
542.9914	0.0047
543.1869	-0.0057
543.3824	-0.0058
543.5779	0.0042
543.7734	0.0051
543.9688	0.0066
544.1642	0.0004
544.3596	0.0033
544.555	-0.0053
544.7504	0.0084
544.9458	-0.0055
545.1411	0.0012
545.3365	0.0073
545.5318	0.0014
545.7271	-0.0032
545.9224	-0.0031
546.1177	-0.0051
546.3129	0.0026
546.5081	-0.0095
546.7034	0.0015
546.8986	-0.0043
547.0938	0.0028
547.289	0.004
547.4841	0.0078
547.6793	-0.0065
547.8744	0.0137
548.0695	0.0039
548.2646	-0.0034
548.4597	-0.0035
548.6548	0.0075
548.8498	0.006
549.0448	-0.0006
549.2399	-0.0057
549.4349	-0.0033
549.6298	0.0026
549.8248	0.004
550.0198	0.0038
550.2147	-0.0037
550.4096	-0.0038
550.6045	-0.0111
550.7994	-0.0046
550.9943	-0.0024
551.1892	-0.0076
551.384	-0.0097
551.5788	0.0042
551.7737	-0.0047
551.9685	-0.0027
552.1632	0.0063
552.358	-0.005
552.5528	0.0023
552.7475	-0.006
552.9422	0.0087
553.1369	0.0004
553.3316	-0.0061
553.5263	0.0089
553.7209	-0.006
553.9156	0.0078
554.1102	-0.0082
554.3048	-0.0015
554.4994	0.0084
554.694	0.0007
554.8885	0.0023
555.0831	0.0016
555.2776	0.0053
555.4721	0.0113
555.6666	-0.0052
555.8611	0.0046
556.0555	0.0018
556.25	0.0078
556.4444	0.018
556.6388	0.0095
556.8332	0.004
557.0276	0.0025
557.222	-0
557.4163	0.0106
557.6107	0.015
557.805	0.0062
557.9993	-0.0103
558.1936	0.0108
558.3879	0.0093
558.5821	0.0142
558.7764	0.0031
558.9706	0.0031
559.1648	0.0095
559.359	0.0124
559.5532	0.001
559.7473	0.0151
559.9415	0.0027
560.1356	0.0099
560.3297	0.0015
560.5238	0.0028
560.7179	0.0072
560.9119	-0.0039
561.106	0.0059
561.3	0.0135
561.494	0.0092
561.688	0.0041
561.882	0.0021
562.076	-0.0028
562.2699	-0.0026
562.4639	0.004
562.6578	-0.0039
562.8517	0.007
563.0456	-0.0002
563.2395	0.0047
563.4333	-0.0016
563.6272	0.0079
563.821	-0.0098
564.0148	0.0085
564.2086	-0.0115
564.4024	-0.0103
564.5961	0.0063
564.7899	-0.0058
564.9836	0.0126
565.1773	0.0087
565.371	0.0103
565.5647	-0.0085
565.7584	0.0007
565.952	0.0131
566.1456	0.0098
566.3393	-0.0022
566.5329	0.0038
566.7264	0.0045
566.92	-0.007
567.1136	0.0151
567.3071	0.0053
567.5006	-0.0021
567.6941	0.0075
567.8876	0.0134
568.0811	-0.0005
568.2745	0.0098
568.468	0.004
568.6614	0.0048
568.8548	0.0122
569.0482	0.0081
569.2416	0.0074
569.4349	0.0031
569.6283	0.0043
569.8216	0.004
570.0149	0.0091
570.2082	0.0134
570.4015	0.0003
570.5947	0.0012
570.788	0.0088
570.9812	0.0025
571.1744	0.0002
571.3676	-0.0004
571.5608	0.0007
571.754	0.0025
571.9471	0.001
572.1402	0.0035
572.3333	0.0033
572.5264	0.0078
572.7195	0.0008
572.9126	0.0034
573.1057	0.005
573.2987	0.0023
573.4917	-0.0078
573.6847	0
573.8777	-0.0014
574.0707	0.0038
574.2636	0.0072
574.4566	0.0023
574.6495	0.0022
574.8424	-0.0009
575.0353	0.0033
575.2281	0.0081
575.421	-0.0023
575.6138	-0.0001
575.8067	0.0054
575.9995	0.0038
576.1923	0.0069
576.385	-0.0042
576.5778	-0.0014
576.7706	0.0095
576.9633	-0.0019
577.156	-0.0022
577.3487	0.0056
577.5414	0.0009
577.734	-0.0072
577.9267	-0.002
578.1193	0.0075
578.3119	0.0059
578.5045	0.0096
578.6971	0.0014
578.8897	0.003
579.0822	0.0015
579.2747	0.0012
579.4673	-0.0006
579.6598	0.0104
579.8522	0.0077
580.0447	-0.0004
580.2372	0.0057
580.4296	0.0113
580.622	0.0075
580.8144	0.0041
581.0068	0.0032
581.1992	0.0087
581.3915	0.0012
581.5839	0.0104
581.7762	0.0016
581.9685	-0.0005
582.1608	0.0017
582.353	0.001
582.5453	0.0033
582.7375	-0.0044
582.9298	-0.0001
583.122	0.0084
583.3142	0.0037
583.5063	0.0044
583.6985	0.0016
583.8906	0.0029
584.0827	-0.0054
584.2749	0.0035
584.4669	-0.0036
584.659	-0.0004
584.8511	-0.0033
585.0431	0.0034
585.2352	-0.0071
585.4272	-0.001
585.6192	-0.0018
585.8111	0.0001
586.0031	-0.0014
586.195	0.0024
586.387	-0.0026
586.5789	-0.0009
586.7708	-0.0048
586.9627	0
587.1545	0.0009
587.3464	0.0098
587.5382	-0.001
587.73	0.0064
587.9218	0.0037
588.1136	0.0069
588.3053	-0.0027
588.4971	-0.0011
588.6888	0.0076
588.8805	-0.0011
589.0722	0.0058
589.2639	0.0033
589.4556	-0.0014
589.6472	-0.0006
589.8389	0.0027
590.0305	0.0077
590.2221	0.0097
590.4137	-0.0004
590.6052	0.0067
590.7968	0.0074
590.9883	-0.0018
591.1798	-0.0041
591.3713	0.0015
591.5628	-0.0024
591.7543	0.0147
591.9458	0.001
592.1372	0.0052
592.3286	0.0107
592.52	0.0045
592.7114	0.0068
592.9028	-0.0015
593.0941	0.0053
593.2855	-0.0037
593.4768	-0.0008
593.6681	-0.0063
593.8594	-0.0005
594.0506	-0.0055
594.2419	0.0017
594.4331	-0.0046
594.6244	0.0014
594.8156	0.0069
595.0067	-0.0032
595.1979	-0.0086
595.3891	0.0007
595.5802	0.0009
595.7713	-0.0057
595.9624	0.0077
596.1535	-0.0008
596.3446	0.0042
596.5357	0.0012
596.7267	0.0004
596.9177	0.0055
597.1087	0.0156
597.2997	0.0073
597.4907	0.0053
597.6817	-0.0003
597.8726	0.0116
598.0635	0.0049
598.2544	0.0083
598.4453	0.0111
598.6362	0.0072
598.827	0.0047
599.0179	0.0056
599.2087	-0.0027
599.3995	0.0088
599.5903	0.0085
599.7811	0.0088
599.9718	-0.0022
600.1626	0.0024
600.3533	-0.0019
600.544	0.0033
600.7347	0.0022
600.9254	0.0017
601.116	0.0025
601.3067	-0.0079
601.4973	-0.0002
601.6879	0.0019
601.8785	0.0003
602.0691	-0.0022
602.2596	0.007
602.4502	-0.0042
602.6407	0.002
602.8312	-0.0027
603.0217	0.0052
603.2122	-0.0023
603.4027	0.0017
603.5931	0.0059
603.7835	0.0091
603.9739	-0.0018
604.1643	0.0097
604.3547	0.0066
604.5451	0.0015
604.7354	0.006
604.9257	0.0027
605.116	-0.0005
605.3063	0.0021
605.4966	-0.0017
605.6869	0.0147
605.8771	0.0044
606.0673	0.0024
606.2575	-0.0057
606.4477	0.0035
606.6379	0.0066
606.8281	-0.0049
607.0182	-0.0007
607.2083	0.0037
607.3985	0.0045
607.5885	-0.0023
607.7786	0.0042
607.9687	0.0028
608.1587	0.0063
608.3488	0.0075
608.5388	0.0075
608.7288	-0.0025
608.9187	0.0072
609.1087	-0.0019
609.2986	0.0076
609.4886	0.0101
609.6785	0.0037
609.8684	0.0067
610.0582	0.0062
610.2481	0.0144
610.4379	-0.0023
610.6278	-0.0048
610.8176	0.0123
611.0074	0.0006
611.1971	0.0034
611.3869	-0.001
611.5766	0.0026
611.7664	0.0026
611.9561	0.0085
612.1458	0.0066
612.3354	0.0073
612.5251	0.0054
612.7147	0.0001
612.9044	0.0062
613.094	-0.0007
613.2836	0.0124
613.4731	0.0007
613.6627	0.0045
613.8522	0.0069
614.0417	0.0065
614.2313	0.0035
614.4207	0.0052
614.6102	-0.0004
614.7997	0.0022
614.9891	0.004
615.1785	0.0048
615.3679	0.0114
615.5573	0.0001
615.7467	0.0052
615.9361	0
616.1254	0.0059
616.3147	-0
616.504	0.0033
616.6933	0.0035
616.8826	0.0018
617.0718	0.0061
617.2611	0.0059
617.4503	0.0125
617.6395	0.0052
617.8287	0.0085
618.0179	-0.002
618.207	0.0095
618.3961	0.0023
618.5853	0.0031
618.7744	0.0027
618.9634	0.0017
619.1525	0.0051
619.3416	0.0061
619.5306	0.0138
619.7196	-0.0035
619.9086	0.0045
620.0976	0.0122
620.2866	0.0085
620.4755	0.0086
620.6645	0.0094
620.8534	0.0061
621.0423	0.0082
621.2312	0.004
621.42	0.0018
621.6089	0.0134
621.7977	0.0053
621.9865	0.016
622.1753	0.0194
622.3641	0.0122
622.5529	0.0099
622.7416	0.0092
622.9303	0.0133
623.1191	0.0092
623.3078	0.0087
623.4964	0.0086
623.6851	0.0109
623.8737	0.0157
624.0624	0.0052
624.251	0.0048
624.4396	0.0143
624.6282	0.0113
624.8167	0.0165
625.0053	0.005
625.1938	0.0087
625.3823	0.011
625.5708	0.0057
625.7593	0.0117
625.9477	0.006
626.1362	0.0044
626.3246	0.0116
626.513	-0.0022
626.7014	0.0115
626.8898	0.0027
627.0781	0.0018
627.2665	0.007
627.4548	0.0089
627.6431	-0.0014
627.8314	0.0095
628.0197	-0.0003
628.2079	0.0052
628.3962	0.0039
628.5844	0.0074
628.7726	0.0134
628.9608	0.0124
629.1489	0.0047
629.3371	0.0096
629.5252	0.0054
629.7134	0.0005
629.9015	0.0103
630.0895	0.0092
630.2776	0.0004
630.4657	0.0087
630.6537	0.0052
630.8417	0.0099
631.0297	0.0164
631.2177	0.0133
631.4057	0.0073
631.5936	0.0098
631.7815	0.014
631.9695	0.0095
632.1574	0.0091
632.3452	0.0144
632.5331	0.0018
632.7209	0.0093
632.9088	-0.0072
633.0966	0.0064
633.2844	-0.0019
633.4722	-0.0033
633.6599	0.0099
633.8477	0.0116
634.0354	0.0003
634.2231	0.0136
634.4108	0.0031
634.5985	0.009
634.7861	0.0064
634.9738	0.0195
635.1614	0.0086
635.349	0.007
635.5366	0.0094
635.7242	0.0057
635.9117	0.002
636.0993	0.0057
636.2868	0.004
636.4743	0.003
636.6618	0.012
636.8492	0.0192
637.0367	0.0017
637.2241	0.0147
637.4115	0.0068
637.5989	0.0104
637.7863	0.0113
637.9737	0.003
638.161	0.0136
638.3484	0.0103
638.5357	0.0122
638.723	0.006
638.9103	0.0034
639.0975	0.0045
639.2848	0.0087
639.472	0.0052
639.6592	0.0042
639.8464	0.0126
640.0336	0.0045
640.2208	0.0061
640.4079	0.0075
640.595	0.0008
640.7821	0.0066
640.9692	0.0053
641.1563	0.0009
641.3434	0.014
641.5304	0.0026
641.7174	0.0149
641.9044	0.0022
642.0914	0.0001
642.2784	-0.004
642.4653	0.0047
642.6523	-0.0037
642.8392	0.0025
643.0261	0.0067
643.213	-0.0015
643.3999	0.0035
643.5867	0.0119
643.7735	0.0031
643.9604	0.0036
644.1472	0.0035
644.3339	-0.0035
644.5207	0.0067
644.7075	-0.0023
644.8942	0.0079
645.0809	0.0042
645.2676	0.007
645.4543	0.0151
645.6409	0.0054
645.8276	0.0035
646.0142	0.0077
646.2008	0.0126
646.3874	0.0126
646.574	0.0079
646.7605	0.0093
646.9471	0.0113
647.1336	0.0119
647.3201	0.0082
647.5066	-0.0007
647.6931	0.0071
647.8795	-0.0015
648.0659	0.0073
648.2524	0.0101
648.4388	0.0096
648.6252	-0.0006
648.8115	0.0036
648.9979	0.0054
649.1842	0.003
649.3705	0.001
649.5568	0.0075
649.7431	0.008
649.9294	0.0142
650.1156	0.0029
650.3018	0.0129
650.488	0.0035
650.6742	-0.0001
650.8604	0.015
651.0466	0.0042
651.2327	0.009
651.4188	-0.0008
651.6049	0.0173
651.791	0.0072
651.9771	0.0066
652.1632	0.0072
652.3492	0.0107
652.5352	0.0036
652.7212	0.0058
652.9072	-0.0038
653.0932	-0.0005
653.2791	0.001
653.465	0.0021
653.651	0.0091
653.8369	0.0077
654.0227	0.0097
654.2086	0.0055
654.3944	0.0073
654.5803	-0.0034
654.7661	0.004
654.9519	0.0008
655.1377	-0.0021
655.3234	-0.0038
655.5092	-0.001
655.6949	-0.0069
655.8806	-0.0098
656.0663	0.0002
656.2519	-0.0056
656.4376	0.0016
656.6232	0.0039
656.8088	0.0046
656.9945	0.0053
657.18	-0.0019
657.3656	0.0042
657.5511	-0.0076
657.7367	0.0036
657.9222	0.0048
658.1077	0.01
658.2932	0.0058
658.4786	0.0002
658.6641	0.0054
658.8495	-0
659.0349	0.0103
659.2203	0.0036
659.4057	0.0047
659.591	0.0112
659.7764	0.0003
659.9617	-0.0034
660.147	0.0064
660.3323	-0.0008
660.5176	-0.0005
660.7028	0.0043
660.888	0.0133
661.0733	0.0074
661.2585	0.0116
661.4436	0.0126
661.6288	0.0161
661.8139	-0.0005
661.9991	-0.0074
662.1842	0.0108
662.3693	-0.0044
662.5544	0.0131
662.7394	0.0079
662.9245	0.0067
663.1095	0.011
663.2945	0.0042
663.4795	0.0046
663.6644	0.0055
663.8494	0.0096
664.0343	0.0088
664.2193	0.0126
664.4042	0.0143
664.589	0.0059
664.7739	0.0041
664.9587	0.0053
665.1436	0.0001
665.3284	0.0011
665.5132	-0.0003
665.698	0.0065
665.8827	0.0156
666.0675	0.0018
666.2522	0.0047
666.4369	0.0055
666.6216	0.0119
666.8063	0.004
666.9909	-0.0002
667.1756	0.0062
667.3602	0.0089
667.5448	0.0141
667.7294	0.0069
667.9139	0.0064
668.0985	0.0069
668.283	0.005
668.4675	0.0009
668.652	0.0097
668.8365	-0.0004
669.0209	0.0129
669.2054	0.0047
669.3898	0.0055
669.5742	0.0003
669.7586	0.0035
669.943	0.0041
670.1273	0.005
670.3117	0.0073
670.496	0.006
670.6803	0.0053
670.8646	0.0071
671.0488	0.0092
671.2331	0.0168
671.4173	0.0145
671.6015	0.0127
671.7857	0.0049
671.9699	0.0092
672.1541	0.0073
672.3382	0.0113
672.5223	0.0116
672.7064	0.0023
672.8905	0.0107
673.0746	0.0078
673.2587	0.0054
673.4427	0.0076
673.6267	0.0075
673.8107	0.01
673.9947	0.0126
674.1787	0.0091
674.3626	0.0058
674.5465	0.0151
674.7304	0.0152
674.9143	0.0086
675.0982	0.0089
675.2821	-0.0037
675.4659	0.0137
675.6497	0.0053
675.8335	0.0092
676.0173	0.0116
676.2011	0.009
676.3849	0.0073
676.5686	0.0165
676.7523	0.014
676.936	-0.0029
677.1197	0.0171
677.3034	0.0098
677.487	0.005
677.6706	0.0133
677.8542	0.0114
678.0378	0.0121
678.2214	0.0032
678.405	0.0197
678.5885	0.0091
678.772	0.0129
678.9555	0.0109
679.139	0.0128
679.3225	0.0072
679.5059	0.0078
679.6894	0.0039
679.8728	0.0048
680.0562	0.0154
680.2395	0.0044
680.4229	-0.0002
680.6062	0.0051
680.7896	0.0002
680.9729	0.0053
681.1562	0.0061
681.3394	0.0129
681.5227	0.0104
681.7059	-0.0016
681.8891	0.0046
682.0723	0.0033
682.2555	0.0079
682.4387	0.011
682.6218	0.0188
682.805	0.0066
682.9881	0.0133
683.1712	0.0144
683.3542	0.0054
683.5373	0.0093
683.7203	0.0137
683.9034	0.0092
684.0864	0.0062
684.2694	0.0039
684.4523	0.0096
684.6353	0.0055
684.8182	0.0106
685.0011	0.0059
685.184	0.0075
685.3669	0.0047
685.5498	0.0007
685.7326	0.0026
685.9154	0.0087
686.0982	0.009
686.281	0.0043
686.4638	0.0052
686.6465	0.0117
686.8293	0.0109
687.012	0.0117
687.1947	0.0038
687.3774	0.0195
687.56	0.0175
687.7427	0.0125
687.9253	0.0058
688.1079	0.0149
688.2905	-0.0004
688.4731	0.0091
688.6556	0.012
688.8382	0.0042
689.0207	0.0009
689.2032	0.0068
689.3857	0.0103
689.5681	0.0078
689.7506	0.005
689.933	0.0075
690.1154	0.0036
690.2978	0.0048
690.4802	0.0102
690.6626	0.0138
690.8449	0.0113
691.0272	0.001
691.2095	0.0162
691.3918	0.0056
691.5741	0.0153
691.7563	0.0142
691.9386	0.0146
692.1208	0.0049
692.303	0.0059
692.4852	0.0128
692.6673	0.0116
692.8495	0.007
693.0316	0.0132
693.2137	0.0116
693.3958	0.0048
693.5778	0.014
693.7599	0.0127
693.9419	0.0115
694.1239	0.0142
694.3059	0.0078
694.4879	0.0092
694.6699	0.0052
694.8518	0.008
695.0337	0.0013
695.2157	0.0122
695.3975	0.0013
695.5794	0.01
695.7613	0.0092
695.9431	0.0161
696.1249	0.0076
696.3067	-0.0037
696.4885	0.014
696.6703	0.003
696.852	0.0079
697.0337	0.0169
697.2154	0.0099
697.3971	0.0127
697.5788	0.0091
697.7605	0.0051
697.9421	0.0101
698.1237	0.0176
698.3053	0.0151
698.4869	0.0098
698.6685	0.008
698.85	0.0105
699.0315	0.0179
699.213	0.0007
699.3945	-0.0015
699.576	0.0204
699.7575	0.0087
699.9389	0.0176
700.1203	0.0116
700.3017	0.0094
700.4831	0.0041
700.6645	0.0032
700.8458	0.0123
701.0271	0.0101
701.2084	0.0093
701.3897	-0.0051
701.571	-0.0007
701.7523	-0.0016
701.9335	-0.0017
702.1147	0.0044
702.2959	0.0003
702.4771	0.0089
702.6583	0.0029
702.8394	0.0017
703.0205	0.0026
703.2016	0.0043
703.3827	0.0107
703.5638	0.0135
703.7449	0.0106
703.9259	-0.0008
704.1069	0.0089
704.2879	-0.0002
704.4689	0.0083
704.6499	-0.0079
704.8308	0.0076
705.0117	0.0087
705.1927	0.0124
705.3735	-0.0003
705.5544	-0.0011
705.7353	0.0032
705.9161	0.0069
706.0969	0.0162
706.2777	0.0086
706.4585	0.0108
706.6393	0.0079
706.82	0.0085
707.0007	0.001
707.1815	0.004
707.3621	0.0019
707.5428	0.0116
707.7235	0.0058
707.9041	0.0088
708.0847	0.0182
708.2653	0.0066
708.4459	0.01
708.6265	0.0146
708.807	0.0109
708.9875	0.0129
709.168	0.0123
709.3485	0.008
709.529	0.0044
709.7095	0.0109
709.8899	0.0087
710.0703	0.0061
710.2507	-0.0007
710.4311	0.006
710.6115	0.0032
710.7918	0.01
710.9721	0.0206
711.1524	0.0039
711.3327	-0.0026
711.513	0.0021
711.6932	0.0024
711.8735	0.0003
712.0537	-0.0026
712.2339	-0.0004
712.4141	0.0019
712.5942	0.0007
712.7744	0.0031
712.9545	-0
713.1346	0.001
713.3147	0.0029
713.4947	-0.0051
713.6748	0.0013
713.8548	0.0065
714.0348	0.0077
714.2148	-0.0081
714.3948	0.0024
714.5748	0.009
714.7547	0.0033
714.9346	-0.0012
715.1145	0.0076
715.2944	0.004
715.4743	0.0028
715.6541	0.0223
715.834	0.0008
716.0138	0.0058
716.1936	0.0088
716.3733	0.0119
716.5531	0.0128
716.7328	0.006
716.9126	0.0133
717.0923	0.0109
717.2719	0.0146
717.4516	-0.0018
717.6312	0.0051
717.8109	0.002
717.9905	0.0057
718.1701	-0.0038
718.3496	0.0058
718.5292	0.0034
718.7087	-0.0036
718.8882	0.0016
719.0677	0.01
719.2472	0.0077
719.4267	0.0078
719.6061	0.0053
719.7856	0.0139
719.965	0.003
720.1443	0.0071
720.3237	0.007
720.5031	0.0044
720.6824	0.0106
720.8617	0.0029
721.041	0.0015
721.2203	0.0032
721.3995	0.012
721.5788	0.0117
721.758	0.004
721.9372	0.0154
722.1164	0.0101
722.2956	0.0092
722.4747	0.0087
722.6538	-0.0007
722.8329	0.0079
723.012	0.0011
723.1911	0.0082
723.3702	0.0075
723.5492	0.0086
723.7282	0.004
723.9072	0.0044
724.0862	0.0096
724.2652	0.0127
724.4441	-0.0084
724.623	0.005
724.8019	-0.0069
724.9808	0.0136
725.1597	0.0021
725.3385	0.0129
725.5174	0.0088
725.6962	0.0074
725.875	-0.0008
726.0538	0.0066
726.2325	0.0119
726.4112	-0.0036
726.59	0.0033
726.7687	-0.0025
726.9474	-0.0021
727.126	0.0014
727.3047	-0.0029
727.4833	0.001
727.6619	-0.002
727.8405	-0.001
728.0191	-0.0028
728.1976	0.0008
728.3762	0.0035
728.5547	-0.0014
728.7332	0.0054
728.9116	-0.0074
729.0901	0.0058
729.2686	0.0004
729.447	0.0013
729.6254	0.0119
729.8038	0.0051
729.9821	0.0068
730.1605	0.009
730.3388	0.0035
730.5171	0.0049
730.6954	0.0065
730.8737	0.0038
731.0519	0.0095
731.2302	0.0016
731.4084	0.0032
731.5866	-0.0031
731.7648	0.0041
731.9429	-0.0025
732.1211	-0.0031
732.2992	-0.0011
732.4773	-0.0066
732.6554	-0.0022
732.8335	-0.0004
733.0115	-0.0051
733.1896	-0.0042
733.3676	-0.002
733.5456	-0.0036
733.7235	0.0026
733.9015	0.011
734.0794	-0.0027
734.2574	0.007
734.4353	-0.0032
734.6131	-0.002
734.791	0.0105
734.9689	0.0192
735.1467	-0.0012
735.3245	0.0003
735.5023	0.0115
735.68	0.0089
735.8578	0.0105
736.0355	0.0012
736.2132	0.0081
736.3909	-0.0078
736.5686	0.0161
736.7463	0.0104
736.9239	0.0058
737.1015	0.0064
737.2791	0.0116
737.4567	0.0048
737.6343	0.0013
737.8118	0.0108
737.9894	0.003
738.1669	0.0009
738.3444	0.0017
738.5218	-0
738.6993	0.002
738.8767	0.0038
739.0541	-0.0045
739.2315	0.0078
739.4089	0.0172
739.5863	0.009
739.7636	0.0079
739.9409	0.002
740.1182	0.0078
740.2955	0.01
740.4728	0.0065
740.65	0.0016
740.8272	-0.0066
741.0044	-0.0017
741.1816	0.0098
741.3588	0.0112
741.5359	0.008
741.7131	0.0123
741.8902	-0.0026
742.0673	0.0124
742.2444	0.0005
742.4214	-0.0008
742.5985	0.0029
742.7755	0.002
742.9525	0.0103
743.1295	0.0154
743.3064	0.0058
743.4834	0.0041
743.6603	-0.0035
743.8372	0.003
744.0141	0.0135
744.191	0.0052
744.3678	-0.0016
744.5446	0.0033
744.7215	0.0175
744.8982	0.0109
745.075	0.0054
745.2518	-0.002
745.4285	0.0021
745.6052	0.0018
745.7819	-0.0095
745.9586	0.0041
746.1353	0.002
746.3119	0.0022
746.4885	0.0004
746.6651	-0.0007
746.8417	0.0017
747.0183	0.0046
747.1948	0.0025
747.3714	0.0102
747.5479	0.0035
747.7244	0.0003
747.9008	0.0095
748.0773	0.0048
748.2537	0.006
748.4301	0.0043
748.6065	0.0025
748.7829	0.0059
748.9593	0.0061
749.1356	0.0028
749.3119	0.0109
749.4882	-0.006
749.6645	0.0008
749.8408	0.0133
750.017	0.0117
750.1933	0.0192
750.3695	0.0168
750.5457	0.0115
750.7218	0.0014
750.898	0.02
751.0741	0.0201
751.2502	0.0148
751.4263	0.014
751.6024	0.012
751.7784	0.0042
751.9545	0.018
752.1305	0.0014
752.3065	0.0105
752.4825	0.0041
752.6584	0.0171
752.8344	0.0046
753.0103	0.003
753.1862	0.008
753.3621	-0.002
753.5379	0.002
753.7138	0.0116
753.8896	0.0038
754.0654	-0.0032
754.2412	-0.0051
754.417	0.0004
754.5927	0.0027
754.7685	0.0093
754.9442	0.0003
755.1199	0.0099
755.2956	0.0039
755.4712	0.005
755.6469	0.0103
755.8225	0.0031
755.9981	0.0036
756.1736	-0.0033
756.3492	0.0059
756.5248	0.0072
756.7003	0.0027
756.8758	0.0032
757.0513	0.0109
757.2267	0.0042
757.4022	0.0038
757.5776	0.0031
757.753	0.0039
757.9284	0.0035
758.1038	0.002
758.2791	0.006
758.4545	0.0037
758.6298	-0.0027
758.8051	0.0051
758.9803	0.0095
759.1556	0.0067
759.3308	0.0138
759.506	0.0143
759.6812	0.0064
759.8564	0.0003
760.0316	0.0115
760.2067	0.0097
760.3819	-0.0003
760.557	-0
760.732	0.0058
760.9071	0.0183
761.0821	0.014
761.2572	0.0156
761.4322	0.0116
761.6072	0.0015
761.7821	0.0039
761.9571	0.0078
762.132	-0.0005
762.3069	0.0139
762.4818	0.0079
762.6567	-0.003
762.8316	0.0101
763.0064	-0.0021
763.1812	0.0057
763.356	0.0044
763.5308	0.011
763.7055	0.0055
763.8803	0.0094
764.055	0.0092
764.2297	0.0126
764.4044	0.0059
764.579	0.0155
764.7537	0.0106
764.9283	0.0159
765.1029	0.0068
765.2775	0.0071
765.4521	0.0045
765.6266	-0.009
765.8011	0.0077
765.9756	0.0008
766.1501	0.0051
766.3246	-0.003
766.4991	0.0135
766.6735	-0.0028
766.8479	0.0133
767.0223	-0.0041
767.1967	0.0175
767.371	0.0126
767.5454	-0.0036
767.7197	0.0044
767.894	0.0133
768.0683	0.008
768.2425	0.0075
768.4168	0.0045
768.591	0.0103
768.7652	0.0049
768.9394	0.0008
769.1135	0.0103
769.2877	0.0075
769.4618	0.0091
769.6359	0.0131
769.81	0.0114
769.984	0.0027
770.1581	0.0075
770.3321	0.0132
770.5061	-0.0046
770.6801	-0.0074
770.8541	0.0116
771.028	0.0134
771.202	0.0094
771.3759	-0.0047
771.5498	0.0256
771.7236	0.0006
771.8975	0.0113
772.0713	0.0149
772.2451	-0.0007
772.4189	0.0024
772.5927	0.0078
772.7665	-0.0073
772.9402	0.0001
773.1139	-0.0018
773.2876	-0.0067
773.4613	0.0102
773.635	0.0149
773.8086	-0.0004
773.9822	0.0152
774.1558	0.009
774.3294	0.0189
774.503	0.0034
774.6765	0.0166
774.8501	0.0108
775.0236	0.0215
775.1971	0.019
775.3705	0.0188
775.544	0.016
775.7174	0.0141
775.8908	0.0154
776.0642	0.0076
776.2376	0.0023
776.4109	0.0127
776.5843	-0.0089
776.7576	0.007
776.9309	0.0145
777.1041	0.0037
777.2774	0.001
777.4506	0.0119
777.6238	0.0056
777.797	0.0137
777.9702	0.0088
778.1434	0.0235
778.3165	-0.0075
778.4896	0.0065
778.6627	0.012
778.8358	0.0045
779.0089	0.0059
779.1819	0.0002
779.3549	0.0033
779.5279	0.0078
779.7009	0.0069
779.8739	0.0029
780.0468	0.0107
780.2197	0.0056
780.3926	0.0016
780.5655	-0.0022
780.7384	-0.0101
780.9112	0.0061
781.0841	-0.0116
781.2569	-0.0034
781.4297	-0.0161
781.6024	-0.0019
781.7752	-0.0074
781.9479	0.002
782.1206	0.0075
782.2933	0.0025
782.466	-0.0131
782.6386	0.0178
782.8113	-0.0103
782.9839	-0.0058
783.1565	-0.0081
783.329	-0.0013
783.5016	-0.0064
783.6741	0.0078
783.8466	0.0103
784.0191	0.0095
784.1916	0.0144
784.3641	0.0118
784.5365	0.0095
784.7089	0.0096
784.8813	-0.0092
785.0537	-0.0103
785.2261	0.0081
785.3984	0.0048
785.5707	0.0101
785.743	0.0096
785.9153	0.0122
786.0876	0.0093
786.2598	-0.0045
786.432	0.0077
786.6042	0.0075
786.7764	0.0184
786.9486	0.0042
787.1207	0.0086
787.2928	0.0132
787.4649	0.0084
787.637	0.0002
787.8091	0.0131
787.9811	-0.0101
788.1532	0.0075
788.3252	-0.0163
788.4972	0.0019
788.6691	0.0017
788.8411	-0.0072
789.013	0.0033
789.1849	0.0208
789.3568	0.013
789.5287	0.0053
789.7005	0.0148
789.8723	0.0101
790.0442	0.0034
790.2159	-0.0023
790.3877	0.0274
790.5595	0.0068
790.7312	-0.0017
790.9029	0.0175
791.0746	0.0176
791.2463	0.0224
791.4179	0.0038
791.5896	0.0235
791.7612	0.0211
791.9328	-0.0064
792.1044	0.0118
792.2759	0.0001
792.4474	0.0096
792.619	0.0167
792.7905	0.0171
792.9619	0.0039
793.1334	0.0102
793.3048	0.0241
793.4762	0.0073
793.6476	0.0057
793.819	0.017
793.9904	0.0244
794.1617	0.0012
794.333	0.0057
794.5043	0.0032
794.6756	-0.0115
794.8469	0.0088
795.0181	-0.0058
795.1893	0.0056
795.3605	0.0081
795.5317	-0.0038
795.7029	0.0048
795.874	0.0161
796.0452	0.0149
796.2163	0.0154
796.3873	0.0074
796.5584	0.0153
796.7294	0.0033
796.9005	0.0166
797.0715	0.0082
797.2425	0.0028
797.4134	0.0199
797.5844	0.0091
797.7553	0.0078
797.9262	0.0089
798.0971	0.0083
798.2679	0.0082
798.4388	-0.0063
798.6096	-0.03
798.7804	0.013
798.9512	0.0126
799.122	0.0116
799.2927	0.0005
799.4635	0.0111
799.6342	0.0359
799.8049	0.0192
799.9755	0.0027
800.1462	0.0043
800.3168	0.0088
800.4874	-0.002
800.658	0.016
800.8286	0.0084
800.9991	0.0107
801.1696	-0.0054
801.3402	0.0167
801.5106	0.0134
801.6811	-0.012
801.8516	0.0185
802.022	-0.0001
802.1924	-0.0025
802.3628	0.0027
802.5332	0.0187
802.7035	0.0033
802.8739	0.0051
803.0442	0.0018
803.2145	0.021
803.3847	0.0079
803.555	0.0075
803.7252	0.0231
803.8954	-0.0105
804.0656	0.0044
804.2358	0.0149
804.4059	0.0263
804.5761	0.0215
804.7462	-0.0015
804.9163	0.0111
805.0864	0.0016
805.2564	-0.0053
805.4264	0.0001
805.5965	0.0082
805.7665	0.0218
805.9364	-0.0154
806.1064	0.021
806.2763	0.0163
806.4462	0.0054
806.6161	0.0148
806.786	0.0139
806.9559	0.0193
807.1257	0.0097
807.2955	0.0131
807.4653	0.03
807.6351	0.0138
807.8048	0.0171
807.9746	0.0287
808.1443	-0.0008
808.314	0.0229
808.4837	0.0286
808.6533	0.0146
808.8229	0.0282
808.9926	0.0306
809.1622	0.0111
809.3317	0.0093
809.5013	0.033
809.6708	0.0177
809.8403	0.015
810.0098	0.0168
810.1793	-0.0035
810.3488	0.0124
810.5182	0.0288
810.6876	0.0127
810.857	0.0019
811.0264	0.0069
811.1958	0.0135
811.3651	-0.0051
811.5344	0.0161
811.7037	0.005
811.873	0.0187
812.0422	-0.01
812.2115	0.0098
812.3807	0.0125
812.5499	0.0151
812.7191	0.0124
812.8882	0.0215
813.0574	0.0123
813.2265	0.0248
813.3956	0.0168
813.5646	0.0095
813.7337	0.0162
813.9027	0.0174
814.0718	0.0343
814.2407	0.0357
814.4097	0.0155
814.5787	-0.0004
814.7476	0.0029
814.9165	0.0141
815.0854	-0.0137
815.2543	-0.0045
815.4232	0.0099
815.592	0.0005
815.7608	0.0169
815.9296	-0.0128
816.0984	-0.0072
816.2671	-0.0152
816.4359	0.0029
816.6046	0.0183
816.7733	0.0102
816.942	0.0085
817.1106	0.0089
817.2793	-0.0105
817.4479	0.0049
817.6165	-0.0093
817.785	-0.0004
817.9536	0.0097
818.1221	-0.0038
818.2906	-0.0129
818.4591	-0.0129
818.6276	0.0279
818.7961	0.0101
818.9645	0.0147
819.1329	0.0277
819.3013	0.0162
819.4697	0.0373
819.638	-0.024
819.8064	0.0154
819.9747	-0.0119
820.143	0.0022
820.3113	0.0049
820.4795	-0.0082
820.6477	-0.0018
820.816	-0.0151
820.9842	-0.0027
821.1523	0.0177
821.3205	0.013
821.4886	-0.0256
821.6567	0.0074
821.8248	0.0215
821.9929	-0.0044
822.1609	-0.0116
822.329	-0.0043
822.497	-0.0206
822.665	-0.0068
822.833	-0.0155
823.0009	-0.0104
823.1688	0.0071
823.3367	0.0143
823.5046	-0.0028
823.6725	-0.0412
823.8404	-0.008
824.0082	0.0014
824.176	0.0356
824.3438	-0.0027
824.5116	-0.0118
824.6793	-0.0146
824.847	0.0225
825.0147	0.0096
825.1824	-0.0046
825.3501	0.0088
825.5177	-0.0129
825.6854	-0.017
825.853	0.0202
826.0206	0.0159
826.1881	0.0143
826.3557	0.0061
826.5232	-0.0018
826.6907	0.0016
826.8582	0.0312
827.0257	-0.005
827.1931	0.0299
827.3605	-0.0036
827.528	-0.003
827.6953	0.0463
827.8627	0.0111
828.03	0.0193
828.1974	0.0247
828.3647	0.0146
828.532	0.0109
828.6992	0.0144
828.8665	0.0388
829.0337	0.0436
829.2009	0.0226
829.3681	0.0255
829.5352	0.0274
829.7024	0.0299
829.8695	0.0347
830.0366	0.0157
830.2037	0.0078
830.3707	0.0311
830.5378	-0.0197
830.7048	-0.0017
830.8718	0.0066
831.0388	0.0125
831.2057	0.0272
831.3727	0.0338
831.5396	0.0125
831.7065	-0.003
831.8734	0.0176
832.0402	-0.0245
832.2071	-0.0242
832.3739	-0.0019
832.5407	0.0454
832.7075	0.013
832.8742	0.0279
833.041	-0.0338
833.2077	-0.0107
833.3744	0.0252
833.541	0.0285
833.7077	0.049
833.8743	0.0531
834.0409	0.0262
834.2075	0.0095
834.3741	0.021
834.5407	0.0023
834.7072	0.0004
834.8737	-0.0002
835.0402	0.0162
835.2067	-0.0348
835.3731	0.006
835.5395	-0.0338
835.706	0.0462
835.8723	-0.0356
836.0387	-0.0068
836.2051	0.0201
836.3714	-0.0582
836.5377	-0.0056
836.704	-0.0235
836.8703	-0.0185
837.0365	-0.0374
837.2027	-0.0117
837.3689	0.0186
837.5351	-0.0029
837.7013	-0.0365
837.8674	0.0264
838.0335	-0.0258
838.1997	-0.0137
838.3657	0.012
838.5318	-0.0209
838.6978	0.0217
838.8639	-0.038
839.0299	-0.0152
839.1958	-0.015
839.3618	0.0294
839.5277	0.0005
839.6937	-0.0043
839.8596	-0.0518
840.0254	0.0151
840.1913	0.0365
840.3571	-0.026
840.523	0.021
840.6888	-0.01
840.8545	0.0045
841.0203	0.0634
841.186	0.0733
841.3517	0.0193
841.5174	0.008
841.6831	-0.0108
841.8488	0.0222
842.0144	0.0549
842.18	0.0099
842.3456	0.0358
842.5112	0.0049
842.6767	-0.0306
842.8422	-0.0172
843.0077	0.0181
843.1732	-0.0201
843.3387	-0.0449
843.5042	0.0007
843.6696	-0.0013
843.835	-0.0045
844.0004	-0.0361
844.1657	-0.0143
844.3311	-0.0349
844.4964	-0.0178
844.6617	-0.0592
844.827	0.0551
844.9923	0.0353
845.1575	0.0063
845.3227	0.0084
845.4879	0.0017
845.6531	-0.0014
845.8183	-0.0251
845.9834	0.0567
846.1485	-0.0055
846.3136	0.0181
846.4787	0.0297
846.6438	-0.0022
846.8088	0.0036
846.9738	-0.0166
847.1388	0.0175
847.3038	0.0376
847.4687	0.0268
847.6337	-0.0863
847.7986	0.0581
847.9635	0.0461
848.1284	-0.0128
848.2932	0.0968
848.458	0.0556
848.6228	0.0944
848.7876	0.0589
848.9524	-0.0064
849.1172	0.0009
849.2819	0.0009
849.4466	0.0009
849.6113	0.0672
849.7759	-0.0176
849.9406	0.0972
850.1052	-0.014
850.2698	0.019
850.4344	0.0296
850.599	-0.0021
850.7635	0.0534
850.928	-0.0557
851.0925	0.048
851.257	0.0547
851.4215	0.0267
851.5859	-0.0077
851.7503	-0.091
851.9147	0.0418
852.0791	0.031
852.2434	0.0245
852.4078	0.0081
852.5721	0.1091
852.7364	0.0157
852.9007	-0.1102
853.0649	0.0066
853.2291	0.0972
853.3934	-0.018
853.5575	0.0658
853.7217	0.0306
853.8859	0.0071
854.05	0.0029
854.2141	-0.0125
854.3782	0.0963
854.5423	0.0144
854.7063	0.028
854.8703	-0.0274
855.0343	0.0524
855.1983	-0.0454
855.3623	-0.0497
855.5262	-0.0072
855.6901	-0.1187
855.854	-0.0459
856.0179	0.0022
856.1818	0.0329
856.3456	-0.1227
856.5094	0.0208
856.6732	0.0158
856.837	0.0082
857.0008	-0.3978
857.1645	0.1463
857.3282	0.1898
857.4919	-0.0289
857.6556	0.0513
857.8192	0.205
857.9828	0.0436
858.1465	0.0478
858.31	0.1788
858.4736	-0.031
858.6372	-0.2002
858.8007	-0.3363
858.9642	0.0486
859.1277	-0.1386
859.2911	-0.14
859.4546	0.1285
859.618	-0.3495
859.7814	0.4209
859.9448	0.0835
860.1081	-0.0133
860.2715	0.0028
860.4348	0.0146
860.5981	-0.0473
860.7614	-0.0258
860.9246	0.1555
861.0879	-0.013
861.2511	0.2162
861.4143	0.0038
861.5774	-0.0397
861.7406	0.1821
861.9037	-0.1764
862.0668	-0.0342
862.2299	0.1336
862.393	0.4227
862.556	0.1658
862.7191	0.0155
862.8821	-0.2818
863.0451	-0.1652
863.208	-0.0392
863.371	-0.434
863.5339	0.0538
863.6968	0.5594
863.8597	-0.065
864.0225	0.1063
864.1854	0.3283
864.3482	0.3227
864.511	-0.0053
864.6737	-0.2532
864.8365	0.1165
864.9992	-0.1214
865.1619	-0.2374
865.3246	-0.0948
865.4873	-0.0586
865.65	-0.5336
865.8126	0.217
865.9752	0.2658
866.1378	0.3406
866.3004	-0
866.4629	-0.0381
866.6254	-0.1046
866.7879	0.2768
866.9504	0.6689
867.1129	0.0417
867.2753	0.0265
867.4377	0.1547
867.6001	0.269
867.7625	0.5109
867.9249	-0.6177
868.0872	-0
868.2495	0.1736
868.4118	-0.057
868.5741	0.0429
868.7363	-0
868.8986	-0.3591
869.0608	-0.3214
869.223	0.0121
869.3851	0.1312
869.5473	0.0759
869.7094	-0.0728
869.8715	0.1782
870.0336	-0
870.1957	-0
870.3577	-0.1602
870.5197	-0
870.6817	0.2184
870.8437	0.0716
871.0057	-0
871.1676	0.1343
871.3295	-0.8766
871.4914	-0
871.6533	0.0297
871.8151	-0.0479
871.977	0.0949
872.1388	0.7465
872.3006	0.2182
872.4623	0.1043
872.6241	-0.8598
872.7858	0.1418
872.9475	-0.0712
873.1092	0.099
873.2709	-0
873.4325	-0
873.5941	-0
873.7557	-0.6593
873.9173	-0.1135
874.0789	0.0603
874.2404	0.3197
874.4019	-0
874.5634	-0
874.7249	0.0694
874.8863	-0.2298
875.0478	0.1992
875.2092	-0.1134
875.3706	0.1502
875.5319	-0.699
875.6933	-0.0215
875.8546	-0.1508
876.0159	0.0192
876.1772	-0.4643
876.3385	-0.3941
876.4997	0.1395
876.6609	-0
876.8221	-0.7425
876.9833	-0.0611
877.1445	1.0046
877.3056	0.0235
877.4667	-0.1151
877.6278	-0
877.7889	-0.1692
877.9499	0.2247
878.111	0.141
878.272	-0.1536
878.433	0.3506
878.5939	0.1226
878.7549	-0.015
878.9158	-0.0305
879.0767	-0.1124
879.2376	0.0549
879.3984	0.45
879.5593	0.528
879.7201	-0
879.8809	-0.3255
880.0417	-0.1486
880.2024	0.3576
880.3632	0.9431
880.5239	-0
880.6846	0.1165
880.8452	-0.0743
881.0059	-0
881.1665	0.2061
881.3271	-0.6822
881.4877	-0.8494
881.6483	0.1366
881.8088	-0.2349
881.9693	0.4722
882.1298	0.4722
882.2903	0.4722
