Data from MonoPyChalIsomerACN10uM400nmA_Absorbance_12-08-40-328.txt Node
Date: Fri Jul 05 12:08:40 BST 2024
User: LASERRRRR
Spectrometer: FLMT03099
Trigger mode: 0
Integration Time (sec): 1.000000E-1
Scans to average: 1
Electric dark correction enabled: true
Nonlinearity correction enabled: false
Boxcar width: 0
XAxis mode: Wavelengths
Number of Pixels in Spectrum: 3648
>>>>>Begin Spectral Data<<<<<
179.3399	-0.0687
179.5586	-0.0687
179.7771	-0.0687
179.9957	0.6572
180.2143	-0
180.4329	-0
180.6514	-0
180.8699	-0
181.0885	-0
181.307	-0.0945
181.5255	-0.472
181.744	0.1748
181.9625	-0.4316
182.181	-0
182.3994	-0.3846
182.6179	-0
182.8363	-0
183.0547	0.1404
183.2732	0.1883
183.4916	0.0247
183.71	0.1031
183.9284	0.1294
184.1467	-0.1464
184.3651	-0.055
184.5835	0.1665
184.8018	0.0435
185.0201	0.0777
185.2385	0.0993
185.4568	0.094
185.6751	-0.0667
185.8934	-0.0163
186.1117	0.1532
186.3299	0.0278
186.5482	0.2175
186.7664	0.0208
186.9847	0.2138
187.2029	0.0021
187.4211	-0.2575
187.6393	-0.0734
187.8575	0.1207
188.0757	0.0746
188.2939	0.1213
188.512	-0.0648
188.7302	-0.0075
188.9483	-0.0349
189.1665	-0.0504
189.3846	0.0329
189.6027	0.2254
189.8208	0.0721
190.0389	0.1679
190.257	0.1702
190.475	0.305
190.6931	0.0783
190.9111	0.121
191.1292	0.1877
191.3472	0.5131
191.5652	0.1056
191.7832	0.2368
192.0012	0.4641
192.2192	0.4386
192.4371	0.4332
192.6551	0.4055
192.873	0.4898
193.091	0.2721
193.3089	0.32
193.5268	0.6543
193.7447	0.3898
193.9626	0.5287
194.1805	0.414
194.3984	0.5325
194.6162	0.4607
194.8341	0.5713
195.0519	0.5064
195.2697	0.4663
195.4875	0.5766
195.7054	0.5512
195.9231	0.3951
196.1409	0.5789
196.3587	0.5537
196.5765	0.5946
196.7942	0.6943
197.012	0.8208
197.2297	0.5386
197.4474	0.7052
197.6651	0.6607
197.8828	0.6081
198.1005	0.5899
198.3182	0.6656
198.5358	0.7057
198.7535	0.6502
198.9711	0.5888
199.1888	0.7026
199.4064	0.7798
199.624	0.6792
199.8416	0.6303
200.0592	0.7832
200.2767	0.6338
200.4943	0.5674
200.7119	0.6203
200.9294	0.6938
201.1469	0.7714
201.3645	0.73
201.582	0.7297
201.7995	1.0678
202.017	0.7367
202.2344	0.636
202.4519	0.7921
202.6694	0.982
202.8868	0.8202
203.1042	0.6314
203.3217	0.653
203.5391	0.893
203.7565	0.7945
203.9739	0.7233
204.1913	0.963
204.4086	0.8127
204.626	0.7591
204.8433	0.901
205.0607	0.7427
205.278	0.8164
205.4953	0.8003
205.7126	0.7069
205.9299	0.8213
206.1472	0.729
206.3644	0.5996
206.5817	0.7716
206.7989	0.6487
207.0162	0.8134
207.2334	0.7616
207.4506	0.8598
207.6678	0.7915
207.885	0.7573
208.1022	0.8547
208.3194	0.7023
208.5365	0.7642
208.7537	0.7426
208.9708	0.7681
209.1879	0.7631
209.405	0.7036
209.6222	0.8041
209.8392	0.7384
210.0563	0.7185
210.2734	0.7737
210.4905	0.822
210.7075	0.7669
210.9245	0.7955
211.1416	0.7075
211.3586	0.7922
211.5756	0.7469
211.7926	0.7424
212.0096	0.7524
212.2265	0.6474
212.4435	0.7991
212.6604	0.8009
212.8774	0.7797
213.0943	0.6886
213.3112	0.6871
213.5281	0.6546
213.745	0.6695
213.9619	0.7155
214.1788	0.6362
214.3956	0.7137
214.6125	0.6509
214.8293	0.6985
215.0461	0.7199
215.2629	0.6418
215.4798	0.6323
215.6965	0.6811
215.9133	0.6154
216.1301	0.6011
216.3469	0.636
216.5636	0.6483
216.7803	0.5862
216.9971	0.6605
217.2138	0.6427
217.4305	0.6178
217.6472	0.5887
217.8639	0.6167
218.0805	0.5855
218.2972	0.5873
218.5138	0.6133
218.7305	0.5648
218.9471	0.5628
219.1637	0.5374
219.3803	0.519
219.5969	0.5643
219.8135	0.5807
220.0301	0.565
220.2466	0.5488
220.4632	0.5462
220.6797	0.5851
220.8962	0.5464
221.1127	0.5292
221.3292	0.5328
221.5457	0.5784
221.7622	0.5493
221.9787	0.5533
222.1951	0.5923
222.4116	0.5586
222.628	0.5721
222.8444	0.5665
223.0608	0.57
223.2772	0.5694
223.4936	0.5525
223.71	0.5695
223.9264	0.5444
224.1427	0.5486
224.3591	0.5544
224.5754	0.5659
224.7917	0.5493
225.008	0.5967
225.2243	0.5525
225.4406	0.5379
225.6569	0.548
225.8732	0.5837
226.0894	0.5386
226.3057	0.5531
226.5219	0.5722
226.7381	0.6073
226.9543	0.6059
227.1705	0.589
227.3867	0.578
227.6029	0.5533
227.8191	0.5659
228.0352	0.5753
228.2513	0.5514
228.4675	0.5815
228.6836	0.591
228.8997	0.597
229.1158	0.5696
229.3319	0.5712
229.548	0.6132
229.764	0.6036
229.9801	0.5658
230.1961	0.5865
230.4121	0.6058
230.6282	0.5688
230.8442	0.5759
231.0602	0.5538
231.2761	0.5659
231.4921	0.5892
231.7081	0.5827
231.924	0.6147
232.14	0.5639
232.3559	0.581
232.5718	0.5978
232.7877	0.5669
233.0036	0.5868
233.2195	0.5674
233.4353	0.5767
233.6512	0.6026
233.867	0.589
234.0829	0.5438
234.2987	0.6016
234.5145	0.5494
234.7303	0.5829
234.9461	0.5695
235.1619	0.5626
235.3776	0.57
235.5934	0.5496
235.8091	0.5571
236.0249	0.55
236.2406	0.5376
236.4563	0.5836
236.672	0.5395
236.8877	0.5503
237.1034	0.5294
237.319	0.5349
237.5347	0.5622
237.7503	0.5656
237.966	0.5333
238.1816	0.5626
238.3972	0.5811
238.6128	0.5482
238.8284	0.5209
239.0439	0.5397
239.2595	0.5497
239.475	0.539
239.6906	0.564
239.9061	0.5239
240.1216	0.5361
240.3371	0.5131
240.5526	0.5185
240.7681	0.5373
240.9836	0.5555
241.199	0.4953
241.4145	0.503
241.6299	0.4913
241.8453	0.4825
242.0607	0.5077
242.2761	0.4823
242.4915	0.4579
242.7069	0.4532
242.9223	0.4756
243.1376	0.4311
243.353	0.4395
243.5683	0.4175
243.7836	0.4135
243.9989	0.4147
244.2142	0.4115
244.4295	0.3788
244.6448	0.3752
244.86	0.3681
245.0753	0.3613
245.2905	0.3748
245.5057	0.3528
245.721	0.3482
245.9362	0.3443
246.1514	0.3309
246.3665	0.3095
246.5817	0.3331
246.7969	0.3171
247.012	0.3056
247.2271	0.3116
247.4423	0.2948
247.6574	0.2888
247.8725	0.2905
248.0876	0.2945
248.3026	0.2735
248.5177	0.2978
248.7328	0.279
248.9478	0.2757
249.1628	0.2559
249.3779	0.2697
249.5929	0.2717
249.8079	0.2385
250.0228	0.2625
250.2378	0.2543
250.4528	0.261
250.6677	0.2546
250.8827	0.2255
251.0976	0.234
251.3125	0.2303
251.5274	0.2334
251.7423	0.2222
251.9572	0.2207
252.172	0.2115
252.3869	0.2249
252.6017	0.217
252.8166	0.2046
253.0314	0.2012
253.2462	0.2176
253.461	0.2069
253.6758	0.1916
253.8906	0.2167
254.1053	0.2034
254.3201	0.2054
254.5348	0.2172
254.7496	0.1968
254.9643	0.1947
255.179	0.1977
255.3937	0.1938
255.6083	0.2032
255.823	0.1878
256.0377	0.194
256.2523	0.1946
256.467	0.1759
256.6816	0.1862
256.8962	0.1979
257.1108	0.2101
257.3254	0.1899
257.54	0.1988
257.7545	0.1968
257.9691	0.2066
258.1836	0.1763
258.3981	0.1934
258.6127	0.1877
258.8272	0.1953
259.0417	0.1801
259.2561	0.1888
259.4706	0.1867
259.6851	0.1849
259.8995	0.1943
260.114	0.1659
260.3284	0.1831
260.5428	0.1868
260.7572	0.1948
260.9716	0.1981
261.186	0.1971
261.4003	0.188
261.6147	0.1996
261.829	0.2102
262.0433	0.1825
262.2577	0.1776
262.472	0.1899
262.6863	0.1884
262.9005	0.1873
263.1148	0.1797
263.3291	0.1863
263.5433	0.1728
263.7576	0.1858
263.9718	0.1987
264.186	0.177
264.4002	0.204
264.6144	0.1769
264.8286	0.1862
265.0427	0.1785
265.2569	0.1859
265.471	0.1748
265.6851	0.1767
265.8993	0.1844
266.1134	0.1741
266.3275	0.1796
266.5415	0.1789
266.7556	0.1733
266.9697	0.1796
267.1837	0.1852
267.3978	0.194
267.6118	0.1763
267.8258	0.2005
268.0398	0.1872
268.2538	0.1786
268.4677	0.183
268.6817	0.1686
268.8957	0.1805
269.1096	0.1788
269.3235	0.1831
269.5374	0.177
269.7514	0.1675
269.9652	0.1871
270.1791	0.1732
270.393	0.1643
270.6068	0.1759
270.8207	0.1759
271.0345	0.1609
271.2483	0.1745
271.4622	0.1687
271.676	0.1623
271.8897	0.181
272.1035	0.1597
272.3173	0.1621
272.531	0.1622
272.7448	0.1508
272.9585	0.17
273.1722	0.1769
273.3859	0.1611
273.5996	0.1722
273.8133	0.1707
274.0269	0.1605
274.2406	0.1593
274.4542	0.1702
274.6679	0.1683
274.8815	0.1533
275.0951	0.1738
275.3087	0.1653
275.5223	0.1555
275.7358	0.1594
275.9494	0.1684
276.1629	0.1598
276.3765	0.1462
276.59	0.1641
276.8035	0.1628
277.017	0.159
277.2305	0.1662
277.444	0.1649
277.6574	0.1654
277.8709	0.1543
278.0843	0.1692
278.2978	0.165
278.5112	0.1781
278.7246	0.1582
278.938	0.1578
279.1513	0.1666
279.3647	0.1509
279.5781	0.1693
279.7914	0.1686
280.0047	0.172
280.2181	0.1648
280.4314	0.1677
280.6447	0.1724
280.8579	0.176
281.0712	0.172
281.2845	0.1753
281.4977	0.176
281.711	0.174
281.9242	0.1795
282.1374	0.1623
282.3506	0.1825
282.5638	0.1895
282.7769	0.177
282.9901	0.1792
283.2033	0.1779
283.4164	0.1697
283.6295	0.168
283.8426	0.1711
284.0557	0.1723
284.2688	0.163
284.4819	0.169
284.695	0.1752
284.908	0.1833
285.1211	0.1807
285.3341	0.1918
285.5471	0.192
285.7601	0.1876
285.9731	0.191
286.1861	0.2026
286.3991	0.166
286.612	0.1794
286.825	0.1872
287.0379	0.1882
287.2508	0.177
287.4637	0.1875
287.6766	0.1817
287.8895	0.1769
288.1024	0.1788
288.3152	0.1934
288.5281	0.1855
288.7409	0.1867
288.9538	0.1835
289.1666	0.1929
289.3794	0.1754
289.5922	0.1861
289.8049	0.1775
290.0177	0.181
290.2304	0.1936
290.4432	0.183
290.6559	0.1947
290.8686	0.1941
291.0813	0.1857
291.294	0.1857
291.5067	0.1822
291.7194	0.1859
291.932	0.1953
292.1447	0.1962
292.3573	0.2004
292.5699	0.181
292.7825	0.1832
292.9951	0.2034
293.2077	0.1902
293.4203	0.1852
293.6328	0.1939
293.8454	0.187
294.0579	0.1946
294.2704	0.1902
294.4829	0.1843
294.6954	0.1899
294.9079	0.1896
295.1204	0.1967
295.3328	0.1787
295.5453	0.1805
295.7577	0.1876
295.9701	0.1928
296.1825	0.1931
296.3949	0.1818
296.6073	0.1886
296.8197	0.189
297.0321	0.1896
297.2444	0.1786
297.4567	0.183
297.6691	0.1852
297.8814	0.1853
298.0937	0.1778
298.306	0.1835
298.5182	0.1871
298.7305	0.1944
298.9428	0.1833
299.155	0.1862
299.3672	0.175
299.5794	0.1915
299.7916	0.1728
300.0038	0.1931
300.216	0.1802
300.4282	0.1888
300.6403	0.1944
300.8525	0.189
301.0646	0.1977
301.2767	0.1921
301.4888	0.1815
301.7009	0.1873
301.913	0.1921
302.125	0.1767
302.3371	0.192
302.5491	0.1828
302.7612	0.1836
302.9732	0.1717
303.1852	0.1811
303.3972	0.1841
303.6092	0.1768
303.8211	0.1891
304.0331	0.1761
304.245	0.1787
304.457	0.1758
304.6689	0.1712
304.8808	0.1711
305.0927	0.1692
305.3046	0.1629
305.5164	0.1706
305.7283	0.1695
305.9401	0.1646
306.152	0.1749
306.3638	0.1576
306.5756	0.1612
306.7874	0.1676
306.9992	0.1486
307.2109	0.1581
307.4227	0.1553
307.6344	0.1578
307.8462	0.1415
308.0579	0.1577
308.2696	0.1557
308.4813	0.1394
308.693	0.1374
308.9046	0.1418
309.1163	0.1376
309.328	0.1347
309.5396	0.1365
309.7512	0.1319
309.9628	0.127
310.1744	0.1342
310.386	0.1278
310.5976	0.1249
310.8091	0.1173
311.0207	0.1338
311.2322	0.1191
311.4437	0.1238
311.6552	0.1247
311.8667	0.1166
312.0782	0.1174
312.2897	0.1014
312.5012	0.111
312.7126	0.1161
312.924	0.1071
313.1355	0.1198
313.3469	0.1066
313.5583	0.1144
313.7696	0.1172
313.981	0.1218
314.1924	0.1107
314.4037	0.1105
314.6151	0.109
314.8264	0.1095
315.0377	0.1036
315.249	0.0958
315.4603	0.0989
315.6716	0.1091
315.8828	0.1002
316.0941	0.0971
316.3053	0.1034
316.5165	0.1068
316.7277	0.0936
316.9389	0.0947
317.1501	0.102
317.3613	0.0768
317.5724	0.1062
317.7836	0.0967
317.9947	0.1014
318.2058	0.097
318.417	0.096
318.6281	0.1054
318.8391	0.0928
319.0502	0.0938
319.2613	0.1049
319.4723	0.089
319.6834	0.095
319.8944	0.0864
320.1054	0.0979
320.3164	0.1034
320.5274	0.0913
320.7383	0.0975
320.9493	0.0937
321.1602	0.0988
321.3712	0.0936
321.5821	0.1044
321.793	0.1012
322.0039	0.1008
322.2148	0.0902
322.4257	0.098
322.6365	0.1017
322.8474	0.0791
323.0582	0.0989
323.269	0.1
323.4798	0.1055
323.6906	0.0799
323.9014	0.1042
324.1122	0.0992
324.3229	0.0941
324.5337	0.1014
324.7444	0.0988
324.9551	0.1001
325.1658	0.0978
325.3765	0.1045
325.5872	0.1038
325.7979	0.1061
326.0085	0.0855
326.2192	0.0791
326.4298	0.1077
326.6404	0.0963
326.851	0.0957
327.0616	0.1097
327.2722	0.094
327.4828	0.1183
327.6933	0.1019
327.9039	0.0976
328.1144	0.1002
328.3249	0.0939
328.5354	0.0847
328.7459	0.1082
328.9564	0.1019
329.1669	0.1047
329.3773	0.1102
329.5878	0.0924
329.7982	0.0882
330.0086	0.0982
330.219	0.1038
330.4294	0.0954
330.6398	0.1033
330.8502	0.0947
331.0605	0.1054
331.2708	0.0947
331.4812	0.1012
331.6915	0.0984
331.9018	0.0979
332.1121	0.0967
332.3224	0.1026
332.5326	0.1133
332.7429	0.1
332.9531	0.0989
333.1633	0.1064
333.3735	0.098
333.5837	0.1088
333.7939	0.104
334.0041	0.1124
334.2143	0.0982
334.4244	0.1114
334.6346	0.0886
334.8447	0.1025
335.0548	0.1078
335.2649	0.0987
335.475	0.1012
335.685	0.0908
335.8951	0.1019
336.1051	0.1084
336.3152	0.103
336.5252	0.113
336.7352	0.1157
336.9452	0.1058
337.1552	0.1238
337.3652	0.1026
337.5751	0.1065
337.7851	0.1006
337.995	0.1021
338.2049	0.1109
338.4148	0.1172
338.6247	0.1012
338.8346	0.1108
339.0445	0.1077
339.2543	0.1174
339.4642	0.1047
339.674	0.1139
339.8838	0.1076
340.0936	0.1062
340.3034	0.113
340.5132	0.1294
340.7229	0.112
340.9327	0.1041
341.1424	0.1069
341.3522	0.1058
341.5619	0.1173
341.7716	0.1164
341.9813	0.1075
342.1909	0.1075
342.4006	0.1234
342.6102	0.1234
342.8199	0.1149
343.0295	0.1312
343.2391	0.1153
343.4487	0.1258
343.6583	0.1183
343.8679	0.1118
344.0774	0.124
344.287	0.1209
344.4965	0.1295
344.706	0.1235
344.9155	0.1185
345.125	0.1218
345.3345	0.1226
345.544	0.1331
345.7534	0.1246
345.9629	0.1197
346.1723	0.1258
346.3817	0.1323
346.5911	0.1312
346.8005	0.1246
347.0099	0.1317
347.2193	0.1173
347.4286	0.1202
347.638	0.1312
347.8473	0.1313
348.0566	0.126
348.2659	0.1552
348.4752	0.127
348.6845	0.1337
348.8937	0.1304
349.103	0.1277
349.3122	0.1248
349.5214	0.1291
349.7306	0.1298
349.9398	0.1268
350.149	0.1407
350.3582	0.13
350.5674	0.1406
350.7765	0.1323
350.9856	0.1351
351.1948	0.1441
351.4039	0.153
351.613	0.1289
351.822	0.1428
352.0311	0.1429
352.2402	0.1322
352.4492	0.1395
352.6582	0.1339
352.8672	0.1404
353.0762	0.1359
353.2852	0.1432
353.4942	0.1415
353.7032	0.1396
353.9121	0.1326
354.1211	0.1308
354.33	0.1595
354.5389	0.145
354.7478	0.1526
354.9567	0.1387
355.1655	0.1469
355.3744	0.153
355.5833	0.1684
355.7921	0.1535
356.0009	0.157
356.2097	0.1484
356.4185	0.1601
356.6273	0.1563
356.8361	0.1633
357.0448	0.1528
357.2536	0.1482
357.4623	0.1701
357.671	0.1557
357.8797	0.1481
358.0884	0.1729
358.2971	0.1606
358.5057	0.168
358.7144	0.1656
358.923	0.1564
359.1316	0.1593
359.3402	0.1791
359.5488	0.1781
359.7574	0.1714
359.966	0.1775
360.1746	0.1715
360.3831	0.1639
360.5916	0.1811
360.8002	0.1818
361.0087	0.186
361.2172	0.1638
361.4256	0.1787
361.6341	0.1794
361.8426	0.199
362.051	0.1885
362.2594	0.1822
362.4678	0.1812
362.6762	0.1913
362.8846	0.1846
363.093	0.1891
363.3014	0.1951
363.5097	0.1779
363.718	0.198
363.9264	0.1961
364.1347	0.1814
364.343	0.1785
364.5513	0.1895
364.7595	0.2034
364.9678	0.1987
365.176	0.2001
365.3842	0.1956
365.5925	0.1757
365.8007	0.1973
366.0089	0.1998
366.217	0.2027
366.4252	0.2076
366.6333	0.2082
366.8415	0.2101
367.0496	0.1931
367.2577	0.223
367.4658	0.203
367.6739	0.2099
367.882	0.2208
368.09	0.2249
368.2981	0.2168
368.5061	0.2228
368.7141	0.2041
368.9221	0.2153
369.1301	0.2172
369.3381	0.2178
369.5461	0.2163
369.754	0.2177
369.962	0.2275
370.1699	0.2124
370.3778	0.2336
370.5857	0.2331
370.7936	0.2203
371.0015	0.233
371.2093	0.2406
371.4172	0.2254
371.625	0.2113
371.8328	0.228
372.0406	0.2156
372.2484	0.2267
372.4562	0.2332
372.664	0.2387
372.8717	0.213
373.0795	0.2501
373.2872	0.2436
373.4949	0.2282
373.7026	0.2403
373.9103	0.2459
374.118	0.2331
374.3256	0.2354
374.5333	0.2357
374.7409	0.2271
374.9485	0.2332
375.1561	0.2272
375.3637	0.2184
375.5713	0.248
375.7789	0.2434
375.9864	0.2408
376.194	0.2454
376.4015	0.2495
376.609	0.2435
376.8165	0.2562
377.024	0.2361
377.2315	0.2427
377.4389	0.2321
377.6464	0.238
377.8538	0.2515
378.0612	0.262
378.2686	0.2662
378.476	0.2632
378.6834	0.2617
378.8908	0.2501
379.0981	0.2706
379.3055	0.2682
379.5128	0.282
379.7201	0.2763
379.9274	0.2677
380.1347	0.2487
380.342	0.2544
380.5492	0.2523
380.7565	0.283
380.9637	0.2631
381.1709	0.263
381.3781	0.2741
381.5853	0.273
381.7925	0.2764
381.9997	0.2636
382.2068	0.2664
382.4139	0.2825
382.6211	0.28
382.8282	0.2641
383.0353	0.262
383.2424	0.2816
383.4494	0.2866
383.6565	0.2722
383.8635	0.2763
384.0706	0.2796
384.2776	0.2766
384.4846	0.2627
384.6916	0.2745
384.8986	0.266
385.1055	0.2624
385.3125	0.257
385.5194	0.285
385.7263	0.2899
385.9333	0.262
386.1402	0.2595
386.347	0.2853
386.5539	0.2761
386.7608	0.2836
386.9676	0.2514
387.1744	0.2615
387.3813	0.2706
387.5881	0.2676
387.7948	0.262
388.0016	0.2691
388.2084	0.2709
388.4151	0.2806
388.6219	0.2742
388.8286	0.2422
389.0353	0.2737
389.242	0.2706
389.4487	0.256
389.6553	0.2573
389.862	0.2666
390.0686	0.2676
390.2753	0.2707
390.4819	0.2472
390.6885	0.2642
390.8951	0.2376
391.1016	0.2655
391.3082	0.268
391.5147	0.244
391.7213	0.2592
391.9278	0.2633
392.1343	0.223
392.3408	0.254
392.5473	0.2654
392.7537	0.2447
392.9602	0.2619
393.1666	0.2447
393.373	0.2529
393.5794	0.2325
393.7858	0.2442
393.9922	0.2417
394.1986	0.2642
394.4049	0.2421
394.6113	0.2287
394.8176	0.2406
395.0239	0.2481
395.2302	0.2364
395.4365	0.2155
395.6428	0.2424
395.8491	0.236
396.0553	0.238
396.2615	0.2371
396.4678	0.254
396.674	0.2408
396.8802	0.2345
397.0863	0.2334
397.2925	0.228
397.4987	0.2395
397.7048	0.2332
397.9109	0.2286
398.117	0.2314
398.3231	0.2335
398.5292	0.2543
398.7353	0.2276
398.9413	0.2153
399.1474	0.2173
399.3534	0.2128
399.5594	0.2351
399.7654	0.2402
399.9714	0.2314
400.1774	0.212
400.3833	0.2395
400.5893	0.223
400.7952	0.2358
401.0011	0.2259
401.207	0.2305
401.4129	0.2309
401.6188	0.2216
401.8247	0.2281
402.0305	0.2194
402.2364	0.2377
402.4422	0.227
402.648	0.2179
402.8538	0.2312
403.0596	0.2368
403.2654	0.2443
403.4711	0.2256
403.6768	0.2373
403.8826	0.2505
404.0883	0.228
404.294	0.2352
404.4997	0.1993
404.7054	0.238
404.911	0.2208
405.1167	0.2171
405.3223	0.2224
405.5279	0.2313
405.7335	0.2524
405.9391	0.2298
406.1447	0.259
406.3502	0.2201
406.5558	0.2304
406.7613	0.231
406.9668	0.2316
407.1724	0.2241
407.3778	0.2282
407.5833	0.2323
407.7888	0.2301
407.9942	0.2245
408.1997	0.2169
408.4051	0.2307
408.6105	0.2235
408.8159	0.2383
409.0213	0.2184
409.2267	0.2396
409.432	0.2455
409.6374	0.225
409.8427	0.2312
410.048	0.218
410.2533	0.2338
410.4586	0.2147
410.6639	0.2294
410.8691	0.2347
411.0744	0.223
411.2796	0.2064
411.4848	0.2219
411.69	0.221
411.8952	0.239
412.1004	0.2229
412.3056	0.2236
412.5107	0.2177
412.7158	0.2155
412.921	0.2286
413.1261	0.2325
413.3312	0.2194
413.5362	0.2405
413.7413	0.2189
413.9464	0.2331
414.1514	0.2146
414.3564	0.2178
414.5614	0.2033
414.7664	0.2112
414.9714	0.2277
415.1764	0.2366
415.3813	0.2292
415.5863	0.2197
415.7912	0.2175
415.9961	0.2252
416.201	0.2396
416.4059	0.233
416.6108	0.2353
416.8156	0.2212
417.0205	0.233
417.2253	0.2365
417.4301	0.2202
417.6349	0.2203
417.8397	0.2063
418.0445	0.2156
418.2492	0.2063
418.454	0.2149
418.6587	0.2149
418.8634	0.229
419.0681	0.22
419.2728	0.2058
419.4775	0.2276
419.6822	0.2154
419.8868	0.2214
420.0915	0.1939
420.2961	0.2053
420.5007	0.2108
420.7053	0.2234
420.9099	0.2064
421.1144	0.2313
421.319	0.2199
421.5235	0.2233
421.728	0.1993
421.9325	0.2165
422.137	0.2042
422.3415	0.1942
422.546	0.2059
422.7504	0.2306
422.9549	0.2042
423.1593	0.2075
423.3637	0.2154
423.5681	0.1988
423.7725	0.2
423.9769	0.2195
424.1812	0.2051
424.3856	0.1877
424.5899	0.2117
424.7942	0.1813
424.9985	0.204
425.2028	0.1712
425.4071	0.1732
425.6113	0.191
425.8156	0.2137
426.0198	0.1972
426.224	0.1877
426.4282	0.1975
426.6324	0.1989
426.8366	0.1927
427.0407	0.1788
427.2449	0.1828
427.449	0.1758
427.6531	0.1802
427.8572	0.1776
428.0613	0.1924
428.2654	0.1604
428.4694	0.1851
428.6735	0.1806
428.8775	0.1662
429.0815	0.1746
429.2855	0.1754
429.4895	0.1743
429.6935	0.1739
429.8975	0.157
430.1014	0.1548
430.3053	0.1589
430.5093	0.1678
430.7132	0.1461
430.9171	0.1514
431.1209	0.1405
431.3248	0.1581
431.5286	0.1483
431.7325	0.1556
431.9363	0.1383
432.1401	0.1571
432.3439	0.1565
432.5477	0.1528
432.7514	0.1351
432.9552	0.1506
433.1589	0.14
433.3627	0.1408
433.5664	0.1288
433.7701	0.1403
433.9737	0.1224
434.1774	0.1412
434.3811	0.1187
434.5847	0.1311
434.7883	0.1324
434.9919	0.1114
435.1955	0.1249
435.3991	0.1056
435.6027	0.1215
435.8062	0.1242
436.0098	0.1274
436.2133	0.11
436.4168	0.1199
436.6203	0.1093
436.8238	0.0994
437.0272	0.1079
437.2307	0.1236
437.4341	0.0839
437.6375	0.1002
437.841	0.0867
438.0443	0.0967
438.2477	0.1103
438.4511	0.0824
438.6545	0.1037
438.8578	0.1053
439.0611	0.098
439.2644	0.0929
439.4677	0.0848
439.671	0.0936
439.8743	0.0752
440.0775	0.0801
440.2808	0.087
440.484	0.0805
440.6872	0.0753
440.8904	0.089
441.0936	0.0676
441.2967	0.0697
441.4999	0.0577
441.703	0.0837
441.9062	0.0636
442.1093	0.0788
442.3124	0.083
442.5155	0.0584
442.7185	0.0773
442.9216	0.0471
443.1246	0.073
443.3276	0.0804
443.5307	0.0606
443.7337	0.0653
443.9366	0.0546
444.1396	0.0494
444.3426	0.0471
444.5455	0.0646
444.7484	0.0629
444.9513	0.06
445.1542	0.0474
445.3571	0.0546
445.56	0.0572
445.7628	0.0506
445.9657	0.044
446.1685	0.0517
446.3713	0.0557
446.5741	0.0424
446.7769	0.0555
446.9797	0.0476
447.1824	0.0315
447.3852	0.0608
447.5879	0.0415
447.7906	0.0644
447.9933	0.0424
448.196	0.0575
448.3986	0.0468
448.6013	0.03
448.8039	0.0406
449.0066	0.0288
449.2092	0.0345
449.4118	0.0289
449.6143	0.0269
449.8169	0.0457
450.0195	0.0021
450.222	0.0306
450.4245	0.033
450.627	0.0224
450.8295	0.0293
451.032	0.0213
451.2345	0.0222
451.4369	0.0336
451.6394	0.0299
451.8418	0.0098
452.0442	0.0114
452.2466	0.017
452.449	0.0278
452.6513	0.0367
452.8537	0.0353
453.056	0.0158
453.2583	0.0117
453.4607	0.0013
453.663	0.0162
453.8652	0.0312
454.0675	0.0008
454.2697	0.0261
454.472	0.012
454.6742	0.0215
454.8764	0.0138
455.0786	0.0048
455.2808	0.0177
455.4829	0.0244
455.6851	0.0326
455.8872	0.0268
456.0893	0.0001
456.2915	0.0203
456.4935	0.0174
456.6956	-0.0043
456.8977	0.006
457.0997	0.0217
457.3018	0.0175
457.5038	0.0104
457.7058	0.0209
457.9078	-0.008
458.1098	0.013
458.3117	0.0142
458.5137	0.0097
458.7156	0.0176
458.9175	-0.0006
459.1194	0.0036
459.3213	0.0157
459.5232	0.0082
459.725	0.0026
459.9269	-0.0045
460.1287	0.0219
460.3305	-0.0013
460.5323	0.0178
460.7341	-0.0049
460.9359	0.0033
461.1376	0.0099
461.3394	-0.0006
461.5411	-0.0108
461.7428	0.0211
461.9445	-0.0031
462.1462	0.0073
462.3479	-0.0221
462.5495	0.0015
462.7512	-0.0163
462.9528	0.0058
463.1544	0.002
463.356	0.0018
463.5576	-0.0001
463.7592	-0.0004
463.9607	0.0253
464.1623	-0.0063
464.3638	0.0206
464.5653	-0.011
464.7668	-0.0034
464.9683	0.0094
465.1697	0.0064
465.3712	-0.0071
465.5726	0.0134
465.7741	0.0228
465.9755	0.0055
466.1769	0.0056
466.3782	0.001
466.5796	-0.0139
466.7809	0.0082
466.9823	0.0061
467.1836	0.0129
467.3849	0.0177
467.5862	-0.002
467.7875	0.0057
467.9887	-0.0084
468.19	0.0045
468.3912	0.0115
468.5924	-0.0124
468.7936	-0.0064
468.9948	-0.0105
469.196	0.0203
469.3972	-0.0082
469.5983	-0.0048
469.7994	-0.018
470.0006	-0.0069
470.2017	-0.0032
470.4027	-0.0107
470.6038	0.0001
470.8049	-0.0023
471.0059	0.011
471.2069	0.002
471.408	-0.0162
471.6089	-0.0078
471.8099	-0.0011
472.0109	-0.0035
472.2119	-0.0005
472.4128	-0.0086
472.6137	0.0019
472.8146	-0.012
473.0155	-0.011
473.2164	-0.0143
473.4173	-0.0007
473.6181	-0.0013
473.819	-0.0032
474.0198	-0.0134
474.2206	-0.0202
474.4214	0.0064
474.6222	-0.0022
474.8229	-0.0138
475.0237	0.0009
475.2244	-0.0103
475.4251	0.0053
475.6258	0.0011
475.8265	-0.0024
476.0272	-0.0079
476.2278	-0.0084
476.4285	-0.0114
476.6291	-0.0091
476.8297	0.0077
477.0303	0.0015
477.2309	-0.0076
477.4315	0.0036
477.632	-0.02
477.8326	-0.0066
478.0331	-0.0304
478.2336	-0.0196
478.4341	-0.0055
478.6346	-0.0096
478.8351	-0.0214
479.0355	-0.0269
479.236	-0.0042
479.4364	-0.0111
479.6368	0.0037
479.8372	-0.0089
480.0376	-0.0158
480.2379	-0.0269
480.4383	-0.0006
480.6386	-0.0038
480.8389	-0.0158
481.0392	-0.0036
481.2395	-0.0132
481.4398	-0.012
481.6401	-0.0065
481.8403	-0.0056
482.0405	-0.0076
482.2408	-0.0096
482.441	-0.0209
482.6411	-0.0203
482.8413	-0.0254
483.0415	-0.0061
483.2416	-0.015
483.4417	0.0043
483.6419	-0.0043
483.8419	-0.005
484.042	0.0007
484.2421	-0.0063
484.4422	0.0094
484.6422	-0.0013
484.8422	-0.0032
485.0422	0.002
485.2422	-0.0113
485.4422	-0.0014
485.6422	-0.0128
485.8421	-0.0016
486.042	0.0025
486.242	0.0046
486.4419	0.0022
486.6417	-0.004
486.8416	-0.0125
487.0415	-0.004
487.2413	-0.0088
487.4411	0.0002
487.641	-0.0029
487.8408	-0.0067
488.0405	-0.0058
488.2403	0.011
488.4401	-0.0016
488.6398	-0.0034
488.8395	-0.004
489.0392	-0.0053
489.2389	-0.0237
489.4386	-0.0115
489.6383	-0.0096
489.8379	-0.0063
490.0376	-0.0085
490.2372	-0.0031
490.4368	-0.0053
490.6364	-0.0059
490.836	-0.0157
491.0355	-0.0115
491.2351	-0.0117
491.4346	-0.0134
491.6341	-0.0109
491.8336	-0.0174
492.0331	-0.0117
492.2326	0.0006
492.432	-0.0136
492.6315	-0.0143
492.8309	-0.0134
493.0303	-0.01
493.2297	-0.0124
493.4291	-0.006
493.6284	-0.0208
493.8278	-0.0058
494.0271	-0.0128
494.2264	-0.0047
494.4257	-0.0179
494.625	-0.0041
494.8243	-0.0134
495.0236	-0.0124
495.2228	-0.0188
495.422	-0.0042
495.6213	-0.0179
495.8205	-0.0098
496.0196	-0.0118
496.2188	-0.0017
496.418	-0.0105
496.6171	-0.0163
496.8162	-0.0135
497.0153	-0.0031
497.2144	-0.0031
497.4135	-0.0043
497.6126	-0.0107
497.8116	-0.0015
498.0107	-0.0027
498.2097	-0.0214
498.4087	-0.0087
498.6077	-0.0062
498.8067	0.0102
499.0056	-0.0098
499.2046	0.0025
499.4035	-0.0144
499.6024	-0.0119
499.8013	-0.0128
500.0002	-0.0126
500.199	-0.0108
500.3979	-0.0015
500.5967	-0.0247
500.7956	-0.0111
500.9944	-0.0128
501.1932	-0.0084
501.3919	-0.0036
501.5907	-0.0218
501.7895	-0.0259
501.9882	-0.0159
502.1869	-0.0163
502.3856	-0.0177
502.5843	-0.0108
502.783	-0.0053
502.9816	-0.0036
503.1803	-0.0103
503.3789	-0.0015
503.5775	-0.0188
503.7761	-0.0084
503.9747	-0.0049
504.1732	-0.0082
504.3718	0.0035
504.5703	-0.0037
504.7689	-0.0065
504.9674	-0.0122
505.1658	-0.0079
505.3643	-0.0105
505.5628	0.0014
505.7612	-0.0122
505.9597	-0.0151
506.1581	-0.0062
506.3565	-0.007
506.5549	-0.0105
506.7532	-0.0061
506.9516	-0.0145
507.1499	-0.0134
507.3482	-0.0083
507.5465	-0.0011
507.7448	0.0009
507.9431	-0.0072
508.1414	-0.0094
508.3396	-0.0034
508.5379	-0.0047
508.7361	-0.02
508.9343	-0.0002
509.1325	0.0035
509.3306	-0.0199
509.5288	-0.0094
509.7269	0.0001
509.9251	-0.0102
510.1232	-0.0053
510.3213	0.0094
510.5193	-0.0114
510.7174	-0.0039
510.9154	0.0014
511.1135	-0.007
511.3115	-0.0066
511.5095	-0.0155
511.7075	0.0012
511.9055	-0.0108
512.1034	0.0013
512.3014	-0.0113
512.4993	0.0039
512.6972	-0.0059
512.8951	-0.0034
513.093	-0.0084
513.2908	-0.007
513.4887	-0.0104
513.6865	-0.0073
513.8844	-0.0007
514.0822	0.002
514.2799	-0.0116
514.4777	-0.0033
514.6755	0.0014
514.8732	-0.0059
515.0709	-0.0079
515.2687	-0.0048
515.4664	0.0025
515.664	-0.0069
515.8617	0.0007
516.0594	-0.0056
516.257	0.0002
516.4546	-0.0096
516.6522	-0.0042
516.8498	-0.0104
517.0474	0.001
517.2449	-0.0131
517.4425	-0.0063
517.64	-0.0097
517.8375	-0.0006
518.035	-0.0031
518.2325	-0.0142
518.43	-0.0009
518.6274	-0.002
518.8249	0.0078
519.0223	-0.0058
519.2197	0.0076
519.4171	0
519.6145	0.0018
519.8118	-0.0145
520.0092	-0.0027
520.2065	-0.0125
520.4038	-0.0114
520.6011	0.0015
520.7984	0.001
520.9956	0.0026
521.1929	-0.008
521.3901	-0.0075
521.5874	-0.0084
521.7846	-0.0115
521.9818	0.0012
522.1789	-0.006
522.3761	-0.0007
522.5732	-0.0056
522.7704	-0.0088
522.9675	-0.0054
523.1646	-0.0093
523.3617	-0.0019
523.5587	0.0007
523.7558	-0.0003
523.9528	0.0036
524.1498	-0.0111
524.3468	0.004
524.5438	-0.0003
524.7408	-0.0158
524.9378	0.0052
525.1347	0.0066
525.3316	0.005
525.5285	-0.0108
525.7254	0.0033
525.9223	-0.0068
526.1192	-0.0043
526.316	0.0006
526.5129	0.0085
526.7097	0.0068
526.9065	-0.0008
527.1033	-0.0055
527.3	-0.007
527.4968	-0.015
527.6935	-0.003
527.8903	0.0074
528.087	-0
528.2837	0.0025
528.4804	0.0038
528.677	0.0028
528.8737	-0.0006
529.0703	0.0039
529.2669	-0.0041
529.4635	0.0032
529.6601	-0.0048
529.8567	0.0103
530.0532	0.008
530.2498	0.0039
530.4463	0.0023
530.6428	-0.0066
530.8393	-0.0069
531.0358	-0.0008
531.2322	0.0103
531.4287	-0.0013
531.6251	-0.0023
531.8215	-0.0082
532.0179	-0.0096
532.2143	-0.012
532.4107	0.0042
532.607	0.0039
532.8034	-0.0069
532.9997	0.0008
533.196	-0.0036
533.3923	0.0069
533.5886	0.0006
533.7848	0.0017
533.9811	-0.0007
534.1773	-0.0004
534.3735	-0.0014
534.5697	-0.007
534.7659	0.0013
534.9621	-0.0082
535.1582	-0.003
535.3544	-0.0078
535.5505	-0.0039
535.7466	-0.0069
535.9427	-0.0008
536.1387	-0.0059
536.3348	-0.0121
536.5308	-0.0071
536.7269	0.0111
536.9229	-0.0049
537.1189	-0.0022
537.3148	-0.0129
537.5108	0.0056
537.7068	-0.0052
537.9027	-0.001
538.0986	0.0039
538.2945	-0.0072
538.4904	0.0004
538.6863	-0.0009
538.8821	0.0021
539.078	-0.0067
539.2738	0.0023
539.4696	-0.0033
539.6654	-0.0051
539.8611	0.0064
540.0569	0.0025
540.2526	-0.0024
540.4484	0.01
540.6441	-0.0018
540.8398	-0.0029
541.0355	-0.0007
541.2311	0.0008
541.4268	0.004
541.6224	-0.0013
541.818	0.0007
542.0136	-0.0041
542.2092	-0.0002
542.4048	0.0115
542.6003	0.0033
542.7959	-0.0023
542.9914	-0.0018
543.1869	-0.0016
543.3824	0.0048
543.5779	0.0024
543.7734	-0.0001
543.9688	0.0115
544.1642	0.0062
544.3596	0.0006
544.555	-0.0003
544.7504	0.0106
544.9458	0.0065
545.1411	0.0027
545.3365	0.0029
545.5318	0.0002
545.7271	0.0019
545.9224	0.0003
546.1177	-0.0095
546.3129	-0.0088
546.5081	-0.0058
546.7034	0.0016
546.8986	-0.0057
547.0938	0.0023
547.289	-0.0018
547.4841	0.0049
547.6793	0.0003
547.8744	0.0013
548.0695	0.007
548.2646	-0.0097
548.4597	-0.0004
548.6548	0.0003
548.8498	0.0106
549.0448	0.0017
549.2399	-0.0006
549.4349	0.0089
549.6298	0.0128
549.8248	0.0078
550.0198	0.003
550.2147	-0.0104
550.4096	0.0013
550.6045	-0.0134
550.7994	-0.011
550.9943	0.0043
551.1892	-0.013
551.384	0.0037
551.5788	0.0011
551.7737	-0.0078
551.9685	-0.0002
552.1632	-0.0014
552.358	0.0018
552.5528	-0.0023
552.7475	-0.0061
552.9422	0.001
553.1369	-0.004
553.3316	-0.001
553.5263	0.0028
553.7209	0.0015
553.9156	0.0055
554.1102	-0.0094
554.3048	0.0075
554.4994	0.0016
554.694	0.005
554.8885	0.001
555.0831	0.0107
555.2776	0.0022
555.4721	0.0063
555.6666	-0.0084
555.8611	0.0049
556.0555	0.0005
556.25	0.0056
556.4444	0.0075
556.6388	0.0024
556.8332	-0.0047
557.0276	0.0035
557.222	0.0107
557.4163	0.0046
557.6107	0.0156
557.805	0.0026
557.9993	0.0003
558.1936	0.0093
558.3879	0.0102
558.5821	0.0131
558.7764	0.0122
558.9706	0.0045
559.1648	0.0075
559.359	0.0024
559.5532	0
559.7473	0.0053
559.9415	0.0101
560.1356	0.0054
560.3297	0.0061
560.5238	0.0126
560.7179	0.013
560.9119	0.0084
561.106	0.0127
561.3	0.004
561.494	0.0079
561.688	0.0042
561.882	0.0113
562.076	0.003
562.2699	0.0025
562.4639	0.0113
562.6578	0.0025
562.8517	0.0069
563.0456	0.0004
563.2395	0.0048
563.4333	-0.0022
563.6272	0.0035
563.821	-0.01
564.0148	0.0081
564.2086	-0.0158
564.4024	-0.011
564.5961	0.0097
564.7899	-0.0004
564.9836	0.0067
565.1773	0.0054
565.371	0.0114
565.5647	-0.0044
565.7584	-0.0011
565.952	0.0071
566.1456	0.0053
566.3393	0.0057
566.5329	-0.0017
566.7264	0.0007
566.92	0
567.1136	0.007
567.3071	0.0037
567.5006	0.0063
567.6941	0.0097
567.8876	0.0116
568.0811	-0.0018
568.2745	0.0052
568.468	0.0052
568.6614	0.0049
568.8548	0.006
569.0482	0.008
569.2416	-0.0002
569.4349	0.001
569.6283	0.0043
569.8216	0.0041
570.0149	0.0073
570.2082	0.0125
570.4015	0.0025
570.5947	0.0066
570.788	0.0079
570.9812	0.0052
571.1744	0.0018
571.3676	0.0014
571.5608	-0.0057
571.754	0.0041
571.9471	-0.0034
572.1402	0.0022
572.3333	0.0004
572.5264	0.0022
572.7195	0.004
572.9126	0.0118
573.1057	-0.0009
573.2987	0.0042
573.4917	-0.0002
573.6847	-0.0018
573.8777	-0.0007
574.0707	0.0086
574.2636	0.0058
574.4566	0.0066
574.6495	0.0039
574.8424	0.0029
575.0353	-0.0025
575.2281	0.0068
575.421	0.0056
575.6138	0.0026
575.8067	0.0053
575.9995	0.0112
576.1923	0.0126
576.385	0.0039
576.5778	0.0018
576.7706	0.0088
576.9633	0.0073
577.156	0.01
577.3487	0.0005
577.5414	-0.0045
577.734	-0.0151
577.9267	-0.002
578.1193	0.003
578.3119	0.0005
578.5045	0.0047
578.6971	0.0027
578.8897	0.0032
579.0822	0.0044
579.2747	0.0052
579.4673	0.004
579.6598	0.0092
579.8522	0.0008
580.0447	-0.0031
580.2372	0.0104
580.4296	0.0096
580.622	0.0071
580.8144	0.0086
581.0068	0.0081
581.1992	0.0083
581.3915	0.0015
581.5839	0.0026
581.7762	0.0029
581.9685	0.001
582.1608	0.0032
582.353	0.0001
582.5453	0.0044
582.7375	-0.0052
582.9298	-0.0009
583.122	0.0062
583.3142	0.0045
583.5063	-0.0003
583.6985	0.0004
583.8906	0.0006
584.0827	0.0039
584.2749	0.0048
584.4669	0
584.659	-0.0014
584.8511	-0.0003
585.0431	0.0007
585.2352	-0.0037
585.4272	0.0018
585.6192	0.0018
585.8111	-0.0014
586.0031	0.0032
586.195	0.0028
586.387	0.0029
586.5789	-0.0003
586.7708	0.003
586.9627	0.0007
587.1545	0.0085
587.3464	0.0037
587.5382	-0.0043
587.73	0.0052
587.9218	0.0055
588.1136	0.0009
588.3053	-0.0029
588.4971	0.0041
588.6888	0.001
588.8805	0.0022
589.0722	0.0013
589.2639	-0.0012
589.4556	-0.0007
589.6472	-0.0001
589.8389	0.0034
590.0305	0.0091
590.2221	0.007
590.4137	0.0032
590.6052	0.0047
590.7968	0.0044
590.9883	0.001
591.1798	0.001
591.3713	0.0054
591.5628	0.0065
591.7543	0.0096
591.9458	0.0084
592.1372	0.0045
592.3286	0.0106
592.52	0.0023
592.7114	0.0101
592.9028	-0.0039
593.0941	0.0021
593.2855	0.0026
593.4768	-0.0003
593.6681	-0.005
593.8594	-0.0035
594.0506	-0.0028
594.2419	0.0039
594.4331	-0.0025
594.6244	0.0042
594.8156	0.0021
595.0067	0.0016
595.1979	0.0071
595.3891	-0.0004
595.5802	0.0102
595.7713	0.0002
595.9624	0.0029
596.1535	0.0075
596.3446	0.0031
596.5357	-0.0025
596.7267	0.0046
596.9177	0.0085
597.1087	0.0127
597.2997	0.0087
597.4907	0.007
597.6817	0.0039
597.8726	0.0141
598.0635	0.0083
598.2544	0.0109
598.4453	0.014
598.6362	0.0018
598.827	-0.0001
599.0179	0.0025
599.2087	0.0054
599.3995	0.01
599.5903	0.0053
599.7811	0.0054
599.9718	0.0001
600.1626	0.0041
600.3533	0.0002
600.544	0.0049
600.7347	0.0057
600.9254	-0.0017
601.116	-0.0013
601.3067	-0.0021
601.4973	-0.0004
601.6879	-0.0017
601.8785	0.0116
602.0691	0.0048
602.2596	0.0057
602.4502	0.0023
602.6407	0.0011
602.8312	0.0001
603.0217	0.0015
603.2122	-0.0019
603.4027	0.0012
603.5931	0.0004
603.7835	0.0106
603.9739	0.0119
604.1643	0.0126
604.3547	0.0071
604.5451	0.002
604.7354	0.0026
604.9257	-0.0034
605.116	0.0032
605.3063	0.0078
605.4966	0.0022
605.6869	0.0133
605.8771	-0.0006
606.0673	0.0064
606.2575	0.0025
606.4477	-0.0009
606.6379	0.005
606.8281	-0.0008
607.0182	-0.0024
607.2083	0.0006
607.3985	0.0077
607.5885	-0.0009
607.7786	0.0044
607.9687	0.0049
608.1587	0.0029
608.3488	0.0079
608.5388	0.0111
608.7288	0.0011
608.9187	-0.0033
609.1087	-0.0054
609.2986	0.0077
609.4886	-0.0005
609.6785	0.0016
609.8684	0.0005
610.0582	0.0134
610.2481	0.0067
610.4379	0.0014
610.6278	0.0026
610.8176	0.0089
611.0074	0.004
611.1971	0.0029
611.3869	-0.0028
611.5766	0.0015
611.7664	0.0018
611.9561	0.0095
612.1458	0.0029
612.3354	0.0077
612.5251	0.0099
612.7147	0.001
612.9044	0.0064
613.094	0.0026
613.2836	0.0029
613.4731	0.0096
613.6627	-0.0016
613.8522	0.0104
614.0417	0.0094
614.2313	0.0131
614.4207	0.0098
614.6102	0.0041
614.7997	0.0045
614.9891	0.0116
615.1785	0.0046
615.3679	0.0033
615.5573	0.0108
615.7467	0.008
615.9361	0.0038
616.1254	0.0004
616.3147	0.0039
616.504	0.0022
616.6933	0.0026
616.8826	0.0094
617.0718	0.0062
617.2611	0.0071
617.4503	0.0076
617.6395	0.0078
617.8287	0.0111
618.0179	-0.0047
618.207	0.0081
618.3961	0.0081
618.5853	0.0158
618.7744	0.0021
618.9634	0.0002
619.1525	0.0095
619.3416	0.0057
619.5306	0.009
619.7196	-0.0052
619.9086	0.0083
620.0976	0.0153
620.2866	0.0076
620.4755	0.0077
620.6645	0.0038
620.8534	0.0069
621.0423	0.0078
621.2312	0.003
621.42	0.0072
621.6089	0.0076
621.7977	0.01
621.9865	0.0155
622.1753	0.0112
622.3641	0.0061
622.5529	0.0042
622.7416	0.0055
622.9303	0.0141
623.1191	0.0138
623.3078	0.0087
623.4964	0.012
623.6851	0.0204
623.8737	0.0087
624.0624	0.0074
624.251	0.005
624.4396	0.0146
624.6282	0.0035
624.8167	0.0141
625.0053	-0.0012
625.1938	0.01
625.3823	0.0108
625.5708	0.0117
625.7593	0.0123
625.9477	0.0167
626.1362	0.0091
626.3246	0.0112
626.513	0.0074
626.7014	0.0148
626.8898	0.0052
627.0781	0.005
627.2665	0.0055
627.4548	0.0146
627.6431	0.0101
627.8314	0.0105
628.0197	0.0055
628.2079	0.013
628.3962	0.0122
628.5844	0.004
628.7726	0.0082
628.9608	0.0111
629.1489	0.0103
629.3371	0.0087
629.5252	0.0061
629.7134	0.0023
629.9015	0.0115
630.0895	0.0064
630.2776	0.0054
630.4657	0.0076
630.6537	0.0062
630.8417	0.0059
631.0297	0.0124
631.2177	0.0085
631.4057	0.0177
631.5936	0.0085
631.7815	0.0206
631.9695	0.0118
632.1574	0.0087
632.3452	0.0122
632.5331	0.0039
632.7209	0.0083
632.9088	0.0045
633.0966	0.0044
633.2844	0.0038
633.4722	0.0081
633.6599	0.0035
633.8477	0.0072
634.0354	0.0064
634.2231	0.0102
634.4108	0.0132
634.5985	0.0015
634.7861	0.0075
634.9738	0.01
635.1614	0.0082
635.349	0.0084
635.5366	0.0035
635.7242	0.0092
635.9117	0.0092
636.0993	0.0094
636.2868	0.0006
636.4743	0.0004
636.6618	0.0068
636.8492	0.0195
637.0367	0.0047
637.2241	0.0114
637.4115	0.0054
637.5989	0.0109
637.7863	0.0093
637.9737	0.005
638.161	0.012
638.3484	0.0098
638.5357	0.0087
638.723	0.0032
638.9103	0.0067
639.0975	0.007
639.2848	0.0089
639.472	0.0106
639.6592	0.0028
639.8464	0.0094
640.0336	0.0067
640.2208	-0.0046
640.4079	-0.0016
640.595	0.0059
640.7821	0.005
640.9692	0.0034
641.1563	0.0082
641.3434	0.0081
641.5304	0.0042
641.7174	0.0134
641.9044	-0.0022
642.0914	0.0007
642.2784	-0.0042
642.4653	0.0049
642.6523	-0.0007
642.8392	0.0049
643.0261	-0.0027
643.213	-0.0029
643.3999	-0
643.5867	0.0038
643.7735	-0.0003
643.9604	0.006
644.1472	0.0106
644.3339	-0.0026
644.5207	0.0111
644.7075	-0.004
644.8942	0.0084
645.0809	0.0069
645.2676	0.0098
645.4543	0.0112
645.6409	0.0043
645.8276	0.0012
646.0142	0.006
646.2008	0.0169
646.3874	0.0099
646.574	0.0115
646.7605	0.0088
646.9471	0.0147
647.1336	0.0044
647.3201	0.0106
647.5066	0.0052
647.6931	-0.0048
647.8795	-0.0041
648.0659	0.0108
648.2524	0.0105
648.4388	0.0113
648.6252	0.0007
648.8115	0.0074
648.9979	0.0047
649.1842	0.0048
649.3705	0.0002
649.5568	0.0056
649.7431	0.0071
649.9294	0.0075
650.1156	0.01
650.3018	0.0041
650.488	0.0036
650.6742	-0.0034
650.8604	0.0134
651.0466	0.0116
651.2327	0.0148
651.4188	0.0046
651.6049	0.0178
651.791	0.0104
651.9771	0.0053
652.1632	0.0057
652.3492	0.0103
652.5352	0.0132
652.7212	0.0086
652.9072	-0.0002
653.0932	0.0056
653.2791	0.0017
653.465	0.004
653.651	0.0078
653.8369	0.0057
654.0227	0.0036
654.2086	0.0072
654.3944	0.0136
654.5803	0.0047
654.7661	0.0087
654.9519	-0.0029
655.1377	-0.0024
655.3234	-0.0002
655.5092	-0.0035
655.6949	-0.0064
655.8806	-0.0052
656.0663	0.0012
656.2519	-0.0005
656.4376	0.0039
656.6232	0.0007
656.8088	0.0046
656.9945	0.0045
657.18	-0.0016
657.3656	0.0095
657.5511	-0.0002
657.7367	0.0113
657.9222	0.0028
658.1077	0.0091
658.2932	0.0004
658.4786	-0.0054
658.6641	-0.0029
658.8495	0.0116
659.0349	-0.0005
659.2203	0.0102
659.4057	-0.0001
659.591	0.0071
659.7764	0.0005
659.9617	-0.0031
660.147	0.0074
660.3323	0.0013
660.5176	0.0002
660.7028	0.0014
660.888	0.0112
661.0733	0.0106
661.2585	0.0046
661.4436	0.0073
661.6288	0.0166
661.8139	0.0043
661.9991	-0.0061
662.1842	0.0054
662.3693	0.0018
662.5544	0.0118
662.7394	0.0072
662.9245	0.0082
663.1095	0.0096
663.2945	0.0113
663.4795	0.0085
663.6644	0.004
663.8494	0.0136
664.0343	0.0111
664.2193	0.012
664.4042	0.0202
664.589	0.0055
664.7739	0.0045
664.9587	0.0101
665.1436	0.0016
665.3284	0.0131
665.5132	0.0032
665.698	0.0104
665.8827	0.0119
666.0675	0.006
666.2522	0.0141
666.4369	0.0071
666.6216	0.0104
666.8063	0.0047
666.9909	0.0062
667.1756	0.0094
667.3602	0.0081
667.5448	0.0159
667.7294	0.0139
667.9139	0.0037
668.0985	0.0096
668.283	0.0085
668.4675	0.0061
668.652	0.0064
668.8365	-0.0005
669.0209	0.0111
669.2054	0.0039
669.3898	0.0062
669.5742	0.0042
669.7586	-0.0025
669.943	0.001
670.1273	0.0131
670.3117	0.0026
670.496	0.0056
670.6803	0.0082
670.8646	0.0104
671.0488	0.0175
671.2331	0.0106
671.4173	0.0075
671.6015	0.0019
671.7857	0.0124
671.9699	0.0052
672.1541	0.0106
672.3382	0.0108
672.5223	0.0126
672.7064	0.012
672.8905	0.0131
673.0746	0.0128
673.2587	0.017
673.4427	0.0108
673.6267	0.0075
673.8107	0.0164
673.9947	0.0092
674.1787	0.0063
674.3626	0.0149
674.5465	0.0117
674.7304	0.0077
674.9143	0.0075
675.0982	0.0149
675.2821	0.002
675.4659	0.0133
675.6497	-0.0005
675.8335	0.0192
676.0173	0.0105
676.2011	0.0058
676.3849	0.0096
676.5686	0.0153
676.7523	0.0143
676.936	0
677.1197	0.0137
677.3034	0.0106
677.487	0.0116
677.6706	0.0155
677.8542	0.0095
678.0378	0.0133
678.2214	0.0067
678.405	0.0152
678.5885	0.0067
678.772	0.0098
678.9555	0.0143
679.139	0.0165
679.3225	0.005
679.5059	0.0142
679.6894	0.0106
679.8728	0.0048
680.0562	0.0126
680.2395	0.0126
680.4229	0.0014
680.6062	0.0096
680.7896	0.0109
680.9729	0.0092
681.1562	0.0063
681.3394	0.0083
681.5227	0.0083
681.7059	0.0106
681.8891	0.0033
682.0723	0.0061
682.2555	0.0066
682.4387	0.0037
682.6218	0.0117
682.805	0.0085
682.9881	0.0162
683.1712	0.0192
683.3542	0.007
683.5373	0.0148
683.7203	0.0159
683.9034	0.0067
684.0864	0.0075
684.2694	0.0092
684.4523	0.0103
684.6353	0.0007
684.8182	0.0056
685.0011	0.01
685.184	0.0075
685.3669	-0.004
685.5498	0.0124
685.7326	0.006
685.9154	0.0071
686.0982	0.0143
686.281	0.0053
686.4638	0.0088
686.6465	0.0164
686.8293	0.0083
687.012	0.0134
687.1947	0.009
687.3774	0.0141
687.56	0.0072
687.7427	0.0207
687.9253	0.0082
688.1079	0.0067
688.2905	0.0026
688.4731	0.0072
688.6556	0.0157
688.8382	0.0047
689.0207	0.0088
689.2032	0.0058
689.3857	0.0158
689.5681	0.0042
689.7506	0.0015
689.933	0.0082
690.1154	0.0038
690.2978	0.0047
690.4802	0.0081
690.6626	0.0125
690.8449	0.0075
691.0272	0.0037
691.2095	0.0046
691.3918	0.0045
691.5741	0.013
691.7563	0.0083
691.9386	0.0057
692.1208	0.0053
692.303	0.0016
692.4852	0.0132
692.6673	0.0093
692.8495	0.0168
693.0316	0.014
693.2137	0.0123
693.3958	0.011
693.5778	0.0111
693.7599	0.0122
693.9419	0.0144
694.1239	0.0085
694.3059	0.0132
694.4879	0.0105
694.6699	-0.003
694.8518	0.0076
695.0337	0.0022
695.2157	0.0225
695.3975	0.0051
695.5794	0.0066
695.7613	0.0039
695.9431	0.0129
696.1249	0.0111
696.3067	0.0057
696.4885	0.0081
696.6703	0.0137
696.852	0.0104
697.0337	0.0142
697.2154	0.0095
697.3971	0.0107
697.5788	0.0104
697.7605	0.0042
697.9421	0.0025
698.1237	0.017
698.3053	0.0122
698.4869	0.0103
698.6685	0.0083
698.85	0.0085
699.0315	0.0172
699.213	0.0115
699.3945	0.0119
699.576	0.0207
699.7575	0.0131
699.9389	0.0187
700.1203	0.0152
700.3017	0.0167
700.4831	0.0071
700.6645	0.0053
700.8458	0.0117
701.0271	0.0178
701.2084	0.0143
701.3897	0.0016
701.571	0.0066
701.7523	-0.0006
701.9335	-0.0017
702.1147	0.0074
702.2959	0.0001
702.4771	0.0054
702.6583	0.0063
702.8394	0.0072
703.0205	0.0011
703.2016	0.0086
703.3827	0.0107
703.5638	0.0228
703.7449	0.0099
703.9259	0.0056
704.1069	0.0017
704.2879	0.003
704.4689	0.0087
704.6499	0.0016
704.8308	0.008
705.0117	0.0113
705.1927	0.0147
705.3735	0.004
705.5544	-0.0055
705.7353	0.0076
705.9161	0.0047
706.0969	0.0102
706.2777	0.0107
706.4585	0.0081
706.6393	0.007
706.82	0.0082
707.0007	-0.0043
707.1815	0.0047
707.3621	0.0052
707.5428	0.0106
707.7235	0.0091
707.9041	0.0155
708.0847	0.0154
708.2653	0.0019
708.4459	0.0152
708.6265	0.019
708.807	0.0199
708.9875	0.0189
709.168	0.0091
709.3485	0.0154
709.529	0.0055
709.7095	0.0127
709.8899	0.0103
710.0703	0.0077
710.2507	0.0024
710.4311	0.012
710.6115	0.0052
710.7918	0.0061
710.9721	0.016
711.1524	-0.0013
711.3327	0.0048
711.513	-0.0003
711.6932	0.0106
711.8735	0.0037
712.0537	-0.0056
712.2339	-0.0041
712.4141	-0.0001
712.5942	0.0054
712.7744	0.0065
712.9545	0.004
713.1346	0.0111
713.3147	-0.006
713.4947	0.0034
713.6748	0.0075
713.8548	0.0089
714.0348	0.01
714.2148	-0.0023
714.3948	-0.0017
714.5748	0.0098
714.7547	0.002
714.9346	0.0027
715.1145	0.0002
715.2944	-0.0001
715.4743	0.0085
715.6541	0.0119
715.834	-0.0032
716.0138	0.0114
716.1936	0.0086
716.3733	0.0133
716.5531	0.0113
716.7328	0.0147
716.9126	0.0077
717.0923	0.014
717.2719	0.0178
717.4516	0.0034
717.6312	0.007
717.8109	0.0023
717.9905	0.0062
718.1701	0.0005
718.3496	0.004
718.5292	-0.0028
718.7087	0.0001
718.8882	-0.002
719.0677	0.0082
719.2472	0.0077
719.4267	0.0097
719.6061	0.008
719.7856	0.0108
719.965	0.0021
720.1443	0.0056
720.3237	0.0123
720.5031	0.0155
720.6824	0.0039
720.8617	0.0019
721.041	-0.001
721.2203	0.0042
721.3995	0.0082
721.5788	0.0103
721.758	-0.0009
721.9372	0.0146
722.1164	0.0125
722.2956	0.0172
722.4747	0.0072
722.6538	0.0015
722.8329	0.0073
723.012	0.0033
723.1911	0.0046
723.3702	0.0079
723.5492	0.0037
723.7282	0.0083
723.9072	0.0103
724.0862	0.0139
724.2652	0.0131
724.4441	-0.0085
724.623	0.0091
724.8019	-0.0051
724.9808	0.0068
725.1597	0.0021
725.3385	0.0159
725.5174	0.0131
725.6962	-0.0046
725.875	0.0018
726.0538	0.004
726.2325	0.0073
726.4112	0.0113
726.59	0.0103
726.7687	-0.0033
726.9474	-0.003
727.126	-0.0012
727.3047	-0.0054
727.4833	0.002
727.6619	-0.0039
727.8405	-0.0038
728.0191	-0.0027
728.1976	0.009
728.3762	0.0094
728.5547	0.0008
728.7332	0.0042
728.9116	-0.0016
729.0901	0.0022
729.2686	0.0004
729.447	0.0044
729.6254	0.0122
729.8038	0.0076
729.9821	0.0074
730.1605	0.0065
730.3388	0.0119
730.5171	0.0081
730.6954	0.0053
730.8737	-0.0053
731.0519	-0.0042
731.2302	0.0098
731.4084	-0.001
731.5866	-0.0021
731.7648	0.0033
731.9429	-0.0042
732.1211	-0.0005
732.2992	-0.0034
732.4773	-0.0094
732.6554	-0.0012
732.8335	-0.0076
733.0115	0.0068
733.1896	0.0066
733.3676	0.0053
733.5456	0.0047
733.7235	0.0029
733.9015	0.0139
734.0794	0.0072
734.2574	-0.0003
734.4353	0.0018
734.6131	-0.0016
734.791	-0.0032
734.9689	0.0146
735.1467	0.0062
735.3245	-0.0076
735.5023	0.0072
735.68	0.0074
735.8578	0.011
736.0355	0.0035
736.2132	0.0034
736.3909	-0.0022
736.5686	0.0186
736.7463	0.0092
736.9239	0.0102
737.1015	0.0089
737.2791	0.0086
737.4567	0.0039
737.6343	0.0055
737.8118	0.0046
737.9894	0.0056
738.1669	0.0011
738.3444	0.0092
738.5218	-0.0002
738.6993	0.0021
738.8767	0.0031
739.0541	0.0008
739.2315	0.0018
739.4089	0.0125
739.5863	0.0097
739.7636	-0.0033
739.9409	-0.008
740.1182	0.0055
740.2955	0.0089
740.4728	0.0101
740.65	-0.0031
740.8272	-0.0007
741.0044	-0.0054
741.1816	0.008
741.3588	0.0093
741.5359	0.0029
741.7131	-0.0014
741.8902	-0.0056
742.0673	0.0107
742.2444	0.0103
742.4214	-0.0005
742.5985	0.0052
742.7755	0.0084
742.9525	0.0002
743.1295	0.0059
743.3064	0.0046
743.4834	0.003
743.6603	-0.0042
743.8372	-0.0055
744.0141	0.0096
744.191	-0.0032
744.3678	0.0052
744.5446	0.0033
744.7215	0.0167
744.8982	0.0096
745.075	0.0086
745.2518	-0.0078
745.4285	-0.0008
745.6052	0.0081
745.7819	-0.011
745.9586	0.008
746.1353	-0.0061
746.3119	0.0097
746.4885	0.0117
746.6651	0.0078
746.8417	0.0111
747.0183	0.0045
747.1948	0.0005
747.3714	0.0058
747.5479	-0.0009
747.7244	-0.0012
747.9008	0.0127
748.0773	-0.0034
748.2537	-0.0028
748.4301	0.0018
748.6065	0.0073
748.7829	0.0044
748.9593	0.0032
749.1356	0.0076
749.3119	0.0161
749.4882	0.0059
749.6645	0.0033
749.8408	0.008
750.017	0.0057
750.1933	0.0083
750.3695	0.0096
750.5457	0.0089
750.7218	0.0025
750.898	0.0102
751.0741	0.0054
751.2502	0.0178
751.4263	0.0063
751.6024	0.0129
751.7784	0.0095
751.9545	0.0069
752.1305	0.0016
752.3065	0.0056
752.4825	0.009
752.6584	0.0146
752.8344	0.0104
753.0103	0.0117
753.1862	0.0123
753.3621	0.0025
753.5379	0.0001
753.7138	0.0032
753.8896	0.0099
754.0654	0.0058
754.2412	0.0003
754.417	0.0004
754.5927	0.0046
754.7685	0.0073
754.9442	0.0028
755.1199	0.0101
755.2956	0.0087
755.4712	0.0045
755.6469	0.0167
755.8225	0.0179
755.9981	0.0065
756.1736	-0.0022
756.3492	0.0111
756.5248	0.0122
756.7003	0.0124
756.8758	0.0215
757.0513	0.0115
757.2267	0.0039
757.4022	0.0043
757.5776	0.0056
757.753	0.0112
757.9284	0.0074
758.1038	-0.006
758.2791	0.0075
758.4545	0.0067
758.6298	0.007
758.8051	0.0083
758.9803	0.0026
759.1556	0.0014
759.3308	0.0108
759.506	0.0136
759.6812	0.0057
759.8564	0.0065
760.0316	0.0096
760.2067	0.0085
760.3819	0.0023
760.557	-0.0052
760.732	0.0045
760.9071	0.0031
761.0821	0.014
761.2572	0.009
761.4322	0.0112
761.6072	0.0062
761.7821	0.0099
761.9571	0.0021
762.132	-0.0047
762.3069	0.0054
762.4818	0.0053
762.6567	0.0098
762.8316	0.0003
763.0064	-0.0007
763.1812	0.0126
763.356	0.0054
763.5308	0.0071
763.7055	0.0081
763.8803	0.0082
764.055	-0.0059
764.2297	0.012
764.4044	0.0122
764.579	0.0138
764.7537	0.0083
764.9283	0.0101
765.1029	0.0117
765.2775	0.0097
765.4521	0.0005
765.6266	-0.0003
765.8011	0.0089
765.9756	-0.0027
766.1501	0.0047
766.3246	-0.0081
766.4991	0.0061
766.6735	-0.0088
766.8479	0.0046
767.0223	-0.0068
767.1967	0.0133
767.371	0.0117
767.5454	-0.0027
767.7197	0.0081
767.894	0.0077
768.0683	0.0137
768.2425	0.0072
768.4168	0.0032
768.591	0.0038
768.7652	0.0093
768.9394	-0.0003
769.1135	0.0203
769.2877	0.001
769.4618	0.011
769.6359	0.0106
769.81	0.0128
769.984	0.0116
770.1581	0.0056
770.3321	0.0124
770.5061	-0.0077
770.6801	-0.0004
770.8541	0.0118
771.028	0.0149
771.202	-0
771.3759	0.0065
771.5498	0.0112
771.7236	0.0105
771.8975	-0.0003
772.0713	0.0116
772.2451	0.0098
772.4189	0.008
772.5927	0.0043
772.7665	-0.0054
772.9402	0.0036
773.1139	0.0068
773.2876	-0.0038
773.4613	0.0085
773.635	0.0074
773.8086	0.0013
773.9822	0.008
774.1558	0.0139
774.3294	0.0146
774.503	-0.0054
774.6765	0.0125
774.8501	0.0068
775.0236	0.0216
775.1971	0.0254
775.3705	0.02
775.544	0.0146
775.7174	0.0155
775.8908	0.0273
776.0642	0.0135
776.2376	0.0123
776.4109	0.0081
776.5843	0.0132
776.7576	-0.0002
776.9309	0.0133
777.1041	0.0102
777.2774	0.005
777.4506	0.014
777.6238	0.0055
777.797	0.0192
777.9702	-0.0012
778.1434	0.0244
778.3165	0.0058
778.4896	0.0051
778.6627	0.0017
778.8358	0.0069
779.0089	0.0063
779.1819	0.0156
779.3549	0.0078
779.5279	0.005
779.7009	-0.0014
779.8739	-0.0082
780.0468	0.0018
780.2197	0.0087
780.3926	-0.0002
780.5655	-0.0024
780.7384	-0.0051
780.9112	0.0101
781.0841	-0.006
781.2569	-0.0107
781.4297	-0.0149
781.6024	0.0035
781.7752	-0.0082
781.9479	-0.0023
782.1206	0.0076
782.2933	0.0137
782.466	0.0083
782.6386	0.0182
782.8113	-0.0099
782.9839	0.0036
783.1565	0.0028
783.329	-0.001
783.5016	0.0023
783.6741	0.0148
783.8466	-0.0005
784.0191	0.0068
784.1916	0.008
784.3641	-0.0071
784.5365	0.0105
784.7089	0.0028
784.8813	0.0043
785.0537	-0.0003
785.2261	-0.004
785.3984	0.0085
785.5707	0.0013
785.743	0.0054
785.9153	0.0026
786.0876	0.0063
786.2598	-0.0035
786.432	0.0131
786.6042	0.0068
786.7764	0.0064
786.9486	0.0009
787.1207	0.0052
787.2928	0.0112
787.4649	-0.0114
787.637	0.0129
787.8091	0.0185
787.9811	-0.0054
788.1532	0.0034
788.3252	0.0041
788.4972	-0.0054
788.6691	0.0034
788.8411	-0.0182
789.013	-0.0053
789.1849	0.0177
789.3568	0.0183
789.5287	0.0077
789.7005	0.0024
789.8723	0.0131
790.0442	0.0152
790.2159	0.0011
790.3877	0.0136
790.5595	0.0227
790.7312	-0.0042
790.9029	0.0014
791.0746	0.0074
791.2463	0.0246
791.4179	-0.0049
791.5896	0.0235
791.7612	0.0228
791.9328	0.0069
792.1044	0.0193
792.2759	-0.0061
792.4474	0.0157
792.619	0.0229
792.7905	0.031
792.9619	0.0192
793.1334	0.0267
793.3048	0.0164
793.4762	0.0044
793.6476	0.0012
793.819	0.0239
793.9904	0.0069
794.1617	-0.0022
794.333	0.0093
794.5043	0.0035
794.6756	-0.0063
794.8469	0.009
795.0181	-0.0041
795.1893	0.0026
795.3605	0.0082
795.5317	-0.0042
795.7029	-0.0022
795.874	0.0081
796.0452	0.0052
796.2163	0.0034
796.3873	-0.003
796.5584	0.0098
796.7294	-0.0055
796.9005	0.0059
797.0715	0.0171
797.2425	-0.0004
797.4134	0.0269
797.5844	0.0114
797.7553	0.0058
797.9262	0.0128
798.0971	0.0122
798.2679	0.0165
798.4388	0.0057
798.6096	-0.0165
798.7804	0.013
798.9512	0.0143
799.122	0.0022
799.2927	0.0093
799.4635	0.0045
799.6342	0.0177
799.8049	0.0118
799.9755	0.0066
800.1462	0.0176
800.3168	0.0157
800.4874	0.0018
800.658	0.0134
800.8286	0.0028
800.9991	0.029
801.1696	0.0018
801.3402	0.0149
801.5106	0.0087
801.6811	-0.0009
801.8516	0.0092
802.022	-0.004
802.1924	-0.0005
802.3628	0.0063
802.5332	0.0224
802.7035	0.0007
802.8739	0.0049
803.0442	-0.0073
803.2145	0.0167
803.3847	0.0005
803.555	0.0046
803.7252	0.0038
803.8954	0.0022
804.0656	0.0014
804.2358	0.0073
804.4059	0.0169
804.5761	0.0275
804.7462	-0.0132
804.9163	0.0013
805.0864	-0.0075
805.2564	-0.002
805.4264	0.0024
805.5965	0.0001
805.7665	0.0216
805.9364	0.0059
806.1064	0.0172
806.2763	0.0286
806.4462	0.0126
806.6161	0.0022
806.786	0.0141
806.9559	0.007
807.1257	0.0034
807.2955	0.0287
807.4653	0.0329
807.6351	0.0043
807.8048	0.0307
807.9746	0.0131
808.1443	0.0084
808.314	0.0346
808.4837	0.0129
808.6533	0.0164
808.8229	0.0366
808.9926	0.0123
809.1622	0.0111
809.3317	0.036
809.5013	0.0329
809.6708	0.0293
809.8403	0.0105
810.0098	0.0211
810.1793	-0.0055
810.3488	-0.0128
810.5182	0.0401
810.6876	0.0195
810.857	0.0143
811.0264	0.0029
811.1958	0.0026
811.3651	0.0126
811.5344	0.0146
811.7037	0.0151
811.873	0.0117
812.0422	0.0007
812.2115	0.0215
812.3807	-0.0001
812.5499	0.0009
812.7191	0.0001
812.8882	0.0004
813.0574	-0.0114
813.2265	0.0398
813.3956	0.0038
813.5646	-0.0042
813.7337	0.0052
813.9027	-0.0017
814.0718	0.0253
814.2407	0.0235
814.4097	0.0096
814.5787	-0.0059
814.7476	-0.0056
814.9165	0.0169
815.0854	0.0053
815.2543	0.0165
815.4232	0.0076
815.592	-0.0084
815.7608	0.0304
815.9296	0.0207
816.0984	0.013
816.2671	-0.021
816.4359	-0.0111
816.6046	0.0058
816.7733	0.0019
816.942	-0.0041
817.1106	0.0233
817.2793	0.0061
817.4479	-0.0142
817.6165	0.002
817.785	0.007
817.9536	0.0125
818.1221	-0.0215
818.2906	0.0276
818.4591	-0.018
818.6276	0.0237
818.7961	0.011
818.9645	-0.0036
819.1329	0.0011
819.3013	-0.0096
819.4697	0.0059
819.638	-0.0191
819.8064	-0.0028
819.9747	-0.0163
820.143	-0.0048
820.3113	0.011
820.4795	0.0098
820.6477	0.0036
820.816	-0.0331
820.9842	-0.0086
821.1523	0.0225
821.3205	-0.0247
821.4886	-0.0005
821.6567	0.0012
821.8248	-0.0008
821.9929	0.0326
822.1609	-0.0243
822.329	0.0124
822.497	-0.0111
822.665	0.002
822.833	-0.0412
823.0009	-0.019
823.1688	-0.0157
823.3367	0.0046
823.5046	-0.0047
823.6725	-0.0151
823.8404	-0.0424
824.0082	0.0148
824.176	0.0329
824.3438	0.018
824.5116	0.017
824.6793	-0.0075
824.847	0.0171
825.0147	0.0026
825.1824	0.0035
825.3501	-0.0032
825.5177	-0.0042
825.6854	-0.021
825.853	0.0315
826.0206	0.0395
826.1881	0.0055
826.3557	0.0073
826.5232	-0.011
826.6907	0.016
826.8582	0.0433
827.0257	0.0427
827.1931	0.0154
827.3605	0.0077
827.528	0.0269
827.6953	0.0118
827.8627	-0.0047
828.03	0.0146
828.1974	0.0232
828.3647	-0.0076
828.532	-0.0088
828.6992	0.002
828.8665	0.0307
829.0337	0.0239
829.2009	0.0588
829.3681	-0.0185
829.5352	0.0086
829.7024	0.0062
829.8695	0.0398
830.0366	-0.0039
830.2037	-0.0066
830.3707	0.0186
830.5378	-0.0086
830.7048	-0.0276
830.8718	-0.0028
831.0388	-0.0216
831.2057	-0.027
831.3727	0.0358
831.5396	0.0063
831.7065	-0.0235
831.8734	-0.0076
832.0402	-0.0313
832.2071	-0.0238
832.3739	-0.0014
832.5407	0.0499
832.7075	-0.0085
832.8742	0.0254
833.041	-0.0112
833.2077	-0.0047
833.3744	0.0434
833.541	0.008
833.7077	0.0329
833.8743	0.0592
834.0409	0.0273
834.2075	0.029
834.3741	0.0209
834.5407	0.011
834.7072	-0.0174
834.8737	-0.0383
835.0402	-0.0003
835.2067	-0.0107
835.3731	0.0212
835.5395	-0.0248
835.706	0.0038
835.8723	-0.0339
836.0387	0.0338
836.2051	-0.0101
836.3714	-0.0663
836.5377	-0.0214
836.704	-0.0101
836.8703	-0.0126
837.0365	-0.0566
837.2027	-0.0327
837.3689	-0.0223
837.5351	0.0178
837.7013	-0.0688
837.8674	-0.0023
838.0335	0.0004
838.1997	-0.0669
838.3657	0.029
838.5318	-0.014
838.6978	-0.0212
838.8639	-0.0131
839.0299	0.0122
839.1958	-0.0074
839.3618	-0.0237
839.5277	0.0141
839.6937	0.0053
839.8596	-0.0045
840.0254	0.0158
840.1913	0.0207
840.3571	0.0069
840.523	0.0036
840.6888	0.0004
840.8545	-0.012
841.0203	0.058
841.186	0.0796
841.3517	0.0004
841.5174	-0.0112
841.6831	0.0257
841.8488	-0.0112
842.0144	0.0292
842.18	-0.0202
842.3456	0.0284
842.5112	0.0418
842.6767	0.0448
842.8422	0.0092
843.0077	0.014
843.1732	-0.0444
843.3387	-0.0209
843.5042	-0.0598
843.6696	0.0045
843.835	0.0026
844.0004	-0.0723
844.1657	-0.0384
844.3311	-0.0312
844.4964	-0.019
844.6617	-0.0614
844.827	0.0417
844.9923	0.0327
845.1575	-0.0125
845.3227	-0.0278
845.4879	-0.0187
845.6531	0.0506
845.8183	-0.0498
845.9834	0.0746
846.1485	-0.0845
846.3136	-0.0378
846.4787	0.0039
846.6438	0.0191
846.8088	-0.0444
846.9738	-0.0129
847.1388	0.0463
847.3038	0.0212
847.4687	-0.0124
847.6337	-0.0842
847.7986	0.0466
847.9635	0.0583
848.1284	0.0619
848.2932	0.0007
848.458	0.0124
848.6228	0.0235
848.7876	0.0141
848.9524	-0.0181
849.1172	-0.0118
849.2819	-0.0035
849.4466	0.0086
849.6113	0.002
849.7759	-0.0698
849.9406	-0.0778
850.1052	-0.0788
850.2698	0.0327
850.4344	0.0412
850.599	-0.0303
850.7635	0.0187
850.928	-0.0653
851.0925	0.0046
851.257	0.0229
851.4215	-0.0689
851.5859	0.0775
851.7503	-0.0465
851.9147	0.0537
852.0791	0.0165
852.2434	0.0868
852.4078	-0.1698
852.5721	0.056
852.7364	-0.0333
852.9007	-0.1765
853.0649	0.0009
853.2291	0.2529
853.3934	0.1054
853.5575	-0.1168
853.7217	0.1142
853.8859	-0.1107
854.05	0.0721
854.2141	0.0308
854.3782	0.0707
854.5423	0.0009
854.7063	0.0463
854.8703	-0.0217
855.0343	0.0677
855.1983	-0.0717
855.3623	-0.0638
855.5262	-0.0383
855.6901	-0.1926
855.854	0.0135
856.0179	0.0642
856.1818	0.069
856.3456	0.0294
856.5094	-0.0518
856.6732	-0.0802
856.837	0.0203
857.0008	-0.197
857.1645	0.1107
857.3282	0.3575
857.4919	-0.0408
857.6556	-0.0167
857.8192	-0.0529
857.9828	-0.0113
858.1465	-0.0615
858.31	0.0214
858.4736	0.3517
858.6372	-0.2235
858.8007	-0.1746
858.9642	-0.0317
859.1277	-0.1662
859.2911	-0.092
859.4546	0.0347
859.618	-0.4136
859.7814	0.1845
859.9448	0.0653
860.1081	-0.0477
860.2715	0.0409
860.4348	-0.0396
860.5981	0.5454
860.7614	0.2743
860.9246	-0.0168
861.0879	-0.0469
861.2511	0.2606
861.4143	-0.0084
861.5774	-0.0894
861.7406	-0.1856
861.9037	-0.1247
862.0668	-0.104
862.2299	-0.0457
862.393	-0.0019
862.556	-0.0016
862.7191	0.1616
862.8821	-0.4465
863.0451	-0.2338
863.208	0.2828
863.371	-0.6507
863.5339	0.1551
863.6968	-0.174
863.8597	-0.2122
864.0225	0.059
864.1854	-0.024
864.3482	-0.0541
864.511	0.0314
864.6737	-0.1274
864.8365	0.0479
864.9992	-0.2019
865.1619	-0.2296
865.3246	-0.0747
865.4873	-0.0165
865.65	-0.4647
865.8126	-0.223
865.9752	0.0595
866.1378	0.0199
866.3004	-0
866.4629	0.0341
866.6254	-0.1718
866.7879	-0.1668
866.9504	0.2586
867.1129	0.1366
867.2753	0.1874
867.4377	0.084
867.6001	-0.0751
867.7625	-0.1493
867.9249	-0.4799
868.0872	0.1116
868.2495	0.2404
868.4118	0.1151
868.5741	0.5466
868.7363	-0
868.8986	-0.2807
869.0608	-0.1359
869.223	-0.1424
869.3851	-0.2382
869.5473	-0.2792
869.7094	-0.034
869.8715	0.4906
870.0336	-0
870.1957	-0
870.3577	-0.3147
870.5197	0.5224
870.6817	-0.1151
870.8437	0.0703
871.0057	-0.4949
871.1676	0.0067
871.3295	-1.3577
871.4914	-0
871.6533	0.0093
871.8151	-0.089
871.977	-0.2997
872.1388	0.3057
872.3006	0.2472
872.4623	0.1756
872.6241	0.2688
872.7858	0.0557
872.9475	-0.0493
873.1092	0.1483
873.2709	-0
873.4325	-0
873.5941	-0.2038
873.7557	-0.7873
873.9173	0.1062
874.0789	0.1104
874.2404	0.8348
874.4019	0.3136
874.5634	-0.4147
874.7249	0.2668
874.8863	-0.0837
875.0478	0.0967
875.2092	0.4831
875.3706	-0.3047
875.5319	-0
875.6933	-0.5449
875.8546	-0.1584
876.0159	0.1354
876.1772	0.3705
876.3385	-0.1419
876.4997	0.0349
876.6609	-0
876.8221	-0.6397
876.9833	-0.6541
877.1445	-0.1022
877.3056	-0.0202
877.4667	0.0809
877.6278	0.167
877.7889	-0.024
877.9499	0.0428
878.111	-0
878.272	-0.3006
878.433	-0.1435
878.5939	0.3122
878.7549	-0.0405
878.9158	-0.2821
879.0767	-0.0578
879.2376	0.1281
879.3984	-0.1476
879.5593	-0.1436
879.7201	-0.2642
879.8809	-0
880.0417	0.0687
880.2024	0.315
880.3632	-0
880.5239	-0
880.6846	-0.3765
880.8452	-0.3574
881.0059	-0.6599
881.1665	-0.1493
881.3271	0.0664
881.4877	-0.7905
881.6483	-0.4121
881.8088	-0.3652
881.9693	-0.1168
882.1298	-0.1168
882.2903	-0.1168
