Data from MonoPyChalIsomerACN10uM400nmA_Absorbance_12-08-47-128.txt Node
Date: Fri Jul 05 12:08:47 BST 2024
User: LASERRRRR
Spectrometer: FLMT03099
Trigger mode: 0
Integration Time (sec): 1.000000E-1
Scans to average: 1
Electric dark correction enabled: true
Nonlinearity correction enabled: false
Boxcar width: 0
XAxis mode: Wavelengths
Number of Pixels in Spectrum: 3648
>>>>>Begin Spectral Data<<<<<
179.3399	0.1301
179.5586	0.1301
179.7771	0.1301
179.9957	2.0147
180.2143	-0
180.4329	-0
180.6514	-0
180.8699	-0.1628
181.0885	0.1943
181.307	0.4047
181.5255	-0.6309
181.744	-0
181.9625	-0
182.181	0.2507
182.3994	-0.587
182.6179	-0
182.8363	-0.1037
183.0547	0.1546
183.2732	0.1659
183.4916	0.0348
183.71	0.0558
183.9284	0.0362
184.1467	-0.1854
184.3651	-0.1694
184.5835	0.1824
184.8018	0.003
185.0201	0.0528
185.2385	0.2816
185.4568	0.1297
185.6751	-0.0328
185.8934	0.044
186.1117	0.4701
186.3299	0.0349
186.5482	0.1187
186.7664	0.1967
186.9847	0.0997
187.2029	0.2891
187.4211	-0.0365
187.6393	-0.0548
187.8575	-0.097
188.0757	0.3227
188.2939	0.2833
188.512	0.1039
188.7302	0.1684
188.9483	0.1
189.1665	0.4785
189.3846	0.1759
189.6027	0.0886
189.8208	0.1623
190.0389	0.2088
190.257	0.0685
190.475	0.4013
190.6931	0.1575
190.9111	0.1644
191.1292	0.176
191.3472	0.3097
191.5652	0.1668
191.7832	0.5627
192.0012	0.2897
192.2192	0.4512
192.4371	0.6336
192.6551	0.2393
192.873	0.7883
193.091	1.1312
193.3089	0.3076
193.5268	0.732
193.7447	0.5434
193.9626	0.5353
194.1805	0.611
194.3984	0.4834
194.6162	0.5601
194.8341	0.635
195.0519	0.5342
195.2697	0.5982
195.4875	0.651
195.7054	0.5648
195.9231	0.507
196.1409	0.6615
196.3587	0.49
196.5765	0.7668
196.7942	0.6544
197.012	0.771
197.2297	0.7703
197.4474	0.89
197.6651	0.6893
197.8828	0.6375
198.1005	0.6874
198.3182	0.8012
198.5358	0.6867
198.7535	0.5884
198.9711	0.6432
199.1888	0.6502
199.4064	0.8067
199.624	0.744
199.8416	0.6698
200.0592	0.9275
200.2767	0.6195
200.4943	0.6452
200.7119	0.7281
200.9294	0.7587
201.1469	0.8481
201.3645	0.6896
201.582	0.6563
201.7995	0.7762
202.017	0.8843
202.2344	0.7535
202.4519	0.9122
202.6694	0.8409
202.8868	0.86
203.1042	0.6685
203.3217	0.8569
203.5391	0.7104
203.7565	0.7526
203.9739	0.73
204.1913	0.9239
204.4086	0.7056
204.626	0.7868
204.8433	1.1585
205.0607	0.8478
205.278	0.7836
205.4953	0.7598
205.7126	0.7032
205.9299	0.9528
206.1472	0.7203
206.3644	0.7195
206.5817	0.7621
206.7989	0.5887
207.0162	0.7866
207.2334	0.8703
207.4506	0.7712
207.6678	0.7138
207.885	0.7305
208.1022	0.7948
208.3194	0.6921
208.5365	0.7778
208.7537	0.739
208.9708	0.7228
209.1879	0.8635
209.405	0.7078
209.6222	0.8239
209.8392	0.8283
210.0563	0.8541
210.2734	0.8866
210.4905	0.7918
210.7075	0.8452
210.9245	0.7647
211.1416	0.7569
211.3586	0.8468
211.5756	0.7345
211.7926	0.7589
212.0096	0.6725
212.2265	0.67
212.4435	0.751
212.6604	0.7978
212.8774	0.8111
213.0943	0.7407
213.3112	0.7411
213.5281	0.6662
213.745	0.7762
213.9619	0.6584
214.1788	0.6424
214.3956	0.6868
214.6125	0.6292
214.8293	0.7042
215.0461	0.6719
215.2629	0.6266
215.4798	0.6152
215.6965	0.6574
215.9133	0.6158
216.1301	0.6328
216.3469	0.6498
216.5636	0.6266
216.7803	0.601
216.9971	0.6827
217.2138	0.6499
217.4305	0.5904
217.6472	0.6242
217.8639	0.6051
218.0805	0.578
218.2972	0.5629
218.5138	0.5893
218.7305	0.5747
218.9471	0.5501
219.1637	0.5682
219.3803	0.5206
219.5969	0.5526
219.8135	0.5779
220.0301	0.522
220.2466	0.5792
220.4632	0.5224
220.6797	0.5442
220.8962	0.553
221.1127	0.5434
221.3292	0.5194
221.5457	0.5892
221.7622	0.569
221.9787	0.5311
222.1951	0.521
222.4116	0.5408
222.628	0.5574
222.8444	0.5612
223.0608	0.5586
223.2772	0.5413
223.4936	0.5234
223.71	0.5948
223.9264	0.5576
224.1427	0.5262
224.3591	0.5916
224.5754	0.5574
224.7917	0.5316
225.008	0.5841
225.2243	0.5718
225.4406	0.5431
225.6569	0.5498
225.8732	0.5863
226.0894	0.5556
226.3057	0.5511
226.5219	0.5724
226.7381	0.5473
226.9543	0.5715
227.1705	0.5868
227.3867	0.5621
227.6029	0.5658
227.8191	0.558
228.0352	0.5315
228.2513	0.5419
228.4675	0.5779
228.6836	0.5863
228.8997	0.5433
229.1158	0.5828
229.3319	0.6074
229.548	0.6066
229.764	0.5911
229.9801	0.5603
230.1961	0.5765
230.4121	0.5753
230.6282	0.5736
230.8442	0.5721
231.0602	0.5642
231.2761	0.5616
231.4921	0.57
231.7081	0.55
231.924	0.5737
232.14	0.5897
232.3559	0.5915
232.5718	0.5871
232.7877	0.5355
233.0036	0.5837
233.2195	0.5475
233.4353	0.593
233.6512	0.5506
233.867	0.5578
234.0829	0.5606
234.2987	0.5741
234.5145	0.5491
234.7303	0.5867
234.9461	0.5797
235.1619	0.5712
235.3776	0.563
235.5934	0.5359
235.8091	0.5665
236.0249	0.5505
236.2406	0.5693
236.4563	0.5334
236.672	0.5784
236.8877	0.548
237.1034	0.5288
237.319	0.5251
237.5347	0.5536
237.7503	0.5338
237.966	0.5493
238.1816	0.55
238.3972	0.5641
238.6128	0.533
238.8284	0.5242
239.0439	0.5346
239.2595	0.5451
239.475	0.5322
239.6906	0.5043
239.9061	0.5268
240.1216	0.5312
240.3371	0.5447
240.5526	0.52
240.7681	0.5089
240.9836	0.553
241.199	0.5129
241.4145	0.5074
241.6299	0.4793
241.8453	0.4989
242.0607	0.4992
242.2761	0.4914
242.4915	0.4702
242.7069	0.4375
242.9223	0.4782
243.1376	0.4401
243.353	0.4481
243.5683	0.4595
243.7836	0.4334
243.9989	0.4367
244.2142	0.4124
244.4295	0.4091
244.6448	0.388
244.86	0.4093
245.0753	0.4026
245.2905	0.3968
245.5057	0.3868
245.721	0.3736
245.9362	0.3793
246.1514	0.3709
246.3665	0.3409
246.5817	0.3635
246.7969	0.3383
247.012	0.3446
247.2271	0.3409
247.4423	0.3061
247.6574	0.3411
247.8725	0.3108
248.0876	0.2979
248.3026	0.288
248.5177	0.3008
248.7328	0.298
248.9478	0.2862
249.1628	0.2692
249.3779	0.2808
249.5929	0.2761
249.8079	0.2648
250.0228	0.2612
250.2378	0.2658
250.4528	0.2558
250.6677	0.2459
250.8827	0.2403
251.0976	0.2428
251.3125	0.2308
251.5274	0.2309
251.7423	0.2478
251.9572	0.2356
252.172	0.2136
252.3869	0.2171
252.6017	0.2211
252.8166	0.2111
253.0314	0.2212
253.2462	0.2239
253.461	0.2136
253.6758	0.201
253.8906	0.2053
254.1053	0.1963
254.3201	0.2128
254.5348	0.2082
254.7496	0.1988
254.9643	0.1933
255.179	0.1922
255.3937	0.2094
255.6083	0.2088
255.823	0.1912
256.0377	0.1878
256.2523	0.2024
256.467	0.1934
256.6816	0.2051
256.8962	0.2009
257.1108	0.1956
257.3254	0.1914
257.54	0.1803
257.7545	0.2109
257.9691	0.1984
258.1836	0.1849
258.3981	0.1793
258.6127	0.2049
258.8272	0.2031
259.0417	0.1817
259.2561	0.1922
259.4706	0.1918
259.6851	0.1828
259.8995	0.1799
260.114	0.1862
260.3284	0.1853
260.5428	0.1858
260.7572	0.1835
260.9716	0.1907
261.186	0.1956
261.4003	0.195
261.6147	0.1892
261.829	0.212
262.0433	0.1868
262.2577	0.1858
262.472	0.1777
262.6863	0.1972
262.9005	0.18
263.1148	0.1991
263.3291	0.1957
263.5433	0.181
263.7576	0.2054
263.9718	0.1766
264.186	0.1772
264.4002	0.1919
264.6144	0.185
264.8286	0.1832
265.0427	0.1953
265.2569	0.195
265.471	0.1831
265.6851	0.1773
265.8993	0.1832
266.1134	0.1775
266.3275	0.203
266.5415	0.1755
266.7556	0.1945
266.9697	0.2013
267.1837	0.2058
267.3978	0.1945
267.6118	0.1915
267.8258	0.2059
268.0398	0.2038
268.2538	0.2031
268.4677	0.1975
268.6817	0.183
268.8957	0.1843
269.1096	0.1831
269.3235	0.185
269.5374	0.1866
269.7514	0.1696
269.9652	0.1839
270.1791	0.1818
270.393	0.178
270.6068	0.1927
270.8207	0.1902
271.0345	0.1699
271.2483	0.1884
271.4622	0.1873
271.676	0.1826
271.8897	0.1962
272.1035	0.1896
272.3173	0.1861
272.531	0.178
272.7448	0.1693
272.9585	0.1846
273.1722	0.1875
273.3859	0.1921
273.5996	0.1884
273.8133	0.1848
274.0269	0.1772
274.2406	0.1918
274.4542	0.1881
274.6679	0.1803
274.8815	0.1848
275.0951	0.1941
275.3087	0.1833
275.5223	0.1794
275.7358	0.1916
275.9494	0.2002
276.1629	0.1841
276.3765	0.1801
276.59	0.1925
276.8035	0.1818
277.017	0.1771
277.2305	0.1938
277.444	0.1865
277.6574	0.1936
277.8709	0.1819
278.0843	0.1988
278.2978	0.19
278.5112	0.2006
278.7246	0.1969
278.938	0.1867
279.1513	0.2042
279.3647	0.1843
279.5781	0.1886
279.7914	0.1917
280.0047	0.1918
280.2181	0.1941
280.4314	0.1813
280.6447	0.1996
280.8579	0.1888
281.0712	0.1971
281.2845	0.1956
281.4977	0.1895
281.711	0.1939
281.9242	0.1817
282.1374	0.19
282.3506	0.1899
282.5638	0.1951
282.7769	0.192
282.9901	0.1956
283.2033	0.1853
283.4164	0.2018
283.6295	0.1898
283.8426	0.1886
284.0557	0.1911
284.2688	0.1883
284.4819	0.183
284.695	0.1833
284.908	0.1942
285.1211	0.1956
285.3341	0.1962
285.5471	0.2035
285.7601	0.1903
285.9731	0.1958
286.1861	0.1874
286.3991	0.1815
286.612	0.1778
286.825	0.1849
287.0379	0.1855
287.2508	0.184
287.4637	0.1841
287.6766	0.1711
287.8895	0.1693
288.1024	0.1787
288.3152	0.1886
288.5281	0.1729
288.7409	0.1721
288.9538	0.176
289.1666	0.1841
289.3794	0.1713
289.5922	0.1749
289.8049	0.1763
290.0177	0.1743
290.2304	0.1735
290.4432	0.1741
290.6559	0.1791
290.8686	0.1683
291.0813	0.1744
291.294	0.1753
291.5067	0.1778
291.7194	0.1749
291.932	0.1918
292.1447	0.1797
292.3573	0.1775
292.5699	0.1785
292.7825	0.172
292.9951	0.1801
293.2077	0.1834
293.4203	0.1786
293.6328	0.1772
293.8454	0.1765
294.0579	0.1708
294.2704	0.174
294.4829	0.1788
294.6954	0.178
294.9079	0.1654
295.1204	0.1737
295.3328	0.1627
295.5453	0.1705
295.7577	0.1776
295.9701	0.1674
296.1825	0.1687
296.3949	0.1702
296.6073	0.1666
296.8197	0.164
297.0321	0.164
297.2444	0.1609
297.4567	0.1782
297.6691	0.1661
297.8814	0.1667
298.0937	0.1646
298.306	0.1645
298.5182	0.163
298.7305	0.1689
298.9428	0.1667
299.155	0.1652
299.3672	0.1576
299.5794	0.1687
299.7916	0.1574
300.0038	0.1601
300.216	0.1447
300.4282	0.1675
300.6403	0.1801
300.8525	0.1517
301.0646	0.1744
301.2767	0.1796
301.4888	0.1626
301.7009	0.1747
301.913	0.1663
302.125	0.1586
302.3371	0.1621
302.5491	0.1529
302.7612	0.1528
302.9732	0.1633
303.1852	0.1574
303.3972	0.1612
303.6092	0.1469
303.8211	0.1669
304.0331	0.144
304.245	0.1628
304.457	0.1576
304.6689	0.154
304.8808	0.1385
305.0927	0.1434
305.3046	0.1561
305.5164	0.1602
305.7283	0.1571
305.9401	0.1486
306.152	0.14
306.3638	0.1437
306.5756	0.1412
306.7874	0.1333
306.9992	0.139
307.2109	0.1521
307.4227	0.1425
307.6344	0.1344
307.8462	0.1347
308.0579	0.1427
308.2696	0.1471
308.4813	0.1288
308.693	0.1436
308.9046	0.1344
309.1163	0.1235
309.328	0.1325
309.5396	0.1325
309.7512	0.1192
309.9628	0.1328
310.1744	0.1278
310.386	0.1288
310.5976	0.1355
310.8091	0.127
311.0207	0.1237
311.2322	0.1239
311.4437	0.1332
311.6552	0.1268
311.8667	0.1195
312.0782	0.1184
312.2897	0.1019
312.5012	0.1198
312.7126	0.1216
312.924	0.1115
313.1355	0.1336
313.3469	0.1192
313.5583	0.111
313.7696	0.1082
313.981	0.1146
314.1924	0.1303
314.4037	0.1176
314.6151	0.1191
314.8264	0.1135
315.0377	0.1126
315.249	0.1115
315.4603	0.111
315.6716	0.1114
315.8828	0.1069
316.0941	0.0992
316.3053	0.1096
316.5165	0.1163
316.7277	0.0964
316.9389	0.1152
317.1501	0.1081
317.3613	0.0998
317.5724	0.1214
317.7836	0.1161
317.9947	0.1219
318.2058	0.1185
318.417	0.1185
318.6281	0.1129
318.8391	0.1122
319.0502	0.1089
319.2613	0.1164
319.4723	0.1127
319.6834	0.1205
319.8944	0.1146
320.1054	0.11
320.3164	0.1199
320.5274	0.1117
320.7383	0.1175
320.9493	0.1267
321.1602	0.1174
321.3712	0.1032
321.5821	0.1152
321.793	0.1093
322.0039	0.1133
322.2148	0.1151
322.4257	0.1077
322.6365	0.1194
322.8474	0.1073
323.0582	0.1136
323.269	0.1133
323.4798	0.1071
323.6906	0.1101
323.9014	0.1205
324.1122	0.1212
324.3229	0.1232
324.5337	0.1236
324.7444	0.1252
324.9551	0.1292
325.1658	0.1186
325.3765	0.1262
325.5872	0.1113
325.7979	0.1264
326.0085	0.1002
326.2192	0.1023
326.4298	0.1225
326.6404	0.1242
326.851	0.1071
327.0616	0.114
327.2722	0.1133
327.4828	0.134
327.6933	0.1189
327.9039	0.1135
328.1144	0.1242
328.3249	0.1031
328.5354	0.1146
328.7459	0.1214
328.9564	0.1244
329.1669	0.1262
329.3773	0.1232
329.5878	0.1203
329.7982	0.1131
330.0086	0.1145
330.219	0.1197
330.4294	0.1205
330.6398	0.1215
330.8502	0.1224
331.0605	0.1396
331.2708	0.1222
331.4812	0.116
331.6915	0.1133
331.9018	0.112
332.1121	0.109
332.3224	0.1178
332.5326	0.1238
332.7429	0.1099
332.9531	0.1292
333.1633	0.1236
333.3735	0.1248
333.5837	0.1222
333.7939	0.1159
334.0041	0.1311
334.2143	0.1146
334.4244	0.1194
334.6346	0.1086
334.8447	0.1184
335.0548	0.1115
335.2649	0.1254
335.475	0.1195
335.685	0.1116
335.8951	0.1222
336.1051	0.1277
336.3152	0.1194
336.5252	0.1192
336.7352	0.1298
336.9452	0.1185
337.1552	0.1384
337.3652	0.1262
337.5751	0.1278
337.7851	0.1178
337.995	0.1205
338.2049	0.1144
338.4148	0.1325
338.6247	0.1321
338.8346	0.1359
339.0445	0.1244
339.2543	0.1354
339.4642	0.1245
339.674	0.1316
339.8838	0.1318
340.0936	0.1337
340.3034	0.1367
340.5132	0.1263
340.7229	0.1197
340.9327	0.1166
341.1424	0.1263
341.3522	0.1163
341.5619	0.1269
341.7716	0.1388
341.9813	0.1352
342.1909	0.1335
342.4006	0.1234
342.6102	0.1326
342.8199	0.1236
343.0295	0.1367
343.2391	0.137
343.4487	0.1264
343.6583	0.1272
343.8679	0.1388
344.0774	0.1426
344.287	0.1346
344.4965	0.1288
344.706	0.1449
344.9155	0.1314
345.125	0.1337
345.3345	0.1391
345.544	0.144
345.7534	0.1415
345.9629	0.1415
346.1723	0.1336
346.3817	0.1332
346.5911	0.1343
346.8005	0.143
347.0099	0.1278
347.2193	0.1381
347.4286	0.1462
347.638	0.1343
347.8473	0.1393
348.0566	0.1304
348.2659	0.1482
348.4752	0.1469
348.6845	0.1382
348.8937	0.146
349.103	0.1308
349.3122	0.1396
349.5214	0.1604
349.7306	0.1444
349.9398	0.1416
350.149	0.1407
350.3582	0.1419
350.5674	0.1481
350.7765	0.1371
350.9856	0.1388
351.1948	0.1464
351.4039	0.1597
351.613	0.1398
351.822	0.1496
352.0311	0.1495
352.2402	0.1513
352.4492	0.1528
352.6582	0.1361
352.8672	0.1412
353.0762	0.1483
353.2852	0.1575
353.4942	0.1543
353.7032	0.1546
353.9121	0.1649
354.1211	0.1563
354.33	0.1672
354.5389	0.1525
354.7478	0.151
354.9567	0.159
355.1655	0.1563
355.3744	0.1534
355.5833	0.1782
355.7921	0.1502
356.0009	0.1554
356.2097	0.1515
356.4185	0.1438
356.6273	0.1521
356.8361	0.1415
357.0448	0.1562
357.2536	0.1541
357.4623	0.1646
357.671	0.1609
357.8797	0.1606
358.0884	0.1685
358.2971	0.1639
358.5057	0.1642
358.7144	0.1631
358.923	0.1626
359.1316	0.1608
359.3402	0.1723
359.5488	0.1825
359.7574	0.1776
359.966	0.1639
360.1746	0.1687
360.3831	0.1787
360.5916	0.192
360.8002	0.1755
361.0087	0.1931
361.2172	0.1733
361.4256	0.1723
361.6341	0.185
361.8426	0.1706
362.051	0.172
362.2594	0.179
362.4678	0.1823
362.6762	0.1703
362.8846	0.1808
363.093	0.1686
363.3014	0.1785
363.5097	0.1668
363.718	0.1764
363.9264	0.192
364.1347	0.1788
364.343	0.1816
364.5513	0.1864
364.7595	0.1815
364.9678	0.1876
365.176	0.194
365.3842	0.1748
365.5925	0.1649
365.8007	0.1812
366.0089	0.1933
366.217	0.1849
366.4252	0.1739
366.6333	0.1825
366.8415	0.1871
367.0496	0.1903
367.2577	0.19
367.4658	0.1987
367.6739	0.1967
367.882	0.1877
368.09	0.2015
368.2981	0.1873
368.5061	0.1804
368.7141	0.1826
368.9221	0.1975
369.1301	0.1689
369.3381	0.2045
369.5461	0.2107
369.754	0.1904
369.962	0.1852
370.1699	0.2004
370.3778	0.2019
370.5857	0.1991
370.7936	0.1872
371.0015	0.1971
371.2093	0.2031
371.4172	0.2035
371.625	0.1924
371.8328	0.1872
372.0406	0.2039
372.2484	0.1888
372.4562	0.204
372.664	0.2184
372.8717	0.1792
373.0795	0.2045
373.2872	0.2015
373.4949	0.2065
373.7026	0.2058
373.9103	0.2178
374.118	0.1978
374.3256	0.2162
374.5333	0.2014
374.7409	0.1851
374.9485	0.2136
375.1561	0.2005
375.3637	0.1938
375.5713	0.2122
375.7789	0.2144
375.9864	0.1939
376.194	0.1931
376.4015	0.2029
376.609	0.1958
376.8165	0.2094
377.024	0.2107
377.2315	0.2018
377.4389	0.207
377.6464	0.2051
377.8538	0.2188
378.0612	0.1938
378.2686	0.21
378.476	0.1986
378.6834	0.2101
378.8908	0.1799
379.0981	0.2249
379.3055	0.2192
379.5128	0.2097
379.7201	0.2358
379.9274	0.2121
380.1347	0.2132
380.342	0.2071
380.5492	0.219
380.7565	0.2248
380.9637	0.218
381.1709	0.209
381.3781	0.2129
381.5853	0.2065
381.7925	0.2224
381.9997	0.2048
382.2068	0.2216
382.4139	0.2199
382.6211	0.22
382.8282	0.2007
383.0353	0.2186
383.2424	0.2192
383.4494	0.2093
383.6565	0.2196
383.8635	0.2293
384.0706	0.2263
384.2776	0.217
384.4846	0.2115
384.6916	0.2221
384.8986	0.2157
385.1055	0.2081
385.3125	0.2046
385.5194	0.2102
385.7263	0.207
385.9333	0.211
386.1402	0.2102
386.347	0.2277
386.5539	0.2075
386.7608	0.211
386.9676	0.2172
387.1744	0.2168
387.3813	0.2147
387.5881	0.1949
387.7948	0.2073
388.0016	0.2056
388.2084	0.1993
388.4151	0.1968
388.6219	0.2088
388.8286	0.2015
389.0353	0.2204
389.242	0.2057
389.4487	0.1876
389.6553	0.198
389.862	0.2214
390.0686	0.2124
390.2753	0.217
390.4819	0.2224
390.6885	0.2115
390.8951	0.1972
391.1016	0.1952
391.3082	0.188
391.5147	0.1828
391.7213	0.1919
391.9278	0.1806
392.1343	0.1944
392.3408	0.1969
392.5473	0.2039
392.7537	0.1911
392.9602	0.202
393.1666	0.1838
393.373	0.1844
393.5794	0.19
393.7858	0.189
393.9922	0.2059
394.1986	0.2005
394.4049	0.1773
394.6113	0.1784
394.8176	0.1932
395.0239	0.2003
395.2302	0.1729
395.4365	0.1764
395.6428	0.1953
395.8491	0.1785
396.0553	0.2008
396.2615	0.1876
396.4678	0.2021
396.674	0.2024
396.8802	0.1854
397.0863	0.1785
397.2925	0.1795
397.4987	0.1854
397.7048	0.1839
397.9109	0.1827
398.117	0.164
398.3231	0.1779
398.5292	0.1836
398.7353	0.1858
398.9413	0.1595
399.1474	0.1821
399.3534	0.1644
399.5594	0.1799
399.7654	0.1695
399.9714	0.1644
400.1774	0.1658
400.3833	0.1816
400.5893	0.1606
400.7952	0.174
401.0011	0.1918
401.207	0.1752
401.4129	0.166
401.6188	0.1706
401.8247	0.1796
402.0305	0.1559
402.2364	0.1823
402.4422	0.1807
402.648	0.1858
402.8538	0.1837
403.0596	0.1663
403.2654	0.1857
403.4711	0.1677
403.6768	0.1734
403.8826	0.1851
404.0883	0.1691
404.294	0.1714
404.4997	0.1644
404.7054	0.1646
404.911	0.1629
405.1167	0.1508
405.3223	0.1946
405.5279	0.1697
405.7335	0.1791
405.9391	0.1949
406.1447	0.1818
406.3502	0.1758
406.5558	0.1936
406.7613	0.1829
406.9668	0.1615
407.1724	0.173
407.3778	0.1756
407.5833	0.1578
407.7888	0.1632
407.9942	0.189
408.1997	0.1704
408.4051	0.1558
408.6105	0.1583
408.8159	0.1515
409.0213	0.1666
409.2267	0.1666
409.432	0.1681
409.6374	0.169
409.8427	0.15
410.048	0.1801
410.2533	0.1636
410.4586	0.1499
410.6639	0.1797
410.8691	0.1604
411.0744	0.1853
411.2796	0.1622
411.4848	0.1842
411.69	0.1734
411.8952	0.1672
412.1004	0.1522
412.3056	0.1769
412.5107	0.1542
412.7158	0.1676
412.921	0.1832
413.1261	0.1669
413.3312	0.1617
413.5362	0.162
413.7413	0.1796
413.9464	0.1691
414.1514	0.1571
414.3564	0.1536
414.5614	0.138
414.7664	0.1619
414.9714	0.1661
415.1764	0.179
415.3813	0.1634
415.5863	0.1801
415.7912	0.1618
415.9961	0.1721
416.201	0.1756
416.4059	0.1596
416.6108	0.1486
416.8156	0.1698
417.0205	0.1632
417.2253	0.1544
417.4301	0.1746
417.6349	0.1528
417.8397	0.154
418.0445	0.1584
418.2492	0.1359
418.454	0.1588
418.6587	0.1739
418.8634	0.1699
419.0681	0.1669
419.2728	0.1614
419.4775	0.1667
419.6822	0.1522
419.8868	0.1751
420.0915	0.1524
420.2961	0.1443
420.5007	0.1426
420.7053	0.1446
420.9099	0.1422
421.1144	0.173
421.319	0.1679
421.5235	0.1593
421.728	0.1358
421.9325	0.1539
422.137	0.1602
422.3415	0.1433
422.546	0.1494
422.7504	0.1617
422.9549	0.1478
423.1593	0.1403
423.3637	0.1563
423.5681	0.1426
423.7725	0.1453
423.9769	0.1451
424.1812	0.1421
424.3856	0.1562
424.5899	0.1591
424.7942	0.1351
424.9985	0.1417
425.2028	0.1228
425.4071	0.1378
425.6113	0.1393
425.8156	0.1462
426.0198	0.1381
426.224	0.1423
426.4282	0.1362
426.6324	0.1297
426.8366	0.1381
427.0407	0.1407
427.2449	0.1287
427.449	0.1274
427.6531	0.1031
427.8572	0.1229
428.0613	0.1359
428.2654	0.0981
428.4694	0.1211
428.6735	0.114
428.8775	0.1193
429.0815	0.1338
429.2855	0.115
429.4895	0.1292
429.6935	0.109
429.8975	0.1289
430.1014	0.102
430.3053	0.1106
430.5093	0.1286
430.7132	0.093
430.9171	0.1095
431.1209	0.0934
431.3248	0.1118
431.5286	0.0959
431.7325	0.1106
431.9363	0.0983
432.1401	0.1187
432.3439	0.0928
432.5477	0.109
432.7514	0.0952
432.9552	0.0895
433.1589	0.092
433.3627	0.0895
433.5664	0.0936
433.7701	0.0964
433.9737	0.0687
434.1774	0.0944
434.3811	0.0809
434.5847	0.0795
434.7883	0.0742
434.9919	0.1021
435.1955	0.0772
435.3991	0.0854
435.6027	0.0645
435.8062	0.0938
436.0098	0.0744
436.2133	0.0679
436.4168	0.091
436.6203	0.0797
436.8238	0.068
437.0272	0.0642
437.2307	0.0908
437.4341	0.0714
437.6375	0.0739
437.841	0.0625
438.0443	0.0797
438.2477	0.0817
438.4511	0.0817
438.6545	0.0623
438.8578	0.0715
439.0611	0.0729
439.2644	0.0526
439.4677	0.0678
439.671	0.0554
439.8743	0.0476
440.0775	0.0608
440.2808	0.0563
440.484	0.0601
440.6872	0.056
440.8904	0.0619
441.0936	0.052
441.2967	0.0506
441.4999	0.04
441.703	0.0555
441.9062	0.0434
442.1093	0.0423
442.3124	0.0537
442.5155	0.0543
442.7185	0.049
442.9216	0.0406
443.1246	0.0545
443.3276	0.0519
443.5307	0.0459
443.7337	0.0352
443.9366	0.0354
444.1396	0.0423
444.3426	0.0284
444.5455	0.054
444.7484	0.0487
444.9513	0.0323
445.1542	0.0371
445.3571	0.0416
445.56	0.0397
445.7628	0.0482
445.9657	0.0353
446.1685	0.0319
446.3713	0.0311
446.5741	0.0379
446.7769	0.0304
446.9797	0.032
447.1824	0.0273
447.3852	0.0544
447.5879	0.0374
447.7906	0.0336
447.9933	0.0226
448.196	0.0295
448.3986	0.034
448.6013	0.0093
448.8039	0.0242
449.0066	0.0268
449.2092	0.0212
449.4118	0.0175
449.6143	0.0103
449.8169	0.0137
450.0195	0.0138
450.222	0.0154
450.4245	0.0182
450.627	0.0132
450.8295	0.0148
451.032	0.0067
451.2345	0.0191
451.4369	0.0367
451.6394	0.0328
451.8418	-0.014
452.0442	-0.0072
452.2466	-0.0023
452.449	0.0112
452.6513	0.0235
452.8537	0.0228
453.056	-0.0024
453.2583	0.0104
453.4607	0.0125
453.663	0.0125
453.8652	0.0134
454.0675	-0.0033
454.2697	0.0127
454.472	0.0038
454.6742	0.0184
454.8764	0.0106
455.0786	-0.0057
455.2808	0.0033
455.4829	0.0187
455.6851	0.0152
455.8872	0.0232
456.0893	0.016
456.2915	0.0137
456.4935	-0.0048
456.6956	-0.0091
456.8977	0.0123
457.0997	0.0116
457.3018	0.0011
457.5038	0.0172
457.7058	0.0139
457.9078	-0.0021
458.1098	0.0006
458.3117	0.0107
458.5137	0.0019
458.7156	0.0133
458.9175	-0
459.1194	0.0014
459.3213	0.0061
459.5232	-0.0024
459.725	0.0064
459.9269	0.0056
460.1287	0.0199
460.3305	-0.0082
460.5323	0.0197
460.7341	0.0041
460.9359	-0
461.1376	0.0065
461.3394	0.0006
461.5411	0.0016
461.7428	0.0219
461.9445	0.0109
462.1462	0.0069
462.3479	-0.0041
462.5495	-0.0024
462.7512	-0.0025
462.9528	0.002
463.1544	0.0181
463.356	-0.0141
463.5576	-0.002
463.7592	-0.013
463.9607	0.0197
464.1623	-0.0078
464.3638	0.0023
464.5653	-0.004
464.7668	0.0038
464.9683	0.0166
465.1697	0.0089
465.3712	0.0045
465.5726	0.0031
465.7741	0.0054
465.9755	-0.0069
466.1769	0.0132
466.3782	0.0105
466.5796	-0.0055
466.7809	0.0015
466.9823	0.0041
467.1836	0.0158
467.3849	0.0197
467.5862	-0.0061
467.7875	0.009
467.9887	-0.0072
468.19	-0.0047
468.3912	0.0044
468.5924	-0.0119
468.7936	-0.0132
468.9948	-0.0093
469.196	-0.0079
469.3972	-0.0146
469.5983	0.0143
469.7994	-0.0215
470.0006	-0.023
470.2017	0.0066
470.4027	-0.0108
470.6038	-0.0004
470.8049	-0.0031
471.0059	-0.0059
471.2069	-0.0026
471.408	0.0005
471.6089	-0.0052
471.8099	0.007
472.0109	0.0083
472.2119	0.0064
472.4128	-0.0076
472.6137	0.0046
472.8146	-0.0036
473.0155	0.0052
473.2164	-0.0067
473.4173	0.0028
473.6181	0.0045
473.819	0.0045
474.0198	-0.017
474.2206	-0.0066
474.4214	-0.0004
474.6222	0.0028
474.8229	-0.0081
475.0237	-0.0044
475.2244	0.0071
475.4251	0.0017
475.6258	-0.0048
475.8265	-0.0071
476.0272	-0.0167
476.2278	-0.0069
476.4285	-0.0127
476.6291	-0.0032
476.8297	0.0171
477.0303	0.0133
477.2309	-0.0131
477.4315	-0.0107
477.632	-0.0191
477.8326	-0.0059
478.0331	-0.018
478.2336	-0.0121
478.4341	-0.0173
478.6346	-0.0091
478.8351	-0.0132
479.0355	-0.0126
479.236	-0.0086
479.4364	-0.0108
479.6368	0.0046
479.8372	-0.004
480.0376	-0.0195
480.2379	-0.02
480.4383	-0.0032
480.6386	-0.0077
480.8389	-0.015
481.0392	-0.0029
481.2395	0.0021
481.4398	-0.0147
481.6401	-0.0104
481.8403	-0.0064
482.0405	-0.0154
482.2408	-0.0135
482.441	-0.0148
482.6411	-0.0176
482.8413	-0.0091
483.0415	-0.015
483.2416	-0.0082
483.4417	-0.0032
483.6419	-0.0197
483.8419	-0.0146
484.042	0.0164
484.2421	-0.0123
484.4422	0.0021
484.6422	0.0017
484.8422	-0
485.0422	-0.0022
485.2422	-0.0079
485.4422	-0.0095
485.6422	-0.0074
485.8421	-0.0004
486.042	-0.0064
486.242	-0.0116
486.4419	-0.0133
486.6417	0.0034
486.8416	-0.0179
487.0415	-0.0065
487.2413	-0.0054
487.4411	-0.0062
487.641	-0
487.8408	-0.0125
488.0405	-0.0058
488.2403	0.0029
488.4401	-0.0102
488.6398	-0.0187
488.8395	-0.0117
489.0392	-0.0128
489.2389	-0.0134
489.4386	-0.0074
489.6383	-0.0069
489.8379	-0.0059
490.0376	-0.003
490.2372	-0.0074
490.4368	-0.0116
490.6364	-0.0017
490.836	-0.013
491.0355	-0.0066
491.2351	-0.0046
491.4346	-0.0084
491.6341	-0.0004
491.8336	-0.005
492.0331	-0.0093
492.2326	-0.0017
492.432	-0.0074
492.6315	-0.0029
492.8309	-0.0179
493.0303	-0.0166
493.2297	0.007
493.4291	-0.0001
493.6284	-0.0169
493.8278	0.0034
494.0271	-0.0038
494.2264	-0.0094
494.4257	-0.0046
494.625	-0.0106
494.8243	0.0008
495.0236	-0.0094
495.2228	-0.012
495.422	-0.0103
495.6213	-0.0115
495.8205	0.0026
496.0196	-0.0152
496.2188	-0.0039
496.418	-0.01
496.6171	-0.0109
496.8162	-0.0084
497.0153	-0.0057
497.2144	-0.0117
497.4135	-0.0043
497.6126	-0.0075
497.8116	-0.01
498.0107	-0.0067
498.2097	-0.0146
498.4087	-0.012
498.6077	-0.0081
498.8067	0.0074
499.0056	-0.0075
499.2046	0.0027
499.4035	-0.0125
499.6024	-0.0075
499.8013	-0.0112
500.0002	-0.018
500.199	-0.0094
500.3979	-0.0085
500.5967	-0.0205
500.7956	-0.0019
500.9944	-0.0065
501.1932	-0.0038
501.3919	-0.0034
501.5907	-0.0127
501.7895	-0.0141
501.9882	-0.0103
502.1869	-0.0072
502.3856	-0.0216
502.5843	-0.007
502.783	-0.0111
502.9816	0.0017
503.1803	-0.0094
503.3789	-0.0076
503.5775	-0.009
503.7761	-0.0046
503.9747	-0.008
504.1732	-0.0062
504.3718	-0.0047
504.5703	-0.0039
504.7689	-0.0076
504.9674	-0.0141
505.1658	-0.0098
505.3643	0.0006
505.5628	-0.0029
505.7612	-0.0037
505.9597	-0.018
506.1581	0.001
506.3565	-0.0049
506.5549	-0.0113
506.7532	0.002
506.9516	-0.0063
507.1499	-0.0218
507.3482	-0.0029
507.5465	-0.0088
507.7448	0.0034
507.9431	-0.0062
508.1414	-0.0089
508.3396	-0.013
508.5379	-0.0021
508.7361	-0.0018
508.9343	-0.0163
509.1325	-0.0026
509.3306	-0.013
509.5288	-0.0123
509.7269	-0.0021
509.9251	-0.0074
510.1232	-0.0119
510.3213	0.0071
510.5193	-0.0029
510.7174	-0.0164
510.9154	0.0028
511.1135	-0.0158
511.3115	-0.0094
511.5095	-0.0134
511.7075	0.0039
511.9055	-0.0094
512.1034	-0.0035
512.3014	-0.0061
512.4993	-0.0029
512.6972	-0.0046
512.8951	-0.0032
513.093	-0.0057
513.2908	-0.0082
513.4887	-0.0066
513.6865	0.0002
513.8844	-0.0118
514.0822	-0.0027
514.2799	-0.0101
514.4777	-0.001
514.6755	0.0062
514.8732	-0.0102
515.0709	-0.0005
515.2687	0.0038
515.4664	0.0016
515.664	-0.009
515.8617	-0.0009
516.0594	-0.007
516.257	-0.0133
516.4546	-0.0183
516.6522	-0.0023
516.8498	-0.0097
517.0474	-0.0036
517.2449	-0.0127
517.4425	0.0023
517.64	-0.011
517.8375	-0.0102
518.035	-0.0069
518.2325	-0.0154
518.43	0.0008
518.6274	0.0004
518.8249	-0.0059
519.0223	-0.0134
519.2197	-0.0023
519.4171	0.0119
519.6145	-0.0019
519.8118	-0.0155
520.0092	-0.0083
520.2065	-0.0036
520.4038	-0.0082
520.6011	-0.0022
520.7984	0.0058
520.9956	0.0005
521.1929	-0.0089
521.3901	-0.0045
521.5874	-0.0062
521.7846	0.0022
521.9818	-0.002
522.1789	0.0015
522.3761	-0.0022
522.5732	-0.0149
522.7704	-0.0028
522.9675	-0.0064
523.1646	-0.0005
523.3617	0.0023
523.5587	0.0032
523.7558	-0.0061
523.9528	0.001
524.1498	-0
524.3468	0.0004
524.5438	0.0078
524.7408	-0.0108
524.9378	0.0037
525.1347	0.0031
525.3316	-0.0015
525.5285	-0.0063
525.7254	0.0021
525.9223	-0.0132
526.1192	-0.0152
526.316	0.0009
526.5129	0.0096
526.7097	-0.0035
526.9065	0.0037
527.1033	0.0009
527.3	-0.0039
527.4968	-0.0049
527.6935	0.0044
527.8903	0.0018
528.087	0.0049
528.2837	0.0073
528.4804	0.007
528.677	0.0054
528.8737	-0.0005
529.0703	0.0076
529.2669	-0.008
529.4635	-0.0093
529.6601	0.0015
529.8567	0.0063
530.0532	0.0023
530.2498	-0.0063
530.4463	-0.0057
530.6428	-0.0006
530.8393	-0.0017
531.0358	-0.0032
531.2322	0.0079
531.4287	-0.0049
531.6251	0.0008
531.8215	-0.0049
532.0179	0.0023
532.2143	-0.0076
532.4107	0.0003
532.607	-0.0004
532.8034	-0.0018
532.9997	-0.0031
533.196	-0.0042
533.3923	0.0056
533.5886	-0.0026
533.7848	-0.003
533.9811	-0.0047
534.1773	-0.0086
534.3735	-0.0105
534.5697	0.0027
534.7659	-0.0111
534.9621	-0.0085
535.1582	0.005
535.3544	-0.0098
535.5505	-0.0056
535.7466	-0.0025
535.9427	0.0043
536.1387	0.0053
536.3348	-0.0022
536.5308	-0.0131
536.7269	-0.0039
536.9229	-0.0015
537.1189	0.0003
537.3148	-0.0128
537.5108	0.0014
537.7068	0.0012
537.9027	-0.0013
538.0986	0.0015
538.2945	0.002
538.4904	0.0035
538.6863	-0.0016
538.8821	0.002
539.078	-0.0036
539.2738	0.0031
539.4696	-0.0067
539.6654	-0.0064
539.8611	0.0072
540.0569	0.0063
540.2526	-0.0042
540.4484	0.0082
540.6441	-0.0072
540.8398	-0.0012
541.0355	0.0059
541.2311	-0.0041
541.4268	0.0056
541.6224	0.008
541.818	0.0055
542.0136	0.0001
542.2092	0.0004
542.4048	0.0065
542.6003	-0.0041
542.7959	0.0008
542.9914	0.0014
543.1869	-0.0002
543.3824	-0.0025
543.5779	-0.0034
543.7734	0.0041
543.9688	0.0025
544.1642	-0.0066
544.3596	0.003
544.555	0.0017
544.7504	0.0016
544.9458	-0.0025
545.1411	0.0014
545.3365	-0.0011
545.5318	0.0065
545.7271	0.0002
545.9224	0.006
546.1177	-0.0124
546.3129	-0.0044
546.5081	-0.0076
546.7034	-0.0044
546.8986	0.0106
547.0938	-0.0061
547.289	-0.0007
547.4841	-0.0107
547.6793	-0.0129
547.8744	-0.0009
548.0695	0.003
548.2646	-0.0003
548.4597	-0.0016
548.6548	-0.0024
548.8498	-0.0002
549.0448	-0.0005
549.2399	0.0018
549.4349	0.0032
549.6298	0.0025
549.8248	0.0078
550.0198	-0.0029
550.2147	0.0002
550.4096	-0.0018
550.6045	-0.0054
550.7994	-0.006
550.9943	0.0017
551.1892	-0.0163
551.384	-0.0018
551.5788	0.0068
551.7737	-0.0098
551.9685	0.0092
552.1632	0.0009
552.358	0.0051
552.5528	-0.0028
552.7475	-0.0061
552.9422	0.0026
553.1369	-0.0021
553.3316	-0.0046
553.5263	0.0073
553.7209	-0.0096
553.9156	-0.0035
554.1102	-0.0167
554.3048	-0.0036
554.4994	0.0067
554.694	0.0014
554.8885	0.0049
555.0831	0.0059
555.2776	0.0077
555.4721	0.0118
555.6666	-0.0043
555.8611	0.0079
556.0555	0.001
556.25	0.0045
556.4444	0.0113
556.6388	0.0116
556.8332	-0.0014
557.0276	0.0037
557.222	0.0096
557.4163	-0
557.6107	0.0147
557.805	-0.0008
557.9993	-0.0018
558.1936	0.0053
558.3879	0.0039
558.5821	0.0022
558.7764	0.0058
558.9706	-0.0024
559.1648	-0.0014
559.359	0.008
559.5532	-0.0008
559.7473	0.0136
559.9415	0.0025
560.1356	0.0124
560.3297	-0.0024
560.5238	0.0149
560.7179	0.006
560.9119	0.0015
561.106	0.0111
561.3	0.0068
561.494	-0.0047
561.688	0.0013
561.882	0.0045
562.076	0.0014
562.2699	0.0098
562.4639	-0.0047
562.6578	-0.0034
562.8517	0.0013
563.0456	0.006
563.2395	-0.0009
563.4333	-0.0081
563.6272	0.001
563.821	-0.014
564.0148	0.0026
564.2086	-0.0057
564.4024	-0.0062
564.5961	0.0121
564.7899	0.0005
564.9836	0.0046
565.1773	0.0042
565.371	0.0046
565.5647	-0.0038
565.7584	0.0033
565.952	-0.0007
566.1456	0.0062
566.3393	0.0064
566.5329	-0.0035
566.7264	-0.004
566.92	0.0016
567.1136	0.0029
567.3071	0.0027
567.5006	0.003
567.6941	0.0031
567.8876	0.0001
568.0811	0.0041
568.2745	0.0079
568.468	0.006
568.6614	-0.0008
568.8548	0.0066
569.0482	0.0026
569.2416	0.006
569.4349	0.0046
569.6283	0.0012
569.8216	-0.0023
570.0149	-0.0004
570.2082	0.006
570.4015	0.0007
570.5947	0.0014
570.788	0.0055
570.9812	0.0094
571.1744	0.0004
571.3676	-0.0018
571.5608	-0.004
571.754	0.0007
571.9471	-0.0012
572.1402	0.007
572.3333	0.0018
572.5264	0.0023
572.7195	-0.0064
572.9126	0.0089
573.1057	-0.0004
573.2987	0.0027
573.4917	0.0006
573.6847	-0.0034
573.8777	-0.005
574.0707	0.006
574.2636	-0.0006
574.4566	0.0028
574.6495	0.0018
574.8424	0.0028
575.0353	0.0001
575.2281	0.0003
575.421	0.0011
575.6138	-0.0019
575.8067	0.0035
575.9995	0.0021
576.1923	0.0036
576.385	-0.0029
576.5778	-0.0071
576.7706	0.0056
576.9633	-0.0054
577.156	0.0019
577.3487	-0.0023
577.5414	0.0054
577.734	-0.0087
577.9267	0.0008
578.1193	-0.0025
578.3119	-0.001
578.5045	0.01
578.6971	-0.0025
578.8897	0.0057
579.0822	-0.003
579.2747	0.0018
579.4673	-0.0046
579.6598	0.0037
579.8522	0.0047
580.0447	0.0039
580.2372	0.0059
580.4296	0.0103
580.622	0.0083
580.8144	0.0012
581.0068	-0.0023
581.1992	0.0048
581.3915	0.0031
581.5839	-0.0006
581.7762	0.0032
581.9685	-0.0007
582.1608	-0.0014
582.353	-0.0091
582.5453	-0.0037
582.7375	-0.002
582.9298	0.0011
583.122	-0.0016
583.3142	-0.0015
583.5063	0.0042
583.6985	0.0021
583.8906	-0.0011
584.0827	-0.0025
584.2749	-0.0035
584.4669	-0.0034
584.659	-0.0035
584.8511	-0.0059
585.0431	-0.0037
585.2352	-0.0059
585.4272	0.0016
585.6192	-0.0031
585.8111	0.0046
586.0031	-0
586.195	-0.0018
586.387	-0.0052
586.5789	-0.0049
586.7708	-0.0035
586.9627	-0.001
587.1545	0.0072
587.3464	0.0081
587.5382	-0.0105
587.73	0.004
587.9218	0.0046
588.1136	-0.0009
588.3053	-0.0046
588.4971	-0.001
588.6888	0.0004
588.8805	-0.0005
589.0722	0.0063
589.2639	0.0037
589.4556	0.0008
589.6472	-0.0005
589.8389	-0.0047
590.0305	0.0027
590.2221	0.0078
590.4137	0.0042
590.6052	0.002
590.7968	0.0082
590.9883	0.0056
591.1798	-0.0025
591.3713	0.0004
591.5628	-0.0033
591.7543	0.0085
591.9458	0.0062
592.1372	0.0023
592.3286	-0.0006
592.52	0.0051
592.7114	0.0106
592.9028	0.0026
593.0941	-0.0011
593.2855	0.0017
593.4768	-0.0056
593.6681	-0.0063
593.8594	0.0071
594.0506	-0.0103
594.2419	0.0017
594.4331	0.0016
594.6244	0.0014
594.8156	-0.0049
595.0067	-0.006
595.1979	0.0038
595.3891	0.0032
595.5802	0.0018
595.7713	-0.0035
595.9624	0.0049
596.1535	0.0033
596.3446	0.0037
596.5357	0.0032
596.7267	0.0002
596.9177	0.0051
597.1087	0.0152
597.2997	0.0023
597.4907	0.0021
597.6817	-0.0023
597.8726	0.0078
598.0635	0.0036
598.2544	0.0072
598.4453	0.0098
598.6362	0.0024
598.827	0.0071
599.0179	0.0008
599.2087	-0.0018
599.3995	0.0051
599.5903	0.0017
599.7811	0.0051
599.9718	0.0046
600.1626	0.0036
600.3533	0.0039
600.544	0.0011
600.7347	0.0025
600.9254	0.002
601.116	-0.0136
601.3067	-0.009
601.4973	0.0016
601.6879	-0.0008
601.8785	-0.0033
602.0691	-0.0018
602.2596	0.0034
602.4502	0.0022
602.6407	0.0023
602.8312	0.0016
603.0217	0.0054
603.2122	-0.0021
603.4027	0.0033
603.5931	-0.0006
603.7835	0.0052
603.9739	-0.0005
604.1643	0.0055
604.3547	0.0086
604.5451	0.0034
604.7354	-0.0026
604.9257	0.0011
605.116	-0.0011
605.3063	0.0018
605.4966	-0.0046
605.6869	0.0093
605.8771	0.0008
606.0673	0.0003
606.2575	0.0004
606.4477	-0.0033
606.6379	0.0079
606.8281	0.0009
607.0182	-0.0017
607.2083	-0.0003
607.3985	0.0101
607.5885	0.0012
607.7786	-0.0004
607.9687	0.0049
608.1587	0.0056
608.3488	0.0124
608.5388	0.0103
608.7288	-0.0015
608.9187	-0.0032
609.1087	-0.0065
609.2986	0.0048
609.4886	-0.0022
609.6785	-0.0038
609.8684	0.0022
610.0582	0.0107
610.2481	0.0044
610.4379	0.0078
610.6278	0.0031
610.8176	0.0067
611.0074	0.0002
611.1971	-0.0002
611.3869	-0.0084
611.5766	0.0026
611.7664	0.0025
611.9561	0.0032
612.1458	0.0077
612.3354	0.0047
612.5251	0.0052
612.7147	-0.0041
612.9044	0.0118
613.094	-0.0018
613.2836	0.0029
613.4731	0.0059
613.6627	0.0028
613.8522	0.0066
614.0417	0.0041
614.2313	0.0052
614.4207	0.0094
614.6102	0.0009
614.7997	0.0083
614.9891	0.0024
615.1785	0.0066
615.3679	0.0039
615.5573	0.0096
615.7467	0.01
615.9361	0.0078
616.1254	0.0014
616.3147	0.0032
616.504	0.004
616.6933	0.0038
616.8826	0.0045
617.0718	0.0006
617.2611	0.0063
617.4503	0.0128
617.6395	0.0042
617.8287	0.0161
618.0179	0.0008
618.207	0.0082
618.3961	0.005
618.5853	0.0037
618.7744	-0.0051
618.9634	0.0064
619.1525	0.001
619.3416	0.0015
619.5306	0.0082
619.7196	-0.0056
619.9086	0.0097
620.0976	0.0077
620.2866	0.0043
620.4755	0.0038
620.6645	0.0062
620.8534	0.0067
621.0423	0.0044
621.2312	-0.0016
621.42	-0.0021
621.6089	0.011
621.7977	0.0129
621.9865	0.0157
622.1753	0.0083
622.3641	0.0031
622.5529	0.0042
622.7416	0.0088
622.9303	0.0083
623.1191	0.0066
623.3078	0.0021
623.4964	0.0045
623.6851	0.0068
623.8737	0.0096
624.0624	0.0079
624.251	0.002
624.4396	0.0073
624.6282	0.0066
624.8167	0.0055
625.0053	-0.0008
625.1938	0.0063
625.3823	0.0107
625.5708	0.007
625.7593	0.0054
625.9477	0.0105
626.1362	0.0008
626.3246	0.0176
626.513	0.0036
626.7014	0.0004
626.8898	0.0074
627.0781	0.0053
627.2665	-0.001
627.4548	0.0058
627.6431	0.0052
627.8314	0.0057
628.0197	-0.0033
628.2079	0.0093
628.3962	0.0077
628.5844	0.0047
628.7726	0.005
628.9608	0.005
629.1489	0.0048
629.3371	0.0048
629.5252	0.0106
629.7134	-0.0012
629.9015	0.0046
630.0895	0.0116
630.2776	0.0011
630.4657	0.0003
630.6537	0.0113
630.8417	0.0097
631.0297	0.0093
631.2177	0.0082
631.4057	0.009
631.5936	0.0026
631.7815	0.0118
631.9695	0.0089
632.1574	0.0045
632.3452	0.0148
632.5331	0.0011
632.7209	0.0057
632.9088	0.0013
633.0966	0.0029
633.2844	-0.0009
633.4722	0.0025
633.6599	0.0052
633.8477	0.0043
634.0354	0.0053
634.2231	0.0104
634.4108	0.0155
634.5985	0.0048
634.7861	0.0055
634.9738	0.0069
635.1614	0.0093
635.349	-0.0003
635.5366	0.0063
635.7242	0.0074
635.9117	0.0092
636.0993	0.0023
636.2868	0.0103
636.4743	0.006
636.6618	0.0022
636.8492	0.0136
637.0367	0.0033
637.2241	0.009
637.4115	0.0129
637.5989	0.0105
637.7863	0.014
637.9737	0.0035
638.161	0.0126
638.3484	0.0057
638.5357	0.0074
638.723	-0.0019
638.9103	0.0076
639.0975	0.0051
639.2848	0.0076
639.472	0.0084
639.6592	-0.0004
639.8464	0.0163
640.0336	0.0043
640.2208	0.0083
640.4079	-0.0021
640.595	-0.0005
640.7821	0.0069
640.9692	0.0024
641.1563	0.0044
641.3434	0.001
641.5304	0.0068
641.7174	0.0096
641.9044	0.0002
642.0914	0.004
642.2784	-0.0017
642.4653	0.0017
642.6523	-0.0019
642.8392	0.0087
643.0261	0.0039
643.213	-0.008
643.3999	0.0002
643.5867	0.0027
643.7735	0.004
643.9604	0.0034
644.1472	0.0012
644.3339	-0.0069
644.5207	0.0026
644.7075	-0.0052
644.8942	0.0026
645.0809	0.0026
645.2676	0.0127
645.4543	0.0048
645.6409	0.0093
645.8276	0.0054
646.0142	0.012
646.2008	0.0171
646.3874	0.0112
646.574	0.0072
646.7605	0.0049
646.9471	0.0077
647.1336	0.0007
647.3201	0.0109
647.5066	0.0016
647.6931	-0.0028
647.8795	-0.0036
648.0659	0.0063
648.2524	0.0081
648.4388	0.0093
648.6252	-0.0053
648.8115	-0.0054
648.9979	0.0002
649.1842	0.001
649.3705	-0.0056
649.5568	0.0045
649.7431	0.0143
649.9294	0.0039
650.1156	0.0069
650.3018	0.008
650.488	0.0014
650.6742	0.0025
650.8604	0.0079
651.0466	0.0056
651.2327	0.0132
651.4188	0.0048
651.6049	0.0193
651.791	0.0057
651.9771	0.0118
652.1632	0.008
652.3492	0.0128
652.5352	0.0034
652.7212	0.0094
652.9072	-0.0055
653.0932	-0.0003
653.2791	-0.0009
653.465	0.006
653.651	0.0051
653.8369	0.0031
654.0227	0.0096
654.2086	0.0041
654.3944	0.0099
654.5803	0.0042
654.7661	0.0062
654.9519	0.0034
655.1377	0.0006
655.3234	-0.0041
655.5092	-0.0003
655.6949	-0.0057
655.8806	-0.0053
656.0663	-0.0047
656.2519	-0.0037
656.4376	-0.0028
656.6232	-0.0008
656.8088	0.0054
656.9945	-0.0031
657.18	-0.001
657.3656	0.0056
657.5511	-0.002
657.7367	0.0056
657.9222	0.0038
658.1077	0.0079
658.2932	0.0011
658.4786	0.0031
658.6641	0.0016
658.8495	0.0064
659.0349	0.0065
659.2203	0
659.4057	0.0068
659.591	0.0053
659.7764	0.0029
659.9617	-0.0056
660.147	0.0102
660.3323	0.0028
660.5176	-0.0041
660.7028	-0.0037
660.888	0.0128
661.0733	-0.0003
661.2585	0.0055
661.4436	0.0093
661.6288	0.007
661.8139	0.0046
661.9991	-0.0003
662.1842	-0.001
662.3693	0.0017
662.5544	0.0089
662.7394	-0
662.9245	0.0157
663.1095	0.0131
663.2945	0.0073
663.4795	0.012
663.6644	0.0074
663.8494	0.0067
664.0343	0.0113
664.2193	0.0113
664.4042	0.0086
664.589	0.0018
664.7739	-0.0064
664.9587	0.0078
665.1436	0.0049
665.3284	0.0071
665.5132	0.0014
665.698	0.0087
665.8827	0.0081
666.0675	0.0078
666.2522	0.0128
666.4369	0.0007
666.6216	0.017
666.8063	0.0073
666.9909	0.0068
667.1756	0.0032
667.3602	0.0045
667.5448	0.011
667.7294	0.0096
667.9139	0.0095
668.0985	0.0042
668.283	0.0043
668.4675	0.0076
668.652	0.0129
668.8365	-0.0012
669.0209	0.0133
669.2054	0.0064
669.3898	0.0044
669.5742	0.0029
669.7586	0.0022
669.943	0.0121
670.1273	0.0087
670.3117	0.011
670.496	0.001
670.6803	0.0066
670.8646	0.0077
671.0488	0.0084
671.2331	0.0104
671.4173	0.0046
671.6015	0.0063
671.7857	0.0102
671.9699	0.0086
672.1541	-0.0016
672.3382	0.0076
672.5223	0.0075
672.7064	0.0094
672.8905	0.0141
673.0746	0.0084
673.2587	0.0124
673.4427	-0.0005
673.6267	0.0063
673.8107	0.0067
673.9947	0.0082
674.1787	0.0101
674.3626	0.0112
674.5465	0.0121
674.7304	0.006
674.9143	0.007
675.0982	0.0031
675.2821	-0.0021
675.4659	0.0129
675.6497	0.0039
675.8335	0.0109
676.0173	0.0073
676.2011	0.0024
676.3849	0.0094
676.5686	0.012
676.7523	0.0114
676.936	0.0002
677.1197	0.0066
677.3034	0.0085
677.487	0.0054
677.6706	0.0122
677.8542	0.0054
678.0378	0.0015
678.2214	0.0036
678.405	0.015
678.5885	0.0155
678.772	0.0056
678.9555	0.0047
679.139	0.0088
679.3225	0.0086
679.5059	0.0125
679.6894	0.0007
679.8728	0.0063
680.0562	0.01
680.2395	0.01
680.4229	-0.0099
680.6062	0.0015
680.7896	0.0109
680.9729	-0.002
681.1562	0.0127
681.3394	0.0032
681.5227	0.0127
681.7059	0.0019
681.8891	-0.0019
682.0723	0.0067
682.2555	0.0113
682.4387	-0.0006
682.6218	0.0099
682.805	0.0057
682.9881	0.0131
683.1712	0.0057
683.3542	0.0027
683.5373	0.0078
683.7203	0.0173
683.9034	0.0099
684.0864	0.0028
684.2694	0.0071
684.4523	0.0111
684.6353	0.0027
684.8182	0.0058
685.0011	0.0087
685.184	0.0086
685.3669	0.0034
685.5498	0.0028
685.7326	-0.0004
685.9154	0.0099
686.0982	0.0081
686.281	0.0044
686.4638	-0.0037
686.6465	0.0108
686.8293	0.0098
687.012	0.0087
687.1947	0.0098
687.3774	0.0081
687.56	0.0035
687.7427	0.0136
687.9253	0.0111
688.1079	0.0045
688.2905	0.0035
688.4731	0.0044
688.6556	0.0053
688.8382	0.004
689.0207	-0.0002
689.2032	0.0037
689.3857	0.0104
689.5681	0.0046
689.7506	-0.001
689.933	0.0013
690.1154	0.0065
690.2978	-0.0016
690.4802	0.0021
690.6626	0.0079
690.8449	0.0105
691.0272	0.0083
691.2095	0.0136
691.3918	0.0081
691.5741	0.0137
691.7563	0.0092
691.9386	0.0097
692.1208	0.0041
692.303	0.0057
692.4852	0.009
692.6673	0.0027
692.8495	0.0008
693.0316	0.0182
693.2137	0.0058
693.3958	0.0045
693.5778	0.0077
693.7599	0.0153
693.9419	0.0026
694.1239	0.0111
694.3059	0.0102
694.4879	0.0059
694.6699	0.0073
694.8518	0.0094
695.0337	0.0108
695.2157	0.0127
695.3975	-0.0074
695.5794	0.0043
695.7613	0.0057
695.9431	0.0072
696.1249	0.0108
696.3067	-0.0038
696.4885	0.0094
696.6703	0.0128
696.852	0.0074
697.0337	0.008
697.2154	0.0108
697.3971	0.0084
697.5788	0.0024
697.7605	-0.0032
697.9421	-0.0062
698.1237	0.0174
698.3053	0.017
698.4869	0.0122
698.6685	-0.0045
698.85	0.0126
699.0315	0.0163
699.213	0.0111
699.3945	0.0033
699.576	0.0156
699.7575	0.0187
699.9389	0.016
700.1203	0.0103
700.3017	0.0128
700.4831	0.0024
700.6645	0.0004
700.8458	0.0109
701.0271	-0.0007
701.2084	0.0094
701.3897	-0.0025
701.571	-0.0054
701.7523	-0.0072
701.9335	-0.0028
702.1147	0.0013
702.2959	-0.0095
702.4771	0.0024
702.6583	0.0022
702.8394	0.0055
703.0205	0.0066
703.2016	0.0089
703.3827	-0.0048
703.5638	0.0115
703.7449	0.0084
703.9259	0.0048
704.1069	0.0007
704.2879	0.0025
704.4689	0.0011
704.6499	-0.0024
704.8308	0.0057
705.0117	0.0103
705.1927	0.0071
705.3735	-0.0026
705.5544	-0.0002
705.7353	0.0051
705.9161	0.0018
706.0969	0.0059
706.2777	0.0032
706.4585	0.0094
706.6393	0.0041
706.82	0.0029
707.0007	-0.0009
707.1815	-0.0003
707.3621	0.0061
707.5428	0.0115
707.7235	0.0081
707.9041	0.0019
708.0847	0.0083
708.2653	0.0089
708.4459	0.0084
708.6265	0.021
708.807	0.0141
708.9875	0.0127
709.168	0.0141
709.3485	0.008
709.529	-0.0061
709.7095	0.0088
709.8899	0.0058
710.0703	0.0058
710.2507	-0.0021
710.4311	0.003
710.6115	0.0118
710.7918	0.0028
710.9721	0.009
711.1524	0.002
711.3327	0.0017
711.513	-0.0056
711.6932	0.0041
711.8735	0.0046
712.0537	0.0016
712.2339	-0.0076
712.4141	-0.0002
712.5942	-0.0034
712.7744	0.0011
712.9545	0.0068
713.1346	0.0081
713.3147	-0.0011
713.4947	-0.0031
713.6748	0.0002
713.8548	0.0085
714.0348	0.0046
714.2148	0.0002
714.3948	0.0018
714.5748	-0.003
714.7547	0.0064
714.9346	0.0002
715.1145	-0.0026
715.2944	-0.0069
715.4743	0.006
715.6541	0.0156
715.834	0.0002
716.0138	0.0037
716.1936	0.0119
716.3733	0.0063
716.5531	0.0057
716.7328	0.0062
716.9126	0.0001
717.0923	0.0074
717.2719	0.0103
717.4516	0.002
717.6312	0.0022
717.8109	-0.0018
717.9905	-0.0023
718.1701	-0.003
718.3496	0.0055
718.5292	-0.0022
718.7087	-0.0086
718.8882	-0.0046
719.0677	0.0012
719.2472	-0.0024
719.4267	0.0065
719.6061	0.0033
719.7856	-0.0007
719.965	0.0059
720.1443	0.0029
720.3237	0.0123
720.5031	0.0146
720.6824	0.0114
720.8617	0.0065
721.041	0.0034
721.2203	0.0074
721.3995	0.0045
721.5788	0.0036
721.758	-0.0022
721.9372	0.0032
722.1164	0.0057
722.2956	0.0164
722.4747	0.0061
722.6538	-0.002
722.8329	0.0142
723.012	0.002
723.1911	0.0045
723.3702	0.0018
723.5492	0.0033
723.7282	0.0092
723.9072	0.0038
724.0862	0.0073
724.2652	0.0063
724.4441	-0.0039
724.623	0.0193
724.8019	-0.0119
724.9808	0.011
725.1597	0.0063
725.3385	0.0107
725.5174	0.0032
725.6962	-0.0001
725.875	-0.0047
726.0538	0.0055
726.2325	0.0019
726.4112	-0.0003
726.59	0.0001
726.7687	-0.0013
726.9474	-0.0103
727.126	-0.0051
727.3047	-0.0048
727.4833	-0.0052
727.6619	-0.0067
727.8405	-0.008
728.0191	-0.0044
728.1976	-0.0027
728.3762	0.0112
728.5547	-0.0022
728.7332	0.0058
728.9116	-0.0004
729.0901	0.0009
729.2686	-0.0011
729.447	-0.0016
729.6254	0.0142
729.8038	0.0079
729.9821	0.0025
730.1605	0.0066
730.3388	0.0018
730.5171	0.0049
730.6954	0.0021
730.8737	-0.001
731.0519	0.0028
731.2302	0.013
731.4084	0.0028
731.5866	-0.0161
731.7648	0.011
731.9429	0.0112
732.1211	-0.0007
732.2992	0.0009
732.4773	-0.0052
732.6554	-0.0034
732.8335	-0.0014
733.0115	-0.0073
733.1896	0.0077
733.3676	0.0007
733.5456	-0.0044
733.7235	0.0024
733.9015	0.0053
734.0794	0.0014
734.2574	0.0095
734.4353	-0.0006
734.6131	0.0073
734.791	-0.0021
734.9689	0.0165
735.1467	-0.003
735.3245	-0.0039
735.5023	0.0142
735.68	0.0173
735.8578	0.0114
736.0355	0.0012
736.2132	0.0084
736.3909	0.0054
736.5686	0.014
736.7463	0.0096
736.9239	0.0084
737.1015	0.0129
737.2791	0.0088
737.4567	0.0065
737.6343	0.0002
737.8118	0.0059
737.9894	0.0029
738.1669	-0.0014
738.3444	-0.0015
738.5218	0.0065
738.6993	-0.0034
738.8767	-0.0023
739.0541	-0.008
739.2315	-0.0008
739.4089	0.0098
739.5863	0.001
739.7636	0.0006
739.9409	0.0027
740.1182	0.0065
740.2955	0.0136
740.4728	0.0053
740.65	-0.0045
740.8272	-0.0122
741.0044	-0.0067
741.1816	0.0075
741.3588	0.0011
741.5359	0.0149
741.7131	0.004
741.8902	-0.0006
742.0673	0.0144
742.2444	0.0057
742.4214	0.0037
742.5985	0.0073
742.7755	0.0016
742.9525	0.0051
743.1295	0.0117
743.3064	0.0003
743.4834	0.0057
743.6603	-0.0013
743.8372	-0.011
744.0141	0.01
744.191	0.007
744.3678	-0.001
744.5446	0.0003
744.7215	0.0095
744.8982	0.0119
745.075	0.0072
745.2518	-0.0076
745.4285	0.0003
745.6052	0.0081
745.7819	0.0055
745.9586	0.006
746.1353	0.0046
746.3119	0.0042
746.4885	-0.0021
746.6651	0.007
746.8417	-0.0028
747.0183	-0.0007
747.1948	-0.0045
747.3714	-0.0037
747.5479	-0.0015
747.7244	-0.0024
747.9008	0.0125
748.0773	0.0047
748.2537	0.0055
748.4301	-0.001
748.6065	0.0079
748.7829	-0.003
748.9593	0.0043
749.1356	0.0032
749.3119	0.0023
749.4882	0.0015
749.6645	-0.003
749.8408	0.0042
750.017	0.0071
750.1933	0.008
750.3695	0.0072
750.5457	0.0131
750.7218	-0.0009
750.898	0.0154
751.0741	0.0182
751.2502	0.0143
751.4263	0.0128
751.6024	0.009
751.7784	0.0111
751.9545	0.009
752.1305	0.0163
752.3065	0.0102
752.4825	-0.0004
752.6584	0.0094
752.8344	0.0004
753.0103	0.0063
753.1862	0.0069
753.3621	-0.0043
753.5379	-0.0063
753.7138	-0.0033
753.8896	-0.0018
754.0654	0.0048
754.2412	-0.0036
754.417	-0.0001
754.5927	0.0047
754.7685	0.0058
754.9442	0.0101
755.1199	0.0082
755.2956	0.0068
755.4712	-0.007
755.6469	0.005
755.8225	0.0116
755.9981	0.006
756.1736	-0.0094
756.3492	0.0002
756.5248	0.0038
756.7003	0.0061
756.8758	0.0151
757.0513	0.0047
757.2267	-0.0036
757.4022	0.0063
757.5776	0.0071
757.753	-0.0009
757.9284	0.0025
758.1038	-0.0012
758.2791	0.0013
758.4545	0.0013
758.6298	0.0112
758.8051	-0.0008
758.9803	0.0178
759.1556	0.0067
759.3308	0.0008
759.506	0.0132
759.6812	0.0073
759.8564	0.0127
760.0316	0.0051
760.2067	0.0006
760.3819	-0.0041
760.557	-0.005
760.732	-0
760.9071	0.0072
761.0821	0.021
761.2572	0.0178
761.4322	0.0039
761.6072	0.0022
761.7821	-0.0025
761.9571	-0.0012
762.132	0.0002
762.3069	0.0095
762.4818	0.0016
762.6567	-0.0006
762.8316	0.0019
763.0064	-0.004
763.1812	0.0064
763.356	0.0086
763.5308	0.0086
763.7055	0.005
763.8803	0.0086
764.055	0.0044
764.2297	0.0137
764.4044	0.0075
764.579	0.0011
764.7537	-0.0035
764.9283	0.0052
765.1029	0.0031
765.2775	0.0001
765.4521	-0.0022
765.6266	0.0001
765.8011	0.0032
765.9756	-0.0039
766.1501	0.0038
766.3246	-0.0085
766.4991	0.0098
766.6735	-0.0013
766.8479	-0.0018
767.0223	-0.003
767.1967	0.0101
767.371	0.0058
767.5454	-0.0078
767.7197	0.0114
767.894	0.0093
768.0683	-0.0003
768.2425	0.0109
768.4168	-0.0046
768.591	0.0074
768.7652	0.0025
768.9394	0.0016
769.1135	0.0043
769.2877	-0.0017
769.4618	0.0088
769.6359	0.0138
769.81	0.0125
769.984	0.0091
770.1581	0.0032
770.3321	0.014
770.5061	0.0019
770.6801	-0.0062
770.8541	0.0103
771.028	0.0117
771.202	0.0092
771.3759	0.0048
771.5498	0.0153
771.7236	0.0029
771.8975	-0.0013
772.0713	-0.0005
772.2451	-0.0033
772.4189	-0.0019
772.5927	0.0151
772.7665	0.0041
772.9402	0.0099
773.1139	0.0056
773.2876	-0.0104
773.4613	0.0024
773.635	0.0092
773.8086	-0.0057
773.9822	0.0055
774.1558	0.0081
774.3294	0.0177
774.503	-0.004
774.6765	0.0125
774.8501	0.0103
775.0236	0.0037
775.1971	0.0117
775.3705	0.0152
775.544	0.0125
775.7174	0.0125
775.8908	0.0121
776.0642	0.0107
776.2376	-0.0001
776.4109	0.0107
776.5843	-0.0054
776.7576	0.015
776.9309	0.0173
777.1041	0.0058
777.2774	0.0002
777.4506	0.0024
777.6238	-0.0061
777.797	0.0151
777.9702	0.0064
778.1434	0.0138
778.3165	0.0091
778.4896	0.0097
778.6627	0.0045
778.8358	0.0093
779.0089	0.0025
779.1819	-0.0072
779.3549	0.0077
779.5279	0.0002
779.7009	0.0042
779.8739	-0.0058
780.0468	0.0078
780.2197	0.0074
780.3926	0.004
780.5655	0.0024
780.7384	-0.0121
780.9112	0.0135
781.0841	-0.0112
781.2569	-0.0078
781.4297	-0.0185
781.6024	0.0075
781.7752	-0.0061
781.9479	-0.0093
782.1206	0.0127
782.2933	0.0025
782.466	-0.0037
782.6386	0.0052
782.8113	-0.0166
782.9839	0.0051
783.1565	-0.0011
783.329	-0.0045
783.5016	0.0001
783.6741	0.0077
783.8466	0.0087
784.0191	0.0087
784.1916	-0.0046
784.3641	-0.0059
784.5365	-0.0118
784.7089	-0.005
784.8813	-0.0005
785.0537	-0.0045
785.2261	0.001
785.3984	0.0085
785.5707	0.0157
785.743	0.0048
785.9153	0.0067
786.0876	0.0039
786.2598	-0.0112
786.432	0.0022
786.6042	0.0083
786.7764	0.0074
786.9486	0.0042
787.1207	-0.0015
787.2928	-0.0015
787.4649	-0.0035
787.637	0.0088
787.8091	0.0095
787.9811	-0.0033
788.1532	-0.001
788.3252	-0.0061
788.4972	0.0049
788.6691	0.0003
788.8411	0.0004
789.013	0.0026
789.1849	0.0183
789.3568	0.0108
789.5287	0.0043
789.7005	0.0014
789.8723	-0.0015
790.0442	0.0037
790.2159	0.0079
790.3877	0.0174
790.5595	0.0141
790.7312	0.0006
790.9029	0.0117
791.0746	0.0057
791.2463	0.0132
791.4179	-0.0008
791.5896	0.0039
791.7612	0.0155
791.9328	0.0104
792.1044	0.0216
792.2759	0.005
792.4474	-0.0012
792.619	0.0126
792.7905	0.0325
792.9619	0.0023
793.1334	0.0155
793.3048	0.0036
793.4762	0.0134
793.6476	-0.0122
793.819	0.0178
793.9904	0.0193
794.1617	-0.0054
794.333	0.0141
794.5043	0.0113
794.6756	-0.0111
794.8469	0.0039
795.0181	0.0124
795.1893	0.0159
795.3605	0.0043
795.5317	-0.0036
795.7029	0.0027
795.874	-0.0027
796.0452	-0.0113
796.2163	0.007
796.3873	0.0128
796.5584	0.0185
796.7294	0.0117
796.9005	0.0024
797.0715	0.0222
797.2425	-0.0048
797.4134	0.0162
797.5844	0.0126
797.7553	0.0125
797.9262	0.0096
798.0971	0.0167
798.2679	-0.0013
798.4388	-0.0018
798.6096	-0.0265
798.7804	-0.0103
798.9512	-0.0076
799.122	0.0203
799.2927	0.0014
799.4635	0.0093
799.6342	0.0264
799.8049	-0.002
799.9755	0.0146
800.1462	0.0077
800.3168	0.0132
800.4874	-0.0006
800.658	-0.0021
800.8286	0.0188
800.9991	0.0184
801.1696	0.0024
801.3402	0.0132
801.5106	0.0136
801.6811	-0.0126
801.8516	0.0235
802.022	0.0053
802.1924	0.0129
802.3628	-0.0094
802.5332	0.0314
802.7035	-0.0175
802.8739	-0.0087
803.0442	0.0044
803.2145	-0.0065
803.3847	0.0057
803.555	-0.0061
803.7252	0.0123
803.8954	-0.0013
804.0656	0.011
804.2358	-0.0101
804.4059	0.0404
804.5761	-0.0037
804.7462	-0.0063
804.9163	0.0069
805.0864	-0.0124
805.2564	0.009
805.4264	0.0027
805.5965	0.0087
805.7665	0.0109
805.9364	-0.0087
806.1064	0.0259
806.2763	0.0296
806.4462	0.0002
806.6161	0.0036
806.786	0.0157
806.9559	0.0227
807.1257	0.0191
807.2955	0.0207
807.4653	0.0296
807.6351	0.0179
807.8048	0.0055
807.9746	0.0262
808.1443	0.0036
808.314	0.0115
808.4837	0.0354
808.6533	0.0188
808.8229	0.016
808.9926	0.0098
809.1622	0.0177
809.3317	0.0124
809.5013	0.0158
809.6708	0.0207
809.8403	0.0131
810.0098	0.0115
810.1793	-0.0071
810.3488	-0.0108
810.5182	0.0203
810.6876	0.0009
810.857	0.0226
811.0264	0.0024
811.1958	0.0078
811.3651	0.0022
811.5344	0.0046
811.7037	0.0258
811.873	0.0174
812.0422	0.0141
812.2115	0.0037
812.3807	0.0277
812.5499	-0.0046
812.7191	0.0373
812.8882	0.0081
813.0574	0.0162
813.2265	0.0418
813.3956	0.0103
813.5646	0.0172
813.7337	0.0052
813.9027	-0.0101
814.0718	0.0316
814.2407	0.0228
814.4097	0.0234
814.5787	0.0022
814.7476	-0.0025
814.9165	-0.0198
815.0854	0.0082
815.2543	-0.011
815.4232	0.029
815.592	-0.0092
815.7608	0.0228
815.9296	-0.0042
816.0984	0.0125
816.2671	-0.0078
816.4359	-0.0139
816.6046	0.0023
816.7733	-0.0146
816.942	0.0137
817.1106	0.0014
817.2793	-0.0015
817.4479	-0.0015
817.6165	-0.0065
817.785	0.0169
817.9536	-0.0004
818.1221	-0.0013
818.2906	-0.0007
818.4591	0.003
818.6276	0.0222
818.7961	0.0246
818.9645	0.0161
819.1329	0.0178
819.3013	0.0057
819.4697	0.0377
819.638	0.0059
819.8064	0.0258
819.9747	0.007
820.143	-0.009
820.3113	0.0026
820.4795	0.0026
820.6477	0.0006
820.816	-0.0167
820.9842	-0.0056
821.1523	0.0164
821.3205	-0.0031
821.4886	-0.0007
821.6567	0.0099
821.8248	0.0039
821.9929	0.0151
822.1609	-0.016
822.329	0.0121
822.497	-0.0025
822.665	-0.015
822.833	-0.0244
823.0009	-0.0078
823.1688	-0.0068
823.3367	0.0018
823.5046	0.0041
823.6725	-0.0245
823.8404	-0.0001
824.0082	0.0003
824.176	0.0484
824.3438	0.0223
824.5116	0.0215
824.6793	-0.0097
824.847	0.0253
825.0147	-0.0065
825.1824	-0.0152
825.3501	-0.0167
825.5177	0.0123
825.6854	-0.0114
825.853	0.0391
826.0206	0.0081
826.1881	0.0236
826.3557	0.0024
826.5232	-0.0141
826.6907	0.0316
826.8582	0.0182
827.0257	0.0069
827.1931	0.0151
827.3605	0.0229
827.528	0.0184
827.6953	-0.0005
827.8627	-0.0021
828.03	0.0536
828.1974	0.0526
828.3647	0.0017
828.532	0.0027
828.6992	0.0136
828.8665	0.0163
829.0337	0.0044
829.2009	0.0061
829.3681	-0.0081
829.5352	0.0231
829.7024	0.0161
829.8695	0.0165
830.0366	0.0115
830.2037	0.0009
830.3707	0.0267
830.5378	-0.0506
830.7048	-0.0077
830.8718	0.0162
831.0388	0.0004
831.2057	-0.0072
831.3727	0.0133
831.5396	-0.0006
831.7065	-0.037
831.8734	-0.0182
832.0402	-0.0311
832.2071	0.0053
832.3739	-0.0374
832.5407	0.0135
832.7075	0.0078
832.8742	0.0114
833.041	0.0016
833.2077	0.0228
833.3744	0.0313
833.541	0.0291
833.7077	0.0212
833.8743	-0.0044
834.0409	0.0071
834.2075	0.0102
834.3741	0.055
834.5407	0.003
834.7072	-0.022
834.8737	0.0061
835.0402	0.025
835.2067	-0.0272
835.3731	-0.0019
835.5395	-0.0405
835.706	0.0253
835.8723	-0.0112
836.0387	0.0122
836.2051	0.0043
836.3714	-0.0739
836.5377	-0.0587
836.704	-0.0365
836.8703	-0.0029
837.0365	-0.018
837.2027	0.0167
837.3689	-0.0175
837.5351	-0.0082
837.7013	-0.0577
837.8674	0.0026
838.0335	-0.0067
838.1997	-0.0488
838.3657	0.0455
838.5318	-0.0095
838.6978	-0.0374
838.8639	-0.0337
839.0299	0.03
839.1958	0.0217
839.3618	0.0031
839.5277	-0.0035
839.6937	0.0301
839.8596	0.0015
840.0254	0.0063
840.1913	0.0334
840.3571	-0.0267
840.523	0.0055
840.6888	-0.0001
840.8545	-0.0072
841.0203	0.0432
841.186	0.0309
841.3517	0.0382
841.5174	-0.0223
841.6831	0.0428
841.8488	-0.0068
842.0144	0.0438
842.18	-0.0287
842.3456	0.0153
842.5112	0.0103
842.6767	0.0373
842.8422	-0.0146
843.0077	0.0323
843.1732	-0.051
843.3387	-0.0851
843.5042	-0.0375
843.6696	0.0079
843.835	-0.0392
844.0004	-0.024
844.1657	-0.0296
844.3311	-0.0113
844.4964	-0.0505
844.6617	-0.0494
844.827	0.0185
844.9923	0.0161
845.1575	0.0008
845.3227	0.0153
845.4879	-0.0053
845.6531	0.034
845.8183	0.0369
845.9834	0.0286
846.1485	-0.0116
846.3136	0.0183
846.4787	-0.0156
846.6438	0.0681
846.8088	0.0292
846.9738	-0.0243
847.1388	0.0202
847.3038	-0.0015
847.4687	0.0078
847.6337	-0.024
847.7986	0.0773
847.9635	0.0357
848.1284	-0.0525
848.2932	0.0663
848.458	0.0238
848.6228	0.0825
848.7876	0.0341
848.9524	-0.0191
849.1172	0.0975
849.2819	0.011
849.4466	-0.0219
849.6113	0.0374
849.7759	-0.0305
849.9406	0.0819
850.1052	-0.0718
850.2698	0.0364
850.4344	0.0034
850.599	0.028
850.7635	-0.0097
850.928	-0.0091
851.0925	0.0723
851.257	0.0159
851.4215	-0.0652
851.5859	0.1015
851.7503	-0.1207
851.9147	0.0525
852.0791	-0.0153
852.2434	0.0513
852.4078	-0.0617
852.5721	0.0813
852.7364	-0.0409
852.9007	-0.1658
853.0649	0.0087
853.2291	0.1174
853.3934	-0.0229
853.5575	-0.0965
853.7217	-0.0096
853.8859	-0.0283
854.05	0.0282
854.2141	-0.028
854.3782	0.1206
854.5423	-0.0255
854.7063	0.1032
854.8703	0.0259
855.0343	0.0402
855.1983	-0.0337
855.3623	0.0574
855.5262	0.0599
855.6901	-0.2441
855.854	-0.0981
856.0179	0.0159
856.1818	0.0613
856.3456	-0.045
856.5094	-0.0427
856.6732	-0.0566
856.837	0.0477
857.0008	-0.3603
857.1645	0.0624
857.3282	0.2721
857.4919	-0.0649
857.6556	0.0382
857.8192	0.045
857.9828	0.0515
858.1465	0.0992
858.31	0.1209
858.4736	-0.1
858.6372	-0.0249
858.8007	-0.4539
858.9642	0.1887
859.1277	-0.2056
859.2911	-0.1502
859.4546	-0.04
859.618	-0.5295
859.7814	0.1093
859.9448	-0.1075
860.1081	0.0034
860.2715	0.1329
860.4348	-0.0914
860.5981	0.0976
860.7614	0.0433
860.9246	0.0796
861.0879	-0.1527
861.2511	0.1345
861.4143	0.0935
861.5774	-0.2486
861.7406	-0.049
861.9037	-0.2151
862.0668	-0.0995
862.2299	0.2534
862.393	0.1272
862.556	-0.0426
862.7191	0.1759
862.8821	0.0872
863.0451	-0.1164
863.208	0.1629
863.371	-0.5936
863.5339	0.1712
863.6968	-0.2583
863.8597	-0.2105
864.0225	0.0663
864.1854	0.2612
864.3482	-0.0652
864.511	0.0034
864.6737	0.9208
864.8365	0.1118
864.9992	-0.1756
865.1619	-0.1374
865.3246	0.1757
865.4873	-0.2342
865.65	-0.3184
865.8126	-0.3233
865.9752	-0.0349
866.1378	0.0693
866.3004	-0
866.4629	0.0795
866.6254	-0.0651
866.7879	-0.2003
866.9504	0.1606
867.1129	0.15
867.2753	0.1495
867.4377	-0.1803
867.6001	0.0482
867.7625	0.0962
867.9249	-0.3542
868.0872	0.7437
868.2495	0.0532
868.4118	-0.0202
868.5741	-0.1897
868.7363	0.289
868.8986	-0.1415
869.0608	-0.3551
869.223	-0.0854
869.3851	-0.0598
869.5473	-0.2988
869.7094	-0.1232
869.8715	0.3901
870.0336	-0
870.1957	-0
870.3577	-0.3736
870.5197	0.2343
870.6817	0.3416
870.8437	0.027
871.0057	-0
871.1676	0.196
871.3295	-0
871.4914	-0
871.6533	0.0375
871.8151	0.0288
871.977	-0.1626
872.1388	-0.074
872.3006	0.6116
872.4623	-0.0123
872.6241	-0
872.7858	-0.0691
872.9475	-0.0728
873.1092	0.0286
873.2709	-0
873.4325	-0
873.5941	0.0191
873.7557	-0.4443
873.9173	0.4688
874.0789	-0
874.2404	-0
874.4019	-0.2469
874.5634	-0.1811
874.7249	0.1553
874.8863	0.2882
875.0478	0.0299
875.2092	-0.23
875.3706	-0.2475
875.5319	-1.2278
875.6933	-0
875.8546	-0.2495
876.0159	0.0432
876.1772	-0.2677
876.3385	0.0337
876.4997	-0
876.6609	-0
876.8221	-0.4372
876.9833	0.2929
877.1445	0.7682
877.3056	-0.0888
877.4667	-0.0457
877.6278	-0
877.7889	0.4939
877.9499	-0
878.111	-0
878.272	-0.0202
878.433	-0.0345
878.5939	-0
878.7549	-0.0838
878.9158	0.0367
879.0767	0.0721
879.2376	0.2692
879.3984	-0
879.5593	0.7803
879.7201	-0.1442
879.8809	-0
880.0417	0.1015
880.2024	0.0039
880.3632	-0.0655
880.5239	-0
880.6846	-0.5296
880.8452	-0.2407
881.0059	-0
881.1665	0.6483
881.3271	-0.6063
881.4877	-0
881.6483	0.2437
881.8088	0.2801
881.9693	-0
882.1298	-0
882.2903	-0
