Data from MonoPyChalIsomerACN10uM400nmA_Absorbance_12-08-43-528.txt Node
Date: Fri Jul 05 12:08:43 BST 2024
User: LASERRRRR
Spectrometer: FLMT03099
Trigger mode: 0
Integration Time (sec): 1.000000E-1
Scans to average: 1
Electric dark correction enabled: true
Nonlinearity correction enabled: false
Boxcar width: 0
XAxis mode: Wavelengths
Number of Pixels in Spectrum: 3648
>>>>>Begin Spectral Data<<<<<
179.3399	0.5097
179.5586	0.5097
179.7771	0.5097
179.9957	-0.0205
180.2143	-0
180.4329	-0
180.6514	-0
180.8699	-0
181.0885	0.6859
181.307	-0.0422
181.5255	0.2206
181.744	-0
181.9625	-0
182.181	-0
182.3994	-0.5197
182.6179	-0.1378
182.8363	-0.1236
183.0547	0.0328
183.2732	0.3525
183.4916	0.0454
183.71	0.0754
183.9284	-0.022
184.1467	0.1002
184.3651	0.0107
184.5835	-0.0299
184.8018	0.0119
185.0201	0.0498
185.2385	0.2392
185.4568	0.0281
185.6751	0.0145
185.8934	-0.0925
186.1117	0.0749
186.3299	0.0162
186.5482	-0.0202
186.7664	0.1193
186.9847	0.0558
187.2029	0.1912
187.4211	-0.1758
187.6393	-0.0536
187.8575	0.2542
188.0757	-0.0425
188.2939	0.1496
188.512	0.1893
188.7302	-0.0279
188.9483	0.1995
189.1665	0.1984
189.3846	0.0047
189.6027	0.2818
189.8208	0.1092
190.0389	0.1954
190.257	0.0945
190.475	0.3448
190.6931	0.2357
190.9111	0.2843
191.1292	0.0768
191.3472	0.5779
191.5652	0.2001
191.7832	0.3926
192.0012	0.3882
192.2192	0.2855
192.4371	0.4426
192.6551	0.6954
192.873	0.3716
193.091	0.3245
193.3089	0.581
193.5268	0.8939
193.7447	0.4206
193.9626	0.4193
194.1805	0.5883
194.3984	0.4396
194.6162	0.5433
194.8341	0.5271
195.0519	1.0193
195.2697	0.5182
195.4875	0.6648
195.7054	0.575
195.9231	0.6588
196.1409	0.6046
196.3587	0.6245
196.5765	0.6131
196.7942	1.0121
197.012	0.7496
197.2297	0.6149
197.4474	0.8928
197.6651	0.5947
197.8828	0.523
198.1005	0.7106
198.3182	0.8596
198.5358	0.6574
198.7535	0.5836
198.9711	0.5822
199.1888	0.7505
199.4064	0.9491
199.624	0.6515
199.8416	0.5779
200.0592	0.9597
200.2767	0.6457
200.4943	0.652
200.7119	0.6137
200.9294	0.7097
201.1469	0.8219
201.3645	0.7225
201.582	0.6606
201.7995	0.9513
202.017	0.6661
202.2344	0.5606
202.4519	0.9299
202.6694	0.7779
202.8868	0.8305
203.1042	0.6772
203.3217	0.7188
203.5391	0.8153
203.7565	0.8236
203.9739	0.7932
204.1913	0.9761
204.4086	0.8322
204.626	0.7279
204.8433	0.9248
205.0607	0.765
205.278	0.8734
205.4953	0.7377
205.7126	0.6666
205.9299	0.765
206.1472	0.7683
206.3644	0.6168
206.5817	0.6753
206.7989	0.6704
207.0162	0.7003
207.2334	0.8168
207.4506	0.69
207.6678	0.7601
207.885	0.7884
208.1022	0.7508
208.3194	0.6753
208.5365	0.8225
208.7537	0.7947
208.9708	0.7093
209.1879	0.7865
209.405	0.6527
209.6222	0.7658
209.8392	0.7263
210.0563	0.8307
210.2734	0.759
210.4905	0.7292
210.7075	0.8967
210.9245	0.7693
211.1416	0.7594
211.3586	0.8619
211.5756	0.7618
211.7926	0.7724
212.0096	0.7282
212.2265	0.6911
212.4435	0.6776
212.6604	0.8082
212.8774	0.7403
213.0943	0.7229
213.3112	0.7339
213.5281	0.6282
213.745	0.6586
213.9619	0.7167
214.1788	0.6973
214.3956	0.6409
214.6125	0.7026
214.8293	0.6776
215.0461	0.6699
215.2629	0.7086
215.4798	0.6188
215.6965	0.6832
215.9133	0.6047
216.1301	0.5717
216.3469	0.6458
216.5636	0.6546
216.7803	0.5984
216.9971	0.6832
217.2138	0.6572
217.4305	0.6054
217.6472	0.6196
217.8639	0.6184
218.0805	0.5996
218.2972	0.5871
218.5138	0.6039
218.7305	0.5866
218.9471	0.6112
219.1637	0.5885
219.3803	0.5335
219.5969	0.5515
219.8135	0.5898
220.0301	0.5634
220.2466	0.5873
220.4632	0.5768
220.6797	0.541
220.8962	0.5708
221.1127	0.5451
221.3292	0.5163
221.5457	0.5775
221.7622	0.5426
221.9787	0.5112
222.1951	0.5219
222.4116	0.5417
222.628	0.5604
222.8444	0.5374
223.0608	0.5653
223.2772	0.5506
223.4936	0.5452
223.71	0.5795
223.9264	0.5629
224.1427	0.5811
224.3591	0.5482
224.5754	0.5509
224.7917	0.5336
225.008	0.6158
225.2243	0.5308
225.4406	0.56
225.6569	0.5627
225.8732	0.6026
226.0894	0.5324
226.3057	0.5765
226.5219	0.5602
226.7381	0.5909
226.9543	0.5712
227.1705	0.54
227.3867	0.5472
227.6029	0.5463
227.8191	0.5663
228.0352	0.5562
228.2513	0.5575
228.4675	0.5912
228.6836	0.5855
228.8997	0.5901
229.1158	0.5568
229.3319	0.5722
229.548	0.5839
229.764	0.5996
229.9801	0.5968
230.1961	0.561
230.4121	0.5745
230.6282	0.5681
230.8442	0.5994
231.0602	0.5789
231.2761	0.5698
231.4921	0.5961
231.7081	0.5796
231.924	0.5892
232.14	0.5865
232.3559	0.5858
232.5718	0.5922
232.7877	0.5628
233.0036	0.5806
233.2195	0.5687
233.4353	0.5724
233.6512	0.5945
233.867	0.5584
234.0829	0.5689
234.2987	0.5992
234.5145	0.5434
234.7303	0.5828
234.9461	0.5599
235.1619	0.5675
235.3776	0.584
235.5934	0.5576
235.8091	0.5702
236.0249	0.5363
236.2406	0.5636
236.4563	0.5473
236.672	0.5713
236.8877	0.5442
237.1034	0.5437
237.319	0.5294
237.5347	0.567
237.7503	0.5498
237.966	0.5309
238.1816	0.5727
238.3972	0.5773
238.6128	0.5151
238.8284	0.5142
239.0439	0.5304
239.2595	0.5275
239.475	0.5433
239.6906	0.5279
239.9061	0.5147
240.1216	0.535
240.3371	0.5339
240.5526	0.5248
240.7681	0.5322
240.9836	0.5367
241.199	0.4863
241.4145	0.4907
241.6299	0.5027
241.8453	0.4858
242.0607	0.4922
242.2761	0.5033
242.4915	0.4648
242.7069	0.4409
242.9223	0.4558
243.1376	0.4394
243.353	0.4565
243.5683	0.438
243.7836	0.4403
243.9989	0.4149
244.2142	0.4112
244.4295	0.3998
244.6448	0.3881
244.86	0.3753
245.0753	0.3829
245.2905	0.4013
245.5057	0.3587
245.721	0.3691
245.9362	0.3445
246.1514	0.3484
246.3665	0.3425
246.5817	0.3477
246.7969	0.3189
247.012	0.3227
247.2271	0.3198
247.4423	0.298
247.6574	0.3135
247.8725	0.2798
248.0876	0.3012
248.3026	0.2877
248.5177	0.2963
248.7328	0.2813
248.9478	0.29
249.1628	0.2637
249.3779	0.2597
249.5929	0.2706
249.8079	0.2482
250.0228	0.2493
250.2378	0.2546
250.4528	0.2434
250.6677	0.246
250.8827	0.2282
251.0976	0.2469
251.3125	0.2269
251.5274	0.2463
251.7423	0.2368
251.9572	0.2313
252.172	0.2162
252.3869	0.2269
252.6017	0.2172
252.8166	0.2144
253.0314	0.2039
253.2462	0.21
253.461	0.2082
253.6758	0.2026
253.8906	0.212
254.1053	0.1986
254.3201	0.2124
254.5348	0.1932
254.7496	0.2092
254.9643	0.1822
255.179	0.2084
255.3937	0.2165
255.6083	0.1895
255.823	0.1947
256.0377	0.2015
256.2523	0.2007
256.467	0.2051
256.6816	0.1805
256.8962	0.185
257.1108	0.1991
257.3254	0.1998
257.54	0.1791
257.7545	0.2019
257.9691	0.2021
258.1836	0.1832
258.3981	0.1805
258.6127	0.1961
258.8272	0.19
259.0417	0.1787
259.2561	0.1797
259.4706	0.1935
259.6851	0.1899
259.8995	0.1923
260.114	0.1792
260.3284	0.1855
260.5428	0.1911
260.7572	0.2056
260.9716	0.1926
261.186	0.1947
261.4003	0.1946
261.6147	0.2083
261.829	0.1854
262.0433	0.1772
262.2577	0.1848
262.472	0.1806
262.6863	0.1954
262.9005	0.1961
263.1148	0.189
263.3291	0.1858
263.5433	0.1866
263.7576	0.2011
263.9718	0.1838
264.186	0.177
264.4002	0.1965
264.6144	0.178
264.8286	0.1937
265.0427	0.1897
265.2569	0.194
265.471	0.1814
265.6851	0.1662
265.8993	0.1858
266.1134	0.1782
266.3275	0.1867
266.5415	0.1825
266.7556	0.1843
266.9697	0.1977
267.1837	0.1873
267.3978	0.1909
267.6118	0.1913
267.8258	0.2011
268.0398	0.1962
268.2538	0.1991
268.4677	0.1943
268.6817	0.1855
268.8957	0.1804
269.1096	0.1665
269.3235	0.1954
269.5374	0.1924
269.7514	0.1708
269.9652	0.1825
270.1791	0.1812
270.393	0.1705
270.6068	0.184
270.8207	0.1937
271.0345	0.171
271.2483	0.1717
271.4622	0.1792
271.676	0.184
271.8897	0.1815
272.1035	0.1848
272.3173	0.1874
272.531	0.1713
272.7448	0.1723
272.9585	0.1638
273.1722	0.1805
273.3859	0.1824
273.5996	0.1676
273.8133	0.1769
274.0269	0.1734
274.2406	0.1816
274.4542	0.1878
274.6679	0.1783
274.8815	0.1727
275.0951	0.1878
275.3087	0.1755
275.5223	0.1753
275.7358	0.1787
275.9494	0.1765
276.1629	0.1659
276.3765	0.1596
276.59	0.1744
276.8035	0.1812
277.017	0.1717
277.2305	0.186
277.444	0.182
277.6574	0.1795
277.8709	0.1691
278.0843	0.1803
278.2978	0.1828
278.5112	0.1719
278.7246	0.1707
278.938	0.1703
279.1513	0.1799
279.3647	0.1627
279.5781	0.1791
279.7914	0.1848
280.0047	0.1943
280.2181	0.1742
280.4314	0.1799
280.6447	0.1882
280.8579	0.1967
281.0712	0.184
281.2845	0.187
281.4977	0.1872
281.711	0.1822
281.9242	0.1715
282.1374	0.1799
282.3506	0.1865
282.5638	0.1955
282.7769	0.1799
282.9901	0.1701
283.2033	0.189
283.4164	0.1779
283.6295	0.1788
283.8426	0.1831
284.0557	0.1925
284.2688	0.174
284.4819	0.1808
284.695	0.1761
284.908	0.1982
285.1211	0.1931
285.3341	0.184
285.5471	0.1942
285.7601	0.1914
285.9731	0.1911
286.1861	0.191
286.3991	0.1887
286.612	0.193
286.825	0.1891
287.0379	0.1875
287.2508	0.1887
287.4637	0.1878
287.6766	0.1819
287.8895	0.1952
288.1024	0.1876
288.3152	0.1903
288.5281	0.1836
288.7409	0.1722
288.9538	0.1796
289.1666	0.186
289.3794	0.1763
289.5922	0.1859
289.8049	0.1743
290.0177	0.1761
290.2304	0.1833
290.4432	0.1768
290.6559	0.1882
290.8686	0.185
291.0813	0.1861
291.294	0.175
291.5067	0.1803
291.7194	0.1709
291.932	0.1914
292.1447	0.1813
292.3573	0.1893
292.5699	0.1835
292.7825	0.1733
292.9951	0.2007
293.2077	0.1796
293.4203	0.1902
293.6328	0.1832
293.8454	0.1824
294.0579	0.1825
294.2704	0.1868
294.4829	0.1877
294.6954	0.1847
294.9079	0.1857
295.1204	0.1887
295.3328	0.1682
295.5453	0.1703
295.7577	0.1663
295.9701	0.169
296.1825	0.1729
296.3949	0.1814
296.6073	0.1793
296.8197	0.171
297.0321	0.1697
297.2444	0.1644
297.4567	0.1909
297.6691	0.1791
297.8814	0.1764
298.0937	0.1762
298.306	0.1769
298.5182	0.1695
298.7305	0.172
298.9428	0.1712
299.155	0.1817
299.3672	0.1662
299.5794	0.175
299.7916	0.1706
300.0038	0.1805
300.216	0.1799
300.4282	0.1795
300.6403	0.1863
300.8525	0.173
301.0646	0.1841
301.2767	0.1809
301.4888	0.1657
301.7009	0.163
301.913	0.179
302.125	0.1676
302.3371	0.1882
302.5491	0.172
302.7612	0.1736
302.9732	0.1694
303.1852	0.1706
303.3972	0.1661
303.6092	0.1637
303.8211	0.1683
304.0331	0.1619
304.245	0.161
304.457	0.1649
304.6689	0.1646
304.8808	0.1698
305.0927	0.1597
305.3046	0.159
305.5164	0.1679
305.7283	0.1655
305.9401	0.1544
306.152	0.1582
306.3638	0.1516
306.5756	0.1495
306.7874	0.1526
306.9992	0.1457
307.2109	0.1549
307.4227	0.1571
307.6344	0.147
307.8462	0.1498
308.0579	0.1437
308.2696	0.1466
308.4813	0.1281
308.693	0.1401
308.9046	0.1357
309.1163	0.1261
309.328	0.1236
309.5396	0.1272
309.7512	0.1318
309.9628	0.131
310.1744	0.1252
310.386	0.1246
310.5976	0.1327
310.8091	0.1226
311.0207	0.129
311.2322	0.1118
311.4437	0.1201
311.6552	0.1284
311.8667	0.1255
312.0782	0.1252
312.2897	0.1176
312.5012	0.1164
312.7126	0.1285
312.924	0.1084
313.1355	0.1286
313.3469	0.1154
313.5583	0.1104
313.7696	0.1132
313.981	0.1192
314.1924	0.116
314.4037	0.105
314.6151	0.1074
314.8264	0.1185
315.0377	0.12
315.249	0.0981
315.4603	0.1081
315.6716	0.1037
315.8828	0.1021
316.0941	0.0935
316.3053	0.1033
316.5165	0.1192
316.7277	0.1028
316.9389	0.1083
317.1501	0.1045
317.3613	0.0824
317.5724	0.1159
317.7836	0.1069
317.9947	0.1074
318.2058	0.106
318.417	0.1062
318.6281	0.1032
318.8391	0.1043
319.0502	0.1019
319.2613	0.1019
319.4723	0.1142
319.6834	0.1082
319.8944	0.103
320.1054	0.1175
320.3164	0.1078
320.5274	0.0894
320.7383	0.098
320.9493	0.104
321.1602	0.1099
321.3712	0.099
321.5821	0.1116
321.793	0.1113
322.0039	0.1083
322.2148	0.1038
322.4257	0.1112
322.6365	0.1133
322.8474	0.1101
323.0582	0.1182
323.269	0.1168
323.4798	0.1115
323.6906	0.0942
323.9014	0.1179
324.1122	0.1033
324.3229	0.1138
324.5337	0.1061
324.7444	0.1174
324.9551	0.1169
325.1658	0.1255
325.3765	0.1118
325.5872	0.1062
325.7979	0.1158
326.0085	0.1132
326.2192	0.093
326.4298	0.1156
326.6404	0.1136
326.851	0.1138
327.0616	0.11
327.2722	0.1244
327.4828	0.1152
327.6933	0.1074
327.9039	0.1011
328.1144	0.1116
328.3249	0.1071
328.5354	0.1094
328.7459	0.1101
328.9564	0.1163
329.1669	0.1143
329.3773	0.1171
329.5878	0.1031
329.7982	0.1116
330.0086	0.1001
330.219	0.1135
330.4294	0.1099
330.6398	0.1048
330.8502	0.1082
331.0605	0.1182
331.2708	0.1036
331.4812	0.1053
331.6915	0.1016
331.9018	0.1117
332.1121	0.1155
332.3224	0.1107
332.5326	0.1137
332.7429	0.1068
332.9531	0.1032
333.1633	0.1198
333.3735	0.1037
333.5837	0.1141
333.7939	0.1032
334.0041	0.1129
334.2143	0.1031
334.4244	0.1296
334.6346	0.0901
334.8447	0.1143
335.0548	0.1153
335.2649	0.1211
335.475	0.1138
335.685	0.1021
335.8951	0.1222
336.1051	0.1078
336.3152	0.1212
336.5252	0.1115
336.7352	0.1288
336.9452	0.1101
337.1552	0.1165
337.3652	0.122
337.5751	0.1237
337.7851	0.1041
337.995	0.1162
338.2049	0.1139
338.4148	0.1247
338.6247	0.1139
338.8346	0.1175
339.0445	0.109
339.2543	0.1227
339.4642	0.126
339.674	0.1125
339.8838	0.1322
340.0936	0.1205
340.3034	0.1164
340.5132	0.1345
340.7229	0.128
340.9327	0.1222
341.1424	0.1213
341.3522	0.1099
341.5619	0.1181
341.7716	0.1209
341.9813	0.1085
342.1909	0.1195
342.4006	0.1328
342.6102	0.1171
342.8199	0.1164
343.0295	0.1287
343.2391	0.1304
343.4487	0.1264
343.6583	0.1217
343.8679	0.1271
344.0774	0.1272
344.287	0.1302
344.4965	0.1267
344.706	0.1327
344.9155	0.1262
345.125	0.1264
345.3345	0.1352
345.544	0.1458
345.7534	0.1278
345.9629	0.1245
346.1723	0.1317
346.3817	0.1431
346.5911	0.1366
346.8005	0.128
347.0099	0.1261
347.2193	0.1315
347.4286	0.1277
347.638	0.1279
347.8473	0.1349
348.0566	0.1379
348.2659	0.1408
348.4752	0.1442
348.6845	0.1328
348.8937	0.142
349.103	0.1277
349.3122	0.1446
349.5214	0.1369
349.7306	0.1332
349.9398	0.1447
350.149	0.1456
350.3582	0.1463
350.5674	0.1556
350.7765	0.1299
350.9856	0.1355
351.1948	0.133
351.4039	0.1618
351.613	0.1429
351.822	0.1434
352.0311	0.1583
352.2402	0.1386
352.4492	0.1518
352.6582	0.1444
352.8672	0.1431
353.0762	0.1443
353.2852	0.1496
353.4942	0.143
353.7032	0.1551
353.9121	0.1303
354.1211	0.152
354.33	0.1464
354.5389	0.1401
354.7478	0.1479
354.9567	0.1613
355.1655	0.1534
355.3744	0.1573
355.5833	0.1687
355.7921	0.1549
356.0009	0.1553
356.2097	0.1459
356.4185	0.1321
356.6273	0.1522
356.8361	0.1596
357.0448	0.1451
357.2536	0.1627
357.4623	0.1731
357.671	0.1607
357.8797	0.1559
358.0884	0.1656
358.2971	0.1781
358.5057	0.1681
358.7144	0.166
358.923	0.1641
359.1316	0.1546
359.3402	0.1851
359.5488	0.1671
359.7574	0.179
359.966	0.1732
360.1746	0.1725
360.3831	0.1627
360.5916	0.1858
360.8002	0.1795
361.0087	0.1817
361.2172	0.1703
361.4256	0.1827
361.6341	0.1887
361.8426	0.1781
362.051	0.1798
362.2594	0.1895
362.4678	0.1707
362.6762	0.1762
362.8846	0.1688
363.093	0.1857
363.3014	0.1985
363.5097	0.176
363.718	0.1872
363.9264	0.208
364.1347	0.1858
364.343	0.1808
364.5513	0.1918
364.7595	0.1878
364.9678	0.1927
365.176	0.1993
365.3842	0.2114
365.5925	0.1732
365.8007	0.2013
366.0089	0.2042
366.217	0.1963
366.4252	0.1998
366.6333	0.192
366.8415	0.1883
367.0496	0.1823
367.2577	0.2045
367.4658	0.2154
367.6739	0.1953
367.882	0.1983
368.09	0.1935
368.2981	0.2154
368.5061	0.2123
368.7141	0.1978
368.9221	0.1913
369.1301	0.1918
369.3381	0.1986
369.5461	0.2061
369.754	0.1933
369.962	0.1895
370.1699	0.1935
370.3778	0.2028
370.5857	0.2004
370.7936	0.2143
371.0015	0.2116
371.2093	0.2126
371.4172	0.2031
371.625	0.2076
371.8328	0.2133
372.0406	0.1927
372.2484	0.2109
372.4562	0.217
372.664	0.2349
372.8717	0.1829
373.0795	0.223
373.2872	0.2101
373.4949	0.2198
373.7026	0.2297
373.9103	0.2189
374.118	0.2234
374.3256	0.2185
374.5333	0.2287
374.7409	0.1995
374.9485	0.2272
375.1561	0.2213
375.3637	0.2157
375.5713	0.2372
375.7789	0.2385
375.9864	0.2337
376.194	0.2065
376.4015	0.2295
376.609	0.2222
376.8165	0.2236
377.024	0.2094
377.2315	0.2222
377.4389	0.2301
377.6464	0.2121
377.8538	0.2215
378.0612	0.2325
378.2686	0.2405
378.476	0.2151
378.6834	0.2356
378.8908	0.2305
379.0981	0.2275
379.3055	0.2332
379.5128	0.2491
379.7201	0.2498
379.9274	0.2239
380.1347	0.2216
380.342	0.2237
380.5492	0.2467
380.7565	0.2453
380.9637	0.234
381.1709	0.2478
381.3781	0.2529
381.5853	0.2496
381.7925	0.2253
381.9997	0.2385
382.2068	0.2372
382.4139	0.2523
382.6211	0.2648
382.8282	0.2461
383.0353	0.2277
383.2424	0.246
383.4494	0.2445
383.6565	0.2434
383.8635	0.2457
384.0706	0.2488
384.2776	0.2434
384.4846	0.2245
384.6916	0.2546
384.8986	0.2316
385.1055	0.2302
385.3125	0.2333
385.5194	0.2324
385.7263	0.2425
385.9333	0.2372
386.1402	0.2222
386.347	0.2516
386.5539	0.2454
386.7608	0.238
386.9676	0.2204
387.1744	0.2504
387.3813	0.2427
387.5881	0.2353
387.7948	0.2479
388.0016	0.2397
388.2084	0.232
388.4151	0.252
388.6219	0.2467
388.8286	0.2295
389.0353	0.2278
389.242	0.2326
389.4487	0.2369
389.6553	0.2259
389.862	0.2402
390.0686	0.2363
390.2753	0.2399
390.4819	0.2324
390.6885	0.2378
390.8951	0.21
391.1016	0.2295
391.3082	0.227
391.5147	0.2164
391.7213	0.2034
391.9278	0.2275
392.1343	0.2148
392.3408	0.2176
392.5473	0.224
392.7537	0.2166
392.9602	0.2219
393.1666	0.2219
393.373	0.1914
393.5794	0.213
393.7858	0.2124
393.9922	0.2255
394.1986	0.2336
394.4049	0.2157
394.6113	0.2033
394.8176	0.2175
395.0239	0.2277
395.2302	0.1954
395.4365	0.1942
395.6428	0.2127
395.8491	0.1883
396.0553	0.2221
396.2615	0.2186
396.4678	0.2147
396.674	0.192
396.8802	0.1972
397.0863	0.1932
397.2925	0.1953
397.4987	0.2128
397.7048	0.1918
397.9109	0.1971
398.117	0.2031
398.3231	0.1969
398.5292	0.2122
398.7353	0.2085
398.9413	0.1803
399.1474	0.1991
399.3534	0.19
399.5594	0.2131
399.7654	0.2024
399.9714	0.1886
400.1774	0.1984
400.3833	0.2036
400.5893	0.1893
400.7952	0.2088
401.0011	0.2209
401.207	0.2017
401.4129	0.2005
401.6188	0.1971
401.8247	0.1804
402.0305	0.1857
402.2364	0.2183
402.4422	0.2166
402.648	0.2102
402.8538	0.1945
403.0596	0.2084
403.2654	0.2096
403.4711	0.1917
403.6768	0.1977
403.8826	0.1939
404.0883	0.1883
404.294	0.2126
404.4997	0.1919
404.7054	0.2082
404.911	0.2096
405.1167	0.1949
405.3223	0.2009
405.5279	0.2162
405.7335	0.2152
405.9391	0.198
406.1447	0.2155
406.3502	0.1982
406.5558	0.2018
406.7613	0.2084
406.9668	0.2076
407.1724	0.1973
407.3778	0.2069
407.5833	0.1962
407.7888	0.2105
407.9942	0.1879
408.1997	0.2016
408.4051	0.1897
408.6105	0.1786
408.8159	0.1896
409.0213	0.2045
409.2267	0.1988
409.432	0.2042
409.6374	0.1972
409.8427	0.1966
410.048	0.1993
410.2533	0.2038
410.4586	0.1732
410.6639	0.2077
410.8691	0.1875
411.0744	0.1866
411.2796	0.1872
411.4848	0.1948
411.69	0.1765
411.8952	0.1877
412.1004	0.1689
412.3056	0.1849
412.5107	0.1723
412.7158	0.2003
412.921	0.1995
413.1261	0.2089
413.3312	0.1899
413.5362	0.1973
413.7413	0.1932
413.9464	0.1913
414.1514	0.2051
414.3564	0.1889
414.5614	0.1624
414.7664	0.1926
414.9714	0.1873
415.1764	0.1863
415.3813	0.188
415.5863	0.176
415.7912	0.1904
415.9961	0.1957
416.201	0.1965
416.4059	0.1921
416.6108	0.1851
416.8156	0.1886
417.0205	0.197
417.2253	0.1806
417.4301	0.2001
417.6349	0.197
417.8397	0.1744
418.0445	0.1885
418.2492	0.1644
418.454	0.1914
418.6587	0.1962
418.8634	0.196
419.0681	0.1962
419.2728	0.1594
419.4775	0.1816
419.6822	0.1913
419.8868	0.1683
420.0915	0.1647
420.2961	0.1935
420.5007	0.1587
420.7053	0.169
420.9099	0.1725
421.1144	0.202
421.319	0.1773
421.5235	0.1949
421.728	0.1764
421.9325	0.1799
422.137	0.1649
422.3415	0.1805
422.546	0.1825
422.7504	0.1831
422.9549	0.1885
423.1593	0.159
423.3637	0.1707
423.5681	0.1619
423.7725	0.1656
423.9769	0.1696
424.1812	0.1767
424.3856	0.1654
424.5899	0.1686
424.7942	0.1682
424.9985	0.1777
425.2028	0.1588
425.4071	0.1638
425.6113	0.1652
425.8156	0.1634
426.0198	0.1614
426.224	0.1802
426.4282	0.165
426.6324	0.19
426.8366	0.1512
427.0407	0.1595
427.2449	0.1634
427.449	0.1455
427.6531	0.1355
427.8572	0.1578
428.0613	0.1497
428.2654	0.1324
428.4694	0.1548
428.6735	0.1428
428.8775	0.1484
429.0815	0.145
429.2855	0.1498
429.4895	0.1428
429.6935	0.1369
429.8975	0.1325
430.1014	0.1304
430.3053	0.1338
430.5093	0.1363
430.7132	0.1049
430.9171	0.1117
431.1209	0.1207
431.3248	0.143
431.5286	0.1177
431.7325	0.1234
431.9363	0.1222
432.1401	0.1231
432.3439	0.1245
432.5477	0.1332
432.7514	0.1132
432.9552	0.1125
433.1589	0.1185
433.3627	0.116
433.5664	0.1232
433.7701	0.1218
433.9737	0.1012
434.1774	0.1085
434.3811	0.1075
434.5847	0.1092
434.7883	0.106
434.9919	0.1016
435.1955	0.0991
435.3991	0.1132
435.6027	0.1089
435.8062	0.0855
436.0098	0.0971
436.2133	0.0799
436.4168	0.1
436.6203	0.0844
436.8238	0.0787
437.0272	0.0815
437.2307	0.1038
437.4341	0.0794
437.6375	0.0952
437.841	0.0726
438.0443	0.0742
438.2477	0.0819
438.4511	0.0724
438.6545	0.0789
438.8578	0.0856
439.0611	0.0666
439.2644	0.0801
439.4677	0.0688
439.671	0.0633
439.8743	0.0804
440.0775	0.0795
440.2808	0.0676
440.484	0.0651
440.6872	0.0728
440.8904	0.0654
441.0936	0.0668
441.2967	0.0606
441.4999	0.0427
441.703	0.0642
441.9062	0.0539
442.1093	0.059
442.3124	0.0658
442.5155	0.043
442.7185	0.0627
442.9216	0.0514
443.1246	0.0675
443.3276	0.0585
443.5307	0.0599
443.7337	0.0525
443.9366	0.0415
444.1396	0.0481
444.3426	0.0377
444.5455	0.0594
444.7484	0.0396
444.9513	0.0426
445.1542	0.0395
445.3571	0.0558
445.56	0.0555
445.7628	0.0436
445.9657	0.0342
446.1685	0.0489
446.3713	0.0433
446.5741	0.0363
446.7769	0.0396
446.9797	0.0454
447.1824	0.0387
447.3852	0.0553
447.5879	0.0459
447.7906	0.0394
447.9933	0.0415
448.196	0.0561
448.3986	0.0317
448.6013	0.0165
448.8039	0.0419
449.0066	0.0318
449.2092	0.0454
449.4118	0.0419
449.6143	0.0166
449.8169	0.0332
450.0195	0.0251
450.222	0.0352
450.4245	0.0249
450.627	0.0242
450.8295	0.0239
451.032	0.0231
451.2345	0.0186
451.4369	0.0261
451.6394	0.0278
451.8418	0.0124
452.0442	0.0015
452.2466	0.0007
452.449	0.0183
452.6513	0.0269
452.8537	0.0246
453.056	0.0087
453.2583	0.0069
453.4607	0.0051
453.663	0.0158
453.8652	0.0297
454.0675	0.005
454.2697	0.0218
454.472	0.0102
454.6742	0.0144
454.8764	0.0015
455.0786	-0.0046
455.2808	0.0083
455.4829	0.0374
455.6851	0.0282
455.8872	0.0246
456.0893	0.0082
456.2915	0.0213
456.4935	0.0116
456.6956	0.0048
456.8977	0.009
457.0997	0.0148
457.3018	0.0092
457.5038	0.0096
457.7058	0.0035
457.9078	0.0168
458.1098	0.0128
458.3117	0.0143
458.5137	-0.0026
458.7156	0.0038
458.9175	0.004
459.1194	0.0044
459.3213	0.0094
459.5232	0.0122
459.725	-0.0023
459.9269	0.0099
460.1287	0.0025
460.3305	0.0171
460.5323	0.0141
460.7341	0.0036
460.9359	0.0069
461.1376	0.0175
461.3394	-0.016
461.5411	0.0085
461.7428	0.0202
461.9445	-0.0034
462.1462	0.009
462.3479	-0.0078
462.5495	0.0021
462.7512	-0.0092
462.9528	0.0075
463.1544	-0.0034
463.356	0.0084
463.5576	0.0022
463.7592	-0.0047
463.9607	0.0278
464.1623	0.0026
464.3638	0.0077
464.5653	-0.0151
464.7668	0.0003
464.9683	0.0057
465.1697	0.0156
465.3712	-0.0043
465.5726	0.0115
465.7741	0.018
465.9755	-0.0112
466.1769	0.0146
466.3782	0.0101
466.5796	-0.0079
466.7809	0.0073
466.9823	-0.0017
467.1836	0.0091
467.3849	-0.0078
467.5862	-0.0116
467.7875	-0.0006
467.9887	0.0031
468.19	-0.0101
468.3912	0.012
468.5924	-0.0013
468.7936	0.0115
468.9948	-0.023
469.196	0.0048
469.3972	-0.0132
469.5983	0.0035
469.7994	-0.0086
470.0006	-0.0158
470.2017	0.0019
470.4027	-0.001
470.6038	-0.0042
470.8049	0.0028
471.0059	-0.0136
471.2069	-0.0051
471.408	0.0036
471.6089	0.0044
471.8099	0.0126
472.0109	0.0089
472.2119	0.0082
472.4128	-0.0089
472.6137	0.0102
472.8146	-0.0039
473.0155	-0.0149
473.2164	-0.0041
473.4173	0.0063
473.6181	-0.0172
473.819	0.0044
474.0198	-0.0273
474.2206	-0.0023
474.4214	0.0011
474.6222	-0.0028
474.8229	-0.0112
475.0237	0.0096
475.2244	-0.0084
475.4251	0.0056
475.6258	-0.0064
475.8265	-0.0146
476.0272	-0.0143
476.2278	-0.0153
476.4285	-0.0067
476.6291	-0.005
476.8297	0.0035
477.0303	0.0076
477.2309	-0.0132
477.4315	-0.0078
477.632	-0.0165
477.8326	-0.0058
478.0331	-0.0149
478.2336	-0.0131
478.4341	-0.0091
478.6346	-0.0004
478.8351	-0.0104
479.0355	-0.0197
479.236	-0.0114
479.4364	-0.0066
479.6368	0.0058
479.8372	-0.0021
480.0376	-0.0006
480.2379	-0.0169
480.4383	-0.0125
480.6386	-0.0045
480.8389	-0.0037
481.0392	-0.0052
481.2395	-0.0095
481.4398	-0.0135
481.6401	-0.0071
481.8403	-0.0051
482.0405	-0.0144
482.2408	-0.0172
482.441	-0.0112
482.6411	-0.0156
482.8413	-0.0096
483.0415	-0.0046
483.2416	-0.0079
483.4417	0.0037
483.6419	-0.0105
483.8419	-0.0039
484.042	0.007
484.2421	-0.0069
484.4422	-0.0084
484.6422	0.003
484.8422	-0.0136
485.0422	-0.0002
485.2422	-0.0046
485.4422	-0.0076
485.6422	-0.0102
485.8421	-0.0021
486.042	0.0004
486.242	-0.0154
486.4419	-0.0071
486.6417	-0.0047
486.8416	-0.0105
487.0415	-0.0112
487.2413	-0.0122
487.4411	0.0105
487.641	-0.0047
487.8408	-0.0092
488.0405	-0.0109
488.2403	-0.0043
488.4401	0.0014
488.6398	-0.0087
488.8395	-0.0102
489.0392	-0.0014
489.2389	-0.0125
489.4386	-0.0068
489.6383	0.0008
489.8379	-0.0035
490.0376	0.0004
490.2372	-0.0007
490.4368	-0.0073
490.6364	0.001
490.836	-0.0166
491.0355	-0.0131
491.2351	-0.0081
491.4346	-0.0172
491.6341	-0.0049
491.8336	-0.0028
492.0331	-0.0078
492.2326	-0.0052
492.432	-0.0077
492.6315	-0.0084
492.8309	-0.0068
493.0303	-0.0079
493.2297	-0.0095
493.4291	-0.0107
493.6284	-0.0143
493.8278	-0.0075
494.0271	-0.013
494.2264	-0.0066
494.4257	-0.0041
494.625	-0.0001
494.8243	-0.0039
495.0236	-0.0145
495.2228	-0.0139
495.422	-0.0041
495.6213	-0.0157
495.8205	-0.0089
496.0196	-0.0137
496.2188	-0.0056
496.418	-0.0038
496.6171	-0.016
496.8162	-0.0078
497.0153	-0.0021
497.2144	-0.0045
497.4135	-0.0031
497.6126	-0.0089
497.8116	-0.0079
498.0107	-0.0043
498.2097	-0.0067
498.4087	-0.0258
498.6077	-0.009
498.8067	0.0086
499.0056	-0.0175
499.2046	-0.0071
499.4035	-0.0086
499.6024	-0.0164
499.8013	-0.0102
500.0002	-0.0156
500.199	-0.0062
500.3979	-0.0127
500.5967	-0.0199
500.7956	-0.0098
500.9944	-0.0092
501.1932	-0.0086
501.3919	-0.0062
501.5907	-0.013
501.7895	-0.019
501.9882	-0.0123
502.1869	-0.0109
502.3856	-0.0105
502.5843	-0.0031
502.783	-0.0012
502.9816	-0.0017
503.1803	-0.0148
503.3789	-0.0064
503.5775	-0.0115
503.7761	-0.0113
503.9747	-0.0014
504.1732	-0.0084
504.3718	0.0031
504.5703	-0.0129
504.7689	-0.0022
504.9674	-0.01
505.1658	0.0051
505.3643	-0.0052
505.5628	-0.0014
505.7612	-0.0085
505.9597	-0.0059
506.1581	0.0017
506.3565	-0.0095
506.5549	-0.0038
506.7532	0.0029
506.9516	-0.0143
507.1499	-0.0149
507.3482	-0.0085
507.5465	0.0051
507.7448	0.0051
507.9431	-0.0071
508.1414	-0.0141
508.3396	0.0025
508.5379	-0.0036
508.7361	-0.0107
508.9343	-0.002
509.1325	-0.0041
509.3306	-0.019
509.5288	-0.01
509.7269	-0.0035
509.9251	-0.0055
510.1232	-0.0018
510.3213	0.0066
510.5193	-0.0131
510.7174	-0.0116
510.9154	0.0018
511.1135	-0.0119
511.3115	-0.0165
511.5095	-0.0067
511.7075	0.0024
511.9055	-0.0111
512.1034	-0.0055
512.3014	-0.011
512.4993	-0.0016
512.6972	-0.0168
512.8951	0.002
513.093	-0.0134
513.2908	-0.0102
513.4887	-0.0045
513.6865	0.0045
513.8844	-0.0075
514.0822	-0.0001
514.2799	-0.0077
514.4777	-0.0022
514.6755	-0.0021
514.8732	-0.0001
515.0709	-0.0065
515.2687	-0.0013
515.4664	0.0026
515.664	-0.0035
515.8617	-0.0011
516.0594	0.0054
516.257	-0.0012
516.4546	-0.0197
516.6522	-0.0013
516.8498	-0.0125
517.0474	-0.0012
517.2449	-0.0084
517.4425	0.0061
517.64	-0.0234
517.8375	-0.0079
518.035	-0.0007
518.2325	-0.0214
518.43	-0.006
518.6274	-0.004
518.8249	0.0018
519.0223	0.0025
519.2197	0.0019
519.4171	0.0035
519.6145	-0.0031
519.8118	-0.0109
520.0092	-0.008
520.2065	-0.0113
520.4038	-0.0169
520.6011	-0.013
520.7984	0.0002
520.9956	0.0059
521.1929	0.0008
521.3901	-0.0126
521.5874	-0.0123
521.7846	0.0024
521.9818	-0.0056
522.1789	0.0067
522.3761	0.007
522.5732	-0.0045
522.7704	-0.004
522.9675	-0.0077
523.1646	0
523.3617	-0.0092
523.5587	-0.0048
523.7558	-0.0134
523.9528	0.0043
524.1498	-0.0011
524.3468	0.0006
524.5438	-0.0011
524.7408	-0.0187
524.9378	0.0059
525.1347	0.0052
525.3316	0.0026
525.5285	-0.011
525.7254	-0.0014
525.9223	0.0029
526.1192	-0.0059
526.316	0.0099
526.5129	0.0005
526.7097	0.0053
526.9065	0.0016
527.1033	-0.0025
527.3	-0.0041
527.4968	-0.0063
527.6935	0.0117
527.8903	0.003
528.087	0.0016
528.2837	0.0046
528.4804	0.0035
528.677	-0.0007
528.8737	-0.0013
529.0703	0.0036
529.2669	-0.001
529.4635	0.0006
529.6601	-0.0043
529.8567	0.007
530.0532	0.0035
530.2498	-0.0054
530.4463	-0.0044
530.6428	0.0047
530.8393	-0.0081
531.0358	0.0005
531.2322	0.003
531.4287	-0.0028
531.6251	-0.0034
531.8215	-0.0055
532.0179	-0.0058
532.2143	0.0018
532.4107	-0.0002
532.607	0.0093
532.8034	-0.0111
532.9997	-0.0074
533.196	-0.0037
533.3923	0.0024
533.5886	-0.003
533.7848	0.0009
533.9811	-0.0021
534.1773	-0.0111
534.3735	-0.0063
534.5697	-0.0107
534.7659	-0.0081
534.9621	-0.0013
535.1582	0.0008
535.3544	-0.0051
535.5505	-0.0088
535.7466	0.0027
535.9427	-0.0045
536.1387	-0.0044
536.3348	-0.0108
536.5308	-0.0054
536.7269	0.0049
536.9229	-0.0007
537.1189	-0.0067
537.3148	-0.0045
537.5108	0.0026
537.7068	-0.0043
537.9027	-0.0024
538.0986	-0.0031
538.2945	-0.006
538.4904	-0.0023
538.6863	0.0032
538.8821	-0.0117
539.078	-0.002
539.2738	0.0086
539.4696	-0.0011
539.6654	0.0026
539.8611	0.0067
540.0569	-0.0014
540.2526	0.0002
540.4484	0.0038
540.6441	-0.0026
540.8398	-0.0069
541.0355	0.0073
541.2311	-0.0057
541.4268	0.0013
541.6224	0.0106
541.818	0.005
542.0136	-0.0082
542.2092	0.0039
542.4048	0.0095
542.6003	-0.0006
542.7959	0.0019
542.9914	0.0006
543.1869	-0.0117
543.3824	0.002
543.5779	0.0089
543.7734	0.0156
543.9688	0.0062
544.1642	-0.0074
544.3596	-0.0035
544.555	-0.0018
544.7504	-0.005
544.9458	-0.0055
545.1411	0.0062
545.3365	0.012
545.5318	0.0093
545.7271	0.0039
545.9224	0.0065
546.1177	-0.0182
546.3129	-0.0076
546.5081	-0.0029
546.7034	0.0027
546.8986	0.006
547.0938	-0.0009
547.289	-0.0031
547.4841	0.0037
547.6793	-0.002
547.8744	0.0093
548.0695	-0.0003
548.2646	-0.0035
548.4597	0.0019
548.6548	0.0107
548.8498	0.0031
549.0448	-0.002
549.2399	-0.0068
549.4349	-0.0082
549.6298	0.0071
549.8248	-0.0008
550.0198	-0.0015
550.2147	-0.0044
550.4096	0.0012
550.6045	-0.0025
550.7994	-0.0049
550.9943	0.0091
551.1892	-0.0211
551.384	-0.0062
551.5788	0.0017
551.7737	-0.0094
551.9685	0.005
552.1632	0.0009
552.358	0.0018
552.5528	-0.0082
552.7475	-0.0085
552.9422	0.0055
553.1369	0.0009
553.3316	0.0012
553.5263	0.0089
553.7209	0.0016
553.9156	0.0021
554.1102	-0.0012
554.3048	-0.0036
554.4994	0.0038
554.694	0.0086
554.8885	-0.0003
555.0831	0.0006
555.2776	0.0088
555.4721	0.0154
555.6666	-0.006
555.8611	0.0035
556.0555	0.0095
556.25	0.0074
556.4444	0.0092
556.6388	0.008
556.8332	0.0007
557.0276	0.0004
557.222	-0.0005
557.4163	0.0052
557.6107	0.0199
557.805	0.0024
557.9993	-0.0078
558.1936	0.0132
558.3879	0.0116
558.5821	0.0137
558.7764	0.0039
558.9706	0.0042
559.1648	0.0037
559.359	0.0043
559.5532	0.0059
559.7473	0.0109
559.9415	0.0019
560.1356	0.0076
560.3297	0.0011
560.5238	0.0092
560.7179	0.0063
560.9119	0.0026
561.106	0.0146
561.3	0.0073
561.494	0.0048
561.688	0.0085
561.882	0.0094
562.076	0.0058
562.2699	0.0051
562.4639	-0.006
562.6578	0.0011
562.8517	0.0028
563.0456	0.0006
563.2395	0.0005
563.4333	-0.0033
563.6272	0.0068
563.821	-0.007
564.0148	0.0134
564.2086	-0.0115
564.4024	0.0006
564.5961	0.0079
564.7899	-0.0028
564.9836	0.0057
565.1773	0.0066
565.371	0.0047
565.5647	0.0049
565.7584	-0.0001
565.952	0.0029
566.1456	0.0105
566.3393	0.0093
566.5329	0.0022
566.7264	0.0038
566.92	0.0066
567.1136	0.0115
567.3071	0.0067
567.5006	0.0009
567.6941	0.002
567.8876	0.0044
568.0811	-0.0023
568.2745	-0.0001
568.468	0.0031
568.6614	0.0045
568.8548	0.0018
569.0482	0.0007
569.2416	0.0055
569.4349	-0.0028
569.6283	0.0064
569.8216	0.0051
570.0149	0.01
570.2082	0.0113
570.4015	0.0087
570.5947	0.0054
570.788	0.0065
570.9812	0.0087
571.1744	0.0018
571.3676	-0.0007
571.5608	-0.0028
571.754	-0.0013
571.9471	0.0011
572.1402	0.0034
572.3333	0.0038
572.5264	0.0007
572.7195	-0.0019
572.9126	-0.0009
573.1057	0.007
573.2987	0.0108
573.4917	-0.0026
573.6847	-0.0036
573.8777	-0.0009
574.0707	0.006
574.2636	0.0007
574.4566	0.0011
574.6495	0.0033
574.8424	0.0015
575.0353	0.0015
575.2281	0.0037
575.421	0.0025
575.6138	0.0054
575.8067	-0.0037
575.9995	0.0039
576.1923	0.0074
576.385	0.0018
576.5778	-0.0122
576.7706	0.0121
576.9633	0.0004
577.156	0.0043
577.3487	0.0014
577.5414	0.0073
577.734	-0.0106
577.9267	-0.0062
578.1193	0.0033
578.3119	0.0057
578.5045	0.0069
578.6971	0.0074
578.8897	0.0005
579.0822	0.0021
579.2747	0.0076
579.4673	0.0038
579.6598	0.0076
579.8522	0.0035
580.0447	0.003
580.2372	0.0067
580.4296	0.009
580.622	0.0077
580.8144	0.0072
581.0068	0.005
581.1992	0.0026
581.3915	0.0077
581.5839	0.0074
581.7762	-0.002
581.9685	-0.005
582.1608	-0.0023
582.353	0.0006
582.5453	-0.0014
582.7375	-0.0052
582.9298	-0.0027
583.122	0.0065
583.3142	0.0038
583.5063	0.0018
583.6985	0.001
583.8906	0.0064
584.0827	-0.0012
584.2749	0.0009
584.4669	-0.0001
584.659	-0.0018
584.8511	-0.0029
585.0431	-0.003
585.2352	-0.0087
585.4272	0.0007
585.6192	0.0002
585.8111	-0.0035
586.0031	-0.0045
586.195	0.001
586.387	-0.002
586.5789	-0.0009
586.7708	-0.0035
586.9627	-0.0011
587.1545	0.0101
587.3464	0.008
587.5382	-0.0014
587.73	0.0013
587.9218	0.0071
588.1136	0.0037
588.3053	-0.009
588.4971	0.0004
588.6888	0.0053
588.8805	-0.0049
589.0722	0.0078
589.2639	0.0026
589.4556	-0.0056
589.6472	0.0028
589.8389	0.0013
590.0305	0.0053
590.2221	0.0092
590.4137	0.0004
590.6052	-0.0025
590.7968	0.0048
590.9883	0.0051
591.1798	-0.004
591.3713	0.0091
591.5628	0.0001
591.7543	0.0095
591.9458	0.0058
592.1372	0.0002
592.3286	0.0032
592.52	0.0036
592.7114	0.0106
592.9028	-0.0033
593.0941	0.0044
593.2855	-0.0047
593.4768	-0.0019
593.6681	-0.0015
593.8594	0.0012
594.0506	-0.0028
594.2419	0.0026
594.4331	-0.0004
594.6244	0.0001
594.8156	0.0005
595.0067	0
595.1979	0.0081
595.3891	-0.0046
595.5802	0.0026
595.7713	-0.0041
595.9624	0.0038
596.1535	-0.006
596.3446	0.0074
596.5357	0.0033
596.7267	0.0048
596.9177	0.0117
597.1087	0.0099
597.2997	0.008
597.4907	0.0097
597.6817	0.0011
597.8726	0.0141
598.0635	-0.0008
598.2544	-0.0031
598.4453	0.0111
598.6362	0.0033
598.827	0.0053
599.0179	0.0045
599.2087	0.0003
599.3995	0.0095
599.5903	0.0049
599.7811	0.0066
599.9718	-0.0032
600.1626	0.0026
600.3533	-0.0028
600.544	0.0013
600.7347	0.0052
600.9254	-0.0022
601.116	-0.001
601.3067	-0.0071
601.4973	-0.0006
601.6879	0.0049
601.8785	0.0073
602.0691	-0.0009
602.2596	-0.0022
602.4502	0.0005
602.6407	-0.0028
602.8312	-0.004
603.0217	0.006
603.2122	-0.0023
603.4027	0.0071
603.5931	0.0054
603.7835	0.0046
603.9739	0.0051
604.1643	0.0097
604.3547	-0.001
604.5451	0.0001
604.7354	0.0096
604.9257	0.0059
605.116	-0.0012
605.3063	0.0041
605.4966	0.003
605.6869	0.018
605.8771	0.0038
606.0673	0.0047
606.2575	-0.0006
606.4477	-0.0022
606.6379	0.0062
606.8281	-0.0049
607.0182	-0.0028
607.2083	-0.0025
607.3985	0.003
607.5885	0.0012
607.7786	0.0027
607.9687	0.0006
608.1587	0.0049
608.3488	0.0075
608.5388	0.0068
608.7288	0.0004
608.9187	0.0006
609.1087	0.0041
609.2986	0.0044
609.4886	0.0008
609.6785	0.005
609.8684	0.0014
610.0582	0.0105
610.2481	0.0058
610.4379	-0.0012
610.6278	0.0061
610.8176	0.0048
611.0074	-0.0029
611.1971	-0.0033
611.3869	0.0015
611.5766	0.0014
611.7664	0.0021
611.9561	0.007
612.1458	0.0075
612.3354	0.0099
612.5251	0.0044
612.7147	-0.0017
612.9044	0.0114
613.094	0.0035
613.2836	0.0081
613.4731	0.0042
613.6627	0.0074
613.8522	0.0104
614.0417	0.0008
614.2313	0.0054
614.4207	0.007
614.6102	0.0046
614.7997	0.0004
614.9891	0.0043
615.1785	0.0044
615.3679	0.0095
615.5573	0.0078
615.7467	0.0042
615.9361	0.0001
616.1254	0.0041
616.3147	-0.0028
616.504	0.0027
616.6933	0.0032
616.8826	0.0055
617.0718	0.0042
617.2611	0.0091
617.4503	0.0138
617.6395	0.0089
617.8287	0.0066
618.0179	0.0067
618.207	0.0109
618.3961	0.0117
618.5853	0.0028
618.7744	0.0096
618.9634	-0.001
619.1525	0.004
619.3416	0.0118
619.5306	0.0065
619.7196	0.0027
619.9086	0.0104
620.0976	0.0131
620.2866	0.0086
620.4755	0.011
620.6645	0.0073
620.8534	0.0163
621.0423	0.0066
621.2312	0.0007
621.42	0.0055
621.6089	0.0135
621.7977	0.0063
621.9865	0.0074
622.1753	0.0079
622.3641	0.0008
622.5529	0.0058
622.7416	0.0093
622.9303	0.0114
623.1191	0.0087
623.3078	0.0085
623.4964	0.0119
623.6851	0.0104
623.8737	0.0185
624.0624	0.0008
624.251	0.0098
624.4396	0.0135
624.6282	0.0114
624.8167	0.0126
625.0053	0.0025
625.1938	0.0088
625.3823	0.0005
625.5708	0.0048
625.7593	0.0057
625.9477	0.0082
626.1362	0.0066
626.3246	0.0089
626.513	-0.002
626.7014	0.0027
626.8898	0.0034
627.0781	0.0037
627.2665	0.0045
627.4548	0.0055
627.6431	0.0046
627.8314	0.0116
628.0197	0.0045
628.2079	0.0011
628.3962	0.0036
628.5844	0.0104
628.7726	0.0077
628.9608	0.0071
629.1489	0.0057
629.3371	0.0099
629.5252	0.005
629.7134	0.0043
629.9015	0.0074
630.0895	0.0018
630.2776	-0.0021
630.4657	0.0085
630.6537	0.0089
630.8417	0.0072
631.0297	0.0116
631.2177	0.0115
631.4057	0.0137
631.5936	0.0069
631.7815	0.0119
631.9695	0.0072
632.1574	0.0131
632.3452	0.0164
632.5331	0.0032
632.7209	0.0099
632.9088	-0.0001
633.0966	-0.0053
633.2844	0.0045
633.4722	0.003
633.6599	0.0071
633.8477	0.0113
634.0354	0.0037
634.2231	0.0064
634.4108	0.0077
634.5985	0.0019
634.7861	0.012
634.9738	0.0087
635.1614	0.0071
635.349	0.0107
635.5366	0.0048
635.7242	0.01
635.9117	0.0095
636.0993	0.0063
636.2868	0.0082
636.4743	0.0096
636.6618	-0.0009
636.8492	0.0176
637.0367	0.0063
637.2241	0.0102
637.4115	0.0024
637.5989	0.0177
637.7863	0.0058
637.9737	0.0007
638.161	0.0163
638.3484	0.0118
638.5357	0.0117
638.723	0.0007
638.9103	0.0024
639.0975	0.0036
639.2848	0.0053
639.472	0.0088
639.6592	0.0089
639.8464	0.0125
640.0336	0.0065
640.2208	-0.0005
640.4079	0.0011
640.595	0.0046
640.7821	-0
640.9692	0.0023
641.1563	0.0014
641.3434	0.0122
641.5304	0.0148
641.7174	0.0114
641.9044	0.0005
642.0914	0.0047
642.2784	-0.0028
642.4653	0.003
642.6523	0.0003
642.8392	0.0063
643.0261	0.0054
643.213	0.0006
643.3999	0.0004
643.5867	0.0092
643.7735	0.0016
643.9604	0.0125
644.1472	0.0045
644.3339	-0.0029
644.5207	0.0082
644.7075	0.0012
644.8942	0.0093
645.0809	0.0044
645.2676	0.0054
645.4543	0.0082
645.6409	0.0028
645.8276	0.0043
646.0142	0.0073
646.2008	0.0203
646.3874	0.0098
646.574	0.0121
646.7605	0.0101
646.9471	0.0108
647.1336	0.0032
647.3201	0.0106
647.5066	0.0012
647.6931	-0.0014
647.8795	-0.0026
648.0659	0.0064
648.2524	0.0043
648.4388	0.0067
648.6252	-0.0042
648.8115	0.002
648.9979	0.007
649.1842	-0.0006
649.3705	-0.0111
649.5568	0.0064
649.7431	0.0078
649.9294	0.0063
650.1156	0.0076
650.3018	0.0049
650.488	-0.0063
650.6742	0.0021
650.8604	0.006
651.0466	0.0102
651.2327	0.011
651.4188	0.0041
651.6049	0.0122
651.791	0.0136
651.9771	0.001
652.1632	0.0063
652.3492	0.0103
652.5352	0.0105
652.7212	0.011
652.9072	0.0003
653.0932	0.0017
653.2791	0.0026
653.465	0.0002
653.651	0.0034
653.8369	0.008
654.0227	0.0106
654.2086	0.0062
654.3944	0.0039
654.5803	-0
654.7661	0.0056
654.9519	-0.0014
655.1377	0.0011
655.3234	-0.0013
655.5092	-0.0015
655.6949	-0.0096
655.8806	-0.0081
656.0663	0.0038
656.2519	-0.0038
656.4376	0.0072
656.6232	0.0032
656.8088	0.005
656.9945	0.003
657.18	0.0035
657.3656	0.009
657.5511	-0.0044
657.7367	0.0073
657.9222	0.0086
658.1077	0.0093
658.2932	0.0051
658.4786	0.0014
658.6641	-0.0016
658.8495	0.0015
659.0349	0.0049
659.2203	0.0041
659.4057	0.0066
659.591	0.0044
659.7764	0.001
659.9617	-0.0039
660.147	0.0076
660.3323	-0.0024
660.5176	-0.0004
660.7028	0.0061
660.888	0.0135
661.0733	0.0082
661.2585	0.0136
661.4436	0.006
661.6288	0.0135
661.8139	0.0112
661.9991	-0.0043
662.1842	0.001
662.3693	0.005
662.5544	0.0061
662.7394	0.0067
662.9245	0.0028
663.1095	0.0091
663.2945	0.0003
663.4795	0.0038
663.6644	0.0018
663.8494	0.0125
664.0343	0.0051
664.2193	0.0153
664.4042	0.0075
664.589	0.0045
664.7739	-0.0019
664.9587	0.0101
665.1436	-0.0039
665.3284	0.0022
665.5132	-0.0019
665.698	-0
665.8827	0.0136
666.0675	0.0086
666.2522	0.006
666.4369	0.0025
666.6216	0.0069
666.8063	0.0026
666.9909	0.0014
667.1756	0.0077
667.3602	0.0065
667.5448	0.0142
667.7294	0.0092
667.9139	0.0007
668.0985	0.0043
668.283	0.0033
668.4675	-0.0006
668.652	0.0057
668.8365	0.0042
669.0209	0.0074
669.2054	0.0028
669.3898	0.0074
669.5742	0.0045
669.7586	0.0104
669.943	-0.0004
670.1273	0.0142
670.3117	0.0049
670.496	-0.0001
670.6803	0.0158
670.8646	0.0066
671.0488	0.0052
671.2331	0.0183
671.4173	0.0122
671.6015	-0.0046
671.7857	0.0012
671.9699	0.0126
672.1541	0.0087
672.3382	0.0173
672.5223	0.0086
672.7064	0.0078
672.8905	0.0112
673.0746	0.0062
673.2587	0.0068
673.4427	0.0049
673.6267	-0.0001
673.8107	0.0078
673.9947	0.0084
674.1787	0.0076
674.3626	0.0103
674.5465	0.0108
674.7304	0.0063
674.9143	0.0035
675.0982	0.0127
675.2821	0.0024
675.4659	0.0137
675.6497	-0.0018
675.8335	0.0076
676.0173	0.0071
676.2011	0.0074
676.3849	0.0053
676.5686	0.0186
676.7523	0.0127
676.936	-0.0063
677.1197	0.0145
677.3034	0.0105
677.487	0.0093
677.6706	0.0101
677.8542	0.0118
678.0378	0.0069
678.2214	0.0047
678.405	0.0166
678.5885	0.0116
678.772	0.0158
678.9555	0.0051
679.139	0.0092
679.3225	0.0115
679.5059	0.01
679.6894	0.0043
679.8728	0.0037
680.0562	0.0108
680.2395	0.008
680.4229	0.0058
680.6062	0.0049
680.7896	0.0087
680.9729	-0.0002
681.1562	0.0096
681.3394	0.0073
681.5227	0.0116
681.7059	0.0038
681.8891	0.0016
682.0723	0.0017
682.2555	0.0017
682.4387	0.0013
682.6218	0.0132
682.805	0.0103
682.9881	0.0129
683.1712	0.0109
683.3542	0.0072
683.5373	0.0064
683.7203	0.0106
683.9034	0.0045
684.0864	0.0085
684.2694	0.009
684.4523	-0.002
684.6353	0.0036
684.8182	0.0078
685.0011	0.0042
685.184	0.0083
685.3669	0.003
685.5498	0.001
685.7326	0.0099
685.9154	0.0082
686.0982	0.0124
686.281	0.0048
686.4638	0.0018
686.6465	0.0118
686.8293	0.0035
687.012	0.0153
687.1947	0.0074
687.3774	0.0179
687.56	-0.0003
687.7427	0.0215
687.9253	0.0035
688.1079	0.0126
688.2905	-0.0014
688.4731	0.0095
688.6556	0.0158
688.8382	0.0028
689.0207	0.0065
689.2032	0.0078
689.3857	0.0115
689.5681	0.0008
689.7506	-0.0034
689.933	0.0153
690.1154	0.0085
690.2978	-0.004
690.4802	0.0107
690.6626	0.0038
690.8449	0.0077
691.0272	0.005
691.2095	0.0149
691.3918	0.0087
691.5741	0.012
691.7563	0.0045
691.9386	0.012
692.1208	-0.0085
692.303	0.0069
692.4852	0.0077
692.6673	0.0073
692.8495	0.0113
693.0316	0.0127
693.2137	0.0146
693.3958	0.0141
693.5778	0.0083
693.7599	0.0184
693.9419	0.0048
694.1239	0.0187
694.3059	0.0142
694.4879	0.0104
694.6699	0.0077
694.8518	0.0093
695.0337	0.0104
695.2157	0.0117
695.3975	0.0018
695.5794	0.0121
695.7613	0.0011
695.9431	0.0107
696.1249	0.0059
696.3067	0.0022
696.4885	0.0108
696.6703	0.0038
696.852	0.0109
697.0337	0.0139
697.2154	0.008
697.3971	0.0081
697.5788	0.0086
697.7605	0.0101
697.9421	-0.0045
698.1237	0.0114
698.3053	0.0162
698.4869	0.0127
698.6685	0.0038
698.85	0.0177
699.0315	0.0119
699.213	0.0126
699.3945	-0.0017
699.576	0.0212
699.7575	0.0113
699.9389	0.0159
700.1203	0.0119
700.3017	0.0081
700.4831	0.013
700.6645	0.0127
700.8458	0.0051
701.0271	0.0112
701.2084	0.0065
701.3897	-0.0035
701.571	-0.0021
701.7523	-0.0002
701.9335	0.0027
702.1147	-0.001
702.2959	0.0031
702.4771	0.0023
702.6583	-0.0008
702.8394	0.0088
703.0205	0.0021
703.2016	0.0093
703.3827	0.0073
703.5638	0.0113
703.7449	0.0079
703.9259	0.0065
704.1069	0.004
704.2879	-0.0015
704.4689	0.0041
704.6499	-0.0025
704.8308	0.0018
705.0117	0.0095
705.1927	0.0044
705.3735	-0.0065
705.5544	-0.0111
705.7353	0.0074
705.9161	0.0037
706.0969	0.0119
706.2777	0.0053
706.4585	0.0001
706.6393	0.0056
706.82	0.0026
707.0007	-0.0059
707.1815	0.0065
707.3621	-0.0077
707.5428	0.0077
707.7235	0.0049
707.9041	0.0076
708.0847	0.0231
708.2653	0.009
708.4459	0.0103
708.6265	0.0141
708.807	0.0157
708.9875	0.0197
709.168	0.0121
709.3485	0.0085
709.529	0.0078
709.7095	0.0134
709.8899	0.0097
710.0703	0.0026
710.2507	0.0015
710.4311	0.0081
710.6115	0.0082
710.7918	0.0117
710.9721	0.0078
711.1524	0.0085
711.3327	0.0022
711.513	-0.0068
711.6932	0.0011
711.8735	0.0023
712.0537	-0.0024
712.2339	-0.0094
712.4141	-0.002
712.5942	0.0065
712.7744	-0.0034
712.9545	0.0041
713.1346	0.0017
713.3147	0.0019
713.4947	-0.0012
713.6748	0.002
713.8548	0.0064
714.0348	0.0112
714.2148	0.0029
714.3948	-0.001
714.5748	0.0091
714.7547	0.0087
714.9346	-0.0002
715.1145	0.0025
715.2944	0.0044
715.4743	0.0088
715.6541	0.0153
715.834	0.0027
716.0138	0.0061
716.1936	0.0082
716.3733	0.0117
716.5531	0.0116
716.7328	0.002
716.9126	0.0138
717.0923	0.0111
717.2719	0.0057
717.4516	-0.0033
717.6312	0.0026
717.8109	0.0092
717.9905	0.0041
718.1701	0.0019
718.3496	0.0089
718.5292	-0.0026
718.7087	-0.0049
718.8882	-0
719.0677	0.0048
719.2472	0.008
719.4267	0.01
719.6061	0.0049
719.7856	0.0068
719.965	0.006
720.1443	0.0127
720.3237	0.0142
720.5031	0.0105
720.6824	0.0027
720.8617	0.0067
721.041	-0.0002
721.2203	0.0022
721.3995	0.0135
721.5788	0.0079
721.758	-0.0045
721.9372	0.0176
722.1164	0.0091
722.2956	0.012
722.4747	0.0107
722.6538	-0.0031
722.8329	0.0047
723.012	-0.0009
723.1911	0.0034
723.3702	0.011
723.5492	0.006
723.7282	0.0091
723.9072	0.0081
724.0862	0.0132
724.2652	0.0078
724.4441	0.0019
724.623	0.0133
724.8019	-0.0006
724.9808	0.0047
725.1597	0.0053
725.3385	0.0168
725.5174	0.0055
725.6962	0.0081
725.875	0.0032
726.0538	0.0142
726.2325	0.0048
726.4112	0.0017
726.59	0.0092
726.7687	-0.0001
726.9474	-0.0033
727.126	-0.0008
727.3047	-0.0091
727.4833	-0.0031
727.6619	0.0001
727.8405	-0.0066
728.0191	0.0023
728.1976	0.0014
728.3762	0.0049
728.5547	0.0024
728.7332	0.0024
728.9116	-0.0085
729.0901	-0.0014
729.2686	0.0005
729.447	-0.0028
729.6254	0.0097
729.8038	0.0015
729.9821	0.0092
730.1605	0.0155
730.3388	0.0044
730.5171	0.006
730.6954	0.011
730.8737	-0.0053
731.0519	-0.0028
731.2302	0.0073
731.4084	0.0077
731.5866	-0.0067
731.7648	-0.0005
731.9429	0.0001
732.1211	-0.0071
732.2992	0.0087
732.4773	-0.0084
732.6554	-0.0038
732.8335	0.0068
733.0115	-0.0035
733.1896	0.0104
733.3676	0.0023
733.5456	0.0035
733.7235	0.0003
733.9015	0.011
734.0794	0.0006
734.2574	0.0095
734.4353	-0.0006
734.6131	0.002
734.791	-0.0018
734.9689	0.0158
735.1467	-0.0038
735.3245	-0.0072
735.5023	0.0093
735.68	0.0126
735.8578	0.0057
736.0355	0.002
736.2132	0.0069
736.3909	0.0039
736.5686	0.0109
736.7463	0.0024
736.9239	0.0068
737.1015	0.0121
737.2791	0.0069
737.4567	-0.0036
737.6343	-0.0031
737.8118	0.0073
737.9894	0.0021
738.1669	0.0131
738.3444	0.004
738.5218	0.007
738.6993	0.003
738.8767	0.0079
739.0541	0.006
739.2315	-0.0048
739.4089	0.0076
739.5863	0.0052
739.7636	-0.0015
739.9409	-0.0028
740.1182	0.0063
740.2955	0.017
740.4728	0.0111
740.65	-0.0046
740.8272	-0.0033
741.0044	-0.0068
741.1816	0.0026
741.3588	0.0111
741.5359	0.0145
741.7131	0.0013
741.8902	-0.0048
742.0673	0.0141
742.2444	-0.0012
742.4214	-0.0069
742.5985	0.0062
742.7755	0.0125
742.9525	0.0037
743.1295	0.0052
743.3064	0.0025
743.4834	0.0052
743.6603	-0.0028
743.8372	-0.0069
744.0141	0.0074
744.191	0.0152
744.3678	-0.0017
744.5446	0.0002
744.7215	0.014
744.8982	0.0074
745.075	0.0096
745.2518	-0.0019
745.4285	0.0013
745.6052	0.0054
745.7819	-0.0033
745.9586	0.006
746.1353	-0.0014
746.3119	0.0008
746.4885	0.0012
746.6651	-0.0014
746.8417	0.0069
747.0183	0.0007
747.1948	0.002
747.3714	0.0158
747.5479	0.002
747.7244	0.0051
747.9008	0.0049
748.0773	0.0023
748.2537	-0.0031
748.4301	0.0006
748.6065	0.0104
748.7829	0.0002
748.9593	0.0063
749.1356	0.0069
749.3119	0.0162
749.4882	0.0054
749.6645	0.0062
749.8408	0.0068
750.017	0.0097
750.1933	0.0133
750.3695	0.0106
750.5457	0.0175
750.7218	0.0107
750.898	0.0125
751.0741	0.0143
751.2502	0.0212
751.4263	0.0118
751.6024	0.0143
751.7784	0.0095
751.9545	0.0073
752.1305	0.0097
752.3065	0.0064
752.4825	0.013
752.6584	0.0142
752.8344	0.0053
753.0103	0.006
753.1862	0.0009
753.3621	-0.0034
753.5379	0.0041
753.7138	0.0033
753.8896	0.0037
754.0654	0.0064
754.2412	0.007
754.417	-0.0024
754.5927	0.0044
754.7685	0.0014
754.9442	-0.0057
755.1199	0.0029
755.2956	0.0118
755.4712	0.0024
755.6469	0.0118
755.8225	0.012
755.9981	0.0041
756.1736	-0.0041
756.3492	0.0016
756.5248	0.011
756.7003	0.006
756.8758	0.0117
757.0513	0.0044
757.2267	0.0076
757.4022	0.005
757.5776	0.0073
757.753	0.0014
757.9284	0.0054
758.1038	-0.0103
758.2791	0.0159
758.4545	0.0091
758.6298	0.0018
758.8051	0.0009
758.9803	0.0129
759.1556	0.0038
759.3308	0.0132
759.506	0.0172
759.6812	0.0095
759.8564	0.0058
760.0316	0.0135
760.2067	0.0048
760.3819	0.0045
760.557	0.0013
760.732	0.0152
760.9071	0.0104
761.0821	0.0064
761.2572	0.0193
761.4322	0.0042
761.6072	0.0035
761.7821	0.0065
761.9571	0.0048
762.132	-0.0003
762.3069	0.0192
762.4818	0.0039
762.6567	-0.0035
762.8316	0.0011
763.0064	-0.0003
763.1812	0.0103
763.356	0.0076
763.5308	0.0051
763.7055	0.0095
763.8803	-0.0022
764.055	0.0025
764.2297	0.005
764.4044	0.0009
764.579	0.0008
764.7537	0.0003
764.9283	0.0036
765.1029	0.0041
765.2775	-0.0012
765.4521	-0.0032
765.6266	0.0043
765.8011	0.0086
765.9756	-0.0012
766.1501	0.0097
766.3246	0.0004
766.4991	0.0015
766.6735	-0.0079
766.8479	-0.0002
767.0223	-0.0095
767.1967	0.0028
767.371	0.0064
767.5454	0.005
767.7197	-0.0068
767.894	0.0132
768.0683	0.0174
768.2425	0.0137
768.4168	-0.0001
768.591	0.0092
768.7652	0.0015
768.9394	-0.0067
769.1135	0.011
769.2877	-0.0073
769.4618	0.0067
769.6359	0.0172
769.81	0.0032
769.984	-0.0053
770.1581	0.004
770.3321	0.0175
770.5061	-0.0037
770.6801	-0.0005
770.8541	0.009
771.028	0.0186
771.202	0.0003
771.3759	-0.0082
771.5498	0.0102
771.7236	0.0065
771.8975	0.0145
772.0713	0.0141
772.2451	0.0021
772.4189	-0.0013
772.5927	0.0078
772.7665	-0.0037
772.9402	0.0024
773.1139	0.0063
773.2876	0.0069
773.4613	0.0019
773.635	0.0002
773.8086	-0.0051
773.9822	0.0033
774.1558	0.0049
774.3294	0.009
774.503	0.0008
774.6765	0.0103
774.8501	0.0121
775.0236	0.0066
775.1971	0.0141
775.3705	0.025
775.544	0.0232
775.7174	0.0171
775.8908	0.0107
776.0642	0.0102
776.2376	0.0052
776.4109	0.0043
776.5843	-0.0002
776.7576	-0.0003
776.9309	0.0098
777.1041	0.0216
777.2774	0.0035
777.4506	0.0051
777.6238	-0.0083
777.797	0.0032
777.9702	0.0075
778.1434	0.019
778.3165	0.0067
778.4896	0.0245
778.6627	0.0065
778.8358	0.0036
779.0089	0.0033
779.1819	-0.0027
779.3549	0.0134
779.5279	0.0082
779.7009	-0.0002
779.8739	-0.0015
780.0468	0.0191
780.2197	0.0146
780.3926	-0.0006
780.5655	-0.004
780.7384	-0.0098
780.9112	0.0077
781.0841	-0.0141
781.2569	0.007
781.4297	-0.0257
781.6024	0.004
781.7752	-0.0053
781.9479	-0.0012
782.1206	0.0048
782.2933	0.0102
782.466	-0.0016
782.6386	0.0124
782.8113	0.002
782.9839	-0.0067
783.1565	0.0053
783.329	-0.0063
783.5016	0.0056
783.6741	0.0051
783.8466	-0.0006
784.0191	0.0028
784.1916	0.0049
784.3641	-0.0041
784.5365	-0.0006
784.7089	-0.0107
784.8813	0.0031
785.0537	-0.0134
785.2261	-0.0008
785.3984	0.0058
785.5707	0.0057
785.743	0.0045
785.9153	0.0008
786.0876	0.0057
786.2598	-0.0092
786.432	0.0064
786.6042	0.0178
786.7764	0.0105
786.9486	0.0179
787.1207	0.0036
787.2928	-0.017
787.4649	-0.0065
787.637	0.0104
787.8091	0.0135
787.9811	-0.0059
788.1532	0.0011
788.3252	-0.0111
788.4972	-0.0043
788.6691	0.005
788.8411	-0.0038
789.013	0.008
789.1849	0.0302
789.3568	-0.0015
789.5287	0.0028
789.7005	0.0077
789.8723	0.0207
790.0442	0.0062
790.2159	0.0017
790.3877	0.0113
790.5595	0.0189
790.7312	-0.0001
790.9029	0.0078
791.0746	0.015
791.2463	0.027
791.4179	0.0176
791.5896	0.0024
791.7612	0.0164
791.9328	0.0098
792.1044	0.0176
792.2759	0.0046
792.4474	0.0094
792.619	0.0196
792.7905	0.029
792.9619	0.0148
793.1334	0.027
793.3048	0.0179
793.4762	0.0058
793.6476	0.0008
793.819	0.024
793.9904	0.0148
794.1617	0.001
794.333	0.0075
794.5043	0.0027
794.6756	0.0118
794.8469	0.001
795.0181	0.0149
795.1893	-0.0027
795.3605	0.004
795.5317	-0.0034
795.7029	0.0071
795.874	0.0063
796.0452	0.0155
796.2163	0.0147
796.3873	0.0063
796.5584	0.0148
796.7294	0.0073
796.9005	-0.0015
797.0715	0.0132
797.2425	-0.0024
797.4134	0.019
797.5844	0.0255
797.7553	0.0039
797.9262	0.0144
798.0971	0.0139
798.2679	0.0092
798.4388	0.0028
798.6096	-0.0178
798.7804	0.0048
798.9512	0.0015
799.122	0.0169
799.2927	0.007
799.4635	-0.0019
799.6342	0.011
799.8049	0.0078
799.9755	0.0129
800.1462	0.0183
800.3168	0.0217
800.4874	-0.0077
800.658	0.0149
800.8286	0.0184
800.9991	0.0262
801.1696	0.0106
801.3402	0.0197
801.5106	0.0106
801.6811	-0.0008
801.8516	0.0006
802.022	0.0036
802.1924	-0.0016
802.3628	0.008
802.5332	0.0058
802.7035	-0.0055
802.8739	0.005
803.0442	-0.0034
803.2145	0.0058
803.3847	0.007
803.555	-0.0014
803.7252	0.0177
803.8954	0.008
804.0656	-0.0029
804.2358	0.0242
804.4059	0.0285
804.5761	0.0073
804.7462	-0.0042
804.9163	-0.0008
805.0864	-0.0191
805.2564	0.0065
805.4264	0.0081
805.5965	-0.0008
805.7665	0.0162
805.9364	-0.0027
806.1064	0.0159
806.2763	0.0181
806.4462	0.013
806.6161	0.0052
806.786	0.0184
806.9559	0.0137
807.1257	0.0167
807.2955	0.028
807.4653	0.0349
807.6351	0.0203
807.8048	0.012
807.9746	0.0094
808.1443	0.013
808.314	0.0388
808.4837	0.0092
808.6533	0.015
808.8229	0.0156
808.9926	0.0076
809.1622	0.0297
809.3317	0.0319
809.5013	0.0248
809.6708	0.0304
809.8403	0.0259
810.0098	0.0365
810.1793	-0.0012
810.3488	0.0008
810.5182	0.027
810.6876	0.0086
810.857	0.0109
811.0264	-0.0217
811.1958	0.0099
811.3651	0.0006
811.5344	0.0321
811.7037	-0.0035
811.873	-0.0071
812.0422	0.0009
812.2115	0.0144
812.3807	0.02
812.5499	-0.0043
812.7191	0.031
812.8882	0.0074
813.0574	0.0235
813.2265	0.0466
813.3956	0.015
813.5646	0.0065
813.7337	0.0059
813.9027	0.0016
814.0718	0.0194
814.2407	0.0312
814.4097	0.0292
814.5787	0.0149
814.7476	0.0081
814.9165	0.0121
815.0854	-0.0198
815.2543	0.0248
815.4232	0.0037
815.592	-0.0054
815.7608	0.0244
815.9296	0.0043
816.0984	-0.0119
816.2671	-0.0231
816.4359	0.0082
816.6046	-0.0017
816.7733	-0.0011
816.942	0.0086
817.1106	0.0127
817.2793	0.0072
817.4479	-0.0103
817.6165	0.0116
817.785	0.0118
817.9536	-0.0066
818.1221	-0.0222
818.2906	0.001
818.4591	0.0097
818.6276	0.0098
818.7961	0.0038
818.9645	0.0139
819.1329	0.0234
819.3013	0.0085
819.4697	0.0316
819.638	-0.0042
819.8064	0.0108
819.9747	0.0057
820.143	0.0031
820.3113	-0.0049
820.4795	-0.0103
820.6477	0.0145
820.816	-0.0178
820.9842	-0.0042
821.1523	-0.0021
821.3205	-0.0202
821.4886	0.0048
821.6567	-0.0214
821.8248	-0.0012
821.9929	0.0058
822.1609	-0.028
822.329	0.0011
822.497	-0.0221
822.665	-0.0121
822.833	-0.0186
823.0009	-0.0112
823.1688	-0.0028
823.3367	0.0142
823.5046	-0.0223
823.6725	-0.0221
823.8404	-0.0407
824.0082	0.0016
824.176	0.0272
824.3438	0.0209
824.5116	0.0149
824.6793	-0.0175
824.847	0.0353
825.0147	0.0099
825.1824	-0.0103
825.3501	0.0117
825.5177	-0.0023
825.6854	-0.0064
825.853	0.0221
826.0206	0.0091
826.1881	0.0208
826.3557	0.0266
826.5232	0.0129
826.6907	0.0222
826.8582	0.018
827.0257	0.0358
827.1931	0.0212
827.3605	0.0193
827.528	0.0101
827.6953	0.0244
827.8627	-0.0028
828.03	0.0311
828.1974	0.0282
828.3647	-0.0016
828.532	0.0024
828.6992	0.0274
828.8665	0.0521
829.0337	0.0073
829.2009	0.0279
829.3681	-0.0172
829.5352	-0.0144
829.7024	0.0466
829.8695	0.0439
830.0366	0.0108
830.2037	-0.0275
830.3707	0.0121
830.5378	-0.0268
830.7048	0.0169
830.8718	-0.0009
831.0388	-0.0168
831.2057	0.01
831.3727	0.005
831.5396	-0.0078
831.7065	0.0087
831.8734	0.0087
832.0402	0.0001
832.2071	0.0034
832.3739	-0.0238
832.5407	0.0053
832.7075	-0.0101
832.8742	-0.0072
833.041	-0.0263
833.2077	0.0075
833.3744	0.0438
833.541	0.0347
833.7077	0.0196
833.8743	0.0326
834.0409	0.0368
834.2075	0.024
834.3741	0.016
834.5407	0.0014
834.7072	0.0239
834.8737	-0.0306
835.0402	0.0043
835.2067	0.0128
835.3731	0.0236
835.5395	-0.0232
835.706	0.0175
835.8723	-0.0448
836.0387	0.049
836.2051	-0.0163
836.3714	-0.0523
836.5377	-0.0112
836.704	-0.031
836.8703	-0.008
837.0365	-0.0384
837.2027	-0.0245
837.3689	0.0071
837.5351	0.0169
837.7013	-0.0455
837.8674	-0.0038
838.0335	-0.0282
838.1997	-0.0618
838.3657	0.0183
838.5318	0.0046
838.6978	-0.0336
838.8639	-0.0249
839.0299	0.0165
839.1958	0.0089
839.3618	-0.0306
839.5277	-0.0249
839.6937	-0.011
839.8596	-0.0371
840.0254	-0.0046
840.1913	0.0633
840.3571	-0.0246
840.523	0.0018
840.6888	-0.0087
840.8545	0.0664
841.0203	0.0241
841.186	0.0405
841.3517	-0.0121
841.5174	-0.0568
841.6831	0.0027
841.8488	0.0122
842.0144	0.0817
842.18	0.0218
842.3456	-0.0188
842.5112	0.0511
842.6767	0.0102
842.8422	-0.0266
843.0077	-0.0247
843.1732	-0.0515
843.3387	-0.0241
843.5042	-0.0361
843.6696	0.0259
843.835	0.0119
844.0004	-0.0503
844.1657	-0.0167
844.3311	-0.0257
844.4964	-0.0666
844.6617	0.0101
844.827	0.0384
844.9923	0.0336
845.1575	0.0185
845.3227	-0.0188
845.4879	0.0086
845.6531	-0.0038
845.8183	-0.0159
845.9834	0.0093
846.1485	0.0566
846.3136	0.0202
846.4787	-0.0108
846.6438	0.0383
846.8088	-0.0776
846.9738	-0.0503
847.1388	0.0606
847.3038	0.0302
847.4687	0.0362
847.6337	-0.0474
847.7986	0.0575
847.9635	-0.0212
848.1284	-0.016
848.2932	0.0456
848.458	0.081
848.6228	0.0613
848.7876	-0.0075
848.9524	-0.0352
849.1172	-0.031
849.2819	-0.024
849.4466	0.0056
849.6113	-0.0089
849.7759	0.0146
849.9406	0.015
850.1052	-0.1194
850.2698	-0.0083
850.4344	-0.0364
850.599	0.0102
850.7635	0.0216
850.928	-0.0485
851.0925	0.003
851.257	0.018
851.4215	-0.0052
851.5859	0.0323
851.7503	-0.0937
851.9147	0.0823
852.0791	0.0447
852.2434	0.0689
852.4078	-0.0993
852.5721	0.096
852.7364	0.0493
852.9007	-0.171
853.0649	-0.0031
853.2291	0.1298
853.3934	0.0281
853.5575	-0.0672
853.7217	0.0489
853.8859	-0.0688
854.05	-0.028
854.2141	0.0302
854.3782	0.0089
854.5423	0.0412
854.7063	-0.0651
854.8703	-0.0361
855.0343	-0.053
855.1983	0.0209
855.3623	-0.0682
855.5262	-0.008
855.6901	-0.0282
855.854	0.0189
856.0179	0.0942
856.1818	0.0372
856.3456	-0.0281
856.5094	0.0635
856.6732	0.0075
856.837	0.1036
857.0008	-0.305
857.1645	0.068
857.3282	0.1916
857.4919	-0.0773
857.6556	-0.0291
857.8192	-0.0686
857.9828	0.2513
858.1465	-0.0027
858.31	0.2374
858.4736	0.1816
858.6372	0.0205
858.8007	-0.4021
858.9642	0.0912
859.1277	-0.1849
859.2911	-0.0314
859.4546	0.4454
859.618	-0.5045
859.7814	0.1008
859.9448	0.3687
860.1081	-0.0149
860.2715	0.0052
860.4348	0.0928
860.5981	0.1656
860.7614	-0.0615
860.9246	-0.0711
861.0879	-0.1196
861.2511	0.2646
861.4143	0.0248
861.5774	-0.0717
861.7406	-0.1759
861.9037	-0.2344
862.0668	-0.1434
862.2299	-0.086
862.393	0.1614
862.556	0.0998
862.7191	-0.0536
862.8821	-0.3134
863.0451	0.3529
863.208	0.0213
863.371	-0.5016
863.5339	-0.0689
863.6968	0.1302
863.8597	-0.2031
864.0225	0.1419
864.1854	0.2174
864.3482	0.106
864.511	-0.0932
864.6737	-0
864.8365	0.0419
864.9992	-0.223
865.1619	-0.2041
865.3246	0.0109
865.4873	-0.0611
865.65	-0.1848
865.8126	0.2996
865.9752	-0.0121
866.1378	0.0325
866.3004	-0
866.4629	0.1688
866.6254	0.4266
866.7879	0.1806
866.9504	0.35
867.1129	-0.0308
867.2753	0.1998
867.4377	0.1447
867.6001	-0.132
867.7625	0.0224
867.9249	-0.7341
868.0872	0.203
868.2495	-0
868.4118	0.0016
868.5741	0.0585
868.7363	-0.0227
868.8986	-0.2716
869.0608	-0.2457
869.223	-0.0394
869.3851	-0.0794
869.5473	-0.3122
869.7094	-0.0173
869.8715	0.6251
870.0336	0.4899
870.1957	-0
870.3577	-0.2723
870.5197	-0
870.6817	1.016
870.8437	0.2198
871.0057	-0.0391
871.1676	-0.1238
871.3295	-0
871.4914	-0
871.6533	0.2119
871.8151	1.9332
871.977	-0.4273
872.1388	1.0635
872.3006	0.2661
872.4623	0.5941
872.6241	1.357
872.7858	-0.1023
872.9475	0.1637
873.1092	0.243
873.2709	-0
873.4325	0.9389
873.5941	0.4436
873.7557	-1.0407
873.9173	-0.1962
874.0789	0.7706
874.2404	0.2899
874.4019	0.0075
874.5634	-0.4243
874.7249	0.0155
874.8863	-0.2077
875.0478	0.0811
875.2092	-0.0131
875.3706	-0.1918
875.5319	-0.7705
875.6933	-0
875.8546	-0.0336
876.0159	0.0963
876.1772	-0
876.3385	-0.3198
876.4997	-0
876.6609	-0.3346
876.8221	-0
876.9833	-0.9309
877.1445	-0
877.3056	-0
877.4667	-0.1259
877.6278	-0.1185
877.7889	0.1236
877.9499	0.1114
878.111	0.3609
878.272	-0.3638
878.433	-0.1497
878.5939	0.3083
878.7549	0.2513
878.9158	0.0018
879.0767	-0.2435
879.2376	-0.121
879.3984	1.2317
879.5593	-0.4367
879.7201	-0.0957
879.8809	-0
880.0417	0.079
880.2024	-0
880.3632	-0.4573
880.5239	-0
880.6846	-0.0706
880.8452	-0.1275
881.0059	-0
881.1665	-0.5129
881.3271	-0.4121
881.4877	-0
881.6483	-0
881.8088	-0.4151
881.9693	-0
882.1298	-0
882.2903	-0
