Data from MonoPyChalIsomerACN10uM360nmA_Absorbance_13-57-29-104.txt Node
Date: Fri Jul 05 13:57:29 BST 2024
User: LASERRRRR
Spectrometer: FLMT03099
Trigger mode: 0
Integration Time (sec): 1.000000E-1
Scans to average: 1
Electric dark correction enabled: true
Nonlinearity correction enabled: false
Boxcar width: 0
XAxis mode: Wavelengths
Number of Pixels in Spectrum: 3648
>>>>>Begin Spectral Data<<<<<
179.3399	0.5829
179.5586	0.5829
179.7771	0.5829
179.9957	-0
180.2143	-0
180.4329	-0.121
180.6514	-0
180.8699	-0
181.0885	0.0314
181.307	0.1997
181.5255	-0.9942
181.744	-0.2354
181.9625	-0
182.181	-0
182.3994	-0
182.6179	-0
182.8363	-0.0589
183.0547	-0.2186
183.2732	-0.0238
183.4916	0.1453
183.71	0.5798
183.9284	-0.0377
184.1467	-0.15
184.3651	-0.1018
184.5835	0.0373
184.8018	0.0807
185.0201	0.1098
185.2385	0.0898
185.4568	0.2634
185.6751	0.1416
185.8934	0.3344
186.1117	-0.0463
186.3299	0.1255
186.5482	0.1227
186.7664	-0.1616
186.9847	-0.0599
187.2029	0.0197
187.4211	-0.0756
187.6393	1.0544
187.8575	-0.1146
188.0757	0.226
188.2939	0.0161
188.512	0.5799
188.7302	0.0236
188.9483	-0.1675
189.1665	0.1561
189.3846	-0.4314
189.6027	0.2244
189.8208	0.0833
190.0389	0.1313
190.257	0.0118
190.475	0.1657
190.6931	0.2454
190.9111	0.1187
191.1292	0.1119
191.3472	0.3873
191.5652	0.1315
191.7832	0.1175
192.0012	0.4067
192.2192	0.3754
192.4371	0.3783
192.6551	0.2685
192.873	0.314
193.091	0.3638
193.3089	0.5
193.5268	0.6685
193.7447	0.632
193.9626	0.4613
194.1805	0.5014
194.3984	0.7561
194.6162	0.6141
194.8341	0.4862
195.0519	0.5732
195.2697	0.661
195.4875	0.5836
195.7054	0.5222
195.9231	0.5298
196.1409	0.6881
196.3587	0.6569
196.5765	0.6013
196.7942	0.5703
197.012	0.4972
197.2297	0.5265
197.4474	0.6466
197.6651	0.3903
197.8828	0.567
198.1005	0.5214
198.3182	0.5528
198.5358	0.841
198.7535	0.6346
198.9711	0.5539
199.1888	0.656
199.4064	0.7672
199.624	0.6104
199.8416	0.6219
200.0592	0.4681
200.2767	0.7003
200.4943	0.8107
200.7119	0.839
200.9294	0.6484
201.1469	0.6022
201.3645	0.5913
201.582	0.6396
201.7995	0.8408
202.017	0.5519
202.2344	0.6179
202.4519	0.5414
202.6694	0.6258
202.8868	0.6559
203.1042	0.7103
203.3217	0.6218
203.5391	0.5939
203.7565	0.5683
203.9739	0.6515
204.1913	0.5269
204.4086	0.6174
204.626	0.7234
204.8433	0.6421
205.0607	0.5946
205.278	0.6955
205.4953	0.6212
205.7126	0.6431
205.9299	0.7139
206.1472	0.6581
206.3644	0.6217
206.5817	0.6283
206.7989	0.697
207.0162	0.6144
207.2334	0.6536
207.4506	0.5901
207.6678	0.6507
207.885	0.6773
208.1022	0.6593
208.3194	0.6759
208.5365	0.6633
208.7537	0.6099
208.9708	0.5735
209.1879	0.6097
209.405	0.6487
209.6222	0.5911
209.8392	0.586
210.0563	0.5618
210.2734	0.5403
210.4905	0.6192
210.7075	0.5845
210.9245	0.5318
211.1416	0.6146
211.3586	0.5561
211.5756	0.5823
211.7926	0.6319
212.0096	0.5794
212.2265	0.5461
212.4435	0.5854
212.6604	0.5505
212.8774	0.5612
213.0943	0.5804
213.3112	0.5808
213.5281	0.5098
213.745	0.4915
213.9619	0.4853
214.1788	0.4681
214.3956	0.4113
214.6125	0.425
214.8293	0.4154
215.0461	0.5099
215.2629	0.4265
215.4798	0.4933
215.6965	0.4104
215.9133	0.4496
216.1301	0.437
216.3469	0.4543
216.5636	0.4247
216.7803	0.3965
216.9971	0.3963
217.2138	0.3708
217.4305	0.3439
217.6472	0.3622
217.8639	0.3812
218.0805	0.3425
218.2972	0.3592
218.5138	0.3181
218.7305	0.3144
218.9471	0.3384
219.1637	0.2931
219.3803	0.2882
219.5969	0.2701
219.8135	0.2465
220.0301	0.2917
220.2466	0.2849
220.4632	0.2655
220.6797	0.2353
220.8962	0.2575
221.1127	0.2544
221.3292	0.2893
221.5457	0.2408
221.7622	0.2389
221.9787	0.2546
222.1951	0.227
222.4116	0.2505
222.628	0.2533
222.8444	0.2375
223.0608	0.2641
223.2772	0.2589
223.4936	0.2479
223.71	0.2575
223.9264	0.2755
224.1427	0.2664
224.3591	0.2588
224.5754	0.2791
224.7917	0.2632
225.008	0.2796
225.2243	0.2664
225.4406	0.2918
225.6569	0.2855
225.8732	0.2804
226.0894	0.2671
226.3057	0.2718
226.5219	0.2856
226.7381	0.2765
226.9543	0.2866
227.1705	0.2985
227.3867	0.2808
227.6029	0.3056
227.8191	0.295
228.0352	0.2888
228.2513	0.3191
228.4675	0.3022
228.6836	0.3188
228.8997	0.3013
229.1158	0.3289
229.3319	0.3251
229.548	0.3243
229.764	0.3367
229.9801	0.3267
230.1961	0.3138
230.4121	0.3343
230.6282	0.3166
230.8442	0.3156
231.0602	0.34
231.2761	0.3385
231.4921	0.3429
231.7081	0.3662
231.924	0.3375
232.14	0.3669
232.3559	0.3368
232.5718	0.3762
232.7877	0.3509
233.0036	0.345
233.2195	0.3539
233.4353	0.3541
233.6512	0.3588
233.867	0.3688
234.0829	0.3532
234.2987	0.3577
234.5145	0.3812
234.7303	0.3766
234.9461	0.3992
235.1619	0.3829
235.3776	0.3844
235.5934	0.3827
235.8091	0.3835
236.0249	0.3725
236.2406	0.385
236.4563	0.4088
236.672	0.3889
236.8877	0.3954
237.1034	0.4033
237.319	0.3973
237.5347	0.4032
237.7503	0.4116
237.966	0.4166
238.1816	0.4017
238.3972	0.3998
238.6128	0.3963
238.8284	0.4105
239.0439	0.4058
239.2595	0.398
239.475	0.402
239.6906	0.4175
239.9061	0.409
240.1216	0.4169
240.3371	0.4111
240.5526	0.3945
240.7681	0.4184
240.9836	0.4019
241.199	0.3952
241.4145	0.3883
241.6299	0.391
241.8453	0.3812
242.0607	0.3716
242.2761	0.3648
242.4915	0.3675
242.7069	0.3569
242.9223	0.3665
243.1376	0.3581
243.353	0.3453
243.5683	0.3494
243.7836	0.3338
243.9989	0.333
244.2142	0.3001
244.4295	0.3351
244.6448	0.3172
244.86	0.3179
245.0753	0.294
245.2905	0.288
245.5057	0.2954
245.721	0.2769
245.9362	0.2797
246.1514	0.2807
246.3665	0.2598
246.5817	0.2595
246.7969	0.2574
247.012	0.2485
247.2271	0.232
247.4423	0.2478
247.6574	0.247
247.8725	0.2397
248.0876	0.2198
248.3026	0.2325
248.5177	0.2114
248.7328	0.2158
248.9478	0.2122
249.1628	0.2048
249.3779	0.2189
249.5929	0.2046
249.8079	0.2239
250.0228	0.2099
250.2378	0.2092
250.4528	0.2007
250.6677	0.1968
250.8827	0.1908
251.0976	0.1995
251.3125	0.1894
251.5274	0.1763
251.7423	0.1937
251.9572	0.1867
252.172	0.1804
252.3869	0.1879
252.6017	0.1821
252.8166	0.1724
253.0314	0.1688
253.2462	0.1651
253.461	0.1854
253.6758	0.1767
253.8906	0.1745
254.1053	0.1679
254.3201	0.172
254.5348	0.1718
254.7496	0.1731
254.9643	0.1546
255.179	0.1755
255.3937	0.1685
255.6083	0.1729
255.823	0.1714
256.0377	0.1537
256.2523	0.1661
256.467	0.1556
256.6816	0.17
256.8962	0.1749
257.1108	0.1566
257.3254	0.1707
257.54	0.1666
257.7545	0.1741
257.9691	0.1747
258.1836	0.1724
258.3981	0.1754
258.6127	0.1746
258.8272	0.1707
259.0417	0.1604
259.2561	0.1726
259.4706	0.1631
259.6851	0.1731
259.8995	0.1687
260.114	0.1625
260.3284	0.1631
260.5428	0.1619
260.7572	0.1685
260.9716	0.1736
261.186	0.1569
261.4003	0.1669
261.6147	0.1784
261.829	0.1709
262.0433	0.1616
262.2577	0.1653
262.472	0.1637
262.6863	0.163
262.9005	0.1599
263.1148	0.1679
263.3291	0.1488
263.5433	0.1606
263.7576	0.1654
263.9718	0.1551
264.186	0.1664
264.4002	0.159
264.6144	0.163
264.8286	0.1707
265.0427	0.1702
265.2569	0.1549
265.471	0.1432
265.6851	0.1541
265.8993	0.1566
266.1134	0.1514
266.3275	0.1617
266.5415	0.1594
266.7556	0.1715
266.9697	0.159
267.1837	0.1594
267.3978	0.1517
267.6118	0.1616
267.8258	0.1762
268.0398	0.1552
268.2538	0.164
268.4677	0.1636
268.6817	0.1564
268.8957	0.1741
269.1096	0.1599
269.3235	0.1667
269.5374	0.1592
269.7514	0.157
269.9652	0.158
270.1791	0.1459
270.393	0.1446
270.6068	0.1526
270.8207	0.1442
271.0345	0.1474
271.2483	0.1579
271.4622	0.153
271.676	0.1504
271.8897	0.1396
272.1035	0.1416
272.3173	0.1424
272.531	0.151
272.7448	0.1329
272.9585	0.1408
273.1722	0.1448
273.3859	0.1569
273.5996	0.135
273.8133	0.1459
274.0269	0.1507
274.2406	0.1566
274.4542	0.1415
274.6679	0.1341
274.8815	0.1468
275.0951	0.1419
275.3087	0.1418
275.5223	0.1486
275.7358	0.1464
275.9494	0.1511
276.1629	0.1271
276.3765	0.1353
276.59	0.1568
276.8035	0.1451
277.017	0.1581
277.2305	0.1432
277.444	0.1621
277.6574	0.1286
277.8709	0.1445
278.0843	0.1424
278.2978	0.152
278.5112	0.1269
278.7246	0.1315
278.938	0.1405
279.1513	0.1466
279.3647	0.1563
279.5781	0.1543
279.7914	0.1553
280.0047	0.1576
280.2181	0.1497
280.4314	0.1477
280.6447	0.147
280.8579	0.1525
281.0712	0.1617
281.2845	0.1574
281.4977	0.1549
281.711	0.138
281.9242	0.1501
282.1374	0.1594
282.3506	0.1489
282.5638	0.1568
282.7769	0.1489
282.9901	0.1465
283.2033	0.1637
283.4164	0.156
283.6295	0.1402
283.8426	0.1525
284.0557	0.1528
284.2688	0.1642
284.4819	0.1593
284.695	0.1539
284.908	0.1565
285.1211	0.1583
285.3341	0.1504
285.5471	0.1652
285.7601	0.1668
285.9731	0.1557
286.1861	0.1409
286.3991	0.1665
286.612	0.178
286.825	0.1617
287.0379	0.1589
287.2508	0.1724
287.4637	0.1749
287.6766	0.1507
287.8895	0.1681
288.1024	0.1844
288.3152	0.1676
288.5281	0.1501
288.7409	0.1646
288.9538	0.1731
289.1666	0.1581
289.3794	0.1663
289.5922	0.1632
289.8049	0.1612
290.0177	0.1537
290.2304	0.1614
290.4432	0.162
290.6559	0.1676
290.8686	0.161
291.0813	0.1521
291.294	0.1718
291.5067	0.1712
291.7194	0.17
291.932	0.1822
292.1447	0.1615
292.3573	0.1394
292.5699	0.1719
292.7825	0.165
292.9951	0.1593
293.2077	0.1663
293.4203	0.163
293.6328	0.16
293.8454	0.1713
294.0579	0.1467
294.2704	0.1647
294.4829	0.1595
294.6954	0.1629
294.9079	0.1659
295.1204	0.161
295.3328	0.1577
295.5453	0.1544
295.7577	0.1579
295.9701	0.1638
296.1825	0.1649
296.3949	0.1506
296.6073	0.1499
296.8197	0.16
297.0321	0.1774
297.2444	0.1632
297.4567	0.1657
297.6691	0.1645
297.8814	0.151
298.0937	0.1587
298.306	0.1715
298.5182	0.1578
298.7305	0.1601
298.9428	0.1578
299.155	0.1611
299.3672	0.1558
299.5794	0.1462
299.7916	0.1557
300.0038	0.1716
300.216	0.1648
300.4282	0.1579
300.6403	0.1556
300.8525	0.168
301.0646	0.1526
301.2767	0.1599
301.4888	0.1537
301.7009	0.1615
301.913	0.1578
302.125	0.1541
302.3371	0.1512
302.5491	0.1616
302.7612	0.1728
302.9732	0.1569
303.1852	0.1598
303.3972	0.1586
303.6092	0.1575
303.8211	0.1444
304.0331	0.1542
304.245	0.1533
304.457	0.1442
304.6689	0.1464
304.8808	0.1594
305.0927	0.152
305.3046	0.154
305.5164	0.1645
305.7283	0.1509
305.9401	0.1487
306.152	0.147
306.3638	0.1375
306.5756	0.1451
306.7874	0.144
306.9992	0.1464
307.2109	0.1425
307.4227	0.127
307.6344	0.1394
307.8462	0.1315
308.0579	0.1342
308.2696	0.129
308.4813	0.1314
308.693	0.1307
308.9046	0.1428
309.1163	0.1266
309.328	0.1232
309.5396	0.1109
309.7512	0.1185
309.9628	0.1268
310.1744	0.1232
310.386	0.1256
310.5976	0.1217
310.8091	0.1113
311.0207	0.1076
311.2322	0.1254
311.4437	0.1153
311.6552	0.1093
311.8667	0.109
312.0782	0.0959
312.2897	0.1072
312.5012	0.1155
312.7126	0.1063
312.924	0.113
313.1355	0.1144
313.3469	0.1078
313.5583	0.1097
313.7696	0.1052
313.981	0.1182
314.1924	0.0994
314.4037	0.1064
314.6151	0.1067
314.8264	0.0903
315.0377	0.1
315.249	0.103
315.4603	0.1061
315.6716	0.1051
315.8828	0.1003
316.0941	0.1006
316.3053	0.0983
316.5165	0.099
316.7277	0.09
316.9389	0.1078
317.1501	0.0943
317.3613	0.0974
317.5724	0.0949
317.7836	0.1037
317.9947	0.0988
318.2058	0.0996
318.417	0.083
318.6281	0.0903
318.8391	0.0946
319.0502	0.0958
319.2613	0.0971
319.4723	0.1038
319.6834	0.104
319.8944	0.0885
320.1054	0.0954
320.3164	0.0961
320.5274	0.0952
320.7383	0.101
320.9493	0.1015
321.1602	0.1091
321.3712	0.077
321.5821	0.0962
321.793	0.1015
322.0039	0.1083
322.2148	0.0959
322.4257	0.1019
322.6365	0.1042
322.8474	0.107
323.0582	0.0902
323.269	0.1003
323.4798	0.1048
323.6906	0.102
323.9014	0.1048
324.1122	0.1149
324.3229	0.0974
324.5337	0.1013
324.7444	0.1001
324.9551	0.1143
325.1658	0.0977
325.3765	0.1035
325.5872	0.1037
325.7979	0.1018
326.0085	0.1083
326.2192	0.0982
326.4298	0.112
326.6404	0.0997
326.851	0.0852
327.0616	0.0935
327.2722	0.0973
327.4828	0.1065
327.6933	0.1002
327.9039	0.11
328.1144	0.1188
328.3249	0.1101
328.5354	0.1089
328.7459	0.093
328.9564	0.0987
329.1669	0.1136
329.3773	0.1102
329.5878	0.1118
329.7982	0.1011
330.0086	0.0946
330.219	0.1075
330.4294	0.1037
330.6398	0.111
330.8502	0.0973
331.0605	0.1113
331.2708	0.1099
331.4812	0.1031
331.6915	0.1112
331.9018	0.1125
332.1121	0.1092
332.3224	0.1045
332.5326	0.1127
332.7429	0.108
332.9531	0.1173
333.1633	0.1114
333.3735	0.1115
333.5837	0.0973
333.7939	0.0967
334.0041	0.1209
334.2143	0.1061
334.4244	0.1017
334.6346	0.0968
334.8447	0.1271
335.0548	0.1059
335.2649	0.1056
335.475	0.1136
335.685	0.1048
335.8951	0.1215
336.1051	0.1206
336.3152	0.116
336.5252	0.1108
336.7352	0.1159
336.9452	0.1127
337.1552	0.119
337.3652	0.1036
337.5751	0.12
337.7851	0.1154
337.995	0.1024
338.2049	0.115
338.4148	0.1141
338.6247	0.1178
338.8346	0.1147
339.0445	0.1008
339.2543	0.1201
339.4642	0.1186
339.674	0.115
339.8838	0.1213
340.0936	0.1292
340.3034	0.1314
340.5132	0.1353
340.7229	0.1112
340.9327	0.1214
341.1424	0.1164
341.3522	0.1284
341.5619	0.1234
341.7716	0.1225
341.9813	0.1235
342.1909	0.113
342.4006	0.1157
342.6102	0.125
342.8199	0.1317
343.0295	0.1174
343.2391	0.1278
343.4487	0.1391
343.6583	0.1215
343.8679	0.1238
344.0774	0.1209
344.287	0.1191
344.4965	0.1331
344.706	0.1221
344.9155	0.1252
345.125	0.1225
345.3345	0.1245
345.544	0.1269
345.7534	0.1306
345.9629	0.1271
346.1723	0.1237
346.3817	0.1192
346.5911	0.1294
346.8005	0.15
347.0099	0.1281
347.2193	0.1395
347.4286	0.1387
347.638	0.1427
347.8473	0.1324
348.0566	0.1409
348.2659	0.1407
348.4752	0.1281
348.6845	0.129
348.8937	0.132
349.103	0.1362
349.3122	0.1323
349.5214	0.1309
349.7306	0.1419
349.9398	0.1275
350.149	0.1226
350.3582	0.1281
350.5674	0.1471
350.7765	0.1393
350.9856	0.1383
351.1948	0.1376
351.4039	0.1268
351.613	0.1304
351.822	0.1368
352.0311	0.1394
352.2402	0.1507
352.4492	0.1549
352.6582	0.1563
352.8672	0.1455
353.0762	0.1521
353.2852	0.1349
353.4942	0.1382
353.7032	0.1583
353.9121	0.1407
354.1211	0.1545
354.33	0.1461
354.5389	0.139
354.7478	0.1474
354.9567	0.1489
355.1655	0.1428
355.3744	0.1638
355.5833	0.1543
355.7921	0.1682
356.0009	0.1453
356.2097	0.1647
356.4185	0.1735
356.6273	0.155
356.8361	0.1628
357.0448	0.1499
357.2536	0.1509
357.4623	0.146
357.671	0.1678
357.8797	0.1628
358.0884	0.1594
358.2971	0.1507
358.5057	0.1708
358.7144	0.1641
358.923	0.157
359.1316	0.1588
359.3402	0.1687
359.5488	0.1658
359.7574	0.163
359.966	0.1689
360.1746	0.1706
360.3831	0.1667
360.5916	0.1532
360.8002	0.158
361.0087	0.1785
361.2172	0.18
361.4256	0.1814
361.6341	0.1896
361.8426	0.188
362.051	0.1795
362.2594	0.168
362.4678	0.1843
362.6762	0.1896
362.8846	0.1795
363.093	0.178
363.3014	0.1796
363.5097	0.1639
363.718	0.18
363.9264	0.1863
364.1347	0.1807
364.343	0.1931
364.5513	0.2104
364.7595	0.1981
364.9678	0.1906
365.176	0.1776
365.3842	0.1733
365.5925	0.1879
365.8007	0.1925
366.0089	0.1821
366.217	0.1937
366.4252	0.2009
366.6333	0.2163
366.8415	0.2021
367.0496	0.1878
367.2577	0.212
367.4658	0.2083
367.6739	0.2006
367.882	0.2242
368.09	0.2065
368.2981	0.2108
368.5061	0.2063
368.7141	0.203
368.9221	0.2107
369.1301	0.2188
369.3381	0.2003
369.5461	0.2024
369.754	0.2085
369.962	0.2257
370.1699	0.2048
370.3778	0.2051
370.5857	0.2076
370.7936	0.2093
371.0015	0.2004
371.2093	0.204
371.4172	0.2303
371.625	0.2088
371.8328	0.2077
372.0406	0.2051
372.2484	0.2222
372.4562	0.2018
372.664	0.2234
372.8717	0.2355
373.0795	0.1842
373.2872	0.2153
373.4949	0.2222
373.7026	0.2167
373.9103	0.2256
374.118	0.2261
374.3256	0.2226
374.5333	0.1993
374.7409	0.2136
374.9485	0.243
375.1561	0.2409
375.3637	0.2263
375.5713	0.2371
375.7789	0.2359
375.9864	0.2251
376.194	0.2105
376.4015	0.2312
376.609	0.2269
376.8165	0.2384
377.024	0.2174
377.2315	0.2179
377.4389	0.2379
377.6464	0.2396
377.8538	0.2331
378.0612	0.2318
378.2686	0.2454
378.476	0.2626
378.6834	0.235
378.8908	0.2468
379.0981	0.2371
379.3055	0.2504
379.5128	0.2293
379.7201	0.2634
379.9274	0.2366
380.1347	0.2245
380.342	0.2579
380.5492	0.2343
380.7565	0.2387
380.9637	0.2455
381.1709	0.2446
381.3781	0.2516
381.5853	0.2401
381.7925	0.2265
381.9997	0.2718
382.2068	0.2701
382.4139	0.247
382.6211	0.2294
382.8282	0.2544
383.0353	0.2486
383.2424	0.2484
383.4494	0.2656
383.6565	0.2453
383.8635	0.2369
384.0706	0.2415
384.2776	0.2501
384.4846	0.2349
384.6916	0.2553
384.8986	0.2329
385.1055	0.2485
385.3125	0.2564
385.5194	0.2294
385.7263	0.2501
385.9333	0.2384
386.1402	0.2629
386.347	0.2457
386.5539	0.2435
386.7608	0.2563
386.9676	0.2391
387.1744	0.2522
387.3813	0.242
387.5881	0.2502
387.7948	0.2345
388.0016	0.2266
388.2084	0.2291
388.4151	0.2335
388.6219	0.228
388.8286	0.2345
389.0353	0.2558
389.242	0.2486
389.4487	0.2258
389.6553	0.2332
389.862	0.2137
390.0686	0.2193
390.2753	0.2243
390.4819	0.2419
390.6885	0.2346
390.8951	0.2258
391.1016	0.2281
391.3082	0.228
391.5147	0.2348
391.7213	0.2313
391.9278	0.2163
392.1343	0.2231
392.3408	0.2231
392.5473	0.2242
392.7537	0.2245
392.9602	0.2215
393.1666	0.2265
393.373	0.2206
393.5794	0.2187
393.7858	0.214
393.9922	0.2031
394.1986	0.2282
394.4049	0.2203
394.6113	0.2151
394.8176	0.2111
395.0239	0.2097
395.2302	0.2188
395.4365	0.2064
395.6428	0.2118
395.8491	0.2138
396.0553	0.2233
396.2615	0.2112
396.4678	0.1951
396.674	0.1992
396.8802	0.2118
397.0863	0.2267
397.2925	0.2095
397.4987	0.204
397.7048	0.1909
397.9109	0.2105
398.117	0.1891
398.3231	0.2077
398.5292	0.2156
398.7353	0.2043
398.9413	0.2024
399.1474	0.2031
399.3534	0.2049
399.5594	0.2003
399.7654	0.2154
399.9714	0.2261
400.1774	0.2093
400.3833	0.1957
400.5893	0.2108
400.7952	0.1964
401.0011	0.2029
401.207	0.2222
401.4129	0.2074
401.6188	0.2105
401.8247	0.2136
402.0305	0.1965
402.2364	0.2035
402.4422	0.208
402.648	0.2136
402.8538	0.2279
403.0596	0.2095
403.2654	0.2041
403.4711	0.198
403.6768	0.2063
403.8826	0.2042
404.0883	0.2099
404.294	0.2159
404.4997	0.2225
404.7054	0.2087
404.911	0.1905
405.1167	0.2047
405.3223	0.2242
405.5279	0.2165
405.7335	0.2144
405.9391	0.2082
406.1447	0.1953
406.3502	0.2281
406.5558	0.205
406.7613	0.209
406.9668	0.2044
407.1724	0.1982
407.3778	0.1963
407.5833	0.1978
407.7888	0.1795
407.9942	0.2169
408.1997	0.2094
408.4051	0.1949
408.6105	0.2006
408.8159	0.2008
409.0213	0.195
409.2267	0.2097
409.432	0.1824
409.6374	0.2092
409.8427	0.196
410.048	0.2143
410.2533	0.2285
410.4586	0.1997
410.6639	0.2066
410.8691	0.1852
411.0744	0.2088
411.2796	0.2
411.4848	0.1914
411.69	0.1952
411.8952	0.222
412.1004	0.1765
412.3056	0.2103
412.5107	0.2129
412.7158	0.1965
412.921	0.2182
413.1261	0.2032
413.3312	0.1841
413.5362	0.2015
413.7413	0.1916
413.9464	0.1903
414.1514	0.2047
414.3564	0.1937
414.5614	0.1869
414.7664	0.2143
414.9714	0.1876
415.1764	0.209
415.3813	0.2105
415.5863	0.1997
415.7912	0.1889
415.9961	0.1975
416.201	0.1842
416.4059	0.2073
416.6108	0.1971
416.8156	0.1845
417.0205	0.1914
417.2253	0.1826
417.4301	0.1881
417.6349	0.1794
417.8397	0.1808
418.0445	0.1937
418.2492	0.1933
418.454	0.1723
418.6587	0.2004
418.8634	0.1874
419.0681	0.1699
419.2728	0.1867
419.4775	0.1965
419.6822	0.1858
419.8868	0.1622
420.0915	0.1909
420.2961	0.1726
420.5007	0.1751
420.7053	0.1916
420.9099	0.1855
421.1144	0.177
421.319	0.1701
421.5235	0.1855
421.728	0.1769
421.9325	0.1888
422.137	0.1776
422.3415	0.1668
422.546	0.1688
422.7504	0.1788
422.9549	0.1849
423.1593	0.1944
423.3637	0.1737
423.5681	0.1761
423.7725	0.1689
423.9769	0.1627
424.1812	0.1604
424.3856	0.1721
424.5899	0.1703
424.7942	0.1671
424.9985	0.1715
425.2028	0.1724
425.4071	0.1731
425.6113	0.1424
425.8156	0.1633
426.0198	0.1724
426.224	0.1577
426.4282	0.1546
426.6324	0.1598
426.8366	0.1598
427.0407	0.1475
427.2449	0.1655
427.449	0.1517
427.6531	0.1447
427.8572	0.1363
428.0613	0.1571
428.2654	0.1702
428.4694	0.1566
428.6735	0.1486
428.8775	0.1505
429.0815	0.1532
429.2855	0.1387
429.4895	0.1521
429.6935	0.1572
429.8975	0.1523
430.1014	0.1296
430.3053	0.1273
430.5093	0.1386
430.7132	0.1315
430.9171	0.1259
431.1209	0.1295
431.3248	0.132
431.5286	0.1476
431.7325	0.1307
431.9363	0.1229
432.1401	0.1308
432.3439	0.1306
432.5477	0.1216
432.7514	0.1125
432.9552	0.1275
433.1589	0.1274
433.3627	0.1152
433.5664	0.1179
433.7701	0.1216
433.9737	0.0949
434.1774	0.1048
434.3811	0.1104
434.5847	0.1304
434.7883	0.1029
434.9919	0.1
435.1955	0.1175
435.3991	0.1033
435.6027	0.1059
435.8062	0.1033
436.0098	0.0901
436.2133	0.1027
436.4168	0.1022
436.6203	0.1098
436.8238	0.1106
437.0272	0.0999
437.2307	0.0867
437.4341	0.0888
437.6375	0.0872
437.841	0.0755
438.0443	0.1013
438.2477	0.093
438.4511	0.086
438.6545	0.0908
438.8578	0.0941
439.0611	0.0811
439.2644	0.0856
439.4677	0.0793
439.671	0.0702
439.8743	0.0908
440.0775	0.0756
440.2808	0.0866
440.484	0.0617
440.6872	0.0774
440.8904	0.0553
441.0936	0.0795
441.2967	0.0719
441.4999	0.0626
441.703	0.0603
441.9062	0.0522
442.1093	0.0665
442.3124	0.0575
442.5155	0.0478
442.7185	0.057
442.9216	0.0317
443.1246	0.0725
443.3276	0.0479
443.5307	0.0655
443.7337	0.0545
443.9366	0.0637
444.1396	0.0511
444.3426	0.0489
444.5455	0.0531
444.7484	0.0556
444.9513	0.0427
445.1542	0.0499
445.3571	0.042
445.56	0.0443
445.7628	0.0431
445.9657	0.0344
446.1685	0.0523
446.3713	0.0478
446.5741	0.0444
446.7769	0.0319
446.9797	0.0426
447.1824	0.0484
447.3852	0.0416
447.5879	0.0413
447.7906	0.0474
447.9933	0.0466
448.196	0.0313
448.3986	0.0319
448.6013	0.0383
448.8039	0.0044
449.0066	0.0515
449.2092	0.0413
449.4118	0.0365
449.6143	0.0187
449.8169	0.0447
450.0195	0.0213
450.222	0.0052
450.4245	0.0236
450.627	0.0208
450.8295	0.0389
451.032	0.0173
451.2345	0.0176
451.4369	0.0354
451.6394	0.0231
451.8418	-0.0067
452.0442	0.0229
452.2466	0.0285
452.449	0.0101
452.6513	0.0197
452.8537	0.0112
453.056	0.0025
453.2583	0.0145
453.4607	-0.0017
453.663	0.0185
453.8652	0.0248
454.0675	0.0165
454.2697	0.0345
454.472	-0.0036
454.6742	0.0121
454.8764	0.0184
455.0786	0.0182
455.2808	0.0271
455.4829	0.014
455.6851	0.0175
455.8872	0.0228
456.0893	0.0274
456.2915	-0.0117
456.4935	0.0171
456.6956	0.0116
456.8977	0.0142
457.0997	0.0109
457.3018	0.007
457.5038	0.0215
457.7058	0.0069
457.9078	-0.0028
458.1098	0.0066
458.3117	0.0142
458.5137	0.0092
458.7156	0.0079
458.9175	-0.0039
459.1194	-0.0015
459.3213	0.0005
459.5232	-0.0055
459.725	0.0086
459.9269	-0.003
460.1287	0.0048
460.3305	-0
460.5323	0.0149
460.7341	-0.0047
460.9359	-0.0084
461.1376	0.0163
461.3394	-0.0096
461.5411	0.0178
461.7428	0.011
461.9445	0.0131
462.1462	0.0288
462.3479	-0.0016
462.5495	-0.0042
462.7512	0.0103
462.9528	0.0016
463.1544	-0.0127
463.356	-0.0085
463.5576	0.0158
463.7592	-0.0142
463.9607	0.0158
464.1623	0.0184
464.3638	0.0142
464.5653	-0.0136
464.7668	0.0107
464.9683	0.0081
465.1697	0.0166
465.3712	-0.0016
465.5726	-0.0013
465.7741	-0.0072
465.9755	0.0011
466.1769	0.0009
466.3782	0.0039
466.5796	-0.0147
466.7809	0.0126
466.9823	-0.001
467.1836	0.0069
467.3849	0.0011
467.5862	0.0019
467.7875	-0.0042
467.9887	0.0123
468.19	-0.0067
468.3912	-0.0032
468.5924	-0.0126
468.7936	0.0051
468.9948	0.0063
469.196	-0.0077
469.3972	-0.0088
469.5983	0.0041
469.7994	-0.0113
470.0006	-0.0056
470.2017	-0.0045
470.4027	-0.0068
470.6038	-0.0076
470.8049	-0.0201
471.0059	0.003
471.2069	-0.0305
471.408	0.0179
471.6089	0.0099
471.8099	-0.001
472.0109	0.0075
472.2119	-0.0023
472.4128	-0.0053
472.6137	0.0004
472.8146	-0.0079
473.0155	-0.0108
473.2164	-0.006
473.4173	0.0071
473.6181	0.0109
473.819	0.0115
474.0198	-0.0123
474.2206	-0.0056
474.4214	-0.0072
474.6222	0.0014
474.8229	-0.019
475.0237	-0.0116
475.2244	-0.0099
475.4251	-0.0087
475.6258	-0.0033
475.8265	0.0064
476.0272	0.0034
476.2278	-0.0011
476.4285	-0.015
476.6291	-0.0101
476.8297	-0.0121
477.0303	-0.0103
477.2309	-0.0073
477.4315	-0.0096
477.632	-0.0052
477.8326	-0.0037
478.0331	0.0011
478.2336	0.0063
478.4341	-0.009
478.6346	0.003
478.8351	-0.0053
479.0355	0.0111
479.236	-0.0149
479.4364	-0.0021
479.6368	-0
479.8372	-0.0085
480.0376	0.0035
480.2379	-0.0187
480.4383	-0.0055
480.6386	0.0138
480.8389	0.0055
481.0392	-0.004
481.2395	-0.0045
481.4398	0.0039
481.6401	-0.0048
481.8403	0.0009
482.0405	-0.0097
482.2408	-0.005
482.441	0.0023
482.6411	-0.0069
482.8413	-0.0013
483.0415	-0.0085
483.2416	-0.0145
483.4417	-0.0066
483.6419	-0.005
483.8419	-0.0023
484.042	0.0092
484.2421	-0.0027
484.4422	-0.0018
484.6422	-0.0076
484.8422	-0.0042
485.0422	-0.0164
485.2422	-0.0017
485.4422	-0.0171
485.6422	-0.0101
485.8421	0.0035
486.042	-0.0055
486.242	0.0018
486.4419	-0.0129
486.6417	-0.0069
486.8416	-0.0081
487.0415	-0.0048
487.2413	-0.0033
487.4411	-0.0092
487.641	-0.0117
487.8408	0.0053
488.0405	-0.0083
488.2403	-0.004
488.4401	0.006
488.6398	0.0012
488.8395	-0.0036
489.0392	-0.0115
489.2389	-0.0031
489.4386	0.0004
489.6383	-0.0115
489.8379	0.0013
490.0376	-0.0136
490.2372	-0.0128
490.4368	-0.0103
490.6364	-0.0099
490.836	-0.0082
491.0355	-0.0055
491.2351	-0.0103
491.4346	-0.0059
491.6341	-0.0162
491.8336	0.006
492.0331	-0.0175
492.2326	-0.0124
492.432	-0.006
492.6315	-0.0087
492.8309	-0.0141
493.0303	-0.0054
493.2297	-0.0112
493.4291	-0.0075
493.6284	-0.0028
493.8278	0.0036
494.0271	-0.004
494.2264	0.0011
494.4257	-0.0097
494.625	-0.0058
494.8243	-0.0191
495.0236	-0.0101
495.2228	-0.0123
495.422	-0.0022
495.6213	-0.0038
495.8205	-0.0025
496.0196	-0.0006
496.2188	-0.0028
496.418	-0.0144
496.6171	-0.0035
496.8162	-0.013
497.0153	-0.0008
497.2144	-0.0085
497.4135	-0.0106
497.6126	-0.0157
497.8116	-0.0195
498.0107	-0.0026
498.2097	-0.0071
498.4087	-0.0288
498.6077	-0.0036
498.8067	-0.0082
499.0056	0.0005
499.2046	-0.0019
499.4035	-0.0236
499.6024	-0.0097
499.8013	-0.0036
500.0002	-0.0139
500.199	-0.0039
500.3979	-0.0104
500.5967	-0.0214
500.7956	-0.0028
500.9944	-0.006
501.1932	-0.0169
501.3919	-0.0141
501.5907	-0.0077
501.7895	-0.002
501.9882	-0.0094
502.1869	-0.0091
502.3856	-0.0136
502.5843	-0.0108
502.783	-0.0114
502.9816	-0.0041
503.1803	-0.013
503.3789	-0.006
503.5775	0.0014
503.7761	-0.0094
503.9747	-0.007
504.1732	-0.0047
504.3718	-0.0036
504.5703	-0.0095
504.7689	-0.0017
504.9674	-0.0109
505.1658	-0.0016
505.3643	-0.0092
505.5628	0.002
505.7612	-0.0066
505.9597	0.0042
506.1581	-0.0047
506.3565	0.0079
506.5549	-0.0031
506.7532	-0.0186
506.9516	-0.014
507.1499	-0.0057
507.3482	-0.0156
507.5465	-0.0072
507.7448	-0.0134
507.9431	0.0046
508.1414	0.0011
508.3396	0.0005
508.5379	-0.003
508.7361	-0.0072
508.9343	-0.0007
509.1325	0.0021
509.3306	-0.0055
509.5288	-0.0088
509.7269	-0.0128
509.9251	-0.0005
510.1232	-0.0101
510.3213	-0.0028
510.5193	-0.0006
510.7174	-0.0203
510.9154	-0.0028
511.1135	-0.0103
511.3115	-0.0016
511.5095	0.0023
511.7075	-0.0019
511.9055	-0.0054
512.1034	-0.0153
512.3014	-0.0089
512.4993	-0.0006
512.6972	-0.0132
512.8951	-0.0143
513.093	-0.003
513.2908	-0.0047
513.4887	-0.0047
513.6865	-0.005
513.8844	-0.0133
514.0822	-0.0019
514.2799	-0.0105
514.4777	-0.0178
514.6755	-0.0034
514.8732	-0.0109
515.0709	-0.0045
515.2687	-0.0096
515.4664	-0.0173
515.664	-0.006
515.8617	-0.0076
516.0594	-0.0119
516.257	-0.0093
516.4546	-0.016
516.6522	0.004
516.8498	-0.0059
517.0474	-0.0027
517.2449	0.0044
517.4425	-0.0109
517.64	-0.0092
517.8375	0.0011
518.035	-0.0129
518.2325	-0.0155
518.43	-0.0083
518.6274	-0.0194
518.8249	-0.0123
519.0223	-0.0043
519.2197	-0.0047
519.4171	-0.0093
519.6145	-0.0141
519.8118	-0.0092
520.0092	-0.0107
520.2065	-0.0068
520.4038	-0.0219
520.6011	0.005
520.7984	-0.02
520.9956	0.0077
521.1929	-0.0136
521.3901	-0.0017
521.5874	-0.0085
521.7846	-0.0039
521.9818	-0.0053
522.1789	-0.0016
522.3761	-0.0126
522.5732	-0.0106
522.7704	-0.0055
522.9675	-0.0055
523.1646	-0.0097
523.3617	-0.0084
523.5587	-0.0052
523.7558	-0.0042
523.9528	-0.0127
524.1498	-0.0066
524.3468	-0.007
524.5438	-0.0068
524.7408	-0.0021
524.9378	-0.0074
525.1347	0.0014
525.3316	0.0052
525.5285	-0.003
525.7254	-0.0136
525.9223	-0.0007
526.1192	-0.0022
526.316	-0.02
526.5129	-0.0035
526.7097	-0.0032
526.9065	-0.0028
527.1033	-0.0163
527.3	-0.0029
527.4968	-0.0149
527.6935	-0.0131
527.8903	-0.0211
528.087	-0.0008
528.2837	-0.0102
528.4804	-0.0077
528.677	-0.0187
528.8737	0.0035
529.0703	-0.0037
529.2669	-0.0155
529.4635	-0.0085
529.6601	0.0089
529.8567	0.0028
530.0532	-0.0135
530.2498	-0.0069
530.4463	0.0076
530.6428	-0.0075
530.8393	0.0038
531.0358	-0.0016
531.2322	-0.0025
531.4287	-0.0038
531.6251	-0.0099
531.8215	0.0089
532.0179	-0.0026
532.2143	0.002
532.4107	-0.0045
532.607	-0.0068
532.8034	-0.0081
532.9997	-0.006
533.196	0.0012
533.3923	-0.0079
533.5886	-0.01
533.7848	-0.0011
533.9811	-0.0049
534.1773	-0.0038
534.3735	-0.0014
534.5697	-0.0036
534.7659	-0.0007
534.9621	-0.0029
535.1582	-0.0076
535.3544	-0.0114
535.5505	-0.009
535.7466	-0.0091
535.9427	-0.0121
536.1387	-0.0078
536.3348	-0.0033
536.5308	-0.0032
536.7269	-0.0198
536.9229	-0.004
537.1189	-0.0008
537.3148	-0.0087
537.5108	-0.0055
537.7068	0.0037
537.9027	0.0004
538.0986	-0.0053
538.2945	-0.0104
538.4904	-0.0058
538.6863	-0.0063
538.8821	-0.0085
539.078	-0.0133
539.2738	-0.0001
539.4696	-0.0071
539.6654	0.0002
539.8611	0.0021
540.0569	-0.0045
540.2526	-0.0123
540.4484	-0.0001
540.6441	0.0038
540.8398	-0.0071
541.0355	0.0084
541.2311	0.0004
541.4268	-0.0075
541.6224	0.0011
541.818	-0.0004
542.0136	-0.0101
542.2092	0.0075
542.4048	0.0018
542.6003	0.0032
542.7959	-0.0041
542.9914	0.006
543.1869	-0.0037
543.3824	-0.0034
543.5779	-0.0095
543.7734	-0.0029
543.9688	-0.0059
544.1642	-0.0063
544.3596	0.0008
544.555	-0.0067
544.7504	0.0066
544.9458	-0.0064
545.1411	0.0042
545.3365	-0.0068
545.5318	-0.0071
545.7271	-0.0046
545.9224	-0.0108
546.1177	0.0021
546.3129	0.0009
546.5081	-0.0003
546.7034	0.0019
546.8986	-0.0064
547.0938	-0.0022
547.289	0.0028
547.4841	-0.0031
547.6793	0.0031
547.8744	-0.014
548.0695	-0.0078
548.2646	-0.0066
548.4597	-0.0024
548.6548	0.0032
548.8498	0.0042
549.0448	0.0105
549.2399	0.0043
549.4349	0.0061
549.6298	-0.0015
549.8248	0.004
550.0198	-0.0027
550.2147	0.0033
550.4096	-0.0111
550.6045	-0.0016
550.7994	0.0037
550.9943	-0.0076
551.1892	-0.0006
551.384	0.0055
551.5788	-0.0107
551.7737	0.0073
551.9685	-0.0062
552.1632	0.0004
552.358	-0.0052
552.5528	-0.0023
552.7475	-0.007
552.9422	0.0017
553.1369	-0.0004
553.3316	0.0022
553.5263	-0.007
553.7209	0.0082
553.9156	-0.0047
554.1102	-0.0125
554.3048	-0.0032
554.4994	0.0018
554.694	0.0039
554.8885	0.007
555.0831	-0.0057
555.2776	0.0037
555.4721	0.0027
555.6666	0.0062
555.8611	-0.0009
556.0555	0.003
556.25	-0.0035
556.4444	-0.0068
556.6388	0.0004
556.8332	-0.0047
557.0276	-0.0045
557.222	-0.0056
557.4163	0.0012
557.6107	-0.0044
557.805	0.0056
557.9993	-0.001
558.1936	-0.0018
558.3879	-0.0038
558.5821	0.0036
558.7764	-0.0073
558.9706	-0.0007
559.1648	-0.0017
559.359	-0.0089
559.5532	-0.0117
559.7473	-0.0059
559.9415	-0.0022
560.1356	-0.011
560.3297	-0.0082
560.5238	-0.0078
560.7179	-0.0062
560.9119	-0.0032
561.106	-0.0045
561.3	-0.0089
561.494	-0.0024
561.688	-0.0069
561.882	-0.0145
562.076	-0.0109
562.2699	-0.0024
562.4639	-0.0063
562.6578	0.0009
562.8517	-0.0016
563.0456	-0.0027
563.2395	-0.0037
563.4333	0.0043
563.6272	0.0055
563.821	-0.003
564.0148	0.0038
564.2086	-0.006
564.4024	-0.0019
564.5961	-0.0116
564.7899	0.0015
564.9836	-0.0005
565.1773	-0.0004
565.371	0.0105
565.5647	0.0128
565.7584	-0.0027
565.952	-0.005
566.1456	0.0048
566.3393	-0.0032
566.5329	-0.0078
566.7264	-0.0053
566.92	-0.0047
567.1136	0.0068
567.3071	-0.0052
567.5006	-0.0033
567.6941	0.0051
567.8876	0.0003
568.0811	0.0019
568.2745	-0.0028
568.468	0.0041
568.6614	0.0004
568.8548	0.0004
569.0482	0.0045
569.2416	-0.0002
569.4349	0.0016
569.6283	0.0111
569.8216	0.0058
570.0149	-0.0005
570.2082	0.0166
570.4015	0.0147
570.5947	0.0071
570.788	0.0031
570.9812	0.0036
571.1744	-0.002
571.3676	-0.0046
571.5608	-0.001
571.754	0.0054
571.9471	0.0005
572.1402	0.0075
572.3333	-0.0063
572.5264	-0.0031
572.7195	0.0005
572.9126	0.0057
573.1057	-0.0007
573.2987	0.0006
573.4917	0.0046
573.6847	-0.0063
573.8777	0.0074
574.0707	0.008
574.2636	-0.0058
574.4566	0.0014
574.6495	0.0118
574.8424	0.0002
575.0353	0.0007
575.2281	0.0109
575.421	0.0079
575.6138	-0.0019
575.8067	0.0032
575.9995	-0.0043
576.1923	0.0051
576.385	-0.0011
576.5778	0.0013
576.7706	-0.0007
576.9633	-0.0022
577.156	0.0072
577.3487	-0.0022
577.5414	-0.0004
577.734	-0.004
577.9267	0.0044
578.1193	-0.0067
578.3119	-0.0011
578.5045	-0.0034
578.6971	0.004
578.8897	0.0082
579.0822	-0.0022
579.2747	0.0029
579.4673	0.0008
579.6598	-0.0021
579.8522	-0.0044
580.0447	-0.0043
580.2372	-0.0024
580.4296	0.0052
580.622	0.0013
580.8144	0.0014
581.0068	0.005
581.1992	-0.0121
581.3915	-0.0032
581.5839	-0.0007
581.7762	-0.0062
581.9685	-0.0015
582.1608	0.0035
582.353	-0.0038
582.5453	0.0031
582.7375	0.0003
582.9298	0.007
583.122	0.0007
583.3142	0.0062
583.5063	0.0027
583.6985	-0.0007
583.8906	0.0046
584.0827	-0.0041
584.2749	-0.0008
584.4669	0.0048
584.659	0.0054
584.8511	0.0061
585.0431	-0.0015
585.2352	0.0032
585.4272	-0.0006
585.6192	0.0055
585.8111	0.0032
586.0031	0.0079
586.195	0.0011
586.387	0.0081
586.5789	0.0051
586.7708	0.0066
586.9627	0.0046
587.1545	-0.0042
587.3464	0.0025
587.5382	0.0032
587.73	0.0013
587.9218	0.0008
588.1136	-0.002
588.3053	0.0115
588.4971	-0.005
588.6888	-0.0058
588.8805	0.0067
589.0722	0.0117
589.2639	0.0036
589.4556	0.0014
589.6472	-0.0034
589.8389	-0.0004
590.0305	-0.0097
590.2221	0.0053
590.4137	-0.0043
590.6052	0.0055
590.7968	0.0051
590.9883	-0.0034
591.1798	-0.0002
591.3713	-0.0012
591.5628	0.0062
591.7543	0.0072
591.9458	0.0021
592.1372	0.0081
592.3286	0.0088
592.52	0.0093
592.7114	0.0037
592.9028	0.0004
593.0941	-0.0013
593.2855	0.004
593.4768	-0.0039
593.6681	-0.0014
593.8594	0.0024
594.0506	-0.0013
594.2419	0.0083
594.4331	0.0039
594.6244	0.0072
594.8156	-0.0017
595.0067	0.0048
595.1979	0.004
595.3891	0.0003
595.5802	-0.0034
595.7713	0.0035
595.9624	-0.0064
596.1535	0.0061
596.3446	-0.0031
596.5357	0.0041
596.7267	0.0074
596.9177	-0.001
597.1087	-0.0025
597.2997	-0.0017
597.4907	0.0068
597.6817	0.0011
597.8726	0.0015
598.0635	-0.0042
598.2544	0.0026
598.4453	0.002
598.6362	0.0013
598.827	-0.0008
599.0179	0.0095
599.2087	0.0036
599.3995	0.0121
599.5903	0.0069
599.7811	-0.0023
599.9718	0.0007
600.1626	0.0023
600.3533	-0.0011
600.544	0.0039
600.7347	0.0011
600.9254	-0.0007
601.116	-0.0084
601.3067	-0.0014
601.4973	0.0035
601.6879	0.0042
601.8785	-0.0082
602.0691	0.0072
602.2596	-0.0045
602.4502	0.0039
602.6407	0.0086
602.8312	0.0039
603.0217	-0.0042
603.2122	0.0073
603.4027	0.0004
603.5931	0.0035
603.7835	0.0047
603.9739	-0.0074
604.1643	-0.0048
604.3547	-0.0036
604.5451	0.0058
604.7354	0.0087
604.9257	0.0048
605.116	0.0064
605.3063	0.0069
605.4966	0.0079
605.6869	0.0032
605.8771	0.0048
606.0673	0.0067
606.2575	0.0073
606.4477	0.0018
606.6379	0.0048
606.8281	0.0016
607.0182	-0.003
607.2083	0.0086
607.3985	0.0037
607.5885	0.0005
607.7786	-0.0008
607.9687	0.0008
608.1587	0.0035
608.3488	0.0016
608.5388	-0.0039
608.7288	-0.0068
608.9187	-0.008
609.1087	-0.0057
609.2986	-0.0068
609.4886	0.0024
609.6785	0.0052
609.8684	0.0076
610.0582	0.0086
610.2481	0.0056
610.4379	-0.0023
610.6278	-0.0094
610.8176	0.0031
611.0074	-0.0057
611.1971	-0.0049
611.3869	0.0039
611.5766	-0.0024
611.7664	0.006
611.9561	0.0037
612.1458	0.004
612.3354	-0.0031
612.5251	0.0042
612.7147	-0.0012
612.9044	0.0142
613.094	-0.0035
613.2836	0.0024
613.4731	0.002
613.6627	0.0005
613.8522	0.0041
614.0417	0.0114
614.2313	-0.0009
614.4207	-0.012
614.6102	0.0046
614.7997	-0.0061
614.9891	0.0004
615.1785	0.0015
615.3679	-0.0055
615.5573	0.0026
615.7467	0.0002
615.9361	0.0031
616.1254	0.0002
616.3147	0.0009
616.504	0.0066
616.6933	0.0046
616.8826	0.0027
617.0718	0.0035
617.2611	-0.0003
617.4503	-0.0018
617.6395	-0.0061
617.8287	0.0024
618.0179	0.0049
618.207	0.0007
618.3961	-0.0014
618.5853	0.0011
618.7744	0.0122
618.9634	0.0106
619.1525	0.0111
619.3416	0.0053
619.5306	0.0085
619.7196	0.0079
619.9086	-0.0012
620.0976	0.0083
620.2866	0.0057
620.4755	0.0096
620.6645	0.0068
620.8534	0.0084
621.0423	0.0068
621.2312	0.0074
621.42	-0.0012
621.6089	-0.0004
621.7977	0.0039
621.9865	-0.0022
622.1753	0.0023
622.3641	0.0019
622.5529	0.0103
622.7416	0.0132
622.9303	0.0015
623.1191	0.012
623.3078	0.0013
623.4964	0.0006
623.6851	0.0061
623.8737	0.0041
624.0624	0.004
624.251	0.0057
624.4396	0.0097
624.6282	-0.0006
624.8167	0.004
625.0053	0.0018
625.1938	-0
625.3823	0.0031
625.5708	0.0039
625.7593	-0.001
625.9477	-0.0053
626.1362	0.0044
626.3246	0.0054
626.513	0.0103
626.7014	0.007
626.8898	-0.0039
627.0781	0.0081
627.2665	-0.0017
627.4548	0.0082
627.6431	-0.0011
627.8314	0.0057
628.0197	0.0029
628.2079	-0.0101
628.3962	-0.0045
628.5844	0.0004
628.7726	0.0026
628.9608	0.0013
629.1489	0.0042
629.3371	0.0121
629.5252	-0.006
629.7134	0.0077
629.9015	0.0013
630.0895	0.0023
630.2776	-0.0061
630.4657	0.0013
630.6537	0.0049
630.8417	-0.0005
631.0297	-0.0007
631.2177	-0.0035
631.4057	-0.0045
631.5936	0.0018
631.7815	0.0007
631.9695	-0.0007
632.1574	0.0052
632.3452	0.0137
632.5331	0.0022
632.7209	0.0049
632.9088	0.0097
633.0966	0.0111
633.2844	-0.0013
633.4722	0.0087
633.6599	0.0115
633.8477	0.0072
634.0354	0.0019
634.2231	0.0006
634.4108	0.0044
634.5985	0.0042
634.7861	-0.0055
634.9738	0.0071
635.1614	0.0066
635.349	-0.0001
635.5366	0.0034
635.7242	0.0005
635.9117	0.009
636.0993	0.0009
636.2868	0.0046
636.4743	-0.0051
636.6618	0.0074
636.8492	0.006
637.0367	0.0073
637.2241	0.003
637.4115	-0.0001
637.5989	-0.0001
637.7863	0.0037
637.9737	-0.0009
638.161	0.0038
638.3484	0.0089
638.5357	0.0021
638.723	-0.0047
638.9103	0.0062
639.0975	-0.0011
639.2848	0.0065
639.472	0.0042
639.6592	0.006
639.8464	0.0082
640.0336	0.0103
640.2208	0.0008
640.4079	0.0043
640.595	0.0055
640.7821	-0.0031
640.9692	0.0028
641.1563	0.0048
641.3434	0.0109
641.5304	0.0031
641.7174	0.0039
641.9044	0.003
642.0914	0.008
642.2784	0.0057
642.4653	0.0078
642.6523	0.0045
642.8392	-0.0002
643.0261	0.0065
643.213	-0.0052
643.3999	-0.0077
643.5867	-0.0051
643.7735	0.0044
643.9604	-0.0059
644.1472	0.0045
644.3339	0.0086
644.5207	0.0026
644.7075	0.0007
644.8942	0.0086
645.0809	0.0138
645.2676	0.0093
645.4543	0.0028
645.6409	0.0043
645.8276	-0.0037
646.0142	0.0044
646.2008	-0.0109
646.3874	-0.0019
646.574	0.0036
646.7605	-0.0023
646.9471	-0.01
647.1336	0.0011
647.3201	-0.0029
647.5066	0.0005
647.6931	0.0034
647.8795	0.0017
648.0659	0.0039
648.2524	0.0076
648.4388	-0.0027
648.6252	0.002
648.8115	0.0082
648.9979	-0.0034
649.1842	0.0001
649.3705	-0.0021
649.5568	0.0027
649.7431	0.008
649.9294	0.0005
650.1156	0.0096
650.3018	-0.0063
650.488	0.0078
650.6742	0.0173
650.8604	0.0013
651.0466	-0.0026
651.2327	0.0018
651.4188	0.0037
651.6049	0.0031
651.791	0.0053
651.9771	0.0102
652.1632	0.0066
652.3492	0.0004
652.5352	0.0049
652.7212	-0.003
652.9072	0.005
653.0932	-0.0029
653.2791	0.0027
653.465	0.0087
653.651	-0.0064
653.8369	0.0023
654.0227	-0.003
654.2086	0.009
654.3944	0.0132
654.5803	0.0005
654.7661	-0.0016
654.9519	0.0057
655.1377	-0.0017
655.3234	-0.0012
655.5092	0.0017
655.6949	-0.0035
655.8806	-0.0035
656.0663	0.0028
656.2519	-0.0002
656.4376	-0.0014
656.6232	0.004
656.8088	0.0002
656.9945	0.0011
657.18	0.004
657.3656	0.0017
657.5511	-0.0069
657.7367	-0.0041
657.9222	0.0028
658.1077	0.0048
658.2932	0.0047
658.4786	0.0013
658.6641	0.0017
658.8495	-0.0021
659.0349	-0.0013
659.2203	0.009
659.4057	0.0054
659.591	0.0017
659.7764	0.0014
659.9617	0.0059
660.147	-0.0033
660.3323	0.0173
660.5176	0.0158
660.7028	0.0093
660.888	0.008
661.0733	0.0026
661.2585	0.005
661.4436	0.0048
661.6288	-0.0013
661.8139	-0.0023
661.9991	0.0099
662.1842	-0.0047
662.3693	0.0021
662.5544	0.0044
662.7394	-0.0034
662.9245	0.0037
663.1095	0.0069
663.2945	0.0028
663.4795	0.0038
663.6644	0.0133
663.8494	0.0125
664.0343	0.0126
664.2193	-0.0037
664.4042	0.0088
664.589	-0.0073
664.7739	0.0041
664.9587	-0.0047
665.1436	-0.0006
665.3284	0.0069
665.5132	-0.0036
665.698	0.0054
665.8827	0.0097
666.0675	0.0093
666.2522	0.0001
666.4369	0.0088
666.6216	0.01
666.8063	0.0085
666.9909	0.0055
667.1756	0.0032
667.3602	0.0069
667.5448	0.0017
667.7294	0.0142
667.9139	0.0098
668.0985	0.0171
668.283	0.0034
668.4675	-0.0004
668.652	-0.0018
668.8365	0.0001
669.0209	0.0135
669.2054	0.0072
669.3898	0.0075
669.5742	0.0064
669.7586	0.0076
669.943	0.0082
670.1273	0.0094
670.3117	0.0104
670.496	0.0043
670.6803	0.0085
670.8646	0.0088
671.0488	0.0012
671.2331	0.0014
671.4173	0.0096
671.6015	0.006
671.7857	0.0056
671.9699	0.0069
672.1541	0.0065
672.3382	0.007
672.5223	0.0055
672.7064	0.0061
672.8905	0.0032
673.0746	0.0043
673.2587	0.0044
673.4427	0.0066
673.6267	0.0135
673.8107	0.0092
673.9947	0.0083
674.1787	0.0061
674.3626	0.0033
674.5465	0.0029
674.7304	0.0042
674.9143	0.0048
675.0982	0.0059
675.2821	-0.0049
675.4659	0.0085
675.6497	0.003
675.8335	0
676.0173	-0.0015
676.2011	0.0022
676.3849	0.001
676.5686	-0.0035
676.7523	0.0075
676.936	0.0014
677.1197	-0
677.3034	0.0024
677.487	0.0123
677.6706	0.0061
677.8542	0.0022
678.0378	0.0006
678.2214	-0.0029
678.405	-0.0007
678.5885	-0.0055
678.772	0.0005
678.9555	-0.0065
679.139	-0.0011
679.3225	0.0011
679.5059	-0.0031
679.6894	0.0021
679.8728	-0.0037
680.0562	-0.0047
680.2395	0.0009
680.4229	0.0021
680.6062	0.0097
680.7896	0.0012
680.9729	-0.0053
681.1562	0.0122
681.3394	0.0022
681.5227	-0.0053
681.7059	0.0012
681.8891	-0.0009
682.0723	0.0137
682.2555	0.0028
682.4387	-0.0007
682.6218	0.0018
682.805	-0.0003
682.9881	0.0028
683.1712	-0.004
683.3542	-0.002
683.5373	0.0017
683.7203	-0.0044
683.9034	-0.0038
684.0864	-0.0106
684.2694	0.0005
684.4523	0.0078
684.6353	-0.0078
684.8182	-0.0003
685.0011	-0.0114
685.184	0.005
685.3669	-0.0034
685.5498	0.0014
685.7326	0.0028
685.9154	-0.0034
686.0982	0.0029
686.281	0.0018
686.4638	-0.0004
686.6465	-0.0023
686.8293	0.0006
687.012	0.0035
687.1947	-0.0023
687.3774	0.0043
687.56	0.0007
687.7427	0.0132
687.9253	-0.0013
688.1079	-0.0019
688.2905	0.0095
688.4731	0.0017
688.6556	0.005
688.8382	-0.0069
689.0207	0.0068
689.2032	-0.0012
689.3857	-0.0047
689.5681	0.0075
689.7506	-0.0005
689.933	-0.0006
690.1154	-0.002
690.2978	-0.0033
690.4802	0.0037
690.6626	-0.0029
690.8449	0.0026
691.0272	0.0133
691.2095	-0.0061
691.3918	-0.0014
691.5741	0.0046
691.7563	-0.0028
691.9386	0.003
692.1208	0.0065
692.303	0.0003
692.4852	-0.001
692.6673	0.0091
692.8495	0.0037
693.0316	0.0075
693.2137	-0.0006
693.3958	0.0033
693.5778	0.0048
693.7599	0.0028
693.9419	-0.0025
694.1239	0.0046
694.3059	-0.0055
694.4879	0.0009
694.6699	0.0055
694.8518	-0.0034
695.0337	0.0005
695.2157	0.004
695.3975	0.0018
695.5794	0.0086
695.7613	0.0034
695.9431	0.0044
696.1249	0.0073
696.3067	0.0055
696.4885	0.0102
696.6703	-0.0017
696.852	0.0054
697.0337	0.0054
697.2154	-0.0004
697.3971	0.0041
697.5788	0.0014
697.7605	-0.0027
697.9421	0.0102
698.1237	0.0014
698.3053	0.0007
698.4869	-0.0045
698.6685	-0.0046
698.85	0.002
699.0315	0.0062
699.213	-0.0042
699.3945	0.0017
699.576	0.0075
699.7575	0.0054
699.9389	0.009
700.1203	-0.0003
700.3017	-0.0042
700.4831	-0.0091
700.6645	-0.0035
700.8458	0.0102
701.0271	-0.0081
701.2084	0.0051
701.3897	-0.0013
701.571	0.0099
701.7523	-0.0062
701.9335	0.0008
702.1147	-0.0004
702.2959	0.0055
702.4771	0.0068
702.6583	0.0075
702.8394	-0.0032
703.0205	-0.0004
703.2016	-0.0012
703.3827	0.0009
703.5638	0.0043
703.7449	0.0058
703.9259	0.0015
704.1069	-0.0104
704.2879	0.0018
704.4689	0.0017
704.6499	-0.0081
704.8308	-0.0071
705.0117	-0.001
705.1927	0.0003
705.3735	-0.0054
705.5544	-0.0058
705.7353	-0.006
705.9161	-0.01
706.0969	0.0006
706.2777	-0.0007
706.4585	0.0017
706.6393	-0.0026
706.82	0.0012
707.0007	0.0045
707.1815	0.0091
707.3621	0.0135
707.5428	0.0067
707.7235	0.0119
707.9041	0.009
708.0847	0.0017
708.2653	0.0049
708.4459	-0.0056
708.6265	0.0011
708.807	-0.0013
708.9875	0.0006
709.168	-0.0017
709.3485	-0.0035
709.529	-0.0012
709.7095	-0.0057
709.8899	-0.0026
710.0703	-0.0063
710.2507	-0.0024
710.4311	-0.0015
710.6115	-0.0117
710.7918	-0.0007
710.9721	-0.0004
711.1524	-0.0087
711.3327	-0.0016
711.513	0.0032
711.6932	-0.0081
711.8735	0.0112
712.0537	0.0016
712.2339	0.0056
712.4141	-0.0058
712.5942	-0.0001
712.7744	0.0005
712.9545	-0.0066
713.1346	-0.0021
713.3147	-0.0005
713.4947	-0.0081
713.6748	-0.0008
713.8548	-0.0088
714.0348	-0.0038
714.2148	-0.0041
714.3948	0.0114
714.5748	0.0006
714.7547	-0.001
714.9346	0.003
715.1145	-0.0079
715.2944	-0.0029
715.4743	-0.0054
715.6541	-0.0041
715.834	0.0027
716.0138	0.0027
716.1936	-0.001
716.3733	-0.0017
716.5531	0.01
716.7328	-0.0023
716.9126	0.0065
717.0923	0.0022
717.2719	0.0065
717.4516	0.0075
717.6312	0.0046
717.8109	-0.0018
717.9905	0.0125
718.1701	-0.009
718.3496	-0.0017
718.5292	0.0052
718.7087	-0.0049
718.8882	-0.0047
719.0677	0.0043
719.2472	-0.007
719.4267	0.0013
719.6061	-0.0017
719.7856	0.0075
719.965	0.0017
720.1443	-0.0053
720.3237	0.0146
720.5031	0.0035
720.6824	0.0093
720.8617	-0.0031
721.041	0.0042
721.2203	0.0069
721.3995	0.0009
721.5788	0.0021
721.758	0.0039
721.9372	-0.0007
722.1164	0.0078
722.2956	0.0052
722.4747	-0.0014
722.6538	-0.0012
722.8329	0.0143
723.012	0.009
723.1911	0.0106
723.3702	0.0101
723.5492	0.0109
723.7282	0.0024
723.9072	-0.0017
724.0862	0.0047
724.2652	-0.0029
724.4441	-0.0018
724.623	-0.0051
724.8019	0.0041
724.9808	0.0047
725.1597	-0.0052
725.3385	0.0066
725.5174	0.0047
725.6962	-0.0041
725.875	-0.0008
726.0538	0.0066
726.2325	0.0039
726.4112	0.0042
726.59	-0.0041
726.7687	-0.0036
726.9474	-0
727.126	-0.0096
727.3047	-0.0095
727.4833	-0.0004
727.6619	-0.0046
727.8405	-0.0048
728.0191	-0.0131
728.1976	0.0025
728.3762	0.0018
728.5547	-0.0033
728.7332	-0.0104
728.9116	0.0041
729.0901	-0.0051
729.2686	-0.0011
729.447	0.0021
729.6254	0.0006
729.8038	-0.0057
729.9821	-0.0082
730.1605	-0.0054
730.3388	-0.0037
730.5171	-0.001
730.6954	-0.0102
730.8737	0.0145
731.0519	0.0081
731.2302	0.0013
731.4084	0.0099
731.5866	0.013
731.7648	0.0109
731.9429	0.0107
732.1211	-0.0057
732.2992	0.0049
732.4773	-0.0001
732.6554	-0.0005
732.8335	-0.0018
733.0115	0.0046
733.1896	0.007
733.3676	-0.0053
733.5456	0.0056
733.7235	0.0114
733.9015	0.0045
734.0794	0.0017
734.2574	-0.0012
734.4353	0.0037
734.6131	0.0171
734.791	0.0074
734.9689	0.0048
735.1467	0.0052
735.3245	0.0038
735.5023	0.0099
735.68	0.0114
735.8578	0.0114
736.0355	-0.0053
736.2132	-0.0023
736.3909	0.0008
736.5686	-0.0069
736.7463	0.0029
736.9239	0.0065
737.1015	0.0006
737.2791	0.005
737.4567	0.0084
737.6343	-0.0026
737.8118	0.0089
737.9894	0.0089
738.1669	-0.0095
738.3444	-0.0031
738.5218	0.0003
738.6993	-0.004
738.8767	0.0012
739.0541	0.0045
739.2315	-0.0013
739.4089	-0.0027
739.5863	0.0106
739.7636	-0.0066
739.9409	0.004
740.1182	0.0011
740.2955	0.0066
740.4728	0.0099
740.65	0.0016
740.8272	0.0023
741.0044	-0.0096
741.1816	0.0036
741.3588	-0.0043
741.5359	-0.0071
741.7131	-0.0127
741.8902	0.0011
742.0673	-0.0014
742.2444	-0.0024
742.4214	0.0014
742.5985	-0.0005
742.7755	-0.0013
742.9525	-0.0179
743.1295	0.0035
743.3064	0.002
743.4834	0.0091
743.6603	-0.0071
743.8372	0.0005
744.0141	0.0029
744.191	0.0041
744.3678	-0.0004
744.5446	0.0077
744.7215	0.0081
744.8982	-0.0028
745.075	-0.0156
745.2518	-0.0018
745.4285	-0.0002
745.6052	-0.0029
745.7819	-0.0033
745.9586	0.0032
746.1353	-0.0065
746.3119	-0.0085
746.4885	-0.0031
746.6651	-0.0029
746.8417	0.0071
747.0183	-0.0103
747.1948	-0.0016
747.3714	-0.0035
747.5479	0.0037
747.7244	-0.0026
747.9008	0.0017
748.0773	0.001
748.2537	0.0001
748.4301	-0.0164
748.6065	-0.0037
748.7829	0.0118
748.9593	0.0044
749.1356	0.0018
749.3119	0.0095
749.4882	-0.0031
749.6645	0.0041
749.8408	-0.0088
750.017	-0.0083
750.1933	0.0031
750.3695	-0.0083
750.5457	0.007
750.7218	-0.0087
750.898	0.005
751.0741	-0.0029
751.2502	0.0084
751.4263	-0.0055
751.6024	-0.0056
751.7784	-0.0095
751.9545	-0.0014
752.1305	0.006
752.3065	-0.0027
752.4825	0.0046
752.6584	-0.007
752.8344	-0.0047
753.0103	-0.0026
753.1862	-0.0067
753.3621	-0.0014
753.5379	-0.0098
753.7138	-0.0049
753.8896	0.001
754.0654	0.0132
754.2412	0.0082
754.417	0.008
754.5927	-0.0069
754.7685	0.0002
754.9442	-0.0011
755.1199	0.0111
755.2956	0.0028
755.4712	0.0092
755.6469	0.0102
755.8225	0.0019
755.9981	-0.0009
756.1736	0.0061
756.3492	-0.0002
756.5248	-0.0029
756.7003	-0.0011
756.8758	0.004
757.0513	-0.0107
757.2267	-0.0093
757.4022	-0.0019
757.5776	-0.0117
757.753	0.0043
757.9284	-0.0009
758.1038	0.0065
758.2791	-0.0021
758.4545	-0.0093
758.6298	-0.0014
758.8051	0.0013
758.9803	-0.0046
759.1556	0.0002
759.3308	-0.0087
759.506	0.0054
759.6812	-0.0033
759.8564	0.0082
760.0316	-0.0005
760.2067	0.0072
760.3819	0.0055
760.557	0.0151
760.732	0.0039
760.9071	-0.0069
761.0821	-0.0054
761.2572	0.0074
761.4322	-0.0012
761.6072	-0.0058
761.7821	-0.0014
761.9571	-0.0064
762.132	-0.0089
762.3069	-0.0051
762.4818	-0.0065
762.6567	-0.0019
762.8316	-0.0035
763.0064	-0.0078
763.1812	-0.0074
763.356	-0.0098
763.5308	-0.0021
763.7055	-0.0034
763.8803	-0.0088
764.055	-0.0164
764.2297	-0.0034
764.4044	-0.005
764.579	-0.0021
764.7537	-0.0102
764.9283	0.005
765.1029	-0.0079
765.2775	0.0028
765.4521	-0.0016
765.6266	-0.0045
765.8011	-0.0059
765.9756	0.006
766.1501	0.0098
766.3246	0.0021
766.4991	-0.0065
766.6735	-0.0021
766.8479	-0.0016
767.0223	0.0058
767.1967	0.0056
767.371	0.0032
767.5454	0.002
767.7197	0.0041
767.894	-0.003
768.0683	-0.0036
768.2425	0.0029
768.4168	-0.0025
768.591	0.0074
768.7652	0.0072
768.9394	0.0009
769.1135	0.0041
769.2877	-0.0013
769.4618	0.0037
769.6359	-0
769.81	0.0005
769.984	0.0009
770.1581	-0.0121
770.3321	-0.0046
770.5061	-0.0053
770.6801	-0.0115
770.8541	0.0005
771.028	0.0057
771.202	-0.0135
771.3759	-0.0012
771.5498	-0.0122
771.7236	0.0079
771.8975	-0.007
772.0713	-0.001
772.2451	-0.0055
772.4189	0.0039
772.5927	0.0115
772.7665	-0.0007
772.9402	0.007
773.1139	0.0074
773.2876	-0.0068
773.4613	0.0105
773.635	-0.0035
773.8086	-0.0063
773.9822	0.0062
774.1558	0.0182
774.3294	-0.0128
774.503	0.0039
774.6765	0.0091
774.8501	0.009
775.0236	0.005
775.1971	0.0153
775.3705	0.0001
775.544	0.0159
775.7174	0.0013
775.8908	-0.004
776.0642	0.0028
776.2376	0.0054
776.4109	-0.0081
776.5843	0.004
776.7576	0.0062
776.9309	0.0225
777.1041	0.0222
777.2774	0.0172
777.4506	-0.0006
777.6238	0.0015
777.797	0.0047
777.9702	-0.0011
778.1434	-0.0001
778.3165	-0.0056
778.4896	-0.0084
778.6627	0.0126
778.8358	0.0038
779.0089	-0.0069
779.1819	-0.0094
779.3549	0.0098
779.5279	0.0076
779.7009	0.005
779.8739	-0.0073
780.0468	-0.0018
780.2197	0.0054
780.3926	0.005
780.5655	0.0052
780.7384	-0.0057
780.9112	-0.0033
781.0841	-0.0079
781.2569	-0.0035
781.4297	-0.0069
781.6024	0.0019
781.7752	0.0094
781.9479	0.0057
782.1206	-0.0008
782.2933	-0.0112
782.466	0.0083
782.6386	0.0021
782.8113	0.0104
782.9839	0.0122
783.1565	0.0127
783.329	0.0184
783.5016	0.0164
783.6741	0.012
783.8466	0.004
784.0191	0.0218
784.1916	0.0008
784.3641	0.0129
784.5365	0.0093
784.7089	-0.0025
784.8813	-0.0014
785.0537	-0.0072
785.2261	0.0116
785.3984	-0.0088
785.5707	-0.0023
785.743	0.0032
785.9153	0.0012
786.0876	0.0136
786.2598	-0.0056
786.432	0.0046
786.6042	-0.0033
786.7764	0.0132
786.9486	0.0071
787.1207	-0.0043
787.2928	0.0199
787.4649	0.0004
787.637	0.0107
787.8091	-0.0014
787.9811	-0.0047
788.1532	0.0031
788.3252	0.0154
788.4972	-0.0087
788.6691	0.0077
788.8411	0.0015
789.013	-0.0112
789.1849	0.0026
789.3568	-0.0021
789.5287	0.001
789.7005	-0.0014
789.8723	0.0001
790.0442	0.0254
790.2159	0.0064
790.3877	0.0058
790.5595	0.0022
790.7312	0.0168
790.9029	0.0064
791.0746	0.0214
791.2463	0.0028
791.4179	-0.0026
791.5896	-0.0074
791.7612	0.0083
791.9328	0.0051
792.1044	-0.0232
792.2759	-0.024
792.4474	-0.0146
792.619	0.0037
792.7905	0.017
792.9619	0.004
793.1334	-0.0039
793.3048	0.014
793.4762	0.0161
793.6476	0.0094
793.819	-0.017
793.9904	0.0024
794.1617	-0.0058
794.333	0.0041
794.5043	-0.0057
794.6756	0.0078
794.8469	-0.0095
795.0181	-0.0104
795.1893	-0.0035
795.3605	0.0138
795.5317	-0.0034
795.7029	0.0005
795.874	-0.0086
796.0452	0.0003
796.2163	-0.0078
796.3873	0.0103
796.5584	0.0147
796.7294	-0.0037
796.9005	0.0058
797.0715	0.0189
797.2425	-0.0052
797.4134	-0.0072
797.5844	0.0102
797.7553	-0.0032
797.9262	-0.0128
798.0971	0.0033
798.2679	-0.0127
798.4388	-0.0269
798.6096	0.0061
798.7804	-0.0047
798.9512	-0.0052
799.122	-0.0019
799.2927	-0.0044
799.4635	0.0075
799.6342	-0.0129
799.8049	-0.0173
799.9755	0.0002
800.1462	-0.0041
800.3168	0.0115
800.4874	-0.0029
800.658	0.0067
800.8286	0.0116
800.9991	0.0062
801.1696	0.0099
801.3402	0.0017
801.5106	-0.0113
801.6811	0.0194
801.8516	0.0071
802.022	0.0246
802.1924	0.0101
802.3628	0.0088
802.5332	0.0118
802.7035	0.0162
802.8739	-0.0015
803.0442	0.0111
803.2145	0.0177
803.3847	-0.0127
803.555	-0.0007
803.7252	-0.0068
803.8954	0.0009
804.0656	0.0007
804.2358	-0.0024
804.4059	0.0044
804.5761	-0.0066
804.7462	0.0057
804.9163	0.0017
805.0864	-0.0144
805.2564	-0.0166
805.4264	-0.0033
805.5965	-0.0047
805.7665	-0.0093
805.9364	-0.0089
806.1064	0.026
806.2763	-0.0057
806.4462	0.0154
806.6161	-0.0028
806.786	-0.0071
806.9559	-0.0043
807.1257	0.0106
807.2955	-0.002
807.4653	-0.0005
807.6351	-0.0222
807.8048	0.0111
807.9746	0.0127
808.1443	0.0092
808.314	0.0036
808.4837	-0.0024
808.6533	0.0077
808.8229	0.0426
808.9926	0.0065
809.1622	0.0161
809.3317	0.0022
809.5013	-0.001
809.6708	0.0054
809.8403	0.0067
810.0098	-0.011
810.1793	0.0157
810.3488	-0.0043
810.5182	-0.0147
810.6876	0.0061
810.857	0.0149
811.0264	0.0194
811.1958	0.038
811.3651	0.0154
811.5344	0.0024
811.7037	-0.0094
811.873	-0.0178
812.0422	0.0034
812.2115	-0.0138
812.3807	0.0014
812.5499	0.0068
812.7191	0.0067
812.8882	0.0153
813.0574	-0.0144
813.2265	-0.0052
813.3956	0.0073
813.5646	-0.0069
813.7337	0.0003
813.9027	0.0016
814.0718	0.0301
814.2407	0.0266
814.4097	-0.0218
814.5787	0.0038
814.7476	0.0158
814.9165	0.0093
815.0854	0.0035
815.2543	0.0108
815.4232	0.0064
815.592	0.0304
815.7608	0.0246
815.9296	0.0183
816.0984	0.0231
816.2671	0.0098
816.4359	0.0097
816.6046	0.0169
816.7733	0.0209
816.942	0.0131
817.1106	0.0231
817.2793	0.0451
817.4479	-0.0009
817.6165	0.0207
817.785	0.0099
817.9536	0.0066
818.1221	0.0094
818.2906	0.0042
818.4591	-0.0046
818.6276	-0.0034
818.7961	-0.0098
818.9645	0.0256
819.1329	0.0097
819.3013	0.0092
819.4697	0.0132
819.638	0.01
819.8064	0.0103
819.9747	0.0031
820.143	0.0267
820.3113	-0.0026
820.4795	0.0024
820.6477	0.0118
820.816	0.024
820.9842	-0.0004
821.1523	-0.0096
821.3205	0.0144
821.4886	0.0098
821.6567	0.0094
821.8248	0.0212
821.9929	0.0461
822.1609	0.0196
822.329	0.0205
822.497	0.023
822.665	-0
822.833	0.0054
823.0009	0.0106
823.1688	0.0211
823.3367	0.0224
823.5046	0.0077
823.6725	0.0184
823.8404	0.0285
824.0082	0.0159
824.176	0.0156
824.3438	-0.0075
824.5116	-0.0054
824.6793	0.024
824.847	-0.0025
825.0147	0.0051
825.1824	-0.0045
825.3501	0.0152
825.5177	-0.028
825.6854	-0.0115
825.853	0.0016
826.0206	-0.0005
826.1881	0.0069
826.3557	-0.0047
826.5232	0.0092
826.6907	-0.0129
826.8582	0.0027
827.0257	-0.0163
827.1931	-0.0059
827.3605	0.0293
827.528	-0.0056
827.6953	-0.0059
827.8627	-0.0223
828.03	0.0584
828.1974	-0.001
828.3647	-0.0207
828.532	-0.0155
828.6992	0.015
828.8665	0.0101
829.0337	0.0015
829.2009	0.0418
829.3681	-0.0036
829.5352	0.0186
829.7024	-0.0185
829.8695	-0.0198
830.0366	0.0279
830.2037	0.0097
830.3707	0.0264
830.5378	-0.0059
830.7048	0.028
830.8718	-0.0081
831.0388	-0.0035
831.2057	0.0201
831.3727	0.0262
831.5396	-0.0151
831.7065	-0.0153
831.8734	-0.0011
832.0402	-0.0249
832.2071	-0.004
832.3739	-0.016
832.5407	-0.0006
832.7075	-0.005
832.8742	-0.0393
833.041	0.0006
833.2077	0.0206
833.3744	0.0071
833.541	0.0036
833.7077	-0.0081
833.8743	-0.0186
834.0409	-0.0197
834.2075	-0.0144
834.3741	-0.0309
834.5407	0.0316
834.7072	-0.0038
834.8737	-0.0066
835.0402	-0.0255
835.2067	0.0126
835.3731	-0.0073
835.5395	-0.0039
835.706	0.0328
835.8723	-0.0163
836.0387	0.0561
836.2051	0.043
836.3714	0.0054
836.5377	0.041
836.704	-0.0618
836.8703	-0.0255
837.0365	-0.0215
837.2027	-0.0076
837.3689	-0.0099
837.5351	0.0075
837.7013	-0.0151
837.8674	-0.0345
838.0335	-0.0591
838.1997	-0.0065
838.3657	-0.0562
838.5318	-0.0476
838.6978	0.0236
838.8639	0.0646
839.0299	-0.0252
839.1958	0.0585
839.3618	-0.0201
839.5277	-0.016
839.6937	-0.0218
839.8596	-0.0256
840.0254	-0.0034
840.1913	-0.0349
840.3571	0.0079
840.523	-0.0148
840.6888	-0.022
840.8545	-0.037
841.0203	0.0106
841.186	-0.0009
841.3517	0.0026
841.5174	0.015
841.6831	-0.0371
841.8488	0.0026
842.0144	-0.0162
842.18	0.018
842.3456	0.0422
842.5112	-0.0444
842.6767	-0.0155
842.8422	0.0075
843.0077	0.002
843.1732	0.0117
843.3387	-0.0453
843.5042	-0.0359
843.6696	-0.0371
843.835	-0.017
844.0004	-0.0011
844.1657	-0.0139
844.3311	-0.0814
844.4964	-0.079
844.6617	-0.0364
844.827	-0.0183
844.9923	-0.0136
845.1575	-0.0095
845.3227	-0.0081
845.4879	0.001
845.6531	0.0191
845.8183	-0.0546
845.9834	0.0164
846.1485	-0.0542
846.3136	0.0383
846.4787	-0.0885
846.6438	0.0795
846.8088	-0.0708
846.9738	-0.0647
847.1388	-0.0443
847.3038	-0.0364
847.4687	-0.1414
847.6337	-0.0129
847.7986	-0.049
847.9635	-0.0117
848.1284	-0.0109
848.2932	0.0108
848.458	-0.0863
848.6228	0.033
848.7876	0.0489
848.9524	-0.052
849.1172	-0.0173
849.2819	0.0424
849.4466	-0.0362
849.6113	-0.1255
849.7759	-0.0563
849.9406	-0.0332
850.1052	0.0276
850.2698	-0.0241
850.4344	-0.0673
850.599	-0.0362
850.7635	0.0629
850.928	-0.0953
851.0925	-0.0676
851.257	-0.0141
851.4215	0.0168
851.5859	-0.0908
851.7503	0.0824
851.9147	0.0467
852.0791	-0.122
852.2434	0.0877
852.4078	0.0049
852.5721	0.0386
852.7364	-0.0609
852.9007	-0.1478
853.0649	0.0475
853.2291	-0.0518
853.3934	-0.0356
853.5575	-0.0546
853.7217	-0.1985
853.8859	-0.2201
854.05	-0.1075
854.2141	-0.1217
854.3782	-0.061
854.5423	-0.1276
854.7063	0.0499
854.8703	-0.0852
855.0343	-0.0393
855.1983	-0.2168
855.3623	0.1932
855.5262	-0.0084
855.6901	-0.033
855.854	0.1232
856.0179	-0.1143
856.1818	0.0724
856.3456	-0.1553
856.5094	-0.0994
856.6732	-0.1327
856.837	-0.0707
857.0008	0.0473
857.1645	-0.0267
857.3282	-0.0893
857.4919	0.1118
857.6556	0.0249
857.8192	-0.0671
857.9828	-0.0223
858.1465	0.2449
858.31	0.0321
858.4736	-0.0004
858.6372	-0.077
858.8007	-0.1761
858.9642	0.0135
859.1277	-0.0063
859.2911	0.0282
859.4546	-0.0087
859.618	-0.3789
859.7814	-0.0799
859.9448	-0.0571
860.1081	-0.2034
860.2715	0.1135
860.4348	0.2226
860.5981	-0.1761
860.7614	0.0781
860.9246	-0.0006
861.0879	-0.0479
861.2511	-0.0183
861.4143	-0.0866
861.5774	0.1807
861.7406	-0.2058
861.9037	-0.042
862.0668	-0.0072
862.2299	0.2447
862.393	-0.4999
862.556	0.1393
862.7191	-0.4041
862.8821	-0.1435
863.0451	0.0163
863.208	0.0671
863.371	-0.0549
863.5339	-0.1195
863.6968	0.0805
863.8597	0.4935
864.0225	0.0633
864.1854	-0.3183
864.3482	0.0111
864.511	0.1687
864.6737	-0.0442
864.8365	-0.0942
864.9992	-0.2871
865.1619	-0.5865
865.3246	-0.0551
865.4873	-0.0053
865.65	-0.2847
865.8126	-0.2186
865.9752	-0.0883
866.1378	-0.0465
866.3004	1.3968
866.4629	0.1308
866.6254	-0.1577
866.7879	0.0089
866.9504	-0.1317
867.1129	-0
867.2753	0.1379
867.4377	0.0847
867.6001	-0.5494
867.7625	0.0924
867.9249	-0.5071
868.0872	0.085
868.2495	1.2299
868.4118	-0.1761
868.5741	-0.5508
868.7363	-0.3563
868.8986	0.0225
869.0608	-0.244
869.223	0.3692
869.3851	-0
869.5473	-0
869.7094	0.3882
869.8715	-0
870.0336	-0
870.1957	-0.5146
870.3577	-0.8068
870.5197	-0.1337
870.6817	-0.2337
870.8437	-0.1317
871.0057	-0.7219
871.1676	-0.4735
871.3295	-0.002
871.4914	-0.2051
871.6533	-0.1051
871.8151	-0.447
871.977	-0
872.1388	-0
872.3006	-0
872.4623	-0
872.6241	-0
872.7858	0.2461
872.9475	-0.3134
873.1092	-0.1898
873.2709	-0.3113
873.4325	0.0115
873.5941	-0.4031
873.7557	-0
873.9173	-0
874.0789	-0.5114
874.2404	-0.6254
874.4019	0.092
874.5634	-0.2464
874.7249	-0.1791
874.8863	0.0981
875.0478	0.6765
875.2092	-0
875.3706	0.0858
875.5319	0.0848
875.6933	-0
875.8546	-0.1528
876.0159	-0
876.1772	-0
876.3385	-0
876.4997	0.1599
876.6609	-0.7532
876.8221	0.4607
876.9833	-0
877.1445	-0
877.3056	-0.1053
877.4667	-0.3592
877.6278	-0
877.7889	-0.859
877.9499	-0
878.111	-0.7816
878.272	-0
878.433	-0
878.5939	-0
878.7549	-0.0973
878.9158	-0.9519
879.0767	0.5327
879.2376	-0
879.3984	-0.1829
879.5593	-0
879.7201	0.2519
879.8809	-0.6763
880.0417	-0.3276
880.2024	0.0376
880.3632	-0
880.5239	0.4045
880.6846	0.5229
880.8452	-2.5993
881.0059	-1.5065
881.1665	0.4488
881.3271	-0
881.4877	-0.787
881.6483	-0.7082
881.8088	-0.4889
881.9693	-0
882.1298	-0
882.2903	-0
