Data from MonoPyChalIsomerACN10uM360nmA_Absorbance_13-57-27-404.txt Node
Date: Fri Jul 05 13:57:27 BST 2024
User: LASERRRRR
Spectrometer: FLMT03099
Trigger mode: 0
Integration Time (sec): 1.000000E-1
Scans to average: 1
Electric dark correction enabled: true
Nonlinearity correction enabled: false
Boxcar width: 0
XAxis mode: Wavelengths
Number of Pixels in Spectrum: 3648
>>>>>Begin Spectral Data<<<<<
179.3399	0.0848
179.5586	0.0848
179.7771	0.0848
179.9957	-0.06
180.2143	-0
180.4329	-0.1761
180.6514	-0
180.8699	-0
181.0885	-0.1191
181.307	0.3503
181.5255	-0.6049
181.744	-0.2165
181.9625	-0
182.181	-0
182.3994	0.5672
182.6179	1.8016
182.8363	0.202
183.0547	-0.353
183.2732	0.0266
183.4916	0.0154
183.71	0.2696
183.9284	-0.0276
184.1467	0.135
184.3651	0.0527
184.5835	0.0705
184.8018	-0.0089
185.0201	0.8802
185.2385	0.1327
185.4568	0.002
185.6751	0.107
185.8934	0.5035
186.1117	0.0931
186.3299	0.0996
186.5482	0.2413
186.7664	-0.0391
186.9847	-0.0698
187.2029	0.0498
187.4211	0.0175
187.6393	0.0712
187.8575	-0.1346
188.0757	0.169
188.2939	0.1105
188.512	1.4907
188.7302	0.0458
188.9483	0.1732
189.1665	0.141
189.3846	-0.1718
189.6027	-0.0286
189.8208	0.3262
190.0389	0.2158
190.257	0.1089
190.475	0.0614
190.6931	0.3661
190.9111	0.2641
191.1292	0.1831
191.3472	0.4146
191.5652	0.4146
191.7832	0.2296
192.0012	0.9487
192.2192	0.3693
192.4371	0.3675
192.6551	0.449
192.873	0.3706
193.091	0.4171
193.3089	0.5172
193.5268	0.4068
193.7447	0.5429
193.9626	0.4534
194.1805	0.7039
194.3984	0.8516
194.6162	0.5614
194.8341	0.4162
195.0519	0.6631
195.2697	0.6759
195.4875	0.5261
195.7054	0.5494
195.9231	0.5111
196.1409	0.64
196.3587	0.6276
196.5765	0.6293
196.7942	0.5431
197.012	0.5637
197.2297	0.5848
197.4474	0.7025
197.6651	0.4289
197.8828	0.6289
198.1005	0.6207
198.3182	0.4899
198.5358	0.9107
198.7535	0.6295
198.9711	0.4895
199.1888	0.6802
199.4064	0.6949
199.624	0.6154
199.8416	0.5594
200.0592	0.6719
200.2767	0.6325
200.4943	0.769
200.7119	0.5743
200.9294	0.6357
201.1469	0.5541
201.3645	0.6109
201.582	0.655
201.7995	0.6108
202.017	0.6604
202.2344	0.6239
202.4519	0.7267
202.6694	0.6502
202.8868	0.5514
203.1042	0.6679
203.3217	0.676
203.5391	0.6657
203.7565	0.5456
203.9739	0.6066
204.1913	0.605
204.4086	0.7394
204.626	0.6256
204.8433	0.6311
205.0607	0.6031
205.278	0.6353
205.4953	0.5913
205.7126	0.6323
205.9299	0.6941
206.1472	0.6085
206.3644	0.6833
206.5817	0.5929
206.7989	0.7331
207.0162	0.6348
207.2334	0.6891
207.4506	0.6581
207.6678	0.5412
207.885	0.5714
208.1022	0.7133
208.3194	0.5972
208.5365	0.5823
208.7537	0.5443
208.9708	0.6247
209.1879	0.63
209.405	0.7188
209.6222	0.6425
209.8392	0.6004
210.0563	0.6281
210.2734	0.6616
210.4905	0.6833
210.7075	0.6465
210.9245	0.561
211.1416	0.7198
211.3586	0.6327
211.5756	0.5712
211.7926	0.6149
212.0096	0.5915
212.2265	0.5383
212.4435	0.5627
212.6604	0.5442
212.8774	0.5723
213.0943	0.582
213.3112	0.561
213.5281	0.538
213.745	0.4643
213.9619	0.5163
214.1788	0.4774
214.3956	0.4659
214.6125	0.4751
214.8293	0.4467
215.0461	0.4721
215.2629	0.4348
215.4798	0.4539
215.6965	0.4027
215.9133	0.4242
216.1301	0.4288
216.3469	0.4401
216.5636	0.4158
216.7803	0.3639
216.9971	0.3972
217.2138	0.3859
217.4305	0.3775
217.6472	0.3469
217.8639	0.3963
218.0805	0.3165
218.2972	0.3181
218.5138	0.3376
218.7305	0.3276
218.9471	0.314
219.1637	0.2994
219.3803	0.2888
219.5969	0.2778
219.8135	0.2485
220.0301	0.2824
220.2466	0.2571
220.4632	0.2537
220.6797	0.2379
220.8962	0.2517
221.1127	0.2643
221.3292	0.2503
221.5457	0.2403
221.7622	0.2417
221.9787	0.26
222.1951	0.2283
222.4116	0.2548
222.628	0.2704
222.8444	0.2683
223.0608	0.2645
223.2772	0.2789
223.4936	0.2801
223.71	0.2546
223.9264	0.276
224.1427	0.2558
224.3591	0.2446
224.5754	0.2545
224.7917	0.2726
225.008	0.2614
225.2243	0.2721
225.4406	0.2699
225.6569	0.2697
225.8732	0.2529
226.0894	0.2655
226.3057	0.2725
226.5219	0.2844
226.7381	0.2634
226.9543	0.287
227.1705	0.2894
227.3867	0.2829
227.6029	0.3099
227.8191	0.291
228.0352	0.3157
228.2513	0.3091
228.4675	0.3145
228.6836	0.3241
228.8997	0.3148
229.1158	0.3232
229.3319	0.3132
229.548	0.331
229.764	0.3285
229.9801	0.3037
230.1961	0.3236
230.4121	0.3435
230.6282	0.3532
230.8442	0.319
231.0602	0.3523
231.2761	0.3653
231.4921	0.3481
231.7081	0.3341
231.924	0.3576
232.14	0.3656
232.3559	0.3304
232.5718	0.3757
232.7877	0.3687
233.0036	0.3658
233.2195	0.3514
233.4353	0.3715
233.6512	0.3516
233.867	0.3725
234.0829	0.3606
234.2987	0.3634
234.5145	0.3847
234.7303	0.3646
234.9461	0.4041
235.1619	0.3863
235.3776	0.3909
235.5934	0.3839
235.8091	0.3696
236.0249	0.375
236.2406	0.3875
236.4563	0.4011
236.672	0.3808
236.8877	0.4031
237.1034	0.3911
237.319	0.3834
237.5347	0.4139
237.7503	0.3811
237.966	0.4126
238.1816	0.4029
238.3972	0.4099
238.6128	0.3917
238.8284	0.4026
239.0439	0.4072
239.2595	0.4235
239.475	0.432
239.6906	0.4138
239.9061	0.4068
240.1216	0.41
240.3371	0.4086
240.5526	0.3944
240.7681	0.3928
240.9836	0.3835
241.199	0.39
241.4145	0.3837
241.6299	0.3787
241.8453	0.3813
242.0607	0.3887
242.2761	0.3622
242.4915	0.367
242.7069	0.3456
242.9223	0.3685
243.1376	0.348
243.353	0.3638
243.5683	0.3432
243.7836	0.3259
243.9989	0.3287
244.2142	0.3276
244.4295	0.3116
244.6448	0.3069
244.86	0.3058
245.0753	0.2929
245.2905	0.281
245.5057	0.2697
245.721	0.2638
245.9362	0.2718
246.1514	0.2625
246.3665	0.2594
246.5817	0.2694
246.7969	0.2445
247.012	0.2437
247.2271	0.2354
247.4423	0.2461
247.6574	0.2476
247.8725	0.235
248.0876	0.2174
248.3026	0.2292
248.5177	0.2246
248.7328	0.2078
248.9478	0.207
249.1628	0.2234
249.3779	0.2156
249.5929	0.2028
249.8079	0.22
250.0228	0.2039
250.2378	0.1862
250.4528	0.2016
250.6677	0.1935
250.8827	0.202
251.0976	0.1867
251.3125	0.1966
251.5274	0.1793
251.7423	0.1959
251.9572	0.1793
252.172	0.1827
252.3869	0.1916
252.6017	0.1812
252.8166	0.175
253.0314	0.1664
253.2462	0.1632
253.461	0.1896
253.6758	0.1632
253.8906	0.1775
254.1053	0.1615
254.3201	0.1714
254.5348	0.1819
254.7496	0.1866
254.9643	0.16
255.179	0.1585
255.3937	0.162
255.6083	0.162
255.823	0.1701
256.0377	0.1703
256.2523	0.1754
256.467	0.147
256.6816	0.1827
256.8962	0.1602
257.1108	0.1565
257.3254	0.1782
257.54	0.1661
257.7545	0.153
257.9691	0.1617
258.1836	0.1587
258.3981	0.1689
258.6127	0.1805
258.8272	0.1622
259.0417	0.1641
259.2561	0.1583
259.4706	0.1635
259.6851	0.1617
259.8995	0.1646
260.114	0.1617
260.3284	0.1694
260.5428	0.1595
260.7572	0.1603
260.9716	0.1713
261.186	0.1477
261.4003	0.1657
261.6147	0.1654
261.829	0.1596
262.0433	0.1625
262.2577	0.1627
262.472	0.1648
262.6863	0.1645
262.9005	0.1729
263.1148	0.1564
263.3291	0.1446
263.5433	0.1591
263.7576	0.1644
263.9718	0.1655
264.186	0.1685
264.4002	0.1657
264.6144	0.1595
264.8286	0.1678
265.0427	0.1595
265.2569	0.1605
265.471	0.1666
265.6851	0.1601
265.8993	0.1613
266.1134	0.1415
266.3275	0.1576
266.5415	0.1528
266.7556	0.1568
266.9697	0.1554
267.1837	0.1672
267.3978	0.1656
267.6118	0.1682
267.8258	0.1705
268.0398	0.1523
268.2538	0.1638
268.4677	0.165
268.6817	0.1547
268.8957	0.1498
269.1096	0.1601
269.3235	0.1608
269.5374	0.1624
269.7514	0.1555
269.9652	0.1422
270.1791	0.152
270.393	0.1546
270.6068	0.1526
270.8207	0.1277
271.0345	0.1504
271.2483	0.1509
271.4622	0.1498
271.676	0.1487
271.8897	0.1448
272.1035	0.1476
272.3173	0.1406
272.531	0.1407
272.7448	0.1434
272.9585	0.1389
273.1722	0.1379
273.3859	0.1462
273.5996	0.1367
273.8133	0.1477
274.0269	0.1317
274.2406	0.1356
274.4542	0.1522
274.6679	0.1313
274.8815	0.1424
275.0951	0.1485
275.3087	0.1526
275.5223	0.1625
275.7358	0.1486
275.9494	0.152
276.1629	0.1385
276.3765	0.1465
276.59	0.1326
276.8035	0.1433
277.017	0.144
277.2305	0.1365
277.444	0.1492
277.6574	0.1433
277.8709	0.1559
278.0843	0.1411
278.2978	0.1404
278.5112	0.1498
278.7246	0.1469
278.938	0.1545
279.1513	0.1434
279.3647	0.1438
279.5781	0.1403
279.7914	0.1376
280.0047	0.1529
280.2181	0.1586
280.4314	0.1543
280.6447	0.1585
280.8579	0.1499
281.0712	0.1573
281.2845	0.1585
281.4977	0.1571
281.711	0.1535
281.9242	0.1531
282.1374	0.157
282.3506	0.1453
282.5638	0.1546
282.7769	0.153
282.9901	0.1511
283.2033	0.1645
283.4164	0.1654
283.6295	0.1514
283.8426	0.1609
284.0557	0.1533
284.2688	0.1574
284.4819	0.1549
284.695	0.1475
284.908	0.1677
285.1211	0.148
285.3341	0.1537
285.5471	0.1648
285.7601	0.1525
285.9731	0.1516
286.1861	0.1541
286.3991	0.164
286.612	0.1561
286.825	0.1637
287.0379	0.1705
287.2508	0.1501
287.4637	0.1678
287.6766	0.1489
287.8895	0.1674
288.1024	0.1786
288.3152	0.1732
288.5281	0.1572
288.7409	0.172
288.9538	0.1647
289.1666	0.1592
289.3794	0.1573
289.5922	0.1643
289.8049	0.171
290.0177	0.1725
290.2304	0.1634
290.4432	0.1718
290.6559	0.1708
290.8686	0.1746
291.0813	0.1643
291.294	0.1563
291.5067	0.164
291.7194	0.156
291.932	0.1865
292.1447	0.1738
292.3573	0.1464
292.5699	0.1631
292.7825	0.1641
292.9951	0.1727
293.2077	0.1609
293.4203	0.1693
293.6328	0.1594
293.8454	0.1643
294.0579	0.1632
294.2704	0.1492
294.4829	0.1623
294.6954	0.1594
294.9079	0.1621
295.1204	0.1662
295.3328	0.1679
295.5453	0.1705
295.7577	0.1623
295.9701	0.1538
296.1825	0.1596
296.3949	0.1542
296.6073	0.1496
296.8197	0.1614
297.0321	0.1811
297.2444	0.1545
297.4567	0.1674
297.6691	0.1629
297.8814	0.1587
298.0937	0.1597
298.306	0.1637
298.5182	0.1776
298.7305	0.1673
298.9428	0.1603
299.155	0.1715
299.3672	0.1705
299.5794	0.1539
299.7916	0.1661
300.0038	0.1671
300.216	0.1673
300.4282	0.1662
300.6403	0.1593
300.8525	0.1694
301.0646	0.1565
301.2767	0.1669
301.4888	0.1448
301.7009	0.1696
301.913	0.1638
302.125	0.171
302.3371	0.1631
302.5491	0.1618
302.7612	0.1643
302.9732	0.1538
303.1852	0.1666
303.3972	0.1563
303.6092	0.1594
303.8211	0.1595
304.0331	0.1601
304.245	0.1596
304.457	0.1546
304.6689	0.1494
304.8808	0.1677
305.0927	0.1424
305.3046	0.1516
305.5164	0.1596
305.7283	0.1475
305.9401	0.1493
306.152	0.1395
306.3638	0.1498
306.5756	0.1385
306.7874	0.1501
306.9992	0.1461
307.2109	0.1452
307.4227	0.131
307.6344	0.1398
307.8462	0.1315
308.0579	0.1393
308.2696	0.1339
308.4813	0.1323
308.693	0.1222
308.9046	0.1373
309.1163	0.1216
309.328	0.1268
309.5396	0.1249
309.7512	0.1118
309.9628	0.1209
310.1744	0.1241
310.386	0.1109
310.5976	0.1223
310.8091	0.11
311.0207	0.1186
311.2322	0.1184
311.4437	0.1067
311.6552	0.119
311.8667	0.1134
312.0782	0.1058
312.2897	0.1014
312.5012	0.1126
312.7126	0.0997
312.924	0.0996
313.1355	0.1122
313.3469	0.1113
313.5583	0.1038
313.7696	0.1121
313.981	0.1084
314.1924	0.1099
314.4037	0.0996
314.6151	0.1127
314.8264	0.1005
315.0377	0.0904
315.249	0.1038
315.4603	0.1075
315.6716	0.109
315.8828	0.0993
316.0941	0.1035
316.3053	0.0934
316.5165	0.0945
316.7277	0.0879
316.9389	0.1029
317.1501	0.0948
317.3613	0.1001
317.5724	0.0953
317.7836	0.1001
317.9947	0.0913
318.2058	0.1073
318.417	0.0896
318.6281	0.079
318.8391	0.0899
319.0502	0.0873
319.2613	0.1059
319.4723	0.0933
319.6834	0.1068
319.8944	0.0919
320.1054	0.095
320.3164	0.1064
320.5274	0.0944
320.7383	0.0966
320.9493	0.0968
321.1602	0.1004
321.3712	0.0904
321.5821	0.1015
321.793	0.1003
322.0039	0.0957
322.2148	0.0902
322.4257	0.1077
322.6365	0.1009
322.8474	0.1033
323.0582	0.0951
323.269	0.0997
323.4798	0.1035
323.6906	0.0898
323.9014	0.1024
324.1122	0.1006
324.3229	0.0972
324.5337	0.0984
324.7444	0.0945
324.9551	0.1115
325.1658	0.1125
325.3765	0.1097
325.5872	0.1049
325.7979	0.098
326.0085	0.105
326.2192	0.0993
326.4298	0.1028
326.6404	0.1094
326.851	0.0956
327.0616	0.0914
327.2722	0.0995
327.4828	0.1087
327.6933	0.1
327.9039	0.0986
328.1144	0.1053
328.3249	0.1123
328.5354	0.0859
328.7459	0.1073
328.9564	0.0959
329.1669	0.1044
329.3773	0.1061
329.5878	0.108
329.7982	0.0936
330.0086	0.1044
330.219	0.1082
330.4294	0.1019
330.6398	0.1066
330.8502	0.1042
331.0605	0.1139
331.2708	0.1063
331.4812	0.1009
331.6915	0.1108
331.9018	0.1056
332.1121	0.0933
332.3224	0.1087
332.5326	0.0982
332.7429	0.1113
332.9531	0.1152
333.1633	0.1196
333.3735	0.106
333.5837	0.1096
333.7939	0.0979
334.0041	0.1206
334.2143	0.1175
334.4244	0.1056
334.6346	0.0933
334.8447	0.1224
335.0548	0.1086
335.2649	0.1009
335.475	0.1204
335.685	0.1028
335.8951	0.1224
336.1051	0.1097
336.3152	0.115
336.5252	0.1043
336.7352	0.1145
336.9452	0.1092
337.1552	0.1129
337.3652	0.1042
337.5751	0.1127
337.7851	0.111
337.995	0.1023
338.2049	0.1139
338.4148	0.1179
338.6247	0.1155
338.8346	0.1158
339.0445	0.1068
339.2543	0.108
339.4642	0.1153
339.674	0.1081
339.8838	0.1213
340.0936	0.1113
340.3034	0.1346
340.5132	0.1216
340.7229	0.1283
340.9327	0.1153
341.1424	0.1135
341.3522	0.1268
341.5619	0.1155
341.7716	0.1076
341.9813	0.1253
342.1909	0.1146
342.4006	0.1213
342.6102	0.1308
342.8199	0.1196
343.0295	0.1225
343.2391	0.1284
343.4487	0.1224
343.6583	0.1088
343.8679	0.1246
344.0774	0.13
344.287	0.1192
344.4965	0.1261
344.706	0.1248
344.9155	0.114
345.125	0.1347
345.3345	0.1242
345.544	0.1168
345.7534	0.131
345.9629	0.1159
346.1723	0.1229
346.3817	0.1153
346.5911	0.121
346.8005	0.1234
347.0099	0.1243
347.2193	0.1376
347.4286	0.1247
347.638	0.1312
347.8473	0.1351
348.0566	0.1329
348.2659	0.1398
348.4752	0.1391
348.6845	0.1239
348.8937	0.1278
349.103	0.144
349.3122	0.1375
349.5214	0.14
349.7306	0.1355
349.9398	0.1402
350.149	0.1416
350.3582	0.1321
350.5674	0.1524
350.7765	0.1431
350.9856	0.1399
351.1948	0.1362
351.4039	0.1255
351.613	0.1246
351.822	0.149
352.0311	0.1394
352.2402	0.1365
352.4492	0.1458
352.6582	0.1485
352.8672	0.1394
353.0762	0.1588
353.2852	0.1529
353.4942	0.1291
353.7032	0.1447
353.9121	0.1554
354.1211	0.1394
354.33	0.1548
354.5389	0.1442
354.7478	0.1544
354.9567	0.1523
355.1655	0.1388
355.3744	0.1664
355.5833	0.1697
355.7921	0.1624
356.0009	0.1559
356.2097	0.1696
356.4185	0.1685
356.6273	0.1672
356.8361	0.165
357.0448	0.1503
357.2536	0.1431
357.4623	0.1589
357.671	0.163
357.8797	0.1697
358.0884	0.1673
358.2971	0.155
358.5057	0.1719
358.7144	0.1655
358.923	0.155
359.1316	0.1731
359.3402	0.159
359.5488	0.1657
359.7574	0.1585
359.966	0.1775
360.1746	0.1649
360.3831	0.1685
360.5916	0.1682
360.8002	0.1617
361.0087	0.1798
361.2172	0.1729
361.4256	0.1761
361.6341	0.1681
361.8426	0.1865
362.051	0.1917
362.2594	0.1828
362.4678	0.18
362.6762	0.1983
362.8846	0.1992
363.093	0.1752
363.3014	0.1802
363.5097	0.1647
363.718	0.1898
363.9264	0.1831
364.1347	0.1752
364.343	0.1954
364.5513	0.1952
364.7595	0.1957
364.9678	0.1986
365.176	0.2003
365.3842	0.1921
365.5925	0.192
365.8007	0.1941
366.0089	0.1918
366.217	0.1857
366.4252	0.2057
366.6333	0.1991
366.8415	0.1985
367.0496	0.1895
367.2577	0.2065
367.4658	0.2157
367.6739	0.2003
367.882	0.2169
368.09	0.2044
368.2981	0.2167
368.5061	0.203
368.7141	0.2176
368.9221	0.2128
369.1301	0.2167
369.3381	0.2126
369.5461	0.2089
369.754	0.2109
369.962	0.219
370.1699	0.214
370.3778	0.2257
370.5857	0.2007
370.7936	0.2136
371.0015	0.2105
371.2093	0.2129
371.4172	0.2133
371.625	0.1948
371.8328	0.2089
372.0406	0.21
372.2484	0.2223
372.4562	0.2293
372.664	0.2173
372.8717	0.232
373.0795	0.2033
373.2872	0.2163
373.4949	0.2269
373.7026	0.2274
373.9103	0.2236
374.118	0.2245
374.3256	0.2299
374.5333	0.2332
374.7409	0.22
374.9485	0.2313
375.1561	0.2321
375.3637	0.2222
375.5713	0.2157
375.7789	0.2288
375.9864	0.2233
376.194	0.2261
376.4015	0.2546
376.609	0.2246
376.8165	0.2343
377.024	0.2382
377.2315	0.2253
377.4389	0.2371
377.6464	0.2438
377.8538	0.2449
378.0612	0.2283
378.2686	0.2558
378.476	0.2502
378.6834	0.2262
378.8908	0.2475
379.0981	0.2477
379.3055	0.2409
379.5128	0.2307
379.7201	0.2518
379.9274	0.2272
380.1347	0.2473
380.342	0.2562
380.5492	0.2481
380.7565	0.2534
380.9637	0.2568
381.1709	0.2383
381.3781	0.2297
381.5853	0.2507
381.7925	0.2513
381.9997	0.2662
382.2068	0.2598
382.4139	0.2386
382.6211	0.2466
382.8282	0.244
383.0353	0.2478
383.2424	0.264
383.4494	0.2632
383.6565	0.2491
383.8635	0.2582
384.0706	0.2434
384.2776	0.2735
384.4846	0.2538
384.6916	0.2545
384.8986	0.2352
385.1055	0.2719
385.3125	0.2407
385.5194	0.2258
385.7263	0.2727
385.9333	0.2544
386.1402	0.2499
386.347	0.2486
386.5539	0.2414
386.7608	0.2501
386.9676	0.2383
387.1744	0.2475
387.3813	0.236
387.5881	0.2428
387.7948	0.233
388.0016	0.2394
388.2084	0.2489
388.4151	0.259
388.6219	0.2553
388.8286	0.2405
389.0353	0.2627
389.242	0.2582
389.4487	0.2371
389.6553	0.2467
389.862	0.2371
390.0686	0.2276
390.2753	0.2543
390.4819	0.247
390.6885	0.2471
390.8951	0.2666
391.1016	0.2457
391.3082	0.2382
391.5147	0.2365
391.7213	0.241
391.9278	0.2213
392.1343	0.2344
392.3408	0.2169
392.5473	0.2369
392.7537	0.2255
392.9602	0.2204
393.1666	0.2233
393.373	0.2481
393.5794	0.2343
393.7858	0.2231
393.9922	0.2061
394.1986	0.2272
394.4049	0.2305
394.6113	0.2159
394.8176	0.2173
395.0239	0.2331
395.2302	0.2147
395.4365	0.2181
395.6428	0.2189
395.8491	0.2188
396.0553	0.2169
396.2615	0.2325
396.4678	0.2142
396.674	0.2042
396.8802	0.2189
397.0863	0.225
397.2925	0.2061
397.4987	0.2094
397.7048	0.2099
397.9109	0.2049
398.117	0.1902
398.3231	0.1952
398.5292	0.2207
398.7353	0.2387
398.9413	0.2058
399.1474	0.203
399.3534	0.2282
399.5594	0.1836
399.7654	0.2228
399.9714	0.2304
400.1774	0.2098
400.3833	0.1984
400.5893	0.2028
400.7952	0.2085
401.0011	0.2146
401.207	0.2231
401.4129	0.2154
401.6188	0.2164
401.8247	0.2203
402.0305	0.1869
402.2364	0.2163
402.4422	0.2196
402.648	0.2159
402.8538	0.2321
403.0596	0.1841
403.2654	0.2235
403.4711	0.2203
403.6768	0.2301
403.8826	0.2217
404.0883	0.2127
404.294	0.216
404.4997	0.2064
404.7054	0.2182
404.911	0.1895
405.1167	0.1971
405.3223	0.2214
405.5279	0.2178
405.7335	0.2218
405.9391	0.2233
406.1447	0.1987
406.3502	0.2317
406.5558	0.1947
406.7613	0.2134
406.9668	0.2075
407.1724	0.2076
407.3778	0.2078
407.5833	0.2062
407.7888	0.2114
407.9942	0.2363
408.1997	0.1971
408.4051	0.2198
408.6105	0.2234
408.8159	0.213
409.0213	0.2072
409.2267	0.2216
409.432	0.2107
409.6374	0.211
409.8427	0.2031
410.048	0.2063
410.2533	0.1962
410.4586	0.1983
410.6639	0.1971
410.8691	0.2085
411.0744	0.1966
411.2796	0.1852
411.4848	0.1995
411.69	0.1907
411.8952	0.2344
412.1004	0.1909
412.3056	0.2152
412.5107	0.1865
412.7158	0.2086
412.921	0.209
413.1261	0.1982
413.3312	0.1895
413.5362	0.2024
413.7413	0.1948
413.9464	0.185
414.1514	0.1866
414.3564	0.2155
414.5614	0.2132
414.7664	0.2111
414.9714	0.2047
415.1764	0.2182
415.3813	0.2256
415.5863	0.209
415.7912	0.2044
415.9961	0.2105
416.201	0.2028
416.4059	0.2072
416.6108	0.199
416.8156	0.2069
417.0205	0.1927
417.2253	0.1834
417.4301	0.1978
417.6349	0.1959
417.8397	0.2139
418.0445	0.2025
418.2492	0.185
418.454	0.1963
418.6587	0.2047
418.8634	0.1914
419.0681	0.1902
419.2728	0.197
419.4775	0.1927
419.6822	0.1954
419.8868	0.1762
420.0915	0.1903
420.2961	0.185
420.5007	0.1861
420.7053	0.1772
420.9099	0.192
421.1144	0.1896
421.319	0.1752
421.5235	0.1731
421.728	0.1821
421.9325	0.1992
422.137	0.1959
422.3415	0.1834
422.546	0.1979
422.7504	0.1942
422.9549	0.1945
423.1593	0.1963
423.3637	0.1908
423.5681	0.1682
423.7725	0.1693
423.9769	0.1638
424.1812	0.1677
424.3856	0.1703
424.5899	0.1772
424.7942	0.174
424.9985	0.1792
425.2028	0.1738
425.4071	0.1913
425.6113	0.1555
425.8156	0.1839
426.0198	0.1816
426.224	0.1586
426.4282	0.1784
426.6324	0.169
426.8366	0.1742
427.0407	0.1577
427.2449	0.1647
427.449	0.1654
427.6531	0.1577
427.8572	0.1519
428.0613	0.1572
428.2654	0.1569
428.4694	0.1652
428.6735	0.1605
428.8775	0.1679
429.0815	0.1467
429.2855	0.1476
429.4895	0.154
429.6935	0.1405
429.8975	0.147
430.1014	0.1263
430.3053	0.1269
430.5093	0.1355
430.7132	0.1385
430.9171	0.1371
431.1209	0.1516
431.3248	0.1453
431.5286	0.1379
431.7325	0.1339
431.9363	0.1334
432.1401	0.1354
432.3439	0.1359
432.5477	0.1152
432.7514	0.1163
432.9552	0.1261
433.1589	0.1064
433.3627	0.1104
433.5664	0.1009
433.7701	0.1143
433.9737	0.1205
434.1774	0.1087
434.3811	0.1171
434.5847	0.13
434.7883	0.108
434.9919	0.0972
435.1955	0.1111
435.3991	0.1119
435.6027	0.1204
435.8062	0.107
436.0098	0.082
436.2133	0.1074
436.4168	0.0858
436.6203	0.1027
436.8238	0.0896
437.0272	0.093
437.2307	0.1096
437.4341	0.1095
437.6375	0.0927
437.841	0.0752
438.0443	0.0991
438.2477	0.0806
438.4511	0.0913
438.6545	0.0814
438.8578	0.1007
439.0611	0.079
439.2644	0.0922
439.4677	0.0719
439.671	0.0669
439.8743	0.096
440.0775	0.0889
440.2808	0.0796
440.484	0.0777
440.6872	0.0645
440.8904	0.0631
441.0936	0.0767
441.2967	0.0613
441.4999	0.0722
441.703	0.0648
441.9062	0.0572
442.1093	0.0659
442.3124	0.0668
442.5155	0.0457
442.7185	0.0624
442.9216	0.0402
443.1246	0.0639
443.3276	0.0601
443.5307	0.0666
443.7337	0.0576
443.9366	0.0486
444.1396	0.0556
444.3426	0.0478
444.5455	0.0655
444.7484	0.049
444.9513	0.0567
445.1542	0.0483
445.3571	0.0477
445.56	0.0619
445.7628	0.0419
445.9657	0.0462
446.1685	0.0503
446.3713	0.0543
446.5741	0.0496
446.7769	0.0251
446.9797	0.0383
447.1824	0.0443
447.3852	0.0348
447.5879	0.0506
447.7906	0.0448
447.9933	0.0283
448.196	0.0312
448.3986	0.03
448.6013	0.0211
448.8039	0.0184
449.0066	0.0265
449.2092	0.0361
449.4118	0.0371
449.6143	0.0373
449.8169	0.0388
450.0195	0.031
450.222	0.0211
450.4245	0.0364
450.627	0.0293
450.8295	0.0302
451.032	0.0315
451.2345	0.0276
451.4369	0.0419
451.6394	0.0238
451.8418	-0.0004
452.0442	0.0156
452.2466	0.0392
452.449	0.0192
452.6513	0.0293
452.8537	0.0077
453.056	0.005
453.2583	0.0259
453.4607	0.0146
453.663	0.0112
453.8652	0.0266
454.0675	-0.003
454.2697	0.0246
454.472	0.0015
454.6742	0.0161
454.8764	0.0197
455.0786	0.0205
455.2808	-0.0018
455.4829	0.0247
455.6851	0.0363
455.8872	0.0194
456.0893	0.0235
456.2915	0.0058
456.4935	0.0246
456.6956	0.0099
456.8977	0.0292
457.0997	-0.0023
457.3018	-0.0036
457.5038	0.013
457.7058	0.0124
457.9078	0.0148
458.1098	0.003
458.3117	0.0229
458.5137	0.0188
458.7156	0.024
458.9175	-0.0113
459.1194	0.0014
459.3213	0.0098
459.5232	0.0024
459.725	-0.0011
459.9269	0.0055
460.1287	-0.0073
460.3305	0.0057
460.5323	0.009
460.7341	0.0085
460.9359	-0.0021
461.1376	0.0213
461.3394	-0.0121
461.5411	0.0057
461.7428	0.0054
461.9445	0.0186
462.1462	0.0197
462.3479	0.0067
462.5495	0.0044
462.7512	0.0156
462.9528	0.0059
463.1544	-0.0059
463.356	0.0027
463.5576	0.0034
463.7592	-0.0114
463.9607	0.0027
464.1623	0.014
464.3638	0.0176
464.5653	-0.0208
464.7668	0.0081
464.9683	0.0108
465.1697	0.0127
465.3712	-0.0162
465.5726	-0.0087
465.7741	-0.004
465.9755	-0.0065
466.1769	0.0048
466.3782	0.0085
466.5796	-0.0007
466.7809	0.0027
466.9823	-0.001
467.1836	-0.0208
467.3849	-0.0132
467.5862	0.0162
467.7875	-0.0027
467.9887	0.0233
468.19	-0.0028
468.3912	-0.0173
468.5924	-0.002
468.7936	-0.0025
468.9948	-0.0035
469.196	0.0083
469.3972	-0.0055
469.5983	0.0045
469.7994	-0.0012
470.0006	-0.0095
470.2017	-0.0134
470.4027	-0.0018
470.6038	-0.0046
470.8049	-0.0246
471.0059	-0.0026
471.2069	-0.0282
471.408	0.0066
471.6089	0.0015
471.8099	-0.0076
472.0109	0.0036
472.2119	-0.0129
472.4128	-0.0091
472.6137	0.013
472.8146	-0.0224
473.0155	-0.0084
473.2164	-0.0065
473.4173	0.0035
473.6181	0.0094
473.819	0.0083
474.0198	-0.0087
474.2206	-0.0021
474.4214	0.0023
474.6222	-0.0021
474.8229	-0.001
475.0237	-0.0188
475.2244	0.0007
475.4251	0.0075
475.6258	-0.0056
475.8265	-0.003
476.0272	-0.0044
476.2278	-0.0001
476.4285	-0.0019
476.6291	-0.0107
476.8297	-0.0071
477.0303	-0.0124
477.2309	-0.0049
477.4315	-0.0166
477.632	0.0003
477.8326	-0.008
478.0331	0.0171
478.2336	0.0037
478.4341	0.0075
478.6346	-0.0129
478.8351	-0.0036
479.0355	-0.0023
479.236	-0.006
479.4364	0.005
479.6368	0.0075
479.8372	-0.0133
480.0376	0.0021
480.2379	-0.0237
480.4383	-0.0086
480.6386	0.0045
480.8389	0.0015
481.0392	-0.003
481.2395	-0.0159
481.4398	0.0039
481.6401	0.0012
481.8403	-0.0026
482.0405	-0.0041
482.2408	-0.0129
482.441	0.008
482.6411	-0.006
482.8413	-0.0101
483.0415	-0.0107
483.2416	-0.0172
483.4417	-0.0064
483.6419	-0.012
483.8419	-0.0056
484.042	0.0042
484.2421	-0.0067
484.4422	-0.002
484.6422	0.0007
484.8422	-0.0005
485.0422	-0.0116
485.2422	0.0037
485.4422	-0.0115
485.6422	-0.0087
485.8421	-0.0064
486.042	-0.0109
486.242	0.0015
486.4419	-0.0096
486.6417	-0.0075
486.8416	-0.0056
487.0415	-0.0086
487.2413	-0.0004
487.4411	-0.0108
487.641	-0.0076
487.8408	-0.0099
488.0405	-0.0079
488.2403	-0.0141
488.4401	0.002
488.6398	-0.008
488.8395	-0.01
489.0392	0.0096
489.2389	-0.002
489.4386	-0.0061
489.6383	-0.0092
489.8379	-0.0037
490.0376	-0.0077
490.2372	-0.0074
490.4368	-0.0103
490.6364	-0.0084
490.836	0.0019
491.0355	-0.0123
491.2351	-0.0126
491.4346	-0.0079
491.6341	-0.0319
491.8336	-0.0104
492.0331	-0.017
492.2326	-0.0139
492.432	-0.0108
492.6315	-0.008
492.8309	-0.0004
493.0303	-0.0137
493.2297	-0.0024
493.4291	-0.0125
493.6284	-0.0171
493.8278	-0.0054
494.0271	0.0101
494.2264	-0.0042
494.4257	-0.0183
494.625	-0.0138
494.8243	-0.019
495.0236	-0.0091
495.2228	-0.0232
495.422	-0.0101
495.6213	-0.0128
495.8205	-0.0062
496.0196	0.003
496.2188	-0.0017
496.418	-0.0115
496.6171	-0.0072
496.8162	-0.008
497.0153	-0.0012
497.2144	-0.0073
497.4135	-0.0034
497.6126	-0.0152
497.8116	-0.0028
498.0107	-0.007
498.2097	-0.0207
498.4087	-0.0185
498.6077	-0.0056
498.8067	-0.0119
499.0056	0.0017
499.2046	-0.0133
499.4035	-0.0165
499.6024	-0.0073
499.8013	-0.0063
500.0002	-0.001
500.199	-0.0092
500.3979	-0.0083
500.5967	-0.0184
500.7956	-0.0029
500.9944	-0.0018
501.1932	-0.0142
501.3919	-0.0146
501.5907	-0.0119
501.7895	-0.0115
501.9882	-0.0135
502.1869	-0.0071
502.3856	-0.0152
502.5843	-0.0151
502.783	-0.0073
502.9816	-0.0081
503.1803	-0.0233
503.3789	-0.0038
503.5775	-0.0073
503.7761	-0.0095
503.9747	-0.0145
504.1732	-0.0034
504.3718	-0.0166
504.5703	-0.0034
504.7689	-0.011
504.9674	0.0009
505.1658	-0.0118
505.3643	-0.0106
505.5628	-0.007
505.7612	-0.0108
505.9597	0.006
506.1581	-0.0133
506.3565	-0.0022
506.5549	-0.0086
506.7532	-0.0088
506.9516	-0.0084
507.1499	-0.0096
507.3482	-0.0114
507.5465	-0.0089
507.7448	-0.0101
507.9431	-0.0038
508.1414	0.0023
508.3396	-0.0143
508.5379	-0.0066
508.7361	-0.006
508.9343	-0.0027
509.1325	0.0058
509.3306	-0.0059
509.5288	-0.0124
509.7269	-0.0194
509.9251	-0.0018
510.1232	-0.0117
510.3213	0.0051
510.5193	0.0029
510.7174	-0.0199
510.9154	-0.0129
511.1135	-0.0111
511.3115	-0.0174
511.5095	-0.0081
511.7075	-0.0088
511.9055	-0.0023
512.1034	-0.0099
512.3014	0.0029
512.4993	0.0009
512.6972	-0.0136
512.8951	-0.0171
513.093	0.0007
513.2908	-0.004
513.4887	-0.0022
513.6865	-0.0035
513.8844	-0.0078
514.0822	-0.007
514.2799	-0.0161
514.4777	-0.0122
514.6755	-0.0097
514.8732	-0.0034
515.0709	-0.0033
515.2687	-0.0035
515.4664	0.0006
515.664	0.0014
515.8617	-0.0039
516.0594	-0.0137
516.257	-0.0005
516.4546	-0.0151
516.6522	0.0027
516.8498	-0.0139
517.0474	-0.0032
517.2449	-0.0078
517.4425	-0.0085
517.64	-0.005
517.8375	0.0067
518.035	-0.0041
518.2325	-0.0153
518.43	-0.0072
518.6274	-0.0063
518.8249	-0.0108
519.0223	0.0049
519.2197	-0.0125
519.4171	-0.0084
519.6145	-0.0064
519.8118	-0.0049
520.0092	-0.0033
520.2065	-0.0191
520.4038	-0.0251
520.6011	0.0021
520.7984	-0.0131
520.9956	-0.0119
521.1929	-0.0116
521.3901	-0.0078
521.5874	-0.0069
521.7846	-0.0065
521.9818	-0.0096
522.1789	-0.0104
522.3761	-0.0073
522.5732	-0.0075
522.7704	-0.009
522.9675	-0.0013
523.1646	-0.0115
523.3617	-0.0055
523.5587	-0.0047
523.7558	-0.0025
523.9528	-0.0084
524.1498	-0.0032
524.3468	-0.0047
524.5438	-0.0125
524.7408	-0.0044
524.9378	-0.0035
525.1347	-0.0024
525.3316	-0.0025
525.5285	-0.0158
525.7254	-0.0105
525.9223	0.0028
526.1192	-0.0022
526.316	-0.0148
526.5129	0.0009
526.7097	-0.0071
526.9065	-0.0007
527.1033	-0.0131
527.3	0.0049
527.4968	-0.0145
527.6935	0.0038
527.8903	-0.0242
528.087	-0.0124
528.2837	-0.0083
528.4804	-0.0072
528.677	-0.0107
528.8737	-0.0013
529.0703	-0.0028
529.2669	-0.0086
529.4635	-0.0037
529.6601	-0.0009
529.8567	-0.0154
530.0532	-0.0165
530.2498	0.008
530.4463	0.0009
530.6428	-0.0117
530.8393	0.0097
531.0358	-0.0093
531.2322	0.0015
531.4287	-0.0005
531.6251	-0.0052
531.8215	0.0031
532.0179	-0.0036
532.2143	0.0018
532.4107	0.0063
532.607	-0.0173
532.8034	-0.0023
532.9997	0.0007
533.196	0.0003
533.3923	-0.0076
533.5886	0.0049
533.7848	-0.0084
533.9811	-0.0029
534.1773	0.0039
534.3735	0.011
534.5697	-0.0048
534.7659	-0.0076
534.9621	-0.0026
535.1582	-0.0012
535.3544	-0.0004
535.5505	-0.0071
535.7466	-0.0132
535.9427	-0.0124
536.1387	-0.0178
536.3348	-0.0143
536.5308	-0.007
536.7269	-0.0159
536.9229	0.0006
537.1189	-0.0032
537.3148	0.0023
537.5108	-0.0072
537.7068	0.0021
537.9027	-0.0031
538.0986	-0.0062
538.2945	-0.0157
538.4904	0.0008
538.6863	-0.0058
538.8821	-0.0049
539.078	-0.0124
539.2738	-0.0045
539.4696	-0.0074
539.6654	0.0059
539.8611	0.0067
540.0569	-0.0015
540.2526	-0.0024
540.4484	-0.0037
540.6441	0.007
540.8398	-0.0048
541.0355	0.005
541.2311	-0.006
541.4268	-0.0184
541.6224	0.0094
541.818	0.0048
542.0136	-0.0061
542.2092	-0.0076
542.4048	-0.0016
542.6003	0.0061
542.7959	-0.0073
542.9914	0.0015
543.1869	-0.0011
543.3824	0.0021
543.5779	-0.001
543.7734	-0.0038
543.9688	-0.0095
544.1642	0.0006
544.3596	0.001
544.555	-0.0102
544.7504	0.0061
544.9458	-0.005
545.1411	0.0012
545.3365	0.0006
545.5318	-0.0042
545.7271	-0.0093
545.9224	-0.0008
546.1177	-0.0104
546.3129	0.0072
546.5081	-0.0058
546.7034	-0.0009
546.8986	-0.0015
547.0938	-0.007
547.289	-0.0074
547.4841	0.0056
547.6793	0.0134
547.8744	-0.0077
548.0695	0.0077
548.2646	-0.0076
548.4597	0.0018
548.6548	-0.0047
548.8498	-0.0004
549.0448	0.005
549.2399	-0.0052
549.4349	0.0064
549.6298	0.0041
549.8248	0.0002
550.0198	-0.0042
550.2147	-0.0077
550.4096	-0.0063
550.6045	-0.0041
550.7994	0.0028
550.9943	0.0058
551.1892	-0.0071
551.384	0.0103
551.5788	-0.0115
551.7737	0.0078
551.9685	-0.0077
552.1632	0.0016
552.358	-0.002
552.5528	-0.0015
552.7475	-0.0042
552.9422	-0.0034
553.1369	0.0013
553.3316	0.0134
553.5263	-0.0036
553.7209	0.0049
553.9156	-0.0107
554.1102	-0.0041
554.3048	-0.0046
554.4994	0.0053
554.694	-0.0047
554.8885	0.0048
555.0831	-0.0054
555.2776	-0.0039
555.4721	-0.0007
555.6666	-0.0065
555.8611	0.0035
556.0555	-0.0042
556.25	-0.0071
556.4444	-0.0088
556.6388	-0.0031
556.8332	-0.0023
557.0276	0.0036
557.222	-0.0072
557.4163	-0.0043
557.6107	-0.0104
557.805	0.0076
557.9993	0.0028
558.1936	0.0036
558.3879	0.0067
558.5821	-0.0014
558.7764	-0.0081
558.9706	0.0009
559.1648	0.0005
559.359	-0.0045
559.5532	-0.0086
559.7473	0.004
559.9415	-0.0023
560.1356	-0.0024
560.3297	-0.0135
560.5238	-0.0104
560.7179	-0.0099
560.9119	-0.0026
561.106	-0.0052
561.3	-0.0065
561.494	-0.0059
561.688	-0.002
561.882	-0.0121
562.076	-0.0036
562.2699	0.0119
562.4639	0.0073
562.6578	-0.0025
562.8517	-0.0026
563.0456	-0.0075
563.2395	-0.0014
563.4333	0.0012
563.6272	0.0111
563.821	-0.0044
564.0148	-0.004
564.2086	-0.0099
564.4024	-0.0041
564.5961	-0.0067
564.7899	0.0071
564.9836	0.0101
565.1773	0.0055
565.371	0.0079
565.5647	-0.0062
565.7584	-0.0002
565.952	0.0039
566.1456	0.0038
566.3393	-0.0048
566.5329	-0.0082
566.7264	-0.0016
566.92	-0.0074
567.1136	0.0064
567.3071	-0.0066
567.5006	0.0036
567.6941	0.006
567.8876	-0.005
568.0811	-0.0033
568.2745	0.0097
568.468	-0.0043
568.6614	0.008
568.8548	-0.0012
569.0482	0.0013
569.2416	0.0013
569.4349	-0.0002
569.6283	0.0067
569.8216	0.0071
570.0149	-0.0087
570.2082	0.0127
570.4015	0.009
570.5947	-0.0063
570.788	0.0055
570.9812	0.0044
571.1744	-0.0025
571.3676	-0.0073
571.5608	0.0045
571.754	0.0077
571.9471	0.0011
572.1402	-0.0006
572.3333	-0.0032
572.5264	-0.0044
572.7195	0.0066
572.9126	-0.0026
573.1057	-0.004
573.2987	-0.0095
573.4917	0.003
573.6847	-0.0121
573.8777	0.0114
574.0707	0.0083
574.2636	0.0011
574.4566	-0.0067
574.6495	0.0043
574.8424	-0.0003
575.0353	-0.0007
575.2281	0.006
575.421	0.0054
575.6138	0.0077
575.8067	-0.0012
575.9995	0.0001
576.1923	0.0036
576.385	0.0068
576.5778	-0.0032
576.7706	0.0059
576.9633	0.0042
577.156	-0.0014
577.3487	0.0014
577.5414	0.0025
577.734	-0.0017
577.9267	0.0088
578.1193	-0.0013
578.3119	0.0021
578.5045	0.006
578.6971	0.0055
578.8897	0.0114
579.0822	0.0029
579.2747	0.0058
579.4673	0.0023
579.6598	0.0021
579.8522	-0.0013
580.0447	-0.0006
580.2372	0.001
580.4296	0.009
580.622	0.0054
580.8144	0.0048
581.0068	0.0048
581.1992	-0.0107
581.3915	-0.0045
581.5839	0.0034
581.7762	-0.0043
581.9685	-0.0037
582.1608	0.0092
582.353	0.0004
582.5453	0.0027
582.7375	0.0045
582.9298	0.0024
583.122	0.0089
583.3142	0.001
583.5063	0.0046
583.6985	0.0012
583.8906	0.0005
584.0827	-0.0052
584.2749	0.0098
584.4669	0.0039
584.659	0.0035
584.8511	0.0037
585.0431	-0.0011
585.2352	0.006
585.4272	-0.001
585.6192	0.0028
585.8111	0.0004
586.0031	0.0038
586.195	0.0042
586.387	0.0089
586.5789	0.0014
586.7708	0.003
586.9627	0.0053
587.1545	-0.0064
587.3464	0.0016
587.5382	0.0008
587.73	0.0068
587.9218	0.0041
588.1136	-0.0071
588.3053	0.0042
588.4971	-0.0056
588.6888	-0.0044
588.8805	0.0046
589.0722	0.002
589.2639	0.005
589.4556	0.0008
589.6472	0.0055
589.8389	-0.0071
590.0305	-0.0095
590.2221	0.0117
590.4137	-0.0061
590.6052	0.0033
590.7968	0.0019
590.9883	0.0048
591.1798	-0.0044
591.3713	0.0066
591.5628	0.0107
591.7543	0.0102
591.9458	0.003
592.1372	0.0127
592.3286	0.0106
592.52	0.0093
592.7114	-0.0044
592.9028	-0.005
593.0941	-0.0021
593.2855	0.0054
593.4768	-0.0001
593.6681	0.0026
593.8594	-0.0023
594.0506	0.0065
594.2419	0.0063
594.4331	0.0051
594.6244	0.0026
594.8156	-0.0109
595.0067	0.0059
595.1979	0.0073
595.3891	0.0031
595.5802	-0.0084
595.7713	0.0016
595.9624	-0.0037
596.1535	0.0066
596.3446	0.005
596.5357	-0.0014
596.7267	0.0069
596.9177	-0.0037
597.1087	-0.004
597.2997	-0.0002
597.4907	0.0015
597.6817	0.0032
597.8726	0.0077
598.0635	-0.0023
598.2544	0.0042
598.4453	0.0018
598.6362	-0.0101
598.827	-0.0054
599.0179	0.01
599.2087	0.0023
599.3995	-0.0001
599.5903	0.0031
599.7811	0.0006
599.9718	0.0041
600.1626	-0.0025
600.3533	-0.0052
600.544	0.0028
600.7347	-0.0051
600.9254	0.0065
601.116	-0.0005
601.3067	0.0024
601.4973	0.0018
601.6879	0.007
601.8785	-0.0033
602.0691	0.0061
602.2596	0.0056
602.4502	0.009
602.6407	0.0053
602.8312	0.0049
603.0217	-0.0074
603.2122	0.0055
603.4027	-0.0013
603.5931	0.0009
603.7835	-0.0043
603.9739	0.0012
604.1643	-0.003
604.3547	-0.0071
604.5451	0.0015
604.7354	0.0085
604.9257	0.0018
605.116	0.0023
605.3063	0.0048
605.4966	0.0085
605.6869	0.0058
605.8771	0.0085
606.0673	0.0047
606.2575	0.0088
606.4477	0.0092
606.6379	0.0017
606.8281	-0.004
607.0182	-0.0028
607.2083	0.0124
607.3985	-0.0028
607.5885	-0.0041
607.7786	0.0004
607.9687	-0.0081
608.1587	-0.0007
608.3488	0.0032
608.5388	0.0007
608.7288	-0.0069
608.9187	-0.0022
609.1087	-0.0054
609.2986	-0.0038
609.4886	0.0038
609.6785	-0.0036
609.8684	0.0086
610.0582	0.0093
610.2481	-0.0004
610.4379	0.0017
610.6278	-0.0014
610.8176	0.0042
611.0074	0.0029
611.1971	-0.0004
611.3869	-0.0004
611.5766	-0.0043
611.7664	0.0074
611.9561	0.0096
612.1458	0.0082
612.3354	-0.0036
612.5251	0.004
612.7147	0.0053
612.9044	0.0125
613.094	-0.0022
613.2836	0.0067
613.4731	-0.0041
613.6627	-0.003
613.8522	0.0043
614.0417	0.0005
614.2313	0.0002
614.4207	0.002
614.6102	0.003
614.7997	-0.001
614.9891	-0.0033
615.1785	0.0006
615.3679	-0.0015
615.5573	0.0103
615.7467	-0.0029
615.9361	-0.0018
616.1254	0.0002
616.3147	0.0028
616.504	0.0009
616.6933	-0.0025
616.8826	-0.0005
617.0718	0.0002
617.2611	0.0027
617.4503	-0.0018
617.6395	-0.0021
617.8287	0.0002
618.0179	0.0047
618.207	0.0118
618.3961	0.0031
618.5853	-0.001
618.7744	0.0097
618.9634	0.0099
619.1525	0.0009
619.3416	0.0119
619.5306	0.0051
619.7196	0.003
619.9086	0.01
620.0976	0.0147
620.2866	-0.004
620.4755	0.0025
620.6645	0.0111
620.8534	0.0111
621.0423	0.0017
621.2312	0.0054
621.42	0.0032
621.6089	0.0034
621.7977	0.0042
621.9865	0.0011
622.1753	0.0075
622.3641	-0.0012
622.5529	0.0036
622.7416	0.0143
622.9303	-0.0015
623.1191	0.0082
623.3078	0.0013
623.4964	0.0096
623.6851	-0.0027
623.8737	0.0013
624.0624	0.0065
624.251	0.0014
624.4396	-0.001
624.6282	-0.0043
624.8167	-0.0012
625.0053	0.0035
625.1938	0.0101
625.3823	0.0027
625.5708	-0.0003
625.7593	-0.0006
625.9477	-0.0017
626.1362	0.0019
626.3246	-0.0032
626.513	0.0096
626.7014	0.0068
626.8898	0.0051
627.0781	0.002
627.2665	-0.004
627.4548	0.0128
627.6431	0.0058
627.8314	0.0046
628.0197	0.0057
628.2079	-0.0038
628.3962	-0.0002
628.5844	0.0032
628.7726	-0.0027
628.9608	0.0014
629.1489	-0.0017
629.3371	0.0058
629.5252	-0.0046
629.7134	0.0014
629.9015	-0.0042
630.0895	0.0033
630.2776	0.0036
630.4657	-0.0037
630.6537	0.007
630.8417	0.0029
631.0297	-0.0049
631.2177	0.0075
631.4057	0.0037
631.5936	0.0039
631.7815	0.0053
631.9695	0.0076
632.1574	0.0024
632.3452	0.0108
632.5331	0.0083
632.7209	0.0015
632.9088	0.0063
633.0966	0.0121
633.2844	-0.002
633.4722	0.0006
633.6599	0.0142
633.8477	0.0052
634.0354	0.0034
634.2231	0.002
634.4108	0.0088
634.5985	0
634.7861	0.005
634.9738	0.0023
635.1614	0.0001
635.349	0.0045
635.5366	-0.0029
635.7242	-0.0001
635.9117	-0.0009
636.0993	0.0026
636.2868	0.0072
636.4743	-0.0013
636.6618	0.0109
636.8492	0.002
637.0367	0.0083
637.2241	0.0036
637.4115	0.0065
637.5989	-0.0063
637.7863	0.0016
637.9737	-0.0033
638.161	-0.0019
638.3484	0.0025
638.5357	0.0089
638.723	-0.0002
638.9103	0.0083
639.0975	0.0058
639.2848	0.0114
639.472	0.0027
639.6592	0.0053
639.8464	0.0132
640.0336	0.0069
640.2208	-0.0015
640.4079	0.002
640.595	-0.0008
640.7821	0.0018
640.9692	0.0003
641.1563	0.0103
641.3434	0.0041
641.5304	-0.0074
641.7174	0.0069
641.9044	0.0039
642.0914	0.006
642.2784	0.0105
642.4653	0.0055
642.6523	0.0072
642.8392	-0.0029
643.0261	0.0067
643.213	-0.0005
643.3999	-0.0006
643.5867	-0.0003
643.7735	0.0041
643.9604	-0.0079
644.1472	0.0086
644.3339	0.0013
644.5207	0.004
644.7075	0.006
644.8942	0.0073
645.0809	0.0075
645.2676	0.0038
645.4543	0.0002
645.6409	0.0069
645.8276	0.0009
646.0142	0.0081
646.2008	-0.0041
646.3874	-0.01
646.574	-0.0012
646.7605	-0.0061
646.9471	-0.0161
647.1336	0.0017
647.3201	0.0047
647.5066	-0.0035
647.6931	0.0036
647.8795	-0.0051
648.0659	0.0142
648.2524	0.0135
648.4388	-0.0008
648.6252	0.0081
648.8115	0.0074
648.9979	0.0016
649.1842	0.0086
649.3705	0.0022
649.5568	0.0076
649.7431	0.0081
649.9294	0.0046
650.1156	0.0143
650.3018	0.0031
650.488	0.0093
650.6742	0.0101
650.8604	-0.003
651.0466	-0.0004
651.2327	0.0047
651.4188	0.0078
651.6049	-0.0017
651.791	0.0049
651.9771	0.0064
652.1632	-0.0004
652.3492	0.0095
652.5352	0.0054
652.7212	0.009
652.9072	0.0056
653.0932	0.0009
653.2791	-0.0068
653.465	-0.0007
653.651	-0.0046
653.8369	0.0045
654.0227	-0.0015
654.2086	0.0009
654.3944	0.0109
654.5803	0.0059
654.7661	-0.003
654.9519	0.0077
655.1377	0.0024
655.3234	0.0026
655.5092	-0.0047
655.6949	-0.0072
655.8806	-0.0034
656.0663	0.0045
656.2519	-0.0022
656.4376	-0
656.6232	0.0016
656.8088	0.0011
656.9945	-0.0008
657.18	0.0017
657.3656	-0.0003
657.5511	0.0044
657.7367	-0.0045
657.9222	0.0025
658.1077	0.0065
658.2932	0.0014
658.4786	-0.005
658.6641	-0.0041
658.8495	0.0016
659.0349	-0.0001
659.2203	0.0058
659.4057	0.0101
659.591	0.0106
659.7764	-0.0045
659.9617	0.0082
660.147	0.0005
660.3323	0.0106
660.5176	0.008
660.7028	0.0033
660.888	0.0045
661.0733	0.0062
661.2585	0.0029
661.4436	0.0011
661.6288	-0.0051
661.8139	0.002
661.9991	0.0041
662.1842	0.0031
662.3693	0.009
662.5544	0.0007
662.7394	0.0024
662.9245	0.0041
663.1095	0.004
663.2945	0.0061
663.4795	0.0034
663.6644	0.0095
663.8494	0.0063
664.0343	0.005
664.2193	0.0005
664.4042	0.0059
664.589	0.0012
664.7739	0.0078
664.9587	-0.0014
665.1436	0.0038
665.3284	0.0056
665.5132	0.0016
665.698	0.0005
665.8827	0.0061
666.0675	0.004
666.2522	0.0025
666.4369	0.0046
666.6216	0.0048
666.8063	0.0052
666.9909	0.008
667.1756	0.0036
667.3602	0.0065
667.5448	-0.0051
667.7294	0.008
667.9139	0.0101
668.0985	0.0132
668.283	0.0008
668.4675	0.0052
668.652	-0.0001
668.8365	0.0021
669.0209	0.0083
669.2054	0.0107
669.3898	0.0089
669.5742	0.0057
669.7586	0.0098
669.943	0.0138
670.1273	0.0097
670.3117	0.0066
670.496	0.0142
670.6803	0.0195
670.8646	0.0092
671.0488	0.0043
671.2331	0.0099
671.4173	0.0074
671.6015	0.0064
671.7857	0.0041
671.9699	0.0136
672.1541	0.0082
672.3382	0.0062
672.5223	0.0007
672.7064	0.012
672.8905	0.0066
673.0746	0.002
673.2587	0.0074
673.4427	0.006
673.6267	0.0077
673.8107	0.0132
673.9947	0.0119
674.1787	0.0058
674.3626	0.0017
674.5465	0.0059
674.7304	0.0033
674.9143	0.0048
675.0982	0.0039
675.2821	-0.0046
675.4659	0.0055
675.6497	0.0001
675.8335	-0.0029
676.0173	0.0064
676.2011	0.0061
676.3849	0.0021
676.5686	-0.0031
676.7523	0.0052
676.936	0.0067
677.1197	-0.0013
677.3034	-0.0076
677.487	0.0033
677.6706	0.0016
677.8542	0.0098
678.0378	-0.0004
678.2214	0.0003
678.405	-0.001
678.5885	-0.0077
678.772	-0.0027
678.9555	-0.0118
679.139	-0.0108
679.3225	0.0037
679.5059	0.0001
679.6894	-0.0012
679.8728	-0.0017
680.0562	-0.0022
680.2395	0.0007
680.4229	-0.0004
680.6062	0.0097
680.7896	0
680.9729	-0.0026
681.1562	0.0046
681.3394	0.0035
681.5227	-0.0017
681.7059	-0.0003
681.8891	-0.0039
682.0723	0.0098
682.2555	0.0022
682.4387	0.0019
682.6218	0.0014
682.805	0.0058
682.9881	0.005
683.1712	-0.0012
683.3542	-0.0015
683.5373	0.0086
683.7203	-0.0094
683.9034	-0.0025
684.0864	-0.0058
684.2694	-0.0004
684.4523	0.0043
684.6353	-0.0031
684.8182	0.0009
685.0011	-0.0074
685.184	0.0056
685.3669	-0.0029
685.5498	0.0072
685.7326	0.0014
685.9154	-0.0014
686.0982	0.0125
686.281	0.0064
686.4638	0.004
686.6465	0.0017
686.8293	0.0035
687.012	0.0101
687.1947	0.0056
687.3774	0.0061
687.56	0.0022
687.7427	0.0082
687.9253	0.0027
688.1079	0.0011
688.2905	0.0096
688.4731	-0
688.6556	0.0071
688.8382	0.0038
689.0207	0.0009
689.2032	-0.0028
689.3857	0.0018
689.5681	0.0017
689.7506	0.0003
689.933	-0.01
690.1154	-0.0034
690.2978	-0.0053
690.4802	0.0035
690.6626	-0.0036
690.8449	0.0013
691.0272	0.0111
691.2095	-0.0055
691.3918	0.0015
691.5741	0.0025
691.7563	0.0062
691.9386	0.0025
692.1208	-0.0025
692.303	0.0012
692.4852	0.0056
692.6673	0.0014
692.8495	0.0003
693.0316	0.0068
693.2137	0.0008
693.3958	0.0071
693.5778	0.0061
693.7599	0.0064
693.9419	0.0037
694.1239	0.0056
694.3059	0.002
694.4879	0.0091
694.6699	0.0058
694.8518	0.004
695.0337	-0.0026
695.2157	0.0095
695.3975	0.0004
695.5794	0.0058
695.7613	0.0011
695.9431	-0.0012
696.1249	0.0111
696.3067	0.0066
696.4885	0.0029
696.6703	-0.0065
696.852	0.002
697.0337	0.0037
697.2154	0.0053
697.3971	0.011
697.5788	0.0039
697.7605	0.0049
697.9421	0.0035
698.1237	0.0058
698.3053	0.0047
698.4869	0.0027
698.6685	-0.0034
698.85	-0.0017
699.0315	0.0065
699.213	0.0008
699.3945	0.0063
699.576	0.0094
699.7575	0.0121
699.9389	0.0073
700.1203	0.0027
700.3017	-0.0028
700.4831	-0.0027
700.6645	0.0026
700.8458	0.0099
701.0271	-0.0012
701.2084	0.0091
701.3897	-0.0001
701.571	0.0047
701.7523	0.0009
701.9335	0.0076
702.1147	0.0082
702.2959	0.0015
702.4771	0.0049
702.6583	0.005
702.8394	-0.0057
703.0205	-0.0008
703.2016	0.0005
703.3827	0.0051
703.5638	0.0025
703.7449	0.0035
703.9259	0.004
704.1069	0.0021
704.2879	0.0027
704.4689	0.0062
704.6499	0.0017
704.8308	-0.0054
705.0117	-0
705.1927	0.0012
705.3735	-0.0064
705.5544	-0.009
705.7353	-0.0008
705.9161	-0.003
706.0969	0.0043
706.2777	-0.0013
706.4585	-0.0002
706.6393	0.0078
706.82	0.0021
707.0007	0.0051
707.1815	0.0082
707.3621	0.0182
707.5428	0.0096
707.7235	0.0091
707.9041	0.0139
708.0847	-0.0035
708.2653	-0.0039
708.4459	-0.0093
708.6265	0.0105
708.807	-0.0006
708.9875	-0.0012
709.168	-0.0054
709.3485	-0.0086
709.529	-0.0023
709.7095	-0.0086
709.8899	0.0065
710.0703	-0.0125
710.2507	0.0049
710.4311	-0.0003
710.6115	-0.0055
710.7918	-0.0052
710.9721	0.0013
711.1524	-0.0029
711.3327	-0.003
711.513	0.0028
711.6932	-0.0012
711.8735	0.0028
712.0537	-0.0043
712.2339	-0.0049
712.4141	-0.0053
712.5942	-0.0067
712.7744	0.0039
712.9545	-0.0048
713.1346	-0.0065
713.3147	-0.0014
713.4947	-0.0046
713.6748	0.0015
713.8548	0.0004
714.0348	-0.0021
714.2148	-0.0034
714.3948	0.006
714.5748	-0.0074
714.7547	-0.0045
714.9346	0.0029
715.1145	-0.0014
715.2944	-0.0064
715.4743	0.0014
715.6541	0.0056
715.834	-0.0015
716.0138	-0.0014
716.1936	-0.0113
716.3733	-0.0025
716.5531	0.0015
716.7328	-0.0043
716.9126	0.0022
717.0923	0.0076
717.2719	-0.0002
717.4516	0.0001
717.6312	0.0035
717.8109	-0.0077
717.9905	0.0126
718.1701	-0.0037
718.3496	-0.0014
718.5292	0.003
718.7087	0.0037
718.8882	-0.0041
719.0677	0.0078
719.2472	-0.0068
719.4267	-0.0012
719.6061	-0
719.7856	0.0034
719.965	0.0031
720.1443	-0.0024
720.3237	0.013
720.5031	0.0017
720.6824	0.0043
720.8617	0.0009
721.041	-0.0043
721.2203	0.0032
721.3995	0.0037
721.5788	0.004
721.758	0.0178
721.9372	0.0002
722.1164	0.0064
722.2956	0.0032
722.4747	0.0057
722.6538	0.0045
722.8329	0.0209
723.012	0.0064
723.1911	0.0021
723.3702	0.0084
723.5492	0.011
723.7282	0.0034
723.9072	0.007
724.0862	0.0021
724.2652	-0.0009
724.4441	0.0014
724.623	-0.0002
724.8019	-0.0038
724.9808	0.0072
725.1597	-0.0055
725.3385	0.0092
725.5174	0.005
725.6962	0.0009
725.875	-0.0015
726.0538	0.0034
726.2325	0.0008
726.4112	-0.0011
726.59	-0.0132
726.7687	-0.0057
726.9474	-0.0043
727.126	-0.0006
727.3047	-0.0097
727.4833	-0.0142
727.6619	-0.0018
727.8405	-0.0062
728.0191	-0.01
728.1976	-0.0009
728.3762	0.001
728.5547	-0.001
728.7332	-0.0164
728.9116	0.0035
729.0901	0.0135
729.2686	-0.0077
729.447	-0.0012
729.6254	0.0031
729.8038	0.0031
729.9821	-0.0067
730.1605	-0.0023
730.3388	-0.012
730.5171	0.0017
730.6954	-0.0006
730.8737	0.0066
731.0519	0.0089
731.2302	0.003
731.4084	0.0099
731.5866	0.0104
731.7648	0.005
731.9429	0.0065
732.1211	-0.0035
732.2992	0.003
732.4773	-0.0065
732.6554	-0.0025
732.8335	0.0009
733.0115	-0
733.1896	0.0004
733.3676	0.0029
733.5456	0.0002
733.7235	0.0086
733.9015	0.0025
734.0794	0.0094
734.2574	-0.0023
734.4353	-0.0005
734.6131	0.0134
734.791	0.003
734.9689	0.0119
735.1467	0.0074
735.3245	0.0034
735.5023	0.005
735.68	0.0122
735.8578	0.0132
736.0355	-0.0129
736.2132	0.0043
736.3909	0.0027
736.5686	-0.0091
736.7463	0.005
736.9239	-0.0051
737.1015	-0.0035
737.2791	0.0041
737.4567	0.0058
737.6343	-0.0073
737.8118	-0.0003
737.9894	0.0071
738.1669	-0.006
738.3444	-0.0006
738.5218	0.0012
738.6993	-0.0019
738.8767	-0.0073
739.0541	0.008
739.2315	-0.0097
739.4089	-0.0003
739.5863	0.0078
739.7636	-0.0072
739.9409	0.0119
740.1182	0.0122
740.2955	0.0161
740.4728	0.0033
740.65	0.0006
740.8272	-0.0029
741.0044	-0.005
741.1816	0.0048
741.3588	0.0022
741.5359	-0
741.7131	-0.0061
741.8902	-0.0052
742.0673	0.0058
742.2444	-0.0062
742.4214	-0.0185
742.5985	-0.0069
742.7755	-0.0049
742.9525	-0.0162
743.1295	0.0026
743.3064	-0.0124
743.4834	0.0036
743.6603	-0.0076
743.8372	-0.0009
744.0141	0.0079
744.191	0.0035
744.3678	-0.0054
744.5446	-0.0023
744.7215	-0.0033
744.8982	-0.0034
745.075	-0.0055
745.2518	-0.0011
745.4285	-0.008
745.6052	-0.0051
745.7819	-0.0138
745.9586	-0.0082
746.1353	-0.0012
746.3119	-0.0141
746.4885	-0.0065
746.6651	-0.0064
746.8417	-0.0071
747.0183	-0.0051
747.1948	-0.0123
747.3714	-0.0039
747.5479	-0.0009
747.7244	-0.0058
747.9008	-0.0021
748.0773	-0.0068
748.2537	-0.0007
748.4301	-0.0061
748.6065	0.0097
748.7829	-0.0035
748.9593	0.0007
749.1356	-0.0003
749.3119	0.014
749.4882	-0.0031
749.6645	0.0092
749.8408	-0.0071
750.017	-0.009
750.1933	-0.0041
750.3695	-0.0077
750.5457	0.0013
750.7218	-0.0015
750.898	0.0026
751.0741	-0.0075
751.2502	-0.0003
751.4263	-0.0035
751.6024	0.0019
751.7784	-0.0122
751.9545	0.0008
752.1305	-0.0003
752.3065	-0.0008
752.4825	-0.0002
752.6584	0.0049
752.8344	0.003
753.0103	-0.0188
753.1862	0.0012
753.3621	0.0039
753.5379	-0.0052
753.7138	-0.0027
753.8896	0.0077
754.0654	0.0113
754.2412	0.0059
754.417	0.0089
754.5927	-0.0033
754.7685	0.0015
754.9442	-0.0034
755.1199	0.0041
755.2956	-0.0023
755.4712	0.0063
755.6469	-0.0053
755.8225	-0.0015
755.9981	-0.0115
756.1736	-0.0041
756.3492	0.0019
756.5248	-0.0111
756.7003	0.0004
756.8758	0.0031
757.0513	-0.0137
757.2267	-0.0062
757.4022	0.0039
757.5776	-0.0165
757.753	-0.0022
757.9284	-0.0013
758.1038	0.0088
758.2791	0.0052
758.4545	-0.0137
758.6298	0.001
758.8051	-0.0014
758.9803	-0.0051
759.1556	-0.0034
759.3308	-0.0159
759.506	0.0127
759.6812	0.0018
759.8564	0.0127
760.0316	-0.0005
760.2067	0.0049
760.3819	0.0018
760.557	0.0196
760.732	-0.0004
760.9071	-0.0124
761.0821	0.0004
761.2572	0.0119
761.4322	-0.0012
761.6072	0.0069
761.7821	-0.0064
761.9571	0.0053
762.132	-0.0078
762.3069	-0.0118
762.4818	-0.0056
762.6567	-0.0059
762.8316	-0.0071
763.0064	-0.0065
763.1812	-0.0016
763.356	-0.007
763.5308	0.0056
763.7055	-0.0033
763.8803	-0.0035
764.055	-0.0013
764.2297	-0.013
764.4044	-0.0136
764.579	-0.0097
764.7537	-0.007
764.9283	-0.0038
765.1029	-0.0031
765.2775	0.0018
765.4521	-0.0047
765.6266	-0.0083
765.8011	-0.006
765.9756	-0.0016
766.1501	0.0111
766.3246	0.0084
766.4991	0.0037
766.6735	0.0014
766.8479	-0.0044
767.0223	0.0154
767.1967	0.0084
767.371	-0.0058
767.5454	-0.003
767.7197	0.0017
767.894	0.0035
768.0683	-0.0042
768.2425	-0.0004
768.4168	-0.0036
768.591	0.0049
768.7652	-0.0039
768.9394	0.0035
769.1135	0.0032
769.2877	0.0089
769.4618	0.0025
769.6359	0.0075
769.81	0.0007
769.984	-0.0049
770.1581	-0.011
770.3321	-0.0005
770.5061	-0.0132
770.6801	-0.0001
770.8541	-0.01
771.028	0.0124
771.202	-0.0072
771.3759	0.0108
771.5498	-0.0004
771.7236	0.0005
771.8975	0.0054
772.0713	0.0133
772.2451	0.0111
772.4189	0.0069
772.5927	0.0045
772.7665	0.0039
772.9402	0.0092
773.1139	0.0103
773.2876	-0.0003
773.4613	0.0161
773.635	0.0063
773.8086	-0.0011
773.9822	0.0021
774.1558	0.0016
774.3294	-0.0099
774.503	0.0064
774.6765	0.009
774.8501	0.0091
775.0236	0.0036
775.1971	0.0111
775.3705	0.0082
775.544	0.0097
775.7174	0.005
775.8908	0.0036
776.0642	0.0056
776.2376	0.0003
776.4109	0.0055
776.5843	-0.0017
776.7576	0.0138
776.9309	0.0129
777.1041	0.0193
777.2774	0.0156
777.4506	0.0114
777.6238	0.003
777.797	0.0086
777.9702	-0.0052
778.1434	0.0005
778.3165	-0.0066
778.4896	0.002
778.6627	0.0154
778.8358	-0.0037
779.0089	-0.0043
779.1819	-0.0048
779.3549	0.008
779.5279	0.0087
779.7009	-0.0104
779.8739	0.0021
780.0468	0.0019
780.2197	0.0026
780.3926	-0.0156
780.5655	-0.0037
780.7384	-0.0098
780.9112	0.0011
781.0841	0.0009
781.2569	0.0061
781.4297	0.004
781.6024	0.0084
781.7752	0.0084
781.9479	0.0095
782.1206	-0.0032
782.2933	-0.0166
782.466	0.0093
782.6386	0.0139
782.8113	0.0067
782.9839	0.0097
783.1565	0.0268
783.329	0.011
783.5016	0.005
783.6741	0.0065
783.8466	-0.0065
784.0191	0.0157
784.1916	-0.0053
784.3641	0.0106
784.5365	0.0129
784.7089	-0.0045
784.8813	-0.0061
785.0537	0.0089
785.2261	0.0033
785.3984	0.0042
785.5707	0.0078
785.743	0.0117
785.9153	0.0146
786.0876	0.007
786.2598	-0.0036
786.432	-0.0146
786.6042	0.0118
786.7764	-0.0069
786.9486	0.0038
787.1207	-0.0008
787.2928	0.0057
787.4649	0.0121
787.637	0.0139
787.8091	0.0153
787.9811	-0.0045
788.1532	0.0082
788.3252	0.0198
788.4972	-0.0005
788.6691	-0.0025
788.8411	0.0121
789.013	-0.0058
789.1849	0.0105
789.3568	-0.0022
789.5287	-0.0047
789.7005	-0.001
789.8723	-0.0007
790.0442	0.0207
790.2159	0.0155
790.3877	0.0011
790.5595	-0.0063
790.7312	-0.0022
790.9029	0.0007
791.0746	-0.0001
791.2463	0.0093
791.4179	0.0028
791.5896	-0.01
791.7612	-0.0026
791.9328	0.0128
792.1044	-0.0174
792.2759	-0.0101
792.4474	-0.0161
792.619	0.0028
792.7905	0.015
792.9619	0.0114
793.1334	0.0063
793.3048	0.008
793.4762	0.0169
793.6476	0.0013
793.819	-0.0012
793.9904	-0.0004
794.1617	-0.0129
794.333	-0.007
794.5043	-0.0036
794.6756	0.0078
794.8469	-0.0058
795.0181	0.0043
795.1893	-0.0052
795.3605	0.0009
795.5317	-0.0033
795.7029	0.0128
795.874	0.0062
796.0452	-0.0032
796.2163	0.0004
796.3873	0.0041
796.5584	0.0097
796.7294	-0.0124
796.9005	0.0087
797.0715	0.0226
797.2425	0.0086
797.4134	0.0093
797.5844	-0.0035
797.7553	-0.0133
797.9262	-0.0021
798.0971	-0.0075
798.2679	-0.0044
798.4388	-0.0161
798.6096	-0.0054
798.7804	-0.0016
798.9512	-0.0119
799.122	0.0102
799.2927	0.0109
799.4635	0.0167
799.6342	-0.0013
799.8049	-0.0067
799.9755	0.0027
800.1462	-0.0062
800.3168	0.0085
800.4874	-0.0013
800.658	0.0189
800.8286	0.0075
800.9991	0.0032
801.1696	0.0007
801.3402	0.0102
801.5106	-0.003
801.6811	-0.0015
801.8516	0.0371
802.022	0.0063
802.1924	0.0308
802.3628	0.0137
802.5332	0.0165
802.7035	0.0139
802.8739	-0.002
803.0442	0.0055
803.2145	0.0286
803.3847	-0.0141
803.555	0.019
803.7252	-0.0025
803.8954	0.0001
804.0656	-0.0087
804.2358	0.0102
804.4059	0.0262
804.5761	0.0099
804.7462	-0.0014
804.9163	-0.0049
805.0864	-0.0097
805.2564	-0.0156
805.4264	0.016
805.5965	-0.0177
805.7665	0.009
805.9364	-0.0077
806.1064	0.0239
806.2763	0.0016
806.4462	0.0175
806.6161	0.0014
806.786	0.0005
806.9559	-0.0211
807.1257	0.0109
807.2955	0.0055
807.4653	-0.0017
807.6351	-0.0102
807.8048	0.0079
807.9746	0.0214
808.1443	-0.0047
808.314	0.0145
808.4837	0.0157
808.6533	0.0054
808.8229	0.0396
808.9926	0.0096
809.1622	0.0103
809.3317	-0.0171
809.5013	0.0143
809.6708	0.0242
809.8403	0.0071
810.0098	0.0099
810.1793	0.0067
810.3488	0.0105
810.5182	-0.0201
810.6876	0.0049
810.857	-0.0026
811.0264	0.0276
811.1958	0.0121
811.3651	0.015
811.5344	0.0282
811.7037	0.0038
811.873	-0.0061
812.0422	0.0167
812.2115	0.0036
812.3807	0.001
812.5499	0.0138
812.7191	0.0124
812.8882	0.0041
813.0574	0.004
813.2265	0.0089
813.3956	0.0189
813.5646	-0.0138
813.7337	-0.0022
813.9027	0.0133
814.0718	0.0215
814.2407	0.0264
814.4097	-0.0024
814.5787	0.0146
814.7476	-0.0052
814.9165	0.01
815.0854	-0.0104
815.2543	0.001
815.4232	0.0205
815.592	0.0193
815.7608	-0.0031
815.9296	0.019
816.0984	0.0144
816.2671	0.0055
816.4359	0.0013
816.6046	0.0196
816.7733	0.0157
816.942	-0.0095
817.1106	0.005
817.2793	0.0323
817.4479	0.0183
817.6165	0.0208
817.785	0.0084
817.9536	0.0111
818.1221	0.0082
818.2906	-0.0011
818.4591	-0.0025
818.6276	-0.0086
818.7961	-0.0061
818.9645	0.0123
819.1329	-0.0035
819.3013	0.0387
819.4697	0.036
819.638	-0.0248
819.8064	0.0308
819.9747	0.0139
820.143	0.01
820.3113	-0.0173
820.4795	0.0298
820.6477	-0.0104
820.816	0.0068
820.9842	-0.0206
821.1523	-0.0102
821.3205	0.0235
821.4886	0.0071
821.6567	0.0055
821.8248	-0.003
821.9929	0.0185
822.1609	-0.0077
822.329	0.0301
822.497	0.0192
822.665	0.0138
822.833	0.0131
823.0009	0.0116
823.1688	0.0321
823.3367	0.0303
823.5046	0.0056
823.6725	0.0263
823.8404	0.0065
824.0082	0.0153
824.176	0.0325
824.3438	0.009
824.5116	-0.0073
824.6793	0.026
824.847	-0.0145
825.0147	0.0015
825.1824	0.0443
825.3501	0.0002
825.5177	-0.0073
825.6854	0.0137
825.853	0.0138
826.0206	-0.0136
826.1881	-0.0011
826.3557	-0.0115
826.5232	0.0402
826.6907	-0.0273
826.8582	0.0084
827.0257	-0.0245
827.1931	0.0084
827.3605	-0.0256
827.528	0.0182
827.6953	-0.0149
827.8627	0.0154
828.03	0.0311
828.1974	0.0107
828.3647	-0.0639
828.532	-0.0266
828.6992	0.0241
828.8665	-0.0244
829.0337	-0.0048
829.2009	-0.0077
829.3681	0.0195
829.5352	0.0363
829.7024	0.0117
829.8695	-0.002
830.0366	0.0415
830.2037	-0.0158
830.3707	0.0373
830.5378	-0.0024
830.7048	-0.0184
830.8718	0.004
831.0388	-0.0105
831.2057	0.004
831.3727	0.0205
831.5396	-0.0071
831.7065	0.0119
831.8734	0.019
832.0402	-0.0252
832.2071	0.0175
832.3739	0.0168
832.5407	-0.0314
832.7075	-0.0241
832.8742	-0.0004
833.041	-0.0281
833.2077	0.0139
833.3744	0.0032
833.541	-0.0075
833.7077	-0.0078
833.8743	0.0022
834.0409	0.019
834.2075	-0.0147
834.3741	0.0096
834.5407	0.0073
834.7072	0.036
834.8737	-0.0204
835.0402	0.0023
835.2067	0.0366
835.3731	0.0311
835.5395	0.0307
835.706	0.0154
835.8723	-0.0194
836.0387	0.0092
836.2051	0.0239
836.3714	0.0058
836.5377	0.0143
836.704	-0.0117
836.8703	0.0065
837.0365	-0.0026
837.2027	-0.061
837.3689	0.0296
837.5351	-0.0101
837.7013	-0.0252
837.8674	-0.0531
838.0335	-0.0373
838.1997	-0.0085
838.3657	-0.0558
838.5318	0.001
838.6978	0.0061
838.8639	0.0124
839.0299	0.0064
839.1958	0.0138
839.3618	0.0012
839.5277	0.0099
839.6937	-0.0005
839.8596	-0.0157
840.0254	0.0512
840.1913	-0.0214
840.3571	0.0312
840.523	0.0064
840.6888	-0.0339
840.8545	-0.0203
841.0203	0.0083
841.186	0.0108
841.3517	0.0004
841.5174	0.0074
841.6831	-0.0015
841.8488	-0.0085
842.0144	-0.0024
842.18	-0.0023
842.3456	-0.0135
842.5112	0.0066
842.6767	-0.0074
842.8422	0.0235
843.0077	-0.0455
843.1732	0.0319
843.3387	0.0167
843.5042	-0.0364
843.6696	-0.0055
843.835	0.0092
844.0004	0.0653
844.1657	-0.0056
844.3311	-0.0355
844.4964	-0.0323
844.6617	-0.0051
844.827	0.0005
844.9923	-0.0512
845.1575	-0.0193
845.3227	-0.0264
845.4879	-0.0464
845.6531	-0.0744
845.8183	-0.0213
845.9834	-0.0366
846.1485	0.0126
846.3136	-0.0487
846.4787	-0.0942
846.6438	0.0238
846.8088	-0.0412
846.9738	-0.0654
847.1388	-0.005
847.3038	-0.0301
847.4687	-0.1291
847.6337	-0.0355
847.7986	0.0182
847.9635	-0.0375
848.1284	0.0145
848.2932	0.0692
848.458	-0.0044
848.6228	0.0293
848.7876	0.0674
848.9524	-0.0482
849.1172	-0.0849
849.2819	0.0119
849.4466	-0.1099
849.6113	-0.0617
849.7759	0.0089
849.9406	0.0218
850.1052	0.0175
850.2698	-0.0425
850.4344	-0.0277
850.599	-0.0524
850.7635	0.0606
850.928	-0.0447
851.0925	0.0066
851.257	-0.0046
851.4215	0.0835
851.5859	-0.0547
851.7503	0.0053
851.9147	0.0107
852.0791	-0.0312
852.2434	-0.0286
852.4078	0.0228
852.5721	-0.0525
852.7364	-0.023
852.9007	-0.2222
853.0649	-0.0422
853.2291	-0.0828
853.3934	0.0247
853.5575	0.133
853.7217	-0.1356
853.8859	-0.0064
854.05	-0.0271
854.2141	0.0116
854.3782	-0.0497
854.5423	-0.0434
854.7063	0.1903
854.8703	0.0357
855.0343	-0.0379
855.1983	-0.1725
855.3623	0.0407
855.5262	-0.0255
855.6901	-0.0063
855.854	0.0376
856.0179	0.0919
856.1818	0.0283
856.3456	-0.0313
856.5094	-0.103
856.6732	-0.0716
856.837	-0.0566
857.0008	0.0954
857.1645	-0.0338
857.3282	-0.2468
857.4919	-0.0413
857.6556	-0.1131
857.8192	-0.0823
857.9828	-0.0183
858.1465	0.074
858.31	-0.0183
858.4736	-0.0814
858.6372	-0.3138
858.8007	-0.2945
858.9642	-0.1821
859.1277	0.355
859.2911	-0.0545
859.4546	-0.0129
859.618	-0.4403
859.7814	0.1079
859.9448	-0.0665
860.1081	-0.0083
860.2715	0.1086
860.4348	0.2001
860.5981	0.0067
860.7614	0.0545
860.9246	0.2477
861.0879	-0.013
861.2511	0.1732
861.4143	-0.4179
861.5774	0.1004
861.7406	-0.1152
861.9037	0.3683
862.0668	-0.2532
862.2299	-0.2366
862.393	-0.3891
862.556	-0.0586
862.7191	0.1428
862.8821	-0.1975
863.0451	0.0078
863.208	-0.0066
863.371	-0.0026
863.5339	-0.309
863.6968	0.0172
863.8597	-0.0691
864.0225	-0.0535
864.1854	0.0945
864.3482	0.131
864.511	0.0631
864.6737	-0.0412
864.8365	0.1043
864.9992	-0.7279
865.1619	-0.0609
865.3246	-0.2744
865.4873	-0.0831
865.65	0.0224
865.8126	-0.0347
865.9752	0.2833
866.1378	-0.1297
866.3004	0.2207
866.4629	0.0929
866.6254	-0.1133
866.7879	0.2275
866.9504	-0.0383
867.1129	-0
867.2753	0.1428
867.4377	0.8362
867.6001	-0.4837
867.7625	0.498
867.9249	-0.2263
868.0872	-0.0686
868.2495	0.0404
868.4118	-0.4239
868.5741	-0
868.7363	-0.2891
868.8986	-0.4947
869.0608	0.2104
869.223	0.1159
869.3851	0.6749
869.5473	-0
869.7094	0.2749
869.8715	-0.3735
870.0336	-0
870.1957	0.3305
870.3577	-0
870.5197	0.2731
870.6817	-0.3347
870.8437	-0.1849
871.0057	-0
871.1676	0.1779
871.3295	-0.0137
871.4914	-0.1761
871.6533	-0.3351
871.8151	-0.3683
871.977	-0
872.1388	-0
872.3006	-0
872.4623	-0
872.6241	0.0781
872.7858	0.3691
872.9475	-0.3228
873.1092	-0.4593
873.2709	-0
873.4325	1.3031
873.5941	0.2186
873.7557	-0
873.9173	-0
874.0789	-0.6029
874.2404	0.9803
874.4019	0.927
874.5634	-0.0973
874.7249	-0.1761
874.8863	-0.1906
875.0478	-0.0951
875.2092	-0
875.3706	-0
875.5319	-0.9836
875.6933	-0.1363
875.8546	-0
876.0159	-0
876.1772	-0.2582
876.3385	-0
876.4997	0.409
876.6609	-0.5198
876.8221	-0
876.9833	-0
877.1445	-0
877.3056	0.088
877.4667	-0
877.6278	-0
877.7889	-0.3334
877.9499	-0
878.111	0.1392
878.272	-0
878.433	-0
878.5939	0.4009
878.7549	0.03
878.9158	-0
879.0767	-0
879.2376	0.2005
879.3984	0.0765
879.5593	-0
879.7201	-0.1115
879.8809	-0.3685
880.0417	-0.3601
880.2024	0.3221
880.3632	-0.8025
880.5239	0.7699
880.6846	-0
880.8452	-2.4289
881.0059	-0
881.1665	0.1879
881.3271	0.4957
881.4877	0.4331
881.6483	-0.1297
881.8088	-0.3711
881.9693	0.3405
882.1298	0.3405
882.2903	0.3405
