Data from MonoPyChalIsomerACN10uM360nmA_Absorbance_13-57-25-404.txt Node
Date: Fri Jul 05 13:57:25 BST 2024
User: LASERRRRR
Spectrometer: FLMT03099
Trigger mode: 0
Integration Time (sec): 1.000000E-1
Scans to average: 1
Electric dark correction enabled: true
Nonlinearity correction enabled: false
Boxcar width: 0
XAxis mode: Wavelengths
Number of Pixels in Spectrum: 3648
>>>>>Begin Spectral Data<<<<<
179.3399	0.0142
179.5586	0.0142
179.7771	0.0142
179.9957	-0
180.2143	0.5063
180.4329	0.4466
180.6514	-0
180.8699	-0
181.0885	-0.2065
181.307	0.275
181.5255	-0
181.744	-0.6705
181.9625	-0
182.181	-0.8403
182.3994	-0
182.6179	-0
182.8363	0.488
183.0547	0.5618
183.2732	-0.0033
183.4916	0.293
183.71	0.1166
183.9284	0.2154
184.1467	0.1636
184.3651	-0.0932
184.5835	-0.034
184.8018	-0.0047
185.0201	0.1177
185.2385	0.0852
185.4568	0.0895
185.6751	0.0631
185.8934	0.056
186.1117	0.0439
186.3299	-0.051
186.5482	0.2241
186.7664	-0.1673
186.9847	0.2461
187.2029	0.1606
187.4211	0.1928
187.6393	-0.0584
187.8575	0.1483
188.0757	0.1853
188.2939	-0.0075
188.512	0.1003
188.7302	0.0129
188.9483	0.2895
189.1665	0.3333
189.3846	-0.0346
189.6027	0.3228
189.8208	0.1427
190.0389	0.2099
190.257	0.3867
190.475	0.1816
190.6931	0.2643
190.9111	0.4442
191.1292	0.2697
191.3472	0.4237
191.5652	0.1197
191.7832	0.2241
192.0012	0.5276
192.2192	0.4379
192.4371	0.3838
192.6551	0.3881
192.873	0.5458
193.091	0.4792
193.3089	0.9099
193.5268	0.6124
193.7447	0.6387
193.9626	0.535
194.1805	0.6414
194.3984	1.059
194.6162	0.6727
194.8341	0.51
195.0519	0.7989
195.2697	0.6509
195.4875	0.5497
195.7054	0.7321
195.9231	0.4692
196.1409	0.5893
196.3587	0.6488
196.5765	0.5915
196.7942	0.4864
197.012	0.6013
197.2297	0.5307
197.4474	0.8193
197.6651	0.5516
197.8828	0.5538
198.1005	0.6762
198.3182	0.5244
198.5358	0.7291
198.7535	0.5419
198.9711	0.5061
199.1888	0.7068
199.4064	0.7856
199.624	0.6014
199.8416	0.7309
200.0592	0.611
200.2767	0.5796
200.4943	0.6356
200.7119	0.6327
200.9294	0.7907
201.1469	0.547
201.3645	0.6577
201.582	0.66
201.7995	0.6378
202.017	0.5878
202.2344	0.5303
202.4519	0.7476
202.6694	0.6938
202.8868	0.5745
203.1042	0.7501
203.3217	0.6394
203.5391	0.7917
203.7565	0.6329
203.9739	0.6961
204.1913	0.6007
204.4086	0.6456
204.626	0.6599
204.8433	0.5894
205.0607	0.6122
205.278	0.6521
205.4953	0.5908
205.7126	0.7522
205.9299	0.7217
206.1472	0.7521
206.3644	0.6078
206.5817	0.6704
206.7989	0.7924
207.0162	0.6975
207.2334	0.6986
207.4506	0.6424
207.6678	0.6357
207.885	0.6645
208.1022	0.6755
208.3194	0.6394
208.5365	0.6336
208.7537	0.6446
208.9708	0.5344
209.1879	0.625
209.405	0.6326
209.6222	0.6655
209.8392	0.5489
210.0563	0.6478
210.2734	0.6675
210.4905	0.6335
210.7075	0.597
210.9245	0.5585
211.1416	0.6717
211.3586	0.5727
211.5756	0.5574
211.7926	0.5338
212.0096	0.5618
212.2265	0.5915
212.4435	0.5582
212.6604	0.5754
212.8774	0.5819
213.0943	0.6212
213.3112	0.5414
213.5281	0.5109
213.745	0.49
213.9619	0.5208
214.1788	0.5153
214.3956	0.4359
214.6125	0.462
214.8293	0.4681
215.0461	0.5213
215.2629	0.4962
215.4798	0.4757
215.6965	0.42
215.9133	0.4429
216.1301	0.4078
216.3469	0.4296
216.5636	0.409
216.7803	0.3864
216.9971	0.3849
217.2138	0.3777
217.4305	0.3713
217.6472	0.3507
217.8639	0.367
218.0805	0.3365
218.2972	0.3403
218.5138	0.3111
218.7305	0.3494
218.9471	0.3274
219.1637	0.3041
219.3803	0.2992
219.5969	0.2878
219.8135	0.2644
220.0301	0.2727
220.2466	0.2765
220.4632	0.263
220.6797	0.2378
220.8962	0.2489
221.1127	0.2593
221.3292	0.2661
221.5457	0.229
221.7622	0.2282
221.9787	0.257
222.1951	0.2474
222.4116	0.2801
222.628	0.2521
222.8444	0.2774
223.0608	0.2702
223.2772	0.2666
223.4936	0.2807
223.71	0.234
223.9264	0.2974
224.1427	0.2718
224.3591	0.2723
224.5754	0.2681
224.7917	0.2735
225.008	0.2709
225.2243	0.2412
225.4406	0.2946
225.6569	0.2668
225.8732	0.2805
226.0894	0.2628
226.3057	0.2713
226.5219	0.3089
226.7381	0.2862
226.9543	0.2875
227.1705	0.2819
227.3867	0.2757
227.6029	0.3086
227.8191	0.3125
228.0352	0.2935
228.2513	0.2836
228.4675	0.3167
228.6836	0.3106
228.8997	0.2933
229.1158	0.3255
229.3319	0.322
229.548	0.3475
229.764	0.3194
229.9801	0.3231
230.1961	0.3323
230.4121	0.3573
230.6282	0.3475
230.8442	0.3363
231.0602	0.3533
231.2761	0.3592
231.4921	0.3517
231.7081	0.3709
231.924	0.3753
232.14	0.3647
232.3559	0.3413
232.5718	0.3679
232.7877	0.3579
233.0036	0.3564
233.2195	0.3821
233.4353	0.3632
233.6512	0.3764
233.867	0.3567
234.0829	0.3743
234.2987	0.3615
234.5145	0.3989
234.7303	0.3748
234.9461	0.3901
235.1619	0.3824
235.3776	0.3815
235.5934	0.4122
235.8091	0.369
236.0249	0.3755
236.2406	0.3817
236.4563	0.3852
236.672	0.3963
236.8877	0.3885
237.1034	0.4278
237.319	0.3976
237.5347	0.416
237.7503	0.3981
237.966	0.4191
238.1816	0.4154
238.3972	0.3998
238.6128	0.3883
238.8284	0.4018
239.0439	0.4262
239.2595	0.4111
239.475	0.4103
239.6906	0.4094
239.9061	0.4063
240.1216	0.4167
240.3371	0.424
240.5526	0.3958
240.7681	0.4261
240.9836	0.3869
241.199	0.4067
241.4145	0.3802
241.6299	0.385
241.8453	0.3903
242.0607	0.3823
242.2761	0.3731
242.4915	0.3697
242.7069	0.362
242.9223	0.3492
243.1376	0.3506
243.353	0.3407
243.5683	0.3455
243.7836	0.3302
243.9989	0.339
244.2142	0.3172
244.4295	0.3066
244.6448	0.3064
244.86	0.3146
245.0753	0.2839
245.2905	0.2813
245.5057	0.2609
245.721	0.2796
245.9362	0.2788
246.1514	0.2628
246.3665	0.2562
246.5817	0.2627
246.7969	0.2521
247.012	0.2357
247.2271	0.2489
247.4423	0.244
247.6574	0.2393
247.8725	0.2302
248.0876	0.2111
248.3026	0.2324
248.5177	0.2123
248.7328	0.2152
248.9478	0.2061
249.1628	0.2186
249.3779	0.225
249.5929	0.21
249.8079	0.2038
250.0228	0.2078
250.2378	0.2006
250.4528	0.2069
250.6677	0.1796
250.8827	0.1976
251.0976	0.1971
251.3125	0.1909
251.5274	0.183
251.7423	0.1872
251.9572	0.1821
252.172	0.1758
252.3869	0.1744
252.6017	0.1789
252.8166	0.1714
253.0314	0.1729
253.2462	0.1636
253.461	0.1752
253.6758	0.1698
253.8906	0.1706
254.1053	0.1765
254.3201	0.1712
254.5348	0.1772
254.7496	0.1742
254.9643	0.1639
255.179	0.182
255.3937	0.1644
255.6083	0.1747
255.823	0.1729
256.0377	0.164
256.2523	0.1686
256.467	0.1637
256.6816	0.169
256.8962	0.1639
257.1108	0.1649
257.3254	0.1763
257.54	0.1662
257.7545	0.1665
257.9691	0.183
258.1836	0.1595
258.3981	0.1792
258.6127	0.1828
258.8272	0.163
259.0417	0.1679
259.2561	0.1545
259.4706	0.1645
259.6851	0.1598
259.8995	0.1686
260.114	0.153
260.3284	0.1782
260.5428	0.158
260.7572	0.1637
260.9716	0.1581
261.186	0.1449
261.4003	0.1724
261.6147	0.1734
261.829	0.1596
262.0433	0.1689
262.2577	0.159
262.472	0.1555
262.6863	0.1557
262.9005	0.1642
263.1148	0.165
263.3291	0.1613
263.5433	0.1695
263.7576	0.158
263.9718	0.1584
264.186	0.1529
264.4002	0.1569
264.6144	0.1519
264.8286	0.1679
265.0427	0.1593
265.2569	0.1521
265.471	0.1592
265.6851	0.1575
265.8993	0.1508
266.1134	0.1519
266.3275	0.1597
266.5415	0.1553
266.7556	0.1748
266.9697	0.1597
267.1837	0.1636
267.3978	0.1578
267.6118	0.1687
267.8258	0.1702
268.0398	0.1566
268.2538	0.1625
268.4677	0.1646
268.6817	0.1609
268.8957	0.1667
269.1096	0.1711
269.3235	0.1609
269.5374	0.1597
269.7514	0.1434
269.9652	0.1593
270.1791	0.1468
270.393	0.1496
270.6068	0.1629
270.8207	0.1431
271.0345	0.1437
271.2483	0.1449
271.4622	0.1458
271.676	0.1508
271.8897	0.1474
272.1035	0.1397
272.3173	0.1366
272.531	0.1378
272.7448	0.1429
272.9585	0.1388
273.1722	0.1355
273.3859	0.1482
273.5996	0.1295
273.8133	0.1407
274.0269	0.1366
274.2406	0.1345
274.4542	0.1469
274.6679	0.1318
274.8815	0.1457
275.0951	0.1451
275.3087	0.1455
275.5223	0.1455
275.7358	0.1464
275.9494	0.1369
276.1629	0.1356
276.3765	0.1435
276.59	0.1412
276.8035	0.1461
277.017	0.1408
277.2305	0.1518
277.444	0.1449
277.6574	0.1345
277.8709	0.1439
278.0843	0.1369
278.2978	0.1459
278.5112	0.15
278.7246	0.136
278.938	0.144
279.1513	0.149
279.3647	0.1577
279.5781	0.1434
279.7914	0.1383
280.0047	0.1591
280.2181	0.1472
280.4314	0.153
280.6447	0.1492
280.8579	0.1405
281.0712	0.1499
281.2845	0.1629
281.4977	0.1446
281.711	0.1471
281.9242	0.1489
282.1374	0.1413
282.3506	0.1549
282.5638	0.1583
282.7769	0.1509
282.9901	0.146
283.2033	0.1507
283.4164	0.1538
283.6295	0.1428
283.8426	0.1552
284.0557	0.1603
284.2688	0.168
284.4819	0.1603
284.695	0.1532
284.908	0.1682
285.1211	0.153
285.3341	0.1604
285.5471	0.1585
285.7601	0.1563
285.9731	0.1638
286.1861	0.1459
286.3991	0.1652
286.612	0.1742
286.825	0.1704
287.0379	0.1598
287.2508	0.1566
287.4637	0.1766
287.6766	0.1491
287.8895	0.1668
288.1024	0.1824
288.3152	0.1715
288.5281	0.1523
288.7409	0.1698
288.9538	0.1645
289.1666	0.1566
289.3794	0.1765
289.5922	0.159
289.8049	0.1782
290.0177	0.1584
290.2304	0.1817
290.4432	0.1747
290.6559	0.1641
290.8686	0.1693
291.0813	0.1648
291.294	0.1771
291.5067	0.1744
291.7194	0.158
291.932	0.1692
292.1447	0.1646
292.3573	0.1555
292.5699	0.1606
292.7825	0.1724
292.9951	0.1657
293.2077	0.1716
293.4203	0.1652
293.6328	0.1496
293.8454	0.1819
294.0579	0.1632
294.2704	0.1798
294.4829	0.1625
294.6954	0.1621
294.9079	0.1731
295.1204	0.1641
295.3328	0.1664
295.5453	0.167
295.7577	0.1675
295.9701	0.1561
296.1825	0.1646
296.3949	0.1697
296.6073	0.1698
296.8197	0.1683
297.0321	0.1796
297.2444	0.1587
297.4567	0.1692
297.6691	0.1607
297.8814	0.1592
298.0937	0.1628
298.306	0.1643
298.5182	0.1675
298.7305	0.1733
298.9428	0.1594
299.155	0.1709
299.3672	0.1698
299.5794	0.1688
299.7916	0.1681
300.0038	0.1707
300.216	0.1794
300.4282	0.164
300.6403	0.16
300.8525	0.1714
301.0646	0.1588
301.2767	0.1705
301.4888	0.1683
301.7009	0.1671
301.913	0.1671
302.125	0.165
302.3371	0.1688
302.5491	0.1721
302.7612	0.1876
302.9732	0.1744
303.1852	0.166
303.3972	0.1625
303.6092	0.1611
303.8211	0.1611
304.0331	0.153
304.245	0.1622
304.457	0.1433
304.6689	0.1591
304.8808	0.1761
305.0927	0.1555
305.3046	0.1583
305.5164	0.1653
305.7283	0.1549
305.9401	0.1509
306.152	0.1497
306.3638	0.1679
306.5756	0.1418
306.7874	0.141
306.9992	0.1576
307.2109	0.1351
307.4227	0.1346
307.6344	0.1434
307.8462	0.1355
308.0579	0.1433
308.2696	0.1369
308.4813	0.1377
308.693	0.1283
308.9046	0.1456
309.1163	0.1317
309.328	0.1256
309.5396	0.1326
309.7512	0.1218
309.9628	0.1273
310.1744	0.1284
310.386	0.1257
310.5976	0.1235
310.8091	0.13
311.0207	0.1259
311.2322	0.1211
311.4437	0.1167
311.6552	0.1148
311.8667	0.1044
312.0782	0.0985
312.2897	0.1096
312.5012	0.1173
312.7126	0.1025
312.924	0.1018
313.1355	0.1193
313.3469	0.101
313.5583	0.104
313.7696	0.1037
313.981	0.1112
314.1924	0.1122
314.4037	0.1096
314.6151	0.1131
314.8264	0.1007
315.0377	0.1013
315.249	0.1083
315.4603	0.0953
315.6716	0.1045
315.8828	0.0918
316.0941	0.1025
316.3053	0.0931
316.5165	0.0899
316.7277	0.0933
316.9389	0.1108
317.1501	0.096
317.3613	0.0952
317.5724	0.079
317.7836	0.1016
317.9947	0.0992
318.2058	0.0933
318.417	0.0864
318.6281	0.0899
318.8391	0.0998
319.0502	0.0926
319.2613	0.1024
319.4723	0.0981
319.6834	0.0946
319.8944	0.1001
320.1054	0.0964
320.3164	0.1028
320.5274	0.1014
320.7383	0.1007
320.9493	0.0842
321.1602	0.1066
321.3712	0.0898
321.5821	0.1004
321.793	0.1044
322.0039	0.0961
322.2148	0.1024
322.4257	0.109
322.6365	0.0917
322.8474	0.092
323.0582	0.0901
323.269	0.0973
323.4798	0.1036
323.6906	0.0907
323.9014	0.1018
324.1122	0.1143
324.3229	0.0859
324.5337	0.0994
324.7444	0.1076
324.9551	0.1128
325.1658	0.1053
325.3765	0.096
325.5872	0.094
325.7979	0.1005
326.0085	0.1011
326.2192	0.1102
326.4298	0.1112
326.6404	0.0887
326.851	0.0951
327.0616	0.0933
327.2722	0.1118
327.4828	0.115
327.6933	0.1005
327.9039	0.0974
328.1144	0.1106
328.3249	0.111
328.5354	0.0868
328.7459	0.1055
328.9564	0.0882
329.1669	0.093
329.3773	0.1055
329.5878	0.0975
329.7982	0.1016
330.0086	0.107
330.219	0.1111
330.4294	0.1025
330.6398	0.0955
330.8502	0.1003
331.0605	0.0973
331.2708	0.1072
331.4812	0.1091
331.6915	0.1023
331.9018	0.1058
332.1121	0.102
332.3224	0.1069
332.5326	0.1058
332.7429	0.1081
332.9531	0.1118
333.1633	0.1124
333.3735	0.1055
333.5837	0.1073
333.7939	0.1055
334.0041	0.1123
334.2143	0.1128
334.4244	0.1133
334.6346	0.0957
334.8447	0.1081
335.0548	0.1072
335.2649	0.1018
335.475	0.117
335.685	0.105
335.8951	0.1061
336.1051	0.1184
336.3152	0.1099
336.5252	0.1073
336.7352	0.1219
336.9452	0.1123
337.1552	0.1162
337.3652	0.0951
337.5751	0.1107
337.7851	0.1057
337.995	0.1142
338.2049	0.1067
338.4148	0.1032
338.6247	0.1147
338.8346	0.0959
339.0445	0.1138
339.2543	0.105
339.4642	0.1096
339.674	0.1081
339.8838	0.1099
340.0936	0.1062
340.3034	0.1114
340.5132	0.121
340.7229	0.1142
340.9327	0.1136
341.1424	0.1112
341.3522	0.1289
341.5619	0.1167
341.7716	0.1219
341.9813	0.1205
342.1909	0.1167
342.4006	0.1251
342.6102	0.1149
342.8199	0.124
343.0295	0.1276
343.2391	0.1228
343.4487	0.1225
343.6583	0.1154
343.8679	0.119
344.0774	0.1212
344.287	0.1462
344.4965	0.1213
344.706	0.1215
344.9155	0.1176
345.125	0.1246
345.3345	0.1328
345.544	0.1268
345.7534	0.1255
345.9629	0.1185
346.1723	0.1354
346.3817	0.1166
346.5911	0.1385
346.8005	0.1332
347.0099	0.1265
347.2193	0.1341
347.4286	0.1284
347.638	0.1326
347.8473	0.1341
348.0566	0.1359
348.2659	0.1378
348.4752	0.1451
348.6845	0.1397
348.8937	0.1364
349.103	0.1426
349.3122	0.1278
349.5214	0.1301
349.7306	0.1371
349.9398	0.1413
350.149	0.1366
350.3582	0.1297
350.5674	0.154
350.7765	0.1434
350.9856	0.1496
351.1948	0.1358
351.4039	0.1234
351.613	0.1329
351.822	0.1399
352.0311	0.1467
352.2402	0.141
352.4492	0.1558
352.6582	0.148
352.8672	0.1496
353.0762	0.1541
353.2852	0.1334
353.4942	0.1488
353.7032	0.1564
353.9121	0.148
354.1211	0.1637
354.33	0.148
354.5389	0.1606
354.7478	0.1492
354.9567	0.1399
355.1655	0.1484
355.3744	0.1526
355.5833	0.1495
355.7921	0.1707
356.0009	0.1607
356.2097	0.1605
356.4185	0.1635
356.6273	0.168
356.8361	0.1666
357.0448	0.1619
357.2536	0.1418
357.4623	0.1482
357.671	0.1703
357.8797	0.1833
358.0884	0.1775
358.2971	0.1588
358.5057	0.1606
358.7144	0.1688
358.923	0.1755
359.1316	0.1666
359.3402	0.167
359.5488	0.1665
359.7574	0.1625
359.966	0.1659
360.1746	0.1749
360.3831	0.1732
360.5916	0.1733
360.8002	0.1782
361.0087	0.181
361.2172	0.1716
361.4256	0.1691
361.6341	0.1887
361.8426	0.1924
362.051	0.1777
362.2594	0.1757
362.4678	0.1824
362.6762	0.2154
362.8846	0.1852
363.093	0.1799
363.3014	0.1933
363.5097	0.1756
363.718	0.1876
363.9264	0.1997
364.1347	0.1885
364.343	0.1998
364.5513	0.2044
364.7595	0.2142
364.9678	0.1989
365.176	0.1981
365.3842	0.2069
365.5925	0.194
365.8007	0.2014
366.0089	0.1985
366.217	0.1937
366.4252	0.2149
366.6333	0.2039
366.8415	0.2042
367.0496	0.1918
367.2577	0.2033
367.4658	0.2203
367.6739	0.2157
367.882	0.2245
368.09	0.2099
368.2981	0.212
368.5061	0.1951
368.7141	0.212
368.9221	0.2154
369.1301	0.2205
369.3381	0.2084
369.5461	0.2305
369.754	0.2229
369.962	0.2086
370.1699	0.2189
370.3778	0.2292
370.5857	0.2142
370.7936	0.234
371.0015	0.2183
371.2093	0.2261
371.4172	0.2334
371.625	0.2052
371.8328	0.2139
372.0406	0.2254
372.2484	0.2159
372.4562	0.2332
372.664	0.24
372.8717	0.2467
373.0795	0.2054
373.2872	0.2299
373.4949	0.2165
373.7026	0.2497
373.9103	0.2381
374.118	0.252
374.3256	0.2324
374.5333	0.2365
374.7409	0.2358
374.9485	0.2393
375.1561	0.2233
375.3637	0.2278
375.5713	0.237
375.7789	0.2277
375.9864	0.2377
376.194	0.24
376.4015	0.2423
376.609	0.2491
376.8165	0.2462
377.024	0.236
377.2315	0.2347
377.4389	0.2469
377.6464	0.2555
377.8538	0.2672
378.0612	0.2355
378.2686	0.2609
378.476	0.2758
378.6834	0.2719
378.8908	0.2522
379.0981	0.2532
379.3055	0.2557
379.5128	0.2394
379.7201	0.2628
379.9274	0.2401
380.1347	0.2652
380.342	0.2593
380.5492	0.2487
380.7565	0.2487
380.9637	0.2567
381.1709	0.2517
381.3781	0.2711
381.5853	0.2558
381.7925	0.2528
381.9997	0.2812
382.2068	0.2577
382.4139	0.2548
382.6211	0.2528
382.8282	0.2502
383.0353	0.2607
383.2424	0.2605
383.4494	0.254
383.6565	0.2642
383.8635	0.2551
384.0706	0.2644
384.2776	0.2759
384.4846	0.2512
384.6916	0.2499
384.8986	0.2694
385.1055	0.2751
385.3125	0.2628
385.5194	0.2532
385.7263	0.2656
385.9333	0.2652
386.1402	0.269
386.347	0.2586
386.5539	0.2646
386.7608	0.2676
386.9676	0.2523
387.1744	0.275
387.3813	0.2504
387.5881	0.2502
387.7948	0.2717
388.0016	0.263
388.2084	0.2591
388.4151	0.2592
388.6219	0.2686
388.8286	0.2509
389.0353	0.2728
389.242	0.2674
389.4487	0.2557
389.6553	0.2418
389.862	0.2291
390.0686	0.2448
390.2753	0.259
390.4819	0.2427
390.6885	0.2326
390.8951	0.2675
391.1016	0.2535
391.3082	0.2561
391.5147	0.2467
391.7213	0.2572
391.9278	0.2407
392.1343	0.2288
392.3408	0.2467
392.5473	0.2505
392.7537	0.229
392.9602	0.2445
393.1666	0.25
393.373	0.2329
393.5794	0.2631
393.7858	0.2403
393.9922	0.2446
394.1986	0.2497
394.4049	0.2259
394.6113	0.2473
394.8176	0.2167
395.0239	0.2297
395.2302	0.2292
395.4365	0.2334
395.6428	0.2243
395.8491	0.2146
396.0553	0.2404
396.2615	0.2329
396.4678	0.226
396.674	0.2163
396.8802	0.2233
397.0863	0.2294
397.2925	0.2231
397.4987	0.2219
397.7048	0.2184
397.9109	0.2162
398.117	0.217
398.3231	0.2194
398.5292	0.227
398.7353	0.2233
398.9413	0.2197
399.1474	0.2235
399.3534	0.2203
399.5594	0.2063
399.7654	0.2334
399.9714	0.2352
400.1774	0.2343
400.3833	0.2115
400.5893	0.2118
400.7952	0.2261
401.0011	0.2245
401.207	0.2275
401.4129	0.2077
401.6188	0.2224
401.8247	0.2102
402.0305	0.1984
402.2364	0.2213
402.4422	0.2188
402.648	0.2183
402.8538	0.2583
403.0596	0.2153
403.2654	0.2156
403.4711	0.2247
403.6768	0.2364
403.8826	0.233
404.0883	0.2405
404.294	0.2309
404.4997	0.224
404.7054	0.2101
404.911	0.22
405.1167	0.2121
405.3223	0.2318
405.5279	0.2234
405.7335	0.2294
405.9391	0.2258
406.1447	0.2043
406.3502	0.2569
406.5558	0.2336
406.7613	0.2388
406.9668	0.2135
407.1724	0.2078
407.3778	0.2232
407.5833	0.2162
407.7888	0.225
407.9942	0.2511
408.1997	0.2199
408.4051	0.2245
408.6105	0.2179
408.8159	0.2144
409.0213	0.2073
409.2267	0.2304
409.432	0.2028
409.6374	0.2246
409.8427	0.2078
410.048	0.2198
410.2533	0.2275
410.4586	0.2183
410.6639	0.2054
410.8691	0.2181
411.0744	0.2257
411.2796	0.2069
411.4848	0.221
411.69	0.2103
411.8952	0.2377
412.1004	0.2093
412.3056	0.2149
412.5107	0.2186
412.7158	0.2291
412.921	0.2197
413.1261	0.2283
413.3312	0.209
413.5362	0.2071
413.7413	0.2015
413.9464	0.2272
414.1514	0.2101
414.3564	0.22
414.5614	0.1862
414.7664	0.2063
414.9714	0.211
415.1764	0.2176
415.3813	0.2192
415.5863	0.2162
415.7912	0.2274
415.9961	0.2019
416.201	0.226
416.4059	0.2115
416.6108	0.2156
416.8156	0.2192
417.0205	0.2125
417.2253	0.2086
417.4301	0.2148
417.6349	0.2127
417.8397	0.2022
418.0445	0.2204
418.2492	0.2078
418.454	0.2035
418.6587	0.2123
418.8634	0.2156
419.0681	0.2217
419.2728	0.2095
419.4775	0.1968
419.6822	0.1961
419.8868	0.188
420.0915	0.1861
420.2961	0.2088
420.5007	0.1844
420.7053	0.2027
420.9099	0.1963
421.1144	0.1957
421.319	0.183
421.5235	0.2022
421.728	0.2127
421.9325	0.204
422.137	0.2094
422.3415	0.1819
422.546	0.1963
422.7504	0.1995
422.9549	0.1959
423.1593	0.2013
423.3637	0.191
423.5681	0.1975
423.7725	0.1874
423.9769	0.1958
424.1812	0.172
424.3856	0.1849
424.5899	0.194
424.7942	0.2
424.9985	0.1967
425.2028	0.1799
425.4071	0.1874
425.6113	0.1726
425.8156	0.1743
426.0198	0.182
426.224	0.182
426.4282	0.1615
426.6324	0.168
426.8366	0.1703
427.0407	0.1762
427.2449	0.1637
427.449	0.1835
427.6531	0.1528
427.8572	0.1739
428.0613	0.1677
428.2654	0.1668
428.4694	0.1634
428.6735	0.1713
428.8775	0.1781
429.0815	0.1666
429.2855	0.1396
429.4895	0.1576
429.6935	0.1533
429.8975	0.1802
430.1014	0.1347
430.3053	0.1512
430.5093	0.1569
430.7132	0.1285
430.9171	0.1503
431.1209	0.1492
431.3248	0.1491
431.5286	0.1415
431.7325	0.1523
431.9363	0.1377
432.1401	0.1648
432.3439	0.1266
432.5477	0.1088
432.7514	0.1146
432.9552	0.1425
433.1589	0.1109
433.3627	0.1227
433.5664	0.1294
433.7701	0.1137
433.9737	0.1211
434.1774	0.1227
434.3811	0.1173
434.5847	0.1249
434.7883	0.1188
434.9919	0.1058
435.1955	0.1142
435.3991	0.1232
435.6027	0.1197
435.8062	0.1121
436.0098	0.1045
436.2133	0.1126
436.4168	0.1007
436.6203	0.1016
436.8238	0.1194
437.0272	0.1062
437.2307	0.107
437.4341	0.1121
437.6375	0.1044
437.841	0.0963
438.0443	0.108
438.2477	0.1086
438.4511	0.0904
438.6545	0.0943
438.8578	0.1073
439.0611	0.0976
439.2644	0.0847
439.4677	0.0807
439.671	0.0918
439.8743	0.0901
440.0775	0.0994
440.2808	0.0911
440.484	0.0674
440.6872	0.0666
440.8904	0.0755
441.0936	0.0747
441.2967	0.075
441.4999	0.0771
441.703	0.0676
441.9062	0.0603
442.1093	0.0845
442.3124	0.0761
442.5155	0.0613
442.7185	0.0714
442.9216	0.0468
443.1246	0.0758
443.3276	0.0594
443.5307	0.0527
443.7337	0.0624
443.9366	0.0706
444.1396	0.0506
444.3426	0.0638
444.5455	0.0638
444.7484	0.0651
444.9513	0.0494
445.1542	0.0537
445.3571	0.0679
445.56	0.0581
445.7628	0.0441
445.9657	0.0342
446.1685	0.0562
446.3713	0.0605
446.5741	0.0466
446.7769	0.0429
446.9797	0.0478
447.1824	0.0563
447.3852	0.0342
447.5879	0.041
447.7906	0.0476
447.9933	0.0371
448.196	0.0459
448.3986	0.0252
448.6013	0.0276
448.8039	0.0311
449.0066	0.0362
449.2092	0.0485
449.4118	0.0323
449.6143	0.0502
449.8169	0.0484
450.0195	0.034
450.222	0.0146
450.4245	0.0395
450.627	0.0368
450.8295	0.0308
451.032	0.0213
451.2345	0.0337
451.4369	0.0358
451.6394	0.0273
451.8418	-0.0049
452.0442	0.0292
452.2466	0.0295
452.449	0.0056
452.6513	0.0275
452.8537	0.0176
453.056	0.0311
453.2583	0.0191
453.4607	0.0236
453.663	0.0166
453.8652	0.0248
454.0675	0.0009
454.2697	0.022
454.472	0.0086
454.6742	0.0164
454.8764	0.0215
455.0786	0.0095
455.2808	0.0218
455.4829	0.0184
455.6851	0.042
455.8872	0.0197
456.0893	0.0177
456.2915	-0.0023
456.4935	0.0146
456.6956	0.0039
456.8977	0.0129
457.0997	0.0121
457.3018	0.0005
457.5038	0.0123
457.7058	0.0127
457.9078	0.0189
458.1098	0.0008
458.3117	0.0225
458.5137	0.0128
458.7156	0.0081
458.9175	-0.0067
459.1194	0.012
459.3213	0.0163
459.5232	-0.0047
459.725	-0.0028
459.9269	-0.0021
460.1287	-0.0045
460.3305	0.0041
460.5323	0.0085
460.7341	0.0119
460.9359	0
461.1376	0.0176
461.3394	0.0022
461.5411	0.0083
461.7428	0.0021
461.9445	0.0178
462.1462	0.0169
462.3479	0.0057
462.5495	0
462.7512	0.0095
462.9528	0.0096
463.1544	-0.0027
463.356	-0.0058
463.5576	0.0115
463.7592	-0.0071
463.9607	0.0021
464.1623	0.0221
464.3638	0.0229
464.5653	-0.01
464.7668	0.0065
464.9683	0.0144
465.1697	0.0235
465.3712	-0.0014
465.5726	-0.0032
465.7741	-0.0011
465.9755	0.0008
466.1769	-0.001
466.3782	0.0043
466.5796	-0.0043
466.7809	0.0044
466.9823	-0.0094
467.1836	0.0042
467.3849	0.003
467.5862	0.0058
467.7875	0.0052
467.9887	0.0191
468.19	0.0132
468.3912	-0.0119
468.5924	-0.0057
468.7936	0.0036
468.9948	-0.0062
469.196	0.0074
469.3972	-0.0088
469.5983	-0.0017
469.7994	-0.0051
470.0006	-0.0046
470.2017	0.0004
470.4027	0.0015
470.6038	0.0029
470.8049	-0.0145
471.0059	0.0014
471.2069	-0.0131
471.408	-0.0021
471.6089	0.0015
471.8099	-0.0062
472.0109	0.006
472.2119	0.0051
472.4128	-0.009
472.6137	-0.0056
472.8146	-0.0158
473.0155	-0.0112
473.2164	-0.0007
473.4173	0.0047
473.6181	0.0005
473.819	-0.0001
474.0198	-0.004
474.2206	-0.0122
474.4214	0.001
474.6222	0.0017
474.8229	-0.0112
475.0237	-0.0146
475.2244	-0.0045
475.4251	0.0007
475.6258	-0.0056
475.8265	-0.0021
476.0272	0.0089
476.2278	0.0071
476.4285	-0.0036
476.6291	-0.0146
476.8297	-0.009
477.0303	-0.0063
477.2309	-0.0066
477.4315	-0.0097
477.632	0.0047
477.8326	-0.0119
478.0331	-0.0023
478.2336	0.0042
478.4341	-0.0171
478.6346	-0.0004
478.8351	-0.0029
479.0355	0.0004
479.236	-0.0044
479.4364	0.0052
479.6368	0.0016
479.8372	-0.009
480.0376	0.0009
480.2379	-0.0304
480.4383	-0.004
480.6386	0.0143
480.8389	-0.0011
481.0392	-0.0098
481.2395	-0.0027
481.4398	0.0132
481.6401	-0.0014
481.8403	-0.0032
482.0405	-0.0003
482.2408	-0.0105
482.441	0.0135
482.6411	-0.0072
482.8413	-0.0032
483.0415	-0.0077
483.2416	-0.0075
483.4417	-0.0034
483.6419	-0.0088
483.8419	-0.0076
484.042	0.0004
484.2421	-0.0013
484.4422	-0.0009
484.6422	-0.0062
484.8422	0.0007
485.0422	-0.0037
485.2422	0.0068
485.4422	-0.0152
485.6422	-0.0029
485.8421	-0.0078
486.042	-0.0037
486.242	-0.0087
486.4419	-0.0069
486.6417	-0.0134
486.8416	-0.006
487.0415	0.0023
487.2413	-0.0049
487.4411	-0.0069
487.641	-0.0144
487.8408	0.0018
488.0405	0.0066
488.2403	-0.0101
488.4401	0.0022
488.6398	0.005
488.8395	-0.003
489.0392	0.0012
489.2389	-0.0155
489.4386	-0.0063
489.6383	0.0011
489.8379	0.002
490.0376	-0.0103
490.2372	-0.0086
490.4368	-0.0114
490.6364	-0.0049
490.836	-0.0017
491.0355	-0.006
491.2351	-0.0066
491.4346	0.003
491.6341	-0.0164
491.8336	0.0008
492.0331	-0.0105
492.2326	-0.0172
492.432	0.0038
492.6315	-0.0066
492.8309	-0.0021
493.0303	-0.0049
493.2297	-0.0149
493.4291	0.001
493.6284	-0.003
493.8278	-0.007
494.0271	-0.01
494.2264	0.0011
494.4257	-0.0048
494.625	-0.0092
494.8243	-0.0114
495.0236	-0.0144
495.2228	-0.0029
495.422	-0.0073
495.6213	-0.0053
495.8205	0.0033
496.0196	0.0046
496.2188	0.0018
496.418	-0.013
496.6171	-0.0148
496.8162	-0.0113
497.0153	0.0039
497.2144	-0.0165
497.4135	-0.0043
497.6126	-0.0091
497.8116	-0.0187
498.0107	0.007
498.2097	-0.0092
498.4087	-0.0074
498.6077	0.0024
498.8067	-0.0058
499.0056	0.0053
499.2046	0.001
499.4035	-0.0135
499.6024	-0.0029
499.8013	-0.0047
500.0002	-0.0012
500.199	0.0045
500.3979	0.0039
500.5967	-0.0185
500.7956	-0.0064
500.9944	-0.01
501.1932	-0.011
501.3919	-0.0175
501.5907	-0.0138
501.7895	-0.0092
501.9882	-0.0096
502.1869	-0.0081
502.3856	-0.0178
502.5843	-0.0057
502.783	-0.0027
502.9816	0.0031
503.1803	-0.0129
503.3789	-0.0046
503.5775	0.0069
503.7761	-0.008
503.9747	0.0057
504.1732	-0.0047
504.3718	0.0039
504.5703	-0.0045
504.7689	-0.0015
504.9674	-0.0028
505.1658	-0.0059
505.3643	-0.0048
505.5628	-0.0025
505.7612	-0.0129
505.9597	0.0015
506.1581	0.0008
506.3565	0.0187
506.5549	-0.0059
506.7532	-0.018
506.9516	-0.0039
507.1499	-0.0097
507.3482	-0.0112
507.5465	-0.0135
507.7448	-0.0001
507.9431	-0.0093
508.1414	0.0005
508.3396	-0.0046
508.5379	-0.0021
508.7361	-0.006
508.9343	0
509.1325	0.001
509.3306	-0.0109
509.5288	-0.0012
509.7269	-0.0073
509.9251	-0.0051
510.1232	-0.0091
510.3213	-0.0068
510.5193	0.0055
510.7174	-0.0236
510.9154	-0.0033
511.1135	-0.0031
511.3115	-0.0089
511.5095	-0.014
511.7075	-0.0005
511.9055	0.001
512.1034	-0.0029
512.3014	-0.0068
512.4993	0.0066
512.6972	-0.0051
512.8951	-0.0245
513.093	-0.0042
513.2908	-0.0031
513.4887	-0.0022
513.6865	-0.0057
513.8844	-0.0029
514.0822	-0.0044
514.2799	-0.0082
514.4777	-0.0085
514.6755	-0.0074
514.8732	-0.0112
515.0709	-0.0025
515.2687	-0.0046
515.4664	-0.0043
515.664	-0.0075
515.8617	-0.0051
516.0594	-0.0072
516.257	-0.0029
516.4546	-0.0063
516.6522	0.0043
516.8498	0.0025
517.0474	-0.0033
517.2449	0.0113
517.4425	-0.0139
517.64	-0.0082
517.8375	-0.0001
518.035	-0.0062
518.2325	-0.0051
518.43	-0.0023
518.6274	-0.0028
518.8249	-0.0218
519.0223	-0.0084
519.2197	-0.0063
519.4171	-0.0135
519.6145	-0.0086
519.8118	-0.0061
520.0092	-0.0111
520.2065	-0.0086
520.4038	-0.0051
520.6011	-0.0043
520.7984	-0.01
520.9956	-0.004
521.1929	-0.0191
521.3901	-0.0051
521.5874	-0.0094
521.7846	-0.0111
521.9818	-0.0048
522.1789	-0.0078
522.3761	-0.0143
522.5732	0.0012
522.7704	-0.0005
522.9675	-0.0016
523.1646	-0.0055
523.3617	0.0039
523.5587	-0.0016
523.7558	-0.0123
523.9528	0.0005
524.1498	0.001
524.3468	-0.0012
524.5438	0.0001
524.7408	-0.0049
524.9378	-0.0067
525.1347	-0.0054
525.3316	0.0015
525.5285	-0.0076
525.7254	-0.0086
525.9223	0.004
526.1192	-0.0037
526.316	-0.0135
526.5129	0.0016
526.7097	0.0023
526.9065	-0.0065
527.1033	-0.0064
527.3	-0.0069
527.4968	0.0028
527.6935	-0.0028
527.8903	-0.0055
528.087	-0.0062
528.2837	-0.0073
528.4804	0.004
528.677	-0.0002
528.8737	0.0068
529.0703	0.0041
529.2669	0.0031
529.4635	-0.003
529.6601	0.0005
529.8567	-0.0039
530.0532	-0.0068
530.2498	0.004
530.4463	0.0015
530.6428	-0.003
530.8393	-0.0005
531.0358	-0.0014
531.2322	0.0012
531.4287	0.0056
531.6251	-0.0126
531.8215	0.002
532.0179	-0.0019
532.2143	0.002
532.4107	-0.0006
532.607	-0.0016
532.8034	-0.0075
532.9997	-0.0073
533.196	0.0015
533.3923	-0.0065
533.5886	-0.0016
533.7848	0.0063
533.9811	-0.0032
534.1773	-0.0035
534.3735	-0.0014
534.5697	0.0058
534.7659	0.0003
534.9621	-0.0051
535.1582	-0.0106
535.3544	-0.0021
535.5505	-0.0061
535.7466	-0.0064
535.9427	0.0004
536.1387	-0.0008
536.3348	-0.0048
536.5308	0.0049
536.7269	-0.0091
536.9229	0.0053
537.1189	-0.0007
537.3148	-0.0091
537.5108	-0.0106
537.7068	0.0021
537.9027	0.0048
538.0986	-0.0092
538.2945	-0.007
538.4904	-0.0011
538.6863	-0.0102
538.8821	-0.0135
539.078	-0.0062
539.2738	0.0038
539.4696	-0.0145
539.6654	0.0067
539.8611	0.0065
540.0569	0.005
540.2526	-0.0069
540.4484	-0.0037
540.6441	0.0121
540.8398	0.0078
541.0355	0.0032
541.2311	0.0028
541.4268	-0.0074
541.6224	0.0045
541.818	-0.0009
542.0136	0.0024
542.2092	0.0011
542.4048	0.001
542.6003	0.0064
542.7959	-0.0022
542.9914	-0.0076
543.1869	-0.004
543.3824	0.0057
543.5779	-0.0049
543.7734	-0.0066
543.9688	-0.0114
544.1642	0.0085
544.3596	-0.0057
544.555	0.0002
544.7504	-0.0047
544.9458	-0.0108
545.1411	0.0031
545.3365	-0.002
545.5318	-0.0001
545.7271	-0.007
545.9224	-0.0101
546.1177	0.0041
546.3129	0.0025
546.5081	-0.0067
546.7034	-0.001
546.8986	-0.0079
547.0938	-0.0031
547.289	0.0104
547.4841	0.0045
547.6793	0.0084
547.8744	-0.0055
548.0695	-0.0029
548.2646	0.0026
548.4597	0.0051
548.6548	-0.0039
548.8498	0.003
549.0448	0.0015
549.2399	0.0015
549.4349	0.0068
549.6298	0.0054
549.8248	0.0121
550.0198	0.0022
550.2147	0.0006
550.4096	-0.0062
550.6045	0.0053
550.7994	0.0079
550.9943	-0.0075
551.1892	-0.0003
551.384	0.0067
551.5788	-0.0005
551.7737	0.0035
551.9685	-0.0062
552.1632	-0.0003
552.358	-0.0047
552.5528	-0.0001
552.7475	-0.0012
552.9422	0.0083
553.1369	-0.001
553.3316	0.0092
553.5263	-0.0089
553.7209	0.0024
553.9156	-0.0038
554.1102	-0.0083
554.3048	-0.0052
554.4994	0.0075
554.694	0.0072
554.8885	0.0032
555.0831	-0.0054
555.2776	-0.0067
555.4721	-0.003
555.6666	-0.0008
555.8611	0.0085
556.0555	0.0047
556.25	-0.0011
556.4444	-0.0055
556.6388	0.0016
556.8332	0.0012
557.0276	0.0067
557.222	-0.0057
557.4163	0.0062
557.6107	-0.0035
557.805	0.0053
557.9993	-0.0038
558.1936	0.0017
558.3879	0.0018
558.5821	0.0095
558.7764	-0.0013
558.9706	0.001
559.1648	0.0013
559.359	-0.01
559.5532	-0.0097
559.7473	0.0014
559.9415	-0.0033
560.1356	-0.0115
560.3297	-0.005
560.5238	-0.0035
560.7179	0.0014
560.9119	0.0037
561.106	-0.0043
561.3	-0.0028
561.494	0.0011
561.688	-0.0052
561.882	-0.006
562.076	-0.0034
562.2699	0.007
562.4639	0.0032
562.6578	-0.0008
562.8517	-0.003
563.0456	-0.0001
563.2395	0.0023
563.4333	0.004
563.6272	0.0072
563.821	0.0049
564.0148	0.0012
564.2086	-0.0073
564.4024	0.0039
564.5961	-0.0009
564.7899	0.012
564.9836	-0.001
565.1773	0.002
565.371	0.0083
565.5647	0.0015
565.7584	0.0069
565.952	0.005
566.1456	0.006
566.3393	0.0024
566.5329	0.0009
566.7264	0.0015
566.92	-0.0015
567.1136	0.0055
567.3071	-0.0015
567.5006	0.0027
567.6941	-0.0011
567.8876	-0.0035
568.0811	0.0026
568.2745	0.0051
568.468	0.0132
568.6614	0.0011
568.8548	0.0075
569.0482	0.0073
569.2416	0.0049
569.4349	0.0007
569.6283	0.0042
569.8216	0.0017
570.0149	0.0069
570.2082	0.0079
570.4015	0.016
570.5947	0.0094
570.788	0.0109
570.9812	0.0082
571.1744	0.0033
571.3676	0.002
571.5608	0.0046
571.754	0.0067
571.9471	0.0002
572.1402	0.0032
572.3333	-0.0071
572.5264	-0.0012
572.7195	0.0021
572.9126	0.0045
573.1057	0.0015
573.2987	-0.0021
573.4917	0.0085
573.6847	-0.0066
573.8777	0.0081
574.0707	0.0076
574.2636	0.0046
574.4566	0.0012
574.6495	0.0105
574.8424	-0.0022
575.0353	-0.0035
575.2281	0.0151
575.421	0.0045
575.6138	0.002
575.8067	-0.0042
575.9995	0.0046
576.1923	0.0068
576.385	-0.0001
576.5778	0.0065
576.7706	-0.0018
576.9633	0.0002
577.156	0.0076
577.3487	0.0043
577.5414	0.0061
577.734	-0.0065
577.9267	0.0098
578.1193	-0.0017
578.3119	0.0001
578.5045	0.0032
578.6971	0.0057
578.8897	0.0049
579.0822	0.0117
579.2747	0.0037
579.4673	-0.0038
579.6598	-0.0015
579.8522	0.0045
580.0447	-0.0015
580.2372	0.0016
580.4296	0.0089
580.622	-0.0033
580.8144	0.0021
581.0068	0.0077
581.1992	-0.006
581.3915	-0.0008
581.5839	-0.0046
581.7762	-0.002
581.9685	0.0022
582.1608	0.0062
582.353	0.0074
582.5453	-0.0004
582.7375	0.0044
582.9298	0.0046
583.122	0.0092
583.3142	-0.0013
583.5063	0.0028
583.6985	0.0034
583.8906	-0.0031
584.0827	-0.0038
584.2749	0.0056
584.4669	0.0011
584.659	-0.0033
584.8511	0
585.0431	0.002
585.2352	0.0046
585.4272	0.0075
585.6192	0.0046
585.8111	0.0031
586.0031	0.0013
586.195	0.0026
586.387	0.0113
586.5789	0.0068
586.7708	0.0025
586.9627	-0.0031
587.1545	-0.0014
587.3464	0.0067
587.5382	0.0009
587.73	0.0056
587.9218	0.0076
588.1136	0.0023
588.3053	0.0082
588.4971	-0.0047
588.6888	-0.0066
588.8805	0.0008
589.0722	0.0045
589.2639	0.0002
589.4556	0.0014
589.6472	0.003
589.8389	0.0001
590.0305	-0.0011
590.2221	0.0078
590.4137	-0.0032
590.6052	0.0033
590.7968	0.0021
590.9883	0.0087
591.1798	-0.0004
591.3713	-0.006
591.5628	0.0026
591.7543	0.0119
591.9458	0.005
592.1372	0.0111
592.3286	0.0092
592.52	0.0056
592.7114	0.0039
592.9028	0.0004
593.0941	0.0029
593.2855	0.004
593.4768	-0.0055
593.6681	-0.0012
593.8594	-0.0035
594.0506	0.0081
594.2419	0.0093
594.4331	0.0083
594.6244	0.0065
594.8156	-0.0019
595.0067	0.0004
595.1979	-0.0029
595.3891	0.0076
595.5802	-0.0009
595.7713	-0.0059
595.9624	0.0024
596.1535	0.0099
596.3446	-0.0023
596.5357	0.0027
596.7267	0.0071
596.9177	0.0055
597.1087	-0.0118
597.2997	0.0017
597.4907	0.0068
597.6817	0.0002
597.8726	0.0081
598.0635	-0.0005
598.2544	0.0067
598.4453	0.0067
598.6362	0.0018
598.827	0.002
599.0179	0.0102
599.2087	0.0036
599.3995	-0.0011
599.5903	0.004
599.7811	0.0117
599.9718	0.0049
600.1626	-0.0025
600.3533	-0
600.544	-0.0012
600.7347	-0.0008
600.9254	0.0078
601.116	-0.0076
601.3067	-0.0028
601.4973	0.0028
601.6879	0.0095
601.8785	-0.0059
602.0691	-0.0013
602.2596	0.015
602.4502	0.0005
602.6407	0.0016
602.8312	0.0067
603.0217	-0.0021
603.2122	0.0082
603.4027	0.0077
603.5931	-0.0003
603.7835	-0.0013
603.9739	-0.0016
604.1643	-0.0006
604.3547	0.0002
604.5451	0.0047
604.7354	0.004
604.9257	0.0066
605.116	-0.0053
605.3063	0.0115
605.4966	0.0077
605.6869	0.0018
605.8771	0.0071
606.0673	0.0095
606.2575	0.0033
606.4477	0.0057
606.6379	-0.0038
606.8281	0.0039
607.0182	0.0086
607.2083	0.0129
607.3985	-0.0018
607.5885	0.0009
607.7786	0.0101
607.9687	-0.0086
608.1587	-0.0013
608.3488	0.0022
608.5388	0.002
608.7288	-0.0012
608.9187	-0.0025
609.1087	-0.0017
609.2986	-0.0047
609.4886	0.001
609.6785	0.0013
609.8684	0.0063
610.0582	0.0026
610.2481	0.005
610.4379	0.0006
610.6278	0.0018
610.8176	-0.0017
611.0074	0.0006
611.1971	0.0079
611.3869	0.0098
611.5766	-0.0027
611.7664	0.006
611.9561	0.01
612.1458	0.0055
612.3354	-0.0067
612.5251	-0.0011
612.7147	0.0098
612.9044	0.0183
613.094	0.0002
613.2836	0.0048
613.4731	0.0042
613.6627	-0.0021
613.8522	0.0095
614.0417	0.0087
614.2313	0.0057
614.4207	0.0021
614.6102	0.0044
614.7997	0.0058
614.9891	-0.0003
615.1785	-0.0003
615.3679	-0.0037
615.5573	0.0097
615.7467	-0.0022
615.9361	-0.0013
616.1254	0.0015
616.3147	0.0057
616.504	0.0062
616.6933	0.0026
616.8826	0.0106
617.0718	0.0073
617.2611	0.0038
617.4503	0.0061
617.6395	0.0025
617.8287	0.0027
618.0179	-0.0006
618.207	0.0087
618.3961	0.0039
618.5853	0.0101
618.7744	0.0072
618.9634	0.0075
619.1525	0.0039
619.3416	0.0128
619.5306	0.0167
619.7196	0.008
619.9086	0.0093
620.0976	0.0091
620.2866	0.0107
620.4755	0.0086
620.6645	0.0136
620.8534	0.0101
621.0423	0.007
621.2312	0.0041
621.42	-0.0004
621.6089	0.0033
621.7977	0.0107
621.9865	0.002
622.1753	0.0098
622.3641	0.0069
622.5529	0.0118
622.7416	0.0196
622.9303	0.0046
623.1191	0.0109
623.3078	0.0005
623.4964	0.0126
623.6851	0.0075
623.8737	0.0039
624.0624	0.0029
624.251	0.0005
624.4396	-0.0003
624.6282	0.0022
624.8167	0.0067
625.0053	0.0154
625.1938	0.0068
625.3823	0.0034
625.5708	0.0056
625.7593	-0.0006
625.9477	0.0039
626.1362	-0.0024
626.3246	0.0095
626.513	0.0013
626.7014	0.0084
626.8898	0.004
627.0781	0.0007
627.2665	0.0021
627.4548	0.0112
627.6431	0.0041
627.8314	0.0068
628.0197	0.0059
628.2079	-0.0012
628.3962	-0.0031
628.5844	0.0047
628.7726	0.0068
628.9608	0.0042
629.1489	0.0095
629.3371	0.0083
629.5252	-0.0014
629.7134	0.0089
629.9015	0.0041
630.0895	-0.0003
630.2776	0.0099
630.4657	-0.0011
630.6537	0
630.8417	0.005
631.0297	-0.0041
631.2177	0.0008
631.4057	0.0003
631.5936	0.0007
631.7815	-0.0009
631.9695	0.0023
632.1574	0.0057
632.3452	0.0143
632.5331	0.0078
632.7209	0.0026
632.9088	0.0102
633.0966	0.012
633.2844	-0.0007
633.4722	0.0041
633.6599	0.0093
633.8477	0.0087
634.0354	0.0048
634.2231	0.0059
634.4108	0.004
634.5985	0.0103
634.7861	0.0031
634.9738	0.0025
635.1614	0.0082
635.349	0.0074
635.5366	0.0034
635.7242	0.0033
635.9117	0.0115
636.0993	0.0049
636.2868	0.0084
636.4743	-0.0072
636.6618	0.011
636.8492	0.0035
637.0367	0.0063
637.2241	-0.0039
637.4115	0.0014
637.5989	0.0019
637.7863	0.0037
637.9737	0.0008
638.161	0.0036
638.3484	0.0012
638.5357	0.0068
638.723	-0.001
638.9103	0.0079
639.0975	0.0131
639.2848	0.0066
639.472	0.0066
639.6592	0.0113
639.8464	0.02
640.0336	0.0139
640.2208	-0.0029
640.4079	0.0023
640.595	0.0037
640.7821	-0.0011
640.9692	0.0047
641.1563	0.0058
641.3434	0.0042
641.5304	-0.0036
641.7174	0.0063
641.9044	0.0044
642.0914	0.0082
642.2784	0.0018
642.4653	0.007
642.6523	0.001
642.8392	0.0047
643.0261	0.0051
643.213	0.0011
643.3999	0.0011
643.5867	-0.0001
643.7735	0.0057
643.9604	-0.0044
644.1472	0.0024
644.3339	0.0042
644.5207	0.0042
644.7075	0.0015
644.8942	0.0028
645.0809	0.0079
645.2676	0.0144
645.4543	0.0026
645.6409	0.0052
645.8276	0.0044
646.0142	0.0116
646.2008	-0.0036
646.3874	0.0014
646.574	0.0083
646.7605	0.0006
646.9471	-0.0058
647.1336	0.0062
647.3201	0.0019
647.5066	0.0032
647.6931	0.0072
647.8795	-0.0009
648.0659	0.012
648.2524	0.0132
648.4388	0.0037
648.6252	0.0056
648.8115	0.0032
648.9979	0.0059
649.1842	0.0046
649.3705	0.0076
649.5568	0.0022
649.7431	0.0119
649.9294	-0.0001
650.1156	0.0028
650.3018	0.0066
650.488	0.0068
650.6742	0.0034
650.8604	0.0043
651.0466	0.0035
651.2327	0.0063
651.4188	0.0053
651.6049	0.0033
651.791	0.0051
651.9771	0.0027
652.1632	0.0031
652.3492	0.008
652.5352	0.0073
652.7212	-0.002
652.9072	0.0085
653.0932	0.001
653.2791	0.0024
653.465	-0.0009
653.651	0.0045
653.8369	0.0003
654.0227	0.0021
654.2086	0.0109
654.3944	0.0113
654.5803	0.0044
654.7661	0.0016
654.9519	0.0025
655.1377	-0.0022
655.3234	-0.0015
655.5092	0.0006
655.6949	-0.0047
655.8806	0.0004
656.0663	0.0009
656.2519	-0.0022
656.4376	0.0035
656.6232	0.0044
656.8088	0.0024
656.9945	0.003
657.18	-0.0042
657.3656	0.0011
657.5511	0.0025
657.7367	0.0034
657.9222	0.0082
658.1077	0.0095
658.2932	0.0091
658.4786	-0.0052
658.6641	0.0034
658.8495	0.0063
659.0349	-0.0038
659.2203	0.014
659.4057	0.007
659.591	0.0119
659.7764	0.0046
659.9617	0.0081
660.147	0.0015
660.3323	0.0026
660.5176	0.0126
660.7028	0.0089
660.888	0.009
661.0733	0.0054
661.2585	-0.001
661.4436	0.0005
661.6288	-0.0023
661.8139	0.0055
661.9991	0.0051
662.1842	0.0081
662.3693	0.0038
662.5544	0.0045
662.7394	0.0067
662.9245	0.0023
663.1095	0.0036
663.2945	0.0068
663.4795	0.0068
663.6644	0.0124
663.8494	0.0045
664.0343	0.0082
664.2193	-0.002
664.4042	0.0048
664.589	0.0007
664.7739	0.0039
664.9587	0.0046
665.1436	0.0114
665.3284	0.008
665.5132	0.0034
665.698	0.0031
665.8827	0.0128
666.0675	0.0078
666.2522	-0.0035
666.4369	0.0114
666.6216	0.0072
666.8063	0.0068
666.9909	0.0121
667.1756	0.0036
667.3602	0.0094
667.5448	0.0039
667.7294	0.0103
667.9139	0.0098
668.0985	0.0173
668.283	0.004
668.4675	0.0064
668.652	-0.0006
668.8365	-0.0014
669.0209	0.0085
669.2054	0.0198
669.3898	0.0083
669.5742	0.0118
669.7586	0.0089
669.943	0.0142
670.1273	0.0123
670.3117	0.0104
670.496	0.0166
670.6803	0.0189
670.8646	0.0107
671.0488	0.0063
671.2331	0.0093
671.4173	0.0079
671.6015	0.0056
671.7857	0.0075
671.9699	0.0115
672.1541	0.0121
672.3382	0.0015
672.5223	0.005
672.7064	0.0045
672.8905	0.0172
673.0746	0.0052
673.2587	0.0116
673.4427	0.0119
673.6267	0.0097
673.8107	0.0197
673.9947	0.0096
674.1787	0.0127
674.3626	0.0002
674.5465	0.0082
674.7304	0.0101
674.9143	0.0028
675.0982	0.0094
675.2821	-0.0012
675.4659	0.0111
675.6497	0.0068
675.8335	-0.0001
676.0173	-0.0031
676.2011	-0.0044
676.3849	0.005
676.5686	-0.002
676.7523	0.0073
676.936	0.0058
677.1197	0.0056
677.3034	0.0002
677.487	0.0028
677.6706	0.0021
677.8542	0.008
678.0378	0.0029
678.2214	0.0001
678.405	-0.0047
678.5885	-0.0076
678.772	0.0048
678.9555	-0.0055
679.139	-0.0022
679.3225	-0.0038
679.5059	-0.0031
679.6894	0.0059
679.8728	0.0002
680.0562	-0.0045
680.2395	0.0027
680.4229	0.0053
680.6062	0.0119
680.7896	0.0069
680.9729	-0.0051
681.1562	0.0065
681.3394	0.0078
681.5227	-0.0002
681.7059	-0.0028
681.8891	-0.0014
682.0723	0.0081
682.2555	0.0159
682.4387	0.0031
682.6218	-0.0043
682.805	0.0025
682.9881	0.0055
683.1712	0.0005
683.3542	0.0003
683.5373	0.0025
683.7203	0.0039
683.9034	0.0029
684.0864	-0.0026
684.2694	-0.0002
684.4523	0.0062
684.6353	-0.0012
684.8182	-0.0028
685.0011	0.001
685.184	0.0105
685.3669	0.004
685.5498	0.0055
685.7326	0.0041
685.9154	-0.0023
686.0982	0.0069
686.281	0.0068
686.4638	0.002
686.6465	0.001
686.8293	-0.0033
687.012	0.0093
687.1947	-0.0007
687.3774	0.0083
687.56	-0
687.7427	0.0079
687.9253	-0.0005
688.1079	0.0098
688.2905	0.0134
688.4731	0.0076
688.6556	0.0052
688.8382	0.0052
689.0207	-0.0001
689.2032	-0.0016
689.3857	-0.0019
689.5681	0.003
689.7506	0.0023
689.933	0.0026
690.1154	0.0063
690.2978	0.0023
690.4802	0.0073
690.6626	-0.0005
690.8449	0.0045
691.0272	0.0142
691.2095	-0.0053
691.3918	0.004
691.5741	0.0116
691.7563	0.0063
691.9386	0.0021
692.1208	0.0129
692.303	0.0031
692.4852	-0.0029
692.6673	0.004
692.8495	0.0023
693.0316	0.0084
693.2137	0.0064
693.3958	0.0027
693.5778	0.0005
693.7599	0.0015
693.9419	0.002
694.1239	0.0123
694.3059	-0.0029
694.4879	0.0144
694.6699	0.0083
694.8518	0.0035
695.0337	0.0043
695.2157	0.0144
695.3975	0.0021
695.5794	0.0053
695.7613	0.0077
695.9431	0.0167
696.1249	0.003
696.3067	0.0048
696.4885	0.0061
696.6703	-0.0083
696.852	0.004
697.0337	0.0067
697.2154	0.0032
697.3971	0.0075
697.5788	0.0032
697.7605	0.0013
697.9421	0.0038
698.1237	0.0051
698.3053	0
698.4869	-0.0043
698.6685	-0.0091
698.85	-0.0034
699.0315	0.0095
699.213	0.0019
699.3945	0.0063
699.576	0.0141
699.7575	0.0051
699.9389	0.0114
700.1203	0.0024
700.3017	0.0013
700.4831	0.0005
700.6645	0.0066
700.8458	0.0055
701.0271	0.0079
701.2084	0.007
701.3897	0.0065
701.571	0.0124
701.7523	-0.0019
701.9335	0.0064
702.1147	0.0054
702.2959	0.0087
702.4771	0.0003
702.6583	0.0094
702.8394	-0.0043
703.0205	0.0075
703.2016	-0.0041
703.3827	-0.0007
703.5638	0.0112
703.7449	-0.0009
703.9259	0.0068
704.1069	-0.001
704.2879	0.0023
704.4689	0.0097
704.6499	-0.0003
704.8308	-0.0075
705.0117	0.0016
705.1927	0.0025
705.3735	-0.0031
705.5544	-0.0013
705.7353	0.0016
705.9161	-0.0101
706.0969	-0.0079
706.2777	-0.0016
706.4585	0.0034
706.6393	0.0071
706.82	0.0021
707.0007	0.0037
707.1815	0.0143
707.3621	0.0163
707.5428	0.0024
707.7235	0.008
707.9041	0.0108
708.0847	-0.0045
708.2653	-0.0007
708.4459	-0.009
708.6265	0.0039
708.807	0.0069
708.9875	-0.0069
709.168	-0.0071
709.3485	0.0021
709.529	-0.0008
709.7095	-0.0084
709.8899	0.0068
710.0703	-0.0097
710.2507	-0.0007
710.4311	0.0018
710.6115	-0.009
710.7918	-0.0103
710.9721	-0.0014
711.1524	-0.0063
711.3327	-0.0039
711.513	0.0008
711.6932	-0.0004
711.8735	0.0116
712.0537	0.0007
712.2339	0.0027
712.4141	-0.0024
712.5942	0.0023
712.7744	0.0049
712.9545	-0.0039
713.1346	-0.0029
713.3147	-0.0024
713.4947	-0.0052
713.6748	0.0034
713.8548	0.0002
714.0348	-0.0054
714.2148	0.0007
714.3948	0.0122
714.5748	0.0062
714.7547	-0.0025
714.9346	0.0099
715.1145	-0.0048
715.2944	-0.0047
715.4743	0.0019
715.6541	-0.0083
715.834	0.0013
716.0138	-0.0056
716.1936	-0.0185
716.3733	0.0013
716.5531	0.0106
716.7328	0.0043
716.9126	-0.0017
717.0923	0.0069
717.2719	-0.0034
717.4516	0.0098
717.6312	0.0059
717.8109	-0.0034
717.9905	0.0041
718.1701	0.0026
718.3496	0.0031
718.5292	-0.0028
718.7087	0.0034
718.8882	-0.0037
719.0677	0.0077
719.2472	-0.0023
719.4267	0.0012
719.6061	0.0052
719.7856	0.0094
719.965	0.0048
720.1443	-0.0045
720.3237	0.0095
720.5031	0.0081
720.6824	0.0091
720.8617	-0.0051
721.041	0.0048
721.2203	0.0106
721.3995	0.0068
721.5788	-0.0012
721.758	0.0121
721.9372	0.0025
722.1164	0.0051
722.2956	0.0146
722.4747	0.0072
722.6538	0.0026
722.8329	0.0168
723.012	0.0135
723.1911	0.0103
723.3702	0.0082
723.5492	0.0075
723.7282	0.0049
723.9072	0.005
724.0862	-0.0012
724.2652	0.004
724.4441	-0.0009
724.623	-0.0016
724.8019	0.0087
724.9808	0.005
725.1597	-0.0044
725.3385	0.0061
725.5174	0.0013
725.6962	-0.0018
725.875	-0.0015
726.0538	0.0046
726.2325	-0.0007
726.4112	0.004
726.59	-0.0023
726.7687	0.0002
726.9474	0.0007
727.126	-0.0089
727.3047	-0.0089
727.4833	0.0002
727.6619	-0.0031
727.8405	-0.0073
728.0191	0.0022
728.1976	0.0061
728.3762	0.0004
728.5547	0.006
728.7332	-0.0066
728.9116	0.0018
729.0901	0.004
729.2686	-0.0005
729.447	-0.0024
729.6254	-0.0034
729.8038	0.0053
729.9821	-0.0116
730.1605	-0.0032
730.3388	-0.0017
730.5171	-0.0008
730.6954	-0.0033
730.8737	0.0035
731.0519	0.0082
731.2302	0.0058
731.4084	0.0132
731.5866	0.009
731.7648	0.0026
731.9429	0.0026
732.1211	0.0039
732.2992	0.0032
732.4773	0.0031
732.6554	-0.0048
732.8335	0.005
733.0115	0.0065
733.1896	0.0071
733.3676	-0.0004
733.5456	0.0095
733.7235	0.0072
733.9015	0.0006
734.0794	0.0042
734.2574	0.0008
734.4353	0.0034
734.6131	0.0081
734.791	0.0134
734.9689	0.0014
735.1467	0.0194
735.3245	-0.001
735.5023	0.0028
735.68	0.0068
735.8578	0.0164
736.0355	-0.007
736.2132	0.0068
736.3909	-0.0008
736.5686	-0.0075
736.7463	0.0155
736.9239	-0.0025
737.1015	-0.0028
737.2791	0.0101
737.4567	0.0091
737.6343	-0.0036
737.8118	-0.0001
737.9894	0.012
738.1669	-0.0106
738.3444	0.0017
738.5218	0.0058
738.6993	0.0004
738.8767	-0.0018
739.0541	0.0131
739.2315	-0.0088
739.4089	0.004
739.5863	0.0044
739.7636	-0.0006
739.9409	0.005
740.1182	0.006
740.2955	0.0116
740.4728	-0.0051
740.65	0.0037
740.8272	0.0044
741.0044	0.0013
741.1816	0.0048
741.3588	-0.0073
741.5359	-0.0032
741.7131	-0.0101
741.8902	0.0041
742.0673	0.0026
742.2444	0.0021
742.4214	-0.0053
742.5985	-0.0036
742.7755	0.0041
742.9525	-0.0152
743.1295	0.0066
743.3064	0.0077
743.4834	0.0059
743.6603	0.0028
743.8372	0.0073
744.0141	0.0047
744.191	0.0044
744.3678	-0.0004
744.5446	0.0001
744.7215	0.0037
744.8982	-0.0001
745.075	-0.0052
745.2518	0.0006
745.4285	-0.0011
745.6052	0.0015
745.7819	0.0042
745.9586	0.0058
746.1353	-0.0041
746.3119	-0.0034
746.4885	-0.0031
746.6651	-0.0063
746.8417	-0.0056
747.0183	0.0012
747.1948	-0.002
747.3714	-0.0001
747.5479	-0.0061
747.7244	-0.0048
747.9008	0.0058
748.0773	0.0022
748.2537	0
748.4301	-0.0063
748.6065	0.0051
748.7829	0.0087
748.9593	0.0021
749.1356	0.0131
749.3119	0.0137
749.4882	0.001
749.6645	0
749.8408	-0.0074
750.017	-0.0055
750.1933	0.0029
750.3695	-0.0045
750.5457	0.0029
750.7218	-0.005
750.898	-0.0013
751.0741	-0.0084
751.2502	0.0016
751.4263	0.0012
751.6024	0.0034
751.7784	0.0008
751.9545	0.0032
752.1305	0.0067
752.3065	0.0032
752.4825	0.0077
752.6584	0.0072
752.8344	-0.0032
753.0103	0.0017
753.1862	0.0043
753.3621	-0.0055
753.5379	-0.0048
753.7138	0.0024
753.8896	0.003
754.0654	0.0076
754.2412	0.0111
754.417	-0.0027
754.5927	-0.0053
754.7685	0.0022
754.9442	0.0011
755.1199	0.0177
755.2956	-0.0007
755.4712	0.0125
755.6469	-0.0001
755.8225	-0.0004
755.9981	-0.0019
756.1736	-0.0009
756.3492	0.0031
756.5248	-0.0024
756.7003	-0.0036
756.8758	0.0054
757.0513	-0.0115
757.2267	-0.0118
757.4022	-0.0041
757.5776	-0.0127
757.753	-0.0016
757.9284	-0.0045
758.1038	0.0093
758.2791	0.0009
758.4545	-0.0133
758.6298	-0.0037
758.8051	0.0014
758.9803	0.001
759.1556	0.0018
759.3308	-0.0111
759.506	0.0116
759.6812	-0.0005
759.8564	0.0079
760.0316	0.002
760.2067	0.0114
760.3819	0.002
760.557	0.0188
760.732	0.0037
760.9071	-0.0023
761.0821	0.0039
761.2572	0.0069
761.4322	-0.0025
761.6072	-0.0006
761.7821	-0.0062
761.9571	0.0124
762.132	-0.0005
762.3069	-0.006
762.4818	-0.0029
762.6567	-0.0019
762.8316	0.0054
763.0064	-0.0058
763.1812	0
763.356	-0.0054
763.5308	-0.0002
763.7055	0.0025
763.8803	-0.0036
764.055	0.0074
764.2297	0.0028
764.4044	-0.0017
764.579	-0.0048
764.7537	-0.0097
764.9283	-0.0076
765.1029	-0.0067
765.2775	0.0001
765.4521	-0.0007
765.6266	-0.0089
765.8011	-0.0014
765.9756	0.0047
766.1501	0.0126
766.3246	-0.0024
766.4991	-0.0044
766.6735	0.0071
766.8479	-0.003
767.0223	0.025
767.1967	0.0052
767.371	0.0039
767.5454	-0.0001
767.7197	0.0058
767.894	-0.0039
768.0683	-0.0115
768.2425	0.0017
768.4168	0.0034
768.591	0.0076
768.7652	0.0043
768.9394	0.0042
769.1135	0.0032
769.2877	0.0072
769.4618	0.009
769.6359	0.0012
769.81	-0.001
769.984	-0.0085
770.1581	-0.0013
770.3321	0.0075
770.5061	-0.009
770.6801	0.0003
770.8541	-0.0014
771.028	0.0081
771.202	-0.0045
771.3759	0.0065
771.5498	-0.0026
771.7236	0.0026
771.8975	0.0003
772.0713	0.0094
772.2451	0.0056
772.4189	0.0134
772.5927	0.0156
772.7665	-0.0016
772.9402	0.0032
773.1139	0.0057
773.2876	-0.0071
773.4613	0.0031
773.635	0.012
773.8086	-0.0018
773.9822	0.0034
774.1558	0.0091
774.3294	-0.0041
774.503	0.0091
774.6765	0.0104
774.8501	0.0173
775.0236	0.0088
775.1971	0.0216
775.3705	0.0069
775.544	0.0274
775.7174	-0.0132
775.8908	0.0015
776.0642	0.0083
776.2376	0.0146
776.4109	-0.0027
776.5843	0.0082
776.7576	0.0081
776.9309	0.0106
777.1041	0.0085
777.2774	0.0206
777.4506	0.0087
777.6238	-0.0047
777.797	0.0063
777.9702	0.0084
778.1434	0.0011
778.3165	-0.0035
778.4896	-0.0081
778.6627	0.0045
778.8358	-0.0043
779.0089	-0.0006
779.1819	-0.0003
779.3549	0.0109
779.5279	0.0063
779.7009	0.0042
779.8739	0.0017
780.0468	0.0061
780.2197	0.0103
780.3926	-0.0076
780.5655	0.0072
780.7384	0.0057
780.9112	-0.0001
781.0841	-0.011
781.2569	-0.0072
781.4297	0.0086
781.6024	0.0086
781.7752	0.0093
781.9479	0.0097
782.1206	-0.0067
782.2933	-0.0049
782.466	-0.0004
782.6386	0.0109
782.8113	0.0186
782.9839	0.0103
783.1565	0.015
783.329	0.0232
783.5016	0.0114
783.6741	0.0144
783.8466	0.0087
784.0191	0.0232
784.1916	0.0091
784.3641	0.0175
784.5365	0.0174
784.7089	0.0139
784.8813	-0.0006
785.0537	0.0087
785.2261	0.0074
785.3984	-0.0045
785.5707	0.0056
785.743	0.0136
785.9153	-0.0022
786.0876	0.0193
786.2598	-0.0008
786.432	-0.0099
786.6042	0.0092
786.7764	0.0029
786.9486	0.0157
787.1207	-0.0127
787.2928	0.0109
787.4649	0.0013
787.637	0.0059
787.8091	0.0058
787.9811	-0.0069
788.1532	0.0098
788.3252	0.0167
788.4972	0.0036
788.6691	-0.0043
788.8411	0.0052
789.013	-0.0029
789.1849	0.0047
789.3568	0.0068
789.5287	0.022
789.7005	-0.0016
789.8723	-0.0012
790.0442	0.0213
790.2159	0.0191
790.3877	0.0097
790.5595	-0.004
790.7312	0.0028
790.9029	0.008
791.0746	0.0013
791.2463	0.0044
791.4179	0.007
791.5896	-0.002
791.7612	0.0114
791.9328	-0.0003
792.1044	-0.0067
792.2759	-0.0112
792.4474	-0.0077
792.619	0.0074
792.7905	0.0203
792.9619	0.0047
793.1334	0.0197
793.3048	0.0144
793.4762	0.0119
793.6476	0.0087
793.819	-0.0012
793.9904	0.0236
794.1617	0.0021
794.333	-0.0124
794.5043	-0.0014
794.6756	0.0026
794.8469	-0.0016
795.0181	0.011
795.1893	-0.0039
795.3605	0.0087
795.5317	0.0021
795.7029	-0.0113
795.874	0.0047
796.0452	0.0035
796.2163	0.0098
796.3873	0.0163
796.5584	0.0102
796.7294	-0.0021
796.9005	0.0174
797.0715	0.0087
797.2425	0.0015
797.4134	-0.0034
797.5844	0.0121
797.7553	0.0051
797.9262	-0.0025
798.0971	0.0038
798.2679	0.0017
798.4388	-0.0075
798.6096	-0.0116
798.7804	-0.0024
798.9512	-0.0044
799.122	0.0002
799.2927	0.0128
799.4635	0.0057
799.6342	-0.0144
799.8049	-0.0015
799.9755	0.0008
800.1462	0.0025
800.3168	0.0096
800.4874	-0.0013
800.658	0.0306
800.8286	0.0099
800.9991	0.015
801.1696	0.0113
801.3402	0.0215
801.5106	-0.0042
801.6811	0.0103
801.8516	0.0359
802.022	0.0189
802.1924	0.0006
802.3628	0.0299
802.5332	0.0154
802.7035	0.0287
802.8739	0.0045
803.0442	0.0046
803.2145	0.0094
803.3847	-0.0164
803.555	0.0082
803.7252	0.021
803.8954	-0.0055
804.0656	-0.0011
804.2358	0.0176
804.4059	0.0092
804.5761	0.0205
804.7462	0.0177
804.9163	0.0086
805.0864	-0.0157
805.2564	-0.0156
805.4264	0.0036
805.5965	-0.0029
805.7665	0.0151
805.9364	0.0023
806.1064	0.0241
806.2763	0.0131
806.4462	0.0168
806.6161	0.0103
806.786	0.0104
806.9559	-0.0013
807.1257	0.0075
807.2955	0.015
807.4653	-0.009
807.6351	0.0029
807.8048	0.0102
807.9746	0.0096
808.1443	0.014
808.314	0.0005
808.4837	0.0193
808.6533	-0.0056
808.8229	0.0285
808.9926	0.0005
809.1622	0.0179
809.3317	0.0161
809.5013	0.0221
809.6708	0.0144
809.8403	0.0138
810.0098	0.0003
810.1793	0.0082
810.3488	0.0141
810.5182	-0.0075
810.6876	-0.003
810.857	-0.0113
811.0264	0.0265
811.1958	0.0099
811.3651	0.0171
811.5344	0.0064
811.7037	0.0053
811.873	-0.0075
812.0422	0.0035
812.2115	-0.0064
812.3807	-0.0123
812.5499	0.0424
812.7191	0.0115
812.8882	-0.012
813.0574	-0.0043
813.2265	0.0111
813.3956	0.0096
813.5646	0.0172
813.7337	0.0003
813.9027	0.0172
814.0718	0.0277
814.2407	0.0115
814.4097	0.0023
814.5787	-0.0092
814.7476	0.0072
814.9165	0.0119
815.0854	-0.0038
815.2543	0.0189
815.4232	0.0179
815.592	0.0201
815.7608	0.0203
815.9296	0.0342
816.0984	0.0241
816.2671	0.0117
816.4359	0.0117
816.6046	0.0222
816.7733	0.0031
816.942	-0.0018
817.1106	0.0241
817.2793	0.0322
817.4479	0.0237
817.6165	0.0166
817.785	0.0277
817.9536	0.009
818.1221	0.0355
818.2906	0.0251
818.4591	0.0212
818.6276	0.0021
818.7961	0.0193
818.9645	0.0335
819.1329	0.0205
819.3013	0.0342
819.4697	0.0356
819.638	-0.002
819.8064	0.0125
819.9747	0.0207
820.143	0.0051
820.3113	-0.0039
820.4795	-0.0003
820.6477	0.0112
820.816	0.0256
820.9842	0.0099
821.1523	0.0188
821.3205	0.0083
821.4886	-0.0071
821.6567	-0.0007
821.8248	0.0275
821.9929	0.0223
822.1609	0.0046
822.329	0.0266
822.497	0.0302
822.665	0.0009
822.833	0.0008
823.0009	0.0295
823.1688	0.0272
823.3367	0.0327
823.5046	0.0137
823.6725	0.0397
823.8404	0.0145
824.0082	0.0423
824.176	0.0174
824.3438	0.0255
824.5116	-0.0252
824.6793	0.0237
824.847	-0.002
825.0147	0.0139
825.1824	0.0138
825.3501	0.0376
825.5177	-0.0122
825.6854	0.0022
825.853	0.0162
826.0206	-0.0114
826.1881	0.0176
826.3557	-0.0139
826.5232	0.0205
826.6907	-0.0145
826.8582	0.0185
827.0257	0.0057
827.1931	0.0162
827.3605	-0.0154
827.528	0.0123
827.6953	-0.0062
827.8627	0.0251
828.03	0.0355
828.1974	0.0159
828.3647	-0.0045
828.532	-0.0121
828.6992	0.005
828.8665	-0.0033
829.0337	0.0031
829.2009	0.0464
829.3681	0.0242
829.5352	0.0266
829.7024	-0.0224
829.8695	-0.0038
830.0366	0.0524
830.2037	0.0057
830.3707	0.0239
830.5378	0.0164
830.7048	0.0078
830.8718	0.0001
831.0388	-0.043
831.2057	0.012
831.3727	0.0319
831.5396	-0.0083
831.7065	0.0117
831.8734	0.016
832.0402	0.0091
832.2071	0.0086
832.3739	0.0267
832.5407	-0.022
832.7075	-0.0295
832.8742	-0.0203
833.041	-0.0124
833.2077	0.0069
833.3744	0.0288
833.541	0.0256
833.7077	0.0455
833.8743	-0.0241
834.0409	0.0438
834.2075	0.0091
834.3741	-0.0371
834.5407	-0.013
834.7072	0.0176
834.8737	0.0136
835.0402	-0.0164
835.2067	0.0311
835.3731	0.0461
835.5395	0.0079
835.706	0.0365
835.8723	0.026
836.0387	0.0138
836.2051	0.0207
836.3714	-0.0186
836.5377	0.005
836.704	-0.0516
836.8703	0.0405
837.0365	-0.0234
837.2027	-0.0074
837.3689	-0.0014
837.5351	-0.0282
837.7013	-0.0041
837.8674	-0.0162
838.0335	-0.0007
838.1997	0.0142
838.3657	-0.018
838.5318	-0.0163
838.6978	0.0346
838.8639	0.0563
839.0299	0.0159
839.1958	0.0403
839.3618	0.0529
839.5277	0.0044
839.6937	0.0102
839.8596	-0.0044
840.0254	0.0196
840.1913	0.0426
840.3571	0.0405
840.523	0.0022
840.6888	-0.02
840.8545	-0.0376
841.0203	0.0329
841.186	0.0176
841.3517	0.0175
841.5174	-0.0007
841.6831	0.0078
841.8488	0.0056
842.0144	0.0169
842.18	0.0201
842.3456	0.0837
842.5112	0.0361
842.6767	-0.0047
842.8422	0.0012
843.0077	-0.0268
843.1732	-0.028
843.3387	-0.0251
843.5042	-0.0389
843.6696	0.0075
843.835	0.0374
844.0004	0.0823
844.1657	-0.0127
844.3311	-0.0568
844.4964	-0.0665
844.6617	-0.0194
844.827	-0.0021
844.9923	0.0285
845.1575	0.0414
845.3227	0.0288
845.4879	0.0293
845.6531	-0.0296
845.8183	-0.0703
845.9834	-0.0252
846.1485	-0.0333
846.3136	-0.0328
846.4787	-0.0441
846.6438	0.016
846.8088	0.0066
846.9738	-0.0619
847.1388	0.0059
847.3038	0.0018
847.4687	-0.1393
847.6337	-0.0322
847.7986	0.0348
847.9635	-0.0418
848.1284	-0.0211
848.2932	0.1657
848.458	0.0054
848.6228	0.1156
848.7876	0.0218
848.9524	-0.0547
849.1172	-0.098
849.2819	0.003
849.4466	-0.0252
849.6113	-0.1364
849.7759	0.049
849.9406	-0.0499
850.1052	0.0419
850.2698	-0.0378
850.4344	-0.0355
850.599	0.0072
850.7635	0.1428
850.928	-0.0672
851.0925	0.0322
851.257	-0.0238
851.4215	0.0617
851.5859	0.0004
851.7503	0.0629
851.9147	0.0274
852.0791	-0.047
852.2434	-0.0548
852.4078	0.1005
852.5721	0.0876
852.7364	-0.0497
852.9007	-0.2467
853.0649	0.0246
853.2291	-0.0119
853.3934	-0.0287
853.5575	-0.0169
853.7217	-0.0289
853.8859	-0.1263
854.05	-0.0448
854.2141	-0.0321
854.3782	-0.0427
854.5423	-0.0297
854.7063	0.0788
854.8703	-0.0289
855.0343	-0.0664
855.1983	-0.0891
855.3623	0.066
855.5262	0.1057
855.6901	-0.048
855.854	-0.0373
856.0179	-0.0127
856.1818	0.1362
856.3456	-0.0095
856.5094	-0.0201
856.6732	-0.0209
856.837	-0.0574
857.0008	0.1161
857.1645	-0.0797
857.3282	-0.1143
857.4919	0.0102
857.6556	0.0966
857.8192	-0.0664
857.9828	0.0359
858.1465	0.2901
858.31	-0.1735
858.4736	-0.1349
858.6372	-0.2599
858.8007	-0.2045
858.9642	0.044
859.1277	0.0314
859.2911	0.0548
859.4546	0.0924
859.618	-0.281
859.7814	-0.1344
859.9448	0.1199
860.1081	0.0634
860.2715	0.07
860.4348	-0.0667
860.5981	-0.0807
860.7614	0.1392
860.9246	-0.2462
861.0879	-0.0679
861.2511	0.0742
861.4143	-0.2367
861.5774	0.2213
861.7406	-0.2135
861.9037	0.1138
862.0668	-0.0668
862.2299	-0.1397
862.393	-0.6522
862.556	0.2
862.7191	-0.4076
862.8821	-0.3313
863.0451	0.0235
863.208	0.1544
863.371	0.0381
863.5339	-0.1085
863.6968	0.2377
863.8597	-0
864.0225	0.001
864.1854	-0.0496
864.3482	-0
864.511	-0.0529
864.6737	0.0725
864.8365	0.1849
864.9992	-0.3674
865.1619	-0.0875
865.3246	0.3034
865.4873	0.2732
865.65	-0.4534
865.8126	0.0341
865.9752	0.2807
866.1378	0.0398
866.3004	-0
866.4629	0.4125
866.6254	-0.2408
866.7879	-0.0776
866.9504	0.3316
867.1129	-0
867.2753	0.7144
867.4377	0.1921
867.6001	-0.168
867.7625	-0.0577
867.9249	-0
868.0872	0.1819
868.2495	-0.0225
868.4118	-0.3061
868.5741	-0.1701
868.7363	-0.3864
868.8986	-0.3535
869.0608	-0.0452
869.223	0.0213
869.3851	0.094
869.5473	-0
869.7094	0.1645
869.8715	-0.2766
870.0336	-0
870.1957	-0.315
870.3577	-0.0378
870.5197	-0.2081
870.6817	-0.4067
870.8437	-0.1103
871.0057	-0.4645
871.1676	-0
871.3295	-0.3939
871.4914	-0.3949
871.6533	-0.1695
871.8151	-0.8445
871.977	-0
872.1388	-0
872.3006	-0
872.4623	-0
872.6241	0.0755
872.7858	0.0924
872.9475	0.0022
873.1092	-0.0115
873.2709	-0.2972
873.4325	0.0548
873.5941	-0
873.7557	-0
873.9173	0.0488
874.0789	-0.3992
874.2404	-0.4234
874.4019	0.5188
874.5634	-0
874.7249	0.0109
874.8863	-0.1314
875.0478	0.3625
875.2092	-0
875.3706	-0.1183
875.5319	-0.4909
875.6933	0.4555
875.8546	0.0784
876.0159	-0
876.1772	-0
876.3385	-0.3415
876.4997	0.128
876.6609	-0.3675
876.8221	-0
876.9833	-0
877.1445	-0
877.3056	0.1653
877.4667	-0.2705
877.6278	-0.129
877.7889	-0.4357
877.9499	-0
878.111	-0.1899
878.272	-0.4357
878.433	-0.071
878.5939	1.489
878.7549	-0.241
878.9158	-0.8996
879.0767	-0.2329
879.2376	-0
879.3984	-0
879.5593	-0
879.7201	-0.1577
879.8809	-0.7171
880.0417	-0.3632
880.2024	0.2239
880.3632	-0.6185
880.5239	0.0995
880.6846	-0
880.8452	-1.5563
881.0059	-1.2253
881.1665	1.2533
881.3271	-0.156
881.4877	1.0072
881.6483	-0.3576
881.8088	-0.0893
881.9693	-0
882.1298	-0
882.2903	-0
