Data from MonoPyChalIsomerACN10uM360nmA_Absorbance_13-57-24-204.txt Node
Date: Fri Jul 05 13:57:24 BST 2024
User: LASERRRRR
Spectrometer: FLMT03099
Trigger mode: 0
Integration Time (sec): 1.000000E-1
Scans to average: 1
Electric dark correction enabled: true
Nonlinearity correction enabled: false
Boxcar width: 0
XAxis mode: Wavelengths
Number of Pixels in Spectrum: 3648
>>>>>Begin Spectral Data<<<<<
179.3399	-0.1471
179.5586	-0.1471
179.7771	-0.1471
179.9957	0.3525
180.2143	-0
180.4329	0.0634
180.6514	-0
180.8699	-0
181.0885	0.0237
181.307	0.0713
181.5255	-0.9267
181.744	-0
181.9625	-0
182.181	-0.7697
182.3994	0.0561
182.6179	0.5712
182.8363	0.0783
183.0547	-0.5071
183.2732	0.0575
183.4916	0.0587
183.71	0.0978
183.9284	0.0477
184.1467	-0.0861
184.3651	-0.0961
184.5835	-0.1367
184.8018	0.2716
185.0201	0.2363
185.2385	0.1763
185.4568	0.1956
185.6751	-0.1799
185.8934	0.207
186.1117	-0.0447
186.3299	0.169
186.5482	0.0968
186.7664	-0.0477
186.9847	0.273
187.2029	-0.0362
187.4211	0.0775
187.6393	0.1685
187.8575	-0.0983
188.0757	0.1777
188.2939	0.1578
188.512	0.0928
188.7302	-0.063
188.9483	-0.0162
189.1665	0.0201
189.3846	-0.1172
189.6027	0.2451
189.8208	0.0782
190.0389	0.0221
190.257	0.207
190.475	0.5329
190.6931	0.3441
190.9111	0.1322
191.1292	0.1282
191.3472	0.441
191.5652	0.2967
191.7832	0.0731
192.0012	0.3725
192.2192	0.3534
192.4371	0.3939
192.6551	0.3414
192.873	0.3438
193.091	0.5305
193.3089	0.6381
193.5268	0.7876
193.7447	0.3996
193.9626	0.6011
194.1805	0.4991
194.3984	0.6196
194.6162	0.5338
194.8341	0.4226
195.0519	0.4781
195.2697	0.7072
195.4875	0.5724
195.7054	0.6456
195.9231	0.4351
196.1409	0.4651
196.3587	0.5861
196.5765	0.4725
196.7942	0.5396
197.012	0.4986
197.2297	0.6122
197.4474	0.7077
197.6651	0.6422
197.8828	0.5887
198.1005	0.5607
198.3182	0.5666
198.5358	0.703
198.7535	0.5508
198.9711	0.536
199.1888	0.5772
199.4064	0.8643
199.624	0.5502
199.8416	0.4814
200.0592	0.7073
200.2767	0.6097
200.4943	0.709
200.7119	0.6986
200.9294	0.7184
201.1469	0.6109
201.3645	0.6479
201.582	0.641
201.7995	0.528
202.017	0.776
202.2344	0.5632
202.4519	0.7679
202.6694	0.5888
202.8868	0.5936
203.1042	0.819
203.3217	0.6551
203.5391	0.6408
203.7565	0.5618
203.9739	0.6526
204.1913	0.6805
204.4086	0.6712
204.626	0.6868
204.8433	0.6233
205.0607	0.6641
205.278	0.6007
205.4953	0.5839
205.7126	0.5706
205.9299	0.7223
206.1472	0.7273
206.3644	0.619
206.5817	0.7038
206.7989	0.7396
207.0162	0.6502
207.2334	0.6192
207.4506	0.6362
207.6678	0.6164
207.885	0.6558
208.1022	0.6286
208.3194	0.6143
208.5365	0.6694
208.7537	0.6327
208.9708	0.53
209.1879	0.5876
209.405	0.6234
209.6222	0.7228
209.8392	0.66
210.0563	0.6296
210.2734	0.6213
210.4905	0.5959
210.7075	0.5708
210.9245	0.5789
211.1416	0.7164
211.3586	0.6878
211.5756	0.621
211.7926	0.592
212.0096	0.6357
212.2265	0.5895
212.4435	0.614
212.6604	0.5793
212.8774	0.5432
213.0943	0.5799
213.3112	0.5369
213.5281	0.4926
213.745	0.4953
213.9619	0.5007
214.1788	0.4741
214.3956	0.4542
214.6125	0.4537
214.8293	0.4585
215.0461	0.4745
215.2629	0.4681
215.4798	0.4708
215.6965	0.4227
215.9133	0.4389
216.1301	0.3933
216.3469	0.4547
216.5636	0.4281
216.7803	0.3925
216.9971	0.4296
217.2138	0.3671
217.4305	0.4018
217.6472	0.3538
217.8639	0.3589
218.0805	0.3117
218.2972	0.3371
218.5138	0.326
218.7305	0.3235
218.9471	0.3189
219.1637	0.2942
219.3803	0.3091
219.5969	0.2898
219.8135	0.2622
220.0301	0.2866
220.2466	0.2824
220.4632	0.2743
220.6797	0.241
220.8962	0.2408
221.1127	0.2583
221.3292	0.2534
221.5457	0.2433
221.7622	0.2397
221.9787	0.2554
222.1951	0.2298
222.4116	0.2492
222.628	0.2553
222.8444	0.2529
223.0608	0.2633
223.2772	0.2679
223.4936	0.2453
223.71	0.2573
223.9264	0.281
224.1427	0.2576
224.3591	0.2443
224.5754	0.2793
224.7917	0.2943
225.008	0.2791
225.2243	0.2786
225.4406	0.2842
225.6569	0.2721
225.8732	0.2634
226.0894	0.2865
226.3057	0.2696
226.5219	0.2969
226.7381	0.2804
226.9543	0.2856
227.1705	0.3114
227.3867	0.2798
227.6029	0.2982
227.8191	0.3007
228.0352	0.2994
228.2513	0.3358
228.4675	0.3112
228.6836	0.3169
228.8997	0.311
229.1158	0.3097
229.3319	0.3079
229.548	0.3216
229.764	0.3317
229.9801	0.3334
230.1961	0.3449
230.4121	0.3356
230.6282	0.3535
230.8442	0.3182
231.0602	0.3681
231.2761	0.3587
231.4921	0.3527
231.7081	0.3572
231.924	0.3565
232.14	0.3774
232.3559	0.3498
232.5718	0.3628
232.7877	0.3656
233.0036	0.3647
233.2195	0.3595
233.4353	0.3567
233.6512	0.3699
233.867	0.3843
234.0829	0.3609
234.2987	0.3664
234.5145	0.3849
234.7303	0.3812
234.9461	0.375
235.1619	0.3891
235.3776	0.3879
235.5934	0.3993
235.8091	0.3596
236.0249	0.3889
236.2406	0.3906
236.4563	0.3736
236.672	0.403
236.8877	0.4023
237.1034	0.3996
237.319	0.3988
237.5347	0.4123
237.7503	0.4067
237.966	0.4247
238.1816	0.4043
238.3972	0.4062
238.6128	0.3879
238.8284	0.418
239.0439	0.424
239.2595	0.408
239.475	0.4064
239.6906	0.4138
239.9061	0.3973
240.1216	0.4076
240.3371	0.3864
240.5526	0.4082
240.7681	0.397
240.9836	0.3912
241.199	0.3834
241.4145	0.3808
241.6299	0.3704
241.8453	0.3851
242.0607	0.386
242.2761	0.3569
242.4915	0.3714
242.7069	0.3685
242.9223	0.356
243.1376	0.3533
243.353	0.332
243.5683	0.3447
243.7836	0.3164
243.9989	0.335
244.2142	0.2916
244.4295	0.3202
244.6448	0.3051
244.86	0.289
245.0753	0.3015
245.2905	0.2901
245.5057	0.2614
245.721	0.2831
245.9362	0.263
246.1514	0.2739
246.3665	0.2559
246.5817	0.2582
246.7969	0.2539
247.012	0.2294
247.2271	0.2334
247.4423	0.2348
247.6574	0.2395
247.8725	0.235
248.0876	0.2208
248.3026	0.2198
248.5177	0.2244
248.7328	0.229
248.9478	0.2048
249.1628	0.2165
249.3779	0.2178
249.5929	0.2042
249.8079	0.2262
250.0228	0.2024
250.2378	0.2046
250.4528	0.1979
250.6677	0.1902
250.8827	0.1988
251.0976	0.2051
251.3125	0.1983
251.5274	0.1797
251.7423	0.1887
251.9572	0.18
252.172	0.183
252.3869	0.1819
252.6017	0.174
252.8166	0.1627
253.0314	0.1609
253.2462	0.1735
253.461	0.1902
253.6758	0.1648
253.8906	0.1736
254.1053	0.1692
254.3201	0.168
254.5348	0.1743
254.7496	0.1734
254.9643	0.172
255.179	0.1721
255.3937	0.1717
255.6083	0.1864
255.823	0.1758
256.0377	0.1704
256.2523	0.1743
256.467	0.1565
256.6816	0.1728
256.8962	0.1667
257.1108	0.16
257.3254	0.1853
257.54	0.169
257.7545	0.1786
257.9691	0.1646
258.1836	0.1623
258.3981	0.1727
258.6127	0.1786
258.8272	0.1645
259.0417	0.1718
259.2561	0.1638
259.4706	0.1687
259.6851	0.1631
259.8995	0.1672
260.114	0.1691
260.3284	0.1566
260.5428	0.1454
260.7572	0.1694
260.9716	0.1737
261.186	0.1587
261.4003	0.166
261.6147	0.1597
261.829	0.1626
262.0433	0.163
262.2577	0.1581
262.472	0.1657
262.6863	0.1631
262.9005	0.1643
263.1148	0.1649
263.3291	0.1485
263.5433	0.1608
263.7576	0.1523
263.9718	0.1607
264.186	0.1545
264.4002	0.1518
264.6144	0.156
264.8286	0.1646
265.0427	0.1652
265.2569	0.154
265.471	0.1598
265.6851	0.1497
265.8993	0.1584
266.1134	0.1583
266.3275	0.1591
266.5415	0.1595
266.7556	0.1633
266.9697	0.1678
267.1837	0.1733
267.3978	0.1638
267.6118	0.1773
267.8258	0.1664
268.0398	0.152
268.2538	0.1609
268.4677	0.166
268.6817	0.1525
268.8957	0.1508
269.1096	0.1623
269.3235	0.1681
269.5374	0.1513
269.7514	0.1541
269.9652	0.1453
270.1791	0.1395
270.393	0.1377
270.6068	0.1537
270.8207	0.1368
271.0345	0.1344
271.2483	0.1422
271.4622	0.1486
271.676	0.1433
271.8897	0.1274
272.1035	0.1446
272.3173	0.1151
272.531	0.1529
272.7448	0.1328
272.9585	0.1316
273.1722	0.1427
273.3859	0.1441
273.5996	0.1299
273.8133	0.1392
274.0269	0.1217
274.2406	0.1361
274.4542	0.1429
274.6679	0.1174
274.8815	0.1339
275.0951	0.1365
275.3087	0.1408
275.5223	0.1448
275.7358	0.1451
275.9494	0.1328
276.1629	0.1374
276.3765	0.1281
276.59	0.1346
276.8035	0.1342
277.017	0.1335
277.2305	0.1428
277.444	0.1462
277.6574	0.1342
277.8709	0.138
278.0843	0.1317
278.2978	0.1461
278.5112	0.1398
278.7246	0.1377
278.938	0.1391
279.1513	0.1464
279.3647	0.1517
279.5781	0.139
279.7914	0.1484
280.0047	0.147
280.2181	0.1475
280.4314	0.1504
280.6447	0.149
280.8579	0.1444
281.0712	0.1501
281.2845	0.1563
281.4977	0.151
281.711	0.1445
281.9242	0.1427
282.1374	0.1481
282.3506	0.1545
282.5638	0.1556
282.7769	0.1555
282.9901	0.1415
283.2033	0.1595
283.4164	0.1615
283.6295	0.149
283.8426	0.1425
284.0557	0.1518
284.2688	0.1617
284.4819	0.1772
284.695	0.1617
284.908	0.1668
285.1211	0.1516
285.3341	0.1676
285.5471	0.1508
285.7601	0.1712
285.9731	0.147
286.1861	0.152
286.3991	0.1744
286.612	0.1702
286.825	0.159
287.0379	0.1575
287.2508	0.1618
287.4637	0.157
287.6766	0.1538
287.8895	0.1684
288.1024	0.1754
288.3152	0.1649
288.5281	0.1544
288.7409	0.1626
288.9538	0.1601
289.1666	0.1683
289.3794	0.1658
289.5922	0.1624
289.8049	0.1673
290.0177	0.1648
290.2304	0.1797
290.4432	0.1812
290.6559	0.1709
290.8686	0.1745
291.0813	0.1691
291.294	0.1748
291.5067	0.1894
291.7194	0.1689
291.932	0.184
292.1447	0.1757
292.3573	0.1585
292.5699	0.1655
292.7825	0.1812
292.9951	0.1656
293.2077	0.1693
293.4203	0.1705
293.6328	0.1558
293.8454	0.179
294.0579	0.1614
294.2704	0.1773
294.4829	0.1618
294.6954	0.1847
294.9079	0.1649
295.1204	0.167
295.3328	0.1702
295.5453	0.177
295.7577	0.1758
295.9701	0.1745
296.1825	0.1723
296.3949	0.1734
296.6073	0.1678
296.8197	0.1669
297.0321	0.1762
297.2444	0.1577
297.4567	0.1726
297.6691	0.1753
297.8814	0.1705
298.0937	0.1823
298.306	0.178
298.5182	0.1735
298.7305	0.1889
298.9428	0.1729
299.155	0.1725
299.3672	0.1697
299.5794	0.1595
299.7916	0.1756
300.0038	0.1727
300.216	0.1767
300.4282	0.1763
300.6403	0.1743
300.8525	0.1808
301.0646	0.162
301.2767	0.1763
301.4888	0.1647
301.7009	0.1682
301.913	0.172
302.125	0.1718
302.3371	0.1692
302.5491	0.1732
302.7612	0.1753
302.9732	0.1747
303.1852	0.1644
303.3972	0.1661
303.6092	0.1626
303.8211	0.1532
304.0331	0.1709
304.245	0.1577
304.457	0.15
304.6689	0.1666
304.8808	0.1717
305.0927	0.1606
305.3046	0.1558
305.5164	0.1676
305.7283	0.1468
305.9401	0.1578
306.152	0.1494
306.3638	0.1527
306.5756	0.164
306.7874	0.1439
306.9992	0.1519
307.2109	0.1361
307.4227	0.1317
307.6344	0.1492
307.8462	0.1362
308.0579	0.1438
308.2696	0.1417
308.4813	0.1316
308.693	0.134
308.9046	0.1424
309.1163	0.1445
309.328	0.1293
309.5396	0.1284
309.7512	0.1257
309.9628	0.1302
310.1744	0.1238
310.386	0.1212
310.5976	0.1323
310.8091	0.12
311.0207	0.1229
311.2322	0.1273
311.4437	0.1072
311.6552	0.1042
311.8667	0.1184
312.0782	0.1068
312.2897	0.0995
312.5012	0.1227
312.7126	0.1057
312.924	0.1
313.1355	0.1186
313.3469	0.1037
313.5583	0.1091
313.7696	0.0978
313.981	0.1109
314.1924	0.0975
314.4037	0.0996
314.6151	0.1026
314.8264	0.0991
315.0377	0.0999
315.249	0.1053
315.4603	0.103
315.6716	0.1004
315.8828	0.0884
316.0941	0.099
316.3053	0.099
316.5165	0.0869
316.7277	0.0891
316.9389	0.1043
317.1501	0.0972
317.3613	0.1025
317.5724	0.0888
317.7836	0.0963
317.9947	0.1026
318.2058	0.0943
318.417	0.0852
318.6281	0.083
318.8391	0.1016
319.0502	0.0911
319.2613	0.0946
319.4723	0.0929
319.6834	0.0969
319.8944	0.092
320.1054	0.0927
320.3164	0.0922
320.5274	0.0929
320.7383	0.0905
320.9493	0.094
321.1602	0.0942
321.3712	0.085
321.5821	0.0995
321.793	0.0908
322.0039	0.0926
322.2148	0.0819
322.4257	0.1058
322.6365	0.1075
322.8474	0.1059
323.0582	0.0933
323.269	0.098
323.4798	0.0997
323.6906	0.1024
323.9014	0.0862
324.1122	0.0988
324.3229	0.0806
324.5337	0.0941
324.7444	0.0795
324.9551	0.1049
325.1658	0.0945
325.3765	0.1012
325.5872	0.0982
325.7979	0.0926
326.0085	0.1023
326.2192	0.0936
326.4298	0.1029
326.6404	0.0907
326.851	0.0931
327.0616	0.0927
327.2722	0.103
327.4828	0.1017
327.6933	0.0929
327.9039	0.0971
328.1144	0.0958
328.3249	0.1044
328.5354	0.0971
328.7459	0.0975
328.9564	0.0918
329.1669	0.0946
329.3773	0.1032
329.5878	0.0915
329.7982	0.094
330.0086	0.0936
330.219	0.1077
330.4294	0.0888
330.6398	0.1019
330.8502	0.0977
331.0605	0.1003
331.2708	0.1093
331.4812	0.1092
331.6915	0.1109
331.9018	0.1002
332.1121	0.103
332.3224	0.1028
332.5326	0.1127
332.7429	0.1017
332.9531	0.1143
333.1633	0.1077
333.3735	0.092
333.5837	0.1031
333.7939	0.1026
334.0041	0.1103
334.2143	0.1183
334.4244	0.0959
334.6346	0.086
334.8447	0.1189
335.0548	0.1016
335.2649	0.0977
335.475	0.111
335.685	0.1126
335.8951	0.1151
336.1051	0.1037
336.3152	0.102
336.5252	0.1002
336.7352	0.1113
336.9452	0.1044
337.1552	0.1065
337.3652	0.1034
337.5751	0.1054
337.7851	0.1126
337.995	0.1074
338.2049	0.0996
338.4148	0.1055
338.6247	0.1104
338.8346	0.1076
339.0445	0.1018
339.2543	0.1046
339.4642	0.0995
339.674	0.1089
339.8838	0.0983
340.0936	0.1124
340.3034	0.1131
340.5132	0.1085
340.7229	0.1188
340.9327	0.1175
341.1424	0.1014
341.3522	0.135
341.5619	0.1128
341.7716	0.1219
341.9813	0.1045
342.1909	0.1067
342.4006	0.1261
342.6102	0.1188
342.8199	0.1169
343.0295	0.1213
343.2391	0.1214
343.4487	0.1161
343.6583	0.1124
343.8679	0.1146
344.0774	0.121
344.287	0.1257
344.4965	0.1085
344.706	0.1235
344.9155	0.1228
345.125	0.1136
345.3345	0.1185
345.544	0.1258
345.7534	0.1137
345.9629	0.1096
346.1723	0.1264
346.3817	0.1206
346.5911	0.1142
346.8005	0.1351
347.0099	0.1327
347.2193	0.1412
347.4286	0.1212
347.638	0.1414
347.8473	0.1349
348.0566	0.1332
348.2659	0.1426
348.4752	0.1353
348.6845	0.1322
348.8937	0.1407
349.103	0.1391
349.3122	0.1292
349.5214	0.1279
349.7306	0.1428
349.9398	0.14
350.149	0.1269
350.3582	0.1323
350.5674	0.1415
350.7765	0.1355
350.9856	0.137
351.1948	0.1391
351.4039	0.1154
351.613	0.1243
351.822	0.1425
352.0311	0.1481
352.2402	0.1447
352.4492	0.157
352.6582	0.1525
352.8672	0.1488
353.0762	0.1379
353.2852	0.1458
353.4942	0.1413
353.7032	0.1381
353.9121	0.1493
354.1211	0.1568
354.33	0.1519
354.5389	0.1515
354.7478	0.1482
354.9567	0.1485
355.1655	0.1352
355.3744	0.1509
355.5833	0.1613
355.7921	0.1699
356.0009	0.1469
356.2097	0.1713
356.4185	0.1612
356.6273	0.1574
356.8361	0.1627
357.0448	0.1482
357.2536	0.1729
357.4623	0.1513
357.671	0.163
357.8797	0.1592
358.0884	0.1672
358.2971	0.166
358.5057	0.1662
358.7144	0.177
358.923	0.1639
359.1316	0.1788
359.3402	0.165
359.5488	0.176
359.7574	0.1622
359.966	0.1701
360.1746	0.1753
360.3831	0.1738
360.5916	0.177
360.8002	0.161
361.0087	0.1754
361.2172	0.1766
361.4256	0.1678
361.6341	0.1808
361.8426	0.1834
362.051	0.1634
362.2594	0.1756
362.4678	0.1883
362.6762	0.1983
362.8846	0.1739
363.093	0.1727
363.3014	0.1802
363.5097	0.1717
363.718	0.1825
363.9264	0.1834
364.1347	0.19
364.343	0.1903
364.5513	0.2004
364.7595	0.2055
364.9678	0.2109
365.176	0.2035
365.3842	0.2058
365.5925	0.2032
365.8007	0.1868
366.0089	0.1853
366.217	0.1961
366.4252	0.1939
366.6333	0.2212
366.8415	0.2037
367.0496	0.185
367.2577	0.2125
367.4658	0.2064
367.6739	0.2196
367.882	0.2159
368.09	0.203
368.2981	0.2096
368.5061	0.2127
368.7141	0.2224
368.9221	0.2263
369.1301	0.2268
369.3381	0.21
369.5461	0.2226
369.754	0.2217
369.962	0.2334
370.1699	0.2328
370.3778	0.2197
370.5857	0.2258
370.7936	0.2282
371.0015	0.2368
371.2093	0.2245
371.4172	0.2285
371.625	0.2217
371.8328	0.2322
372.0406	0.2239
372.2484	0.2298
372.4562	0.2227
372.664	0.2376
372.8717	0.2415
373.0795	0.2134
373.2872	0.2329
373.4949	0.2469
373.7026	0.235
373.9103	0.2409
374.118	0.2365
374.3256	0.235
374.5333	0.2341
374.7409	0.2329
374.9485	0.2379
375.1561	0.2353
375.3637	0.2425
375.5713	0.2364
375.7789	0.2393
375.9864	0.2553
376.194	0.2376
376.4015	0.2644
376.609	0.2458
376.8165	0.2467
377.024	0.2427
377.2315	0.2403
377.4389	0.2501
377.6464	0.2478
377.8538	0.2351
378.0612	0.2459
378.2686	0.2744
378.476	0.2678
378.6834	0.2638
378.8908	0.2745
379.0981	0.2577
379.3055	0.2831
379.5128	0.252
379.7201	0.2806
379.9274	0.2612
380.1347	0.2462
380.342	0.2919
380.5492	0.2532
380.7565	0.2697
380.9637	0.2617
381.1709	0.263
381.3781	0.2745
381.5853	0.2731
381.7925	0.2727
381.9997	0.2712
382.2068	0.2862
382.4139	0.2593
382.6211	0.263
382.8282	0.2618
383.0353	0.2535
383.2424	0.283
383.4494	0.2921
383.6565	0.2605
383.8635	0.279
384.0706	0.285
384.2776	0.2731
384.4846	0.2793
384.6916	0.2691
384.8986	0.2742
385.1055	0.2827
385.3125	0.2731
385.5194	0.2619
385.7263	0.2972
385.9333	0.2662
386.1402	0.2789
386.347	0.2763
386.5539	0.2642
386.7608	0.2926
386.9676	0.2578
387.1744	0.2687
387.3813	0.2704
387.5881	0.2782
387.7948	0.2632
388.0016	0.2767
388.2084	0.2756
388.4151	0.2585
388.6219	0.2682
388.8286	0.2637
389.0353	0.2906
389.242	0.271
389.4487	0.2693
389.6553	0.2804
389.862	0.2457
390.0686	0.2553
390.2753	0.273
390.4819	0.2619
390.6885	0.2595
390.8951	0.271
391.1016	0.2547
391.3082	0.247
391.5147	0.2646
391.7213	0.2563
391.9278	0.2434
392.1343	0.2488
392.3408	0.2463
392.5473	0.238
392.7537	0.2394
392.9602	0.2428
393.1666	0.2477
393.373	0.2494
393.5794	0.2564
393.7858	0.2443
393.9922	0.2439
394.1986	0.2537
394.4049	0.2461
394.6113	0.2413
394.8176	0.2308
395.0239	0.2463
395.2302	0.2572
395.4365	0.2227
395.6428	0.2609
395.8491	0.2277
396.0553	0.2388
396.2615	0.2432
396.4678	0.2307
396.674	0.2256
396.8802	0.237
397.0863	0.2409
397.2925	0.2261
397.4987	0.2358
397.7048	0.2281
397.9109	0.2242
398.117	0.2313
398.3231	0.227
398.5292	0.2291
398.7353	0.2458
398.9413	0.2298
399.1474	0.2367
399.3534	0.2406
399.5594	0.2246
399.7654	0.2397
399.9714	0.2375
400.1774	0.2391
400.3833	0.2363
400.5893	0.2391
400.7952	0.25
401.0011	0.2323
401.207	0.2262
401.4129	0.2174
401.6188	0.2364
401.8247	0.2258
402.0305	0.224
402.2364	0.22
402.4422	0.2295
402.648	0.2388
402.8538	0.2548
403.0596	0.2244
403.2654	0.2344
403.4711	0.2364
403.6768	0.2333
403.8826	0.24
404.0883	0.2389
404.294	0.2271
404.4997	0.2409
404.7054	0.2362
404.911	0.2151
405.1167	0.2354
405.3223	0.244
405.5279	0.2473
405.7335	0.2363
405.9391	0.2221
406.1447	0.2243
406.3502	0.2521
406.5558	0.2408
406.7613	0.2432
406.9668	0.2298
407.1724	0.2293
407.3778	0.2282
407.5833	0.2384
407.7888	0.2172
407.9942	0.2584
408.1997	0.2323
408.4051	0.2226
408.6105	0.2593
408.8159	0.2233
409.0213	0.2372
409.2267	0.2517
409.432	0.2343
409.6374	0.2362
409.8427	0.2129
410.048	0.2321
410.2533	0.2252
410.4586	0.2522
410.6639	0.2203
410.8691	0.2185
411.0744	0.2042
411.2796	0.2198
411.4848	0.2366
411.69	0.2286
411.8952	0.2448
412.1004	0.2182
412.3056	0.2257
412.5107	0.2177
412.7158	0.2394
412.921	0.2392
413.1261	0.2314
413.3312	0.2247
413.5362	0.2187
413.7413	0.2297
413.9464	0.2093
414.1514	0.2318
414.3564	0.2145
414.5614	0.2164
414.7664	0.2018
414.9714	0.2217
415.1764	0.2176
415.3813	0.2159
415.5863	0.2211
415.7912	0.2144
415.9961	0.2196
416.201	0.2243
416.4059	0.2497
416.6108	0.2162
416.8156	0.2418
417.0205	0.224
417.2253	0.2089
417.4301	0.2335
417.6349	0.2213
417.8397	0.2095
418.0445	0.2174
418.2492	0.2181
418.454	0.2327
418.6587	0.2021
418.8634	0.2301
419.0681	0.2126
419.2728	0.2133
419.4775	0.2049
419.6822	0.2044
419.8868	0.1866
420.0915	0.2076
420.2961	0.2027
420.5007	0.1974
420.7053	0.1961
420.9099	0.2004
421.1144	0.2275
421.319	0.1947
421.5235	0.2098
421.728	0.2115
421.9325	0.2234
422.137	0.2068
422.3415	0.2005
422.546	0.2086
422.7504	0.203
422.9549	0.2099
423.1593	0.2159
423.3637	0.1993
423.5681	0.1891
423.7725	0.1955
423.9769	0.1917
424.1812	0.1874
424.3856	0.1987
424.5899	0.1848
424.7942	0.2026
424.9985	0.1981
425.2028	0.1922
425.4071	0.2131
425.6113	0.175
425.8156	0.1903
426.0198	0.1888
426.224	0.1693
426.4282	0.1933
426.6324	0.1787
426.8366	0.187
427.0407	0.1765
427.2449	0.1817
427.449	0.1919
427.6531	0.1632
427.8572	0.1793
428.0613	0.1755
428.2654	0.1776
428.4694	0.1768
428.6735	0.1677
428.8775	0.1825
429.0815	0.1703
429.2855	0.1582
429.4895	0.1741
429.6935	0.162
429.8975	0.1732
430.1014	0.1546
430.3053	0.1463
430.5093	0.1722
430.7132	0.1624
430.9171	0.1423
431.1209	0.1516
431.3248	0.1386
431.5286	0.1689
431.7325	0.1543
431.9363	0.1367
432.1401	0.1678
432.3439	0.1408
432.5477	0.1224
432.7514	0.1285
432.9552	0.1448
433.1589	0.1339
433.3627	0.1394
433.5664	0.1387
433.7701	0.1303
433.9737	0.1358
434.1774	0.1197
434.3811	0.1226
434.5847	0.1445
434.7883	0.1346
434.9919	0.1165
435.1955	0.1266
435.3991	0.1127
435.6027	0.1214
435.8062	0.1145
436.0098	0.1329
436.2133	0.1244
436.4168	0.1033
436.6203	0.1118
436.8238	0.1178
437.0272	0.1095
437.2307	0.1092
437.4341	0.1214
437.6375	0.1085
437.841	0.0956
438.0443	0.1204
438.2477	0.1106
438.4511	0.0928
438.6545	0.096
438.8578	0.0998
439.0611	0.0946
439.2644	0.1052
439.4677	0.0955
439.671	0.0889
439.8743	0.0986
440.0775	0.0819
440.2808	0.0851
440.484	0.0711
440.6872	0.0745
440.8904	0.0644
441.0936	0.0917
441.2967	0.0771
441.4999	0.0766
441.703	0.0604
441.9062	0.0633
442.1093	0.081
442.3124	0.0747
442.5155	0.071
442.7185	0.0691
442.9216	0.0395
443.1246	0.075
443.3276	0.0571
443.5307	0.0643
443.7337	0.0658
443.9366	0.0699
444.1396	0.0592
444.3426	0.0628
444.5455	0.0574
444.7484	0.0497
444.9513	0.0594
445.1542	0.0665
445.3571	0.0609
445.56	0.0529
445.7628	0.0557
445.9657	0.0444
446.1685	0.0582
446.3713	0.0609
446.5741	0.0383
446.7769	0.0397
446.9797	0.0577
447.1824	0.0482
447.3852	0.031
447.5879	0.0538
447.7906	0.0544
447.9933	0.0473
448.196	0.0338
448.3986	0.0547
448.6013	0.0392
448.8039	0.0246
449.0066	0.0302
449.2092	0.0389
449.4118	0.04
449.6143	0.0342
449.8169	0.0327
450.0195	0.0193
450.222	0.0163
450.4245	0.0364
450.627	0.0456
450.8295	0.0312
451.032	0.0416
451.2345	0.0138
451.4369	0.0377
451.6394	0.0342
451.8418	0.018
452.0442	0.0162
452.2466	0.0279
452.449	-0.0007
452.6513	0.0231
452.8537	0.022
453.056	0.01
453.2583	0.0309
453.4607	0.0262
453.663	0.011
453.8652	0.0344
454.0675	0.0116
454.2697	0.0266
454.472	0.0127
454.6742	0.0322
454.8764	0.0155
455.0786	0.0306
455.2808	0.0084
455.4829	0.0241
455.6851	0.0377
455.8872	0.0257
456.0893	0.027
456.2915	-0.0018
456.4935	0.0284
456.6956	0.0034
456.8977	0.0177
457.0997	0.0198
457.3018	0.0019
457.5038	0.0205
457.7058	0.0202
457.9078	0.0073
458.1098	0.0193
458.3117	0.0086
458.5137	0.0252
458.7156	0.0103
458.9175	-0.0083
459.1194	0.0126
459.3213	0.015
459.5232	0.0061
459.725	-0.0023
459.9269	0.008
460.1287	0.0037
460.3305	-0.0061
460.5323	-0.0004
460.7341	0.0094
460.9359	0.0114
461.1376	0.0042
461.3394	0.0042
461.5411	0.0046
461.7428	0.0057
461.9445	0.0335
462.1462	0.0174
462.3479	0.011
462.5495	0.0018
462.7512	0.0214
462.9528	0.0006
463.1544	0.0066
463.356	0.01
463.5576	0.016
463.7592	-0.0051
463.9607	0.0007
464.1623	0.0223
464.3638	0.0236
464.5653	-0.0051
464.7668	0.0075
464.9683	0.0173
465.1697	0.0076
465.3712	-0.0059
465.5726	0.003
465.7741	-0.0047
465.9755	-0.0016
466.1769	0.0103
466.3782	0.0128
466.5796	-0.0011
466.7809	0.0204
466.9823	-0.0007
467.1836	0.0101
467.3849	-0.004
467.5862	-0.0095
467.7875	0.0043
467.9887	0.0255
468.19	-0.0095
468.3912	-0.0098
468.5924	-0.0051
468.7936	-0.0047
468.9948	0.003
469.196	0.0121
469.3972	-0.0051
469.5983	0.0136
469.7994	-0.0147
470.0006	-0.0031
470.2017	-0.0206
470.4027	0.0031
470.6038	0.0051
470.8049	-0.0201
471.0059	-0.0162
471.2069	-0.0157
471.408	0.0056
471.6089	-0.0016
471.8099	0.0071
472.0109	-0.0083
472.2119	-0.008
472.4128	-0.0162
472.6137	-0.0018
472.8146	-0.0227
473.0155	-0.0038
473.2164	0.0058
473.4173	0.0055
473.6181	-0.0034
473.819	0.0093
474.0198	-0.005
474.2206	-0.0011
474.4214	-0.0071
474.6222	-0.0009
474.8229	-0.0089
475.0237	-0.0183
475.2244	-0.0019
475.4251	-0.0128
475.6258	0.0087
475.8265	0.0013
476.0272	0.0052
476.2278	-0.008
476.4285	-0.0095
476.6291	-0.0079
476.8297	-0.0004
477.0303	-0.004
477.2309	0.0002
477.4315	-0.008
477.632	-0.0031
477.8326	0.0002
478.0331	0.0116
478.2336	0.0015
478.4341	-0.0034
478.6346	-0.0091
478.8351	-0.0001
479.0355	0.0058
479.236	-0.0023
479.4364	-0.0034
479.6368	0.0035
479.8372	-0.0064
480.0376	0.0046
480.2379	-0.0207
480.4383	0.0007
480.6386	0.0071
480.8389	-0.003
481.0392	-0.0049
481.2395	-0.0068
481.4398	-0.0008
481.6401	0.0017
481.8403	-0.0085
482.0405	-0.007
482.2408	-0.0108
482.441	0.0114
482.6411	-0.008
482.8413	-0.0029
483.0415	-0.0099
483.2416	-0.0067
483.4417	0.0036
483.6419	-0.0006
483.8419	-0.0075
484.042	0.0126
484.2421	-0.0015
484.4422	0.0042
484.6422	0.0081
484.8422	-0.0023
485.0422	-0.0178
485.2422	0.0108
485.4422	-0.0065
485.6422	-0.0084
485.8421	-0.0027
486.042	0.0027
486.242	-0.0056
486.4419	-0.0082
486.6417	-0.0083
486.8416	-0.0152
487.0415	0.0019
487.2413	-0.0129
487.4411	-0.0049
487.641	-0.0077
487.8408	0.0044
488.0405	-0.0056
488.2403	-0.0078
488.4401	0.0058
488.6398	-0.0008
488.8395	-0.0012
489.0392	-0.0053
489.2389	-0.0023
489.4386	0.0067
489.6383	-0.0009
489.8379	0.0021
490.0376	0.0055
490.2372	-0.0048
490.4368	-0.019
490.6364	-0.0173
490.836	-0.0158
491.0355	-0.003
491.2351	-0.0048
491.4346	-0.0009
491.6341	-0.0162
491.8336	0.0037
492.0331	-0.01
492.2326	-0.0097
492.432	-0.0107
492.6315	-0.0089
492.8309	-0.0142
493.0303	-0.0146
493.2297	-0.0034
493.4291	-0.0077
493.6284	-0.0045
493.8278	0.0025
494.0271	0.0065
494.2264	0.0063
494.4257	-0.0126
494.625	-0.0036
494.8243	-0.0164
495.0236	-0.0126
495.2228	-0.004
495.422	-0.0054
495.6213	0.0072
495.8205	-0.0055
496.0196	-0.008
496.2188	0.0065
496.418	-0.0098
496.6171	-0.0169
496.8162	-0.0222
497.0153	-0.0032
497.2144	-0.0084
497.4135	-0.0041
497.6126	-0.0142
497.8116	-0.0136
498.0107	-0.0115
498.2097	-0.0074
498.4087	-0.0051
498.6077	-0.0045
498.8067	-0.0136
499.0056	0.0029
499.2046	-0.007
499.4035	-0.0168
499.6024	-0.0059
499.8013	-0.0046
500.0002	-0.005
500.199	-0.0019
500.3979	0.003
500.5967	-0.0163
500.7956	-0.0011
500.9944	-0.0091
501.1932	-0.013
501.3919	-0.0096
501.5907	-0.0176
501.7895	-0.0067
501.9882	-0.0071
502.1869	-0.0131
502.3856	-0.007
502.5843	-0.0025
502.783	-0.0025
502.9816	-0.0018
503.1803	-0.0181
503.3789	-0.0052
503.5775	-0.0001
503.7761	-0.0066
503.9747	-0.0048
504.1732	-0.0025
504.3718	-0.0057
504.5703	0.0051
504.7689	-0.0141
504.9674	-0.0011
505.1658	-0.0071
505.3643	-0.0044
505.5628	-0.0107
505.7612	-0.0159
505.9597	-0.0003
506.1581	-0.0052
506.3565	0.007
506.5549	-0.0035
506.7532	-0.0176
506.9516	0.0015
507.1499	0
507.3482	-0.0151
507.5465	-0.0097
507.7448	-0.003
507.9431	-0.0099
508.1414	-0.0073
508.3396	-0.011
508.5379	-0.0056
508.7361	-0.0059
508.9343	-0.0032
509.1325	0.0078
509.3306	-0.0059
509.5288	-0.0025
509.7269	-0.0192
509.9251	0.0087
510.1232	-0.0082
510.3213	-0.0062
510.5193	0.0012
510.7174	-0.0129
510.9154	-0.0073
511.1135	-0.0026
511.3115	-0.006
511.5095	-0.0083
511.7075	0.0035
511.9055	-0.0139
512.1034	-0.0072
512.3014	-0.0045
512.4993	0.0034
512.6972	-0.007
512.8951	-0.0131
513.093	0.0046
513.2908	0.0009
513.4887	0.0016
513.6865	-0.0011
513.8844	-0.0084
514.0822	-0.0085
514.2799	-0.0102
514.4777	-0.0057
514.6755	-0.0101
514.8732	-0.0068
515.0709	-0.0045
515.2687	-0.0051
515.4664	-0.0031
515.664	-0.0023
515.8617	0.0036
516.0594	-0.0123
516.257	0.009
516.4546	-0.0149
516.6522	-0.0016
516.8498	-0.001
517.0474	-0.0022
517.2449	-0.0043
517.4425	-0.0152
517.64	-0.0117
517.8375	-0.0067
518.035	0.0051
518.2325	-0.0078
518.43	-0.0028
518.6274	0.0025
518.8249	-0.0101
519.0223	-0.002
519.2197	0.0027
519.4171	-0.0132
519.6145	-0.0033
519.8118	-0.0049
520.0092	-0.0076
520.2065	-0.007
520.4038	-0.0087
520.6011	-0.0013
520.7984	-0.0049
520.9956	-0.0112
521.1929	-0.0142
521.3901	0.0041
521.5874	-0.0012
521.7846	-0.0017
521.9818	-0.0124
522.1789	-0.0122
522.3761	-0.0069
522.5732	-0.0138
522.7704	-0.0004
522.9675	-0.0025
523.1646	-0.0063
523.3617	-0.0044
523.5587	0.0008
523.7558	0.0015
523.9528	-0.0092
524.1498	-0.0063
524.3468	-0.0019
524.5438	-0.0133
524.7408	-0.0034
524.9378	0.0032
525.1347	-0.0045
525.3316	0.0035
525.5285	-0.0108
525.7254	-0.0073
525.9223	-0.0027
526.1192	-0.0025
526.316	-0.0138
526.5129	-0.0007
526.7097	0.0017
526.9065	-0.0129
527.1033	-0.0029
527.3	-0.0034
527.4968	-0.0007
527.6935	0.0015
527.8903	-0.0015
528.087	-0.0043
528.2837	0.0013
528.4804	0.0013
528.677	-0.005
528.8737	0.0068
529.0703	0.0033
529.2669	-0.0051
529.4635	0.0017
529.6601	0.0013
529.8567	-0.0084
530.0532	-0.008
530.2498	-0.0033
530.4463	0.0055
530.6428	-0.0073
530.8393	0.0091
531.0358	-0.0017
531.2322	-0.0077
531.4287	-0.0041
531.6251	0.0023
531.8215	0.0032
532.0179	0.003
532.2143	0.004
532.4107	-0.0022
532.607	-0.0044
532.8034	-0.0052
532.9997	-0.0058
533.196	0.0011
533.3923	-0.0041
533.5886	0.0017
533.7848	0.0044
533.9811	0.0047
534.1773	0.0014
534.3735	-0
534.5697	0.0022
534.7659	-0.0065
534.9621	0.0018
535.1582	-0.0134
535.3544	0.0027
535.5505	-0.0102
535.7466	-0.0058
535.9427	-0.0072
536.1387	-0.005
536.3348	-0.0006
536.5308	0.011
536.7269	-0.0109
536.9229	0.0001
537.1189	-0.006
537.3148	-0.0025
537.5108	-0.0061
537.7068	-0.006
537.9027	-0.0025
538.0986	-0.0109
538.2945	-0.0113
538.4904	-0.0079
538.6863	-0.0112
538.8821	-0.0036
539.078	-0.0103
539.2738	-0.0053
539.4696	-0.0063
539.6654	0.0024
539.8611	0.0056
540.0569	-0.0022
540.2526	-0.0063
540.4484	-0.0071
540.6441	0.0037
540.8398	-0.0005
541.0355	0.0038
541.2311	0.0014
541.4268	-0.0127
541.6224	-0.0003
541.818	0.0023
542.0136	-0.0004
542.2092	0.004
542.4048	0.0091
542.6003	0.0018
542.7959	-0.0016
542.9914	-0.0007
543.1869	0.0006
543.3824	-0.0019
543.5779	-0.0107
543.7734	-0.0041
543.9688	-0.0104
544.1642	-0.0001
544.3596	0.0047
544.555	-0.009
544.7504	0.0048
544.9458	-0.0076
545.1411	-0.0051
545.3365	-0.0013
545.5318	-0.0073
545.7271	-0.0019
545.9224	-0.0083
546.1177	-0.0002
546.3129	-0.0009
546.5081	-0.0041
546.7034	-0.0006
546.8986	-0.0034
547.0938	0.0014
547.289	-0.0051
547.4841	0.0041
547.6793	0.0073
547.8744	-0.0103
548.0695	-0.0008
548.2646	-0.0082
548.4597	0.0056
548.6548	-0.0014
548.8498	-0.0004
549.0448	0.0003
549.2399	0.0027
549.4349	-0.0007
549.6298	0.0012
549.8248	0.0018
550.0198	0.0106
550.2147	-0.0013
550.4096	-0.0035
550.6045	-0.0051
550.7994	0.0064
550.9943	0.0025
551.1892	-0.0006
551.384	0.0043
551.5788	-0.0012
551.7737	0.0024
551.9685	0.004
552.1632	0.0097
552.358	-0.0012
552.5528	0.0092
552.7475	0.0087
552.9422	-0.005
553.1369	0.0017
553.3316	0.0066
553.5263	-0.0087
553.7209	0.0041
553.9156	-0.009
554.1102	-0.0082
554.3048	-0.0067
554.4994	0.0075
554.694	-0.0025
554.8885	0.0084
555.0831	-0.0035
555.2776	0.0049
555.4721	0.0063
555.6666	0.0005
555.8611	0.0059
556.0555	0.0014
556.25	0.0012
556.4444	-0.0057
556.6388	0.0006
556.8332	0.0019
557.0276	0.0037
557.222	-0.0033
557.4163	0.0068
557.6107	-0.0074
557.805	0.0109
557.9993	-0.0022
558.1936	-0.0031
558.3879	0.0003
558.5821	-0.0033
558.7764	-0.0118
558.9706	0.0002
559.1648	0.0084
559.359	-0.0043
559.5532	-0.0036
559.7473	-0.0045
559.9415	0.0004
560.1356	-0.004
560.3297	-0.01
560.5238	-0.0038
560.7179	0.0011
560.9119	-0.0027
561.106	0.0019
561.3	-0.0088
561.494	0.0009
561.688	-0.0018
561.882	-0.0068
562.076	-0.0008
562.2699	0.0096
562.4639	-0.0018
562.6578	0.0028
562.8517	0.0038
563.0456	-0.0044
563.2395	0.0028
563.4333	0.0043
563.6272	0.0124
563.821	0.0028
564.0148	-0.0027
564.2086	-0.0028
564.4024	-0.0011
564.5961	-0.0002
564.7899	0.0079
564.9836	-0.0023
565.1773	0.0032
565.371	0.0104
565.5647	0.0022
565.7584	0.0089
565.952	-0.0006
566.1456	0.0066
566.3393	-0.0048
566.5329	-0.0026
566.7264	0.0025
566.92	-0.0017
567.1136	0.0028
567.3071	-0.0017
567.5006	0.0047
567.6941	0.0061
567.8876	0.0004
568.0811	0.0027
568.2745	0.0034
568.468	0.0027
568.6614	0.0005
568.8548	0.0024
569.0482	0.0003
569.2416	0.0044
569.4349	0
569.6283	0.0104
569.8216	0.0017
570.0149	-0.0023
570.2082	0.0179
570.4015	0.0104
570.5947	0.006
570.788	0.0102
570.9812	0.0036
571.1744	0.0007
571.3676	-0.0041
571.5608	-0.0003
571.754	0.0047
571.9471	0.0035
572.1402	0.0054
572.3333	-0.0054
572.5264	0.0033
572.7195	0.001
572.9126	0.0094
573.1057	0.005
573.2987	-0.0032
573.4917	0.0009
573.6847	-0.0021
573.8777	0.0075
574.0707	0.0166
574.2636	0.0019
574.4566	0.0014
574.6495	0.004
574.8424	0.0084
575.0353	0.0024
575.2281	0.0083
575.421	0.0014
575.6138	0.0098
575.8067	-0.003
575.9995	0.009
576.1923	0.0095
576.385	0.003
576.5778	-0.0006
576.7706	-0.0032
576.9633	-0.0003
577.156	0.005
577.3487	0.0055
577.5414	0.0076
577.734	0.0021
577.9267	0.0055
578.1193	-0.0092
578.3119	0.0051
578.5045	0.0098
578.6971	0.0047
578.8897	0.0149
579.0822	0.0013
579.2747	0.0008
579.4673	-0.0089
579.6598	-0.0047
579.8522	0.0003
580.0447	-0.0026
580.2372	0.002
580.4296	0.0074
580.622	0.0022
580.8144	0.0085
581.0068	-0
581.1992	-0.0014
581.3915	-0.0028
581.5839	0.001
581.7762	-0.0043
581.9685	0.0054
582.1608	0.0099
582.353	0.0041
582.5453	0.0038
582.7375	0.0148
582.9298	0.0065
583.122	0.0076
583.3142	0.0003
583.5063	0
583.6985	-0.0006
583.8906	-0.0028
584.0827	-0.0026
584.2749	0.0076
584.4669	0.0018
584.659	0.0011
584.8511	0.0052
585.0431	0.0046
585.2352	0.0081
585.4272	0.0078
585.6192	0.0099
585.8111	0.0048
586.0031	0.0088
586.195	0.0029
586.387	0.0079
586.5789	0.0028
586.7708	0.0012
586.9627	0.0006
587.1545	0.001
587.3464	0.0033
587.5382	0.0011
587.73	0.0009
587.9218	0.0087
588.1136	-0.0006
588.3053	0.0082
588.4971	0.0011
588.6888	-0.0074
588.8805	0.0005
589.0722	0.007
589.2639	0.0055
589.4556	0.0076
589.6472	-0.0006
589.8389	-0.0008
590.0305	-0.0065
590.2221	0.0005
590.4137	-0.0022
590.6052	0.0055
590.7968	0.0086
590.9883	-0.0029
591.1798	0.002
591.3713	-0.0011
591.5628	0.0121
591.7543	0.0134
591.9458	0.0071
592.1372	0.0027
592.3286	0.0092
592.52	0.008
592.7114	0.0048
592.9028	0.0036
593.0941	0.0004
593.2855	0.0025
593.4768	0.0004
593.6681	0.0001
593.8594	0.0056
594.0506	0.0083
594.2419	0.009
594.4331	0.0063
594.6244	0.0049
594.8156	-0.0032
595.0067	0.0061
595.1979	0.0075
595.3891	0.01
595.5802	0.002
595.7713	0.0005
595.9624	-0.0006
596.1535	0.011
596.3446	0.0018
596.5357	0.0008
596.7267	0.0098
596.9177	0.0026
597.1087	-0.0029
597.2997	0.0015
597.4907	0.0089
597.6817	0.0028
597.8726	0.0013
598.0635	-0.002
598.2544	0.0049
598.4453	0.0035
598.6362	0.0056
598.827	0.0033
599.0179	0.0106
599.2087	0.008
599.3995	0.0027
599.5903	0.0025
599.7811	0.0015
599.9718	-0.0012
600.1626	-0.0029
600.3533	-0.0026
600.544	-0.0032
600.7347	0.0022
600.9254	0.0064
601.116	-0.0102
601.3067	-0.0006
601.4973	0.0043
601.6879	0.0079
601.8785	0.0008
602.0691	0.0102
602.2596	0.0108
602.4502	0.0058
602.6407	-0.0032
602.8312	-0.0011
603.0217	-0.003
603.2122	-0.0032
603.4027	0.0032
603.5931	0.0007
603.7835	-0.0045
603.9739	-0.0006
604.1643	0.0001
604.3547	-0.0023
604.5451	0.008
604.7354	0.0078
604.9257	0.0032
605.116	-0.0042
605.3063	0.0091
605.4966	0.0108
605.6869	0.0057
605.8771	0.0139
606.0673	0.0099
606.2575	0.0059
606.4477	0.0087
606.6379	0.0048
606.8281	0.0032
607.0182	0.0037
607.2083	0.0137
607.3985	-0.005
607.5885	0.0053
607.7786	0.0031
607.9687	-0.0019
608.1587	0.0076
608.3488	0.0084
608.5388	0.0082
608.7288	-0.0011
608.9187	-0.0044
609.1087	-0.002
609.2986	-0.0029
609.4886	0.0001
609.6785	0.0038
609.8684	0.0021
610.0582	0.0115
610.2481	0.0072
610.4379	0
610.6278	-0.0009
610.8176	0.002
611.0074	-0.0003
611.1971	0.0018
611.3869	0.0002
611.5766	-0.0022
611.7664	0.0054
611.9561	0.0062
612.1458	0.01
612.3354	0.0003
612.5251	0.0039
612.7147	0.0128
612.9044	0.0145
613.094	-0.0048
613.2836	0.0088
613.4731	0.0013
613.6627	0.0023
613.8522	0.0088
614.0417	0.0101
614.2313	0.0041
614.4207	-0.003
614.6102	0.001
614.7997	0.0057
614.9891	0.0015
615.1785	0.0015
615.3679	-0.0014
615.5573	0.0101
615.7467	0.001
615.9361	0.0006
616.1254	0.0042
616.3147	0.0006
616.504	0.0064
616.6933	-0.0032
616.8826	0.0064
617.0718	0.004
617.2611	0.0077
617.4503	0.0029
617.6395	0.0046
617.8287	0.0078
618.0179	0.0065
618.207	0.0178
618.3961	0.0097
618.5853	0.012
618.7744	0.0061
618.9634	0.0088
619.1525	0.0104
619.3416	0.0112
619.5306	0.0065
619.7196	0.0059
619.9086	0.0048
620.0976	0.0137
620.2866	0.0123
620.4755	0.0106
620.6645	0.0129
620.8534	0.0165
621.0423	0.005
621.2312	0.0123
621.42	0.004
621.6089	0.0048
621.7977	0.0075
621.9865	-0.005
622.1753	0.0143
622.3641	0.0114
622.5529	0.0132
622.7416	0.009
622.9303	-0.0003
623.1191	0.0075
623.3078	0.0124
623.4964	0.0121
623.6851	0.0039
623.8737	0.0067
624.0624	0.0071
624.251	-0.0005
624.4396	0.0051
624.6282	-0.0006
624.8167	0.0026
625.0053	0.006
625.1938	0.0044
625.3823	0.0079
625.5708	0.0071
625.7593	-0.0019
625.9477	-0.0002
626.1362	0.0013
626.3246	0.0064
626.513	0.0095
626.7014	0.0127
626.8898	-0.0009
627.0781	-0.0035
627.2665	-0.0077
627.4548	0.0072
627.6431	0.0067
627.8314	-0.0001
628.0197	0.0066
628.2079	-0.0063
628.3962	0.0026
628.5844	0.0082
628.7726	0.0137
628.9608	0.0088
629.1489	0.0016
629.3371	0.0078
629.5252	-0.0017
629.7134	0.0138
629.9015	0.0058
630.0895	0.0054
630.2776	0.0077
630.4657	0.0037
630.6537	-0.0025
630.8417	0.0018
631.0297	0.0063
631.2177	0.0004
631.4057	0.0011
631.5936	-0
631.7815	0.0111
631.9695	0.0073
632.1574	0.0096
632.3452	0.0176
632.5331	-0.0001
632.7209	0.0021
632.9088	0.015
633.0966	0.0121
633.2844	0.007
633.4722	0.0064
633.6599	0.0072
633.8477	0.0066
634.0354	0.0017
634.2231	-0.0034
634.4108	0.0075
634.5985	0.0087
634.7861	0.007
634.9738	0.0077
635.1614	0.0017
635.349	0.0084
635.5366	0.0068
635.7242	0.0069
635.9117	0.0029
636.0993	0.0041
636.2868	0.0029
636.4743	0.0049
636.6618	0.0149
636.8492	0.0103
637.0367	0.0024
637.2241	-0.0004
637.4115	-0.0004
637.5989	0.0059
637.7863	0.0052
637.9737	0.0056
638.161	0.0004
638.3484	0.0051
638.5357	0.0047
638.723	0.003
638.9103	0.0033
639.0975	0.0086
639.2848	0.0109
639.472	0
639.6592	0.0135
639.8464	0.0127
640.0336	0.0077
640.2208	0.0031
640.4079	0.005
640.595	0.0079
640.7821	-0.0041
640.9692	0.0091
641.1563	0.002
641.3434	0.0096
641.5304	0.009
641.7174	0.0063
641.9044	0.0071
642.0914	0.0089
642.2784	0.0068
642.4653	0.0063
642.6523	0.0027
642.8392	0.0015
643.0261	0.0017
643.213	0.0016
643.3999	-0.0015
643.5867	0.0006
643.7735	-0.0031
643.9604	0.005
644.1472	0.0062
644.3339	0.0016
644.5207	-0.0003
644.7075	0.0042
644.8942	0.006
645.0809	0.0076
645.2676	0.0082
645.4543	0.0009
645.6409	0.013
645.8276	0.0032
646.0142	0.0091
646.2008	0
646.3874	0.0014
646.574	0.005
646.7605	0.0008
646.9471	-0.0139
647.1336	0.0015
647.3201	0.0066
647.5066	-0.0019
647.6931	0.0077
647.8795	0.0037
648.0659	0.0053
648.2524	0.0121
648.4388	0.0008
648.6252	0.0009
648.8115	0.0042
648.9979	-0.0003
649.1842	0.0074
649.3705	0.0075
649.5568	0.005
649.7431	0.0068
649.9294	0.0014
650.1156	0.0103
650.3018	0.001
650.488	0.003
650.6742	0.0055
650.8604	0.0082
651.0466	0.0013
651.2327	0.0069
651.4188	0.0055
651.6049	0.0035
651.791	0.0029
651.9771	0.0071
652.1632	0.0121
652.3492	0.0079
652.5352	0.0111
652.7212	0.0049
652.9072	0.0121
653.0932	-0.0013
653.2791	0.0028
653.465	0.0038
653.651	-0.0041
653.8369	-0.0058
654.0227	0.0029
654.2086	0.0076
654.3944	0.0059
654.5803	0.004
654.7661	0.0044
654.9519	0.0088
655.1377	-0.0027
655.3234	0.0003
655.5092	-0.0049
655.6949	0.0024
655.8806	0.0005
656.0663	0.0011
656.2519	0.0024
656.4376	0.0008
656.6232	0.0057
656.8088	-0.0005
656.9945	0.0114
657.18	0.0026
657.3656	0.0038
657.5511	0.0018
657.7367	-0.0021
657.9222	0.013
658.1077	0.006
658.2932	0.0103
658.4786	-0.0025
658.6641	-0.0021
658.8495	-0.0059
659.0349	0.0074
659.2203	0.0094
659.4057	0.0066
659.591	0.0061
659.7764	-0.0026
659.9617	0.0064
660.147	0.0058
660.3323	0.0011
660.5176	0.0133
660.7028	0.0106
660.888	0.0149
661.0733	0.0019
661.2585	-0.002
661.4436	0.0073
661.6288	0.0048
661.8139	0.0063
661.9991	0.0099
662.1842	0.003
662.3693	0.004
662.5544	0.0051
662.7394	0.0059
662.9245	0.0011
663.1095	0.0066
663.2945	0.0035
663.4795	0.0075
663.6644	0.0134
663.8494	0.0086
664.0343	0.0053
664.2193	0.0058
664.4042	0.0038
664.589	-0.0003
664.7739	0.0039
664.9587	0.0026
665.1436	0.008
665.3284	0.0105
665.5132	0.0067
665.698	0.0038
665.8827	0.0108
666.0675	0.0029
666.2522	-0.0008
666.4369	0.0073
666.6216	0.0104
666.8063	0.0053
666.9909	0.0073
667.1756	0.0098
667.3602	0.0056
667.5448	0.0053
667.7294	0.0125
667.9139	0.0064
668.0985	0.012
668.283	0.0068
668.4675	0.0046
668.652	0.0043
668.8365	0.0083
669.0209	0.0161
669.2054	0.0104
669.3898	0.0081
669.5742	0.0039
669.7586	0.0065
669.943	0.013
670.1273	0.0077
670.3117	0.0103
670.496	0.0098
670.6803	0.0132
670.8646	0.0113
671.0488	0.001
671.2331	0.0152
671.4173	0.0079
671.6015	0.0077
671.7857	0.0112
671.9699	0.0101
672.1541	0.0036
672.3382	0.0068
672.5223	0.0074
672.7064	0.0075
672.8905	0.013
673.0746	0.0096
673.2587	0.0066
673.4427	0.0062
673.6267	0.005
673.8107	0.0156
673.9947	0.0052
674.1787	0.0096
674.3626	0.0052
674.5465	0.0146
674.7304	0.0097
674.9143	0.0099
675.0982	0.015
675.2821	-0.0014
675.4659	0.0027
675.6497	0.0009
675.8335	-0.0007
676.0173	0.0088
676.2011	0.0036
676.3849	0.0062
676.5686	-0.0053
676.7523	0.0071
676.936	0.003
677.1197	0.004
677.3034	0.0022
677.487	0.008
677.6706	0.0077
677.8542	0.005
678.0378	0.0041
678.2214	-0.002
678.405	0.0063
678.5885	0.0002
678.772	-0.0006
678.9555	-0.0123
679.139	-0.0029
679.3225	0.0035
679.5059	-0.0045
679.6894	0.0019
679.8728	0.009
680.0562	-0
680.2395	0
680.4229	0.0039
680.6062	0.0076
680.7896	0.0062
680.9729	-0.0027
681.1562	0.0019
681.3394	0.0096
681.5227	-0.0055
681.7059	0.0043
681.8891	0.0072
682.0723	0.01
682.2555	0.0057
682.4387	-0.0065
682.6218	-0.0029
682.805	0.0081
682.9881	0.0023
683.1712	-0.0042
683.3542	0.0054
683.5373	0.0111
683.7203	-0.0026
683.9034	0.0007
684.0864	-0.0017
684.2694	-0.0004
684.4523	0.0041
684.6353	-0.0044
684.8182	0.0081
685.0011	-0.004
685.184	0.0044
685.3669	0.0021
685.5498	0.0036
685.7326	0.0048
685.9154	-0.007
686.0982	0.0145
686.281	0.006
686.4638	0.007
686.6465	0.0058
686.8293	0.0055
687.012	0.0075
687.1947	-0.0098
687.3774	0.0046
687.56	0.0065
687.7427	0.007
687.9253	0.001
688.1079	0.0113
688.2905	0.0132
688.4731	0.0013
688.6556	0.0051
688.8382	0.0047
689.0207	0.0074
689.2032	-0.0072
689.3857	-0.0024
689.5681	0.0054
689.7506	-0.0016
689.933	-0.0033
690.1154	0.0103
690.2978	-0.0026
690.4802	0.0042
690.6626	0.0009
690.8449	0.0075
691.0272	0.0114
691.2095	0.004
691.3918	0.0026
691.5741	0.0092
691.7563	0.003
691.9386	0.005
692.1208	0.004
692.303	0.0043
692.4852	0.0024
692.6673	0.0038
692.8495	0.0051
693.0316	0.0036
693.2137	0.0106
693.3958	0.0146
693.5778	0.0091
693.7599	0.0067
693.9419	0.0062
694.1239	0.0039
694.3059	0.0015
694.4879	0.0093
694.6699	0.0128
694.8518	0.0029
695.0337	-0.0017
695.2157	0.0067
695.3975	0.0091
695.5794	0.0141
695.7613	0.0071
695.9431	-0.0012
696.1249	0.0124
696.3067	0.009
696.4885	0.0021
696.6703	-0.0093
696.852	0.0155
697.0337	0.0081
697.2154	0.0065
697.3971	0.0038
697.5788	0.0002
697.7605	0.0058
697.9421	0.0093
698.1237	0.0028
698.3053	0.01
698.4869	-0.0044
698.6685	-0.0081
698.85	-0.0016
699.0315	0.0084
699.213	0.0026
699.3945	-0.0025
699.576	0.0066
699.7575	0.0103
699.9389	0.0081
700.1203	0.0031
700.3017	-0.0028
700.4831	-0.0078
700.6645	0.0015
700.8458	0.0103
701.0271	-0.0035
701.2084	0.0096
701.3897	0.0068
701.571	0.0064
701.7523	-0.0003
701.9335	0.0117
702.1147	0.0081
702.2959	0.0052
702.4771	0.0056
702.6583	0.0004
702.8394	-0.0002
703.0205	0.009
703.2016	-0.0001
703.3827	0.0005
703.5638	0.0091
703.7449	0.0038
703.9259	0.0101
704.1069	0.0017
704.2879	0.0032
704.4689	0.0031
704.6499	0.0003
704.8308	-0.0033
705.0117	0.0037
705.1927	0.0021
705.3735	-0.0056
705.5544	-0.0038
705.7353	0.0068
705.9161	0.0021
706.0969	-0.0011
706.2777	-0.0014
706.4585	0.0005
706.6393	0.0054
706.82	0.0076
707.0007	0.0121
707.1815	0.008
707.3621	0.0152
707.5428	0.0113
707.7235	0.0083
707.9041	0.0089
708.0847	0.008
708.2653	-0.0026
708.4459	-0.0062
708.6265	0.0061
708.807	0.0062
708.9875	-0.001
709.168	-0.0049
709.3485	-0.0056
709.529	-0.0002
709.7095	-0.0136
709.8899	0.0021
710.0703	-0.0122
710.2507	0.0069
710.4311	-0.002
710.6115	-0.0086
710.7918	-0.003
710.9721	0.0013
711.1524	-0.0037
711.3327	-0.0013
711.513	0.0031
711.6932	-0.0019
711.8735	0.0101
712.0537	0.0051
712.2339	-0.0005
712.4141	-0.0012
712.5942	0.0003
712.7744	-0.0005
712.9545	-0.0043
713.1346	-0.0003
713.3147	0.0067
713.4947	-0.0053
713.6748	0.0044
713.8548	-0.0029
714.0348	0.0012
714.2148	0.0004
714.3948	0.0045
714.5748	0.0025
714.7547	0.004
714.9346	0.0044
715.1145	-0.0012
715.2944	0.0059
715.4743	-0.0027
715.6541	-0.0053
715.834	0.0083
716.0138	0.0004
716.1936	-0.0062
716.3733	0.0018
716.5531	0.0093
716.7328	-0.0002
716.9126	-0.0012
717.0923	0.0062
717.2719	-0.0007
717.4516	0.0049
717.6312	-0.0013
717.8109	0.0012
717.9905	0.0054
718.1701	0.005
718.3496	-0.0014
718.5292	-0.0033
718.7087	0.003
718.8882	-0.0028
719.0677	0.0092
719.2472	0.0054
719.4267	0.0033
719.6061	0.0011
719.7856	0.0009
719.965	0.0102
720.1443	-0.0019
720.3237	0.007
720.5031	0.0017
720.6824	0.0084
720.8617	-0.0046
721.041	0.0024
721.2203	0.0007
721.3995	0.0011
721.5788	0.0005
721.758	0.0088
721.9372	0.0049
722.1164	0.0037
722.2956	0.0052
722.4747	0.0084
722.6538	0.0015
722.8329	0.017
723.012	0.0065
723.1911	0.0016
723.3702	0.0052
723.5492	0.01
723.7282	0.0034
723.9072	0.0073
724.0862	-0.0028
724.2652	0.0022
724.4441	0.0023
724.623	0.0056
724.8019	0.0069
724.9808	0.0073
725.1597	-0.0002
725.3385	0.0084
725.5174	0.0024
725.6962	-0.0019
725.875	-0.0045
726.0538	0.0075
726.2325	-0.0049
726.4112	0.0062
726.59	-0.0026
726.7687	-0.012
726.9474	-0.002
727.126	-0.0018
727.3047	-0.0051
727.4833	-0.004
727.6619	-0.0073
727.8405	-0.0064
728.0191	-0.0077
728.1976	-0.0021
728.3762	-0.0031
728.5547	0.0095
728.7332	-0.0133
728.9116	0.0036
729.0901	-0.0009
729.2686	-0.0017
729.447	-0.0009
729.6254	0.0016
729.8038	0.0014
729.9821	-0.0057
730.1605	-0.0027
730.3388	0.0054
730.5171	0.0029
730.6954	-0.0008
730.8737	0.0059
731.0519	0.0052
731.2302	0.0042
731.4084	0.0153
731.5866	0.0012
731.7648	0.01
731.9429	0.0055
732.1211	0.001
732.2992	0.0048
732.4773	0.0015
732.6554	0.0015
732.8335	0.0048
733.0115	0.0036
733.1896	0.0074
733.3676	-0.0074
733.5456	0.0043
733.7235	0.0213
733.9015	0.0013
734.0794	0.0145
734.2574	0.0002
734.4353	-0.0014
734.6131	0.0137
734.791	0.0107
734.9689	0.0137
735.1467	0.0142
735.3245	-0.0015
735.5023	0.0002
735.68	0.0067
735.8578	0.0189
736.0355	-0.0054
736.2132	0.0039
736.3909	0.0014
736.5686	-0.0077
736.7463	0.0101
736.9239	-0.0025
737.1015	0.0063
737.2791	0.0144
737.4567	0.0046
737.6343	0.0085
737.8118	0.0019
737.9894	0.0044
738.1669	-0.0001
738.3444	-0.0024
738.5218	0.0004
738.6993	0.0022
738.8767	-0.0013
739.0541	0.0111
739.2315	-0.0115
739.4089	0.0073
739.5863	0.0139
739.7636	0.0014
739.9409	0.0064
740.1182	0.0056
740.2955	0.009
740.4728	-0.0046
740.65	0.0019
740.8272	-0.0003
741.0044	-0.0049
741.1816	0.0038
741.3588	0.0018
741.5359	0.0055
741.7131	-0.0101
741.8902	0
742.0673	0.0058
742.2444	-0.0084
742.4214	-0.0043
742.5985	-0.0011
742.7755	0.0016
742.9525	-0.0104
743.1295	0.0065
743.3064	0.0043
743.4834	0.0104
743.6603	-0.0005
743.8372	-0.0006
744.0141	0.0093
744.191	0.0091
744.3678	0.004
744.5446	0.0076
744.7215	0.0122
744.8982	-0.0052
745.075	-0.0068
745.2518	0.0047
745.4285	0.0008
745.6052	-0.0027
745.7819	-0.0035
745.9586	-0.0048
746.1353	-0.0033
746.3119	0.0033
746.4885	-0.0017
746.6651	-0.0041
746.8417	-0.0031
747.0183	-0.0019
747.1948	0.0005
747.3714	0.0033
747.5479	0.0031
747.7244	-0.0119
747.9008	0.0097
748.0773	-0.0013
748.2537	0.0045
748.4301	-0.0006
748.6065	0.0056
748.7829	0.0034
748.9593	0.0097
749.1356	0.0126
749.3119	0.0145
749.4882	-0.0025
749.6645	0.0016
749.8408	-0.0081
750.017	0.002
750.1933	-0.0029
750.3695	-0.0046
750.5457	0.0047
750.7218	0.0038
750.898	-0.0037
751.0741	0.0033
751.2502	0.0037
751.4263	0.0001
751.6024	0.0017
751.7784	0.0094
751.9545	-0.0014
752.1305	0.0073
752.3065	-0.0053
752.4825	0.0091
752.6584	-0.0018
752.8344	0.005
753.0103	0.0022
753.1862	0.0031
753.3621	0.0029
753.5379	-0.0069
753.7138	0.0038
753.8896	0.0027
754.0654	0.0036
754.2412	0.0079
754.417	-0.0003
754.5927	-0.0046
754.7685	0.0065
754.9442	0.0066
755.1199	0.0125
755.2956	-0.0033
755.4712	0.0059
755.6469	0.0026
755.8225	-0.0005
755.9981	-0.0051
756.1736	0.0031
756.3492	0.0037
756.5248	0.002
756.7003	0.0023
756.8758	0.0026
757.0513	-0
757.2267	0.0008
757.4022	0.0071
757.5776	-0.0019
757.753	0.0006
757.9284	-0.0007
758.1038	-0.0003
758.2791	-0.0005
758.4545	-0.0109
758.6298	-0.0027
758.8051	-0.0024
758.9803	0.0056
759.1556	0.0001
759.3308	-0.012
759.506	-0.0021
759.6812	0
759.8564	0.0066
760.0316	0.0001
760.2067	0.0073
760.3819	0.0063
760.557	0.0158
760.732	0.0017
760.9071	-0.0109
761.0821	0.001
761.2572	0.01
761.4322	0.0065
761.6072	0.0004
761.7821	-0.0041
761.9571	0.0037
762.132	-0.002
762.3069	-0.0061
762.4818	-0.0096
762.6567	-0.0103
762.8316	-0.002
763.0064	-0.0033
763.1812	0.0077
763.356	-0.0036
763.5308	0.0072
763.7055	0.0086
763.8803	0.0005
764.055	0.0065
764.2297	0.0019
764.4044	-0.0036
764.579	-0.0041
764.7537	-0.0135
764.9283	0.0042
765.1029	0.0042
765.2775	0.0013
765.4521	-0.0037
765.6266	-0.0028
765.8011	-0.0006
765.9756	-0.002
766.1501	0.0044
766.3246	0.0052
766.4991	-0.0053
766.6735	0.0054
766.8479	-0.002
767.0223	0.0176
767.1967	0.0089
767.371	-0.0007
767.5454	0.0022
767.7197	0.0069
767.894	-0.0028
768.0683	-0.0053
768.2425	0.0053
768.4168	-0.0013
768.591	-0.0022
768.7652	0.005
768.9394	0.0012
769.1135	0.0107
769.2877	0.0099
769.4618	-0.0098
769.6359	0.0028
769.81	-0.0044
769.984	-0.0044
770.1581	-0.0024
770.3321	0.0034
770.5061	0.0089
770.6801	-0.0067
770.8541	0.0009
771.028	0.0137
771.202	0.0073
771.3759	0.0066
771.5498	0.0005
771.7236	0.0109
771.8975	-0.0068
772.0713	0.0018
772.2451	0.0034
772.4189	0.0027
772.5927	0.0068
772.7665	0.0041
772.9402	0.0004
773.1139	-0.0049
773.2876	0.0015
773.4613	0.0082
773.635	0.0088
773.8086	0.0022
773.9822	0.0012
774.1558	0.0046
774.3294	-0.0164
774.503	0.0043
774.6765	0.0147
774.8501	0.0083
775.0236	0.0138
775.1971	0.0168
775.3705	-0.0025
775.544	0.0032
775.7174	-0.0084
775.8908	0.0039
776.0642	-0.0053
776.2376	0.0149
776.4109	0.0035
776.5843	0.0084
776.7576	0.0159
776.9309	0.0264
777.1041	0.0136
777.2774	0.0152
777.4506	0.0144
777.6238	0.0021
777.797	0.0066
777.9702	0.0006
778.1434	0.0027
778.3165	-0.0171
778.4896	-0.0058
778.6627	0.0038
778.8358	-0.0046
779.0089	-0.0059
779.1819	-0.0063
779.3549	0.0088
779.5279	0.0073
779.7009	0.0011
779.8739	0.0067
780.0468	0.0042
780.2197	0.0039
780.3926	0.0048
780.5655	-0.0082
780.7384	-0.0003
780.9112	0.0018
781.0841	0.0018
781.2569	0.0042
781.4297	0.0085
781.6024	0.0084
781.7752	0.0094
781.9479	-0.0014
782.1206	-0.006
782.2933	-0.0011
782.466	0.008
782.6386	0.0057
782.8113	-0.0023
782.9839	0.0006
783.1565	0.0185
783.329	0.0074
783.5016	0.0172
783.6741	0.0129
783.8466	-0.0015
784.0191	0.0279
784.1916	0.0085
784.3641	0.0153
784.5365	0.0142
784.7089	0.0112
784.8813	0.0033
785.0537	-0.0002
785.2261	0.0132
785.3984	-0.0024
785.5707	0.0073
785.743	0.0102
785.9153	-0.0029
786.0876	0.0044
786.2598	0.0089
786.432	-0.0001
786.6042	0.0076
786.7764	-0.0076
786.9486	0.0083
787.1207	0.0017
787.2928	0.0185
787.4649	0.0085
787.637	0.0081
787.8091	-0.0044
787.9811	0.0067
788.1532	-0.0091
788.3252	0.0058
788.4972	-0.0018
788.6691	0.0008
788.8411	0.0106
789.013	-0.0038
789.1849	0.013
789.3568	0.0097
789.5287	-0.0076
789.7005	-0.0068
789.8723	0.0034
790.0442	0.0162
790.2159	0.0125
790.3877	0.0082
790.5595	-0.0097
790.7312	0.0061
790.9029	0.0107
791.0746	0.0101
791.2463	0.0012
791.4179	0.0017
791.5896	0.0002
791.7612	0.004
791.9328	0.0099
792.1044	-0.0127
792.2759	-0.0134
792.4474	-0.0108
792.619	0.0089
792.7905	0.0117
792.9619	-0.0064
793.1334	0.0022
793.3048	0.02
793.4762	0.0062
793.6476	0.0087
793.819	0.0049
793.9904	0.0211
794.1617	0.0033
794.333	0.0039
794.5043	-0.0091
794.6756	0.0063
794.8469	0.0002
795.0181	0.0123
795.1893	-0.0062
795.3605	0.0113
795.5317	-0.0068
795.7029	0.0016
795.874	0.0132
796.0452	0.0099
796.2163	0.0094
796.3873	0.0095
796.5584	0.0091
796.7294	0.0096
796.9005	0.0179
797.0715	0.0119
797.2425	-0.015
797.4134	-0.0121
797.5844	0.001
797.7553	-0.009
797.9262	0.0041
798.0971	-0.0071
798.2679	0.0025
798.4388	-0.0264
798.6096	-0.0026
798.7804	0.0021
798.9512	-0.006
799.122	-0.0154
799.2927	0.0145
799.4635	0.0187
799.6342	-0.0174
799.8049	-0.003
799.9755	0.0019
800.1462	-0.0017
800.3168	0.0174
800.4874	0.012
800.658	0.0179
800.8286	0.005
800.9991	0.019
801.1696	0.0066
801.3402	0.0203
801.5106	0.0071
801.6811	-0.0068
801.8516	0.0271
802.022	0.0107
802.1924	0.0034
802.3628	0.0175
802.5332	0.0242
802.7035	0.0369
802.8739	-0.0003
803.0442	-0.0046
803.2145	0.0059
803.3847	-0.0191
803.555	0.0186
803.7252	0.0121
803.8954	0.001
804.0656	-0.0085
804.2358	0.0109
804.4059	0.0079
804.5761	0.0092
804.7462	0.0286
804.9163	0.0195
805.0864	-0.0178
805.2564	0.0035
805.4264	0.0137
805.5965	-0.0063
805.7665	0.0158
805.9364	0.0105
806.1064	0.0349
806.2763	0.0055
806.4462	0.0239
806.6161	0.0055
806.786	0.0089
806.9559	-0.0067
807.1257	-0.0001
807.2955	0.0176
807.4653	-0.0047
807.6351	-0.0039
807.8048	-0.0108
807.9746	0.0063
808.1443	0.0084
808.314	-0.0013
808.4837	0.0159
808.6533	-0.002
808.8229	0.0185
808.9926	-0.0087
809.1622	0.0379
809.3317	-0.0133
809.5013	-0.0054
809.6708	0.004
809.8403	0.0071
810.0098	-0.0059
810.1793	0.0127
810.3488	0.0181
810.5182	-0.0133
810.6876	0.007
810.857	-0.0097
811.0264	0.0221
811.1958	0.019
811.3651	0.0088
811.5344	0.006
811.7037	-0.0113
811.873	-0.0153
812.0422	-0.0009
812.2115	-0.0044
812.3807	-0.0216
812.5499	0.0231
812.7191	0.0129
812.8882	0.0108
813.0574	0.0051
813.2265	0.007
813.3956	0.0056
813.5646	0.004
813.7337	0.0033
813.9027	0.0178
814.0718	0.0103
814.2407	0.027
814.4097	0.0077
814.5787	-0.0114
814.7476	-0.0088
814.9165	0.0289
815.0854	-0.0002
815.2543	0.0088
815.4232	0.0133
815.592	0.0059
815.7608	0.0058
815.9296	0.028
816.0984	0.0051
816.2671	-0.004
816.4359	-0.0008
816.6046	0.0219
816.7733	-0.0023
816.942	0.0036
817.1106	0.0068
817.2793	0.0112
817.4479	0.0212
817.6165	0.001
817.785	0.0221
817.9536	-0.0169
818.1221	0.0119
818.2906	0.0178
818.4591	0.0081
818.6276	0.0056
818.7961	0.0055
818.9645	0.03
819.1329	0.0055
819.3013	0.0473
819.4697	0.0388
819.638	0.0029
819.8064	0.0168
819.9747	-0.0026
820.143	-0.0063
820.3113	-0.0099
820.4795	0.004
820.6477	0.0181
820.816	0.0133
820.9842	0.0178
821.1523	-0.0052
821.3205	-0.0131
821.4886	-0.021
821.6567	0.018
821.8248	0.02
821.9929	0.029
822.1609	0.0085
822.329	0.0143
822.497	0.0433
822.665	0.0089
822.833	-0.0056
823.0009	0.0205
823.1688	0.0209
823.3367	0.0154
823.5046	0.025
823.6725	0.0382
823.8404	0.0109
824.0082	0.0314
824.176	0.0237
824.3438	0.018
824.5116	-0.0023
824.6793	0.0406
824.847	-0.0165
825.0147	0.0266
825.1824	0.0131
825.3501	0.015
825.5177	-0.0029
825.6854	0.0028
825.853	0.0138
826.0206	-0.0145
826.1881	0.0254
826.3557	0.0161
826.5232	0.0229
826.6907	-0.0239
826.8582	0.0172
827.0257	-0.0148
827.1931	-0.011
827.3605	-0.0007
827.528	0.0025
827.6953	0.0163
827.8627	-0.0026
828.03	0.0428
828.1974	0.0011
828.3647	-0.0125
828.532	-0.0086
828.6992	-0.01
828.8665	0.005
829.0337	0.0183
829.2009	0.0052
829.3681	0.0158
829.5352	0.0384
829.7024	-0.0218
829.8695	-0.0227
830.0366	0.0399
830.2037	0.0064
830.3707	0.0293
830.5378	0.0182
830.7048	0.0052
830.8718	-0.0046
831.0388	-0.0122
831.2057	0.0127
831.3727	0.0156
831.5396	-0.0138
831.7065	-0.0414
831.8734	-0.0051
832.0402	-0.0195
832.2071	0.0008
832.3739	-0.0322
832.5407	-0.0375
832.7075	-0.0108
832.8742	-0.0213
833.041	-0.0224
833.2077	-0.001
833.3744	0.0289
833.541	-0.0099
833.7077	0.0162
833.8743	-0.003
834.0409	-0.0394
834.2075	-0.0122
834.3741	0.0027
834.5407	0.0022
834.7072	0.0119
834.8737	-0.0185
835.0402	0.0302
835.2067	0.0299
835.3731	0.0069
835.5395	0.028
835.706	-0.0285
835.8723	0.0301
836.0387	0.0436
836.2051	0.0195
836.3714	0.0184
836.5377	-0.0166
836.704	-0.026
836.8703	0.0089
837.0365	-0.0494
837.2027	0.0212
837.3689	0.0096
837.5351	-0.0195
837.7013	-0.0228
837.8674	-0.0382
838.0335	-0.0676
838.1997	-0.0371
838.3657	-0.0245
838.5318	-0.0347
838.6978	0.001
838.8639	0.0116
839.0299	0.018
839.1958	0.0431
839.3618	-0.009
839.5277	-0.014
839.6937	0.0419
839.8596	-0.0157
840.0254	0.0095
840.1913	0.0095
840.3571	0.0128
840.523	0.0314
840.6888	-0.0144
840.8545	-0.0312
841.0203	0.0407
841.186	0.009
841.3517	0.0578
841.5174	0.0173
841.6831	-0.0071
841.8488	0.0085
842.0144	-0.0314
842.18	0.0269
842.3456	0.0335
842.5112	0.018
842.6767	-0.0272
842.8422	0.0157
843.0077	-0.051
843.1732	-0.02
843.3387	-0.027
843.5042	-0.0289
843.6696	-0.0126
843.835	-0.0693
844.0004	0.038
844.1657	-0.0192
844.3311	-0.0415
844.4964	-0.0384
844.6617	-0.0265
844.827	-0.0007
844.9923	-0.0272
845.1575	0.0378
845.3227	-0.0187
845.4879	0.0142
845.6531	0.0428
845.8183	-0.0632
845.9834	0.0289
846.1485	-0.0585
846.3136	-0.0301
846.4787	-0.0853
846.6438	0.0444
846.8088	0.0007
846.9738	-0.0955
847.1388	-0.0133
847.3038	-0.0201
847.4687	-0.1454
847.6337	0.1024
847.7986	-0.0302
847.9635	0.0233
848.1284	0.0362
848.2932	0.01
848.458	0.0437
848.6228	0.0338
848.7876	0.074
848.9524	-0.0435
849.1172	-0.0849
849.2819	0.0105
849.4466	-0.0104
849.6113	-0.1469
849.7759	-0.0466
849.9406	-0.066
850.1052	0.0465
850.2698	-0.0425
850.4344	-0.0332
850.599	-0.0027
850.7635	0.0717
850.928	0.0245
851.0925	0.0348
851.257	-0.0217
851.4215	0.0271
851.5859	-0.0754
851.7503	0.0425
851.9147	0.0403
852.0791	0.001
852.2434	-0.0958
852.4078	0.0193
852.5721	0.0343
852.7364	-0.0875
852.9007	-0.1991
853.0649	-0.0108
853.2291	-0.0724
853.3934	-0.0149
853.5575	0.3182
853.7217	-0.051
853.8859	-0.1131
854.05	-0.0874
854.2141	0.0716
854.3782	-0.0646
854.5423	-0.0663
854.7063	0.0601
854.8703	-0.0205
855.0343	-0.092
855.1983	-0.2221
855.3623	0.1183
855.5262	-0.0433
855.6901	-0.0646
855.854	0.0009
856.0179	0.0031
856.1818	-0.0458
856.3456	0.0368
856.5094	-0.1545
856.6732	-0.1863
856.837	-0.0234
857.0008	0.0012
857.1645	-0.0503
857.3282	-0.165
857.4919	0.2111
857.6556	-0.0024
857.8192	0.0428
857.9828	0.1033
858.1465	0.0342
858.31	-0.2285
858.4736	-0.0169
858.6372	-0.3659
858.8007	-0.1168
858.9642	0.0255
859.1277	0.2194
859.2911	-0.0336
859.4546	-0.0601
859.618	-0.3029
859.7814	-0.0813
859.9448	1.0587
860.1081	-0.0286
860.2715	0.0249
860.4348	-0.1636
860.5981	-0.0556
860.7614	0.2699
860.9246	0.5255
861.0879	-0.1071
861.2511	0.0751
861.4143	-0.169
861.5774	0.1472
861.7406	-0.2656
861.9037	-0.1373
862.0668	-0.0039
862.2299	-0.2324
862.393	-0.5833
862.556	-0.027
862.7191	-0.337
862.8821	-0.1536
863.0451	-0.109
863.208	0.0145
863.371	0.1631
863.5339	-0.3361
863.6968	0.0121
863.8597	0.0164
864.0225	-0.1558
864.1854	-0.2799
864.3482	-0.1021
864.511	0.1345
864.6737	0.1897
864.8365	0.0767
864.9992	-0.4161
865.1619	-0.1028
865.3246	0.6502
865.4873	-0.1257
865.65	-0.4
865.8126	0.0362
865.9752	0.4607
866.1378	-0.1021
866.3004	-0
866.4629	0.2415
866.6254	-0.0209
866.7879	0.3378
866.9504	-0.4063
867.1129	-0
867.2753	0.4179
867.4377	0.2074
867.6001	-0.5238
867.7625	0.1834
867.9249	-0.4254
868.0872	-0.0536
868.2495	0.0148
868.4118	-0.2642
868.5741	-0.6028
868.7363	-0.2814
868.8986	-0.329
869.0608	-0.1537
869.223	0.0174
869.3851	-0
869.5473	-0
869.7094	0.2214
869.8715	-0
870.0336	-0
870.1957	-0
870.3577	-0.4569
870.5197	-0.2941
870.6817	-0
870.8437	-0.2714
871.0057	-0.03
871.1676	-0.242
871.3295	-0.3614
871.4914	-0
871.6533	-0.5236
871.8151	-0.5677
871.977	-0
872.1388	-0
872.3006	-0
872.4623	-0
872.6241	0.068
872.7858	0.1138
872.9475	-0.3755
873.1092	-0.127
873.2709	-0
873.4325	0.3221
873.5941	-0.5403
873.7557	-0
873.9173	-0.0722
874.0789	0.1059
874.2404	-0.6033
874.4019	0.3756
874.5634	0.2844
874.7249	-0.2389
874.8863	0.0777
875.0478	0.052
875.2092	-0
875.3706	0.2881
875.5319	-0
875.6933	-0
875.8546	-0.3778
876.0159	0.5015
876.1772	0.4492
876.3385	-0
876.4997	0.0087
876.6609	-0.4493
876.8221	-0
876.9833	-0
877.1445	-0
877.3056	0.975
877.4667	-0.4708
877.6278	-0
877.7889	-0.8423
877.9499	-0
878.111	-0.8151
878.272	-0
878.433	-0
878.5939	-0
878.7549	-0.3268
878.9158	-0.7746
879.0767	0.0237
879.2376	0.8757
879.3984	0.1284
879.5593	-0
879.7201	1.3153
879.8809	-0.7067
880.0417	-0.1761
880.2024	0.4761
880.3632	-0
880.5239	0.0636
880.6846	-0
880.8452	-2.2799
881.0059	-0
881.1665	0.7584
881.3271	-0.2238
881.4877	-0.4663
881.6483	-0.3823
881.8088	0.2201
881.9693	0.7085
882.1298	0.7085
882.2903	0.7085
