Data from MonoPyChalIsomerACN10uM360nmA_Absorbance_13-57-23-804.txt Node
Date: Fri Jul 05 13:57:23 BST 2024
User: LASERRRRR
Spectrometer: FLMT03099
Trigger mode: 0
Integration Time (sec): 1.000000E-1
Scans to average: 1
Electric dark correction enabled: true
Nonlinearity correction enabled: false
Boxcar width: 0
XAxis mode: Wavelengths
Number of Pixels in Spectrum: 3648
>>>>>Begin Spectral Data<<<<<
179.3399	-0.3737
179.5586	-0.3737
179.7771	-0.3737
179.9957	-0
180.2143	0.2581
180.4329	0.0221
180.6514	0.6537
180.8699	-0
181.0885	0.2421
181.307	0.5403
181.5255	-0
181.744	-0.3717
181.9625	-0
182.181	-0
182.3994	0.6196
182.6179	-0
182.8363	0.0231
183.0547	0.019
183.2732	0.2565
183.4916	0.2851
183.71	0.0686
183.9284	0.1147
184.1467	-0.0498
184.3651	-0.0266
184.5835	-0.1205
184.8018	0.2294
185.0201	0.0061
185.2385	-0.1486
185.4568	0.0107
185.6751	0.0253
185.8934	0.4676
186.1117	0.0832
186.3299	0.0083
186.5482	0.1307
186.7664	-0.1368
186.9847	-0.1181
187.2029	-0.0089
187.4211	0.2346
187.6393	0.1229
187.8575	-0.0991
188.0757	0.399
188.2939	0.0171
188.512	-0.135
188.7302	0.0256
188.9483	0.0418
189.1665	0.1847
189.3846	-0.2216
189.6027	0.0927
189.8208	0.1884
190.0389	0.1654
190.257	0.402
190.475	0.3736
190.6931	0.3574
190.9111	0.4369
191.1292	0.2501
191.3472	0.4138
191.5652	0.2676
191.7832	0.2028
192.0012	0.7156
192.2192	0.3451
192.4371	0.3501
192.6551	0.3639
192.873	0.4837
193.091	0.5122
193.3089	0.7648
193.5268	0.3083
193.7447	0.4053
193.9626	0.4624
194.1805	0.6613
194.3984	0.6585
194.6162	0.5512
194.8341	0.4837
195.0519	0.4485
195.2697	0.4789
195.4875	0.5897
195.7054	0.6133
195.9231	0.5415
196.1409	0.986
196.3587	0.5334
196.5765	0.5711
196.7942	0.5986
197.012	0.5599
197.2297	0.4987
197.4474	0.7068
197.6651	0.5266
197.8828	0.5099
198.1005	0.7414
198.3182	0.5819
198.5358	0.8079
198.7535	0.4767
198.9711	0.5798
199.1888	0.6416
199.4064	0.8478
199.624	0.592
199.8416	0.5774
200.0592	0.6782
200.2767	0.5572
200.4943	0.6588
200.7119	0.7453
200.9294	0.664
201.1469	0.603
201.3645	0.5212
201.582	0.6602
201.7995	0.7265
202.017	0.6319
202.2344	0.5423
202.4519	0.7842
202.6694	0.6095
202.8868	0.6543
203.1042	0.7567
203.3217	0.681
203.5391	0.5947
203.7565	0.5899
203.9739	0.6657
204.1913	0.5242
204.4086	0.5529
204.626	0.8205
204.8433	0.6023
205.0607	0.6726
205.278	0.5665
205.4953	0.5985
205.7126	0.6185
205.9299	0.7195
206.1472	0.6082
206.3644	0.6372
206.5817	0.7368
206.7989	0.7056
207.0162	0.6246
207.2334	0.6828
207.4506	0.7073
207.6678	0.6583
207.885	0.661
208.1022	0.6599
208.3194	0.6988
208.5365	0.6925
208.7537	0.584
208.9708	0.6288
209.1879	0.6454
209.405	0.7492
209.6222	0.6904
209.8392	0.6472
210.0563	0.6309
210.2734	0.6341
210.4905	0.6129
210.7075	0.5567
210.9245	0.5776
211.1416	0.6626
211.3586	0.6217
211.5756	0.6044
211.7926	0.6323
212.0096	0.5936
212.2265	0.569
212.4435	0.5593
212.6604	0.5286
212.8774	0.5522
213.0943	0.5673
213.3112	0.5042
213.5281	0.5201
213.745	0.5028
213.9619	0.5323
214.1788	0.478
214.3956	0.4721
214.6125	0.4922
214.8293	0.4115
215.0461	0.462
215.2629	0.4644
215.4798	0.4607
215.6965	0.4063
215.9133	0.4228
216.1301	0.4109
216.3469	0.4532
216.5636	0.4037
216.7803	0.3794
216.9971	0.3798
217.2138	0.3766
217.4305	0.3835
217.6472	0.3634
217.8639	0.3598
218.0805	0.3442
218.2972	0.3427
218.5138	0.3301
218.7305	0.3289
218.9471	0.2886
219.1637	0.295
219.3803	0.2917
219.5969	0.2886
219.8135	0.2671
220.0301	0.2738
220.2466	0.3086
220.4632	0.258
220.6797	0.2511
220.8962	0.2451
221.1127	0.2576
221.3292	0.2712
221.5457	0.2531
221.7622	0.2308
221.9787	0.2563
222.1951	0.2651
222.4116	0.256
222.628	0.2656
222.8444	0.2604
223.0608	0.256
223.2772	0.2507
223.4936	0.2598
223.71	0.2367
223.9264	0.2657
224.1427	0.2548
224.3591	0.2404
224.5754	0.2802
224.7917	0.2833
225.008	0.2697
225.2243	0.2741
225.4406	0.2815
225.6569	0.2865
225.8732	0.2793
226.0894	0.2831
226.3057	0.2856
226.5219	0.2897
226.7381	0.2587
226.9543	0.2824
227.1705	0.3003
227.3867	0.2972
227.6029	0.3128
227.8191	0.2993
228.0352	0.3028
228.2513	0.317
228.4675	0.3273
228.6836	0.3084
228.8997	0.3147
229.1158	0.315
229.3319	0.3163
229.548	0.3446
229.764	0.351
229.9801	0.3403
230.1961	0.3401
230.4121	0.3316
230.6282	0.3425
230.8442	0.3408
231.0602	0.3495
231.2761	0.3532
231.4921	0.3555
231.7081	0.354
231.924	0.3458
232.14	0.3834
232.3559	0.3394
232.5718	0.3777
232.7877	0.3574
233.0036	0.3456
233.2195	0.3444
233.4353	0.3734
233.6512	0.3473
233.867	0.3648
234.0829	0.3668
234.2987	0.3682
234.5145	0.3807
234.7303	0.3935
234.9461	0.4041
235.1619	0.3874
235.3776	0.3848
235.5934	0.3901
235.8091	0.3736
236.0249	0.3828
236.2406	0.3817
236.4563	0.4005
236.672	0.4145
236.8877	0.4131
237.1034	0.4147
237.319	0.4074
237.5347	0.4174
237.7503	0.3992
237.966	0.4153
238.1816	0.4162
238.3972	0.407
238.6128	0.4045
238.8284	0.4103
239.0439	0.4295
239.2595	0.4109
239.475	0.3968
239.6906	0.4044
239.9061	0.4
240.1216	0.4199
240.3371	0.3934
240.5526	0.3984
240.7681	0.414
240.9836	0.3871
241.199	0.4099
241.4145	0.3825
241.6299	0.3653
241.8453	0.3841
242.0607	0.3901
242.2761	0.3599
242.4915	0.3702
242.7069	0.3544
242.9223	0.3548
243.1376	0.3546
243.353	0.3353
243.5683	0.3332
243.7836	0.3006
243.9989	0.3289
244.2142	0.3064
244.4295	0.3033
244.6448	0.3
244.86	0.2895
245.0753	0.2843
245.2905	0.2835
245.5057	0.2734
245.721	0.2691
245.9362	0.2622
246.1514	0.2628
246.3665	0.2557
246.5817	0.2464
246.7969	0.2559
247.012	0.239
247.2271	0.2315
247.4423	0.2378
247.6574	0.2413
247.8725	0.2226
248.0876	0.2211
248.3026	0.2154
248.5177	0.2188
248.7328	0.209
248.9478	0.1931
249.1628	0.2062
249.3779	0.1978
249.5929	0.1973
249.8079	0.2145
250.0228	0.2121
250.2378	0.2027
250.4528	0.2034
250.6677	0.1934
250.8827	0.1973
251.0976	0.1964
251.3125	0.1908
251.5274	0.1732
251.7423	0.179
251.9572	0.1847
252.172	0.1813
252.3869	0.19
252.6017	0.1762
252.8166	0.1709
253.0314	0.1622
253.2462	0.1752
253.461	0.18
253.6758	0.1723
253.8906	0.1917
254.1053	0.1626
254.3201	0.1578
254.5348	0.1831
254.7496	0.1814
254.9643	0.172
255.179	0.1674
255.3937	0.1646
255.6083	0.174
255.823	0.1636
256.0377	0.1601
256.2523	0.1751
256.467	0.1547
256.6816	0.1775
256.8962	0.1681
257.1108	0.1597
257.3254	0.1721
257.54	0.1559
257.7545	0.1677
257.9691	0.1821
258.1836	0.1623
258.3981	0.1736
258.6127	0.1804
258.8272	0.1611
259.0417	0.1668
259.2561	0.1738
259.4706	0.1657
259.6851	0.163
259.8995	0.1666
260.114	0.1612
260.3284	0.1671
260.5428	0.161
260.7572	0.1585
260.9716	0.1727
261.186	0.1509
261.4003	0.1612
261.6147	0.1715
261.829	0.178
262.0433	0.1669
262.2577	0.1647
262.472	0.1721
262.6863	0.1598
262.9005	0.1667
263.1148	0.1664
263.3291	0.1483
263.5433	0.1625
263.7576	0.1605
263.9718	0.152
264.186	0.1569
264.4002	0.1636
264.6144	0.1568
264.8286	0.1574
265.0427	0.1587
265.2569	0.1574
265.471	0.1589
265.6851	0.1518
265.8993	0.1576
266.1134	0.1473
266.3275	0.1542
266.5415	0.1499
266.7556	0.1809
266.9697	0.1588
267.1837	0.159
267.3978	0.1689
267.6118	0.1589
267.8258	0.1582
268.0398	0.1572
268.2538	0.1691
268.4677	0.1701
268.6817	0.147
268.8957	0.1559
269.1096	0.1594
269.3235	0.1577
269.5374	0.1475
269.7514	0.1508
269.9652	0.1507
270.1791	0.1382
270.393	0.1339
270.6068	0.155
270.8207	0.1399
271.0345	0.1366
271.2483	0.1368
271.4622	0.1349
271.676	0.1545
271.8897	0.1443
272.1035	0.138
272.3173	0.1375
272.531	0.1396
272.7448	0.1477
272.9585	0.1199
273.1722	0.1421
273.3859	0.1382
273.5996	0.1287
273.8133	0.14
274.0269	0.1425
274.2406	0.1337
274.4542	0.1453
274.6679	0.1293
274.8815	0.1361
275.0951	0.1391
275.3087	0.1415
275.5223	0.1405
275.7358	0.1393
275.9494	0.146
276.1629	0.1235
276.3765	0.139
276.59	0.1233
276.8035	0.1322
277.017	0.1302
277.2305	0.1372
277.444	0.1389
277.6574	0.1348
277.8709	0.1402
278.0843	0.1288
278.2978	0.1307
278.5112	0.1407
278.7246	0.1344
278.938	0.1414
279.1513	0.1448
279.3647	0.1433
279.5781	0.1403
279.7914	0.1535
280.0047	0.163
280.2181	0.1353
280.4314	0.1519
280.6447	0.1446
280.8579	0.1495
281.0712	0.1441
281.2845	0.1538
281.4977	0.1454
281.711	0.1425
281.9242	0.1508
282.1374	0.1537
282.3506	0.1423
282.5638	0.1526
282.7769	0.15
282.9901	0.1495
283.2033	0.1573
283.4164	0.1657
283.6295	0.1394
283.8426	0.1389
284.0557	0.1537
284.2688	0.1629
284.4819	0.157
284.695	0.1531
284.908	0.1657
285.1211	0.1562
285.3341	0.1593
285.5471	0.1573
285.7601	0.16
285.9731	0.1604
286.1861	0.1663
286.3991	0.1659
286.612	0.1618
286.825	0.1641
287.0379	0.1657
287.2508	0.1496
287.4637	0.1582
287.6766	0.1439
287.8895	0.1712
288.1024	0.1924
288.3152	0.182
288.5281	0.1579
288.7409	0.1748
288.9538	0.1785
289.1666	0.1722
289.3794	0.1596
289.5922	0.1648
289.8049	0.1712
290.0177	0.1707
290.2304	0.1705
290.4432	0.1684
290.6559	0.1768
290.8686	0.1672
291.0813	0.1654
291.294	0.1755
291.5067	0.1743
291.7194	0.1698
291.932	0.1834
292.1447	0.1753
292.3573	0.1596
292.5699	0.1687
292.7825	0.1892
292.9951	0.1707
293.2077	0.1665
293.4203	0.1752
293.6328	0.1667
293.8454	0.1772
294.0579	0.1724
294.2704	0.1639
294.4829	0.1675
294.6954	0.1676
294.9079	0.1781
295.1204	0.1754
295.3328	0.1791
295.5453	0.1711
295.7577	0.1739
295.9701	0.1665
296.1825	0.1804
296.3949	0.1732
296.6073	0.1681
296.8197	0.1689
297.0321	0.1793
297.2444	0.1619
297.4567	0.1695
297.6691	0.1673
297.8814	0.1587
298.0937	0.1737
298.306	0.173
298.5182	0.1745
298.7305	0.1866
298.9428	0.1673
299.155	0.1701
299.3672	0.1704
299.5794	0.1667
299.7916	0.166
300.0038	0.1729
300.216	0.1769
300.4282	0.1825
300.6403	0.1633
300.8525	0.1728
301.0646	0.1709
301.2767	0.1683
301.4888	0.1699
301.7009	0.162
301.913	0.1756
302.125	0.1775
302.3371	0.1795
302.5491	0.1656
302.7612	0.1751
302.9732	0.1837
303.1852	0.1699
303.3972	0.1761
303.6092	0.1646
303.8211	0.1669
304.0331	0.1554
304.245	0.1691
304.457	0.1554
304.6689	0.166
304.8808	0.1752
305.0927	0.158
305.3046	0.1544
305.5164	0.1657
305.7283	0.151
305.9401	0.1599
306.152	0.1645
306.3638	0.1718
306.5756	0.1492
306.7874	0.1518
306.9992	0.1529
307.2109	0.1472
307.4227	0.1377
307.6344	0.1445
307.8462	0.1402
308.0579	0.1306
308.2696	0.1336
308.4813	0.1394
308.693	0.1381
308.9046	0.1335
309.1163	0.1326
309.328	0.1322
309.5396	0.1361
309.7512	0.1172
309.9628	0.129
310.1744	0.1328
310.386	0.1199
310.5976	0.1163
310.8091	0.1189
311.0207	0.1206
311.2322	0.1235
311.4437	0.1024
311.6552	0.1148
311.8667	0.1185
312.0782	0.1116
312.2897	0.0944
312.5012	0.1177
312.7126	0.1009
312.924	0.1075
313.1355	0.1107
313.3469	0.0999
313.5583	0.098
313.7696	0.1065
313.981	0.113
314.1924	0.0919
314.4037	0.1034
314.6151	0.1049
314.8264	0.0914
315.0377	0.1025
315.249	0.1005
315.4603	0.1144
315.6716	0.1017
315.8828	0.0899
316.0941	0.103
316.3053	0.0964
316.5165	0.0916
316.7277	0.0813
316.9389	0.1001
317.1501	0.1073
317.3613	0.0956
317.5724	0.0832
317.7836	0.1062
317.9947	0.1005
318.2058	0.0908
318.417	0.0763
318.6281	0.0804
318.8391	0.0809
319.0502	0.0869
319.2613	0.0847
319.4723	0.1015
319.6834	0.0985
319.8944	0.0737
320.1054	0.103
320.3164	0.107
320.5274	0.0967
320.7383	0.0809
320.9493	0.0861
321.1602	0.1036
321.3712	0.0843
321.5821	0.0864
321.793	0.1017
322.0039	0.1024
322.2148	0.0943
322.4257	0.1001
322.6365	0.0974
322.8474	0.0969
323.0582	0.0899
323.269	0.0999
323.4798	0.107
323.6906	0.1027
323.9014	0.0951
324.1122	0.1043
324.3229	0.0981
324.5337	0.1005
324.7444	0.09
324.9551	0.0991
325.1658	0.0953
325.3765	0.1064
325.5872	0.0972
325.7979	0.0902
326.0085	0.0937
326.2192	0.0974
326.4298	0.0982
326.6404	0.0919
326.851	0.0932
327.0616	0.0843
327.2722	0.0919
327.4828	0.1068
327.6933	0.1004
327.9039	0.093
328.1144	0.0968
328.3249	0.0988
328.5354	0.0837
328.7459	0.1061
328.9564	0.094
329.1669	0.0977
329.3773	0.0927
329.5878	0.1054
329.7982	0.0977
330.0086	0.104
330.219	0.1017
330.4294	0.0887
330.6398	0.1067
330.8502	0.0953
331.0605	0.1008
331.2708	0.1036
331.4812	0.0987
331.6915	0.1002
331.9018	0.1015
332.1121	0.0953
332.3224	0.1027
332.5326	0.1061
332.7429	0.0986
332.9531	0.1133
333.1633	0.0953
333.3735	0.0992
333.5837	0.0953
333.7939	0.0882
334.0041	0.1157
334.2143	0.1135
334.4244	0.1093
334.6346	0.0885
334.8447	0.1106
335.0548	0.1025
335.2649	0.094
335.475	0.1023
335.685	0.0955
335.8951	0.1165
336.1051	0.1071
336.3152	0.1097
336.5252	0.0913
336.7352	0.1088
336.9452	0.1093
337.1552	0.1169
337.3652	0.1046
337.5751	0.1004
337.7851	0.1116
337.995	0.0917
338.2049	0.1088
338.4148	0.1083
338.6247	0.1
338.8346	0.1098
339.0445	0.0958
339.2543	0.0991
339.4642	0.1021
339.674	0.0968
339.8838	0.1137
340.0936	0.1057
340.3034	0.1164
340.5132	0.1127
340.7229	0.0989
340.9327	0.1136
341.1424	0.0967
341.3522	0.1233
341.5619	0.1194
341.7716	0.1114
341.9813	0.1221
342.1909	0.1166
342.4006	0.1199
342.6102	0.1234
342.8199	0.1195
343.0295	0.11
343.2391	0.1168
343.4487	0.1346
343.6583	0.1138
343.8679	0.1194
344.0774	0.1175
344.287	0.1189
344.4965	0.1224
344.706	0.1228
344.9155	0.1113
345.125	0.1167
345.3345	0.1171
345.544	0.1147
345.7534	0.1194
345.9629	0.1215
346.1723	0.1205
346.3817	0.1181
346.5911	0.1313
346.8005	0.1198
347.0099	0.1239
347.2193	0.1251
347.4286	0.1198
347.638	0.1321
347.8473	0.1341
348.0566	0.1322
348.2659	0.132
348.4752	0.133
348.6845	0.1184
348.8937	0.1367
349.103	0.1426
349.3122	0.1278
349.5214	0.1395
349.7306	0.1346
349.9398	0.1381
350.149	0.1335
350.3582	0.132
350.5674	0.1501
350.7765	0.1447
350.9856	0.1402
351.1948	0.1418
351.4039	0.1237
351.613	0.1348
351.822	0.1355
352.0311	0.1439
352.2402	0.1444
352.4492	0.1479
352.6582	0.1514
352.8672	0.1373
353.0762	0.1481
353.2852	0.1464
353.4942	0.1364
353.7032	0.1468
353.9121	0.142
354.1211	0.1465
354.33	0.1477
354.5389	0.1469
354.7478	0.1439
354.9567	0.1497
355.1655	0.1421
355.3744	0.1481
355.5833	0.1639
355.7921	0.1664
356.0009	0.1518
356.2097	0.1574
356.4185	0.1576
356.6273	0.163
356.8361	0.1655
357.0448	0.1582
357.2536	0.155
357.4623	0.1579
357.671	0.166
357.8797	0.1528
358.0884	0.1642
358.2971	0.1566
358.5057	0.1738
358.7144	0.1714
358.923	0.174
359.1316	0.1671
359.3402	0.1755
359.5488	0.1575
359.7574	0.1674
359.966	0.1849
360.1746	0.1795
360.3831	0.1729
360.5916	0.1667
360.8002	0.1843
361.0087	0.187
361.2172	0.1907
361.4256	0.1778
361.6341	0.1866
361.8426	0.1843
362.051	0.1779
362.2594	0.1709
362.4678	0.1844
362.6762	0.1948
362.8846	0.195
363.093	0.1821
363.3014	0.1966
363.5097	0.1717
363.718	0.1964
363.9264	0.1895
364.1347	0.1811
364.343	0.2037
364.5513	0.2009
364.7595	0.2125
364.9678	0.209
365.176	0.202
365.3842	0.1878
365.5925	0.1959
365.8007	0.1852
366.0089	0.2091
366.217	0.1887
366.4252	0.2009
366.6333	0.2208
366.8415	0.2023
367.0496	0.202
367.2577	0.2385
367.4658	0.2183
367.6739	0.2188
367.882	0.2068
368.09	0.1949
368.2981	0.2233
368.5061	0.2141
368.7141	0.215
368.9221	0.2364
369.1301	0.2227
369.3381	0.2051
369.5461	0.2195
369.754	0.2211
369.962	0.2268
370.1699	0.2144
370.3778	0.2463
370.5857	0.2283
370.7936	0.2343
371.0015	0.2252
371.2093	0.2329
371.4172	0.2449
371.625	0.2132
371.8328	0.2367
372.0406	0.2339
372.2484	0.2299
372.4562	0.2299
372.664	0.222
372.8717	0.2483
373.0795	0.2272
373.2872	0.2322
373.4949	0.2573
373.7026	0.2462
373.9103	0.2405
374.118	0.2416
374.3256	0.2461
374.5333	0.2263
374.7409	0.2283
374.9485	0.2577
375.1561	0.234
375.3637	0.2584
375.5713	0.2406
375.7789	0.2328
375.9864	0.2287
376.194	0.2367
376.4015	0.2641
376.609	0.2533
376.8165	0.2475
377.024	0.2484
377.2315	0.2338
377.4389	0.26
377.6464	0.2617
377.8538	0.2583
378.0612	0.2655
378.2686	0.2607
378.476	0.2722
378.6834	0.2824
378.8908	0.2573
379.0981	0.2493
379.3055	0.2694
379.5128	0.2445
379.7201	0.2546
379.9274	0.2609
380.1347	0.275
380.342	0.2992
380.5492	0.2714
380.7565	0.2799
380.9637	0.2965
381.1709	0.2651
381.3781	0.2817
381.5853	0.2839
381.7925	0.2741
381.9997	0.2819
382.2068	0.2963
382.4139	0.2791
382.6211	0.2634
382.8282	0.2692
383.0353	0.2734
383.2424	0.2845
383.4494	0.2696
383.6565	0.2787
383.8635	0.2843
384.0706	0.2673
384.2776	0.2881
384.4846	0.2572
384.6916	0.2845
384.8986	0.2725
385.1055	0.2862
385.3125	0.2751
385.5194	0.2626
385.7263	0.2719
385.9333	0.2627
386.1402	0.2931
386.347	0.2711
386.5539	0.2607
386.7608	0.2698
386.9676	0.2543
387.1744	0.2742
387.3813	0.2594
387.5881	0.3075
387.7948	0.2751
388.0016	0.2796
388.2084	0.2868
388.4151	0.2606
388.6219	0.2848
388.8286	0.2739
389.0353	0.2867
389.242	0.2674
389.4487	0.2756
389.6553	0.274
389.862	0.2497
390.0686	0.2488
390.2753	0.277
390.4819	0.258
390.6885	0.2668
390.8951	0.2761
391.1016	0.26
391.3082	0.2562
391.5147	0.2773
391.7213	0.2654
391.9278	0.2615
392.1343	0.257
392.3408	0.2484
392.5473	0.2358
392.7537	0.2506
392.9602	0.2396
393.1666	0.2553
393.373	0.2503
393.5794	0.2463
393.7858	0.2486
393.9922	0.2402
394.1986	0.253
394.4049	0.2325
394.6113	0.2485
394.8176	0.2303
395.0239	0.2634
395.2302	0.2327
395.4365	0.2422
395.6428	0.2513
395.8491	0.232
396.0553	0.2303
396.2615	0.2244
396.4678	0.2459
396.674	0.2209
396.8802	0.2384
397.0863	0.2512
397.2925	0.2368
397.4987	0.228
397.7048	0.2204
397.9109	0.2409
398.117	0.2247
398.3231	0.2294
398.5292	0.2512
398.7353	0.2542
398.9413	0.2315
399.1474	0.2453
399.3534	0.2367
399.5594	0.2255
399.7654	0.2428
399.9714	0.2579
400.1774	0.2202
400.3833	0.2182
400.5893	0.2328
400.7952	0.2411
401.0011	0.2398
401.207	0.2326
401.4129	0.2563
401.6188	0.239
401.8247	0.2231
402.0305	0.228
402.2364	0.2346
402.4422	0.2374
402.648	0.246
402.8538	0.247
403.0596	0.2402
403.2654	0.2397
403.4711	0.2378
403.6768	0.2242
403.8826	0.2656
404.0883	0.2511
404.294	0.2316
404.4997	0.235
404.7054	0.2326
404.911	0.2225
405.1167	0.2363
405.3223	0.239
405.5279	0.2417
405.7335	0.2429
405.9391	0.2438
406.1447	0.2285
406.3502	0.2551
406.5558	0.2344
406.7613	0.2378
406.9668	0.238
407.1724	0.2295
407.3778	0.2243
407.5833	0.2375
407.7888	0.2274
407.9942	0.2433
408.1997	0.2283
408.4051	0.2328
408.6105	0.2302
408.8159	0.2235
409.0213	0.2316
409.2267	0.2473
409.432	0.2356
409.6374	0.2469
409.8427	0.228
410.048	0.2457
410.2533	0.2321
410.4586	0.2513
410.6639	0.2145
410.8691	0.2119
411.0744	0.2206
411.2796	0.2293
411.4848	0.2252
411.69	0.2001
411.8952	0.2548
412.1004	0.2119
412.3056	0.2298
412.5107	0.2333
412.7158	0.2506
412.921	0.2207
413.1261	0.2251
413.3312	0.2259
413.5362	0.2307
413.7413	0.2237
413.9464	0.2337
414.1514	0.2345
414.3564	0.2229
414.5614	0.2181
414.7664	0.2216
414.9714	0.2417
415.1764	0.2237
415.3813	0.2258
415.5863	0.2294
415.7912	0.228
415.9961	0.2117
416.201	0.2342
416.4059	0.2363
416.6108	0.2042
416.8156	0.2225
417.0205	0.2224
417.2253	0.2017
417.4301	0.2432
417.6349	0.2036
417.8397	0.2237
418.0445	0.2194
418.2492	0.2154
418.454	0.224
418.6587	0.2169
418.8634	0.2328
419.0681	0.2081
419.2728	0.2063
419.4775	0.2235
419.6822	0.2076
419.8868	0.189
420.0915	0.2112
420.2961	0.1992
420.5007	0.2112
420.7053	0.2086
420.9099	0.2115
421.1144	0.2019
421.319	0.211
421.5235	0.2267
421.728	0.2071
421.9325	0.2252
422.137	0.2097
422.3415	0.2003
422.546	0.2074
422.7504	0.1986
422.9549	0.219
423.1593	0.2231
423.3637	0.2052
423.5681	0.1881
423.7725	0.1928
423.9769	0.201
424.1812	0.196
424.3856	0.1923
424.5899	0.211
424.7942	0.2085
424.9985	0.1928
425.2028	0.1788
425.4071	0.2175
425.6113	0.1687
425.8156	0.1919
426.0198	0.1804
426.224	0.1902
426.4282	0.1823
426.6324	0.1804
426.8366	0.1887
427.0407	0.1811
427.2449	0.1919
427.449	0.1828
427.6531	0.1676
427.8572	0.1716
428.0613	0.1799
428.2654	0.1712
428.4694	0.184
428.6735	0.1789
428.8775	0.1913
429.0815	0.1858
429.2855	0.1547
429.4895	0.1767
429.6935	0.1629
429.8975	0.1775
430.1014	0.1645
430.3053	0.1408
430.5093	0.1697
430.7132	0.1574
430.9171	0.1559
431.1209	0.1553
431.3248	0.1516
431.5286	0.1669
431.7325	0.1479
431.9363	0.1573
432.1401	0.1696
432.3439	0.1328
432.5477	0.1225
432.7514	0.1432
432.9552	0.1286
433.1589	0.1486
433.3627	0.1352
433.5664	0.1317
433.7701	0.1369
433.9737	0.1274
434.1774	0.1277
434.3811	0.1309
434.5847	0.135
434.7883	0.1359
434.9919	0.127
435.1955	0.1127
435.3991	0.1197
435.6027	0.1224
435.8062	0.1117
436.0098	0.1252
436.2133	0.1274
436.4168	0.1037
436.6203	0.1058
436.8238	0.1194
437.0272	0.1129
437.2307	0.1054
437.4341	0.1036
437.6375	0.1116
437.841	0.1093
438.0443	0.1176
438.2477	0.1132
438.4511	0.0864
438.6545	0.1013
438.8578	0.1074
439.0611	0.1042
439.2644	0.102
439.4677	0.0801
439.671	0.0812
439.8743	0.1054
440.0775	0.094
440.2808	0.0845
440.484	0.0774
440.6872	0.077
440.8904	0.0794
441.0936	0.098
441.2967	0.0877
441.4999	0.0719
441.703	0.0823
441.9062	0.0636
442.1093	0.0659
442.3124	0.0664
442.5155	0.0544
442.7185	0.0739
442.9216	0.0398
443.1246	0.0792
443.3276	0.0711
443.5307	0.0624
443.7337	0.0742
443.9366	0.0594
444.1396	0.0599
444.3426	0.0513
444.5455	0.0615
444.7484	0.0558
444.9513	0.0455
445.1542	0.0659
445.3571	0.0695
445.56	0.0547
445.7628	0.0487
445.9657	0.0453
446.1685	0.0656
446.3713	0.0481
446.5741	0.0589
446.7769	0.0257
446.9797	0.0509
447.1824	0.059
447.3852	0.0444
447.5879	0.0773
447.7906	0.0519
447.9933	0.0439
448.196	0.0452
448.3986	0.0355
448.6013	0.0459
448.8039	0.0276
449.0066	0.0394
449.2092	0.0541
449.4118	0.0447
449.6143	0.0399
449.8169	0.0472
450.0195	0.0245
450.222	0.0221
450.4245	0.0405
450.627	0.048
450.8295	0.034
451.032	0.0252
451.2345	0.0195
451.4369	0.0465
451.6394	0.0283
451.8418	0.0095
452.0442	0.0189
452.2466	0.03
452.449	0.0026
452.6513	0.0281
452.8537	0.0116
453.056	0.0162
453.2583	0.0242
453.4607	0.0184
453.663	0.0201
453.8652	0.0307
454.0675	0.01
454.2697	0.0192
454.472	0.0143
454.6742	0.048
454.8764	0.0257
455.0786	0.0205
455.2808	0.0244
455.4829	0.0342
455.6851	0.0141
455.8872	0.0309
456.0893	0.0266
456.2915	0.0109
456.4935	0.0265
456.6956	0.017
456.8977	0.0213
457.0997	0.0201
457.3018	0.0089
457.5038	0.0089
457.7058	0.0135
457.9078	0.0124
458.1098	0.0193
458.3117	0.0108
458.5137	0.013
458.7156	0.0158
458.9175	-0.0016
459.1194	0.011
459.3213	0.0051
459.5232	0.0002
459.725	0.0155
459.9269	0.0137
460.1287	0.0024
460.3305	-0.004
460.5323	0.0012
460.7341	0.0046
460.9359	0.0053
461.1376	0.0134
461.3394	0.0028
461.5411	0.0096
461.7428	0.006
461.9445	0.0199
462.1462	0.0167
462.3479	-0.007
462.5495	-0.006
462.7512	0.012
462.9528	0.0067
463.1544	-0.0022
463.356	0.0026
463.5576	0.0081
463.7592	-0.0053
463.9607	0.0083
464.1623	0.0111
464.3638	0.0226
464.5653	-0.0067
464.7668	0.0058
464.9683	0.0131
465.1697	0.0204
465.3712	0.0012
465.5726	0.0012
465.7741	-0.0013
465.9755	-0.0082
466.1769	-0.0062
466.3782	-0.0065
466.5796	-0.0026
466.7809	0.0179
466.9823	0.0071
467.1836	-0.0038
467.3849	0.0068
467.5862	0.0072
467.7875	-0.0003
467.9887	0.0243
468.19	-0.0082
468.3912	0.003
468.5924	0.0088
468.7936	-0.0039
468.9948	0.0082
469.196	0.0112
469.3972	-0.0159
469.5983	0.0128
469.7994	-0.022
470.0006	0.0071
470.2017	0.0016
470.4027	-0.0106
470.6038	0.0039
470.8049	-0.0098
471.0059	-0.0044
471.2069	-0.0126
471.408	0.0091
471.6089	0.0101
471.8099	0.0019
472.0109	0.0087
472.2119	-0.0087
472.4128	-0.0185
472.6137	0.0068
472.8146	-0.0164
473.0155	0.0062
473.2164	-0.0016
473.4173	0.0077
473.6181	0.0172
473.819	0.0145
474.0198	0.0037
474.2206	0.0161
474.4214	0.0045
474.6222	0.0047
474.8229	-0.0047
475.0237	-0.0161
475.2244	-0.01
475.4251	-0.0088
475.6258	-0.0029
475.8265	0.0019
476.0272	0.0097
476.2278	0.0073
476.4285	-0.0034
476.6291	0.0024
476.8297	0.0044
477.0303	-0.0084
477.2309	0.0044
477.4315	-0.0165
477.632	-0.007
477.8326	0.0004
478.0331	0.0108
478.2336	0.0157
478.4341	0.0006
478.6346	0.0065
478.8351	-0.0085
479.0355	0.0011
479.236	-0.0146
479.4364	0.0046
479.6368	-0.0007
479.8372	-0.0109
480.0376	0.0044
480.2379	-0.0111
480.4383	0.0002
480.6386	0.0148
480.8389	0.0011
481.0392	-0.007
481.2395	0.001
481.4398	0.0062
481.6401	0.0088
481.8403	-0.0046
482.0405	-0.0038
482.2408	0.0043
482.441	-0.0033
482.6411	0.0056
482.8413	-0.0032
483.0415	0.0018
483.2416	-0.0104
483.4417	-0.0028
483.6419	-0.0061
483.8419	-0.0036
484.042	0.0191
484.2421	0.012
484.4422	0.0037
484.6422	0.0065
484.8422	-0.0026
485.0422	-0.0049
485.2422	0.0048
485.4422	-0.0088
485.6422	-0.0069
485.8421	-0.0056
486.042	-0.0031
486.242	-0.0042
486.4419	-0.01
486.6417	-0.0098
486.8416	-0.003
487.0415	-0.0082
487.2413	0.0033
487.4411	-0.0091
487.641	-0.0146
487.8408	0.017
488.0405	-0.0129
488.2403	-0.0026
488.4401	0.0007
488.6398	0.0066
488.8395	-0.0091
489.0392	0.0066
489.2389	0
489.4386	-0.0001
489.6383	-0.01
489.8379	0.014
490.0376	-0.0097
490.2372	-0.0114
490.4368	-0.0134
490.6364	0.0007
490.836	-0.0064
491.0355	-0.0013
491.2351	-0.0085
491.4346	-0.005
491.6341	-0.0055
491.8336	0.009
492.0331	-0.0097
492.2326	0.001
492.432	-0.004
492.6315	0.0016
492.8309	-0.0174
493.0303	-0.012
493.2297	-0.0034
493.4291	0.0126
493.6284	-0.0021
493.8278	0.0036
494.0271	0.0011
494.2264	0.0117
494.4257	-0.0037
494.625	0.0015
494.8243	-0.0118
495.0236	-0.0027
495.2228	0.0003
495.422	-0.0037
495.6213	-0.0051
495.8205	0.0008
496.0196	0.0017
496.2188	0.0016
496.418	-0.0047
496.6171	-0.0061
496.8162	-0.0119
497.0153	0.0013
497.2144	-0.0122
497.4135	0.002
497.6126	-0.0177
497.8116	-0.0077
498.0107	-0.0042
498.2097	-0.0126
498.4087	-0.0023
498.6077	0.0027
498.8067	0.0042
499.0056	0.0076
499.2046	-0.0037
499.4035	-0.0091
499.6024	0.0015
499.8013	0.0005
500.0002	-0.0097
500.199	-0.0011
500.3979	-0.0013
500.5967	-0.0176
500.7956	-0.0004
500.9944	-0.0003
501.1932	-0.0205
501.3919	-0.0103
501.5907	-0.0008
501.7895	-0.0055
501.9882	-0.0002
502.1869	-0.0092
502.3856	0.0001
502.5843	-0.0067
502.783	-0.0036
502.9816	-0.0029
503.1803	-0.0065
503.3789	-0.0045
503.5775	0.0006
503.7761	0.0016
503.9747	-0.0019
504.1732	-0.0082
504.3718	0.0079
504.5703	0.0023
504.7689	0.0059
504.9674	-0.0076
505.1658	-0.0031
505.3643	-0.0028
505.5628	0.0002
505.7612	0.0037
505.9597	0.0056
506.1581	-0.0062
506.3565	0.0046
506.5549	0.0032
506.7532	-0.0138
506.9516	-0.0022
507.1499	-0.0016
507.3482	-0.0133
507.5465	-0.0021
507.7448	-0.0039
507.9431	0.0007
508.1414	0.0066
508.3396	-0.0002
508.5379	-0.0058
508.7361	-0.0021
508.9343	0.0031
509.1325	0.0065
509.3306	0.0107
509.5288	-0.0027
509.7269	-0.0023
509.9251	0.0095
510.1232	-0.0093
510.3213	0.0029
510.5193	0.0063
510.7174	-0.0108
510.9154	-0.0007
511.1135	-0.0104
511.3115	-0.0056
511.5095	-0.0039
511.7075	0.0043
511.9055	-0.003
512.1034	0.0001
512.3014	-0.0053
512.4993	0.0064
512.6972	-0.0142
512.8951	-0.0071
513.093	0.0017
513.2908	-0.0016
513.4887	-0.0039
513.6865	0.0042
513.8844	-0.0013
514.0822	-0.0089
514.2799	-0.0066
514.4777	-0.0014
514.6755	-0.0009
514.8732	-0.0131
515.0709	-0.0015
515.2687	0.0093
515.4664	-0.0053
515.664	-0.0068
515.8617	0.0013
516.0594	-0.0115
516.257	-0.0025
516.4546	-0.0131
516.6522	0.0071
516.8498	0.0064
517.0474	0.0085
517.2449	0.007
517.4425	0.0018
517.64	-0.0027
517.8375	0.0042
518.035	0
518.2325	-0.0003
518.43	-0.0142
518.6274	0.0027
518.8249	-0.0128
519.0223	0.0048
519.2197	-0.0002
519.4171	0.0065
519.6145	-0.0002
519.8118	0.0042
520.0092	0.0016
520.2065	-0.0106
520.4038	-0.0058
520.6011	0.0039
520.7984	-0.0089
520.9956	-0.0085
521.1929	-0.0081
521.3901	0.0037
521.5874	-0.0073
521.7846	-0.0044
521.9818	-0.0026
522.1789	-0.0069
522.3761	-0.0034
522.5732	-0.0041
522.7704	-0.0061
522.9675	0.0041
523.1646	-0.0092
523.3617	0.002
523.5587	-0.0016
523.7558	-0.0034
523.9528	-0.0061
524.1498	-0.0083
524.3468	-0.0037
524.5438	-0.0023
524.7408	-0.019
524.9378	0.0046
525.1347	0.003
525.3316	-0.0072
525.5285	-0.0049
525.7254	0.0049
525.9223	-0.0006
526.1192	-0.0098
526.316	-0.0013
526.5129	0.0045
526.7097	-0.0031
526.9065	-0.0046
527.1033	0.0024
527.3	0.0061
527.4968	-0.0025
527.6935	0.0047
527.8903	-0.0106
528.087	-0.0082
528.2837	0.0021
528.4804	-0.0018
528.677	-0.0002
528.8737	0.0109
529.0703	-0.003
529.2669	-0.0066
529.4635	-0.0042
529.6601	0.0007
529.8567	0.0013
530.0532	-0.007
530.2498	0.0034
530.4463	0.0054
530.6428	0.0005
530.8393	0.0063
531.0358	0.0015
531.2322	-0.0052
531.4287	-0.0092
531.6251	-0.0031
531.8215	0.0117
532.0179	-0.0049
532.2143	0.0056
532.4107	-0.001
532.607	0.0035
532.8034	0.007
532.9997	0.0033
533.196	0.0007
533.3923	-0.0057
533.5886	0.0017
533.7848	0.0097
533.9811	0.0019
534.1773	0.0013
534.3735	0.0039
534.5697	0.0013
534.7659	-0.0011
534.9621	0.0075
535.1582	-0.0107
535.3544	-0.0085
535.5505	-0.011
535.7466	-0.0001
535.9427	-0.0094
536.1387	-0.0114
536.3348	0.0007
536.5308	0.007
536.7269	-0.0016
536.9229	0.0065
537.1189	0.0086
537.3148	-0.0048
537.5108	-0.0043
537.7068	0.0017
537.9027	-0.0008
538.0986	-0.005
538.2945	-0.0016
538.4904	0.0004
538.6863	-0.0065
538.8821	-0.0001
539.078	-0.0001
539.2738	0.0037
539.4696	-0.0069
539.6654	0.0117
539.8611	0.0156
540.0569	-0.0011
540.2526	0.0017
540.4484	0.001
540.6441	0.0134
540.8398	0.0041
541.0355	0.004
541.2311	0.012
541.4268	-0.016
541.6224	0.0097
541.818	-0.0002
542.0136	0.0014
542.2092	0.0013
542.4048	0.0029
542.6003	0.0058
542.7959	0.0053
542.9914	-0.0031
543.1869	0.0083
543.3824	0.0008
543.5779	-0.0034
543.7734	-0.0031
543.9688	0.008
544.1642	0.003
544.3596	-0.0028
544.555	-0.0025
544.7504	-0.0039
544.9458	-0.0074
545.1411	-0.0033
545.3365	-0.002
545.5318	0.0004
545.7271	0.0083
545.9224	-0.0088
546.1177	0.0043
546.3129	0.0041
546.5081	-0.0003
546.7034	-0.0025
546.8986	-0.0079
547.0938	0.0053
547.289	-0.0001
547.4841	0.0087
547.6793	0.0114
547.8744	-0.006
548.0695	-0.0015
548.2646	-0.0096
548.4597	0.0025
548.6548	-0.0037
548.8498	0.0018
549.0448	0.0096
549.2399	-0.0022
549.4349	0.0034
549.6298	0.0027
549.8248	-0.0033
550.0198	-0.005
550.2147	-0.0082
550.4096	-0.0107
550.6045	-0.0043
550.7994	0.017
550.9943	0.0005
551.1892	0.0061
551.384	0.001
551.5788	-0.0012
551.7737	0.0037
551.9685	0.0033
552.1632	-0.0013
552.358	0.0021
552.5528	0.001
552.7475	-0.0021
552.9422	-0.0007
553.1369	-0.0041
553.3316	0.0037
553.5263	-0.0028
553.7209	0.0053
553.9156	-0.0032
554.1102	-0.002
554.3048	-0.0052
554.4994	0.0081
554.694	-0.0024
554.8885	0.0039
555.0831	-0.002
555.2776	-0.0005
555.4721	0.0019
555.6666	-0.0018
555.8611	0.0129
556.0555	0.008
556.25	0.0044
556.4444	-0.0061
556.6388	0.0067
556.8332	-0.0036
557.0276	0.0005
557.222	0.0004
557.4163	0.0095
557.6107	-0.0052
557.805	0.0123
557.9993	0.0041
558.1936	-0.001
558.3879	0.0049
558.5821	0.011
558.7764	0.0084
558.9706	-0.0044
559.1648	0.002
559.359	-0.0023
559.5532	-0.0141
559.7473	0.0054
559.9415	0.0089
560.1356	0.0015
560.3297	-0.0111
560.5238	-0.0045
560.7179	-0.0029
560.9119	0.001
561.106	0.0014
561.3	0.0025
561.494	-0.0005
561.688	-0.0016
561.882	-0.0003
562.076	0.0034
562.2699	0.0057
562.4639	0.0025
562.6578	0.0014
562.8517	0.001
563.0456	-0.0029
563.2395	0.0045
563.4333	0.0001
563.6272	0.0113
563.821	0.001
564.0148	0.0008
564.2086	0.0017
564.4024	0
564.5961	-0.0004
564.7899	0.0048
564.9836	-0.0009
565.1773	-0.0038
565.371	0.0135
565.5647	0.0077
565.7584	0.0122
565.952	0.0107
566.1456	0.0028
566.3393	0.0022
566.5329	-0.0051
566.7264	-0.0007
566.92	-0.0031
567.1136	0.0071
567.3071	-0.0006
567.5006	-0.0013
567.6941	0.0019
567.8876	0.0027
568.0811	0.003
568.2745	0.0041
568.468	0.0061
568.6614	0.0032
568.8548	0.0037
569.0482	0.0044
569.2416	0.0087
569.4349	0.006
569.6283	0.0089
569.8216	0.0043
570.0149	0.0021
570.2082	0.0066
570.4015	0.0012
570.5947	0.0082
570.788	0.0137
570.9812	0.0077
571.1744	0.0006
571.3676	-0.0015
571.5608	0.0001
571.754	0.0056
571.9471	0.0035
572.1402	0.003
572.3333	-0.003
572.5264	0.0062
572.7195	-0.0035
572.9126	0.0026
573.1057	0.0081
573.2987	0.0058
573.4917	0.0013
573.6847	-0.0045
573.8777	0.0169
574.0707	0.0105
574.2636	0.0037
574.4566	0.0027
574.6495	0.0113
574.8424	0.0043
575.0353	0.0016
575.2281	0.0121
575.421	0.0038
575.6138	0.0106
575.8067	0.005
575.9995	0.0028
576.1923	0.0074
576.385	0.0084
576.5778	-0.001
576.7706	-0.0005
576.9633	0.0047
577.156	0.008
577.3487	0.0071
577.5414	0.0009
577.734	-0.0011
577.9267	0.0087
578.1193	-0.0029
578.3119	-0.001
578.5045	-0.0052
578.6971	0.0085
578.8897	0.0065
579.0822	0.0015
579.2747	0.0031
579.4673	-0.0007
579.6598	-0.0026
579.8522	-0.0009
580.0447	-0.0053
580.2372	0.0043
580.4296	0.0123
580.622	0.001
580.8144	0.0041
581.0068	0.0091
581.1992	-0.0045
581.3915	-0.0053
581.5839	-0.0008
581.7762	-0.0045
581.9685	0.0002
582.1608	0.0066
582.353	-0.0026
582.5453	0.0016
582.7375	0.0016
582.9298	0.0081
583.122	0.0016
583.3142	0.0063
583.5063	0.0071
583.6985	0.0073
583.8906	0.0057
584.0827	0.0042
584.2749	0.0077
584.4669	0.0038
584.659	0.0039
584.8511	0.0089
585.0431	0.0047
585.2352	0.0086
585.4272	0.0071
585.6192	0.0122
585.8111	0.0004
586.0031	0.0043
586.195	0.0025
586.387	0.0034
586.5789	0.003
586.7708	-0.0001
586.9627	0.0004
587.1545	0.0027
587.3464	0.008
587.5382	0.0053
587.73	-0.0014
587.9218	0.0134
588.1136	0.0016
588.3053	0.0015
588.4971	-0.0021
588.6888	-0.0027
588.8805	0.0045
589.0722	0.0095
589.2639	0.0031
589.4556	0.0022
589.6472	0.0004
589.8389	-0.0047
590.0305	0.0025
590.2221	0.0069
590.4137	-0.0006
590.6052	0.0073
590.7968	0.0034
590.9883	0.0045
591.1798	0.0051
591.3713	0.0018
591.5628	0.0059
591.7543	0.0052
591.9458	0.0104
592.1372	0.0157
592.3286	0.0153
592.52	0.0078
592.7114	-0.0005
592.9028	-0.0013
593.0941	0.0026
593.2855	0.0041
593.4768	-0.0039
593.6681	0.0022
593.8594	0.0034
594.0506	0.0049
594.2419	0.021
594.4331	0.003
594.6244	0.0117
594.8156	-0.0073
595.0067	0.0079
595.1979	0.0022
595.3891	0.0036
595.5802	0.0034
595.7713	0.0046
595.9624	0.0041
596.1535	0.0087
596.3446	0.0022
596.5357	0.0048
596.7267	0.0097
596.9177	0.0018
597.1087	-0.0009
597.2997	0.0001
597.4907	0.0111
597.6817	0.0063
597.8726	0.0071
598.0635	-0.0078
598.2544	0.0077
598.4453	0.0081
598.6362	0.0082
598.827	0.0021
599.0179	0.0108
599.2087	0.0069
599.3995	0.0016
599.5903	0.0039
599.7811	0.0084
599.9718	0.0073
600.1626	0.0032
600.3533	0.0006
600.544	0.0071
600.7347	0.0052
600.9254	0.0023
601.116	-0.0028
601.3067	-0.0076
601.4973	-0.0004
601.6879	0.0083
601.8785	-0.0011
602.0691	0.0093
602.2596	0.001
602.4502	0.0095
602.6407	0.0055
602.8312	0.0091
603.0217	0.0047
603.2122	0.0014
603.4027	-0.0013
603.5931	0.0018
603.7835	-0.0062
603.9739	0.0031
604.1643	0.0052
604.3547	-0.0021
604.5451	0.0045
604.7354	0.0023
604.9257	0.0022
605.116	0.0008
605.3063	0.0058
605.4966	0.0088
605.6869	0.0052
605.8771	0.004
606.0673	0.0136
606.2575	0.0082
606.4477	0.0155
606.6379	0.0105
606.8281	0.0039
607.0182	0.0066
607.2083	0.0126
607.3985	0
607.5885	-0.005
607.7786	-0.0027
607.9687	0.0008
608.1587	0.003
608.3488	0.006
608.5388	-0.0017
608.7288	-0.0022
608.9187	-0.006
609.1087	0.0019
609.2986	-0.005
609.4886	0.0085
609.6785	0.0099
609.8684	0.0058
610.0582	0.0134
610.2481	0.0012
610.4379	0.0069
610.6278	0.0088
610.8176	0.002
611.0074	0.0002
611.1971	0.0012
611.3869	0.0065
611.5766	-0.0028
611.7664	0.0057
611.9561	0.0091
612.1458	0.0056
612.3354	0.0028
612.5251	0.0068
612.7147	0.0084
612.9044	0.0118
613.094	0.0082
613.2836	0.0059
613.4731	0.0029
613.6627	-0.0044
613.8522	0.0087
614.0417	0.0123
614.2313	0.0048
614.4207	0.0055
614.6102	0.0073
614.7997	-0.0003
614.9891	0.0007
615.1785	0.0049
615.3679	-0.0035
615.5573	0.0066
615.7467	0.0022
615.9361	0.0025
616.1254	0.0012
616.3147	0.0031
616.504	0.0068
616.6933	0.0046
616.8826	0.0083
617.0718	0.0129
617.2611	0.0102
617.4503	0.0024
617.6395	0.0027
617.8287	0.0046
618.0179	0.0016
618.207	0.0069
618.3961	0.0087
618.5853	0.0057
618.7744	0.0101
618.9634	0.0089
619.1525	0.0146
619.3416	0.0069
619.5306	0.0111
619.7196	0.0063
619.9086	0.0068
620.0976	0.0122
620.2866	0.0077
620.4755	0.0113
620.6645	0.0081
620.8534	0.0105
621.0423	0.0095
621.2312	0.0156
621.42	0.0076
621.6089	0.0016
621.7977	0.0111
621.9865	-0.0013
622.1753	0.0039
622.3641	0.0061
622.5529	0.0107
622.7416	0.0133
622.9303	0.0022
623.1191	0.0178
623.3078	0.0021
623.4964	0.0038
623.6851	0.0072
623.8737	0.0079
624.0624	0.0042
624.251	0.0016
624.4396	0.0041
624.6282	-0.0007
624.8167	0.0023
625.0053	0.0101
625.1938	0.0102
625.3823	0.0077
625.5708	0.0072
625.7593	-0.0018
625.9477	0.0017
626.1362	-0.0003
626.3246	0.0121
626.513	0.0057
626.7014	0.0052
626.8898	-0.0002
627.0781	0.0083
627.2665	0.0002
627.4548	0.0121
627.6431	0.0088
627.8314	0.0027
628.0197	0.0079
628.2079	-0.0062
628.3962	-0.0028
628.5844	0.0105
628.7726	0.0077
628.9608	0.0102
629.1489	0.0011
629.3371	0.0048
629.5252	0.0036
629.7134	0.0121
629.9015	0.0038
630.0895	-0.005
630.2776	0.0035
630.4657	-0.0003
630.6537	0.0016
630.8417	-0.0003
631.0297	0.0089
631.2177	0.0052
631.4057	0.002
631.5936	0.0058
631.7815	0.007
631.9695	0.0043
632.1574	0.0156
632.3452	0.0188
632.5331	0.0076
632.7209	0.007
632.9088	0.0121
633.0966	0.0153
633.2844	-0.0016
633.4722	0.0035
633.6599	0.007
633.8477	0.0039
634.0354	0.0025
634.2231	0.0046
634.4108	0.0041
634.5985	0.0132
634.7861	0.0122
634.9738	0.0035
635.1614	0.0036
635.349	0.0042
635.5366	-0.0008
635.7242	0.0022
635.9117	0.0134
636.0993	-0.0007
636.2868	0.0038
636.4743	0.0018
636.6618	0.0115
636.8492	0.0063
637.0367	0.0022
637.2241	0.0023
637.4115	0.0011
637.5989	0.0028
637.7863	0.0047
637.9737	-0.0006
638.161	0.0059
638.3484	-0.0006
638.5357	0.0144
638.723	0.0043
638.9103	0.004
639.0975	0.0084
639.2848	0.0031
639.472	0.0042
639.6592	0.0058
639.8464	0.0119
640.0336	0.0126
640.2208	-0.0012
640.4079	0.0091
640.595	0.0022
640.7821	0.0013
640.9692	0.0033
641.1563	0.0073
641.3434	0.0043
641.5304	-0.0015
641.7174	0.0093
641.9044	0.009
642.0914	0.0072
642.2784	0.0048
642.4653	0.0094
642.6523	0.0066
642.8392	0.0005
643.0261	0.0123
643.213	0.0066
643.3999	-0.0036
643.5867	0.0012
643.7735	0.0038
643.9604	-0.0079
644.1472	0.0014
644.3339	0.0053
644.5207	0.0088
644.7075	0.0045
644.8942	0.0004
645.0809	0.0116
645.2676	0.0127
645.4543	0.004
645.6409	0.0076
645.8276	0.0017
646.0142	0.0017
646.2008	0.0052
646.3874	-0.001
646.574	0.0073
646.7605	0.0008
646.9471	-0.0127
647.1336	-0.0027
647.3201	0.0074
647.5066	-0.0083
647.6931	0.0092
647.8795	-0.0007
648.0659	0.0099
648.2524	0.0003
648.4388	0.0012
648.6252	0.0028
648.8115	0.0054
648.9979	0.0066
649.1842	0.0111
649.3705	0.008
649.5568	0.0043
649.7431	0.0113
649.9294	0.0088
650.1156	0.0121
650.3018	0.0021
650.488	0.013
650.6742	0.0057
650.8604	0.0036
651.0466	0.0008
651.2327	0.0032
651.4188	0.0101
651.6049	-0.0006
651.791	0.0067
651.9771	0.0063
652.1632	0.0075
652.3492	0.003
652.5352	0.0067
652.7212	0.0023
652.9072	0.0149
653.0932	0.0055
653.2791	-0.0038
653.465	0.0039
653.651	0.0023
653.8369	0.0008
654.0227	-0.0018
654.2086	0.001
654.3944	0.0032
654.5803	0.0054
654.7661	0.0031
654.9519	0.0093
655.1377	-0.002
655.3234	0.0027
655.5092	0.0018
655.6949	-0.0018
655.8806	0.0021
656.0663	0.0056
656.2519	0.0068
656.4376	-0.0027
656.6232	0.0045
656.8088	-0.0012
656.9945	0.0017
657.18	-0.0034
657.3656	0.004
657.5511	0.0035
657.7367	0.0032
657.9222	0.0095
658.1077	0.0092
658.2932	0.0116
658.4786	-0.0047
658.6641	0.004
658.8495	0.011
659.0349	-0.0016
659.2203	0.0137
659.4057	0.0053
659.591	-0.0018
659.7764	0.0021
659.9617	0.008
660.147	0.0057
660.3323	0.0112
660.5176	0.0135
660.7028	0.0091
660.888	0.0079
661.0733	0.0128
661.2585	0.0024
661.4436	0.005
661.6288	-0.0001
661.8139	0.0063
661.9991	0.0107
662.1842	-0.0053
662.3693	0.0004
662.5544	0.0056
662.7394	0.005
662.9245	0.0114
663.1095	0.0093
663.2945	0.0138
663.4795	0.0057
663.6644	0.013
663.8494	0.0046
664.0343	0.0047
664.2193	0.0039
664.4042	0.006
664.589	0.0006
664.7739	-0
664.9587	-0.0047
665.1436	0.006
665.3284	0.0042
665.5132	0.0066
665.698	0.0048
665.8827	0.0105
666.0675	0.0051
666.2522	-0.0039
666.4369	0.0117
666.6216	0.0135
666.8063	0.0057
666.9909	0.0075
667.1756	0.004
667.3602	0.0065
667.5448	0.002
667.7294	0.0145
667.9139	0.0082
668.0985	0.0163
668.283	0.0071
668.4675	0.0102
668.652	0.0104
668.8365	0.0027
669.0209	0.0102
669.2054	0.01
669.3898	0.0049
669.5742	0.0067
669.7586	0.0175
669.943	0.0086
670.1273	0.0107
670.3117	0.0136
670.496	0.014
670.6803	0.019
670.8646	0.0097
671.0488	0.0088
671.2331	0.0111
671.4173	0.0092
671.6015	0.0054
671.7857	0.0112
671.9699	0.0133
672.1541	0.0101
672.3382	0.0051
672.5223	0.0084
672.7064	0.0093
672.8905	0.0122
673.0746	0.0057
673.2587	0.005
673.4427	0.0134
673.6267	0.0104
673.8107	0.0176
673.9947	0.0109
674.1787	0.0135
674.3626	0.0003
674.5465	0.0091
674.7304	0.0078
674.9143	0.0057
675.0982	0.014
675.2821	-0.0034
675.4659	0.0086
675.6497	0.0064
675.8335	-0.0032
676.0173	0.0008
676.2011	0.007
676.3849	0.0039
676.5686	0.0006
676.7523	0.0082
676.936	0.0041
677.1197	0
677.3034	0.0022
677.487	0.0081
677.6706	0.0082
677.8542	0.014
678.0378	-0.001
678.2214	0.0002
678.405	-0.0027
678.5885	-0.0065
678.772	0.0026
678.9555	-0.0063
679.139	-0.0036
679.3225	-0.0001
679.5059	0.0002
679.6894	0.0039
679.8728	-0.0004
680.0562	0.0013
680.2395	-0.0013
680.4229	-0.0046
680.6062	0.0077
680.7896	0.0058
680.9729	-0.0095
681.1562	0.0017
681.3394	0.0029
681.5227	-0.0035
681.7059	-0
681.8891	0.0027
682.0723	0.0143
682.2555	0.0086
682.4387	-0.0051
682.6218	-0.0022
682.805	0.009
682.9881	0.009
683.1712	0.0025
683.3542	0.0036
683.5373	0.0028
683.7203	-0.0008
683.9034	0.0054
684.0864	-0.002
684.2694	-0.0014
684.4523	0.0124
684.6353	-0.0003
684.8182	-0.003
685.0011	-0.0067
685.184	0.0059
685.3669	0.0047
685.5498	0.0027
685.7326	0.0072
685.9154	0.0043
686.0982	0.0108
686.281	0.0117
686.4638	0.0121
686.6465	0
686.8293	0.0049
687.012	0.0058
687.1947	-0.0014
687.3774	0.0123
687.56	0.0009
687.7427	0.0149
687.9253	0.0023
688.1079	0.0024
688.2905	0.0128
688.4731	0.0067
688.6556	-0.0017
688.8382	0.0067
689.0207	0.0083
689.2032	0.0034
689.3857	-0.0008
689.5681	0.009
689.7506	0.0063
689.933	0.0076
690.1154	0.0026
690.2978	0.0019
690.4802	0.0079
690.6626	-0.0124
690.8449	0.0061
691.0272	0.0169
691.2095	0.0062
691.3918	0.0043
691.5741	0.0064
691.7563	0.0037
691.9386	0.0077
692.1208	0.006
692.303	0.01
692.4852	0.0033
692.6673	0.0045
692.8495	0.0115
693.0316	0.0018
693.2137	0.0045
693.3958	0.0078
693.5778	0.0063
693.7599	0.0017
693.9419	0.0102
694.1239	0.0037
694.3059	0.0075
694.4879	0.0135
694.6699	0.015
694.8518	0.0045
695.0337	-0.003
695.2157	0.0108
695.3975	0.0047
695.5794	0.0065
695.7613	0.0053
695.9431	0.0049
696.1249	0.0094
696.3067	0.0096
696.4885	0.013
696.6703	-0.0023
696.852	0.0092
697.0337	0.0027
697.2154	0.0067
697.3971	0.0061
697.5788	0.0023
697.7605	0.0008
697.9421	0.0031
698.1237	-0.0003
698.3053	0.0034
698.4869	-0.0004
698.6685	-0.0003
698.85	0.0006
699.0315	0.0058
699.213	0.0052
699.3945	0.0106
699.576	0.0003
699.7575	0.0031
699.9389	0.0125
700.1203	0.0003
700.3017	0.0054
700.4831	-0.0029
700.6645	-0.0004
700.8458	0.0059
701.0271	0.0043
701.2084	0.0113
701.3897	0.0004
701.571	0.0075
701.7523	-0.0051
701.9335	0.002
702.1147	0.0012
702.2959	0.0072
702.4771	0.0108
702.6583	0.0024
702.8394	0.002
703.0205	0.0082
703.2016	-0.0058
703.3827	0.0055
703.5638	0.0118
703.7449	0.0058
703.9259	0.0147
704.1069	-0.0003
704.2879	0.0058
704.4689	0.0046
704.6499	0.0032
704.8308	0.0009
705.0117	0.0036
705.1927	0.0049
705.3735	0.0032
705.5544	0.0059
705.7353	0.0025
705.9161	0.0032
706.0969	-0.0035
706.2777	0.003
706.4585	0.0015
706.6393	0.0142
706.82	-0.0012
707.0007	0.0052
707.1815	0.0118
707.3621	0.0154
707.5428	0.012
707.7235	0.0109
707.9041	0.0158
708.0847	0.001
708.2653	-0.0002
708.4459	-0.0078
708.6265	0.0029
708.807	0.0027
708.9875	-0.0098
709.168	-0.0026
709.3485	-0.0036
709.529	-0.0023
709.7095	-0.0064
709.8899	0.0038
710.0703	0.0006
710.2507	0.0105
710.4311	0.0004
710.6115	-0.0025
710.7918	-0.0052
710.9721	0.0026
711.1524	-0.0078
711.3327	-0.0017
711.513	0.0034
711.6932	0.0012
711.8735	0.0095
712.0537	0.0036
712.2339	-0.0037
712.4141	-0.0092
712.5942	-0.0021
712.7744	0.0094
712.9545	-0.0059
713.1346	0.002
713.3147	0.0025
713.4947	0.0025
713.6748	0.0035
713.8548	-0.0053
714.0348	-0.0008
714.2148	0.0025
714.3948	0.003
714.5748	0.0072
714.7547	0.0009
714.9346	0.0054
715.1145	-0.001
715.2944	-0.0097
715.4743	0.0029
715.6541	-0.0062
715.834	0.0048
716.0138	-0
716.1936	-0.0073
716.3733	-0.0042
716.5531	0.0097
716.7328	-0.0025
716.9126	-0.0016
717.0923	0.0093
717.2719	0.0063
717.4516	-0
717.6312	0.0065
717.8109	0.0027
717.9905	0.0007
718.1701	-0.0011
718.3496	-0.0034
718.5292	0.0072
718.7087	-0.0009
718.8882	0.0056
719.0677	0.0066
719.2472	0.0016
719.4267	0.0038
719.6061	0.0001
719.7856	0.0091
719.965	-0.0008
720.1443	-0.0018
720.3237	0.0192
720.5031	0.0015
720.6824	0.0111
720.8617	0.0037
721.041	0.0006
721.2203	0.0069
721.3995	0.0056
721.5788	0.007
721.758	0.0042
721.9372	-0.0006
722.1164	0.0032
722.2956	0.003
722.4747	0.0039
722.6538	0.0125
722.8329	0.0152
723.012	0.0144
723.1911	0.0054
723.3702	0.0087
723.5492	0.0047
723.7282	0.0019
723.9072	0.0061
724.0862	0.0002
724.2652	0.0086
724.4441	0.004
724.623	0.0098
724.8019	0.0048
724.9808	0.0014
725.1597	-0.006
725.3385	-0.001
725.5174	0.0044
725.6962	-0.0005
725.875	-0.0013
726.0538	0.0093
726.2325	-0.0015
726.4112	-0.0019
726.59	-0.0054
726.7687	-0.0019
726.9474	0.0031
727.126	-0.0064
727.3047	-0.0047
727.4833	0.0028
727.6619	-0.0067
727.8405	-0.0046
728.0191	-0.0066
728.1976	0.005
728.3762	0.006
728.5547	0.0025
728.7332	-0.0049
728.9116	0.0099
729.0901	0.0034
729.2686	-0.0052
729.447	0.0027
729.6254	0.0052
729.8038	0
729.9821	-0.0092
730.1605	-0.001
730.3388	0.0009
730.5171	0.0014
730.6954	-0.0112
730.8737	0.0047
731.0519	-0.0006
731.2302	0.0022
731.4084	0.0113
731.5866	0.0039
731.7648	-0.0013
731.9429	0.0003
732.1211	-0.0008
732.2992	0.0063
732.4773	-0.0004
732.6554	0.0002
732.8335	0.0059
733.0115	0.0099
733.1896	0.0136
733.3676	0.0013
733.5456	0.0005
733.7235	0.0152
733.9015	0.0062
734.0794	0.0048
734.2574	0.0068
734.4353	-0.0007
734.6131	0.0141
734.791	0.0175
734.9689	0.0086
735.1467	0.0125
735.3245	0.0048
735.5023	0.0003
735.68	0.0116
735.8578	0.0103
736.0355	-0.0045
736.2132	0.0004
736.3909	-0.0019
736.5686	0.0019
736.7463	0.0063
736.9239	-0.0014
737.1015	-0.0039
737.2791	0.0021
737.4567	0.007
737.6343	0.0012
737.8118	0.0075
737.9894	0.0136
738.1669	-0.0065
738.3444	-0.001
738.5218	0.0063
738.6993	0.0066
738.8767	-0.0014
739.0541	0.015
739.2315	-0.0065
739.4089	0.0025
739.5863	0.0158
739.7636	-0.0088
739.9409	0.0069
740.1182	0.0049
740.2955	0.0052
740.4728	0.0047
740.65	0.0026
740.8272	-0.0021
741.0044	-0.0004
741.1816	0.0022
741.3588	0.0026
741.5359	0.0024
741.7131	-0.0088
741.8902	-0.0031
742.0673	0.0028
742.2444	0.0037
742.4214	-0.006
742.5985	0.0074
742.7755	-0.0002
742.9525	-0.008
743.1295	0.0002
743.3064	0.0053
743.4834	0.0045
743.6603	-0.0044
743.8372	-0.0043
744.0141	0.0052
744.191	-0.0021
744.3678	0.0005
744.5446	-0.0037
744.7215	0.0058
744.8982	0.005
745.075	0.0041
745.2518	-0.0034
745.4285	0.008
745.6052	0.0023
745.7819	-0.0054
745.9586	-0.0069
746.1353	0.0036
746.3119	-0.0078
746.4885	-0.0008
746.6651	-0.0041
746.8417	0.0013
747.0183	-0.0036
747.1948	0.0002
747.3714	0.0035
747.5479	0.001
747.7244	-0.0054
747.9008	0.0085
748.0773	0.0036
748.2537	0.0018
748.4301	-0.0085
748.6065	0.0071
748.7829	0.0049
748.9593	0.0087
749.1356	0.0045
749.3119	0.0066
749.4882	-0.0073
749.6645	0.0084
749.8408	-0.0022
750.017	-0.0046
750.1933	-0.0044
750.3695	-0.003
750.5457	0.0046
750.7218	-0.0001
750.898	0.0022
751.0741	-0.0009
751.2502	0.0005
751.4263	0.0037
751.6024	0.0059
751.7784	-0.0022
751.9545	-0.0039
752.1305	0.0055
752.3065	-0.0016
752.4825	0.008
752.6584	-0.0081
752.8344	0.0044
753.0103	0.0009
753.1862	0.0027
753.3621	-0.0002
753.5379	-0.0069
753.7138	0.0092
753.8896	-0.0013
754.0654	0.0083
754.2412	0.0133
754.417	0.0028
754.5927	-0.0053
754.7685	-0.0029
754.9442	0.0026
755.1199	0.0102
755.2956	0.0006
755.4712	0.013
755.6469	0.0051
755.8225	-0.0016
755.9981	0.0028
756.1736	0.0032
756.3492	-0.003
756.5248	-0.0006
756.7003	0.0003
756.8758	0.0016
757.0513	-0.0026
757.2267	-0.0086
757.4022	0.0008
757.5776	-0.0102
757.753	0.0095
757.9284	-0.0056
758.1038	0.0125
758.2791	0.0026
758.4545	-0.0038
758.6298	0.004
758.8051	0.0007
758.9803	-0.0023
759.1556	-0.0017
759.3308	-0.0013
759.506	0.0078
759.6812	0.002
759.8564	0.0108
760.0316	-0.0028
760.2067	0.008
760.3819	0.0116
760.557	0.0111
760.732	0.009
760.9071	-0.0118
761.0821	0.0043
761.2572	0.0047
761.4322	-0.0063
761.6072	0.0057
761.7821	0.0002
761.9571	0.0035
762.132	-0.0007
762.3069	-0.0077
762.4818	-0.0089
762.6567	-0.0014
762.8316	-0.0056
763.0064	0.0036
763.1812	-0.0002
763.356	-0.0021
763.5308	0.0006
763.7055	0.0017
763.8803	0.002
764.055	0.0026
764.2297	0.0009
764.4044	-0.0051
764.579	0.0003
764.7537	-0.0133
764.9283	0.006
765.1029	-0.0106
765.2775	-0.0002
765.4521	-0.0062
765.6266	0.0008
765.8011	-0.0018
765.9756	-0.003
766.1501	0.0048
766.3246	0.0132
766.4991	0.0004
766.6735	0.0012
766.8479	0.0048
767.0223	0.0198
767.1967	0.0015
767.371	0.0013
767.5454	0.0011
767.7197	0.0069
767.894	-0.0056
768.0683	-0.0052
768.2425	0.0095
768.4168	0.004
768.591	0.0055
768.7652	0.0089
768.9394	0.0038
769.1135	-0.0034
769.2877	0.0036
769.4618	0.0157
769.6359	-0.0043
769.81	0.0147
769.984	-0.0023
770.1581	-0.0156
770.3321	0.0012
770.5061	0.0053
770.6801	0.0019
770.8541	0.0091
771.028	0.0076
771.202	-0.0137
771.3759	0.0032
771.5498	0.0043
771.7236	0.0133
771.8975	0.0052
772.0713	0.0085
772.2451	-0.0046
772.4189	0.0114
772.5927	0.0078
772.7665	0.0053
772.9402	0.0048
773.1139	0.0102
773.2876	0.007
773.4613	0.0126
773.635	0.0104
773.8086	0.0002
773.9822	0.0091
774.1558	0.0112
774.3294	-0.0022
774.503	-0.0019
774.6765	0.0115
774.8501	0.0075
775.0236	0.0076
775.1971	0.0124
775.3705	-0.0019
775.544	0.0115
775.7174	0.0059
775.8908	0.0126
776.0642	0.0084
776.2376	0.0096
776.4109	0.0014
776.5843	0.0013
776.7576	0.0116
776.9309	0.0158
777.1041	0.0194
777.2774	0.0189
777.4506	0.0063
777.6238	-0.0007
777.797	0.0067
777.9702	0.0081
778.1434	-0.0048
778.3165	-0.0048
778.4896	0.0098
778.6627	0.0052
778.8358	-0.0015
779.0089	-0.0051
779.1819	0.0062
779.3549	0.009
779.5279	0.0259
779.7009	-0.0032
779.8739	0.005
780.0468	-0.0025
780.2197	0
780.3926	0.0015
780.5655	-0.0074
780.7384	-0.0072
780.9112	-0.0013
781.0841	-0.0087
781.2569	-0.0052
781.4297	0.0027
781.6024	0.0064
781.7752	0.0044
781.9479	0.0044
782.1206	-0.0033
782.2933	-0.0121
782.466	0.0058
782.6386	-0.0057
782.8113	0.0183
782.9839	0.0069
783.1565	0.0214
783.329	0.0175
783.5016	0.01
783.6741	0.0196
783.8466	0.0101
784.0191	0.0227
784.1916	0.01
784.3641	0.0131
784.5365	0.0071
784.7089	0.0131
784.8813	0.0106
785.0537	0.0065
785.2261	0.013
785.3984	-0.0104
785.5707	-0.0025
785.743	0.0099
785.9153	-0.0062
786.0876	0.012
786.2598	0.0093
786.432	-0.0031
786.6042	0.0106
786.7764	-0.0052
786.9486	0.0157
787.1207	-0.0125
787.2928	0.0181
787.4649	0.0122
787.637	0.0097
787.8091	0.0009
787.9811	0.0005
788.1532	0.0155
788.3252	0.0196
788.4972	-0.0089
788.6691	0.0122
788.8411	0.007
789.013	-0.0043
789.1849	0.0054
789.3568	0.0102
789.5287	0.0049
789.7005	0.0108
789.8723	0.005
790.0442	0.0221
790.2159	0.0074
790.3877	0.0174
790.5595	0.0015
790.7312	0.0114
790.9029	0.014
791.0746	0.0016
791.2463	0.0111
791.4179	0.0166
791.5896	-0.0096
791.7612	0.0066
791.9328	0.0071
792.1044	-0.0032
792.2759	-0.0157
792.4474	-0.0068
792.619	-0.003
792.7905	0.006
792.9619	0.0074
793.1334	0.0044
793.3048	0.021
793.4762	0.0025
793.6476	0.0063
793.819	-0.0075
793.9904	0.0211
794.1617	0.0039
794.333	-0.0004
794.5043	-0.0124
794.6756	0.0033
794.8469	0.016
795.0181	-0.005
795.1893	-0.0069
795.3605	0.0043
795.5317	-0.0018
795.7029	-0.0044
795.874	0.0111
796.0452	-0.0039
796.2163	0.0069
796.3873	0.0261
796.5584	0.0084
796.7294	0.0134
796.9005	0.0131
797.0715	0.014
797.2425	-0.0028
797.4134	-0.0005
797.5844	0.0281
797.7553	0.0117
797.9262	0.0102
798.0971	0.0087
798.2679	-0.0121
798.4388	-0.0032
798.6096	0.0035
798.7804	0.0097
798.9512	0.0236
799.122	0.0094
799.2927	0.0138
799.4635	0.02
799.6342	-0.0176
799.8049	-0.0009
799.9755	-0.0027
800.1462	0.0057
800.3168	0.001
800.4874	0.0035
800.658	0.0317
800.8286	0.0101
800.9991	0.0158
801.1696	0.0099
801.3402	0.0006
801.5106	0.0139
801.6811	0.0042
801.8516	0.0234
802.022	0.0223
802.1924	0.0015
802.3628	0.0164
802.5332	0.0244
802.7035	0.0203
802.8739	0.006
803.0442	0.0007
803.2145	0.0253
803.3847	-0.0147
803.555	0.0137
803.7252	0.0014
803.8954	-0.0201
804.0656	-0.0015
804.2358	0.0042
804.4059	0.02
804.5761	0.0003
804.7462	0.0029
804.9163	0.0022
805.0864	-0.0169
805.2564	0.0023
805.4264	0.0176
805.5965	-0.0004
805.7665	0.0061
805.9364	0.0102
806.1064	0.0303
806.2763	0.0028
806.4462	0.0118
806.6161	0.0097
806.786	0.0228
806.9559	-0.002
807.1257	0.0001
807.2955	0.008
807.4653	-0.0045
807.6351	-0.0133
807.8048	0.0136
807.9746	-0.0014
808.1443	0.0021
808.314	0.0125
808.4837	0.0127
808.6533	0.0175
808.8229	0.0288
808.9926	-0.0058
809.1622	0.0169
809.3317	0.0025
809.5013	-0.0149
809.6708	0.0277
809.8403	0.0118
810.0098	0.0016
810.1793	0.0147
810.3488	0.0115
810.5182	-0.0082
810.6876	0.011
810.857	0.0063
811.0264	0.0376
811.1958	0.0126
811.3651	0.0096
811.5344	0.0231
811.7037	0.0019
811.873	-0.0093
812.0422	-0.008
812.2115	0.0055
812.3807	-0.0162
812.5499	0.0224
812.7191	0.0182
812.8882	0.0035
813.0574	0.0001
813.2265	0.005
813.3956	0.0028
813.5646	0.017
813.7337	0.0001
813.9027	0.0257
814.0718	0.0313
814.2407	0.0235
814.4097	-0.0107
814.5787	-0.0008
814.7476	0.0189
814.9165	0.0085
815.0854	0.0182
815.2543	0.0147
815.4232	0.0167
815.592	0.0343
815.7608	0.0291
815.9296	0.0298
816.0984	0.0279
816.2671	0.0106
816.4359	0.0145
816.6046	0.0137
816.7733	0.0156
816.942	-0.0046
817.1106	0.0277
817.2793	0.0315
817.4479	0.001
817.6165	0.0237
817.785	0.0162
817.9536	0.0074
818.1221	0.004
818.2906	-0.0015
818.4591	0.013
818.6276	0.0062
818.7961	0.0121
818.9645	0.0095
819.1329	-0.0029
819.3013	0.0446
819.4697	0.0297
819.638	-0.0023
819.8064	0.0264
819.9747	0.0124
820.143	0.0044
820.3113	0.0023
820.4795	-0.0068
820.6477	0.0159
820.816	-0.0051
820.9842	0.0023
821.1523	-0.0109
821.3205	0.012
821.4886	-0.0078
821.6567	0.0297
821.8248	0.0192
821.9929	0.0155
822.1609	0.0084
822.329	0.0143
822.497	0.0314
822.665	0.0017
822.833	0.0009
823.0009	-0.0081
823.1688	0.0173
823.3367	0.0274
823.5046	0.0082
823.6725	0.0417
823.8404	-0.0199
824.0082	0.0259
824.176	0.0286
824.3438	0.0238
824.5116	-0.0057
824.6793	0.0105
824.847	-0.0003
825.0147	0.0031
825.1824	0.0383
825.3501	0.022
825.5177	0.0082
825.6854	-0.0164
825.853	0.0272
826.0206	-0.0091
826.1881	0.0146
826.3557	-0.0143
826.5232	0.0215
826.6907	-0.029
826.8582	0.0083
827.0257	0.0199
827.1931	0.0139
827.3605	-0.0097
827.528	0.0211
827.6953	0.0037
827.8627	-0.0013
828.03	0.0341
828.1974	0.0082
828.3647	-0.0317
828.532	-0.022
828.6992	0.0071
828.8665	-0.0004
829.0337	0.0219
829.2009	0.0409
829.3681	0.0058
829.5352	0.002
829.7024	-0.0141
829.8695	-0.0369
830.0366	0.0638
830.2037	-0.0144
830.3707	0.0157
830.5378	-0.0248
830.7048	0.0277
830.8718	-0.02
831.0388	-0.0084
831.2057	0.005
831.3727	0.0353
831.5396	-0.0021
831.7065	0.0373
831.8734	0.0469
832.0402	-0.0127
832.2071	-0.0066
832.3739	0.0099
832.5407	0.021
832.7075	-0.02
832.8742	-0.0185
833.041	-0.0263
833.2077	0.0144
833.3744	0.0269
833.541	0.0093
833.7077	0.0286
833.8743	-0.0146
834.0409	0.0247
834.2075	-0.0074
834.3741	0.0133
834.5407	-0.0246
834.7072	-0.0124
834.8737	-0.0385
835.0402	-0.0131
835.2067	0.0206
835.3731	0.0331
835.5395	0.0403
835.706	0.0248
835.8723	-0.0243
836.0387	0.0132
836.2051	0.0448
836.3714	-0.0315
836.5377	-0.0053
836.704	-0.0261
836.8703	0.0248
837.0365	0.0031
837.2027	0.0275
837.3689	0.0174
837.5351	-0.0131
837.7013	-0.0457
837.8674	-0.031
838.0335	0.0132
838.1997	-0.0416
838.3657	-0.0377
838.5318	0.0068
838.6978	0.0277
838.8639	0.0099
839.0299	0.0002
839.1958	-0.0114
839.3618	0.0304
839.5277	-0.0468
839.6937	-0.008
839.8596	0.003
840.0254	-0.0144
840.1913	0.04
840.3571	0.0311
840.523	0.0103
840.6888	-0.0063
840.8545	0.0159
841.0203	0.0292
841.186	-0.004
841.3517	0.0525
841.5174	0.0463
841.6831	-0.02
841.8488	0.002
842.0144	0.0067
842.18	-0.0231
842.3456	-0.0054
842.5112	-0.0225
842.6767	-0.0568
842.8422	-0.0216
843.0077	-0.0334
843.1732	-0.0213
843.3387	0.026
843.5042	-0.018
843.6696	-0.0243
843.835	0.0035
844.0004	0.1153
844.1657	0.0479
844.3311	-0.0556
844.4964	-0.0969
844.6617	-0.057
844.827	0.0109
844.9923	-0.002
845.1575	-0.0056
845.3227	0.044
845.4879	0.0094
845.6531	-0.062
845.8183	-0.0352
845.9834	-0.0132
846.1485	0.0284
846.3136	-0.0523
846.4787	-0.0326
846.6438	-0.0115
846.8088	-0.0299
846.9738	-0.0195
847.1388	-0.0094
847.3038	-0.0707
847.4687	-0.0459
847.6337	0.057
847.7986	0.0235
847.9635	-0.0921
848.1284	0.0315
848.2932	0.0874
848.458	0.0359
848.6228	0.0793
848.7876	0.0309
848.9524	-0.0098
849.1172	-0.0779
849.2819	-0.0214
849.4466	-0.1043
849.6113	-0.1201
849.7759	-0.0341
849.9406	-0.0559
850.1052	-0.0073
850.2698	-0.079
850.4344	-0.0317
850.599	-0.0213
850.7635	0.0003
850.928	-0.0432
851.0925	0.0386
851.257	0.093
851.4215	-0.013
851.5859	-0.0739
851.7503	0.016
851.9147	0.0364
852.0791	-0.0338
852.2434	0.0024
852.4078	-0.0175
852.5721	0.061
852.7364	-0.0194
852.9007	-0.1165
853.0649	-0.0407
853.2291	-0.0043
853.3934	-0.0413
853.5575	-0.0583
853.7217	-0.0587
853.8859	-0.186
854.05	-0.117
854.2141	-0.0799
854.3782	-0.0651
854.5423	0.0059
854.7063	0.1353
854.8703	0.0176
855.0343	-0.1289
855.1983	-0.1458
855.3623	0.1229
855.5262	0.0627
855.6901	-0.0254
855.854	0.0261
856.0179	0.086
856.1818	0.0037
856.3456	0.0589
856.5094	-0.0714
856.6732	-0.1601
856.837	-0.0571
857.0008	0.0547
857.1645	-0.0286
857.3282	-0.1305
857.4919	-0.033
857.6556	0.0051
857.8192	-0.0935
857.9828	-0.0451
858.1465	-0.0776
858.31	0.1647
858.4736	0.1632
858.6372	-0.0874
858.8007	-0.042
858.9642	0.0151
859.1277	0.0512
859.2911	-0.0125
859.4546	0.0788
859.618	-0.3925
859.7814	-0.0647
859.9448	0.0143
860.1081	-0.1495
860.2715	0.0672
860.4348	-0.1519
860.5981	0.1798
860.7614	0.2197
860.9246	-0.0281
861.0879	-0.2645
861.2511	-0.1311
861.4143	-0.2174
861.5774	0.0822
861.7406	-0.1107
861.9037	-0.055
862.0668	-0.0367
862.2299	-0.1233
862.393	-0.5212
862.556	0.0775
862.7191	-0.3485
862.8821	-0.1985
863.0451	-0.0553
863.208	-0.0754
863.371	0.0056
863.5339	-0.2566
863.6968	0.1825
863.8597	0.6831
864.0225	0.0796
864.1854	-0.186
864.3482	0.0279
864.511	0.0145
864.6737	-0.0927
864.8365	0.0019
864.9992	-0.0858
865.1619	-0.6943
865.3246	-0.2602
865.4873	-0.0755
865.65	-0.3693
865.8126	-0.0501
865.9752	0.4581
866.1378	-0.0941
866.3004	0.1945
866.4629	0.3063
866.6254	-0.2401
866.7879	0.0122
866.9504	-0
867.1129	-0
867.2753	0.3971
867.4377	0.3337
867.6001	-0.3915
867.7625	-0.0448
867.9249	-0.4844
868.0872	-0.1442
868.2495	0.0881
868.4118	0.1292
868.5741	0.1866
868.7363	0.019
868.8986	-0.3196
869.0608	-0.3496
869.223	0.1928
869.3851	-0
869.5473	-0
869.7094	0.2549
869.8715	-0.1917
870.0336	-0
870.1957	-0.9062
870.3577	-0
870.5197	-0.0471
870.6817	-0.2645
870.8437	-0.005
871.0057	-0
871.1676	0.1086
871.3295	0.7944
871.4914	-0
871.6533	-0.5124
871.8151	-0.6774
871.977	-0
872.1388	-0
872.3006	-0
872.4623	-0
872.6241	0.1537
872.7858	-0
872.9475	-0.2495
873.1092	-0.2216
873.2709	-0.2076
873.4325	0.0421
873.5941	-0.3486
873.7557	-0.124
873.9173	-0
874.0789	-0.2726
874.2404	-0
874.4019	0.3788
874.5634	-0.2061
874.7249	-0.218
874.8863	-0.3512
875.0478	0.5168
875.2092	-0
875.3706	-0.0785
875.5319	-0.8042
875.6933	-0
875.8546	-0.2727
876.0159	-0.3846
876.1772	-0
876.3385	-0
876.4997	0.7087
876.6609	-0.4801
876.8221	0.0765
876.9833	-0.09
877.1445	-0
877.3056	0.2742
877.4667	-0.2957
877.6278	-0
877.7889	-0.5137
877.9499	-0
878.111	0.0215
878.272	-0
878.433	-0
878.5939	-0
878.7549	0.4148
878.9158	-0.2832
879.0767	-0.0316
879.2376	-0
879.3984	1.0431
879.5593	-0
879.7201	-0.113
879.8809	-0.8052
880.0417	0.1428
880.2024	0.7741
880.3632	-0
880.5239	0.228
880.6846	0.2803
880.8452	-2.6753
881.0059	-0
881.1665	0.2102
881.3271	0.8012
881.4877	-0.5102
881.6483	-0.57
881.8088	-0.2296
881.9693	1.1099
882.1298	1.1099
882.2903	1.1099
