Data from MonoPyChalIsomerACN10uM360nmA_Absorbance_13-57-28-704.txt Node
Date: Fri Jul 05 13:57:28 BST 2024
User: LASERRRRR
Spectrometer: FLMT03099
Trigger mode: 0
Integration Time (sec): 1.000000E-1
Scans to average: 1
Electric dark correction enabled: true
Nonlinearity correction enabled: false
Boxcar width: 0
XAxis mode: Wavelengths
Number of Pixels in Spectrum: 3648
>>>>>Begin Spectral Data<<<<<
179.3399	-0.2378
179.5586	-0.2378
179.7771	-0.2378
179.9957	0.1389
180.2143	-0
180.4329	-0.0952
180.6514	0.5495
180.8699	-0
181.0885	0.6508
181.307	0.3116
181.5255	-0
181.744	-0.8436
181.9625	-0.2696
182.181	-0
182.3994	0.3307
182.6179	0.315
182.8363	0.3075
183.0547	-0.2283
183.2732	0.1292
183.4916	-0.0347
183.71	-0.016
183.9284	0.1068
184.1467	-0.1348
184.3651	0.1005
184.5835	0.0084
184.8018	0.346
185.0201	-0.0765
185.2385	-0.0923
185.4568	-0.0369
185.6751	0.0227
185.8934	0.2955
186.1117	0.0813
186.3299	-0.0006
186.5482	0.1791
186.7664	-0.2055
186.9847	-0.0797
187.2029	0.006
187.4211	0.0289
187.6393	0.0044
187.8575	0.0172
188.0757	0.2558
188.2939	0.1369
188.512	0.0969
188.7302	-0.1181
188.9483	-0.0713
189.1665	0.0871
189.3846	-0.0146
189.6027	0.2925
189.8208	0.4296
190.0389	0.1232
190.257	0.1182
190.475	0.0864
190.6931	0.3543
190.9111	0.7399
191.1292	0.0613
191.3472	0.3243
191.5652	0.2766
191.7832	0.0559
192.0012	0.7221
192.2192	0.3397
192.4371	0.5157
192.6551	0.2878
192.873	0.2988
193.091	0.4329
193.3089	0.9589
193.5268	0.5416
193.7447	0.5625
193.9626	0.4873
194.1805	0.6033
194.3984	0.811
194.6162	0.63
194.8341	0.4207
195.0519	0.5485
195.2697	0.737
195.4875	0.6066
195.7054	0.4161
195.9231	0.6622
196.1409	0.6232
196.3587	0.5148
196.5765	0.4986
196.7942	0.5813
197.012	0.5519
197.2297	0.6654
197.4474	0.8239
197.6651	0.5772
197.8828	0.6713
198.1005	0.7295
198.3182	0.6244
198.5358	0.665
198.7535	0.5329
198.9711	0.5465
199.1888	0.6986
199.4064	0.7302
199.624	0.6409
199.8416	0.7258
200.0592	0.7557
200.2767	0.5972
200.4943	0.5824
200.7119	0.7926
200.9294	0.7974
201.1469	0.5873
201.3645	0.5844
201.582	0.6232
201.7995	0.7079
202.017	0.5255
202.2344	0.5619
202.4519	0.7073
202.6694	0.7486
202.8868	0.5739
203.1042	0.7919
203.3217	0.7567
203.5391	0.6517
203.7565	0.5663
203.9739	0.6716
204.1913	0.5982
204.4086	0.6516
204.626	0.7433
204.8433	0.6933
205.0607	0.6437
205.278	0.7027
205.4953	0.6902
205.7126	0.6311
205.9299	0.7185
206.1472	0.6356
206.3644	0.618
206.5817	0.6737
206.7989	0.6224
207.0162	0.7046
207.2334	0.6462
207.4506	0.5797
207.6678	0.7265
207.885	0.613
208.1022	0.5807
208.3194	0.6343
208.5365	0.6188
208.7537	0.6244
208.9708	0.5364
209.1879	0.6576
209.405	0.6537
209.6222	0.6896
209.8392	0.6328
210.0563	0.6242
210.2734	0.6654
210.4905	0.6344
210.7075	0.6486
210.9245	0.5527
211.1416	0.7329
211.3586	0.5723
211.5756	0.6101
211.7926	0.5533
212.0096	0.6026
212.2265	0.6065
212.4435	0.5979
212.6604	0.569
212.8774	0.5685
213.0943	0.5866
213.3112	0.5382
213.5281	0.5133
213.745	0.4948
213.9619	0.5506
214.1788	0.4548
214.3956	0.4915
214.6125	0.4689
214.8293	0.4362
215.0461	0.452
215.2629	0.4411
215.4798	0.4626
215.6965	0.4306
215.9133	0.4517
216.1301	0.4324
216.3469	0.4469
216.5636	0.4082
216.7803	0.3558
216.9971	0.3875
217.2138	0.3879
217.4305	0.352
217.6472	0.3606
217.8639	0.3839
218.0805	0.3628
218.2972	0.3307
218.5138	0.3392
218.7305	0.3412
218.9471	0.3259
219.1637	0.2775
219.3803	0.276
219.5969	0.2719
219.8135	0.2743
220.0301	0.3049
220.2466	0.2927
220.4632	0.2622
220.6797	0.2412
220.8962	0.2346
221.1127	0.2644
221.3292	0.2543
221.5457	0.2318
221.7622	0.2422
221.9787	0.2728
222.1951	0.2348
222.4116	0.2568
222.628	0.2642
222.8444	0.2616
223.0608	0.2534
223.2772	0.281
223.4936	0.2619
223.71	0.2625
223.9264	0.2815
224.1427	0.2478
224.3591	0.2447
224.5754	0.2517
224.7917	0.2597
225.008	0.2648
225.2243	0.2701
225.4406	0.2767
225.6569	0.2653
225.8732	0.2694
226.0894	0.261
226.3057	0.2694
226.5219	0.2962
226.7381	0.2908
226.9543	0.2751
227.1705	0.3134
227.3867	0.3103
227.6029	0.2793
227.8191	0.3
228.0352	0.2812
228.2513	0.3138
228.4675	0.3149
228.6836	0.3182
228.8997	0.2932
229.1158	0.3224
229.3319	0.308
229.548	0.314
229.764	0.3261
229.9801	0.3095
230.1961	0.3207
230.4121	0.3288
230.6282	0.3307
230.8442	0.3248
231.0602	0.3671
231.2761	0.3427
231.4921	0.3462
231.7081	0.3534
231.924	0.3498
232.14	0.3616
232.3559	0.3547
232.5718	0.3579
232.7877	0.3806
233.0036	0.3482
233.2195	0.3401
233.4353	0.3702
233.6512	0.3664
233.867	0.3644
234.0829	0.3645
234.2987	0.3668
234.5145	0.3634
234.7303	0.375
234.9461	0.3925
235.1619	0.3728
235.3776	0.3798
235.5934	0.3801
235.8091	0.3618
236.0249	0.3893
236.2406	0.3876
236.4563	0.3905
236.672	0.3846
236.8877	0.4016
237.1034	0.3909
237.319	0.3849
237.5347	0.3913
237.7503	0.4217
237.966	0.3933
238.1816	0.4076
238.3972	0.4146
238.6128	0.3931
238.8284	0.4094
239.0439	0.419
239.2595	0.3988
239.475	0.4094
239.6906	0.4058
239.9061	0.4209
240.1216	0.4108
240.3371	0.403
240.5526	0.4065
240.7681	0.4191
240.9836	0.3976
241.199	0.4103
241.4145	0.3828
241.6299	0.3827
241.8453	0.3625
242.0607	0.3995
242.2761	0.3786
242.4915	0.3715
242.7069	0.365
242.9223	0.3648
243.1376	0.3599
243.353	0.3559
243.5683	0.3454
243.7836	0.3367
243.9989	0.3302
244.2142	0.3123
244.4295	0.323
244.6448	0.3227
244.86	0.2962
245.0753	0.2922
245.2905	0.2924
245.5057	0.2879
245.721	0.2837
245.9362	0.2677
246.1514	0.2738
246.3665	0.2556
246.5817	0.2725
246.7969	0.2582
247.012	0.2497
247.2271	0.245
247.4423	0.2518
247.6574	0.2335
247.8725	0.2262
248.0876	0.2345
248.3026	0.222
248.5177	0.2213
248.7328	0.2156
248.9478	0.2112
249.1628	0.2147
249.3779	0.2041
249.5929	0.201
249.8079	0.213
250.0228	0.2104
250.2378	0.2011
250.4528	0.2042
250.6677	0.1807
250.8827	0.1958
251.0976	0.1935
251.3125	0.191
251.5274	0.1822
251.7423	0.1826
251.9572	0.1872
252.172	0.1769
252.3869	0.1839
252.6017	0.1794
252.8166	0.175
253.0314	0.1736
253.2462	0.1638
253.461	0.1845
253.6758	0.1694
253.8906	0.1771
254.1053	0.1639
254.3201	0.1651
254.5348	0.1774
254.7496	0.1882
254.9643	0.1715
255.179	0.1725
255.3937	0.1639
255.6083	0.1677
255.823	0.1712
256.0377	0.1699
256.2523	0.167
256.467	0.1509
256.6816	0.1822
256.8962	0.1698
257.1108	0.1693
257.3254	0.1776
257.54	0.1582
257.7545	0.1679
257.9691	0.1659
258.1836	0.1564
258.3981	0.1787
258.6127	0.172
258.8272	0.1675
259.0417	0.1612
259.2561	0.1736
259.4706	0.1623
259.6851	0.1673
259.8995	0.168
260.114	0.1796
260.3284	0.1736
260.5428	0.167
260.7572	0.1664
260.9716	0.1629
261.186	0.1604
261.4003	0.1648
261.6147	0.1657
261.829	0.1613
262.0433	0.164
262.2577	0.1608
262.472	0.1697
262.6863	0.1546
262.9005	0.167
263.1148	0.179
263.3291	0.1449
263.5433	0.1703
263.7576	0.1642
263.9718	0.1611
264.186	0.1568
264.4002	0.1693
264.6144	0.1573
264.8286	0.1728
265.0427	0.157
265.2569	0.1664
265.471	0.1451
265.6851	0.1675
265.8993	0.1523
266.1134	0.151
266.3275	0.1668
266.5415	0.1493
266.7556	0.1692
266.9697	0.1642
267.1837	0.1649
267.3978	0.1505
267.6118	0.1745
267.8258	0.1759
268.0398	0.1584
268.2538	0.1673
268.4677	0.1735
268.6817	0.1484
268.8957	0.1676
269.1096	0.1551
269.3235	0.1651
269.5374	0.1529
269.7514	0.1554
269.9652	0.1448
270.1791	0.142
270.393	0.1365
270.6068	0.1589
270.8207	0.1465
271.0345	0.1453
271.2483	0.1489
271.4622	0.1553
271.676	0.1487
271.8897	0.1344
272.1035	0.1431
272.3173	0.141
272.531	0.1496
272.7448	0.1477
272.9585	0.1437
273.1722	0.1549
273.3859	0.1507
273.5996	0.13
273.8133	0.1536
274.0269	0.1388
274.2406	0.1482
274.4542	0.1445
274.6679	0.1442
274.8815	0.1438
275.0951	0.1563
275.3087	0.1461
275.5223	0.1511
275.7358	0.1514
275.9494	0.1574
276.1629	0.1363
276.3765	0.1345
276.59	0.1557
276.8035	0.1463
277.017	0.1518
277.2305	0.1312
277.444	0.1527
277.6574	0.1405
277.8709	0.1526
278.0843	0.1351
278.2978	0.1464
278.5112	0.1393
278.7246	0.1484
278.938	0.1623
279.1513	0.1471
279.3647	0.1651
279.5781	0.1534
279.7914	0.1514
280.0047	0.1508
280.2181	0.1636
280.4314	0.1516
280.6447	0.1425
280.8579	0.15
281.0712	0.1542
281.2845	0.1572
281.4977	0.1528
281.711	0.1558
281.9242	0.1451
282.1374	0.1608
282.3506	0.1545
282.5638	0.1688
282.7769	0.1459
282.9901	0.1549
283.2033	0.1606
283.4164	0.1622
283.6295	0.1509
283.8426	0.1605
284.0557	0.1517
284.2688	0.1637
284.4819	0.1728
284.695	0.1515
284.908	0.1653
285.1211	0.1477
285.3341	0.1675
285.5471	0.171
285.7601	0.1495
285.9731	0.1649
286.1861	0.1517
286.3991	0.1773
286.612	0.1679
286.825	0.1686
287.0379	0.1629
287.2508	0.1573
287.4637	0.1556
287.6766	0.1537
287.8895	0.1633
288.1024	0.1831
288.3152	0.1738
288.5281	0.1562
288.7409	0.1666
288.9538	0.1663
289.1666	0.1606
289.3794	0.1624
289.5922	0.1583
289.8049	0.1602
290.0177	0.1507
290.2304	0.1673
290.4432	0.1684
290.6559	0.1621
290.8686	0.1581
291.0813	0.1582
291.294	0.1607
291.5067	0.1727
291.7194	0.1742
291.932	0.1779
292.1447	0.169
292.3573	0.1539
292.5699	0.1658
292.7825	0.1646
292.9951	0.1563
293.2077	0.1522
293.4203	0.163
293.6328	0.1482
293.8454	0.1687
294.0579	0.1669
294.2704	0.1593
294.4829	0.1487
294.6954	0.1632
294.9079	0.1667
295.1204	0.1711
295.3328	0.1556
295.5453	0.1541
295.7577	0.1676
295.9701	0.1591
296.1825	0.1665
296.3949	0.1567
296.6073	0.1592
296.8197	0.1557
297.0321	0.1721
297.2444	0.1582
297.4567	0.1575
297.6691	0.1666
297.8814	0.1614
298.0937	0.1601
298.306	0.1635
298.5182	0.1671
298.7305	0.1669
298.9428	0.1518
299.155	0.1646
299.3672	0.1699
299.5794	0.148
299.7916	0.1578
300.0038	0.1675
300.216	0.164
300.4282	0.1601
300.6403	0.1572
300.8525	0.1627
301.0646	0.161
301.2767	0.1664
301.4888	0.1566
301.7009	0.161
301.913	0.158
302.125	0.1716
302.3371	0.1522
302.5491	0.1668
302.7612	0.1636
302.9732	0.1622
303.1852	0.1713
303.3972	0.1589
303.6092	0.1564
303.8211	0.1413
304.0331	0.1463
304.245	0.16
304.457	0.1433
304.6689	0.1524
304.8808	0.1683
305.0927	0.1471
305.3046	0.1524
305.5164	0.1565
305.7283	0.1476
305.9401	0.1471
306.152	0.159
306.3638	0.1587
306.5756	0.1483
306.7874	0.1464
306.9992	0.1397
307.2109	0.1397
307.4227	0.1304
307.6344	0.1414
307.8462	0.133
308.0579	0.1325
308.2696	0.1369
308.4813	0.1278
308.693	0.1311
308.9046	0.1346
309.1163	0.1268
309.328	0.1314
309.5396	0.1283
309.7512	0.1214
309.9628	0.1222
310.1744	0.1293
310.386	0.1238
310.5976	0.1256
310.8091	0.1227
311.0207	0.1148
311.2322	0.1199
311.4437	0.1099
311.6552	0.1165
311.8667	0.111
312.0782	0.1022
312.2897	0.099
312.5012	0.0978
312.7126	0.1028
312.924	0.1029
313.1355	0.1188
313.3469	0.109
313.5583	0.1064
313.7696	0.1033
313.981	0.106
314.1924	0.1006
314.4037	0.1061
314.6151	0.1044
314.8264	0.1025
315.0377	0.1011
315.249	0.1081
315.4603	0.1053
315.6716	0.1031
315.8828	0.0956
316.0941	0.101
316.3053	0.0988
316.5165	0.0982
316.7277	0.1019
316.9389	0.1
317.1501	0.0996
317.3613	0.1105
317.5724	0.0924
317.7836	0.106
317.9947	0.1017
318.2058	0.0971
318.417	0.087
318.6281	0.0837
318.8391	0.0959
319.0502	0.0993
319.2613	0.102
319.4723	0.0981
319.6834	0.0916
319.8944	0.0835
320.1054	0.1074
320.3164	0.1046
320.5274	0.0878
320.7383	0.0968
320.9493	0.0952
321.1602	0.1097
321.3712	0.0861
321.5821	0.1095
321.793	0.1034
322.0039	0.099
322.2148	0.1017
322.4257	0.1007
322.6365	0.1155
322.8474	0.1084
323.0582	0.0883
323.269	0.1097
323.4798	0.1057
323.6906	0.0996
323.9014	0.1009
324.1122	0.1045
324.3229	0.1046
324.5337	0.111
324.7444	0.0974
324.9551	0.1164
325.1658	0.1092
325.3765	0.1084
325.5872	0.1091
325.7979	0.0956
326.0085	0.0903
326.2192	0.1035
326.4298	0.1105
326.6404	0.084
326.851	0.0931
327.0616	0.1019
327.2722	0.1093
327.4828	0.1122
327.6933	0.1098
327.9039	0.1094
328.1144	0.1155
328.3249	0.1058
328.5354	0.1063
328.7459	0.1056
328.9564	0.1012
329.1669	0.1059
329.3773	0.1143
329.5878	0.1108
329.7982	0.1148
330.0086	0.1153
330.219	0.106
330.4294	0.1053
330.6398	0.1064
330.8502	0.0955
331.0605	0.1218
331.2708	0.1103
331.4812	0.1082
331.6915	0.1065
331.9018	0.1045
332.1121	0.1018
332.3224	0.1013
332.5326	0.1143
332.7429	0.1065
332.9531	0.1207
333.1633	0.1143
333.3735	0.1064
333.5837	0.1055
333.7939	0.1086
334.0041	0.1159
334.2143	0.1192
334.4244	0.1117
334.6346	0.0958
334.8447	0.1237
335.0548	0.1061
335.2649	0.1124
335.475	0.1197
335.685	0.1036
335.8951	0.1207
336.1051	0.1132
336.3152	0.1072
336.5252	0.1087
336.7352	0.1069
336.9452	0.1195
337.1552	0.1172
337.3652	0.1151
337.5751	0.1074
337.7851	0.1161
337.995	0.1096
338.2049	0.1181
338.4148	0.1024
338.6247	0.1195
338.8346	0.1161
339.0445	0.1011
339.2543	0.125
339.4642	0.1141
339.674	0.1155
339.8838	0.1054
340.0936	0.1111
340.3034	0.1143
340.5132	0.1163
340.7229	0.1264
340.9327	0.1124
341.1424	0.1176
341.3522	0.1284
341.5619	0.1297
341.7716	0.1196
341.9813	0.1205
342.1909	0.1179
342.4006	0.1277
342.6102	0.1345
342.8199	0.1242
343.0295	0.1332
343.2391	0.1197
343.4487	0.1245
343.6583	0.126
343.8679	0.1307
344.0774	0.1366
344.287	0.1342
344.4965	0.1223
344.706	0.1312
344.9155	0.1256
345.125	0.129
345.3345	0.1238
345.544	0.1181
345.7534	0.121
345.9629	0.1409
346.1723	0.1364
346.3817	0.1359
346.5911	0.1331
346.8005	0.1422
347.0099	0.1278
347.2193	0.1406
347.4286	0.1294
347.638	0.1483
347.8473	0.131
348.0566	0.1275
348.2659	0.1456
348.4752	0.1523
348.6845	0.1356
348.8937	0.1321
349.103	0.1478
349.3122	0.135
349.5214	0.1302
349.7306	0.1334
349.9398	0.1382
350.149	0.1434
350.3582	0.1296
350.5674	0.1596
350.7765	0.1454
350.9856	0.1327
351.1948	0.1452
351.4039	0.1329
351.613	0.1451
351.822	0.1479
352.0311	0.153
352.2402	0.1544
352.4492	0.1395
352.6582	0.1583
352.8672	0.1408
353.0762	0.1491
353.2852	0.1412
353.4942	0.1405
353.7032	0.1594
353.9121	0.151
354.1211	0.1643
354.33	0.1503
354.5389	0.159
354.7478	0.1389
354.9567	0.1532
355.1655	0.1427
355.3744	0.1503
355.5833	0.1653
355.7921	0.1602
356.0009	0.1523
356.2097	0.1667
356.4185	0.1603
356.6273	0.1532
356.8361	0.1554
357.0448	0.1511
357.2536	0.1551
357.4623	0.1489
357.671	0.1581
357.8797	0.1767
358.0884	0.1532
358.2971	0.162
358.5057	0.1643
358.7144	0.1775
358.923	0.1621
359.1316	0.1603
359.3402	0.1708
359.5488	0.1634
359.7574	0.1518
359.966	0.1739
360.1746	0.1814
360.3831	0.1762
360.5916	0.1573
360.8002	0.1611
361.0087	0.1951
361.2172	0.1751
361.4256	0.1673
361.6341	0.1881
361.8426	0.1761
362.051	0.1837
362.2594	0.1937
362.4678	0.1716
362.6762	0.2024
362.8846	0.1867
363.093	0.1802
363.3014	0.1738
363.5097	0.164
363.718	0.1818
363.9264	0.1741
364.1347	0.1746
364.343	0.203
364.5513	0.2041
364.7595	0.2039
364.9678	0.1953
365.176	0.1969
365.3842	0.1838
365.5925	0.1951
365.8007	0.1794
366.0089	0.2081
366.217	0.1917
366.4252	0.2003
366.6333	0.2091
366.8415	0.2084
367.0496	0.1943
367.2577	0.2105
367.4658	0.2059
367.6739	0.2097
367.882	0.2301
368.09	0.1899
368.2981	0.2036
368.5061	0.1844
368.7141	0.2031
368.9221	0.2038
369.1301	0.2083
369.3381	0.218
369.5461	0.2088
369.754	0.2071
369.962	0.2199
370.1699	0.1986
370.3778	0.2277
370.5857	0.1942
370.7936	0.2077
371.0015	0.2128
371.2093	0.2165
371.4172	0.24
371.625	0.203
371.8328	0.2081
372.0406	0.2105
372.2484	0.205
372.4562	0.2151
372.664	0.2283
372.8717	0.2414
373.0795	0.2047
373.2872	0.2204
373.4949	0.2132
373.7026	0.2292
373.9103	0.2268
374.118	0.2368
374.3256	0.2251
374.5333	0.2412
374.7409	0.2289
374.9485	0.2401
375.1561	0.2268
375.3637	0.2339
375.5713	0.2303
375.7789	0.2221
375.9864	0.2293
376.194	0.2237
376.4015	0.2425
376.609	0.2311
376.8165	0.2384
377.024	0.228
377.2315	0.223
377.4389	0.2383
377.6464	0.2409
377.8538	0.2413
378.0612	0.2449
378.2686	0.2342
378.476	0.2404
378.6834	0.2505
378.8908	0.2507
379.0981	0.2377
379.3055	0.2546
379.5128	0.2409
379.7201	0.242
379.9274	0.2264
380.1347	0.239
380.342	0.252
380.5492	0.2358
380.7565	0.2371
380.9637	0.2448
381.1709	0.2502
381.3781	0.2487
381.5853	0.2501
381.7925	0.2404
381.9997	0.2533
382.2068	0.2671
382.4139	0.2527
382.6211	0.2305
382.8282	0.2521
383.0353	0.2406
383.2424	0.247
383.4494	0.2585
383.6565	0.2489
383.8635	0.2417
384.0706	0.2517
384.2776	0.2485
384.4846	0.2334
384.6916	0.2434
384.8986	0.2471
385.1055	0.2513
385.3125	0.2359
385.5194	0.225
385.7263	0.2473
385.9333	0.2547
386.1402	0.2476
386.347	0.2547
386.5539	0.248
386.7608	0.2567
386.9676	0.2386
387.1744	0.2496
387.3813	0.2329
387.5881	0.2556
387.7948	0.2334
388.0016	0.2425
388.2084	0.2478
388.4151	0.2396
388.6219	0.2619
388.8286	0.2481
389.0353	0.2469
389.242	0.2505
389.4487	0.2301
389.6553	0.2402
389.862	0.2315
390.0686	0.2312
390.2753	0.2633
390.4819	0.2322
390.6885	0.2358
390.8951	0.2322
391.1016	0.2402
391.3082	0.2271
391.5147	0.2364
391.7213	0.2286
391.9278	0.236
392.1343	0.2351
392.3408	0.2279
392.5473	0.2296
392.7537	0.2119
392.9602	0.2135
393.1666	0.2228
393.373	0.2155
393.5794	0.2322
393.7858	0.2298
393.9922	0.2103
394.1986	0.2258
394.4049	0.219
394.6113	0.2061
394.8176	0.199
395.0239	0.2106
395.2302	0.2183
395.4365	0.2106
395.6428	0.2346
395.8491	0.2108
396.0553	0.2302
396.2615	0.2173
396.4678	0.2294
396.674	0.2105
396.8802	0.2031
397.0863	0.2147
397.2925	0.2088
397.4987	0.2065
397.7048	0.2049
397.9109	0.2126
398.117	0.2151
398.3231	0.1986
398.5292	0.231
398.7353	0.2167
398.9413	0.1933
399.1474	0.2099
399.3534	0.225
399.5594	0.2033
399.7654	0.2188
399.9714	0.227
400.1774	0.2024
400.3833	0.1976
400.5893	0.2128
400.7952	0.2003
401.0011	0.2208
401.207	0.2096
401.4129	0.1997
401.6188	0.2137
401.8247	0.2129
402.0305	0.2108
402.2364	0.2014
402.4422	0.2185
402.648	0.2129
402.8538	0.2248
403.0596	0.2138
403.2654	0.219
403.4711	0.1809
403.6768	0.2229
403.8826	0.2245
404.0883	0.2142
404.294	0.2226
404.4997	0.1964
404.7054	0.1993
404.911	0.2012
405.1167	0.2006
405.3223	0.2173
405.5279	0.2136
405.7335	0.2114
405.9391	0.2151
406.1447	0.1967
406.3502	0.2144
406.5558	0.208
406.7613	0.2213
406.9668	0.2109
407.1724	0.2046
407.3778	0.1938
407.5833	0.1909
407.7888	0.2053
407.9942	0.2022
408.1997	0.2256
408.4051	0.2047
408.6105	0.2027
408.8159	0.1999
409.0213	0.2166
409.2267	0.2154
409.432	0.1877
409.6374	0.2023
409.8427	0.196
410.048	0.2083
410.2533	0.1923
410.4586	0.2159
410.6639	0.1819
410.8691	0.1941
411.0744	0.1993
411.2796	0.1943
411.4848	0.2103
411.69	0.1946
411.8952	0.21
412.1004	0.1953
412.3056	0.2062
412.5107	0.1948
412.7158	0.2089
412.921	0.2069
413.1261	0.1999
413.3312	0.1896
413.5362	0.19
413.7413	0.1838
413.9464	0.1938
414.1514	0.1911
414.3564	0.2054
414.5614	0.1923
414.7664	0.2166
414.9714	0.2038
415.1764	0.1878
415.3813	0.2034
415.5863	0.2166
415.7912	0.2073
415.9961	0.191
416.201	0.2012
416.4059	0.2197
416.6108	0.1883
416.8156	0.203
417.0205	0.2063
417.2253	0.1774
417.4301	0.1997
417.6349	0.1805
417.8397	0.1844
418.0445	0.1996
418.2492	0.2041
418.454	0.1849
418.6587	0.185
418.8634	0.2075
419.0681	0.1855
419.2728	0.1892
419.4775	0.1862
419.6822	0.1848
419.8868	0.1713
420.0915	0.1867
420.2961	0.1783
420.5007	0.1731
420.7053	0.2024
420.9099	0.1851
421.1144	0.1859
421.319	0.2007
421.5235	0.1854
421.728	0.1867
421.9325	0.1894
422.137	0.1994
422.3415	0.1833
422.546	0.1846
422.7504	0.1727
422.9549	0.1819
423.1593	0.1862
423.3637	0.187
423.5681	0.1826
423.7725	0.1668
423.9769	0.1577
424.1812	0.1655
424.3856	0.1627
424.5899	0.184
424.7942	0.1625
424.9985	0.1629
425.2028	0.1746
425.4071	0.1928
425.6113	0.1534
425.8156	0.1566
426.0198	0.1728
426.224	0.164
426.4282	0.1524
426.6324	0.1596
426.8366	0.1614
427.0407	0.1527
427.2449	0.162
427.449	0.1671
427.6531	0.146
427.8572	0.1705
428.0613	0.1532
428.2654	0.1607
428.4694	0.1686
428.6735	0.1399
428.8775	0.1689
429.0815	0.1554
429.2855	0.1227
429.4895	0.1617
429.6935	0.1319
429.8975	0.1571
430.1014	0.1416
430.3053	0.1271
430.5093	0.1365
430.7132	0.1215
430.9171	0.1316
431.1209	0.1327
431.3248	0.1442
431.5286	0.1412
431.7325	0.1433
431.9363	0.1258
432.1401	0.1355
432.3439	0.1216
432.5477	0.113
432.7514	0.1232
432.9552	0.1413
433.1589	0.1032
433.3627	0.1107
433.5664	0.1126
433.7701	0.1146
433.9737	0.1149
434.1774	0.1054
434.3811	0.1174
434.5847	0.1237
434.7883	0.114
434.9919	0.101
435.1955	0.1131
435.3991	0.0915
435.6027	0.1121
435.8062	0.0968
436.0098	0.1005
436.2133	0.1003
436.4168	0.092
436.6203	0.1049
436.8238	0.0986
437.0272	0.098
437.2307	0.0892
437.4341	0.0965
437.6375	0.092
437.841	0.0786
438.0443	0.098
438.2477	0.0886
438.4511	0.0839
438.6545	0.0791
438.8578	0.0867
439.0611	0.0929
439.2644	0.0878
439.4677	0.0808
439.671	0.0639
439.8743	0.0937
440.0775	0.0833
440.2808	0.0699
440.484	0.0617
440.6872	0.0648
440.8904	0.064
441.0936	0.0664
441.2967	0.0865
441.4999	0.0686
441.703	0.0658
441.9062	0.0553
442.1093	0.0637
442.3124	0.0715
442.5155	0.0529
442.7185	0.054
442.9216	0.043
443.1246	0.0749
443.3276	0.0523
443.5307	0.0632
443.7337	0.061
443.9366	0.0584
444.1396	0.0705
444.3426	0.0415
444.5455	0.0506
444.7484	0.0559
444.9513	0.0498
445.1542	0.0625
445.3571	0.0492
445.56	0.0516
445.7628	0.0423
445.9657	0.0446
446.1685	0.04
446.3713	0.0466
446.5741	0.0434
446.7769	0.0299
446.9797	0.0413
447.1824	0.0448
447.3852	0.0409
447.5879	0.0482
447.7906	0.0522
447.9933	0.0293
448.196	0.0317
448.3986	0.0326
448.6013	0.0317
448.8039	0.0253
449.0066	0.0184
449.2092	0.0441
449.4118	0.0378
449.6143	0.0363
449.8169	0.0329
450.0195	0.0307
450.222	0.0091
450.4245	0.0258
450.627	0.0334
450.8295	0.0203
451.032	0.0293
451.2345	0.0134
451.4369	0.0336
451.6394	0.0295
451.8418	0.0232
452.0442	0.0257
452.2466	0.0236
452.449	0.014
452.6513	0.0156
452.8537	0.011
453.056	0.0186
453.2583	0.0171
453.4607	0.0135
453.663	0.0229
453.8652	0.0383
454.0675	0.0106
454.2697	0.0197
454.472	0.003
454.6742	0.0254
454.8764	0.0122
455.0786	0.0178
455.2808	0.0089
455.4829	0.0119
455.6851	0.0287
455.8872	0.0212
456.0893	0.0167
456.2915	-0.0007
456.4935	0.0306
456.6956	-0.0002
456.8977	0.0069
457.0997	0.0058
457.3018	-0.0135
457.5038	0.0188
457.7058	0.0019
457.9078	-0.0014
458.1098	0.0212
458.3117	0.0072
458.5137	0.0126
458.7156	0.0062
458.9175	-0.0098
459.1194	0.0125
459.3213	0.0094
459.5232	0.01
459.725	-0.002
459.9269	0.0066
460.1287	-0.0086
460.3305	0.0012
460.5323	0.0207
460.7341	0.0166
460.9359	0.0129
461.1376	-0.0037
461.3394	-0.0015
461.5411	0.0032
461.7428	0.0058
461.9445	0.0117
462.1462	0.0201
462.3479	0.0071
462.5495	0.0063
462.7512	-0.0095
462.9528	0.0051
463.1544	0.0038
463.356	-0.0082
463.5576	0.0015
463.7592	-0.0019
463.9607	0.0074
464.1623	0.0213
464.3638	0.0203
464.5653	-0.0049
464.7668	0.0041
464.9683	0.0103
465.1697	0.0179
465.3712	-0.0096
465.5726	-0.0074
465.7741	0.002
465.9755	-0.0039
466.1769	0.0173
466.3782	0.0036
466.5796	-0.0121
466.7809	0.0183
466.9823	-0.0148
467.1836	-0.0071
467.3849	-0.0059
467.5862	0.0014
467.7875	-0.0049
467.9887	0.0136
468.19	-0.0083
468.3912	-0.0061
468.5924	-0.0072
468.7936	0.0057
468.9948	-0.0021
469.196	0.004
469.3972	-0.0018
469.5983	0.005
469.7994	-0.0127
470.0006	0.0053
470.2017	-0.014
470.4027	-0.0076
470.6038	0.0117
470.8049	-0.0198
471.0059	-0.0048
471.2069	-0.0263
471.408	0.0135
471.6089	-0.0124
471.8099	-0.0058
472.0109	-0.0053
472.2119	-0.0148
472.4128	-0.0228
472.6137	0.0076
472.8146	-0.007
473.0155	-0.0044
473.2164	0.0057
473.4173	-0.0019
473.6181	0.0069
473.819	0.0055
474.0198	-0.0128
474.2206	-0.0012
474.4214	0.0004
474.6222	-0.0014
474.8229	-0.009
475.0237	-0.0148
475.2244	-0.0141
475.4251	-0.009
475.6258	-0.0051
475.8265	-0.0066
476.0272	0.0111
476.2278	-0.0022
476.4285	0.0074
476.6291	-0.0097
476.8297	-0.0022
477.0303	-0.0079
477.2309	-0.0019
477.4315	-0.0051
477.632	0.0037
477.8326	-0.0116
478.0331	0.0017
478.2336	-0.0058
478.4341	-0.0055
478.6346	-0
478.8351	0.004
479.0355	-0.0015
479.236	-0.0111
479.4364	-0.0067
479.6368	0.0026
479.8372	-0.0106
480.0376	-0.0031
480.2379	-0.0098
480.4383	-0.0023
480.6386	0.0053
480.8389	-0.0009
481.0392	-0.0129
481.2395	-0.0046
481.4398	0.0058
481.6401	0.0052
481.8403	-0.0025
482.0405	0.0003
482.2408	-0.0084
482.441	0.0117
482.6411	-0.0096
482.8413	-0.0039
483.0415	-0.0122
483.2416	-0.0046
483.4417	-0.0073
483.6419	0.0062
483.8419	-0.0078
484.042	0.0005
484.2421	-0.0051
484.4422	0.0008
484.6422	-0.0035
484.8422	-0.0023
485.0422	-0.0129
485.2422	-0.0005
485.4422	-0.0107
485.6422	-0.0045
485.8421	-0.0008
486.042	0.0046
486.242	0.0025
486.4419	-0.0149
486.6417	-0.0128
486.8416	-0.0004
487.0415	-0.0106
487.2413	0.0004
487.4411	-0.0066
487.641	-0.0166
487.8408	0.008
488.0405	-0.0116
488.2403	-0.0079
488.4401	-0.0033
488.6398	-0.0064
488.8395	-0.0044
489.0392	0.0016
489.2389	-0.0076
489.4386	-0.0072
489.6383	-0.0069
489.8379	-0.0036
490.0376	-0.0055
490.2372	-0.0149
490.4368	-0.0104
490.6364	-0.003
490.836	-0.0082
491.0355	-0.0064
491.2351	-0.0054
491.4346	-0.0106
491.6341	-0.0187
491.8336	-0.0054
492.0331	-0.0221
492.2326	-0.0104
492.432	0.0019
492.6315	-0.0069
492.8309	-0.0164
493.0303	-0.0145
493.2297	-0.0116
493.4291	-0.0136
493.6284	-0.0001
493.8278	0.0007
494.0271	0.0088
494.2264	0.0119
494.4257	-0.0211
494.625	-0.0123
494.8243	-0.0142
495.0236	-0.0107
495.2228	-0.0064
495.422	0.0045
495.6213	-0.0065
495.8205	-0.0039
496.0196	-0.0052
496.2188	-0.0005
496.418	-0.0099
496.6171	-0.0021
496.8162	-0.0087
497.0153	-0.0033
497.2144	-0.0156
497.4135	-0.0076
497.6126	-0.0216
497.8116	-0.0114
498.0107	-0.0045
498.2097	-0.0033
498.4087	-0.0174
498.6077	-0.0026
498.8067	-0.0057
499.0056	0.0022
499.2046	-0.0052
499.4035	-0.0135
499.6024	-0.0091
499.8013	0.0004
500.0002	-0.0073
500.199	0.0022
500.3979	-0.0111
500.5967	-0.0226
500.7956	0.0104
500.9944	-0.0076
501.1932	-0.0097
501.3919	-0.0086
501.5907	-0.0097
501.7895	0.0016
501.9882	-0.0163
502.1869	-0.01
502.3856	-0.0137
502.5843	-0.0157
502.783	-0.0075
502.9816	-0.0094
503.1803	-0.0211
503.3789	-0.0138
503.5775	0.0094
503.7761	-0.008
503.9747	-0.0024
504.1732	-0.0042
504.3718	-0.0036
504.5703	-0.0062
504.7689	-0.0059
504.9674	0.0035
505.1658	-0.0071
505.3643	-0.0046
505.5628	-0.0019
505.7612	-0.0114
505.9597	0.0102
506.1581	-0.0074
506.3565	0.0175
506.5549	-0.0109
506.7532	-0.0193
506.9516	-0.0032
507.1499	-0.0074
507.3482	-0.0115
507.5465	-0.0101
507.7448	-0.0101
507.9431	-0.0023
508.1414	-0.0051
508.3396	-0.0007
508.5379	-0.006
508.7361	-0.0041
508.9343	0.0009
509.1325	-0.0047
509.3306	-0.0107
509.5288	-0.0046
509.7269	0.0016
509.9251	-0.0035
510.1232	-0.0117
510.3213	-0.0057
510.5193	0.0027
510.7174	-0.0112
510.9154	-0.0117
511.1135	-0.005
511.3115	-0.0208
511.5095	-0.0076
511.7075	0.0039
511.9055	-0.002
512.1034	-0.0122
512.3014	0.0043
512.4993	0.0063
512.6972	-0.0058
512.8951	-0.0152
513.093	-0.0028
513.2908	0.0061
513.4887	0.0083
513.6865	-0.0058
513.8844	-0.003
514.0822	-0.0149
514.2799	-0.0119
514.4777	-0.003
514.6755	-0.0091
514.8732	-0.0103
515.0709	-0.0012
515.2687	-0.0095
515.4664	0.0018
515.664	-0.0066
515.8617	-0.0127
516.0594	-0.0175
516.257	-0.006
516.4546	-0.0122
516.6522	-0.0004
516.8498	0.0014
517.0474	0.0049
517.2449	0.0036
517.4425	-0.0154
517.64	-0.0085
517.8375	0.0084
518.035	0.0088
518.2325	-0.008
518.43	-0.009
518.6274	-0.0146
518.8249	-0.0199
519.0223	-0.0108
519.2197	-0.0033
519.4171	-0.0136
519.6145	-0.0129
519.8118	0.0033
520.0092	-0.0077
520.2065	-0.0072
520.4038	-0.0018
520.6011	0.0016
520.7984	-0.0048
520.9956	-0.0085
521.1929	-0.0064
521.3901	0.0034
521.5874	-0.0018
521.7846	-0.0058
521.9818	-0.0124
522.1789	-0.0104
522.3761	-0.0122
522.5732	-0.0157
522.7704	-0.0075
522.9675	-0.0042
523.1646	-0.0091
523.3617	0.0005
523.5587	0.0034
523.7558	-0.0019
523.9528	-0.011
524.1498	-0.01
524.3468	-0.0057
524.5438	-0.0083
524.7408	-0.0094
524.9378	0.0065
525.1347	-0.0057
525.3316	-0
525.5285	-0.0121
525.7254	-0.0019
525.9223	-0.0035
526.1192	-0.0035
526.316	-0.0131
526.5129	0.0003
526.7097	-0.0054
526.9065	-0.0073
527.1033	-0.0081
527.3	-0.0106
527.4968	-0.0131
527.6935	0.007
527.8903	-0.0137
528.087	-0.0144
528.2837	-0.007
528.4804	-0.0053
528.677	-0.0179
528.8737	-0.0049
529.0703	-0.0032
529.2669	0.0059
529.4635	-0.0108
529.6601	0.0025
529.8567	-0.0016
530.0532	-0.0098
530.2498	-0.0045
530.4463	0.0041
530.6428	0.0043
530.8393	0.0092
531.0358	0.0008
531.2322	-0.0066
531.4287	-0.0103
531.6251	-0.004
531.8215	0.0055
532.0179	0.0017
532.2143	0.0043
532.4107	-0.0007
532.607	-0.0069
532.8034	-0.0026
532.9997	-0.0087
533.196	-0.0093
533.3923	-0.0129
533.5886	0.0019
533.7848	-0.0135
533.9811	-0.006
534.1773	0.0009
534.3735	0.001
534.5697	-0.0071
534.7659	0.0086
534.9621	-0.0034
535.1582	-0.0071
535.3544	-0.0063
535.5505	-0.0029
535.7466	-0.0069
535.9427	-0.0082
536.1387	-0.0122
536.3348	-0.0128
536.5308	0.0018
536.7269	-0.01
536.9229	-0.0097
537.1189	-0.0007
537.3148	-0.0094
537.5108	-0.0093
537.7068	0.0028
537.9027	-0.0079
538.0986	0.0017
538.2945	-0.0092
538.4904	-0.0115
538.6863	-0.003
538.8821	-0.0097
539.078	-0.0019
539.2738	0.0001
539.4696	-0.0037
539.6654	-0.0063
539.8611	0.0048
540.0569	-0.0063
540.2526	-0.0145
540.4484	-0.008
540.6441	0.0135
540.8398	0.0052
541.0355	0.0039
541.2311	-0.0087
541.4268	-0.0118
541.6224	-0.006
541.818	0.005
542.0136	-0.0147
542.2092	0.0069
542.4048	0.0103
542.6003	0.0039
542.7959	-0.0076
542.9914	-0.0095
543.1869	0.0001
543.3824	-0.0006
543.5779	-0.0038
543.7734	-0.0039
543.9688	-0.0134
544.1642	0.0028
544.3596	0.0005
544.555	-0.0051
544.7504	-0.0058
544.9458	-0.0054
545.1411	-0.0032
545.3365	-0.0028
545.5318	-0.0122
545.7271	-0.0038
545.9224	0.0047
546.1177	-0.0023
546.3129	0.0053
546.5081	-0.0019
546.7034	-0.0103
546.8986	0.0006
547.0938	-0.0053
547.289	0.0034
547.4841	0.0063
547.6793	0.0076
547.8744	-0.0132
548.0695	-0.0048
548.2646	-0.0038
548.4597	0.0007
548.6548	-0.0005
548.8498	0.0075
549.0448	-0.0042
549.2399	-0.0017
549.4349	0.0027
549.6298	-0.0005
549.8248	0.0051
550.0198	-0.006
550.2147	-0.0102
550.4096	-0.0048
550.6045	-0.0073
550.7994	0.0099
550.9943	-0.0058
551.1892	-0.0048
551.384	0.0007
551.5788	-0.0102
551.7737	0.0017
551.9685	-0.0081
552.1632	-0.005
552.358	-0.0088
552.5528	0.0092
552.7475	-0.0109
552.9422	-0.001
553.1369	-0.0006
553.3316	0.005
553.5263	-0.0173
553.7209	-0.0022
553.9156	-0.0078
554.1102	-0.0011
554.3048	-0.0035
554.4994	0.0136
554.694	-0.0069
554.8885	-0.0045
555.0831	-0.0022
555.2776	-0.0019
555.4721	-0.011
555.6666	0.0001
555.8611	0.0102
556.0555	-0.0012
556.25	-0.0055
556.4444	-0.0117
556.6388	0.0014
556.8332	-0.0053
557.0276	-0.0082
557.222	0.0004
557.4163	0.0068
557.6107	-0.0212
557.805	0.0016
557.9993	-0.0033
558.1936	-0.0045
558.3879	-0.0046
558.5821	-0.0034
558.7764	-0.0043
558.9706	0.0008
559.1648	0.0093
559.359	-0.003
559.5532	-0.0056
559.7473	0.0071
559.9415	-0.0082
560.1356	-0.0077
560.3297	-0.0046
560.5238	-0.0054
560.7179	-0.0067
560.9119	0.0008
561.106	-0.001
561.3	-0.0038
561.494	-0.0048
561.688	-0.005
561.882	-0.0036
562.076	-0.0033
562.2699	-0.0004
562.4639	-0.002
562.6578	0.002
562.8517	0.0053
563.0456	-0.001
563.2395	-0.0039
563.4333	-0.0056
563.6272	0.0012
563.821	-0.0018
564.0148	-0.0056
564.2086	-0.0048
564.4024	-0.0042
564.5961	-0.0092
564.7899	0.0095
564.9836	0.0075
565.1773	0.0019
565.371	0.0106
565.5647	0.0029
565.7584	0.0026
565.952	-0.0056
566.1456	0.0065
566.3393	0.0012
566.5329	-0.0056
566.7264	0.0031
566.92	-0.0055
567.1136	0.007
567.3071	-0.0048
567.5006	0.0085
567.6941	0.0057
567.8876	-0.0007
568.0811	0.0027
568.2745	0.0019
568.468	0.0085
568.6614	0.0018
568.8548	-0.0002
569.0482	0.0009
569.2416	0.0049
569.4349	0.0011
569.6283	0.0015
569.8216	0.0044
570.0149	0.0014
570.2082	0.0074
570.4015	0.0054
570.5947	0.0097
570.788	0.0026
570.9812	0.0053
571.1744	0.0027
571.3676	-0.007
571.5608	-0.001
571.754	0.0027
571.9471	-0.002
572.1402	0.0025
572.3333	0.0016
572.5264	0.0029
572.7195	0.0013
572.9126	0.0029
573.1057	0.0029
573.2987	-0.0012
573.4917	0.0072
573.6847	-0.0054
573.8777	0.0057
574.0707	0.0063
574.2636	0.003
574.4566	-0.0037
574.6495	0.0089
574.8424	-0.0014
575.0353	-0.0002
575.2281	0.0083
575.421	0.0047
575.6138	0.0016
575.8067	-0.0097
575.9995	-0
576.1923	0.0045
576.385	0.0017
576.5778	-0.0008
576.7706	0.0032
576.9633	0.0018
577.156	0.0009
577.3487	0.0018
577.5414	0.0051
577.734	-0.007
577.9267	0.004
578.1193	-0.0088
578.3119	0.0008
578.5045	-0.0027
578.6971	-0.0025
578.8897	0.0052
579.0822	0.0057
579.2747	0.0009
579.4673	-0.0027
579.6598	-0.0051
579.8522	0.0046
580.0447	0.0016
580.2372	-0.0009
580.4296	0.0033
580.622	0.0033
580.8144	0.003
581.0068	0.0063
581.1992	-0.0114
581.3915	-0.0055
581.5839	0.0006
581.7762	-0.0046
581.9685	-0.0013
582.1608	0.001
582.353	-0.0069
582.5453	-0.0036
582.7375	0.0053
582.9298	0.0037
583.122	0.0013
583.3142	-0.0009
583.5063	0.0003
583.6985	0.0021
583.8906	-0.0013
584.0827	-0.0006
584.2749	-0.0008
584.4669	0.0029
584.659	-0.0018
584.8511	-0.0011
585.0431	-0.0014
585.2352	0.0054
585.4272	0.0017
585.6192	0.0057
585.8111	0.0011
586.0031	0.0011
586.195	0.0026
586.387	0.007
586.5789	0.006
586.7708	0.0041
586.9627	0.0004
587.1545	-0.0027
587.3464	0.0066
587.5382	0.0015
587.73	0.002
587.9218	0.0063
588.1136	-0.0025
588.3053	0.0082
588.4971	-0.0001
588.6888	-0.0074
588.8805	0.0018
589.0722	0.0081
589.2639	0.003
589.4556	0.0033
589.6472	0.0023
589.8389	-0.0019
590.0305	-0.0047
590.2221	0.0076
590.4137	-0.0042
590.6052	0.011
590.7968	0.005
590.9883	0.0017
591.1798	-0.0019
591.3713	0.0018
591.5628	0.0094
591.7543	0.011
591.9458	0.0025
592.1372	0.0122
592.3286	0.0083
592.52	0.0075
592.7114	0.0034
592.9028	0.0064
593.0941	0.0037
593.2855	0.0029
593.4768	0.0026
593.6681	-0.0039
593.8594	-0.0025
594.0506	0.0005
594.2419	0.0087
594.4331	0.006
594.6244	0.0072
594.8156	-0.0053
595.0067	0.0056
595.1979	0.0114
595.3891	-0.0017
595.5802	0.0013
595.7713	-0.009
595.9624	-0.0066
596.1535	0.0107
596.3446	-0.0006
596.5357	0.0012
596.7267	0.0104
596.9177	-0.0008
597.1087	-0.0026
597.2997	-0.0017
597.4907	0.0052
597.6817	-0.0011
597.8726	-0.0019
598.0635	0.0004
598.2544	0.0074
598.4453	0.0052
598.6362	-0.0022
598.827	-0.0031
599.0179	0.0099
599.2087	0.0091
599.3995	0.0023
599.5903	0.0021
599.7811	-0.0002
599.9718	0.0013
600.1626	-0.002
600.3533	-0.0056
600.544	0.0013
600.7347	0.0043
600.9254	0.0031
601.116	-0.0013
601.3067	0.0025
601.4973	0.003
601.6879	0.0085
601.8785	-0.0065
602.0691	0.0077
602.2596	0.0068
602.4502	0.0037
602.6407	0.0045
602.8312	0.007
603.0217	-0.0055
603.2122	0.0049
603.4027	0.0022
603.5931	-0.0026
603.7835	-0.0066
603.9739	-0.0037
604.1643	-0.0019
604.3547	0.0027
604.5451	0.0045
604.7354	-0.0003
604.9257	0.0048
605.116	-0.0001
605.3063	0.0047
605.4966	0.0056
605.6869	0.0032
605.8771	0.0046
606.0673	-0.0011
606.2575	0.0128
606.4477	0.0107
606.6379	0.006
606.8281	-0.0055
607.0182	-0.0038
607.2083	0.0114
607.3985	-0.0001
607.5885	0.001
607.7786	0.0057
607.9687	-0.0055
608.1587	0.0004
608.3488	-0.0028
608.5388	-0
608.7288	-0.0001
608.9187	-0.0029
609.1087	0.001
609.2986	-0.0072
609.4886	0.0003
609.6785	-0.0042
609.8684	0.0062
610.0582	0.003
610.2481	0.0047
610.4379	0.0008
610.6278	-0.0064
610.8176	0.0013
611.0074	0.0041
611.1971	-0.0018
611.3869	-0.0002
611.5766	-0.0005
611.7664	0.0068
611.9561	0.0019
612.1458	0.0036
612.3354	0.0009
612.5251	0.0079
612.7147	0.0069
612.9044	0.0096
613.094	0.0028
613.2836	0.0092
613.4731	0.0017
613.6627	-0.0011
613.8522	0.0065
614.0417	0.0095
614.2313	0.0006
614.4207	0.0031
614.6102	0.0018
614.7997	-0.003
614.9891	-0.0084
615.1785	0.0021
615.3679	-0.0023
615.5573	0.0141
615.7467	0.0037
615.9361	0.0046
616.1254	-0.0014
616.3147	0.0014
616.504	0.0078
616.6933	-0.0026
616.8826	0.0029
617.0718	0.0053
617.2611	0.004
617.4503	0.0028
617.6395	-0.0025
617.8287	-0.0023
618.0179	-0.0013
618.207	0.0106
618.3961	0.0013
618.5853	0.0023
618.7744	0.009
618.9634	0.0054
619.1525	0.0085
619.3416	0.003
619.5306	0.0063
619.7196	0.0044
619.9086	0.0059
620.0976	0.0097
620.2866	0.0099
620.4755	0.0079
620.6645	0.0093
620.8534	0.0126
621.0423	0.0018
621.2312	0.0142
621.42	0.0009
621.6089	-0.0042
621.7977	0.0094
621.9865	-0.0014
622.1753	0.0004
622.3641	0
622.5529	0.0146
622.7416	0.0059
622.9303	0.0058
623.1191	0.0084
623.3078	-0.0055
623.4964	0.0057
623.6851	0.0047
623.8737	-0.0011
624.0624	0.005
624.251	0.002
624.4396	0.0008
624.6282	-0.0006
624.8167	0.0016
625.0053	0.0051
625.1938	0.0045
625.3823	0.0034
625.5708	-0.0024
625.7593	-0.0021
625.9477	-0.0025
626.1362	0.0012
626.3246	-0.0003
626.513	0.0108
626.7014	0.0077
626.8898	-0.0028
627.0781	0.009
627.2665	-0.0053
627.4548	0.005
627.6431	0.0089
627.8314	0.0033
628.0197	0.0091
628.2079	-0.0019
628.3962	0.0022
628.5844	0.0062
628.7726	0.012
628.9608	0.0056
629.1489	-0.0018
629.3371	0.0048
629.5252	-0.0003
629.7134	0.0057
629.9015	0.0011
630.0895	0.0051
630.2776	0.0044
630.4657	-0.0027
630.6537	-0.0024
630.8417	0.0001
631.0297	0.0043
631.2177	0.0051
631.4057	-0.0028
631.5936	0.0055
631.7815	0.0041
631.9695	0.005
632.1574	0.0062
632.3452	0.0151
632.5331	-0.0021
632.7209	0.0048
632.9088	0.013
633.0966	0.0118
633.2844	-0.0024
633.4722	0.0047
633.6599	0.0115
633.8477	0.003
634.0354	0.0047
634.2231	-0.0061
634.4108	-0.0007
634.5985	0.0087
634.7861	0.0043
634.9738	0.011
635.1614	0.0047
635.349	0.0097
635.5366	-0.0059
635.7242	0.0042
635.9117	0.0028
636.0993	0.0044
636.2868	0.0006
636.4743	-0.0009
636.6618	0.0118
636.8492	-0.0021
637.0367	0.0056
637.2241	-0.0016
637.4115	-0.001
637.5989	0.0091
637.7863	0.0034
637.9737	0.0038
638.161	0.0049
638.3484	0.0012
638.5357	0.0143
638.723	0.003
638.9103	0.0049
639.0975	0.0022
639.2848	0.0118
639.472	0.008
639.6592	0.0082
639.8464	0.0141
640.0336	0.0117
640.2208	0.0051
640.4079	-0.004
640.595	-0.0001
640.7821	0.0006
640.9692	0.0024
641.1563	0.0069
641.3434	0.0086
641.5304	0.0045
641.7174	0.0014
641.9044	0.0023
642.0914	0.0027
642.2784	-0.0027
642.4653	0.001
642.6523	-0.0013
642.8392	0.0037
643.0261	0.0071
643.213	0.0019
643.3999	-0.0039
643.5867	0.0007
643.7735	-0.0006
643.9604	-0.0055
644.1472	0.0103
644.3339	-0.0012
644.5207	-0.0069
644.7075	-0.0023
644.8942	0.0031
645.0809	0.0079
645.2676	0.0033
645.4543	0.0037
645.6409	0.0082
645.8276	-0.0013
646.0142	0.0054
646.2008	-0.0068
646.3874	0.0015
646.574	0.0033
646.7605	0.0011
646.9471	-0.0112
647.1336	0.0025
647.3201	0.0024
647.5066	-0.0043
647.6931	0.0044
647.8795	0.0014
648.0659	0.0104
648.2524	0.0021
648.4388	-0.0089
648.6252	-0.0009
648.8115	-0.0025
648.9979	-0.0031
649.1842	0.005
649.3705	0.0107
649.5568	0.0059
649.7431	0.0054
649.9294	-0.0034
650.1156	0.0075
650.3018	-0.0014
650.488	0.0115
650.6742	0.0085
650.8604	0.0016
651.0466	-0.0017
651.2327	0.0007
651.4188	0.0075
651.6049	0.0045
651.791	0.006
651.9771	0.0064
652.1632	0.0104
652.3492	0.0048
652.5352	0.0085
652.7212	-0.0005
652.9072	0.0015
653.0932	-0.0009
653.2791	0.0014
653.465	0.0025
653.651	-0.0046
653.8369	-0.0005
654.0227	0.0045
654.2086	0.0084
654.3944	0.0046
654.5803	0.0003
654.7661	-0.0006
654.9519	0.0028
655.1377	-0.0022
655.3234	-0.0038
655.5092	-0.0035
655.6949	-0.0059
655.8806	-0.0045
656.0663	0.0002
656.2519	0.0005
656.4376	0.003
656.6232	0.0072
656.8088	0.0042
656.9945	0.005
657.18	-0.002
657.3656	0.0019
657.5511	0.0006
657.7367	-0.0008
657.9222	0.009
658.1077	0.0069
658.2932	0.009
658.4786	-0.0094
658.6641	0.0019
658.8495	0.0066
659.0349	-0.0001
659.2203	0.0046
659.4057	0.0063
659.591	0.0039
659.7764	0.0022
659.9617	0.0073
660.147	0.0032
660.3323	0.0059
660.5176	0.0132
660.7028	0.0079
660.888	0.0123
661.0733	0.0057
661.2585	0.0025
661.4436	-0.0042
661.6288	-0.0024
661.8139	0.0014
661.9991	0.0096
662.1842	-0.0013
662.3693	0.0028
662.5544	0.0005
662.7394	0.0117
662.9245	0.0094
663.1095	0.0046
663.2945	0.009
663.4795	0.002
663.6644	0.006
663.8494	0.0074
664.0343	0.0111
664.2193	0.0035
664.4042	0.0114
664.589	0.0043
664.7739	-0.0006
664.9587	-0.0021
665.1436	-0.0018
665.3284	0.0102
665.5132	0.0004
665.698	0.008
665.8827	0.0079
666.0675	0.0038
666.2522	-0.0029
666.4369	0.0099
666.6216	0.0082
666.8063	0.0033
666.9909	-0.0001
667.1756	0.0024
667.3602	0.003
667.5448	0.0024
667.7294	0.0087
667.9139	0.0048
668.0985	0.0114
668.283	0.0041
668.4675	0.0016
668.652	0.0047
668.8365	0.0003
669.0209	0.0036
669.2054	0.014
669.3898	0.0016
669.5742	0.006
669.7586	0.0075
669.943	0.0115
670.1273	0.0099
670.3117	0.0061
670.496	0.0095
670.6803	0.0157
670.8646	0.0073
671.0488	0.0084
671.2331	0.0124
671.4173	0.0133
671.6015	0.0105
671.7857	0.0133
671.9699	0.0033
672.1541	0.0118
672.3382	0.0104
672.5223	0.0047
672.7064	0.0088
672.8905	0.0043
673.0746	0.0101
673.2587	0.0031
673.4427	0.0072
673.6267	0.0183
673.8107	0.0126
673.9947	0.0108
674.1787	0.0092
674.3626	-0.0045
674.5465	0.0088
674.7304	0.0011
674.9143	0.0114
675.0982	0.0115
675.2821	-0.0075
675.4659	0.0078
675.6497	0.0058
675.8335	-0.0035
676.0173	0.0017
676.2011	0.0022
676.3849	-0.0004
676.5686	-0.0049
676.7523	-0.0005
676.936	-0.0016
677.1197	-0.0075
677.3034	-0.0053
677.487	0.0043
677.6706	0.0027
677.8542	0.0034
678.0378	0.0038
678.2214	-0.0014
678.405	-0.0047
678.5885	-0.0181
678.772	-0.0033
678.9555	-0.0055
679.139	-0.0023
679.3225	-0.0058
679.5059	-0.0013
679.6894	0.0059
679.8728	0.0017
680.0562	-0.0021
680.2395	-0.0056
680.4229	-0.0048
680.6062	0.0022
680.7896	0.0069
680.9729	-0.0004
681.1562	0.0042
681.3394	0.0072
681.5227	-0.0098
681.7059	-0.0004
681.8891	0.0005
682.0723	0.0127
682.2555	-0.0008
682.4387	0.0065
682.6218	-0.004
682.805	0.0022
682.9881	0.0048
683.1712	-0.0012
683.3542	-0.0095
683.5373	-0.004
683.7203	-0.0107
683.9034	-0.0026
684.0864	-0.0027
684.2694	-0.0026
684.4523	-0.0004
684.6353	0.0009
684.8182	0.0003
685.0011	-0.0037
685.184	0.0038
685.3669	-0.0014
685.5498	0.0033
685.7326	-0.003
685.9154	-0.0012
686.0982	0.0067
686.281	0.0122
686.4638	0.0023
686.6465	0.0018
686.8293	0.0001
687.012	0.0039
687.1947	-0.0014
687.3774	0.006
687.56	0.0005
687.7427	0.0067
687.9253	0.002
688.1079	0.007
688.2905	0.0113
688.4731	0.0135
688.6556	-0.0018
688.8382	0.0016
689.0207	0.0053
689.2032	-0.0103
689.3857	0.0027
689.5681	0.0045
689.7506	-0.0071
689.933	-0.0024
690.1154	0.0016
690.2978	0.0006
690.4802	0.0115
690.6626	-0.0012
690.8449	-0.0001
691.0272	0.0088
691.2095	-0.0026
691.3918	-0.001
691.5741	0.0074
691.7563	0.0074
691.9386	0.0074
692.1208	0.0027
692.303	0.0052
692.4852	0.0005
692.6673	0.002
692.8495	-0.0024
693.0316	-0.0009
693.2137	0.0067
693.3958	0.0022
693.5778	0.0036
693.7599	0.0077
693.9419	0.0039
694.1239	0.0045
694.3059	-0.0024
694.4879	0.0033
694.6699	0.0068
694.8518	-0.0015
695.0337	0.002
695.2157	0.0064
695.3975	0.0036
695.5794	0.0012
695.7613	0.0075
695.9431	-0.0049
696.1249	0.0083
696.3067	-0.002
696.4885	0.0073
696.6703	-0.0109
696.852	0.005
697.0337	0.0066
697.2154	0.002
697.3971	0.0078
697.5788	0.0002
697.7605	0.0079
697.9421	0.0026
698.1237	0.0078
698.3053	0.005
698.4869	-0.0038
698.6685	-0.0059
698.85	-0.0003
699.0315	0.0068
699.213	0.0099
699.3945	0.0016
699.576	0.0051
699.7575	0.0082
699.9389	0.0099
700.1203	-0.0035
700.3017	-0.0038
700.4831	0.0003
700.6645	0.0039
700.8458	0.0056
701.0271	0.0081
701.2084	0.0125
701.3897	-0.0056
701.571	0.0075
701.7523	-0.0024
701.9335	0.0054
702.1147	-0.0067
702.2959	0.0053
702.4771	0.0059
702.6583	-0.0023
702.8394	-0.0012
703.0205	0.003
703.2016	-0.0037
703.3827	-0.0012
703.5638	0.0004
703.7449	0.0005
703.9259	0.0083
704.1069	-0.0064
704.2879	0.0023
704.4689	0.0056
704.6499	0.0053
704.8308	-0.0013
705.0117	0.0023
705.1927	0.0006
705.3735	-0.0054
705.5544	-0.0109
705.7353	-0.0032
705.9161	-0.0056
706.0969	-0.007
706.2777	-0.0038
706.4585	-0.0076
706.6393	0.0057
706.82	0.0059
707.0007	0.0095
707.1815	0.0058
707.3621	0.0086
707.5428	0.0041
707.7235	0.0112
707.9041	0.0041
708.0847	-0.0055
708.2653	0.002
708.4459	-0.0101
708.6265	0.0037
708.807	0.003
708.9875	-0.0026
709.168	-0.0047
709.3485	0.0011
709.529	0.0012
709.7095	-0.0064
709.8899	0.0043
710.0703	-0.007
710.2507	-0.0049
710.4311	-0.0023
710.6115	-0.0123
710.7918	-0.0082
710.9721	-0.0008
711.1524	-0.0064
711.3327	0
711.513	0.0007
711.6932	-0.0023
711.8735	0.0086
712.0537	0.0065
712.2339	-0.0014
712.4141	-0.0027
712.5942	-0.0023
712.7744	0.0038
712.9545	-0.0009
713.1346	-0.0027
713.3147	0.0062
713.4947	-0.0085
713.6748	0.0004
713.8548	0.0058
714.0348	-0.008
714.2148	0.0028
714.3948	0.0099
714.5748	0.0036
714.7547	0.0008
714.9346	0.0001
715.1145	-0.0082
715.2944	0.0021
715.4743	-0.0001
715.6541	-0.004
715.834	0.0065
716.0138	-0.0049
716.1936	-0.0078
716.3733	0.0009
716.5531	0.005
716.7328	-0.006
716.9126	-0.0066
717.0923	0.0147
717.2719	0.0005
717.4516	0.0029
717.6312	0.0025
717.8109	-0.0065
717.9905	0.008
718.1701	-0.0007
718.3496	-0.0095
718.5292	0.0027
718.7087	-0.0001
718.8882	-0.002
719.0677	0.0057
719.2472	0.001
719.4267	-0
719.6061	0.001
719.7856	-0.0017
719.965	0.003
720.1443	0.0019
720.3237	0.0202
720.5031	-0.0001
720.6824	0.0083
720.8617	0.0008
721.041	0.0095
721.2203	0.0054
721.3995	0.0027
721.5788	0.0081
721.758	0.0119
721.9372	0.0051
722.1164	0.0087
722.2956	0.0096
722.4747	0.0024
722.6538	0.0012
722.8329	0.0217
723.012	0.0068
723.1911	0.0093
723.3702	0.0107
723.5492	0.0052
723.7282	0.0028
723.9072	0.0042
724.0862	0.0009
724.2652	-0.0019
724.4441	-0.0036
724.623	0.0053
724.8019	-0.0007
724.9808	0.0048
725.1597	-0.0052
725.3385	0.0037
725.5174	0.0027
725.6962	-0.0031
725.875	-0.005
726.0538	0.0012
726.2325	-0.0097
726.4112	0.0022
726.59	-0.0033
726.7687	-0.0059
726.9474	0.0035
727.126	-0.004
727.3047	-0.0032
727.4833	-0.0081
727.6619	-0.0087
727.8405	-0.0145
728.0191	-0.0059
728.1976	0.0009
728.3762	0.0048
728.5547	-0.001
728.7332	-0.0146
728.9116	0.0064
729.0901	0.0076
729.2686	-0.0027
729.447	-0.0015
729.6254	-0.0003
729.8038	-0.001
729.9821	-0.0154
730.1605	-0.0027
730.3388	0.0025
730.5171	0.0037
730.6954	-0.01
730.8737	0.0036
731.0519	0.0128
731.2302	0.0031
731.4084	0.017
731.5866	0.0067
731.7648	0.0044
731.9429	0.0065
732.1211	-0.0017
732.2992	0.0009
732.4773	-0.0016
732.6554	-0.0117
732.8335	0.0018
733.0115	0.004
733.1896	0.0029
733.3676	0.0033
733.5456	0.0042
733.7235	0.0091
733.9015	-0.001
734.0794	0.0079
734.2574	0.0048
734.4353	0.0092
734.6131	0.0115
734.791	0.0078
734.9689	0.0082
735.1467	0.0057
735.3245	-0.0019
735.5023	0.0062
735.68	0.0136
735.8578	0.0109
736.0355	-0.0064
736.2132	-0.014
736.3909	0.002
736.5686	-0.0104
736.7463	0.0141
736.9239	-0.0014
737.1015	-0.007
737.2791	0.0066
737.4567	-0.0002
737.6343	-0.004
737.8118	0.0047
737.9894	0.0041
738.1669	-0.0096
738.3444	-0.0109
738.5218	0.0023
738.6993	-0.0066
738.8767	-0.0056
739.0541	0.0098
739.2315	-0.0056
739.4089	0.0073
739.5863	0.0021
739.7636	-0.0026
739.9409	0.0002
740.1182	0.0053
740.2955	0.01
740.4728	-0.0004
740.65	-0.0006
740.8272	-0.0046
741.0044	-0.0039
741.1816	0.0039
741.3588	-0.005
741.5359	-0.0027
741.7131	-0.0145
741.8902	-0.006
742.0673	0.0018
742.2444	-0.0118
742.4214	-0.0115
742.5985	-0.0052
742.7755	-0.0078
742.9525	-0.0184
743.1295	0.0038
743.3064	-0.002
743.4834	0.0051
743.6603	0.003
743.8372	-0.0099
744.0141	0.003
744.191	-0.0008
744.3678	-0.0078
744.5446	0.0035
744.7215	0.0035
744.8982	0.0005
745.075	-0.002
745.2518	0.0052
745.4285	0.0022
745.6052	-0.0017
745.7819	0.0029
745.9586	-0.0018
746.1353	-0.002
746.3119	-0.009
746.4885	-0.0046
746.6651	-0.0066
746.8417	0.0023
747.0183	-0.0088
747.1948	-0.0079
747.3714	-0.0021
747.5479	0.0015
747.7244	-0.0027
747.9008	0.0055
748.0773	-0.0063
748.2537	-0.0082
748.4301	-0.0093
748.6065	0.0012
748.7829	0.0061
748.9593	-0.0077
749.1356	-0.0017
749.3119	0.0081
749.4882	-0.006
749.6645	0.0062
749.8408	-0.0066
750.017	-0.004
750.1933	-0.0037
750.3695	-0.0106
750.5457	0.0044
750.7218	-0.0027
750.898	0.0049
751.0741	-0.0042
751.2502	-0.0027
751.4263	0.0002
751.6024	-0.0062
751.7784	-0.0009
751.9545	-0.0021
752.1305	0.0057
752.3065	-0.0104
752.4825	0.0085
752.6584	0.0053
752.8344	0.0051
753.0103	-0.0129
753.1862	-0.0102
753.3621	0.0018
753.5379	-0.0066
753.7138	-0.0074
753.8896	0.0071
754.0654	0.0041
754.2412	0.002
754.417	0.0068
754.5927	-0.0053
754.7685	-0.003
754.9442	0.0023
755.1199	0.0108
755.2956	0.0047
755.4712	0.0045
755.6469	-0.0044
755.8225	0.0017
755.9981	-0.0033
756.1736	-0.0012
756.3492	0.0015
756.5248	0.0034
756.7003	0.0005
756.8758	0.0128
757.0513	-0.0189
757.2267	-0.0109
757.4022	0.0033
757.5776	-0.0083
757.753	0.0039
757.9284	-0.0033
758.1038	0.0106
758.2791	-0.0018
758.4545	-0.0081
758.6298	-0.0041
758.8051	-0.0023
758.9803	-0.0075
759.1556	-0.0046
759.3308	-0.0112
759.506	0.0097
759.6812	0.0039
759.8564	0.0018
760.0316	-0.0051
760.2067	-0
760.3819	0.0046
760.557	0.0071
760.732	0.0097
760.9071	-0.0033
761.0821	0.0079
761.2572	-0.0014
761.4322	-0.0037
761.6072	0.0036
761.7821	-0.0074
761.9571	0.0055
762.132	-0.0054
762.3069	-0.0081
762.4818	-0.0068
762.6567	-0.0018
762.8316	0.0033
763.0064	-0.0082
763.1812	-0.0021
763.356	-0.014
763.5308	0.0032
763.7055	0.0008
763.8803	0.0012
764.055	-0.0046
764.2297	0.0023
764.4044	-0.0081
764.579	-0.0172
764.7537	-0.0174
764.9283	0.0124
765.1029	-0.0011
765.2775	-0.0007
765.4521	-0.0112
765.6266	0.0031
765.8011	-0.002
765.9756	0.0004
766.1501	0.009
766.3246	-0.0006
766.4991	0.0085
766.6735	0.0085
766.8479	-0.0055
767.0223	0.0043
767.1967	-0.0018
767.371	0.0004
767.5454	-0.0071
767.7197	0.0129
767.894	-0.01
768.0683	-0.0113
768.2425	-0.0015
768.4168	0.007
768.591	0.0018
768.7652	0.0077
768.9394	0.0048
769.1135	0.0051
769.2877	0.0008
769.4618	-0.0087
769.6359	-0.0017
769.81	-0.0022
769.984	-0.0052
770.1581	-0.0041
770.3321	-0.0041
770.5061	-0.0018
770.6801	-0.0122
770.8541	-0.0051
771.028	0.0063
771.202	-0.0031
771.3759	0.0101
771.5498	-0.007
771.7236	0.0003
771.8975	-0.0001
772.0713	0.0103
772.2451	0.0133
772.4189	0.016
772.5927	0.0058
772.7665	0.0014
772.9402	-0.0027
773.1139	0.0017
773.2876	0.003
773.4613	0.0196
773.635	0.0131
773.8086	-0.0053
773.9822	0.0093
774.1558	0.011
774.3294	-0.0109
774.503	0.0084
774.6765	0.0087
774.8501	0.003
775.0236	0.0106
775.1971	0.0162
775.3705	0.0013
775.544	0.0088
775.7174	-0.0032
775.8908	0.0048
776.0642	0.0037
776.2376	0.0104
776.4109	-0.0058
776.5843	0.0041
776.7576	0.0192
776.9309	0.0165
777.1041	0.0103
777.2774	0.0221
777.4506	0.0107
777.6238	-0.0016
777.797	0.0067
777.9702	-0.0011
778.1434	-0.0029
778.3165	-0.0085
778.4896	-0.0111
778.6627	-0.0022
778.8358	-0.0003
779.0089	-0.0079
779.1819	0.0044
779.3549	0.0075
779.5279	0.0003
779.7009	0.0086
779.8739	-0.0079
780.0468	-0.0033
780.2197	0.0035
780.3926	-0.008
780.5655	-0.0062
780.7384	0.0017
780.9112	-0.0001
781.0841	-0.007
781.2569	-0.0022
781.4297	0.0047
781.6024	0.0057
781.7752	0.0049
781.9479	0.0112
782.1206	0.0106
782.2933	0.0041
782.466	0.0088
782.6386	0.0115
782.8113	-0.0011
782.9839	0.0072
783.1565	0.0141
783.329	0.0093
783.5016	0.0221
783.6741	0.0223
783.8466	-0.0023
784.0191	0.0204
784.1916	0.0038
784.3641	-0.0015
784.5365	0.0212
784.7089	-0.0008
784.8813	-0.0044
785.0537	0.0093
785.2261	0.0084
785.3984	-0.0155
785.5707	-0.0037
785.743	0.0199
785.9153	-0.0029
786.0876	0.0034
786.2598	0.0004
786.432	-0.0108
786.6042	0.0167
786.7764	-0.0082
786.9486	0.0047
787.1207	-0.0009
787.2928	0.0085
787.4649	0.009
787.637	0.004
787.8091	-0.0044
787.9811	0.0016
788.1532	0.001
788.3252	0.0126
788.4972	-0.0089
788.6691	0.0004
788.8411	0.0032
789.013	-0.0024
789.1849	0.001
789.3568	0.0067
789.5287	0.0128
789.7005	-0.0108
789.8723	-0.0017
790.0442	0.0259
790.2159	0.0149
790.3877	0.0004
790.5595	-0.0069
790.7312	0.0108
790.9029	0.016
791.0746	-0.0005
791.2463	0.0084
791.4179	0.004
791.5896	-0.0098
791.7612	0.0053
791.9328	0.0079
792.1044	-0.0095
792.2759	-0.0029
792.4474	-0.0043
792.619	-0.0041
792.7905	0.0022
792.9619	-0.0143
793.1334	-0.0019
793.3048	0.0065
793.4762	0.0143
793.6476	0.0199
793.819	0.0036
793.9904	0.0065
794.1617	-0.016
794.333	-0.0061
794.5043	-0.0091
794.6756	0.0049
794.8469	-0.0081
795.0181	-0.0056
795.1893	-0.0042
795.3605	0.0084
795.5317	-0.0015
795.7029	-0.0045
795.874	0.011
796.0452	-0.0018
796.2163	-0.0044
796.3873	0.0162
796.5584	0.006
796.7294	0.003
796.9005	0.0008
797.0715	0.0081
797.2425	-0.0065
797.4134	0.0029
797.5844	0.0027
797.7553	-0.0077
797.9262	0.0042
798.0971	0.0164
798.2679	-0.0065
798.4388	-0.0047
798.6096	-0.0072
798.7804	-0.0023
798.9512	0.0026
799.122	0.0021
799.2927	0.0034
799.4635	0.0077
799.6342	-0.0131
799.8049	-0.0012
799.9755	0.0047
800.1462	0.0002
800.3168	0.0036
800.4874	0.0021
800.658	0.0184
800.8286	0.0037
800.9991	0.0224
801.1696	0.0059
801.3402	0.0176
801.5106	0.0038
801.6811	0.01
801.8516	0.0075
802.022	0.0089
802.1924	0.0213
802.3628	0.0237
802.5332	0.0061
802.7035	0.009
802.8739	0.0034
803.0442	-0.0067
803.2145	0.0072
803.3847	-0.0054
803.555	0.0057
803.7252	0.0064
803.8954	0.0046
804.0656	-0.0075
804.2358	0.0096
804.4059	0.0237
804.5761	0.0259
804.7462	0.014
804.9163	0.009
805.0864	-0.025
805.2564	-0.0003
805.4264	-0.0098
805.5965	-0.0214
805.7665	0.0002
805.9364	0.0069
806.1064	0.0352
806.2763	0.0017
806.4462	0.0145
806.6161	0.008
806.786	0.0251
806.9559	-0.0215
807.1257	-0.0042
807.2955	0.0052
807.4653	0.0071
807.6351	-0.0243
807.8048	0.0186
807.9746	-0.0015
808.1443	0.025
808.314	0.0272
808.4837	0.009
808.6533	0.0023
808.8229	0.0199
808.9926	0.0002
809.1622	0.0065
809.3317	0.0117
809.5013	-0.0023
809.6708	0.0192
809.8403	0.0097
810.0098	-0.0096
810.1793	0.0271
810.3488	0.001
810.5182	-0.0065
810.6876	0.0138
810.857	-0.0158
811.0264	0.0227
811.1958	0.0202
811.3651	0.0106
811.5344	0.0074
811.7037	0.0074
811.873	0.0076
812.0422	0.0157
812.2115	0.004
812.3807	-0.0099
812.5499	0.0235
812.7191	0.0136
812.8882	-0.0051
813.0574	0.0016
813.2265	-0.0014
813.3956	0.0162
813.5646	0.0092
813.7337	-0.0132
813.9027	0.0291
814.0718	0.0444
814.2407	0.0147
814.4097	-0.0042
814.5787	-0.0274
814.7476	-0.0226
814.9165	0.0084
815.0854	-0.0039
815.2543	-0.0003
815.4232	0.0134
815.592	0.032
815.7608	0.0181
815.9296	0.0341
816.0984	0.0228
816.2671	0.008
816.4359	0.0042
816.6046	0.012
816.7733	0.0018
816.942	-0.0094
817.1106	0.003
817.2793	0.0172
817.4479	0.0258
817.6165	0.0213
817.785	0.0313
817.9536	0.0136
818.1221	-0.0158
818.2906	0.0156
818.4591	-0.0113
818.6276	-0.0028
818.7961	0.0233
818.9645	0.0107
819.1329	0.0342
819.3013	0.0099
819.4697	0.0337
819.638	0.0338
819.8064	0.0428
819.9747	0.0041
820.143	0.0017
820.3113	-0.0182
820.4795	-0.0021
820.6477	0.0143
820.816	-0.0114
820.9842	0.0105
821.1523	-0.0083
821.3205	-0.0011
821.4886	0.0195
821.6567	0.0064
821.8248	0.0386
821.9929	0.031
822.1609	0.0049
822.329	0.0345
822.497	0.023
822.665	0.0111
822.833	0.0117
823.0009	0.0003
823.1688	0.0227
823.3367	0.0321
823.5046	0.0203
823.6725	0.0371
823.8404	0.0027
824.0082	0.0167
824.176	0.0263
824.3438	-0.0091
824.5116	0.0131
824.6793	0.0227
824.847	0.0155
825.0147	0.0205
825.1824	0.007
825.3501	0.0202
825.5177	-0.0162
825.6854	-0.0022
825.853	0.0248
826.0206	-0.0152
826.1881	0.0157
826.3557	0.0056
826.5232	0.0122
826.6907	-0.0177
826.8582	-0.0099
827.0257	-0.0164
827.1931	0.009
827.3605	0.0254
827.528	0.0165
827.6953	-0.0208
827.8627	0.006
828.03	0.0675
828.1974	-0.0057
828.3647	-0.0357
828.532	-0.0094
828.6992	0.0104
828.8665	0.0076
829.0337	-0.0284
829.2009	0.0358
829.3681	0.0035
829.5352	0.0315
829.7024	-0.0185
829.8695	-0.0122
830.0366	0.0258
830.2037	0.0102
830.3707	0.0074
830.5378	0.0213
830.7048	0.0093
830.8718	0.0137
831.0388	-0.03
831.2057	0.0085
831.3727	0.0094
831.5396	-0.0163
831.7065	-0.0018
831.8734	-0.0097
832.0402	-0.0537
832.2071	0.0131
832.3739	0.0146
832.5407	-0.0136
832.7075	-0.0026
832.8742	-0.0163
833.041	-0.0106
833.2077	0.0186
833.3744	0.0223
833.541	0.0134
833.7077	-0.0142
833.8743	-0.0155
834.0409	0.0263
834.2075	0.0018
834.3741	-0.0026
834.5407	-0.0058
834.7072	-0.0077
834.8737	-0.0132
835.0402	0.0234
835.2067	0.0113
835.3731	0.0216
835.5395	0.0565
835.706	0.0104
835.8723	-0.0037
836.0387	-0.0206
836.2051	-0.0029
836.3714	0.0068
836.5377	0.0239
836.704	-0.0086
836.8703	0.01
837.0365	-0.0052
837.2027	-0.0287
837.3689	0.0186
837.5351	0.0014
837.7013	-0.0414
837.8674	-0.0567
838.0335	-0.0194
838.1997	-0.0507
838.3657	-0.05
838.5318	-0.0221
838.6978	0.047
838.8639	0.0611
839.0299	-0.0228
839.1958	0.0307
839.3618	0.0094
839.5277	0.0016
839.6937	0.0227
839.8596	-0.0082
840.0254	0.0167
840.1913	0.0271
840.3571	0.0509
840.523	0.046
840.6888	-0.0413
840.8545	-0.0059
841.0203	0.0232
841.186	0.0724
841.3517	0.0191
841.5174	-0.0054
841.6831	-0.0582
841.8488	-0.0126
842.0144	-0.002
842.18	0.0115
842.3456	0.0103
842.5112	0.027
842.6767	0.0008
842.8422	0.0009
843.0077	-0.029
843.1732	-0.0117
843.3387	-0.0047
843.5042	-0.0681
843.6696	-0.064
843.835	-0.015
844.0004	0.0459
844.1657	-0.0051
844.3311	-0.0338
844.4964	-0.0567
844.6617	-0.0057
844.827	-0.0173
844.9923	-0.031
845.1575	-0.0061
845.3227	0.0199
845.4879	0.0089
845.6531	-0.0495
845.8183	-0.0616
845.9834	0.0176
846.1485	0.0031
846.3136	-0.0516
846.4787	-0.0651
846.6438	0.0168
846.8088	-0.0096
846.9738	-0.0547
847.1388	-0.0739
847.3038	-0.0673
847.4687	-0.0794
847.6337	0.0564
847.7986	0.0174
847.9635	-0.0396
848.1284	-0.0189
848.2932	0.0829
848.458	-0.0439
848.6228	0.0769
848.7876	0.0551
848.9524	-0.0382
849.1172	-0.1122
849.2819	-0.0286
849.4466	-0.1891
849.6113	-0.0194
849.7759	0.0307
849.9406	-0.0727
850.1052	0.0344
850.2698	-0.0261
850.4344	-0.0119
850.599	-0.0811
850.7635	0.0581
850.928	-0.0421
851.0925	0.0193
851.257	0.0666
851.4215	-0.0266
851.5859	-0.091
851.7503	0.0185
851.9147	-0.0116
852.0791	-0.0499
852.2434	-0.0152
852.4078	0.0288
852.5721	0.028
852.7364	-0.0374
852.9007	-0.1637
853.0649	-0.027
853.2291	0.0021
853.3934	0.0209
853.5575	0.0336
853.7217	-0.0716
853.8859	-0.1568
854.05	-0.071
854.2141	0.0074
854.3782	-0.0804
854.5423	-0.0935
854.7063	0.1619
854.8703	-0.0114
855.0343	-0.07
855.1983	-0.1903
855.3623	0.1755
855.5262	-0.0758
855.6901	0.0119
855.854	0.0499
856.0179	0.039
856.1818	-0.0005
856.3456	-0.0807
856.5094	-0.0996
856.6732	0.1208
856.837	-0.0772
857.0008	0.0197
857.1645	-0.0729
857.3282	0.0102
857.4919	0.019
857.6556	-0.0651
857.8192	0.0629
857.9828	-0.0436
858.1465	0.0853
858.31	-0.1532
858.4736	0.029
858.6372	-0.2356
858.8007	-0.2985
858.9642	-0.0872
859.1277	-0.0904
859.2911	-0.0144
859.4546	-0.064
859.618	-0.4943
859.7814	-0.1277
859.9448	0.0449
860.1081	-0.1319
860.2715	0.1552
860.4348	0.1015
860.5981	-0.1265
860.7614	0.1169
860.9246	-0.1661
861.0879	-0.1875
861.2511	0.0448
861.4143	-0.3413
861.5774	0.1965
861.7406	-0.3116
861.9037	0.0588
862.0668	0.0952
862.2299	-0.08
862.393	-0.7297
862.556	0.2472
862.7191	-0.2104
862.8821	-0.1373
863.0451	-0.0223
863.208	0.9266
863.371	-0.0512
863.5339	-0.4241
863.6968	0.0626
863.8597	-0.3339
864.0225	0.0696
864.1854	-0
864.3482	0.2292
864.511	0.1024
864.6737	0.1188
864.8365	0.4157
864.9992	-0.3135
865.1619	-0.1333
865.3246	0.6142
865.4873	-0.0647
865.65	0.1634
865.8126	-0.1295
865.9752	0.1234
866.1378	-0.2501
866.3004	-0
866.4629	0.0533
866.6254	-0.0874
866.7879	0.0601
866.9504	-0
867.1129	0.6284
867.2753	0.3262
867.4377	0.0492
867.6001	1.9112
867.7625	-0.0658
867.9249	-0.1022
868.0872	0.1057
868.2495	1.4904
868.4118	-0.2521
868.5741	-0.2638
868.7363	-0.3945
868.8986	-0.2504
869.0608	-0.2302
869.223	-0.0479
869.3851	-0.2451
869.5473	-0
869.7094	0.1136
869.8715	-0.3353
870.0336	-0
870.1957	-0.5531
870.3577	-0
870.5197	-0.2045
870.6817	-0.4013
870.8437	-0.1831
871.0057	-0.8325
871.1676	-0
871.3295	-0.5213
871.4914	-0
871.6533	-0.4977
871.8151	-0.5498
871.977	-0
872.1388	-0
872.3006	-0.4058
872.4623	0.5306
872.6241	0.0158
872.7858	-0
872.9475	-0.0022
873.1092	-0.3147
873.2709	-0.0664
873.4325	0.1782
873.5941	-0
873.7557	-0
873.9173	-0.5154
874.0789	-0.4878
874.2404	-0
874.4019	0.0539
874.5634	-0.1416
874.7249	0.0269
874.8863	0.6721
875.0478	0.3798
875.2092	-0
875.3706	0.4887
875.5319	-1.0601
875.6933	-0
875.8546	0.2282
876.0159	-0
876.1772	0.7066
876.3385	-0
876.4997	0.2155
876.6609	-0.3796
876.8221	-0.3573
876.9833	0.239
877.1445	-0
877.3056	0.1135
877.4667	0.0216
877.6278	-0
877.7889	-0.8462
877.9499	-0
878.111	-0.8704
878.272	-0
878.433	-0.3889
878.5939	-0
878.7549	1.1903
878.9158	-0.5731
879.0767	0.5901
879.2376	0.3248
879.3984	-0
879.5593	-0
879.7201	-0
879.8809	-0.4747
880.0417	-0.4943
880.2024	0.1782
880.3632	-0
880.5239	0.1129
880.6846	1.4087
880.8452	-2.5999
881.0059	-1.699
881.1665	-0.033
881.3271	0.9862
881.4877	-0.3608
881.6483	-0.3765
881.8088	-0.301
881.9693	0.7597
882.1298	0.7597
882.2903	0.7597
