Data from MonoPyChalIsomerACN10uM360nmA_Absorbance_13-57-28-504.txt Node
Date: Fri Jul 05 13:57:28 BST 2024
User: LASERRRRR
Spectrometer: FLMT03099
Trigger mode: 0
Integration Time (sec): 1.000000E-1
Scans to average: 1
Electric dark correction enabled: true
Nonlinearity correction enabled: false
Boxcar width: 0
XAxis mode: Wavelengths
Number of Pixels in Spectrum: 3648
>>>>>Begin Spectral Data<<<<<
179.3399	0.29
179.5586	0.29
179.7771	0.29
179.9957	-0.0201
180.2143	-0.4135
180.4329	-0
180.6514	0.0756
180.8699	-0
181.0885	0.9628
181.307	0.3201
181.5255	-0
181.744	1.4367
181.9625	-0
182.181	-0
182.3994	0.4241
182.6179	0.2334
182.8363	-0.0861
183.0547	-0.4476
183.2732	0.0715
183.4916	0.415
183.71	0.1497
183.9284	0.0477
184.1467	-0.0292
184.3651	-0.0434
184.5835	-0.1301
184.8018	0.0911
185.0201	0.0595
185.2385	0.2164
185.4568	0.571
185.6751	0.4652
185.8934	0.2782
186.1117	0.2215
186.3299	0.2025
186.5482	-0.0568
186.7664	0.0921
186.9847	-0.0998
187.2029	-0.0332
187.4211	0.1255
187.6393	0.3264
187.8575	-0.16
188.0757	0.182
188.2939	0.0317
188.512	-0
188.7302	0.2709
188.9483	0.1032
189.1665	0.0893
189.3846	-0.1268
189.6027	0.0934
189.8208	0.2808
190.0389	0.2719
190.257	0.0353
190.475	0.1681
190.6931	0.2718
190.9111	0.4226
191.1292	0.0827
191.3472	0.3571
191.5652	0.3775
191.7832	0.2207
192.0012	0.5222
192.2192	0.3899
192.4371	0.4788
192.6551	0.4667
192.873	0.4712
193.091	0.2467
193.3089	0.5695
193.5268	-0
193.7447	0.5936
193.9626	0.3583
194.1805	0.6244
194.3984	0.9444
194.6162	0.5857
194.8341	0.5393
195.0519	0.5469
195.2697	0.7777
195.4875	0.65
195.7054	0.8514
195.9231	0.6158
196.1409	0.8003
196.3587	0.5593
196.5765	0.649
196.7942	0.7339
197.012	0.4761
197.2297	0.7014
197.4474	0.6676
197.6651	0.5364
197.8828	0.6257
198.1005	0.5986
198.3182	0.609
198.5358	0.8815
198.7535	0.6977
198.9711	0.6097
199.1888	0.5543
199.4064	0.6571
199.624	0.629
199.8416	0.4728
200.0592	0.6719
200.2767	0.6596
200.4943	0.7767
200.7119	0.8412
200.9294	0.6859
201.1469	0.6343
201.3645	0.5769
201.582	0.7225
201.7995	0.6681
202.017	0.7095
202.2344	0.5717
202.4519	0.6494
202.6694	0.56
202.8868	0.667
203.1042	0.7263
203.3217	0.6814
203.5391	0.5801
203.7565	0.7063
203.9739	0.6593
204.1913	0.5974
204.4086	0.7077
204.626	0.7661
204.8433	0.7452
205.0607	0.6449
205.278	0.6007
205.4953	0.6323
205.7126	0.6021
205.9299	0.8355
206.1472	0.6477
206.3644	0.6413
206.5817	0.7081
206.7989	0.7141
207.0162	0.601
207.2334	0.6772
207.4506	0.6581
207.6678	0.6805
207.885	0.6173
208.1022	0.5946
208.3194	0.7009
208.5365	0.6389
208.7537	0.645
208.9708	0.598
209.1879	0.6998
209.405	0.7349
209.6222	0.7307
209.8392	0.5567
210.0563	0.5769
210.2734	0.6585
210.4905	0.6145
210.7075	0.6028
210.9245	0.606
211.1416	0.6305
211.3586	0.6437
211.5756	0.55
211.7926	0.7113
212.0096	0.5439
212.2265	0.5918
212.4435	0.5574
212.6604	0.6135
212.8774	0.6129
213.0943	0.6355
213.3112	0.6005
213.5281	0.5428
213.745	0.4795
213.9619	0.4936
214.1788	0.4685
214.3956	0.4612
214.6125	0.4788
214.8293	0.4394
215.0461	0.5103
215.2629	0.4843
215.4798	0.4623
215.6965	0.4207
215.9133	0.4308
216.1301	0.442
216.3469	0.4234
216.5636	0.4176
216.7803	0.3806
216.9971	0.4043
217.2138	0.3761
217.4305	0.3645
217.6472	0.3727
217.8639	0.3423
218.0805	0.3326
218.2972	0.3158
218.5138	0.3324
218.7305	0.3363
218.9471	0.3266
219.1637	0.3114
219.3803	0.2815
219.5969	0.2994
219.8135	0.2676
220.0301	0.2851
220.2466	0.2859
220.4632	0.2713
220.6797	0.2526
220.8962	0.2524
221.1127	0.2782
221.3292	0.2605
221.5457	0.248
221.7622	0.2338
221.9787	0.274
222.1951	0.2509
222.4116	0.262
222.628	0.264
222.8444	0.2699
223.0608	0.2748
223.2772	0.2511
223.4936	0.263
223.71	0.2542
223.9264	0.2874
224.1427	0.2722
224.3591	0.2564
224.5754	0.2658
224.7917	0.2877
225.008	0.2713
225.2243	0.2462
225.4406	0.2932
225.6569	0.2756
225.8732	0.2586
226.0894	0.2835
226.3057	0.2897
226.5219	0.2995
226.7381	0.275
226.9543	0.3014
227.1705	0.2828
227.3867	0.2876
227.6029	0.2931
227.8191	0.3075
228.0352	0.3105
228.2513	0.3165
228.4675	0.321
228.6836	0.3021
228.8997	0.2898
229.1158	0.3273
229.3319	0.2848
229.548	0.3202
229.764	0.3257
229.9801	0.3328
230.1961	0.3287
230.4121	0.3449
230.6282	0.3266
230.8442	0.3272
231.0602	0.3504
231.2761	0.3343
231.4921	0.3475
231.7081	0.3591
231.924	0.3475
232.14	0.362
232.3559	0.3601
232.5718	0.3626
232.7877	0.3698
233.0036	0.3492
233.2195	0.3633
233.4353	0.3698
233.6512	0.368
233.867	0.388
234.0829	0.3661
234.2987	0.3579
234.5145	0.3569
234.7303	0.3644
234.9461	0.4151
235.1619	0.373
235.3776	0.3781
235.5934	0.4016
235.8091	0.3782
236.0249	0.3903
236.2406	0.3901
236.4563	0.3815
236.672	0.3839
236.8877	0.4117
237.1034	0.4046
237.319	0.3814
237.5347	0.4049
237.7503	0.3931
237.966	0.4116
238.1816	0.3934
238.3972	0.414
238.6128	0.4072
238.8284	0.4144
239.0439	0.4165
239.2595	0.4046
239.475	0.4085
239.6906	0.413
239.9061	0.4081
240.1216	0.4115
240.3371	0.4008
240.5526	0.4087
240.7681	0.4154
240.9836	0.399
241.199	0.412
241.4145	0.3892
241.6299	0.3949
241.8453	0.3858
242.0607	0.3892
242.2761	0.3649
242.4915	0.3759
242.7069	0.3572
242.9223	0.3608
243.1376	0.3568
243.353	0.3604
243.5683	0.3497
243.7836	0.3351
243.9989	0.3278
244.2142	0.3139
244.4295	0.3306
244.6448	0.3242
244.86	0.3014
245.0753	0.2881
245.2905	0.2883
245.5057	0.2738
245.721	0.2913
245.9362	0.2684
246.1514	0.2893
246.3665	0.2627
246.5817	0.2689
246.7969	0.2604
247.012	0.2493
247.2271	0.2453
247.4423	0.2411
247.6574	0.2441
247.8725	0.2506
248.0876	0.2257
248.3026	0.2328
248.5177	0.2298
248.7328	0.2046
248.9478	0.199
249.1628	0.2181
249.3779	0.2169
249.5929	0.201
249.8079	0.2244
250.0228	0.2051
250.2378	0.2018
250.4528	0.2003
250.6677	0.1803
250.8827	0.1878
251.0976	0.1832
251.3125	0.1963
251.5274	0.1752
251.7423	0.1861
251.9572	0.1858
252.172	0.2012
252.3869	0.1867
252.6017	0.1887
252.8166	0.1659
253.0314	0.1742
253.2462	0.1665
253.461	0.1748
253.6758	0.1662
253.8906	0.1783
254.1053	0.171
254.3201	0.171
254.5348	0.179
254.7496	0.1891
254.9643	0.166
255.179	0.174
255.3937	0.1611
255.6083	0.1736
255.823	0.1779
256.0377	0.168
256.2523	0.1653
256.467	0.1639
256.6816	0.178
256.8962	0.1676
257.1108	0.1614
257.3254	0.1792
257.54	0.1546
257.7545	0.1661
257.9691	0.1629
258.1836	0.1762
258.3981	0.1647
258.6127	0.1664
258.8272	0.1648
259.0417	0.1692
259.2561	0.1587
259.4706	0.1688
259.6851	0.1692
259.8995	0.1521
260.114	0.1656
260.3284	0.163
260.5428	0.1544
260.7572	0.1714
260.9716	0.1639
261.186	0.1604
261.4003	0.1636
261.6147	0.1699
261.829	0.1746
262.0433	0.1675
262.2577	0.1638
262.472	0.171
262.6863	0.1591
262.9005	0.1647
263.1148	0.1614
263.3291	0.1606
263.5433	0.1799
263.7576	0.1598
263.9718	0.1757
264.186	0.1696
264.4002	0.1602
264.6144	0.1552
264.8286	0.1711
265.0427	0.1522
265.2569	0.1674
265.471	0.1548
265.6851	0.1501
265.8993	0.1512
266.1134	0.1646
266.3275	0.151
266.5415	0.1547
266.7556	0.1597
266.9697	0.1697
267.1837	0.1628
267.3978	0.16
267.6118	0.1637
267.8258	0.1819
268.0398	0.1489
268.2538	0.1713
268.4677	0.1655
268.6817	0.1466
268.8957	0.1641
269.1096	0.1704
269.3235	0.1711
269.5374	0.1622
269.7514	0.1652
269.9652	0.1459
270.1791	0.1698
270.393	0.1396
270.6068	0.1552
270.8207	0.1496
271.0345	0.1462
271.2483	0.1543
271.4622	0.1477
271.676	0.1667
271.8897	0.1493
272.1035	0.1527
272.3173	0.1295
272.531	0.1367
272.7448	0.1488
272.9585	0.1486
273.1722	0.1573
273.3859	0.157
273.5996	0.1431
273.8133	0.1297
274.0269	0.1416
274.2406	0.1452
274.4542	0.1386
274.6679	0.1385
274.8815	0.1509
275.0951	0.1461
275.3087	0.1518
275.5223	0.1624
275.7358	0.1508
275.9494	0.1499
276.1629	0.1306
276.3765	0.1449
276.59	0.146
276.8035	0.151
277.017	0.1427
277.2305	0.1547
277.444	0.155
277.6574	0.141
277.8709	0.1508
278.0843	0.1451
278.2978	0.1502
278.5112	0.1525
278.7246	0.1513
278.938	0.1594
279.1513	0.151
279.3647	0.1593
279.5781	0.1377
279.7914	0.1604
280.0047	0.1651
280.2181	0.1531
280.4314	0.1522
280.6447	0.1592
280.8579	0.1565
281.0712	0.1618
281.2845	0.1676
281.4977	0.1633
281.711	0.144
281.9242	0.1567
282.1374	0.1496
282.3506	0.1481
282.5638	0.1711
282.7769	0.154
282.9901	0.1443
283.2033	0.169
283.4164	0.1702
283.6295	0.1546
283.8426	0.1578
284.0557	0.1592
284.2688	0.1749
284.4819	0.1609
284.695	0.1487
284.908	0.1664
285.1211	0.1476
285.3341	0.1536
285.5471	0.1614
285.7601	0.1513
285.9731	0.1583
286.1861	0.1511
286.3991	0.1677
286.612	0.173
286.825	0.1724
287.0379	0.1764
287.2508	0.1712
287.4637	0.1646
287.6766	0.1647
287.8895	0.1777
288.1024	0.1882
288.3152	0.176
288.5281	0.145
288.7409	0.1628
288.9538	0.1559
289.1666	0.1606
289.3794	0.1674
289.5922	0.1527
289.8049	0.161
290.0177	0.1583
290.2304	0.1661
290.4432	0.1689
290.6559	0.1753
290.8686	0.1683
291.0813	0.1612
291.294	0.1665
291.5067	0.1736
291.7194	0.159
291.932	0.1721
292.1447	0.1574
292.3573	0.1583
292.5699	0.1696
292.7825	0.1648
292.9951	0.1627
293.2077	0.1728
293.4203	0.1609
293.6328	0.1545
293.8454	0.1784
294.0579	0.1642
294.2704	0.1665
294.4829	0.1688
294.6954	0.1722
294.9079	0.1659
295.1204	0.1535
295.3328	0.1737
295.5453	0.1769
295.7577	0.1695
295.9701	0.1528
296.1825	0.1659
296.3949	0.1559
296.6073	0.1583
296.8197	0.159
297.0321	0.1705
297.2444	0.1592
297.4567	0.171
297.6691	0.1613
297.8814	0.1633
298.0937	0.1579
298.306	0.1684
298.5182	0.1618
298.7305	0.1675
298.9428	0.1556
299.155	0.1732
299.3672	0.1616
299.5794	0.1623
299.7916	0.1589
300.0038	0.1703
300.216	0.1626
300.4282	0.1664
300.6403	0.1584
300.8525	0.182
301.0646	0.1582
301.2767	0.1567
301.4888	0.1587
301.7009	0.1607
301.913	0.1601
302.125	0.1691
302.3371	0.1527
302.5491	0.1538
302.7612	0.1788
302.9732	0.1646
303.1852	0.1661
303.3972	0.1604
303.6092	0.1502
303.8211	0.1531
304.0331	0.1646
304.245	0.1499
304.457	0.1554
304.6689	0.1505
304.8808	0.1633
305.0927	0.1539
305.3046	0.1602
305.5164	0.1481
305.7283	0.1475
305.9401	0.1396
306.152	0.1421
306.3638	0.1563
306.5756	0.1516
306.7874	0.1513
306.9992	0.1369
307.2109	0.1329
307.4227	0.1257
307.6344	0.14
307.8462	0.1433
308.0579	0.1355
308.2696	0.134
308.4813	0.1308
308.693	0.1238
308.9046	0.1431
309.1163	0.1371
309.328	0.1255
309.5396	0.1316
309.7512	0.1246
309.9628	0.1284
310.1744	0.1215
310.386	0.1259
310.5976	0.1103
310.8091	0.1198
311.0207	0.121
311.2322	0.1269
311.4437	0.1119
311.6552	0.112
311.8667	0.1135
312.0782	0.1039
312.2897	0.1005
312.5012	0.1134
312.7126	0.1044
312.924	0.107
313.1355	0.1183
313.3469	0.1153
313.5583	0.1176
313.7696	0.1076
313.981	0.1015
314.1924	0.1071
314.4037	0.1088
314.6151	0.1077
314.8264	0.0845
315.0377	0.0974
315.249	0.0987
315.4603	0.114
315.6716	0.1016
315.8828	0.0935
316.0941	0.1039
316.3053	0.101
316.5165	0.1018
316.7277	0.0908
316.9389	0.1091
317.1501	0.0909
317.3613	0.1028
317.5724	0.0827
317.7836	0.1025
317.9947	0.0942
318.2058	0.0933
318.417	0.0965
318.6281	0.0882
318.8391	0.0971
319.0502	0.0943
319.2613	0.0973
319.4723	0.1027
319.6834	0.1071
319.8944	0.0952
320.1054	0.1044
320.3164	0.0954
320.5274	0.0902
320.7383	0.0903
320.9493	0.1105
321.1602	0.1134
321.3712	0.0826
321.5821	0.0955
321.793	0.1016
322.0039	0.0954
322.2148	0.0924
322.4257	0.1053
322.6365	0.1102
322.8474	0.0995
323.0582	0.1006
323.269	0.0918
323.4798	0.0931
323.6906	0.1008
323.9014	0.0988
324.1122	0.1049
324.3229	0.1065
324.5337	0.1031
324.7444	0.0964
324.9551	0.1123
325.1658	0.1036
325.3765	0.1032
325.5872	0.1069
325.7979	0.1033
326.0085	0.1069
326.2192	0.1023
326.4298	0.1056
326.6404	0.0978
326.851	0.0983
327.0616	0.0964
327.2722	0.1107
327.4828	0.1154
327.6933	0.1075
327.9039	0.1004
328.1144	0.1165
328.3249	0.1038
328.5354	0.1044
328.7459	0.1057
328.9564	0.0951
329.1669	0.1043
329.3773	0.1059
329.5878	0.1043
329.7982	0.1096
330.0086	0.1086
330.219	0.107
330.4294	0.111
330.6398	0.1065
330.8502	0.0981
331.0605	0.1066
331.2708	0.1108
331.4812	0.1233
331.6915	0.1178
331.9018	0.1141
332.1121	0.1052
332.3224	0.1073
332.5326	0.1186
332.7429	0.1046
332.9531	0.1074
333.1633	0.1085
333.3735	0.1026
333.5837	0.1064
333.7939	0.1125
334.0041	0.1189
334.2143	0.1194
334.4244	0.0943
334.6346	0.0907
334.8447	0.1234
335.0548	0.1073
335.2649	0.1062
335.475	0.1185
335.685	0.1033
335.8951	0.1227
336.1051	0.1151
336.3152	0.1168
336.5252	0.1084
336.7352	0.1148
336.9452	0.1148
337.1552	0.1195
337.3652	0.1092
337.5751	0.1079
337.7851	0.1221
337.995	0.105
338.2049	0.1139
338.4148	0.1274
338.6247	0.1228
338.8346	0.1127
339.0445	0.1003
339.2543	0.1157
339.4642	0.1167
339.674	0.1051
339.8838	0.1132
340.0936	0.1173
340.3034	0.1228
340.5132	0.1131
340.7229	0.1213
340.9327	0.1174
341.1424	0.1229
341.3522	0.1286
341.5619	0.1254
341.7716	0.1223
341.9813	0.1241
342.1909	0.1148
342.4006	0.1259
342.6102	0.1271
342.8199	0.1304
343.0295	0.1225
343.2391	0.1287
343.4487	0.1303
343.6583	0.1331
343.8679	0.1112
344.0774	0.1218
344.287	0.1254
344.4965	0.127
344.706	0.1349
344.9155	0.1323
345.125	0.1211
345.3345	0.1225
345.544	0.1286
345.7534	0.1243
345.9629	0.1148
346.1723	0.1177
346.3817	0.1204
346.5911	0.1255
346.8005	0.1402
347.0099	0.1314
347.2193	0.1284
347.4286	0.1364
347.638	0.1359
347.8473	0.1418
348.0566	0.1365
348.2659	0.1446
348.4752	0.1329
348.6845	0.1339
348.8937	0.1281
349.103	0.1457
349.3122	0.1235
349.5214	0.1241
349.7306	0.1329
349.9398	0.1343
350.149	0.1348
350.3582	0.1373
350.5674	0.1521
350.7765	0.1242
350.9856	0.1379
351.1948	0.1518
351.4039	0.1251
351.613	0.1426
351.822	0.1533
352.0311	0.1554
352.2402	0.1484
352.4492	0.146
352.6582	0.1499
352.8672	0.1432
353.0762	0.1481
353.2852	0.1458
353.4942	0.147
353.7032	0.148
353.9121	0.1445
354.1211	0.1621
354.33	0.1643
354.5389	0.1546
354.7478	0.1496
354.9567	0.1485
355.1655	0.1352
355.3744	0.1569
355.5833	0.1686
355.7921	0.1686
356.0009	0.158
356.2097	0.1671
356.4185	0.1761
356.6273	0.1589
356.8361	0.1716
357.0448	0.1621
357.2536	0.1534
357.4623	0.1567
357.671	0.1603
357.8797	0.1678
358.0884	0.1718
358.2971	0.1641
358.5057	0.1609
358.7144	0.174
358.923	0.1588
359.1316	0.1591
359.3402	0.1691
359.5488	0.1647
359.7574	0.163
359.966	0.1742
360.1746	0.1687
360.3831	0.1822
360.5916	0.1676
360.8002	0.1545
361.0087	0.175
361.2172	0.1731
361.4256	0.1776
361.6341	0.1745
361.8426	0.1786
362.051	0.1725
362.2594	0.1708
362.4678	0.1837
362.6762	0.2041
362.8846	0.1875
363.093	0.1815
363.3014	0.177
363.5097	0.1743
363.718	0.1686
363.9264	0.1867
364.1347	0.1766
364.343	0.1802
364.5513	0.2028
364.7595	0.2166
364.9678	0.1849
365.176	0.1888
365.3842	0.1935
365.5925	0.1998
365.8007	0.1913
366.0089	0.195
366.217	0.1895
366.4252	0.2036
366.6333	0.2206
366.8415	0.1966
367.0496	0.2007
367.2577	0.2145
367.4658	0.205
367.6739	0.2161
367.882	0.2161
368.09	0.2056
368.2981	0.2105
368.5061	0.197
368.7141	0.2099
368.9221	0.2184
369.1301	0.2159
369.3381	0.2011
369.5461	0.2202
369.754	0.2115
369.962	0.2114
370.1699	0.2242
370.3778	0.2291
370.5857	0.1908
370.7936	0.2121
371.0015	0.2053
371.2093	0.2268
371.4172	0.2243
371.625	0.2071
371.8328	0.2198
372.0406	0.2195
372.2484	0.2246
372.4562	0.2084
372.664	0.194
372.8717	0.2384
373.0795	0.1937
373.2872	0.2072
373.4949	0.2168
373.7026	0.2172
373.9103	0.2227
374.118	0.2267
374.3256	0.2348
374.5333	0.2215
374.7409	0.2224
374.9485	0.2345
375.1561	0.2197
375.3637	0.2345
375.5713	0.2198
375.7789	0.2375
375.9864	0.2333
376.194	0.2396
376.4015	0.2439
376.609	0.2508
376.8165	0.24
377.024	0.2229
377.2315	0.218
377.4389	0.2365
377.6464	0.2315
377.8538	0.2368
378.0612	0.2435
378.2686	0.227
378.476	0.2532
378.6834	0.2613
378.8908	0.2416
379.0981	0.2366
379.3055	0.2535
379.5128	0.2444
379.7201	0.2481
379.9274	0.2231
380.1347	0.2381
380.342	0.2546
380.5492	0.253
380.7565	0.2424
380.9637	0.2603
381.1709	0.2561
381.3781	0.249
381.5853	0.264
381.7925	0.2729
381.9997	0.2568
382.2068	0.2489
382.4139	0.2414
382.6211	0.2407
382.8282	0.2477
383.0353	0.2533
383.2424	0.2528
383.4494	0.268
383.6565	0.2472
383.8635	0.2421
384.0706	0.2423
384.2776	0.2603
384.4846	0.2388
384.6916	0.2618
384.8986	0.2458
385.1055	0.2612
385.3125	0.2606
385.5194	0.2313
385.7263	0.2585
385.9333	0.2721
386.1402	0.2396
386.347	0.2584
386.5539	0.2285
386.7608	0.2561
386.9676	0.2304
387.1744	0.2538
387.3813	0.2455
387.5881	0.265
387.7948	0.2388
388.0016	0.2598
388.2084	0.2493
388.4151	0.2461
388.6219	0.2651
388.8286	0.2391
389.0353	0.2535
389.242	0.2408
389.4487	0.2442
389.6553	0.2227
389.862	0.2286
390.0686	0.23
390.2753	0.2446
390.4819	0.2494
390.6885	0.244
390.8951	0.2512
391.1016	0.2355
391.3082	0.2197
391.5147	0.2398
391.7213	0.2357
391.9278	0.2359
392.1343	0.2408
392.3408	0.2382
392.5473	0.2348
392.7537	0.2357
392.9602	0.2288
393.1666	0.2233
393.373	0.2222
393.5794	0.2374
393.7858	0.2372
393.9922	0.2013
394.1986	0.231
394.4049	0.2266
394.6113	0.2035
394.8176	0.2087
395.0239	0.2101
395.2302	0.2182
395.4365	0.2127
395.6428	0.234
395.8491	0.2066
396.0553	0.2216
396.2615	0.2219
396.4678	0.2212
396.674	0.2059
396.8802	0.2155
397.0863	0.2252
397.2925	0.2227
397.4987	0.2029
397.7048	0.2176
397.9109	0.2068
398.117	0.211
398.3231	0.208
398.5292	0.222
398.7353	0.2058
398.9413	0.2041
399.1474	0.2074
399.3534	0.2071
399.5594	0.2114
399.7654	0.2204
399.9714	0.2172
400.1774	0.2138
400.3833	0.198
400.5893	0.2177
400.7952	0.2087
401.0011	0.2035
401.207	0.2128
401.4129	0.2145
401.6188	0.2378
401.8247	0.2144
402.0305	0.2026
402.2364	0.2056
402.4422	0.2309
402.648	0.2184
402.8538	0.2208
403.0596	0.1995
403.2654	0.2016
403.4711	0.2127
403.6768	0.2076
403.8826	0.2123
404.0883	0.2132
404.294	0.21
404.4997	0.2167
404.7054	0.2023
404.911	0.208
405.1167	0.1967
405.3223	0.2185
405.5279	0.2209
405.7335	0.2116
405.9391	0.224
406.1447	0.1973
406.3502	0.2183
406.5558	0.2053
406.7613	0.221
406.9668	0.206
407.1724	0.2145
407.3778	0.21
407.5833	0.1998
407.7888	0.1871
407.9942	0.2194
408.1997	0.2028
408.4051	0.2048
408.6105	0.1925
408.8159	0.2109
409.0213	0.1905
409.2267	0.2265
409.432	0.1966
409.6374	0.2137
409.8427	0.2024
410.048	0.2124
410.2533	0.2054
410.4586	0.2131
410.6639	0.1946
410.8691	0.1993
411.0744	0.192
411.2796	0.2022
411.4848	0.2052
411.69	0.1984
411.8952	0.2126
412.1004	0.1865
412.3056	0.1986
412.5107	0.1882
412.7158	0.2196
412.921	0.2193
413.1261	0.2172
413.3312	0.1933
413.5362	0.2026
413.7413	0.2189
413.9464	0.1942
414.1514	0.1917
414.3564	0.2068
414.5614	0.1854
414.7664	0.2081
414.9714	0.206
415.1764	0.1951
415.3813	0.2066
415.5863	0.2023
415.7912	0.2012
415.9961	0.201
416.201	0.1987
416.4059	0.191
416.6108	0.1875
416.8156	0.2129
417.0205	0.191
417.2253	0.1889
417.4301	0.1925
417.6349	0.2163
417.8397	0.1838
418.0445	0.212
418.2492	0.1899
418.454	0.1997
418.6587	0.2116
418.8634	0.1907
419.0681	0.1877
419.2728	0.1865
419.4775	0.1942
419.6822	0.1823
419.8868	0.1707
420.0915	0.1964
420.2961	0.1748
420.5007	0.1733
420.7053	0.189
420.9099	0.1852
421.1144	0.1727
421.319	0.1729
421.5235	0.2022
421.728	0.1979
421.9325	0.1795
422.137	0.192
422.3415	0.1842
422.546	0.2036
422.7504	0.1824
422.9549	0.1911
423.1593	0.1913
423.3637	0.1968
423.5681	0.194
423.7725	0.1777
423.9769	0.1737
424.1812	0.1699
424.3856	0.1717
424.5899	0.1709
424.7942	0.1749
424.9985	0.1888
425.2028	0.1734
425.4071	0.2166
425.6113	0.1542
425.8156	0.1728
426.0198	0.183
426.224	0.1567
426.4282	0.1562
426.6324	0.1555
426.8366	0.169
427.0407	0.1738
427.2449	0.1562
427.449	0.1605
427.6531	0.1326
427.8572	0.1672
428.0613	0.1689
428.2654	0.166
428.4694	0.1454
428.6735	0.1495
428.8775	0.1623
429.0815	0.1601
429.2855	0.1657
429.4895	0.1557
429.6935	0.1586
429.8975	0.1506
430.1014	0.1391
430.3053	0.1418
430.5093	0.1249
430.7132	0.1252
430.9171	0.1384
431.1209	0.1309
431.3248	0.1421
431.5286	0.137
431.7325	0.1383
431.9363	0.14
432.1401	0.1369
432.3439	0.1163
432.5477	0.1155
432.7514	0.1221
432.9552	0.1257
433.1589	0.1124
433.3627	0.1117
433.5664	0.1305
433.7701	0.127
433.9737	0.1175
434.1774	0.0983
434.3811	0.1032
434.5847	0.1236
434.7883	0.1046
434.9919	0.0964
435.1955	0.099
435.3991	0.1123
435.6027	0.1125
435.8062	0.1051
436.0098	0.1101
436.2133	0.1031
436.4168	0.0974
436.6203	0.1075
436.8238	0.0985
437.0272	0.099
437.2307	0.098
437.4341	0.1082
437.6375	0.0975
437.841	0.0722
438.0443	0.1016
438.2477	0.0961
438.4511	0.0855
438.6545	0.0995
438.8578	0.1033
439.0611	0.0831
439.2644	0.083
439.4677	0.0787
439.671	0.066
439.8743	0.0761
440.0775	0.0832
440.2808	0.0855
440.484	0.0645
440.6872	0.0674
440.8904	0.0637
441.0936	0.0862
441.2967	0.0769
441.4999	0.0819
441.703	0.0738
441.9062	0.0749
442.1093	0.0506
442.3124	0.0645
442.5155	0.0666
442.7185	0.0717
442.9216	0.0395
443.1246	0.0728
443.3276	0.0457
443.5307	0.0636
443.7337	0.0694
443.9366	0.056
444.1396	0.0518
444.3426	0.0533
444.5455	0.0453
444.7484	0.0494
444.9513	0.0309
445.1542	0.0642
445.3571	0.0485
445.56	0.0519
445.7628	0.0458
445.9657	0.0531
446.1685	0.0717
446.3713	0.0516
446.5741	0.0432
446.7769	0.0418
446.9797	0.0434
447.1824	0.0527
447.3852	0.035
447.5879	0.0386
447.7906	0.0514
447.9933	0.0385
448.196	0.0307
448.3986	0.0356
448.6013	0.0402
448.8039	0.0098
449.0066	0.0309
449.2092	0.0382
449.4118	0.0245
449.6143	0.0446
449.8169	0.0434
450.0195	0.0266
450.222	0.0078
450.4245	0.0331
450.627	0.0239
450.8295	0.0279
451.032	0.0273
451.2345	0.0354
451.4369	0.0452
451.6394	0.0266
451.8418	0.0002
452.0442	0.0118
452.2466	0.0375
452.449	0.0147
452.6513	0.0235
452.8537	0.0126
453.056	0.018
453.2583	0.0129
453.4607	0.0178
453.663	0.0145
453.8652	0.028
454.0675	0.0213
454.2697	0.0319
454.472	0.0106
454.6742	0.0229
454.8764	0.0131
455.0786	0.0247
455.2808	0.0188
455.4829	0.0123
455.6851	0.0257
455.8872	0.0334
456.0893	0.0198
456.2915	-0.0024
456.4935	0.0304
456.6956	0.0143
456.8977	0.0101
457.0997	0.0101
457.3018	0.0067
457.5038	0.0197
457.7058	0.0234
457.9078	0.0146
458.1098	0.0248
458.3117	0.0138
458.5137	0.0224
458.7156	0.0247
458.9175	0.0022
459.1194	-0.0022
459.3213	0.0083
459.5232	0.007
459.725	0.0034
459.9269	-0.0019
460.1287	0.0063
460.3305	0.0016
460.5323	0.0059
460.7341	0.0206
460.9359	0.0087
461.1376	-0.0004
461.3394	0.0019
461.5411	0.0207
461.7428	-0.0013
461.9445	-0.0001
462.1462	0.0169
462.3479	0.0042
462.5495	0.0121
462.7512	0.0243
462.9528	0.0032
463.1544	-0.0054
463.356	0.0128
463.5576	0.0064
463.7592	0.0068
463.9607	-0.0013
464.1623	0.0206
464.3638	0.0321
464.5653	-0.0123
464.7668	0.0022
464.9683	0.0086
465.1697	0.0093
465.3712	0.0023
465.5726	-0.0165
465.7741	0.0144
465.9755	-0.0002
466.1769	0.0002
466.3782	-0.0015
466.5796	-0.0045
466.7809	0.017
466.9823	0.0041
467.1836	0.0001
467.3849	0.0035
467.5862	0.0103
467.7875	-0.0059
467.9887	0.0136
468.19	0.0111
468.3912	-0.0095
468.5924	-0.012
468.7936	0.0002
468.9948	0.001
469.196	0.0099
469.3972	-0.015
469.5983	0.0033
469.7994	-0.0143
470.0006	-0.0054
470.2017	-0.013
470.4027	0.0011
470.6038	0.0039
470.8049	-0.0151
471.0059	0.0017
471.2069	-0.015
471.408	0.025
471.6089	0.0014
471.8099	0.0031
472.0109	0.0066
472.2119	0.0009
472.4128	-0.01
472.6137	0.0037
472.8146	-0.0253
473.0155	-0.0042
473.2164	0.009
473.4173	0.0035
473.6181	0.0125
473.819	0.0091
474.0198	-0.0023
474.2206	-0.0019
474.4214	-0.0031
474.6222	-0.0059
474.8229	-0.0042
475.0237	-0.0134
475.2244	-0.0015
475.4251	-0.0015
475.6258	0.0073
475.8265	0.0014
476.0272	0.0124
476.2278	-0.0076
476.4285	0.0052
476.6291	-0.0062
476.8297	-0.0012
477.0303	0.0021
477.2309	-0.0036
477.4315	-0.0084
477.632	0.0043
477.8326	0.0055
478.0331	-0.001
478.2336	-0.001
478.4341	0.0009
478.6346	0.0079
478.8351	-0.0067
479.0355	-0.0028
479.236	-0.0126
479.4364	0.0038
479.6368	-0.0115
479.8372	-0.0093
480.0376	0.0067
480.2379	-0.028
480.4383	-0.0135
480.6386	-0.0041
480.8389	-0.0014
481.0392	-0.0049
481.2395	-0.0061
481.4398	0.0006
481.6401	-0.0033
481.8403	-0.0053
482.0405	-0.0094
482.2408	0.0006
482.441	0.0098
482.6411	-0.0038
482.8413	-0.0001
483.0415	-0.0151
483.2416	-0.0148
483.4417	-0.0151
483.6419	-0.0004
483.8419	-0.0092
484.042	0.0041
484.2421	-0.0031
484.4422	0.0036
484.6422	0.0013
484.8422	-0.0029
485.0422	-0.007
485.2422	0.0048
485.4422	-0.0127
485.6422	-0.0068
485.8421	0.0034
486.042	-0.0005
486.242	-0.0008
486.4419	-0.0101
486.6417	-0.0142
486.8416	0.0021
487.0415	-0.0033
487.2413	0.001
487.4411	-0.0001
487.641	-0.0031
487.8408	0.008
488.0405	-0.0099
488.2403	-0.008
488.4401	0.0024
488.6398	-0.0055
488.8395	-0.0127
489.0392	-0.0033
489.2389	-0.0128
489.4386	-0.0039
489.6383	-0.0091
489.8379	-0.0082
490.0376	-0.0082
490.2372	-0.0103
490.4368	-0.0092
490.6364	-0.0011
490.836	-0.0114
491.0355	-0.0053
491.2351	-0.0138
491.4346	-0.0131
491.6341	-0.0134
491.8336	-0.0078
492.0331	-0.0231
492.2326	-0.0119
492.432	-0.0009
492.6315	-0.0166
492.8309	-0.015
493.0303	-0.0136
493.2297	-0.0086
493.4291	-0.004
493.6284	0.0067
493.8278	0.0011
494.0271	-0.0029
494.2264	0.0013
494.4257	0.0031
494.625	0.002
494.8243	-0.0202
495.0236	-0.014
495.2228	-0.0072
495.422	0.0049
495.6213	-0.0051
495.8205	-0.0012
496.0196	-0.0082
496.2188	-0.0083
496.418	-0.0096
496.6171	-0.0106
496.8162	-0.0166
497.0153	-0.0003
497.2144	-0.0072
497.4135	-0.0081
497.6126	-0.0173
497.8116	-0.0122
498.0107	-0.0033
498.2097	-0.0201
498.4087	-0.0099
498.6077	-0.0031
498.8067	-0.0057
499.0056	-0.0001
499.2046	-0.0085
499.4035	-0.0215
499.6024	-0.0061
499.8013	0.0001
500.0002	-0.0102
500.199	-0.0009
500.3979	-0.0091
500.5967	-0.0216
500.7956	-0.0011
500.9944	-0.0042
501.1932	-0.0093
501.3919	-0.0101
501.5907	-0.0091
501.7895	-0.0133
501.9882	-0.0109
502.1869	-0.0164
502.3856	-0.0039
502.5843	-0.0008
502.783	-0.0079
502.9816	-0.0077
503.1803	-0.0223
503.3789	-0.0125
503.5775	-0.0037
503.7761	-0.0104
503.9747	-0.0001
504.1732	-0.0123
504.3718	-0.006
504.5703	-0.0004
504.7689	-0.0133
504.9674	0.0007
505.1658	-0.0106
505.3643	-0.0085
505.5628	-0.0016
505.7612	-0.0075
505.9597	0.0127
506.1581	-0.0084
506.3565	0.0065
506.5549	-0.0102
506.7532	-0.0191
506.9516	-0.0031
507.1499	0.0035
507.3482	-0.0128
507.5465	-0.0096
507.7448	-0.0135
507.9431	-0.0054
508.1414	0.0097
508.3396	-0.0102
508.5379	-0.008
508.7361	-0.0069
508.9343	-0.0054
509.1325	0.0004
509.3306	0.0006
509.5288	-0.0086
509.7269	-0.0096
509.9251	-0.0054
510.1232	-0.0058
510.3213	-0.0028
510.5193	-0.0053
510.7174	-0.0043
510.9154	-0.0153
511.1135	-0.0084
511.3115	-0.0043
511.5095	-0.0031
511.7075	-0.0095
511.9055	-0.0076
512.1034	-0.0072
512.3014	0.0012
512.4993	-0.0037
512.6972	-0.014
512.8951	-0.0153
513.093	-0.0041
513.2908	0.001
513.4887	-0.0013
513.6865	-0.0012
513.8844	-0.0071
514.0822	-0.0071
514.2799	-0.0072
514.4777	-0.0133
514.6755	-0.007
514.8732	0.0008
515.0709	-0.0029
515.2687	-0.0116
515.4664	0.0015
515.664	-0.0006
515.8617	-0.0081
516.0594	-0.0123
516.257	-0.0017
516.4546	-0.0196
516.6522	-0.0052
516.8498	0.0011
517.0474	0.0038
517.2449	0.0023
517.4425	-0.0202
517.64	-0.0064
517.8375	0.0059
518.035	0.0039
518.2325	-0.0163
518.43	-0.0119
518.6274	-0.008
518.8249	-0.0249
519.0223	-0.0015
519.2197	-0.0079
519.4171	-0.0216
519.6145	-0.0122
519.8118	0.0007
520.0092	-0.0137
520.2065	-0.0124
520.4038	-0.0091
520.6011	-0.0073
520.7984	-0.0126
520.9956	-0.0104
521.1929	-0.007
521.3901	-0.0029
521.5874	-0.0067
521.7846	-0.0108
521.9818	-0.0172
522.1789	-0.0083
522.3761	-0.0113
522.5732	-0.0096
522.7704	-0.0148
522.9675	0.0059
523.1646	-0.0112
523.3617	-0.0049
523.5587	0.0011
523.7558	-0.0071
523.9528	-0.0107
524.1498	-0.0027
524.3468	0.0002
524.5438	0.0017
524.7408	0.0015
524.9378	-0.0039
525.1347	0.0072
525.3316	0.0058
525.5285	-0.0065
525.7254	-0.0005
525.9223	0.0068
526.1192	-0.0104
526.316	-0.0131
526.5129	-0.0033
526.7097	-0.0001
526.9065	-0.0126
527.1033	-0.0112
527.3	0.0004
527.4968	-0.0088
527.6935	-0.0018
527.8903	-0.0203
528.087	-0.002
528.2837	-0.0048
528.4804	0.0015
528.677	-0.0032
528.8737	0.0102
529.0703	-0.0002
529.2669	0.0048
529.4635	-0.0163
529.6601	-0.0042
529.8567	-0.0001
530.0532	-0.0043
530.2498	-0.0074
530.4463	0.0031
530.6428	0.0024
530.8393	0.0023
531.0358	-0.0124
531.2322	-0.0054
531.4287	0.0012
531.6251	-0.0103
531.8215	0.0092
532.0179	-0.0023
532.2143	-0.0004
532.4107	-0.0059
532.607	-0.0039
532.8034	0
532.9997	0.0059
533.196	-0.0083
533.3923	-0.0102
533.5886	-0.005
533.7848	-0.0016
533.9811	-0.0015
534.1773	0
534.3735	0.0016
534.5697	-0.0075
534.7659	-0.0047
534.9621	0.0027
535.1582	-0.0084
535.3544	0.0052
535.5505	-0.0086
535.7466	0.0061
535.9427	-0.0071
536.1387	-0.0007
536.3348	-0.0025
536.5308	0.0051
536.7269	-0.0118
536.9229	-0.0016
537.1189	-0.0144
537.3148	-0.0079
537.5108	-0.0024
537.7068	-0.0044
537.9027	-0.0008
538.0986	-0.0107
538.2945	-0.0098
538.4904	-0.0101
538.6863	-0.0134
538.8821	-0.0167
539.078	-0.0077
539.2738	-0.0025
539.4696	-0.0111
539.6654	0.002
539.8611	0.0101
540.0569	-0.0072
540.2526	-0.0069
540.4484	-0.0033
540.6441	0.0137
540.8398	0.0107
541.0355	0.0046
541.2311	-0.0062
541.4268	-0.0037
541.6224	0.0096
541.818	-0.0023
542.0136	-0.0057
542.2092	0.0057
542.4048	-0.0014
542.6003	0.0046
542.7959	-0.002
542.9914	0.0014
543.1869	-0.0051
543.3824	-0.0049
543.5779	-0.0069
543.7734	-0.0073
543.9688	-0.011
544.1642	-0.0017
544.3596	0.0004
544.555	0.0015
544.7504	-0.0104
544.9458	0.0024
545.1411	-0.0075
545.3365	0.0027
545.5318	-0.0074
545.7271	0.0007
545.9224	-0.0078
546.1177	-0.0057
546.3129	-0.0044
546.5081	-0.0045
546.7034	-0.0036
546.8986	-0.0057
547.0938	-0.0057
547.289	0.0011
547.4841	0.0028
547.6793	0.0017
547.8744	-0.0035
548.0695	-0.0012
548.2646	-0.0086
548.4597	-0.0046
548.6548	-0.004
548.8498	0.003
549.0448	0.003
549.2399	-0.0026
549.4349	0.0031
549.6298	-0.0027
549.8248	0.002
550.0198	-0.0007
550.2147	-0.0044
550.4096	-0.0042
550.6045	-0.003
550.7994	0.0007
550.9943	0.0049
551.1892	-0.0082
551.384	0.0096
551.5788	-0.0088
551.7737	0.0036
551.9685	-0.0073
552.1632	0.001
552.358	-0.0045
552.5528	0.0056
552.7475	-0.0029
552.9422	-0.0027
553.1369	-0.0054
553.3316	-0.0005
553.5263	-0.0118
553.7209	0.0067
553.9156	-0.0025
554.1102	0
554.3048	-0.0053
554.4994	0.0023
554.694	0.0015
554.8885	0.0046
555.0831	-0.0115
555.2776	-0.0015
555.4721	-0.007
555.6666	-0.0083
555.8611	0.0052
556.0555	-0.003
556.25	-0.0009
556.4444	-0.0035
556.6388	0.0051
556.8332	0.0064
557.0276	0.0021
557.222	-0.0033
557.4163	0.0006
557.6107	0.0041
557.805	0.0036
557.9993	-0.0012
558.1936	-0.0033
558.3879	0.0009
558.5821	0.0093
558.7764	-0.0075
558.9706	0.0021
559.1648	0.0061
559.359	-0.0044
559.5532	-0.0013
559.7473	-0.0017
559.9415	-0.0058
560.1356	-0.0032
560.3297	-0.0139
560.5238	-0.0041
560.7179	-0.0008
560.9119	-0.0027
561.106	-0.0032
561.3	-0.0082
561.494	0.0011
561.688	-0.009
561.882	-0.0099
562.076	-0.0007
562.2699	0.0101
562.4639	0.0018
562.6578	0.0005
562.8517	-0.0023
563.0456	0.0029
563.2395	-0.0024
563.4333	0.003
563.6272	0.003
563.821	-0.0155
564.0148	-0.0021
564.2086	-0.0061
564.4024	0.0022
564.5961	-0.0026
564.7899	0.0085
564.9836	0.0016
565.1773	-0
565.371	0.0052
565.5647	-0.0039
565.7584	0.0034
565.952	0.0037
566.1456	0.0065
566.3393	-0.0081
566.5329	-0.0034
566.7264	-0.0032
566.92	-0.0116
567.1136	0.0009
567.3071	-0.0015
567.5006	0.01
567.6941	0.0027
567.8876	-0.0036
568.0811	0.0012
568.2745	-0.0009
568.468	0.008
568.6614	-0.0008
568.8548	0.0065
569.0482	0.0002
569.2416	0.0009
569.4349	0.0058
569.6283	0.0059
569.8216	0.0011
570.0149	-0.0047
570.2082	0.0069
570.4015	0.0054
570.5947	0.0045
570.788	0.0052
570.9812	0.0064
571.1744	0.0032
571.3676	0.0003
571.5608	-0.0039
571.754	-0.0013
571.9471	0.0026
572.1402	0.0037
572.3333	-0.0003
572.5264	-0.0086
572.7195	-0.0056
572.9126	0.0038
573.1057	-0.0011
573.2987	0.0039
573.4917	0.0029
573.6847	-0.0069
573.8777	0.0079
574.0707	0.0083
574.2636	-0.005
574.4566	0.0048
574.6495	0.0026
574.8424	-0.0036
575.0353	-0.0001
575.2281	0.0091
575.421	0.0045
575.6138	0.0031
575.8067	-0.0005
575.9995	0.0019
576.1923	0.0058
576.385	0.0074
576.5778	-0.0011
576.7706	0.0001
576.9633	0.0009
577.156	0.0003
577.3487	0.0045
577.5414	0.0052
577.734	-0.0024
577.9267	0.0027
578.1193	-0.005
578.3119	-0.0031
578.5045	0.0028
578.6971	0.0072
578.8897	0.0053
579.0822	0.0028
579.2747	-0.0005
579.4673	0.0015
579.6598	-0.0023
579.8522	0.0024
580.0447	-0.0017
580.2372	-0.0026
580.4296	0.0111
580.622	-0.0014
580.8144	0.0043
581.0068	-0.0053
581.1992	-0.0073
581.3915	-0.0011
581.5839	-0.0063
581.7762	-0.0019
581.9685	0.0011
582.1608	0.001
582.353	0.0042
582.5453	-0.0011
582.7375	0.0041
582.9298	0.0077
583.122	0.0008
583.3142	0.004
583.5063	-0.0022
583.6985	0.0014
583.8906	-0.0024
584.0827	-0.0052
584.2749	0.0057
584.4669	0.0062
584.659	-0.0001
584.8511	0.0014
585.0431	0.0039
585.2352	0.0022
585.4272	0.0013
585.6192	0.0084
585.8111	0.0034
586.0031	-0.0035
586.195	0.0093
586.387	0.0023
586.5789	-0.0012
586.7708	0.0046
586.9627	0.0026
587.1545	-0.0012
587.3464	0.0057
587.5382	0.0075
587.73	0.008
587.9218	0.0022
588.1136	0.0035
588.3053	0.0093
588.4971	-0.0093
588.6888	-0.0115
588.8805	0.0061
589.0722	0.0051
589.2639	0.0036
589.4556	0.0018
589.6472	0.0002
589.8389	-0.0057
590.0305	-0.0036
590.2221	0.0007
590.4137	-0.0052
590.6052	0.0081
590.7968	0.0012
590.9883	0.0013
591.1798	0.0038
591.3713	0.0021
591.5628	0.0145
591.7543	0.0082
591.9458	0.0065
592.1372	0.0061
592.3286	0.0123
592.52	0.006
592.7114	0.0015
592.9028	0.0054
593.0941	0.0018
593.2855	0.0057
593.4768	-0.0008
593.6681	0.0038
593.8594	-0.0007
594.0506	0.0021
594.2419	0.0121
594.4331	0.0031
594.6244	0.0065
594.8156	-0.0029
595.0067	0.0073
595.1979	0.0094
595.3891	0.0041
595.5802	-0.0017
595.7713	-0.0012
595.9624	-0.0048
596.1535	0.0029
596.3446	-0.0032
596.5357	0.0053
596.7267	0.0098
596.9177	0.002
597.1087	-0.0052
597.2997	-0.0047
597.4907	0.0067
597.6817	-0.0011
597.8726	0.005
598.0635	0.0005
598.2544	0.0014
598.4453	0.0018
598.6362	-0.0001
598.827	-0.005
599.0179	0.0058
599.2087	0.007
599.3995	0.0057
599.5903	-0.0009
599.7811	0.0033
599.9718	0.007
600.1626	-0.0008
600.3533	-0.0066
600.544	0.0001
600.7347	0.0033
600.9254	0.0029
601.116	0.004
601.3067	0.0024
601.4973	0.004
601.6879	0.0049
601.8785	0.0011
602.0691	0.0041
602.2596	0.0038
602.4502	0.006
602.6407	0.0079
602.8312	0.0076
603.0217	0.0011
603.2122	0.0048
603.4027	-0.0017
603.5931	-0.0017
603.7835	-0.0074
603.9739	0.0009
604.1643	0.0025
604.3547	0.0003
604.5451	0.006
604.7354	0.0013
604.9257	0.003
605.116	0.0007
605.3063	0.0067
605.4966	0.0059
605.6869	0.0056
605.8771	0.0084
606.0673	0.002
606.2575	0.0029
606.4477	0.0115
606.6379	0.0041
606.8281	0.0059
607.0182	-0.0038
607.2083	0.0048
607.3985	-0.0001
607.5885	0.0014
607.7786	0.0011
607.9687	-0.0003
608.1587	0.0017
608.3488	0.0058
608.5388	0.0009
608.7288	0.0004
608.9187	-0.0058
609.1087	-0.0047
609.2986	-0.0082
609.4886	0.0054
609.6785	0.0013
609.8684	0.0051
610.0582	0.0066
610.2481	0.0027
610.4379	0.0043
610.6278	-0.0082
610.8176	0.0003
611.0074	-0.0053
611.1971	0.0012
611.3869	0.0018
611.5766	-0.0058
611.7664	0.0113
611.9561	0.0125
612.1458	0.0062
612.3354	-0.0014
612.5251	0.0011
612.7147	0.0083
612.9044	0.0118
613.094	-0.0029
613.2836	0.0042
613.4731	0.0021
613.6627	0.0004
613.8522	0.0094
614.0417	0.0006
614.2313	-0.0003
614.4207	0.0002
614.6102	0.0062
614.7997	0
614.9891	0.0009
615.1785	-0.0056
615.3679	0.0039
615.5573	0.0098
615.7467	0.0021
615.9361	0.0055
616.1254	0.0055
616.3147	0.0003
616.504	0.0065
616.6933	0.0041
616.8826	0.0023
617.0718	0.0055
617.2611	0.0032
617.4503	-0.0062
617.6395	0.0041
617.8287	-0.002
618.0179	0.0055
618.207	0.0108
618.3961	0.0077
618.5853	0.0044
618.7744	0.0099
618.9634	0.006
619.1525	0.0104
619.3416	0.0083
619.5306	0.0083
619.7196	0.0087
619.9086	0.0079
620.0976	0.008
620.2866	0.0058
620.4755	0.0071
620.6645	0.0114
620.8534	0.0143
621.0423	0.0118
621.2312	0.0059
621.42	0.0066
621.6089	0.0024
621.7977	0.0065
621.9865	-0.0036
622.1753	0.0059
622.3641	0.0041
622.5529	0.0133
622.7416	0.0081
622.9303	0.0032
623.1191	0.0164
623.3078	0.0073
623.4964	0.004
623.6851	-0.0027
623.8737	0.0066
624.0624	0.0055
624.251	-0.005
624.4396	0.0022
624.6282	0.0036
624.8167	-0.0024
625.0053	0.0026
625.1938	0.0105
625.3823	0.0081
625.5708	-0.0019
625.7593	0.0043
625.9477	-0.0016
626.1362	-0.0019
626.3246	0.0078
626.513	0.0149
626.7014	0.0074
626.8898	0.0036
627.0781	-0.003
627.2665	0.0003
627.4548	0.0038
627.6431	-0.0041
627.8314	0.0043
628.0197	0.0039
628.2079	-0.0063
628.3962	0.0037
628.5844	0.0046
628.7726	0.012
628.9608	0.005
629.1489	0.0077
629.3371	0.0068
629.5252	0.0004
629.7134	0.0078
629.9015	-0.0043
630.0895	-0.0004
630.2776	0.0108
630.4657	-0.0043
630.6537	0.0056
630.8417	-0.0021
631.0297	-0.0032
631.2177	-0.0002
631.4057	-0.0112
631.5936	0.0041
631.7815	0.0018
631.9695	0.0077
632.1574	0.0105
632.3452	0.0171
632.5331	0.0108
632.7209	0.0039
632.9088	0.009
633.0966	0.0133
633.2844	-0.0002
633.4722	0.0042
633.6599	0.0095
633.8477	0.0057
634.0354	0.0054
634.2231	0.0011
634.4108	0.0092
634.5985	0.0076
634.7861	0.0075
634.9738	0.006
635.1614	0.0054
635.349	0.0027
635.5366	0.0014
635.7242	0.0023
635.9117	0.0087
636.0993	0.0037
636.2868	0.0051
636.4743	0.0015
636.6618	0.0127
636.8492	0.0017
637.0367	0.0047
637.2241	-0.0006
637.4115	-0.006
637.5989	0.0077
637.7863	-0.0014
637.9737	-0.0008
638.161	-0.0005
638.3484	-0.0004
638.5357	0.0022
638.723	0.0043
638.9103	0.0014
639.0975	0.0036
639.2848	0.0058
639.472	0.0034
639.6592	0.0046
639.8464	0.0129
640.0336	0.0098
640.2208	0.0003
640.4079	0.0025
640.595	0.0065
640.7821	0.0094
640.9692	-0.0016
641.1563	0.0042
641.3434	0.001
641.5304	0.0016
641.7174	0.0028
641.9044	0.0036
642.0914	0.0047
642.2784	-0.0075
642.4653	0.0041
642.6523	0.0022
642.8392	-0.0007
643.0261	0.0042
643.213	0.002
643.3999	-0.0026
643.5867	-0.0081
643.7735	-0.0002
643.9604	0.0028
644.1472	0.0026
644.3339	0.0066
644.5207	-0.0003
644.7075	-0.0008
644.8942	0.0043
645.0809	0.0073
645.2676	0.0106
645.4543	0.0034
645.6409	-0.001
645.8276	0.0039
646.0142	0.002
646.2008	-0.0039
646.3874	0.0008
646.574	0.0045
646.7605	0.0003
646.9471	-0.0054
647.1336	-0.0023
647.3201	0.0044
647.5066	-0.0048
647.6931	0.0078
647.8795	-0.0006
648.0659	0.0084
648.2524	0.0069
648.4388	0.0004
648.6252	0.0027
648.8115	0.0031
648.9979	-0.0002
649.1842	0.0012
649.3705	0.0058
649.5568	0.0068
649.7431	0.0087
649.9294	0.003
650.1156	0.0043
650.3018	-0.0023
650.488	0.0053
650.6742	0.0017
650.8604	0.0024
651.0466	-0.0017
651.2327	0.004
651.4188	0.0049
651.6049	0.0014
651.791	0.0021
651.9771	0.0069
652.1632	0.0098
652.3492	0.0039
652.5352	0.0021
652.7212	0.0042
652.9072	0.0061
653.0932	0.0002
653.2791	-0.0034
653.465	-0.0001
653.651	0.0018
653.8369	0.0044
654.0227	0.0055
654.2086	0.0101
654.3944	0.0052
654.5803	0.006
654.7661	-0.0024
654.9519	0.0077
655.1377	-0.0022
655.3234	0.0018
655.5092	-0.0014
655.6949	-0.0037
655.8806	-0.0017
656.0663	0.0005
656.2519	0.0008
656.4376	-0.0003
656.6232	-0.0007
656.8088	0.003
656.9945	0.0017
657.18	-0.0005
657.3656	0.0071
657.5511	-0.0019
657.7367	-0.003
657.9222	-0.0013
658.1077	-0.0006
658.2932	0.0053
658.4786	-0.0045
658.6641	-0.0037
658.8495	0.0084
659.0349	-0.0043
659.2203	0.0091
659.4057	0.0033
659.591	0.0042
659.7764	0.0027
659.9617	0.0036
660.147	-0.0019
660.3323	0.0032
660.5176	0.0149
660.7028	0.0058
660.888	0.003
661.0733	0.0029
661.2585	-0.0023
661.4436	0.0046
661.6288	-0.0041
661.8139	0.0055
661.9991	0.0086
662.1842	-0.0023
662.3693	0.006
662.5544	0.0055
662.7394	0.0053
662.9245	-0.0003
663.1095	0.0089
663.2945	0.0101
663.4795	-0.0023
663.6644	0.0077
663.8494	0.0138
664.0343	0.0046
664.2193	-0.0046
664.4042	0.0076
664.589	0.003
664.7739	0.002
664.9587	-0.0047
665.1436	0.0014
665.3284	0.0028
665.5132	0.0032
665.698	0.0048
665.8827	0.0087
666.0675	0.0043
666.2522	0.0032
666.4369	0.0055
666.6216	0.007
666.8063	0.006
666.9909	0.0085
667.1756	0.0063
667.3602	0.0034
667.5448	0.0001
667.7294	0.0095
667.9139	0.0074
668.0985	0.0115
668.283	0.0019
668.4675	0.0082
668.652	0.0068
668.8365	0.0039
669.0209	0.0075
669.2054	0.0054
669.3898	0.0101
669.5742	0.0055
669.7586	0.0135
669.943	0.0141
670.1273	0.012
670.3117	0.0065
670.496	0.013
670.6803	0.0167
670.8646	0.0118
671.0488	-0.0028
671.2331	0.0086
671.4173	0.0136
671.6015	0.0042
671.7857	0.0088
671.9699	0.0142
672.1541	0.0014
672.3382	0.0047
672.5223	0.0062
672.7064	0.004
672.8905	0.0036
673.0746	0.0082
673.2587	0.0007
673.4427	0.0089
673.6267	0.0084
673.8107	0.0153
673.9947	0.0102
674.1787	0.0087
674.3626	-0.0025
674.5465	0.0127
674.7304	0.0059
674.9143	0.0071
675.0982	0.0034
675.2821	-0.0048
675.4659	0.0023
675.6497	0.0034
675.8335	-0.0061
676.0173	0.0007
676.2011	0.0046
676.3849	0.0039
676.5686	-0.0035
676.7523	0.0058
676.936	0.0049
677.1197	-0.0015
677.3034	0.0011
677.487	0.005
677.6706	0.0041
677.8542	0.0061
678.0378	0.0003
678.2214	0.004
678.405	0.0035
678.5885	-0.0089
678.772	0.0015
678.9555	-0.0003
679.139	-0.0082
679.3225	0.0044
679.5059	-0.0043
679.6894	0.0062
679.8728	0.0013
680.0562	-0.0044
680.2395	-0.0059
680.4229	-0.0035
680.6062	0.0126
680.7896	0.0027
680.9729	-0.0058
681.1562	0.0051
681.3394	0.005
681.5227	-0.0059
681.7059	0.0015
681.8891	0.0029
682.0723	0.0091
682.2555	0.0064
682.4387	0.0022
682.6218	0.0033
682.805	0.0073
682.9881	0.0052
683.1712	-0.0042
683.3542	0.0013
683.5373	0.0031
683.7203	-0.0053
683.9034	0.0024
684.0864	-0.0094
684.2694	-0.0076
684.4523	-0.0029
684.6353	-0.0105
684.8182	-0.0023
685.0011	-0.0063
685.184	0.0049
685.3669	-0.0039
685.5498	0.0014
685.7326	0.0015
685.9154	-0.0066
686.0982	0.0103
686.281	0.0122
686.4638	0.0076
686.6465	-0.0012
686.8293	0.004
687.012	0.008
687.1947	-0.0096
687.3774	0.0064
687.56	-0.0018
687.7427	0.0093
687.9253	0.0031
688.1079	0.0022
688.2905	0.0209
688.4731	-0.0037
688.6556	0.0035
688.8382	0.0043
689.0207	0.0054
689.2032	-0.002
689.3857	0.0014
689.5681	0.008
689.7506	-0.0076
689.933	0.0036
690.1154	-0.0011
690.2978	0.0022
690.4802	0.0059
690.6626	-0.0052
690.8449	-0.0057
691.0272	0.0018
691.2095	0.0015
691.3918	-0.0015
691.5741	0.0083
691.7563	0.0074
691.9386	0.0072
692.1208	-0.0018
692.303	0.0016
692.4852	0.0004
692.6673	0.0042
692.8495	-0.0046
693.0316	-0.0013
693.2137	0.0042
693.3958	0.0151
693.5778	0.0075
693.7599	-0.0005
693.9419	0.0018
694.1239	0.0092
694.3059	-0.0024
694.4879	0.0049
694.6699	0.0019
694.8518	0.012
695.0337	0.0014
695.2157	0.0063
695.3975	0.0018
695.5794	0.0013
695.7613	0.002
695.9431	-0.0003
696.1249	0.0048
696.3067	0.0053
696.4885	0.0057
696.6703	-0.0002
696.852	0.0034
697.0337	0.0046
697.2154	0.0096
697.3971	0.006
697.5788	0.0038
697.7605	0.0069
697.9421	0.0058
698.1237	-0.0014
698.3053	0.006
698.4869	-0.0021
698.6685	-0.0001
698.85	-0.0039
699.0315	0.0108
699.213	0.0036
699.3945	0.0039
699.576	0.0024
699.7575	0.0084
699.9389	0.0024
700.1203	-0
700.3017	-0.0059
700.4831	-0.0046
700.6645	0.0035
700.8458	0.0009
701.0271	0.0037
701.2084	0.0088
701.3897	0.0004
701.571	0.0023
701.7523	-0.0023
701.9335	0.0067
702.1147	0.0064
702.2959	0.0024
702.4771	0.0007
702.6583	0.0055
702.8394	-0.0023
703.0205	0.0079
703.2016	-0.0059
703.3827	0.0005
703.5638	0.0092
703.7449	-0.001
703.9259	0.0064
704.1069	-0.0075
704.2879	0.004
704.4689	0.0066
704.6499	-0.0003
704.8308	0.003
705.0117	0.0007
705.1927	-0.0004
705.3735	-0.0029
705.5544	-0.004
705.7353	0.0035
705.9161	-0.0043
706.0969	-0.0041
706.2777	-0.0009
706.4585	-0.001
706.6393	-0.0027
706.82	0.0055
707.0007	0.0133
707.1815	0.0089
707.3621	0.0147
707.5428	0.0137
707.7235	0.0077
707.9041	0.0055
708.0847	-0.0052
708.2653	0.0026
708.4459	-0.0089
708.6265	0.0085
708.807	0.0057
708.9875	0.0012
709.168	-0.0029
709.3485	-0.0064
709.529	0.001
709.7095	-0.006
709.8899	0.0034
710.0703	-0.0079
710.2507	-0.0013
710.4311	-0.0034
710.6115	-0.0113
710.7918	0.0002
710.9721	-0.003
711.1524	-0.0051
711.3327	-0.0015
711.513	0.0004
711.6932	0.0018
711.8735	0.0095
712.0537	-0.002
712.2339	-0.0043
712.4141	-0.011
712.5942	-0.0119
712.7744	-0.0029
712.9545	-0.0024
713.1346	0.0032
713.3147	-0.0009
713.4947	-0.0009
713.6748	-0.0029
713.8548	-0.0023
714.0348	-0.0006
714.2148	-0.003
714.3948	0.0064
714.5748	0.0006
714.7547	0.002
714.9346	-0.0015
715.1145	-0.0027
715.2944	-0.0053
715.4743	-0.0041
715.6541	-0
715.834	0.0073
716.0138	-0.0017
716.1936	-0.0105
716.3733	0.0009
716.5531	0.0054
716.7328	-0.0054
716.9126	-0.0046
717.0923	0.0009
717.2719	0.0031
717.4516	0.0056
717.6312	0.0029
717.8109	-0.0017
717.9905	0.0081
718.1701	0.0018
718.3496	-0.0089
718.5292	-0.0027
718.7087	0.0027
718.8882	0.0054
719.0677	0.008
719.2472	-0.0039
719.4267	0.0026
719.6061	-0.0014
719.7856	-0.0004
719.965	0.01
720.1443	-0.0015
720.3237	0.0084
720.5031	-0
720.6824	0.0068
720.8617	-0.0061
721.041	-0.0058
721.2203	0.0052
721.3995	0.0048
721.5788	0.0063
721.758	0.0099
721.9372	-0.0002
722.1164	0.0078
722.2956	0.0114
722.4747	0.0021
722.6538	0.0099
722.8329	0.0142
723.012	0.0047
723.1911	0.0016
723.3702	0.003
723.5492	0.0073
723.7282	0.0052
723.9072	0.0092
724.0862	0.0055
724.2652	0
724.4441	-0.0019
724.623	-0.0089
724.8019	-0.0045
724.9808	0.0002
725.1597	-0.0034
725.3385	0.0063
725.5174	0.0017
725.6962	0.0026
725.875	0.0063
726.0538	0.0036
726.2325	0.0018
726.4112	0.002
726.59	0.0003
726.7687	-0.0012
726.9474	-0.002
727.126	-0.0071
727.3047	-0.0054
727.4833	0.0029
727.6619	-0.0132
727.8405	-0.0084
728.0191	-0.0011
728.1976	-0.0011
728.3762	-0.0004
728.5547	0.003
728.7332	-0.013
728.9116	0.0074
729.0901	0.0112
729.2686	-0.005
729.447	-0.0046
729.6254	0.0006
729.8038	-0.0058
729.9821	-0.0116
730.1605	0.0015
730.3388	0.0002
730.5171	0.0075
730.6954	-0.0071
730.8737	0.0079
731.0519	0.0081
731.2302	0.0045
731.4084	0.0054
731.5866	0.0021
731.7648	0.0046
731.9429	0.0029
732.1211	-0.003
732.2992	0.004
732.4773	0.0032
732.6554	0.0022
732.8335	0.0039
733.0115	0.0039
733.1896	0.0067
733.3676	0.0009
733.5456	-0.0004
733.7235	0.0081
733.9015	0.004
734.0794	0.0013
734.2574	0.0049
734.4353	0.0009
734.6131	0.0091
734.791	0.0121
734.9689	0.0066
735.1467	0.0203
735.3245	-0.0068
735.5023	0.0013
735.68	0.0039
735.8578	0.0142
736.0355	-0.013
736.2132	-0.0008
736.3909	0.007
736.5686	-0.004
736.7463	0.0056
736.9239	-0.0018
737.1015	-0.0031
737.2791	0.0088
737.4567	0.0041
737.6343	-0.0021
737.8118	-0.0031
737.9894	0.0133
738.1669	-0.0024
738.3444	-0.0004
738.5218	0.002
738.6993	-0.0054
738.8767	-0.0055
739.0541	0.0088
739.2315	-0.0041
739.4089	-0.0008
739.5863	0.0097
739.7636	0.0016
739.9409	0.0121
740.1182	0.0066
740.2955	0.0112
740.4728	0.0088
740.65	0.0045
740.8272	0.0006
741.0044	-0.0063
741.1816	0.0048
741.3588	-0.0093
741.5359	-0.0035
741.7131	-0.0045
741.8902	-0.0005
742.0673	0.0002
742.2444	-0.0146
742.4214	-0.0055
742.5985	-0.0055
742.7755	0.0005
742.9525	-0.0157
743.1295	0.0017
743.3064	0.0024
743.4834	0.0114
743.6603	-0.0029
743.8372	0.0004
744.0141	0.005
744.191	-0.001
744.3678	0.0028
744.5446	-0.0019
744.7215	0.0029
744.8982	0.0014
745.075	-0.0061
745.2518	0.0027
745.4285	-0.0019
745.6052	-0.0132
745.7819	-0.0074
745.9586	-0.0015
746.1353	0.0032
746.3119	-0.007
746.4885	-0.0112
746.6651	-0.0014
746.8417	0.0005
747.0183	-0.0027
747.1948	-0.0065
747.3714	0.0001
747.5479	0.0022
747.7244	-0.0048
747.9008	0.0001
748.0773	0.0022
748.2537	-0.0034
748.4301	-0.0113
748.6065	0.011
748.7829	0.0047
748.9593	-0.004
749.1356	0.0024
749.3119	0.0012
749.4882	-0.0071
749.6645	0.0095
749.8408	-0.0091
750.017	-0.0058
750.1933	-0.001
750.3695	-0.0105
750.5457	0.0108
750.7218	0.0001
750.898	0.0062
751.0741	-0.0052
751.2502	-0.0065
751.4263	-0.002
751.6024	0.0011
751.7784	0.0032
751.9545	-0.0094
752.1305	0.0064
752.3065	-0.0067
752.4825	0.008
752.6584	-0.0046
752.8344	0.0005
753.0103	-0.0107
753.1862	-0.0041
753.3621	-0.0013
753.5379	-0.0071
753.7138	0.0012
753.8896	0.0008
754.0654	-0.0007
754.2412	0.0102
754.417	0.0056
754.5927	0.0003
754.7685	0.0012
754.9442	0.007
755.1199	0.0168
755.2956	0.0013
755.4712	0.0046
755.6469	0.0038
755.8225	-0.0056
755.9981	-0.0052
756.1736	0.003
756.3492	-0.0014
756.5248	-0.0003
756.7003	0.0009
756.8758	0.0015
757.0513	-0.0167
757.2267	-0.0032
757.4022	0.001
757.5776	-0.0078
757.753	-0.0038
757.9284	-0.0037
758.1038	0.0056
758.2791	-0.001
758.4545	-0.0008
758.6298	0.0052
758.8051	-0.002
758.9803	-0.0055
759.1556	-0
759.3308	-0.0115
759.506	-0.0042
759.6812	-0.0014
759.8564	0.0043
760.0316	-0.0035
760.2067	0.0061
760.3819	0.0097
760.557	0.0136
760.732	0.0096
760.9071	-0.0023
761.0821	0.0032
761.2572	0.0053
761.4322	-0.0013
761.6072	0.0004
761.7821	-0.0009
761.9571	0.0053
762.132	-0.0092
762.3069	-0.0073
762.4818	-0.0079
762.6567	-0.0141
762.8316	-0.0051
763.0064	-0.0009
763.1812	0.0024
763.356	-0.0019
763.5308	0.0036
763.7055	-0.0035
763.8803	-0.0001
764.055	-0.0026
764.2297	-0.0029
764.4044	-0.0004
764.579	-0.006
764.7537	-0.0044
764.9283	0.0028
765.1029	-0.0047
765.2775	-0.0052
765.4521	-0.0036
765.6266	-0.0037
765.8011	-0.0062
765.9756	-0.0052
766.1501	0.0084
766.3246	-0.0026
766.4991	0.0121
766.6735	0.0124
766.8479	0.006
767.0223	0.0128
767.1967	0.0106
767.371	0.0125
767.5454	0.007
767.7197	0.0094
767.894	-0.0054
768.0683	-0.0027
768.2425	0.0035
768.4168	0.0097
768.591	0.0081
768.7652	-0.0046
768.9394	0.0063
769.1135	0.0095
769.2877	0.0066
769.4618	0.0059
769.6359	0.0015
769.81	0.0021
769.984	-0.0042
770.1581	-0.004
770.3321	-0.0008
770.5061	-0.0003
770.6801	-0.003
770.8541	-0.0074
771.028	0.0083
771.202	-0.0095
771.3759	0.0028
771.5498	-0.0051
771.7236	0.0053
771.8975	0.0017
772.0713	0.0131
772.2451	-0.0074
772.4189	0.0119
772.5927	0.0015
772.7665	0.004
772.9402	-0.0044
773.1139	0.0031
773.2876	-0.0034
773.4613	0.0127
773.635	0.0059
773.8086	0.0008
773.9822	0.008
774.1558	0.002
774.3294	-0.0071
774.503	0.0008
774.6765	0.0123
774.8501	0.0075
775.0236	0.0235
775.1971	0.0196
775.3705	-0.0025
775.544	0.0115
775.7174	0.0029
775.8908	0.0182
776.0642	-0.0048
776.2376	0.0071
776.4109	-0.0008
776.5843	0.0125
776.7576	0.017
776.9309	0.0166
777.1041	0.0105
777.2774	0.0162
777.4506	0.0096
777.6238	0.0064
777.797	0.0063
777.9702	0.0016
778.1434	0.002
778.3165	-0.0026
778.4896	-0.0072
778.6627	0.011
778.8358	-0.0026
779.0089	-0.0096
779.1819	0.0062
779.3549	0
779.5279	0.0113
779.7009	0.0007
779.8739	0.0116
780.0468	-0.0084
780.2197	0.0025
780.3926	0.0056
780.5655	0.0003
780.7384	0.0115
780.9112	-0.0051
781.0841	-0.0017
781.2569	0.004
781.4297	0.005
781.6024	0.0035
781.7752	0.0048
781.9479	0.0102
782.1206	0.0083
782.2933	0.0006
782.466	0.0021
782.6386	0.0112
782.8113	0.0067
782.9839	0.0145
783.1565	0.0214
783.329	0.017
783.5016	0.0121
783.6741	-0.0001
783.8466	0.0098
784.0191	0.0264
784.1916	0.0052
784.3641	0.0136
784.5365	0.0173
784.7089	-0.0053
784.8813	0.0137
785.0537	0.0059
785.2261	0.0031
785.3984	-0.009
785.5707	-0.0005
785.743	0.0025
785.9153	0.0149
786.0876	0.0123
786.2598	0.009
786.432	-0.0014
786.6042	0.0102
786.7764	0.0036
786.9486	0.0095
787.1207	0.0022
787.2928	0.0142
787.4649	0.0098
787.637	0.0148
787.8091	0.0073
787.9811	-0.008
788.1532	-0.0011
788.3252	0.009
788.4972	-0.0042
788.6691	-0.005
788.8411	0.0139
789.013	-0.0032
789.1849	0.0005
789.3568	-0.0057
789.5287	0.0049
789.7005	0.0091
789.8723	0.0096
790.0442	0.0163
790.2159	0.0072
790.3877	0.0083
790.5595	-0.0108
790.7312	0.0086
790.9029	-0.0018
791.0746	-0.003
791.2463	-0.0084
791.4179	-0.0019
791.5896	-0.0063
791.7612	0.007
791.9328	0.0032
792.1044	-0.0105
792.2759	-0.0152
792.4474	0.0007
792.619	0.0081
792.7905	0.0114
792.9619	-0.0089
793.1334	0.0253
793.3048	0.001
793.4762	0.0073
793.6476	0.0066
793.819	0.0005
793.9904	0.0109
794.1617	-0.0103
794.333	0.0075
794.5043	-0.0068
794.6756	-0.0105
794.8469	-0.0029
795.0181	0.0058
795.1893	-0.0109
795.3605	0.0033
795.5317	-0.0021
795.7029	0.0093
795.874	0.0018
796.0452	0.0002
796.2163	0.0001
796.3873	0.0113
796.5584	0.0099
796.7294	0.0031
796.9005	0.02
797.0715	0.0067
797.2425	-0.0096
797.4134	-0.0021
797.5844	0.0061
797.7553	-0.0107
797.9262	0.001
798.0971	-0.0055
798.2679	-0.0066
798.4388	-0.0164
798.6096	-0.0069
798.7804	0.0038
798.9512	-0.0038
799.122	-0.0078
799.2927	0.0024
799.4635	0.0165
799.6342	0.0021
799.8049	0.004
799.9755	-0.0021
800.1462	0.0036
800.3168	-0.0113
800.4874	-0.0028
800.658	0.0286
800.8286	-0.0013
800.9991	0.016
801.1696	0.0176
801.3402	0.0179
801.5106	0.0046
801.6811	0.0177
801.8516	0.0177
802.022	0.0046
802.1924	0.0227
802.3628	0.0106
802.5332	0.0227
802.7035	0.0247
802.8739	0.0046
803.0442	0.0124
803.2145	0.0099
803.3847	-0.0119
803.555	0.013
803.7252	-0.0178
803.8954	-0.0017
804.0656	0.001
804.2358	0.0053
804.4059	0.0301
804.5761	0.0201
804.7462	0.0072
804.9163	0.0098
805.0864	-0.0128
805.2564	-0.0112
805.4264	0.007
805.5965	-0.0035
805.7665	-0.0101
805.9364	-0.0072
806.1064	0.0158
806.2763	-0.0054
806.4462	0.006
806.6161	0.0124
806.786	0.0062
806.9559	0.0003
807.1257	0.0069
807.2955	-0.0017
807.4653	0.0173
807.6351	-0.0008
807.8048	0.0067
807.9746	0.007
808.1443	0.0136
808.314	0.0018
808.4837	-0.0129
808.6533	0.0102
808.8229	0.0218
808.9926	0.0206
809.1622	0.0095
809.3317	-0.0004
809.5013	0.0089
809.6708	0.019
809.8403	0.0187
810.0098	-0.0014
810.1793	0.0106
810.3488	0.0202
810.5182	-0.0108
810.6876	0.0029
810.857	-0.0055
811.0264	0.0447
811.1958	0.0177
811.3651	0.0164
811.5344	0.0163
811.7037	-0.0022
811.873	-0.0153
812.0422	0.0089
812.2115	0.0203
812.3807	0.0024
812.5499	0.0061
812.7191	0.0247
812.8882	0.0015
813.0574	-0.004
813.2265	-0.0064
813.3956	0.0042
813.5646	-0.0021
813.7337	-0.0082
813.9027	0.0091
814.0718	0.0256
814.2407	0.011
814.4097	0.0207
814.5787	0.0128
814.7476	0.0087
814.9165	-0.0027
815.0854	0.0073
815.2543	-0.0045
815.4232	0.0068
815.592	0.0033
815.7608	0.0192
815.9296	0.0224
816.0984	0.0175
816.2671	0.0118
816.4359	0.0155
816.6046	0.0249
816.7733	0.016
816.942	-0.0113
817.1106	0.008
817.2793	0.0093
817.4479	0.0079
817.6165	0.0138
817.785	0.0248
817.9536	0.0038
818.1221	0.0089
818.2906	-0.004
818.4591	-0.007
818.6276	-0.0086
818.7961	0.0153
818.9645	0.0325
819.1329	0.0123
819.3013	0.0387
819.4697	0.0343
819.638	0.0112
819.8064	0.0359
819.9747	0.0223
820.143	0.0074
820.3113	0.0071
820.4795	0.0231
820.6477	0.0282
820.816	0.0301
820.9842	0.0246
821.1523	-0.0006
821.3205	-0.0006
821.4886	0.0243
821.6567	0.0406
821.8248	0.055
821.9929	0.021
822.1609	0.0066
822.329	0.062
822.497	0.0368
822.665	0.0098
822.833	-0.0052
823.0009	0.0185
823.1688	0.0081
823.3367	0.0386
823.5046	0.0278
823.6725	0.0398
823.8404	0.0113
824.0082	0.0104
824.176	0.0089
824.3438	0.0201
824.5116	0.0002
824.6793	0.0212
824.847	0.0089
825.0147	0.0207
825.1824	0.0269
825.3501	0.0288
825.5177	-0.0029
825.6854	0.0223
825.853	0.0133
826.0206	-0.033
826.1881	0.0384
826.3557	-0.0215
826.5232	0.0138
826.6907	-0.0087
826.8582	0.0025
827.0257	-0.0098
827.1931	0.0234
827.3605	0.0205
827.528	0.0115
827.6953	-0.0123
827.8627	0.0111
828.03	0.0298
828.1974	-0.0045
828.3647	0.0044
828.532	-0.0219
828.6992	-0.0177
828.8665	-0.0012
829.0337	0.013
829.2009	0.0741
829.3681	0.0153
829.5352	0.0535
829.7024	-0.0383
829.8695	-0.0327
830.0366	0.0526
830.2037	-0.0064
830.3707	0.0411
830.5378	0.0067
830.7048	0.0063
830.8718	-0.0009
831.0388	-0.0116
831.2057	0.0277
831.3727	0.0383
831.5396	-0.0384
831.7065	-0.0003
831.8734	0.0258
832.0402	0.0154
832.2071	0.0193
832.3739	-0.0157
832.5407	0.0217
832.7075	-0.0041
832.8742	-0.0064
833.041	-0.0154
833.2077	0.0076
833.3744	0.014
833.541	-0.0069
833.7077	0.0034
833.8743	0.0259
834.0409	0.0139
834.2075	0.0003
834.3741	0.0027
834.5407	0.0245
834.7072	0.0231
834.8737	-0.0348
835.0402	0.0281
835.2067	0.0353
835.3731	0.0171
835.5395	0.049
835.706	0.0764
835.8723	0.0134
836.0387	0.0406
836.2051	0.035
836.3714	-0.0105
836.5377	0.0044
836.704	-0.036
836.8703	0.0184
837.0365	0.0353
837.2027	-0.0175
837.3689	0.0183
837.5351	0.0195
837.7013	-0.0212
837.8674	-0.0341
838.0335	-0.0081
838.1997	-0.0053
838.3657	0.0012
838.5318	0.001
838.6978	0.0278
838.8639	0.0351
839.0299	-0.0264
839.1958	-0.0181
839.3618	0.0232
839.5277	0.0389
839.6937	0.0374
839.8596	0.0004
840.0254	0.0189
840.1913	0.018
840.3571	0.0083
840.523	-0.0423
840.6888	0.008
840.8545	-0.0063
841.0203	-0.0317
841.186	0.0503
841.3517	0.0243
841.5174	-0.0066
841.6831	-0.0296
841.8488	0.0141
842.0144	0.0172
842.18	0.0176
842.3456	-0.0015
842.5112	0.0107
842.6767	-0.0064
842.8422	-0.0335
843.0077	0.0119
843.1732	-0.0277
843.3387	0.0347
843.5042	-0.011
843.6696	0.0266
843.835	0.0533
844.0004	0.0358
844.1657	-0.0334
844.3311	-0.0542
844.4964	-0.0807
844.6617	-0.0181
844.827	-0.0166
844.9923	0.0501
845.1575	0.0326
845.3227	0.0146
845.4879	-0.0183
845.6531	-0.0178
845.8183	-0.0833
845.9834	-0.0154
846.1485	0.0137
846.3136	-0.0588
846.4787	-0.0697
846.6438	0.1008
846.8088	-0.044
846.9738	-0.0275
847.1388	0.0106
847.3038	0.0098
847.4687	-0.1564
847.6337	0.0662
847.7986	0.0664
847.9635	-0.0585
848.1284	0.0391
848.2932	0.1463
848.458	-0.0127
848.6228	0.0812
848.7876	0.0997
848.9524	-0.0373
849.1172	-0.0991
849.2819	0.0295
849.4466	-0.0176
849.6113	-0.0856
849.7759	0.0049
849.9406	-0.0631
850.1052	0.0852
850.2698	0.0262
850.4344	-0.007
850.599	-0.0044
850.7635	0.1122
850.928	0.0267
851.0925	0.0266
851.257	0.0115
851.4215	0.0006
851.5859	-0.0604
851.7503	0.0494
851.9147	0.0107
852.0791	0.0489
852.2434	-0.046
852.4078	0.037
852.5721	0.1083
852.7364	-0.0688
852.9007	-0.0772
853.0649	-0.005
853.2291	-0.0807
853.3934	-0.0388
853.5575	0.0271
853.7217	0.0479
853.8859	-0.0413
854.05	-0.1266
854.2141	0.0252
854.3782	-0.0597
854.5423	0.0224
854.7063	0.0715
854.8703	0.0181
855.0343	-0.0464
855.1983	-0.0796
855.3623	0.2006
855.5262	0.1208
855.6901	0.0447
855.854	0.1472
856.0179	0.0453
856.1818	0.0314
856.3456	-0.0218
856.5094	-0.0336
856.6732	-0.0405
856.837	-0.1327
857.0008	0.2114
857.1645	-0.0253
857.3282	-0.1132
857.4919	0.1668
857.6556	-0.0523
857.8192	0.2249
857.9828	0.0069
858.1465	0.0016
858.31	-0.0876
858.4736	0.0932
858.6372	-0.2793
858.8007	-0.1537
858.9642	-0.0072
859.1277	0.0939
859.2911	-0.0585
859.4546	0.076
859.618	-0.4532
859.7814	-0.07
859.9448	0.2172
860.1081	0.0902
860.2715	0.1053
860.4348	-0.1099
860.5981	0.1273
860.7614	0.1905
860.9246	-0.1787
861.0879	-0.1384
861.2511	0.2165
861.4143	-0.2034
861.5774	0.286
861.7406	-0.208
861.9037	0.2269
862.0668	-0.0654
862.2299	0.003
862.393	-0.4724
862.556	-0.1001
862.7191	-0.1353
862.8821	-0.1469
863.0451	0.1763
863.208	0.2201
863.371	0.0543
863.5339	0.2647
863.6968	0.1838
863.8597	-0.1238
864.0225	0.0737
864.1854	0.3872
864.3482	0.1647
864.511	0.117
864.6737	0.1509
864.8365	0.0031
864.9992	-0.5193
865.1619	-0.2936
865.3246	-0
865.4873	0.0602
865.65	0.6901
865.8126	0.4247
865.9752	0.3271
866.1378	0.005
866.3004	-0
866.4629	0.3321
866.6254	1.6323
866.7879	-0.0242
866.9504	-0.0823
867.1129	-0
867.2753	0.5695
867.4377	0.0668
867.6001	-0.2882
867.7625	-0.0623
867.9249	-0.158
868.0872	0.1471
868.2495	0.2075
868.4118	-0.0381
868.5741	-0
868.7363	0.1079
868.8986	-0.7173
869.0608	0.0288
869.223	0.0726
869.3851	-0
869.5473	-0
869.7094	0.2564
869.8715	-0
870.0336	-1.0562
870.1957	0.1779
870.3577	-1.3306
870.5197	-0.1614
870.6817	-0.0679
870.8437	-0.0931
871.0057	-0
871.1676	1.1321
871.3295	0.1538
871.4914	-0
871.6533	-0.3411
871.8151	-0.5136
871.977	-0
872.1388	-0
872.3006	-0
872.4623	-0
872.6241	0.6035
872.7858	1.0681
872.9475	-0.1847
873.1092	0.3882
873.2709	-0
873.4325	0.2969
873.5941	-0.3457
873.7557	-0
873.9173	-0.5414
874.0789	-0.5173
874.2404	-0
874.4019	-0.1706
874.5634	0.0458
874.7249	0.0132
874.8863	-0.1686
875.0478	-0
875.2092	-0.2322
875.3706	0.1168
875.5319	-0.9658
875.6933	-0.2007
875.8546	-0.3484
876.0159	-0
876.1772	0.5434
876.3385	-0
876.4997	-0.086
876.6609	-0.2947
876.8221	0.1744
876.9833	-0
877.1445	-0
877.3056	0.5073
877.4667	-0.1589
877.6278	-0
877.7889	-0.6261
877.9499	-0.0596
878.111	0.4702
878.272	-0
878.433	0.0974
878.5939	0.5726
878.7549	-0.1207
878.9158	-0.7603
879.0767	-0
879.2376	-0
879.3984	0.4963
879.5593	-0
879.7201	0.0848
879.8809	-0.6135
880.0417	-0.2299
880.2024	0.0179
880.3632	-0
880.5239	0.4291
880.6846	0.7739
880.8452	-2.3551
881.0059	-1.1673
881.1665	-0.0916
881.3271	0.2584
881.4877	-0.242
881.6483	-0.4088
881.8088	-0.133
881.9693	0.9168
882.1298	0.9168
882.2903	0.9168
