Data from MonoPyChalIsomerACN10uM360nmA_Absorbance_13-57-25-604.txt Node
Date: Fri Jul 05 13:57:25 BST 2024
User: LASERRRRR
Spectrometer: FLMT03099
Trigger mode: 0
Integration Time (sec): 1.000000E-1
Scans to average: 1
Electric dark correction enabled: true
Nonlinearity correction enabled: false
Boxcar width: 0
XAxis mode: Wavelengths
Number of Pixels in Spectrum: 3648
>>>>>Begin Spectral Data<<<<<
179.3399	0.2483
179.5586	0.2483
179.7771	0.2483
179.9957	0.4109
180.2143	-0
180.4329	-0.1605
180.6514	-0
180.8699	-0
181.0885	-0.1117
181.307	-0.148
181.5255	-0.9374
181.744	-0.59
181.9625	-0
182.181	-0
182.3994	0.7594
182.6179	-0
182.8363	0.2842
183.0547	-0.4564
183.2732	-0.1102
183.4916	0.0976
183.71	-0.0694
183.9284	0.0445
184.1467	-0.1351
184.3651	0.0232
184.5835	-0.0755
184.8018	-0.0447
185.0201	0.067
185.2385	-0.2202
185.4568	0.0486
185.6751	0.1566
185.8934	0.6637
186.1117	0.0947
186.3299	0.1057
186.5482	-0.0056
186.7664	-0.0948
186.9847	-0.0912
187.2029	0.1878
187.4211	0.0286
187.6393	0.1335
187.8575	-0.1865
188.0757	0.3228
188.2939	0.1669
188.512	0.2098
188.7302	-0.051
188.9483	-0.098
189.1665	-0.0008
189.3846	-0.169
189.6027	0.4437
189.8208	0.2038
190.0389	0.0171
190.257	0.1461
190.475	0.3258
190.6931	0.1006
190.9111	0.2991
191.1292	0.1077
191.3472	0.4112
191.5652	0.2659
191.7832	0.1965
192.0012	0.5104
192.2192	0.3871
192.4371	0.336
192.6551	0.4394
192.873	0.5385
193.091	0.3322
193.3089	0.5967
193.5268	0.482
193.7447	0.6419
193.9626	0.4098
194.1805	0.5695
194.3984	0.8364
194.6162	0.4579
194.8341	0.4856
195.0519	0.4999
195.2697	0.9251
195.4875	0.6412
195.7054	0.5583
195.9231	0.3737
196.1409	0.6275
196.3587	0.5642
196.5765	0.6344
196.7942	0.473
197.012	0.5855
197.2297	0.4476
197.4474	0.8165
197.6651	0.49
197.8828	0.5314
198.1005	0.5821
198.3182	0.7415
198.5358	0.7779
198.7535	0.5745
198.9711	0.5463
199.1888	0.5626
199.4064	0.6785
199.624	0.5021
199.8416	0.5602
200.0592	0.6629
200.2767	0.6637
200.4943	0.6515
200.7119	0.7261
200.9294	0.6625
201.1469	0.6515
201.3645	0.5399
201.582	0.6178
201.7995	0.5634
202.017	0.57
202.2344	0.6446
202.4519	0.6069
202.6694	0.6458
202.8868	0.6072
203.1042	0.6662
203.3217	0.7763
203.5391	0.7389
203.7565	0.585
203.9739	0.5275
204.1913	0.6254
204.4086	0.497
204.626	0.7697
204.8433	0.6458
205.0607	0.5888
205.278	0.6424
205.4953	0.6013
205.7126	0.6653
205.9299	0.738
206.1472	0.7908
206.3644	0.6142
206.5817	0.6262
206.7989	0.7963
207.0162	0.5953
207.2334	0.7229
207.4506	0.5796
207.6678	0.5903
207.885	0.6332
208.1022	0.6388
208.3194	0.664
208.5365	0.5814
208.7537	0.6083
208.9708	0.5904
209.1879	0.7059
209.405	0.6762
209.6222	0.7754
209.8392	0.6179
210.0563	0.6196
210.2734	0.6133
210.4905	0.559
210.7075	0.5978
210.9245	0.6016
211.1416	0.6789
211.3586	0.5605
211.5756	0.6318
211.7926	0.5619
212.0096	0.5188
212.2265	0.5407
212.4435	0.5421
212.6604	0.6061
212.8774	0.5568
213.0943	0.5984
213.3112	0.5234
213.5281	0.5187
213.745	0.5289
213.9619	0.5347
214.1788	0.5239
214.3956	0.4614
214.6125	0.4798
214.8293	0.4297
215.0461	0.4647
215.2629	0.4626
215.4798	0.4909
215.6965	0.4312
215.9133	0.4709
216.1301	0.4297
216.3469	0.4396
216.5636	0.4321
216.7803	0.3844
216.9971	0.4009
217.2138	0.4081
217.4305	0.3593
217.6472	0.352
217.8639	0.3932
218.0805	0.3455
218.2972	0.3269
218.5138	0.3424
218.7305	0.3426
218.9471	0.3037
219.1637	0.2888
219.3803	0.3015
219.5969	0.2853
219.8135	0.249
220.0301	0.2726
220.2466	0.2987
220.4632	0.2858
220.6797	0.2353
220.8962	0.2713
221.1127	0.2726
221.3292	0.2567
221.5457	0.2734
221.7622	0.2465
221.9787	0.2614
222.1951	0.2444
222.4116	0.2718
222.628	0.2566
222.8444	0.2402
223.0608	0.2621
223.2772	0.2364
223.4936	0.2665
223.71	0.2627
223.9264	0.2601
224.1427	0.2592
224.3591	0.2575
224.5754	0.2686
224.7917	0.28
225.008	0.2753
225.2243	0.2704
225.4406	0.2799
225.6569	0.284
225.8732	0.2703
226.0894	0.2878
226.3057	0.2647
226.5219	0.3034
226.7381	0.2633
226.9543	0.2831
227.1705	0.2753
227.3867	0.2731
227.6029	0.2836
227.8191	0.2966
228.0352	0.2987
228.2513	0.3166
228.4675	0.3234
228.6836	0.3116
228.8997	0.3043
229.1158	0.3019
229.3319	0.3335
229.548	0.3137
229.764	0.3494
229.9801	0.3202
230.1961	0.3195
230.4121	0.3404
230.6282	0.3471
230.8442	0.3063
231.0602	0.3389
231.2761	0.3319
231.4921	0.3383
231.7081	0.3352
231.924	0.3407
232.14	0.3789
232.3559	0.3406
232.5718	0.3534
232.7877	0.343
233.0036	0.3587
233.2195	0.3607
233.4353	0.3718
233.6512	0.3785
233.867	0.3679
234.0829	0.361
234.2987	0.3771
234.5145	0.3789
234.7303	0.3687
234.9461	0.3963
235.1619	0.3861
235.3776	0.4045
235.5934	0.379
235.8091	0.3961
236.0249	0.3945
236.2406	0.4036
236.4563	0.3688
236.672	0.4079
236.8877	0.3964
237.1034	0.4038
237.319	0.3895
237.5347	0.4134
237.7503	0.4037
237.966	0.4225
238.1816	0.4009
238.3972	0.4122
238.6128	0.397
238.8284	0.4126
239.0439	0.4233
239.2595	0.3854
239.475	0.4352
239.6906	0.4146
239.9061	0.3941
240.1216	0.4201
240.3371	0.3996
240.5526	0.3909
240.7681	0.4257
240.9836	0.3818
241.199	0.4184
241.4145	0.3772
241.6299	0.3973
241.8453	0.3967
242.0607	0.3832
242.2761	0.3623
242.4915	0.38
242.7069	0.3715
242.9223	0.3627
243.1376	0.3545
243.353	0.3335
243.5683	0.3568
243.7836	0.3159
243.9989	0.3427
244.2142	0.3123
244.4295	0.3059
244.6448	0.3159
244.86	0.3024
245.0753	0.2928
245.2905	0.2861
245.5057	0.2728
245.721	0.264
245.9362	0.2648
246.1514	0.2743
246.3665	0.2553
246.5817	0.2574
246.7969	0.2487
247.012	0.2456
247.2271	0.2438
247.4423	0.2448
247.6574	0.2427
247.8725	0.2323
248.0876	0.2135
248.3026	0.216
248.5177	0.216
248.7328	0.2113
248.9478	0.1951
249.1628	0.2139
249.3779	0.2197
249.5929	0.1968
249.8079	0.218
250.0228	0.2052
250.2378	0.1918
250.4528	0.1908
250.6677	0.1765
250.8827	0.1862
251.0976	0.1879
251.3125	0.1888
251.5274	0.1785
251.7423	0.1864
251.9572	0.1866
252.172	0.1807
252.3869	0.1841
252.6017	0.1869
252.8166	0.1709
253.0314	0.1578
253.2462	0.1634
253.461	0.1717
253.6758	0.1754
253.8906	0.1847
254.1053	0.1735
254.3201	0.163
254.5348	0.1766
254.7496	0.1805
254.9643	0.1765
255.179	0.1673
255.3937	0.1617
255.6083	0.1683
255.823	0.1613
256.0377	0.1663
256.2523	0.1729
256.467	0.1615
256.6816	0.1726
256.8962	0.1715
257.1108	0.1605
257.3254	0.1708
257.54	0.1618
257.7545	0.1549
257.9691	0.1685
258.1836	0.1683
258.3981	0.1701
258.6127	0.1675
258.8272	0.1537
259.0417	0.1594
259.2561	0.1694
259.4706	0.1616
259.6851	0.169
259.8995	0.1606
260.114	0.168
260.3284	0.169
260.5428	0.1538
260.7572	0.1559
260.9716	0.1669
261.186	0.1617
261.4003	0.1589
261.6147	0.1674
261.829	0.1666
262.0433	0.1682
262.2577	0.1643
262.472	0.1691
262.6863	0.1583
262.9005	0.1586
263.1148	0.1533
263.3291	0.1496
263.5433	0.1614
263.7576	0.1587
263.9718	0.1678
264.186	0.1619
264.4002	0.1612
264.6144	0.1592
264.8286	0.1754
265.0427	0.1578
265.2569	0.159
265.471	0.157
265.6851	0.1509
265.8993	0.1667
266.1134	0.1575
266.3275	0.1621
266.5415	0.1521
266.7556	0.17
266.9697	0.157
267.1837	0.1789
267.3978	0.1601
267.6118	0.1705
267.8258	0.1718
268.0398	0.1523
268.2538	0.1687
268.4677	0.1632
268.6817	0.1654
268.8957	0.1672
269.1096	0.1537
269.3235	0.1594
269.5374	0.161
269.7514	0.1557
269.9652	0.1474
270.1791	0.1453
270.393	0.1563
270.6068	0.1531
270.8207	0.1529
271.0345	0.143
271.2483	0.1403
271.4622	0.1393
271.676	0.1515
271.8897	0.1397
272.1035	0.1371
272.3173	0.1388
272.531	0.1422
272.7448	0.1424
272.9585	0.1474
273.1722	0.1342
273.3859	0.1478
273.5996	0.1312
273.8133	0.1498
274.0269	0.1358
274.2406	0.1286
274.4542	0.1435
274.6679	0.1252
274.8815	0.1417
275.0951	0.1532
275.3087	0.1473
275.5223	0.1497
275.7358	0.1495
275.9494	0.1427
276.1629	0.1345
276.3765	0.1431
276.59	0.1454
276.8035	0.1445
277.017	0.1315
277.2305	0.1417
277.444	0.1603
277.6574	0.1337
277.8709	0.1417
278.0843	0.1357
278.2978	0.1461
278.5112	0.1373
278.7246	0.1423
278.938	0.144
279.1513	0.1528
279.3647	0.153
279.5781	0.1428
279.7914	0.1514
280.0047	0.1591
280.2181	0.1508
280.4314	0.1637
280.6447	0.1543
280.8579	0.1548
281.0712	0.1578
281.2845	0.161
281.4977	0.1475
281.711	0.1429
281.9242	0.149
282.1374	0.1522
282.3506	0.1506
282.5638	0.1493
282.7769	0.1544
282.9901	0.1512
283.2033	0.1516
283.4164	0.16
283.6295	0.1441
283.8426	0.1311
284.0557	0.1553
284.2688	0.1772
284.4819	0.1498
284.695	0.1603
284.908	0.1609
285.1211	0.1568
285.3341	0.1457
285.5471	0.1437
285.7601	0.1544
285.9731	0.1568
286.1861	0.1617
286.3991	0.1559
286.612	0.1665
286.825	0.1546
287.0379	0.1635
287.2508	0.1591
287.4637	0.1605
287.6766	0.1586
287.8895	0.168
288.1024	0.1707
288.3152	0.1631
288.5281	0.1665
288.7409	0.1745
288.9538	0.1584
289.1666	0.1612
289.3794	0.168
289.5922	0.1579
289.8049	0.1664
290.0177	0.1614
290.2304	0.1711
290.4432	0.1666
290.6559	0.1656
290.8686	0.1779
291.0813	0.1728
291.294	0.1721
291.5067	0.1755
291.7194	0.1626
291.932	0.1821
292.1447	0.1741
292.3573	0.169
292.5699	0.1721
292.7825	0.1636
292.9951	0.1629
293.2077	0.1777
293.4203	0.1744
293.6328	0.1507
293.8454	0.167
294.0579	0.1616
294.2704	0.1615
294.4829	0.1559
294.6954	0.1711
294.9079	0.1615
295.1204	0.1595
295.3328	0.1586
295.5453	0.1742
295.7577	0.1649
295.9701	0.1471
296.1825	0.1715
296.3949	0.1693
296.6073	0.1593
296.8197	0.1599
297.0321	0.1746
297.2444	0.1521
297.4567	0.1691
297.6691	0.1652
297.8814	0.1591
298.0937	0.1777
298.306	0.1719
298.5182	0.1712
298.7305	0.1694
298.9428	0.165
299.155	0.1751
299.3672	0.1708
299.5794	0.1644
299.7916	0.1615
300.0038	0.1602
300.216	0.1704
300.4282	0.1667
300.6403	0.1736
300.8525	0.1774
301.0646	0.1645
301.2767	0.1716
301.4888	0.1668
301.7009	0.1586
301.913	0.1681
302.125	0.1658
302.3371	0.1687
302.5491	0.1605
302.7612	0.1716
302.9732	0.1649
303.1852	0.1622
303.3972	0.158
303.6092	0.1673
303.8211	0.1652
304.0331	0.1742
304.245	0.159
304.457	0.1487
304.6689	0.16
304.8808	0.1708
305.0927	0.1461
305.3046	0.1536
305.5164	0.1589
305.7283	0.1507
305.9401	0.1577
306.152	0.1526
306.3638	0.1429
306.5756	0.1427
306.7874	0.1483
306.9992	0.1431
307.2109	0.1475
307.4227	0.1249
307.6344	0.1442
307.8462	0.1423
308.0579	0.1398
308.2696	0.1342
308.4813	0.1276
308.693	0.1341
308.9046	0.1351
309.1163	0.1331
309.328	0.1244
309.5396	0.1317
309.7512	0.1208
309.9628	0.1226
310.1744	0.1102
310.386	0.1139
310.5976	0.1261
310.8091	0.1105
311.0207	0.1194
311.2322	0.1234
311.4437	0.1091
311.6552	0.103
311.8667	0.1217
312.0782	0.0928
312.2897	0.1018
312.5012	0.1105
312.7126	0.1151
312.924	0.1004
313.1355	0.1131
313.3469	0.1094
313.5583	0.1076
313.7696	0.1115
313.981	0.1141
314.1924	0.0948
314.4037	0.0991
314.6151	0.1118
314.8264	0.1002
315.0377	0.0981
315.249	0.1085
315.4603	0.1056
315.6716	0.1011
315.8828	0.0946
316.0941	0.0939
316.3053	0.0966
316.5165	0.0914
316.7277	0.0964
316.9389	0.0964
317.1501	0.0886
317.3613	0.0931
317.5724	0.085
317.7836	0.0993
317.9947	0.0973
318.2058	0.0985
318.417	0.085
318.6281	0.0873
318.8391	0.0992
319.0502	0.0996
319.2613	0.0985
319.4723	0.0967
319.6834	0.1097
319.8944	0.0901
320.1054	0.0943
320.3164	0.1008
320.5274	0.0889
320.7383	0.0907
320.9493	0.1005
321.1602	0.1033
321.3712	0.081
321.5821	0.0992
321.793	0.0934
322.0039	0.0884
322.2148	0.0963
322.4257	0.0817
322.6365	0.0963
322.8474	0.0999
323.0582	0.0889
323.269	0.0963
323.4798	0.1125
323.6906	0.0987
323.9014	0.1033
324.1122	0.0945
324.3229	0.0882
324.5337	0.0982
324.7444	0.0981
324.9551	0.1186
325.1658	0.1013
325.3765	0.1043
325.5872	0.101
325.7979	0.0926
326.0085	0.107
326.2192	0.102
326.4298	0.102
326.6404	0.0953
326.851	0.0909
327.0616	0.0981
327.2722	0.1011
327.4828	0.1028
327.6933	0.0959
327.9039	0.1005
328.1144	0.1123
328.3249	0.1051
328.5354	0.0882
328.7459	0.1046
328.9564	0.098
329.1669	0.1015
329.3773	0.106
329.5878	0.108
329.7982	0.1
330.0086	0.0976
330.219	0.1034
330.4294	0.1008
330.6398	0.1014
330.8502	0.0918
331.0605	0.106
331.2708	0.1089
331.4812	0.1065
331.6915	0.1055
331.9018	0.1062
332.1121	0.0969
332.3224	0.1014
332.5326	0.1061
332.7429	0.1039
332.9531	0.114
333.1633	0.1056
333.3735	0.1093
333.5837	0.1146
333.7939	0.1016
334.0041	0.1127
334.2143	0.1069
334.4244	0.102
334.6346	0.0867
334.8447	0.1183
335.0548	0.103
335.2649	0.0958
335.475	0.1064
335.685	0.0921
335.8951	0.116
336.1051	0.1066
336.3152	0.1116
336.5252	0.0969
336.7352	0.1154
336.9452	0.1119
337.1552	0.113
337.3652	0.0978
337.5751	0.1067
337.7851	0.1198
337.995	0.1
338.2049	0.1104
338.4148	0.1123
338.6247	0.1094
338.8346	0.1118
339.0445	0.1024
339.2543	0.0994
339.4642	0.1074
339.674	0.103
339.8838	0.1342
340.0936	0.1107
340.3034	0.1153
340.5132	0.1104
340.7229	0.1058
340.9327	0.1132
341.1424	0.1127
341.3522	0.1264
341.5619	0.1198
341.7716	0.1097
341.9813	0.1263
342.1909	0.118
342.4006	0.1267
342.6102	0.1191
342.8199	0.1248
343.0295	0.1248
343.2391	0.1151
343.4487	0.1345
343.6583	0.1116
343.8679	0.1275
344.0774	0.1334
344.287	0.1253
344.4965	0.119
344.706	0.1293
344.9155	0.1248
345.125	0.1207
345.3345	0.1299
345.544	0.119
345.7534	0.1223
345.9629	0.1195
346.1723	0.1216
346.3817	0.1138
346.5911	0.1367
346.8005	0.1379
347.0099	0.1198
347.2193	0.1248
347.4286	0.1363
347.638	0.1388
347.8473	0.1336
348.0566	0.1338
348.2659	0.1377
348.4752	0.1354
348.6845	0.1226
348.8937	0.128
349.103	0.1349
349.3122	0.1245
349.5214	0.1278
349.7306	0.1364
349.9398	0.1457
350.149	0.1278
350.3582	0.1315
350.5674	0.1492
350.7765	0.1472
350.9856	0.1389
351.1948	0.1346
351.4039	0.1301
351.613	0.1437
351.822	0.1344
352.0311	0.142
352.2402	0.1352
352.4492	0.1549
352.6582	0.144
352.8672	0.1291
353.0762	0.1464
353.2852	0.1458
353.4942	0.1334
353.7032	0.154
353.9121	0.1402
354.1211	0.1496
354.33	0.1484
354.5389	0.1593
354.7478	0.1525
354.9567	0.1485
355.1655	0.1395
355.3744	0.1445
355.5833	0.1495
355.7921	0.1595
356.0009	0.1459
356.2097	0.1715
356.4185	0.1664
356.6273	0.1629
356.8361	0.1659
357.0448	0.1487
357.2536	0.1531
357.4623	0.1586
357.671	0.1636
357.8797	0.1662
358.0884	0.1656
358.2971	0.1567
358.5057	0.1685
358.7144	0.168
358.923	0.1573
359.1316	0.1751
359.3402	0.1547
359.5488	0.1616
359.7574	0.1634
359.966	0.1575
360.1746	0.1881
360.3831	0.1707
360.5916	0.1651
360.8002	0.169
361.0087	0.1763
361.2172	0.1798
361.4256	0.1685
361.6341	0.1876
361.8426	0.1814
362.051	0.1961
362.2594	0.171
362.4678	0.1762
362.6762	0.2006
362.8846	0.1924
363.093	0.1791
363.3014	0.1795
363.5097	0.177
363.718	0.1976
363.9264	0.1862
364.1347	0.1819
364.343	0.2012
364.5513	0.1989
364.7595	0.2035
364.9678	0.1913
365.176	0.194
365.3842	0.1983
365.5925	0.189
365.8007	0.1955
366.0089	0.2083
366.217	0.1888
366.4252	0.2021
366.6333	0.2153
366.8415	0.2041
367.0496	0.1973
367.2577	0.218
367.4658	0.2133
367.6739	0.2127
367.882	0.1984
368.09	0.2096
368.2981	0.2085
368.5061	0.2023
368.7141	0.2143
368.9221	0.2134
369.1301	0.2042
369.3381	0.2137
369.5461	0.2017
369.754	0.2252
369.962	0.2314
370.1699	0.2092
370.3778	0.2198
370.5857	0.2076
370.7936	0.2068
371.0015	0.2234
371.2093	0.2246
371.4172	0.2322
371.625	0.2004
371.8328	0.2126
372.0406	0.2246
372.2484	0.2255
372.4562	0.2271
372.664	0.2342
372.8717	0.2381
373.0795	0.2043
373.2872	0.2304
373.4949	0.2224
373.7026	0.2395
373.9103	0.2293
374.118	0.2442
374.3256	0.231
374.5333	0.2136
374.7409	0.2219
374.9485	0.2313
375.1561	0.2345
375.3637	0.251
375.5713	0.2301
375.7789	0.2312
375.9864	0.2584
376.194	0.2586
376.4015	0.2473
376.609	0.2545
376.8165	0.2386
377.024	0.2404
377.2315	0.2374
377.4389	0.2236
377.6464	0.2528
377.8538	0.2391
378.0612	0.2451
378.2686	0.2497
378.476	0.2511
378.6834	0.2382
378.8908	0.252
379.0981	0.2516
379.3055	0.2537
379.5128	0.244
379.7201	0.2493
379.9274	0.2537
380.1347	0.2552
380.342	0.2701
380.5492	0.2513
380.7565	0.2647
380.9637	0.2636
381.1709	0.2509
381.3781	0.2406
381.5853	0.2544
381.7925	0.2654
381.9997	0.2396
382.2068	0.2669
382.4139	0.2605
382.6211	0.2442
382.8282	0.2661
383.0353	0.268
383.2424	0.243
383.4494	0.2697
383.6565	0.2587
383.8635	0.2648
384.0706	0.2741
384.2776	0.256
384.4846	0.255
384.6916	0.269
384.8986	0.2606
385.1055	0.2584
385.3125	0.2657
385.5194	0.243
385.7263	0.2825
385.9333	0.2491
386.1402	0.2471
386.347	0.2609
386.5539	0.2413
386.7608	0.2692
386.9676	0.2429
387.1744	0.2639
387.3813	0.252
387.5881	0.2523
387.7948	0.2598
388.0016	0.2477
388.2084	0.2553
388.4151	0.2464
388.6219	0.2701
388.8286	0.2717
389.0353	0.2664
389.242	0.2558
389.4487	0.2519
389.6553	0.2483
389.862	0.2407
390.0686	0.2489
390.2753	0.2743
390.4819	0.2557
390.6885	0.2579
390.8951	0.2483
391.1016	0.2477
391.3082	0.2448
391.5147	0.2569
391.7213	0.2294
391.9278	0.2266
392.1343	0.2358
392.3408	0.2573
392.5473	0.2314
392.7537	0.2362
392.9602	0.2243
393.1666	0.2417
393.373	0.2261
393.5794	0.2473
393.7858	0.2236
393.9922	0.2268
394.1986	0.2521
394.4049	0.2444
394.6113	0.2312
394.8176	0.2228
395.0239	0.2137
395.2302	0.2183
395.4365	0.2385
395.6428	0.2407
395.8491	0.211
396.0553	0.2318
396.2615	0.2139
396.4678	0.2275
396.674	0.216
396.8802	0.2253
397.0863	0.2409
397.2925	0.2237
397.4987	0.2257
397.7048	0.2018
397.9109	0.2232
398.117	0.2186
398.3231	0.2302
398.5292	0.2275
398.7353	0.2234
398.9413	0.2228
399.1474	0.2095
399.3534	0.2038
399.5594	0.2082
399.7654	0.227
399.9714	0.2414
400.1774	0.2055
400.3833	0.2188
400.5893	0.2244
400.7952	0.2241
401.0011	0.2086
401.207	0.2205
401.4129	0.2305
401.6188	0.2221
401.8247	0.2199
402.0305	0.2188
402.2364	0.2152
402.4422	0.2376
402.648	0.2276
402.8538	0.2386
403.0596	0.2135
403.2654	0.2307
403.4711	0.239
403.6768	0.2228
403.8826	0.2222
404.0883	0.2085
404.294	0.2311
404.4997	0.2097
404.7054	0.2215
404.911	0.1995
405.1167	0.2241
405.3223	0.2133
405.5279	0.2192
405.7335	0.2338
405.9391	0.2327
406.1447	0.2289
406.3502	0.2392
406.5558	0.2171
406.7613	0.2145
406.9668	0.2208
407.1724	0.2168
407.3778	0.2141
407.5833	0.2062
407.7888	0.2124
407.9942	0.2327
408.1997	0.2024
408.4051	0.2102
408.6105	0.2243
408.8159	0.2157
409.0213	0.2103
409.2267	0.2305
409.432	0.2236
409.6374	0.2223
409.8427	0.2037
410.048	0.22
410.2533	0.2156
410.4586	0.2222
410.6639	0.1924
410.8691	0.2071
411.0744	0.228
411.2796	0.214
411.4848	0.2097
411.69	0.2142
411.8952	0.2397
412.1004	0.2064
412.3056	0.2295
412.5107	0.2029
412.7158	0.2333
412.921	0.2119
413.1261	0.221
413.3312	0.2079
413.5362	0.2193
413.7413	0.2075
413.9464	0.2104
414.1514	0.1999
414.3564	0.2225
414.5614	0.1845
414.7664	0.2097
414.9714	0.2284
415.1764	0.2272
415.3813	0.2459
415.5863	0.2113
415.7912	0.2134
415.9961	0.2037
416.201	0.2151
416.4059	0.2207
416.6108	0.1921
416.8156	0.216
417.0205	0.2175
417.2253	0.1959
417.4301	0.2298
417.6349	0.1957
417.8397	0.2067
418.0445	0.2025
418.2492	0.2077
418.454	0.2082
418.6587	0.2117
418.8634	0.2121
419.0681	0.1925
419.2728	0.1943
419.4775	0.191
419.6822	0.2072
419.8868	0.1847
420.0915	0.215
420.2961	0.1919
420.5007	0.1909
420.7053	0.2071
420.9099	0.2056
421.1144	0.2024
421.319	0.1902
421.5235	0.1936
421.728	0.2053
421.9325	0.198
422.137	0.199
422.3415	0.1946
422.546	0.187
422.7504	0.2001
422.9549	0.1967
423.1593	0.1975
423.3637	0.1983
423.5681	0.1838
423.7725	0.1846
423.9769	0.1865
424.1812	0.1702
424.3856	0.172
424.5899	0.1919
424.7942	0.173
424.9985	0.1791
425.2028	0.1904
425.4071	0.2026
425.6113	0.173
425.8156	0.1821
426.0198	0.1798
426.224	0.1797
426.4282	0.1648
426.6324	0.1746
426.8366	0.1786
427.0407	0.1795
427.2449	0.1758
427.449	0.1761
427.6531	0.1614
427.8572	0.1733
428.0613	0.1715
428.2654	0.1482
428.4694	0.1401
428.6735	0.1612
428.8775	0.1761
429.0815	0.1771
429.2855	0.1577
429.4895	0.1719
429.6935	0.1602
429.8975	0.1627
430.1014	0.1607
430.3053	0.1333
430.5093	0.1629
430.7132	0.1378
430.9171	0.1418
431.1209	0.1618
431.3248	0.1539
431.5286	0.142
431.7325	0.1476
431.9363	0.154
432.1401	0.1422
432.3439	0.1321
432.5477	0.1155
432.7514	0.129
432.9552	0.1516
433.1589	0.116
433.3627	0.1215
433.5664	0.1485
433.7701	0.1258
433.9737	0.1206
434.1774	0.1116
434.3811	0.1117
434.5847	0.131
434.7883	0.1166
434.9919	0.1092
435.1955	0.1076
435.3991	0.1175
435.6027	0.1088
435.8062	0.1035
436.0098	0.1005
436.2133	0.1097
436.4168	0.0994
436.6203	0.0977
436.8238	0.1094
437.0272	0.1096
437.2307	0.097
437.4341	0.1046
437.6375	0.1106
437.841	0.0864
438.0443	0.1062
438.2477	0.097
438.4511	0.0848
438.6545	0.1046
438.8578	0.1063
439.0611	0.1
439.2644	0.0915
439.4677	0.071
439.671	0.0718
439.8743	0.0957
440.0775	0.0893
440.2808	0.0864
440.484	0.0891
440.6872	0.0746
440.8904	0.0638
441.0936	0.0802
441.2967	0.0782
441.4999	0.0756
441.703	0.053
441.9062	0.0729
442.1093	0.0667
442.3124	0.0706
442.5155	0.0541
442.7185	0.0747
442.9216	0.0494
443.1246	0.0766
443.3276	0.0557
443.5307	0.0698
443.7337	0.0671
443.9366	0.0681
444.1396	0.043
444.3426	0.0653
444.5455	0.0625
444.7484	0.0628
444.9513	0.0407
445.1542	0.0574
445.3571	0.0643
445.56	0.0601
445.7628	0.0453
445.9657	0.0368
446.1685	0.0521
446.3713	0.0511
446.5741	0.0449
446.7769	0.0303
446.9797	0.0478
447.1824	0.0377
447.3852	0.0333
447.5879	0.0469
447.7906	0.0533
447.9933	0.0323
448.196	0.0342
448.3986	0.0324
448.6013	0.0376
448.8039	0.0322
449.0066	0.0353
449.2092	0.0396
449.4118	0.05
449.6143	0.0313
449.8169	0.0441
450.0195	0.0235
450.222	0.0136
450.4245	0.0283
450.627	0.0332
450.8295	0.0227
451.032	0.023
451.2345	0.0281
451.4369	0.0215
451.6394	0.0329
451.8418	0.0107
452.0442	0.0256
452.2466	0.0255
452.449	0.0079
452.6513	0.0337
452.8537	0.0115
453.056	-0.0046
453.2583	0.0362
453.4607	0.0072
453.663	0.0191
453.8652	0.0325
454.0675	0.0043
454.2697	0.0241
454.472	0.0131
454.6742	0.0141
454.8764	0.0169
455.0786	0.0303
455.2808	0.0124
455.4829	0.0179
455.6851	0.021
455.8872	0.0099
456.0893	0.0117
456.2915	0.0088
456.4935	0.0177
456.6956	0.0185
456.8977	0.0142
457.0997	0.0022
457.3018	-0.0097
457.5038	0.0044
457.7058	0.0035
457.9078	0.0195
458.1098	0.0228
458.3117	0.0187
458.5137	0.0037
458.7156	0.007
458.9175	-0.0036
459.1194	0.0134
459.3213	0.0095
459.5232	0.0045
459.725	-0.003
459.9269	0.0041
460.1287	0.0078
460.3305	-0.004
460.5323	0.008
460.7341	0.0119
460.9359	0.0001
461.1376	0.0151
461.3394	-0.0009
461.5411	0.0114
461.7428	-0.0149
461.9445	0.0153
462.1462	0.0208
462.3479	-0.0002
462.5495	0.0019
462.7512	0.0196
462.9528	0.0065
463.1544	-0.0107
463.356	-0.0009
463.5576	0.0152
463.7592	0.0013
463.9607	0.0176
464.1623	0.0144
464.3638	0.0076
464.5653	-0.0087
464.7668	-0.003
464.9683	0.0085
465.1697	0.0304
465.3712	-0.0061
465.5726	-0.0098
465.7741	-0.0027
465.9755	0.0015
466.1769	0.0054
466.3782	0.0049
466.5796	-0.0078
466.7809	0.0102
466.9823	-0.0053
467.1836	0.0022
467.3849	-0.003
467.5862	0.0063
467.7875	-0.0122
467.9887	0.0081
468.19	0.0037
468.3912	0.0021
468.5924	0.0042
468.7936	0.0056
468.9948	0.005
469.196	0.0006
469.3972	-0.0075
469.5983	0.0026
469.7994	-0.0066
470.0006	-0.0088
470.2017	-0.0011
470.4027	-0.0062
470.6038	0.0026
470.8049	-0.0052
471.0059	-0.007
471.2069	-0.0187
471.408	0.0088
471.6089	0.0042
471.8099	-0.0028
472.0109	0.0028
472.2119	-0.0096
472.4128	-0.0057
472.6137	0.0019
472.8146	-0.0201
473.0155	-0.0129
473.2164	-0.0023
473.4173	0.0031
473.6181	0.0067
473.819	0.0072
474.0198	-0.0174
474.2206	0.0126
474.4214	-0.0003
474.6222	0.0035
474.8229	-0.0051
475.0237	-0.01
475.2244	-0.0156
475.4251	-0.0041
475.6258	-0.0119
475.8265	0.0036
476.0272	0.0016
476.2278	-0.0042
476.4285	0.0012
476.6291	-0.0116
476.8297	-0.002
477.0303	0.0046
477.2309	-0.0129
477.4315	-0.0198
477.632	-0.0025
477.8326	-0.0044
478.0331	-0.0114
478.2336	0.0108
478.4341	0.004
478.6346	-0.0002
478.8351	0.0001
479.0355	0.0011
479.236	0.0025
479.4364	0.0004
479.6368	-0.0052
479.8372	-0.0136
480.0376	-0.003
480.2379	-0.0088
480.4383	-0.0071
480.6386	0.0131
480.8389	0.0038
481.0392	-0.0044
481.2395	-0.0125
481.4398	0.0117
481.6401	-0.0036
481.8403	0.0021
482.0405	-0.0015
482.2408	0.0002
482.441	0.0123
482.6411	-0.0093
482.8413	-0.0036
483.0415	-0.0165
483.2416	-0.0015
483.4417	0.003
483.6419	-0.0058
483.8419	-0.0079
484.042	0.006
484.2421	0.0109
484.4422	-0.0041
484.6422	0.0018
484.8422	-0.003
485.0422	-0.0093
485.2422	-0.0021
485.4422	0.0011
485.6422	-0.014
485.8421	-0.0025
486.042	0.0034
486.242	-0.0006
486.4419	-0.0134
486.6417	-0.0083
486.8416	-0.0046
487.0415	-0.0037
487.2413	-0.0095
487.4411	-0.0078
487.641	-0.0131
487.8408	0.009
488.0405	-0.0052
488.2403	-0.0048
488.4401	0.004
488.6398	-0.0013
488.8395	-0.0148
489.0392	-0.0005
489.2389	-0.0065
489.4386	-0.0013
489.6383	-0.0172
489.8379	0.0099
490.0376	-0.0034
490.2372	-0.0146
490.4368	-0.0154
490.6364	-0.0032
490.836	-0.0119
491.0355	-0.0064
491.2351	-0.0184
491.4346	-0.0171
491.6341	-0.0205
491.8336	0.0008
492.0331	-0.004
492.2326	-0.0145
492.432	-0.0061
492.6315	-0.0029
492.8309	-0.0077
493.0303	-0.0023
493.2297	-0.0115
493.4291	-0.0076
493.6284	-0.0102
493.8278	-0.0087
494.0271	-0.0011
494.2264	-0.0021
494.4257	-0.0272
494.625	0.0025
494.8243	-0.0169
495.0236	-0.0117
495.2228	-0.0173
495.422	-0.0157
495.6213	-0.0062
495.8205	-0.0107
496.0196	0.0002
496.2188	0.0015
496.418	-0.009
496.6171	-0.0084
496.8162	-0.0072
497.0153	0.008
497.2144	-0.0049
497.4135	-0.002
497.6126	-0.0085
497.8116	-0.0131
498.0107	-0.0031
498.2097	-0.008
498.4087	-0.0126
498.6077	0.002
498.8067	-0.007
499.0056	0.0094
499.2046	-0.0077
499.4035	-0.0217
499.6024	-0.0065
499.8013	-0.009
500.0002	-0.0161
500.199	-0.0044
500.3979	-0.0033
500.5967	-0.0148
500.7956	0.0027
500.9944	-0.0107
501.1932	-0.01
501.3919	-0.0122
501.5907	-0.0088
501.7895	-0.0084
501.9882	-0.0114
502.1869	-0.0122
502.3856	-0.0067
502.5843	-0.0138
502.783	-0.006
502.9816	-0.0024
503.1803	-0.0239
503.3789	-0.0135
503.5775	0.0041
503.7761	-0.0049
503.9747	-0.0032
504.1732	-0.0099
504.3718	-0.0023
504.5703	-0.0055
504.7689	-0.014
504.9674	-0.0002
505.1658	-0.0064
505.3643	-0.0001
505.5628	-0.0092
505.7612	-0.0087
505.9597	0.0001
506.1581	-0.0115
506.3565	0.0011
506.5549	-0.0061
506.7532	-0.0203
506.9516	-0.0108
507.1499	-0.0117
507.3482	-0.0221
507.5465	-0.0104
507.7448	-0.0036
507.9431	-0.0026
508.1414	-0.0102
508.3396	0.0026
508.5379	-0.0106
508.7361	-0.0076
508.9343	-0.0112
509.1325	-0.0017
509.3306	-0.0034
509.5288	-0.0036
509.7269	-0.0019
509.9251	-0.0067
510.1232	-0.0114
510.3213	-0.004
510.5193	-0.0055
510.7174	-0.0168
510.9154	-0.015
511.1135	-0.0164
511.3115	-0.0037
511.5095	-0.0116
511.7075	-0.0039
511.9055	-0.0031
512.1034	-0.0045
512.3014	0.0007
512.4993	0.0036
512.6972	-0.004
512.8951	-0.0114
513.093	-0.0037
513.2908	0.0046
513.4887	-0.0045
513.6865	-0.0139
513.8844	-0.0075
514.0822	-0.0084
514.2799	-0.0099
514.4777	-0.0077
514.6755	-0.0111
514.8732	-0.0062
515.0709	-0.0086
515.2687	0.0038
515.4664	-0.0078
515.664	-0.0006
515.8617	-0.0098
516.0594	-0.0197
516.257	-0.0058
516.4546	-0.0152
516.6522	-0.0035
516.8498	0.0022
517.0474	-0.0003
517.2449	0.0024
517.4425	-0.0088
517.64	-0.0045
517.8375	0.0005
518.035	-0.0059
518.2325	-0.007
518.43	-0.0159
518.6274	-0.0145
518.8249	-0.019
519.0223	-0.0002
519.2197	-0.0072
519.4171	-0.0078
519.6145	-0.0072
519.8118	-0.0105
520.0092	-0.0159
520.2065	-0.0085
520.4038	-0.0149
520.6011	-0.0005
520.7984	-0.0098
520.9956	-0.0075
521.1929	-0.0101
521.3901	-0.0065
521.5874	-0.0043
521.7846	0.0016
521.9818	-0.0044
522.1789	-0.0134
522.3761	-0.0024
522.5732	-0.0106
522.7704	-0.01
522.9675	-0.0012
523.1646	-0.0152
523.3617	-0.0056
523.5587	0.0041
523.7558	-0.0055
523.9528	-0.0087
524.1498	-0.0047
524.3468	-0.0135
524.5438	-0.0147
524.7408	-0.0017
524.9378	0.0033
525.1347	-0.0015
525.3316	-0.0005
525.5285	-0.016
525.7254	-0.0141
525.9223	-0.0062
526.1192	-0.0022
526.316	-0.0132
526.5129	0.0089
526.7097	-0.0054
526.9065	-0.0087
527.1033	-0.014
527.3	0.0046
527.4968	-0.0057
527.6935	-0.0063
527.8903	-0.0068
528.087	0.0012
528.2837	-0.0026
528.4804	-0.0077
528.677	-0.0156
528.8737	0.0054
529.0703	-0.0031
529.2669	-0.0066
529.4635	-0.0043
529.6601	-0.0057
529.8567	-0.0069
530.0532	-0.0155
530.2498	-0.003
530.4463	0.0012
530.6428	-0.0074
530.8393	0.0096
531.0358	-0.0086
531.2322	-0.0138
531.4287	-0.0091
531.6251	-0.0006
531.8215	0.0154
532.0179	0.0021
532.2143	0.0027
532.4107	-0.0167
532.607	-0.0124
532.8034	0.0043
532.9997	0.0072
533.196	-0.0067
533.3923	-0.0116
533.5886	0.0041
533.7848	-0.0054
533.9811	0.0006
534.1773	-0.0072
534.3735	-0.0093
534.5697	-0.0008
534.7659	0.0053
534.9621	0.0026
535.1582	-0.0089
535.3544	-0.0075
535.5505	-0.0076
535.7466	-0.0054
535.9427	-0.0056
536.1387	-0.0084
536.3348	-0.0101
536.5308	-0.0079
536.7269	-0.017
536.9229	0.0039
537.1189	0.0011
537.3148	-0.0053
537.5108	-0.0198
537.7068	-0.0003
537.9027	0.0072
538.0986	-0.0006
538.2945	-0.0037
538.4904	-0.0013
538.6863	-0.0035
538.8821	-0.0053
539.078	-0.0114
539.2738	0.0015
539.4696	-0.0096
539.6654	0.003
539.8611	0.0081
540.0569	-0.0072
540.2526	-0.015
540.4484	-0.0001
540.6441	0.001
540.8398	-0.0078
541.0355	-0.003
541.2311	-0.0051
541.4268	-0.0139
541.6224	0.0047
541.818	-0.0063
542.0136	-0.0001
542.2092	-0.0003
542.4048	0.0009
542.6003	0.003
542.7959	-0.0026
542.9914	-0.0104
543.1869	0.0079
543.3824	-0.0025
543.5779	-0.0084
543.7734	-0.0059
543.9688	-0.0105
544.1642	-0.0005
544.3596	-0.0026
544.555	0.0001
544.7504	0.0001
544.9458	-0.0041
545.1411	-0.0037
545.3365	-0.0099
545.5318	-0.002
545.7271	-0.0077
545.9224	0.0014
546.1177	0.0003
546.3129	0.0042
546.5081	-0.0064
546.7034	-0.0036
546.8986	-0.0019
547.0938	-0.0086
547.289	-0.0068
547.4841	0.0033
547.6793	0.0078
547.8744	-0.0027
548.0695	0.0037
548.2646	-0.015
548.4597	0.0024
548.6548	-0.004
548.8498	0.0027
549.0448	0.0036
549.2399	-0.0035
549.4349	0.0128
549.6298	0.0044
549.8248	-0.0025
550.0198	-0.0064
550.2147	-0.002
550.4096	-0.0099
550.6045	-0.0005
550.7994	0.0149
550.9943	-0.0025
551.1892	0.0016
551.384	0.0009
551.5788	-0.0141
551.7737	-0.005
551.9685	-0.002
552.1632	-0.006
552.358	-0.0037
552.5528	0.0042
552.7475	-0.0033
552.9422	-0.0077
553.1369	0.003
553.3316	-0.0017
553.5263	-0.0048
553.7209	0.0042
553.9156	-0.0041
554.1102	-0.0141
554.3048	-0.0027
554.4994	0.0083
554.694	-0.0063
554.8885	0.008
555.0831	-0.0029
555.2776	-0.0025
555.4721	-0.0025
555.6666	-0.0044
555.8611	0.0135
556.0555	-0.0041
556.25	-0.0012
556.4444	-0.0047
556.6388	0.0011
556.8332	0.0013
557.0276	-0.0005
557.222	-0.0102
557.4163	0.0023
557.6107	-0.0108
557.805	0.0014
557.9993	-0.0103
558.1936	0.0043
558.3879	0.0038
558.5821	-0.0027
558.7764	-0.0081
558.9706	0.006
559.1648	0.0065
559.359	0.0015
559.5532	-0.0057
559.7473	0.0032
559.9415	-0.0029
560.1356	-0.0033
560.3297	0.0012
560.5238	0.0029
560.7179	-0.0118
560.9119	0.0019
561.106	-0.0023
561.3	0.0023
561.494	-0.0017
561.688	-0.0023
561.882	-0.0132
562.076	-0.0042
562.2699	-0.0005
562.4639	-0.0002
562.6578	0.0024
562.8517	0.0026
563.0456	-0.002
563.2395	0.001
563.4333	-0.0066
563.6272	0.0074
563.821	-0.0061
564.0148	-0.0013
564.2086	-0.0026
564.4024	-0.0079
564.5961	-0.0013
564.7899	0.0023
564.9836	-0.0002
565.1773	-0.0016
565.371	0.0091
565.5647	0.0003
565.7584	0.0021
565.952	0.0078
566.1456	0.0022
566.3393	-0.0004
566.5329	0.0023
566.7264	-0.0041
566.92	-0.0007
567.1136	0.0018
567.3071	-0.0084
567.5006	0.0057
567.6941	0.0127
567.8876	-0.0102
568.0811	-0.0072
568.2745	0.0082
568.468	0.0064
568.6614	0.0045
568.8548	0.0051
569.0482	-0.0002
569.2416	-0.0014
569.4349	0.0069
569.6283	0.0081
569.8216	0.0049
570.0149	-0.0009
570.2082	0.0036
570.4015	0.0074
570.5947	0.0067
570.788	0.0065
570.9812	0.005
571.1744	-0.0025
571.3676	-0.0015
571.5608	-0.0023
571.754	0.0016
571.9471	0.0028
572.1402	-0.0026
572.3333	-0.0004
572.5264	0.0036
572.7195	0.0004
572.9126	-0.0014
573.1057	-0.0019
573.2987	0.0045
573.4917	0.003
573.6847	-0.0086
573.8777	0.0115
574.0707	0.0106
574.2636	-0.0011
574.4566	0.0008
574.6495	0.0094
574.8424	0.0025
575.0353	0.0026
575.2281	0.006
575.421	0.0029
575.6138	0.0075
575.8067	-0.0005
575.9995	0.0066
576.1923	0.0063
576.385	-0.0004
576.5778	-0.0008
576.7706	0.0035
576.9633	0.0029
577.156	0.0047
577.3487	0.0003
577.5414	0.0026
577.734	0.0049
577.9267	0.0065
578.1193	-0.0059
578.3119	-0.002
578.5045	0.0004
578.6971	0.0015
578.8897	0.0066
579.0822	0.0034
579.2747	0.0036
579.4673	-0.0071
579.6598	-0.0028
579.8522	0.0009
580.0447	0.0012
580.2372	0.0007
580.4296	0.0079
580.622	0.0075
580.8144	0.0049
581.0068	0.0014
581.1992	-0.0056
581.3915	-0.0041
581.5839	-0.0052
581.7762	-0.0027
581.9685	0.0039
582.1608	0.0045
582.353	0.005
582.5453	-0.0063
582.7375	-0.0013
582.9298	0.0061
583.122	-0.003
583.3142	0.0044
583.5063	0.0057
583.6985	0.0033
583.8906	0.0035
584.0827	-0.0022
584.2749	0.004
584.4669	0.0046
584.659	0.0008
584.8511	0.0001
585.0431	-0.0046
585.2352	0.0024
585.4272	0.0048
585.6192	0.0098
585.8111	0.0032
586.0031	0.0057
586.195	0.0042
586.387	0.0064
586.5789	-0.0035
586.7708	0.004
586.9627	0.0079
587.1545	-0.0041
587.3464	0.0101
587.5382	0.0058
587.73	0.0048
587.9218	0.0035
588.1136	-0.0011
588.3053	0.0076
588.4971	0.0009
588.6888	-0.0072
588.8805	0.002
589.0722	0.0075
589.2639	0.0035
589.4556	0.0005
589.6472	-0.0021
589.8389	-0.0073
590.0305	-0.0082
590.2221	0.0017
590.4137	-0.0059
590.6052	0.0097
590.7968	0.0038
590.9883	0.0012
591.1798	0.005
591.3713	0.0066
591.5628	0.006
591.7543	0.0109
591.9458	0.0095
592.1372	0.0125
592.3286	0.0127
592.52	0.0117
592.7114	0.005
592.9028	-0.0004
593.0941	0.0017
593.2855	0.0018
593.4768	-0.0003
593.6681	-0.0028
593.8594	-0.0023
594.0506	0.0038
594.2419	0.0118
594.4331	0.0005
594.6244	0.0073
594.8156	0.0013
595.0067	0.0012
595.1979	0.0023
595.3891	0.0078
595.5802	-0.0002
595.7713	-0.0025
595.9624	0.0013
596.1535	0.0078
596.3446	-0.0016
596.5357	0.0026
596.7267	0.0038
596.9177	0.0098
597.1087	-0.0014
597.2997	-0.0017
597.4907	0.0095
597.6817	0.0003
597.8726	0.0066
598.0635	-0.0017
598.2544	0.0066
598.4453	0.0025
598.6362	0.0038
598.827	0.0014
599.0179	0.0058
599.2087	0.001
599.3995	0.0005
599.5903	0.0047
599.7811	-0.0009
599.9718	-0.0053
600.1626	-0.0045
600.3533	-0.0029
600.544	0.0117
600.7347	0.0029
600.9254	0.0026
601.116	-0.0074
601.3067	0.0034
601.4973	0.0002
601.6879	0.0087
601.8785	0.0007
602.0691	0.0108
602.2596	0.0066
602.4502	0.0093
602.6407	0.0051
602.8312	0.0088
603.0217	0.0001
603.2122	0.0023
603.4027	-0.003
603.5931	0.0039
603.7835	-0.007
603.9739	-0.0046
604.1643	0.0021
604.3547	0
604.5451	0.0074
604.7354	-0.0012
604.9257	0.0108
605.116	0.0004
605.3063	0.0116
605.4966	0.0116
605.6869	0.0069
605.8771	0.0051
606.0673	0.0088
606.2575	0.0043
606.4477	0.0024
606.6379	0.0116
606.8281	0.0016
607.0182	0.0008
607.2083	0.0111
607.3985	-0.0021
607.5885	0.0098
607.7786	0.0016
607.9687	-0.0032
608.1587	0.0026
608.3488	0.0034
608.5388	0.0035
608.7288	-0.0052
608.9187	-0.0037
609.1087	-0.0025
609.2986	-0.0052
609.4886	-0.0054
609.6785	-0.0023
609.8684	0.0079
610.0582	0.0034
610.2481	0.001
610.4379	-0.0086
610.6278	0.0056
610.8176	-0.0027
611.0074	-0.0028
611.1971	-0.0016
611.3869	0.0042
611.5766	0
611.7664	0.0069
611.9561	0.0102
612.1458	0.0086
612.3354	0.0007
612.5251	0.0059
612.7147	0.0118
612.9044	0.0135
613.094	-0.0057
613.2836	0.0085
613.4731	0.0027
613.6627	0.0024
613.8522	0.0046
614.0417	0.007
614.2313	0.0028
614.4207	-0.0031
614.6102	0.0018
614.7997	-0.0009
614.9891	0.0022
615.1785	0.0039
615.3679	-0.002
615.5573	0.0146
615.7467	0.0036
615.9361	0.0008
616.1254	0.0049
616.3147	0.004
616.504	0.0021
616.6933	0.0017
616.8826	0.001
617.0718	0.0041
617.2611	0.0039
617.4503	0.0011
617.6395	0
617.8287	-0.0006
618.0179	-0.0004
618.207	0.0103
618.3961	0.005
618.5853	-0.0008
618.7744	0.01
618.9634	0.0097
619.1525	0.0075
619.3416	0.0083
619.5306	0.0104
619.7196	0.0078
619.9086	0.0059
620.0976	0.0109
620.2866	0.0185
620.4755	0.0161
620.6645	0.0037
620.8534	0.0093
621.0423	0.0092
621.2312	0.0093
621.42	0.0034
621.6089	0.0026
621.7977	0.0082
621.9865	-0.0093
622.1753	0.0051
622.3641	0.0016
622.5529	0.0117
622.7416	0.0117
622.9303	0.0061
623.1191	0.0128
623.3078	0.0033
623.4964	0.0073
623.6851	0.0024
623.8737	-0.003
624.0624	0.0086
624.251	-0.0048
624.4396	0.0074
624.6282	-0.0017
624.8167	0.0033
625.0053	0.0102
625.1938	0.0103
625.3823	0.0042
625.5708	0.0009
625.7593	0.0009
625.9477	0.0004
626.1362	0.0042
626.3246	0.0048
626.513	0.0075
626.7014	0.0105
626.8898	-0.0004
627.0781	0.0078
627.2665	-0.0018
627.4548	0.0033
627.6431	-0.0021
627.8314	0.0049
628.0197	0.0008
628.2079	-0.0035
628.3962	-0.0006
628.5844	0.0094
628.7726	0.0104
628.9608	0.0088
629.1489	0.004
629.3371	0.0105
629.5252	-0.002
629.7134	0.0101
629.9015	0.005
630.0895	0.0006
630.2776	0.0088
630.4657	-0.0004
630.6537	-0.0013
630.8417	-0.002
631.0297	-0.0012
631.2177	-0.0009
631.4057	-0.004
631.5936	0.0052
631.7815	0.0086
631.9695	0.0108
632.1574	0.01
632.3452	0.014
632.5331	-0.0002
632.7209	-0.0006
632.9088	0.0083
633.0966	0.0087
633.2844	-0.0054
633.4722	0.0051
633.6599	0.0075
633.8477	0.003
634.0354	-0.003
634.2231	0.007
634.4108	0.0037
634.5985	0.0087
634.7861	0.0003
634.9738	0.0023
635.1614	0.0057
635.349	0.0068
635.5366	0.0004
635.7242	0.0051
635.9117	0.0025
636.0993	0.0038
636.2868	0.0054
636.4743	0.0015
636.6618	0.0055
636.8492	0.0025
637.0367	0.0061
637.2241	-0.0024
637.4115	0.0055
637.5989	0.0019
637.7863	0.0043
637.9737	-0.0003
638.161	0.0025
638.3484	0.0028
638.5357	0.0068
638.723	0.0031
638.9103	0.0066
639.0975	0.0078
639.2848	0.0026
639.472	-0.0025
639.6592	0.0006
639.8464	0.0122
640.0336	0.0123
640.2208	-0.0029
640.4079	0.002
640.595	0.0027
640.7821	0.0041
640.9692	0.0014
641.1563	0.0105
641.3434	-0.0017
641.5304	-0.0014
641.7174	0.003
641.9044	0.0081
642.0914	0.0089
642.2784	0.0027
642.4653	0.0093
642.6523	0.0027
642.8392	0.0026
643.0261	0.0015
643.213	0.0068
643.3999	0.0001
643.5867	-0.0012
643.7735	0.0029
643.9604	-0.0034
644.1472	0.0035
644.3339	0.0013
644.5207	0.0007
644.7075	0.0037
644.8942	0.0086
645.0809	0.0138
645.2676	0.0061
645.4543	0.0069
645.6409	0.0035
645.8276	0.0038
646.0142	0.0056
646.2008	-0.0031
646.3874	0.0002
646.574	0.0028
646.7605	-0.0057
646.9471	-0.0116
647.1336	0.0001
647.3201	0.0063
647.5066	-0.0048
647.6931	0.006
647.8795	0.0027
648.0659	0.0048
648.2524	0.01
648.4388	-0.0051
648.6252	0.0058
648.8115	0.0031
648.9979	-0.0042
649.1842	0.0084
649.3705	0.0071
649.5568	0.0012
649.7431	0.0123
649.9294	0.0022
650.1156	0.0099
650.3018	-0.0001
650.488	0.0087
650.6742	0.0061
650.8604	0.0047
651.0466	-0.0019
651.2327	0.0009
651.4188	0.0087
651.6049	0.0032
651.791	0.0026
651.9771	0.0082
652.1632	0.0026
652.3492	0.0017
652.5352	0.0111
652.7212	-0.0003
652.9072	0.0058
653.0932	-0.0019
653.2791	-0.0007
653.465	-0.0016
653.651	-0.001
653.8369	-0.0025
654.0227	0.0033
654.2086	-0.0002
654.3944	0.0079
654.5803	0.0062
654.7661	0.002
654.9519	0.0088
655.1377	-0.0033
655.3234	-0.001
655.5092	0.0001
655.6949	-0.0045
655.8806	0.0024
656.0663	-0.0018
656.2519	0.0004
656.4376	0.0011
656.6232	0.0067
656.8088	0.0017
656.9945	0.002
657.18	0.0003
657.3656	0.0046
657.5511	0.0014
657.7367	-0.0027
657.9222	0.0073
658.1077	0.0067
658.2932	0.0102
658.4786	-0.0025
658.6641	-0.0014
658.8495	0.0088
659.0349	0.0005
659.2203	0.0054
659.4057	0.0065
659.591	0.0072
659.7764	-0.0013
659.9617	-0.0004
660.147	-0.0023
660.3323	0.0074
660.5176	0.0142
660.7028	0.007
660.888	0.009
661.0733	0.0126
661.2585	-0.0041
661.4436	0.0015
661.6288	-0.0004
661.8139	0.0028
661.9991	0.0164
662.1842	0.0039
662.3693	0.0131
662.5544	0.0008
662.7394	0.0068
662.9245	0.0053
663.1095	0.0038
663.2945	0.0089
663.4795	0.001
663.6644	0.0122
663.8494	0.0051
664.0343	0.0058
664.2193	0.0025
664.4042	0.0109
664.589	0.0011
664.7739	0.0116
664.9587	0.0011
665.1436	0.0024
665.3284	0.0074
665.5132	0.0009
665.698	0.0041
665.8827	0.0153
666.0675	0.0077
666.2522	0.001
666.4369	0.0051
666.6216	0.0104
666.8063	0.0041
666.9909	-0.0009
667.1756	0.0001
667.3602	0.0069
667.5448	-0.0028
667.7294	0.0102
667.9139	0.0097
668.0985	0.0127
668.283	0.0005
668.4675	0.0071
668.652	0.0045
668.8365	0.0062
669.0209	0.0116
669.2054	0.0085
669.3898	0.0116
669.5742	0.0119
669.7586	0.0092
669.943	0.0158
670.1273	0.01
670.3117	0.0127
670.496	0.0113
670.6803	0.022
670.8646	0.0095
671.0488	0.0056
671.2331	0.0102
671.4173	0.0084
671.6015	0.0056
671.7857	0.0109
671.9699	0.013
672.1541	0.0033
672.3382	0.0004
672.5223	0.0047
672.7064	0.01
672.8905	0.0107
673.0746	0.0075
673.2587	-0.0032
673.4427	0.0089
673.6267	0.0113
673.8107	0.0143
673.9947	0.0093
674.1787	0.0089
674.3626	-0.0013
674.5465	0.0044
674.7304	0.0003
674.9143	0.0085
675.0982	0.0074
675.2821	0.0016
675.4659	0.0068
675.6497	0.0074
675.8335	0.0047
676.0173	-0.0016
676.2011	0.0032
676.3849	-0.0024
676.5686	-0.0011
676.7523	0.0057
676.936	0.0054
677.1197	0.0015
677.3034	-0.0012
677.487	0.0079
677.6706	0.01
677.8542	0.0078
678.0378	0.0082
678.2214	0.0015
678.405	0.0046
678.5885	-0.0129
678.772	-0.0049
678.9555	-0.0088
679.139	-0.0024
679.3225	0.0003
679.5059	0.0029
679.6894	-0.0034
679.8728	0.0025
680.0562	-0.0068
680.2395	-0.0003
680.4229	0.0066
680.6062	0.009
680.7896	0.0042
680.9729	-0.0019
681.1562	0.0077
681.3394	0.0072
681.5227	-0.0016
681.7059	-0
681.8891	0.0012
682.0723	0.0102
682.2555	0.0041
682.4387	0.0009
682.6218	0.0009
682.805	0.0069
682.9881	0.0089
683.1712	0.0007
683.3542	-0.0021
683.5373	0.0056
683.7203	-0.011
683.9034	0.0032
684.0864	-0.0098
684.2694	-0.0042
684.4523	0.0036
684.6353	0.002
684.8182	0.0061
685.0011	-0.0032
685.184	0.005
685.3669	0.0041
685.5498	-0.0018
685.7326	0.0009
685.9154	-0.002
686.0982	0.0111
686.281	0.0053
686.4638	0.004
686.6465	-0.0025
686.8293	0.0037
687.012	0.0081
687.1947	-0.0017
687.3774	0.0067
687.56	0.0001
687.7427	0.0187
687.9253	0.0007
688.1079	0.0082
688.2905	0.01
688.4731	0.0023
688.6556	0.002
688.8382	-0.0041
689.0207	0.006
689.2032	-0.0017
689.3857	-0.0038
689.5681	0.0078
689.7506	-0.0039
689.933	0.0089
690.1154	0.0023
690.2978	0.0031
690.4802	0.0086
690.6626	-0.0067
690.8449	0.001
691.0272	0.0104
691.2095	0.0039
691.3918	0.0024
691.5741	0.0043
691.7563	0.0051
691.9386	0.0041
692.1208	0.0044
692.303	0.004
692.4852	0.0007
692.6673	0.0006
692.8495	-0.0019
693.0316	0.0053
693.2137	0.009
693.3958	0.0076
693.5778	0.0058
693.7599	0.0066
693.9419	-0.0018
694.1239	0.0054
694.3059	-0.0067
694.4879	0.0106
694.6699	0.0148
694.8518	0.0062
695.0337	0.0013
695.2157	0.0088
695.3975	0.0054
695.5794	0.0123
695.7613	0.0018
695.9431	-0.0024
696.1249	0.0001
696.3067	0.0091
696.4885	0.0035
696.6703	-0.0006
696.852	0.0047
697.0337	0.0074
697.2154	0.0073
697.3971	0.0077
697.5788	-0.0017
697.7605	0.0023
697.9421	0.0057
698.1237	0.0033
698.3053	0.0087
698.4869	0.0026
698.6685	-0.008
698.85	-0.0011
699.0315	0.0033
699.213	0.0004
699.3945	0.0071
699.576	0.0149
699.7575	0.0084
699.9389	0.0035
700.1203	0.0054
700.3017	0.0026
700.4831	-0.0049
700.6645	-0.0017
700.8458	0.0111
701.0271	-0.0044
701.2084	0.0084
701.3897	-0.0009
701.571	0.0131
701.7523	-0.0027
701.9335	0.0092
702.1147	0.0057
702.2959	0.0085
702.4771	0.0046
702.6583	0.0063
702.8394	0.0063
703.0205	0.0054
703.2016	0.0009
703.3827	0.0034
703.5638	0.0072
703.7449	0.0061
703.9259	0.001
704.1069	-0.0083
704.2879	0.0029
704.4689	-0.0036
704.6499	0.007
704.8308	-0.009
705.0117	0.0075
705.1927	-0.0088
705.3735	-0.0047
705.5544	-0.0106
705.7353	-0.0046
705.9161	0.0014
706.0969	-0.0033
706.2777	-0.0005
706.4585	0.0014
706.6393	0.0054
706.82	0.0059
707.0007	0.012
707.1815	0.0125
707.3621	0.0087
707.5428	0.0094
707.7235	0.0099
707.9041	0.0066
708.0847	-0.0002
708.2653	0.0004
708.4459	-0.0053
708.6265	0.0063
708.807	-0.0073
708.9875	-0.0044
709.168	-0.0027
709.3485	-0.0084
709.529	-0.0062
709.7095	-0.0052
709.8899	0.0007
710.0703	0.0004
710.2507	0.0061
710.4311	0.0046
710.6115	-0.0087
710.7918	0.0001
710.9721	0.0071
711.1524	-0.0038
711.3327	0.0002
711.513	0.0003
711.6932	0.0002
711.8735	0.0032
712.0537	0.0072
712.2339	0.0002
712.4141	-0.0045
712.5942	0.0018
712.7744	-0.0017
712.9545	-0.0057
713.1346	-0.0031
713.3147	-0.0074
713.4947	-0.0013
713.6748	0.0037
713.8548	-0.0041
714.0348	0.0003
714.2148	-0.0014
714.3948	0.0076
714.5748	-0.0041
714.7547	0.0062
714.9346	0.008
715.1145	-0.0022
715.2944	0.0007
715.4743	0.0007
715.6541	-0
715.834	0.0115
716.0138	0.0061
716.1936	-0.0108
716.3733	-0.0032
716.5531	0.0045
716.7328	0.0031
716.9126	-0.0055
717.0923	0.0076
717.2719	0.0009
717.4516	0.0095
717.6312	0.008
717.8109	-0.0017
717.9905	-0.0003
718.1701	-0.0024
718.3496	-0.0146
718.5292	0.0028
718.7087	0.0007
718.8882	0.0018
719.0677	0.0052
719.2472	-0.0028
719.4267	-0.0059
719.6061	-0.0025
719.7856	0.0035
719.965	0.013
720.1443	-0.0019
720.3237	0.0155
720.5031	0.0107
720.6824	0.0089
720.8617	0.004
721.041	-0.0039
721.2203	0.0133
721.3995	-0.0023
721.5788	0.0064
721.758	0.0068
721.9372	0
722.1164	0.0055
722.2956	0.0018
722.4747	0.0082
722.6538	-0.0003
722.8329	0.0143
723.012	0.0101
723.1911	0.0031
723.3702	0.0017
723.5492	0.0081
723.7282	0.008
723.9072	-0.0027
724.0862	0.0017
724.2652	-0.006
724.4441	0.004
724.623	-0.0043
724.8019	0.0034
724.9808	-0.0006
725.1597	-0.0098
725.3385	0.0064
725.5174	0.0031
725.6962	0.002
725.875	0.0031
726.0538	0.0089
726.2325	-0.0056
726.4112	0.0009
726.59	0.0019
726.7687	-0.0032
726.9474	0.0014
727.126	0.0027
727.3047	-0.0026
727.4833	-0.006
727.6619	-0.0067
727.8405	-0.004
728.0191	-0.0029
728.1976	0.0031
728.3762	0.0015
728.5547	-0.0046
728.7332	-0.0063
728.9116	0.0007
729.0901	0.0044
729.2686	-0.0031
729.447	0.0056
729.6254	0.0002
729.8038	0.0018
729.9821	-0.0075
730.1605	0.0037
730.3388	-0.0014
730.5171	0.0002
730.6954	-0.0008
730.8737	0.0061
731.0519	0.0115
731.2302	0.0017
731.4084	0.0065
731.5866	0.0011
731.7648	0.0018
731.9429	0.0056
732.1211	-0.0072
732.2992	0.0018
732.4773	-0.0046
732.6554	0.0024
732.8335	0.0079
733.0115	0.0092
733.1896	0.0105
733.3676	-0.0073
733.5456	0.0073
733.7235	0.0141
733.9015	0.0039
734.0794	0.0101
734.2574	0.0011
734.4353	0.0092
734.6131	0.0078
734.791	0.0119
734.9689	0.0024
735.1467	0.0062
735.3245	-0
735.5023	0.0016
735.68	0.0071
735.8578	0.005
736.0355	-0.0124
736.2132	0.0008
736.3909	0.0058
736.5686	-0.0016
736.7463	0.0119
736.9239	-0.0005
737.1015	0.0051
737.2791	0.0087
737.4567	0.0001
737.6343	0.0001
737.8118	0.0028
737.9894	0.0063
738.1669	-0.0063
738.3444	-0.0015
738.5218	0.0027
738.6993	-0.0025
738.8767	0.0025
739.0541	0.0101
739.2315	-0.0017
739.4089	-0.002
739.5863	0.0088
739.7636	-0.0039
739.9409	0.0008
740.1182	0.008
740.2955	0.0002
740.4728	0.0083
740.65	-0.0023
740.8272	-0.001
741.0044	-0.0022
741.1816	0.0084
741.3588	0.0001
741.5359	-0.0019
741.7131	-0.0069
741.8902	-0.0019
742.0673	0.0018
742.2444	-0.0057
742.4214	0.0048
742.5985	-0.0071
742.7755	-0.0079
742.9525	-0.0062
743.1295	-0.0003
743.3064	0.0035
743.4834	0.0155
743.6603	-0.0024
743.8372	-0.0047
744.0141	0.007
744.191	0.0045
744.3678	-0.0007
744.5446	0.0064
744.7215	0.0026
744.8982	-0.0029
745.075	-0.007
745.2518	-0.0038
745.4285	0.0017
745.6052	-0.0009
745.7819	-0.0034
745.9586	-0.0049
746.1353	-0.0002
746.3119	-0.0035
746.4885	-0.0051
746.6651	-0.0036
746.8417	0.0006
747.0183	-0.0023
747.1948	-0.006
747.3714	-0.0033
747.5479	-0.0021
747.7244	-0.012
747.9008	0.0071
748.0773	0.0066
748.2537	0.0064
748.4301	0.0034
748.6065	0.0086
748.7829	0.0038
748.9593	0.0011
749.1356	0.0057
749.3119	0.0168
749.4882	0.0021
749.6645	0.005
749.8408	-0.005
750.017	-0.0045
750.1933	-0.0018
750.3695	-0.0041
750.5457	0.0048
750.7218	-0.0007
750.898	0.0021
751.0741	-0.0033
751.2502	-0.0076
751.4263	-0.0031
751.6024	0.0055
751.7784	-0.0043
751.9545	0.0016
752.1305	0.0022
752.3065	-0.0025
752.4825	0.01
752.6584	-0.0145
752.8344	-0.0034
753.0103	-0.0065
753.1862	-0.002
753.3621	-0.0045
753.5379	-0.011
753.7138	-0.003
753.8896	0.0058
754.0654	0.0091
754.2412	0.0093
754.417	0.0045
754.5927	-0.0054
754.7685	-0.0076
754.9442	0.0049
755.1199	0.0084
755.2956	-0.0025
755.4712	0.004
755.6469	-0.0037
755.8225	0.0015
755.9981	-0.0045
756.1736	0.0037
756.3492	0.0003
756.5248	-0.0004
756.7003	-0.0026
756.8758	0.0085
757.0513	-0.0135
757.2267	-0.0029
757.4022	0.004
757.5776	-0.0113
757.753	0.0038
757.9284	-0.0035
758.1038	0.0068
758.2791	0.0039
758.4545	-0.0129
758.6298	-0.0097
758.8051	0.0015
758.9803	-0.0078
759.1556	-0.002
759.3308	-0.0025
759.506	0.009
759.6812	0.0002
759.8564	0.0007
760.0316	-0.0006
760.2067	0.0053
760.3819	-0.0013
760.557	0.0113
760.732	0.014
760.9071	-0
761.0821	-0.0034
761.2572	0.0115
761.4322	0.0007
761.6072	-0.0027
761.7821	-0.0072
761.9571	0.0096
762.132	-0.0076
762.3069	-0.0044
762.4818	-0.0048
762.6567	-0.0056
762.8316	-0.0007
763.0064	-0.007
763.1812	-0.0059
763.356	-0.0082
763.5308	-0.0004
763.7055	-0.0064
763.8803	-0.0012
764.055	0.006
764.2297	0.0005
764.4044	-0.0091
764.579	-0.0026
764.7537	-0.0049
764.9283	0.0012
765.1029	-0.0063
765.2775	-0.0035
765.4521	-0.0094
765.6266	-0.0083
765.8011	0.0015
765.9756	0.0047
766.1501	0.0088
766.3246	0.0023
766.4991	-0.0017
766.6735	0.0115
766.8479	-0.008
767.0223	0.0214
767.1967	0.003
767.371	0.0088
767.5454	0.0046
767.7197	0.0042
767.894	-0.0049
768.0683	0.0032
768.2425	0.0034
768.4168	-0.005
768.591	0.0053
768.7652	0.0023
768.9394	0.0076
769.1135	0.0002
769.2877	0.0039
769.4618	-0.0001
769.6359	-0.0081
769.81	0.0002
769.984	0.0003
770.1581	-0.0184
770.3321	-0.004
770.5061	-0.003
770.6801	0.0009
770.8541	0.0047
771.028	0.009
771.202	-0.0017
771.3759	0.0061
771.5498	0.0014
771.7236	0.0081
771.8975	-0.0039
772.0713	0.0096
772.2451	0.0031
772.4189	0.014
772.5927	0.0067
772.7665	-0.0026
772.9402	0.005
773.1139	0.0073
773.2876	-0.0074
773.4613	0.001
773.635	0.0069
773.8086	0.0004
773.9822	-0.0004
774.1558	0.0003
774.3294	-0.0101
774.503	0.0019
774.6765	0.0029
774.8501	0.0079
775.0236	0.0094
775.1971	0.0178
775.3705	-0.0059
775.544	0.0126
775.7174	0.001
775.8908	0.0036
776.0642	0.0043
776.2376	0.0109
776.4109	-0.0017
776.5843	0.0067
776.7576	0.0146
776.9309	0.023
777.1041	0.0167
777.2774	0.0111
777.4506	0.0112
777.6238	0.0098
777.797	-0.003
777.9702	0.0016
778.1434	0.0066
778.3165	-0.0091
778.4896	-0.012
778.6627	0.0102
778.8358	0.0116
779.0089	-0.009
779.1819	-0.0015
779.3549	0.0052
779.5279	0.0022
779.7009	-0.0011
779.8739	-0.0037
780.0468	0.0089
780.2197	0.0105
780.3926	-0.0046
780.5655	-0.0055
780.7384	0.0069
780.9112	0.0108
781.0841	-0.0102
781.2569	0.0054
781.4297	-0.0006
781.6024	0.0114
781.7752	-0.0058
781.9479	0.0156
782.1206	0.0034
782.2933	-0.0055
782.466	0.0167
782.6386	0.0083
782.8113	0.0032
782.9839	0.0012
783.1565	0.0136
783.329	0.0143
783.5016	0.0132
783.6741	0.0122
783.8466	-0.001
784.0191	0.0236
784.1916	0.001
784.3641	0.0093
784.5365	0.0196
784.7089	0.0161
784.8813	0.0037
785.0537	0.0065
785.2261	0.0045
785.3984	-0.0013
785.5707	0.0148
785.743	0.0075
785.9153	0.0087
786.0876	0.0141
786.2598	0.0097
786.432	-0.0048
786.6042	0.0171
786.7764	-0.0044
786.9486	-0.0013
787.1207	-0.0041
787.2928	0.0182
787.4649	0.0117
787.637	0.0147
787.8091	0.0094
787.9811	0.0003
788.1532	0.0002
788.3252	0.0099
788.4972	0.0054
788.6691	0.0119
788.8411	0.0051
789.013	-0.0037
789.1849	0.0169
789.3568	0.0058
789.5287	0.0111
789.7005	-0.0067
789.8723	0.0057
790.0442	0.0334
790.2159	0.0141
790.3877	0.0022
790.5595	-0.0147
790.7312	0.0062
790.9029	0.0212
791.0746	0.0024
791.2463	-0.0019
791.4179	0.0074
791.5896	-0.0021
791.7612	0.0064
791.9328	0.0141
792.1044	-0.0071
792.2759	-0.0099
792.4474	0.0056
792.619	0.0059
792.7905	-0.0014
792.9619	0.0061
793.1334	0.0161
793.3048	0.0092
793.4762	0.0064
793.6476	0.0118
793.819	-0.0011
793.9904	0.0025
794.1617	-0.0185
794.333	0.0014
794.5043	0.003
794.6756	-0.0142
794.8469	-0.0034
795.0181	-0.0247
795.1893	-0.0089
795.3605	0.0079
795.5317	-0.0019
795.7029	0.0072
795.874	0.0154
796.0452	-0.0009
796.2163	0.0097
796.3873	0.0026
796.5584	0.0152
796.7294	-0.0083
796.9005	0.0022
797.0715	0.0107
797.2425	-0.0126
797.4134	0.0012
797.5844	0.0129
797.7553	-0.0143
797.9262	0.0036
798.0971	-0.0063
798.2679	0.0014
798.4388	-0.0085
798.6096	-0.018
798.7804	0.0191
798.9512	-0.0002
799.122	-0.0064
799.2927	0.0061
799.4635	0.0088
799.6342	-0.0194
799.8049	-0.0024
799.9755	-0.0026
800.1462	-0.0073
800.3168	0.003
800.4874	-0.0167
800.658	0.0232
800.8286	-0.0035
800.9991	0.0135
801.1696	0.0019
801.3402	0.0116
801.5106	0.0014
801.6811	0.0021
801.8516	0.0282
802.022	0.0068
802.1924	0.0141
802.3628	0.0077
802.5332	0.0141
802.7035	0.021
802.8739	-0.0005
803.0442	-0.0128
803.2145	0.0064
803.3847	-0.0117
803.555	0.0085
803.7252	-0.0012
803.8954	-0.0136
804.0656	0.0008
804.2358	0.0028
804.4059	0.0127
804.5761	0.0004
804.7462	0.0176
804.9163	-0.0138
805.0864	-0.0207
805.2564	-0.012
805.4264	0.0127
805.5965	-0.0122
805.7665	0.0025
805.9364	-0.0047
806.1064	0.0368
806.2763	0.0071
806.4462	0.0099
806.6161	0.0043
806.786	0.0017
806.9559	0.0036
807.1257	-0.001
807.2955	-0.0063
807.4653	-0.0135
807.6351	-0.0085
807.8048	-0.001
807.9746	0.0105
808.1443	0.0134
808.314	0.0141
808.4837	0.0177
808.6533	0.0057
808.8229	0.0223
808.9926	0.0092
809.1622	0.0108
809.3317	-0.0033
809.5013	-0.0006
809.6708	0.0123
809.8403	0.0175
810.0098	-0.0084
810.1793	0.0071
810.3488	0.015
810.5182	-0.0127
810.6876	0.0203
810.857	-0.0106
811.0264	0.0264
811.1958	0.0167
811.3651	0.0149
811.5344	0.0172
811.7037	0.001
811.873	0.0005
812.0422	-0.0048
812.2115	0.017
812.3807	0.0016
812.5499	0.026
812.7191	0.0194
812.8882	0.0071
813.0574	0.0019
813.2265	0.0079
813.3956	0.0128
813.5646	-0.0102
813.7337	-0.0152
813.9027	0.0273
814.0718	0.0373
814.2407	0.0097
814.4097	0.0041
814.5787	0.0008
814.7476	0.014
814.9165	0.0144
815.0854	-0.0152
815.2543	-0.0092
815.4232	-0.0025
815.592	0.0182
815.7608	0.0261
815.9296	0.0297
816.0984	0.0215
816.2671	0.0218
816.4359	0.0119
816.6046	0.0175
816.7733	0.0228
816.942	-0.0076
817.1106	0.0343
817.2793	0.0107
817.4479	0.0187
817.6165	0.019
817.785	0.0153
817.9536	-0.0095
818.1221	-0.001
818.2906	0.0202
818.4591	-0.0024
818.6276	-0.0041
818.7961	0.015
818.9645	-0.0024
819.1329	0.0083
819.3013	0.0172
819.4697	0.0109
819.638	0.002
819.8064	0.0116
819.9747	0.0076
820.143	0.0285
820.3113	0.0098
820.4795	0.0329
820.6477	-0.0025
820.816	0.013
820.9842	0.0003
821.1523	-0.0001
821.3205	-0.0004
821.4886	-0.0065
821.6567	0.0031
821.8248	0.0154
821.9929	0.0161
822.1609	0.0144
822.329	0.0314
822.497	0.0323
822.665	0.0015
822.833	0.0065
823.0009	0.0148
823.1688	0.0339
823.3367	0.0288
823.5046	0.0139
823.6725	0.0256
823.8404	0.0115
824.0082	0.0219
824.176	0.0221
824.3438	0.0186
824.5116	-0.0076
824.6793	0.0421
824.847	0.0003
825.0147	0.0025
825.1824	0.0137
825.3501	0.0181
825.5177	-0.0058
825.6854	0.0211
825.853	0.0252
826.0206	-0.0107
826.1881	0.0143
826.3557	-0.0177
826.5232	0.0276
826.6907	-0.016
826.8582	0.0049
827.0257	-0.0208
827.1931	0.015
827.3605	-0.0086
827.528	-0.012
827.6953	0.0003
827.8627	-0.0015
828.03	0.0457
828.1974	-0.0015
828.3647	-0.0334
828.532	-0.0208
828.6992	-0.0118
828.8665	-0.0156
829.0337	0.0132
829.2009	0.0167
829.3681	0.0045
829.5352	0.038
829.7024	-0.0012
829.8695	-0.0107
830.0366	0.0318
830.2037	0.0149
830.3707	0.0094
830.5378	-0.0122
830.7048	0.0362
830.8718	0.0148
831.0388	-0.0115
831.2057	0.0128
831.3727	0.0278
831.5396	0.0079
831.7065	0.0097
831.8734	-0.0139
832.0402	-0.0377
832.2071	-0.0069
832.3739	-0.0161
832.5407	0.0181
832.7075	-0.0378
832.8742	0.0154
833.041	-0.0298
833.2077	-0.0145
833.3744	0.021
833.541	-0.0109
833.7077	-0.0131
833.8743	-0.006
834.0409	-0.0193
834.2075	0.0193
834.3741	0.0285
834.5407	0.0384
834.7072	-0.0108
834.8737	-0.043
835.0402	0.0046
835.2067	0.0542
835.3731	0.0421
835.5395	0.0221
835.706	-0.0325
835.8723	0.0063
836.0387	0.0142
836.2051	-0.0057
836.3714	0.0201
836.5377	-0.0177
836.704	-0.0331
836.8703	-0.0071
837.0365	-0.0074
837.2027	-0.0237
837.3689	0.039
837.5351	-0.0106
837.7013	-0.025
837.8674	-0.0114
838.0335	-0.0378
838.1997	-0.0239
838.3657	-0.0381
838.5318	-0.0249
838.6978	0.0509
838.8639	0.0313
839.0299	-0.0028
839.1958	-0.0133
839.3618	-0.0186
839.5277	-0.0268
839.6937	-0.0059
839.8596	-0.0249
840.0254	-0.0196
840.1913	0.0073
840.3571	-0.0037
840.523	-0.0235
840.6888	-0.0077
840.8545	-0.051
841.0203	0.0176
841.186	-0.007
841.3517	0.0199
841.5174	0.0015
841.6831	0.019
841.8488	-0.0002
842.0144	-0.0216
842.18	-0.015
842.3456	0.016
842.5112	-0.0239
842.6767	-0.0119
842.8422	-0.041
843.0077	-0.0134
843.1732	-0.0129
843.3387	-0.0555
843.5042	-0.0509
843.6696	-0.0051
843.835	-0.0088
844.0004	0.0037
844.1657	0.0119
844.3311	-0.0504
844.4964	-0.0307
844.6617	-0.0262
844.827	-0.0003
844.9923	-0.0619
845.1575	0.0267
845.3227	-0.0049
845.4879	0.002
845.6531	-0.0083
845.8183	-0.0536
845.9834	-0.0725
846.1485	0.0041
846.3136	-0.0403
846.4787	-0.0679
846.6438	0.0106
846.8088	-0.0233
846.9738	-0.0392
847.1388	-0.0237
847.3038	-0.0394
847.4687	-0.1368
847.6337	0.0128
847.7986	-0.0408
847.9635	0.01
848.1284	-0.0164
848.2932	0.0185
848.458	0.0116
848.6228	0.0621
848.7876	0.063
848.9524	-0.0004
849.1172	-0.083
849.2819	-0.0326
849.4466	-0.0991
849.6113	-0.1193
849.7759	0.0035
849.9406	-0.0459
850.1052	0.06
850.2698	-0.0654
850.4344	-0.0416
850.599	-0.0882
850.7635	0.0249
850.928	-0.0088
851.0925	-0.0776
851.257	-0.0426
851.4215	0.049
851.5859	-0.024
851.7503	0.0281
851.9147	0.0267
852.0791	-0.0867
852.2434	0.0604
852.4078	0.0449
852.5721	0.06
852.7364	-0.0281
852.9007	-0.1664
853.0649	0.0428
853.2291	-0.0318
853.3934	-0.0567
853.5575	-0.0415
853.7217	-0.0502
853.8859	-0.1057
854.05	-0.0362
854.2141	-0.0611
854.3782	-0.0201
854.5423	-0.0809
854.7063	0.1083
854.8703	-0.0089
855.0343	0.049
855.1983	-0.2171
855.3623	0.0808
855.5262	-0.045
855.6901	-0.0533
855.854	0.0615
856.0179	0.127
856.1818	0.0719
856.3456	-0.1288
856.5094	-0.1163
856.6732	-0.13
856.837	0.1497
857.0008	0.1001
857.1645	-0.0467
857.3282	-0.0811
857.4919	-0.0102
857.6556	0.065
857.8192	0.0058
857.9828	0.0868
858.1465	-0.1566
858.31	-0.1423
858.4736	-0.1603
858.6372	-0.3777
858.8007	-0.0834
858.9642	0.0369
859.1277	-0.0242
859.2911	0.0579
859.4546	-0.0415
859.618	-0.2172
859.7814	-0.1178
859.9448	-0.0011
860.1081	-0.0871
860.2715	0.2265
860.4348	0.8663
860.5981	-0.0196
860.7614	0.0183
860.9246	-0.1043
861.0879	-0.2972
861.2511	-0.0446
861.4143	0.0189
861.5774	0.0397
861.7406	-0.2643
861.9037	0.2642
862.0668	-0.1746
862.2299	-0.1314
862.393	-0.6898
862.556	0.1116
862.7191	-0.2388
862.8821	-0.1955
863.0451	0.292
863.208	0.0031
863.371	-0.163
863.5339	-0.4244
863.6968	-0.0608
863.8597	-0.2205
864.0225	0.0553
864.1854	-0.2923
864.3482	-0
864.511	0.1942
864.6737	0.352
864.8365	0.037
864.9992	-0.2761
865.1619	-0.4225
865.3246	0.0576
865.4873	-0.0898
865.65	-0.0995
865.8126	-0.2097
865.9752	0.1845
866.1378	-0.3249
866.3004	0.3057
866.4629	0.2721
866.6254	-0.1685
866.7879	0.1862
866.9504	-0.6191
867.1129	-0
867.2753	-0.0154
867.4377	0.0786
867.6001	-0.2419
867.7625	0.2696
867.9249	-0.8545
868.0872	0.0832
868.2495	0.0701
868.4118	-0.1778
868.5741	-0.717
868.7363	-0.2377
868.8986	-0
869.0608	-0.3174
869.223	0.1592
869.3851	0.2312
869.5473	-0
869.7094	0.0939
869.8715	-0.4993
870.0336	-0.3661
870.1957	-0.1205
870.3577	-0
870.5197	-0.0191
870.6817	-0.3019
870.8437	0.1764
871.0057	-0
871.1676	-0.6595
871.3295	-0.3364
871.4914	-0
871.6533	-0.2307
871.8151	-0.4764
871.977	-0
872.1388	-0
872.3006	-0
872.4623	-0
872.6241	0.1598
872.7858	-0.244
872.9475	-0.3953
873.1092	0.6864
873.2709	-0
873.4325	-0.2278
873.5941	-0.4492
873.7557	-0
873.9173	-0
874.0789	-0.5251
874.2404	-0.4329
874.4019	-0
874.5634	-0.3079
874.7249	0.8663
874.8863	-0.1097
875.0478	-0.2359
875.2092	-0
875.3706	0.2071
875.5319	-0.7404
875.6933	-0.1409
875.8546	-0.1226
876.0159	-0
876.1772	-0
876.3385	-0
876.4997	-0.0252
876.6609	-0.4544
876.8221	-0
876.9833	0.4545
877.1445	-0
877.3056	0.0621
877.4667	-0.403
877.6278	0.3714
877.7889	-0.0953
877.9499	-0
878.111	-0.6745
878.272	-0
878.433	-0
878.5939	-0
878.7549	0.0475
878.9158	-0.836
879.0767	-0
879.2376	0.432
879.3984	-0.3769
879.5593	-0
879.7201	-0.0148
879.8809	-0.8151
880.0417	-0.4466
880.2024	-0.0814
880.3632	-0.5893
880.5239	0.0176
880.6846	-0.0032
880.8452	-2.6498
881.0059	-0
881.1665	-0.0949
881.3271	-0
881.4877	-0
881.6483	-0.7028
881.8088	-0.3219
881.9693	-0
882.1298	-0
882.2903	-0
