Data from MonoPyChalIsomerACN10uM360nmA_Absorbance_13-57-25-104.txt Node
Date: Fri Jul 05 13:57:25 BST 2024
User: LASERRRRR
Spectrometer: FLMT03099
Trigger mode: 0
Integration Time (sec): 1.000000E-1
Scans to average: 1
Electric dark correction enabled: true
Nonlinearity correction enabled: false
Boxcar width: 0
XAxis mode: Wavelengths
Number of Pixels in Spectrum: 3648
>>>>>Begin Spectral Data<<<<<
179.3399	-0.4936
179.5586	-0.4936
179.7771	-0.4936
179.9957	-0.2455
180.2143	-0.4167
180.4329	0.3401
180.6514	-0
180.8699	-0
181.0885	1.2986
181.307	-0.0607
181.5255	-0
181.744	-0.8234
181.9625	-0
182.181	-0
182.3994	0.1081
182.6179	-0
182.8363	0.789
183.0547	-0.4073
183.2732	0.0541
183.4916	0.1691
183.71	0.1797
183.9284	0.3622
184.1467	-0.0125
184.3651	-0.0835
184.5835	-0.0443
184.8018	0.17
185.0201	0.0033
185.2385	0.1414
185.4568	0.0983
185.6751	-0.066
185.8934	0.246
186.1117	0.0586
186.3299	0.0783
186.5482	0.2592
186.7664	0.0762
186.9847	-0.1061
187.2029	0.0544
187.4211	-0.0403
187.6393	0.1258
187.8575	0.0754
188.0757	0.1788
188.2939	0.091
188.512	0.1263
188.7302	0.2122
188.9483	-0.0668
189.1665	0.1506
189.3846	-0.0739
189.6027	0.3645
189.8208	0.2362
190.0389	0.0515
190.257	-0.0269
190.475	0.249
190.6931	0.244
190.9111	0.3877
191.1292	0.0363
191.3472	0.6064
191.5652	0.1844
191.7832	0.3373
192.0012	0.6111
192.2192	0.4217
192.4371	0.4858
192.6551	0.3161
192.873	0.6472
193.091	0.2663
193.3089	0.4722
193.5268	0.6441
193.7447	0.6525
193.9626	0.4768
194.1805	0.777
194.3984	1.0371
194.6162	0.4806
194.8341	0.5575
195.0519	0.5558
195.2697	0.5295
195.4875	0.6732
195.7054	0.8102
195.9231	0.6905
196.1409	0.4724
196.3587	0.5677
196.5765	0.5897
196.7942	0.8128
197.012	0.6335
197.2297	0.7229
197.4474	0.6737
197.6651	0.5069
197.8828	0.5864
198.1005	0.7335
198.3182	0.6765
198.5358	0.9122
198.7535	0.5743
198.9711	0.5888
199.1888	0.6429
199.4064	1.0735
199.624	0.6264
199.8416	0.5867
200.0592	0.6337
200.2767	0.6361
200.4943	0.7624
200.7119	1.103
200.9294	0.5888
201.1469	0.5394
201.3645	0.6139
201.582	0.5922
201.7995	0.6169
202.017	0.5965
202.2344	0.5637
202.4519	0.7215
202.6694	0.7415
202.8868	0.6136
203.1042	0.7392
203.3217	0.7341
203.5391	0.6715
203.7565	0.5641
203.9739	0.5727
204.1913	0.5581
204.4086	0.6445
204.626	0.6588
204.8433	0.6997
205.0607	0.6392
205.278	0.6576
205.4953	0.6582
205.7126	0.6548
205.9299	0.679
206.1472	0.6791
206.3644	0.6213
206.5817	0.7401
206.7989	0.7863
207.0162	0.5861
207.2334	0.6062
207.4506	0.6603
207.6678	0.6332
207.885	0.6944
208.1022	0.6929
208.3194	0.6738
208.5365	0.6493
208.7537	0.6628
208.9708	0.5889
209.1879	0.6413
209.405	0.6815
209.6222	0.6429
209.8392	0.5938
210.0563	0.5614
210.2734	0.6635
210.4905	0.6314
210.7075	0.6274
210.9245	0.6113
211.1416	0.6884
211.3586	0.6526
211.5756	0.5727
211.7926	0.7387
212.0096	0.5906
212.2265	0.5886
212.4435	0.6131
212.6604	0.5571
212.8774	0.6015
213.0943	0.6116
213.3112	0.5515
213.5281	0.5335
213.745	0.5198
213.9619	0.5556
214.1788	0.4632
214.3956	0.4956
214.6125	0.4595
214.8293	0.4572
215.0461	0.5191
215.2629	0.4668
215.4798	0.5078
215.6965	0.441
215.9133	0.4487
216.1301	0.4068
216.3469	0.4161
216.5636	0.4099
216.7803	0.4227
216.9971	0.4285
217.2138	0.402
217.4305	0.3865
217.6472	0.358
217.8639	0.3981
218.0805	0.3606
218.2972	0.3344
218.5138	0.3316
218.7305	0.3082
218.9471	0.3327
219.1637	0.3066
219.3803	0.3023
219.5969	0.2833
219.8135	0.2631
220.0301	0.2954
220.2466	0.2856
220.4632	0.2607
220.6797	0.2231
220.8962	0.2504
221.1127	0.2505
221.3292	0.2805
221.5457	0.2519
221.7622	0.2474
221.9787	0.2806
222.1951	0.2385
222.4116	0.2731
222.628	0.2547
222.8444	0.2693
223.0608	0.2624
223.2772	0.2415
223.4936	0.2696
223.71	0.2577
223.9264	0.2865
224.1427	0.2764
224.3591	0.2608
224.5754	0.2778
224.7917	0.2776
225.008	0.2719
225.2243	0.2763
225.4406	0.2936
225.6569	0.2861
225.8732	0.2728
226.0894	0.2673
226.3057	0.2773
226.5219	0.2813
226.7381	0.2733
226.9543	0.3059
227.1705	0.3005
227.3867	0.2675
227.6029	0.3076
227.8191	0.2999
228.0352	0.2898
228.2513	0.3043
228.4675	0.3211
228.6836	0.3338
228.8997	0.3043
229.1158	0.3384
229.3319	0.3161
229.548	0.3175
229.764	0.3372
229.9801	0.3094
230.1961	0.3243
230.4121	0.3379
230.6282	0.3541
230.8442	0.3191
231.0602	0.3768
231.2761	0.355
231.4921	0.3582
231.7081	0.353
231.924	0.3603
232.14	0.3884
232.3559	0.3445
232.5718	0.3689
232.7877	0.3527
233.0036	0.3626
233.2195	0.3566
233.4353	0.3695
233.6512	0.3525
233.867	0.3787
234.0829	0.362
234.2987	0.3735
234.5145	0.3556
234.7303	0.3801
234.9461	0.3831
235.1619	0.3886
235.3776	0.3647
235.5934	0.384
235.8091	0.3726
236.0249	0.4064
236.2406	0.3936
236.4563	0.388
236.672	0.4112
236.8877	0.4146
237.1034	0.4038
237.319	0.4007
237.5347	0.3997
237.7503	0.4029
237.966	0.4135
238.1816	0.416
238.3972	0.3914
238.6128	0.4052
238.8284	0.4311
239.0439	0.4158
239.2595	0.4026
239.475	0.4253
239.6906	0.405
239.9061	0.4128
240.1216	0.3796
240.3371	0.4134
240.5526	0.3855
240.7681	0.4118
240.9836	0.3947
241.199	0.3954
241.4145	0.3838
241.6299	0.3782
241.8453	0.3957
242.0607	0.3777
242.2761	0.3565
242.4915	0.3809
242.7069	0.3693
242.9223	0.3359
243.1376	0.3415
243.353	0.3476
243.5683	0.3445
243.7836	0.3316
243.9989	0.3329
244.2142	0.3063
244.4295	0.3224
244.6448	0.3069
244.86	0.2913
245.0753	0.2897
245.2905	0.2788
245.5057	0.2676
245.721	0.2777
245.9362	0.2759
246.1514	0.2717
246.3665	0.2503
246.5817	0.2468
246.7969	0.2512
247.012	0.2428
247.2271	0.2313
247.4423	0.2408
247.6574	0.2425
247.8725	0.2355
248.0876	0.229
248.3026	0.2248
248.5177	0.2226
248.7328	0.2113
248.9478	0.208
249.1628	0.2142
249.3779	0.2105
249.5929	0.1924
249.8079	0.2106
250.0228	0.1853
250.2378	0.1945
250.4528	0.2074
250.6677	0.1834
250.8827	0.1837
251.0976	0.1926
251.3125	0.1856
251.5274	0.1824
251.7423	0.182
251.9572	0.1841
252.172	0.1929
252.3869	0.1797
252.6017	0.17
252.8166	0.1767
253.0314	0.1634
253.2462	0.1665
253.461	0.1808
253.6758	0.1784
253.8906	0.1716
254.1053	0.1646
254.3201	0.1681
254.5348	0.1778
254.7496	0.1771
254.9643	0.1644
255.179	0.1744
255.3937	0.173
255.6083	0.1734
255.823	0.1706
256.0377	0.1584
256.2523	0.1629
256.467	0.1463
256.6816	0.1776
256.8962	0.18
257.1108	0.1478
257.3254	0.1664
257.54	0.165
257.7545	0.1692
257.9691	0.174
258.1836	0.1561
258.3981	0.1764
258.6127	0.1712
258.8272	0.1615
259.0417	0.1639
259.2561	0.1571
259.4706	0.1664
259.6851	0.1674
259.8995	0.1606
260.114	0.1581
260.3284	0.1606
260.5428	0.1531
260.7572	0.1668
260.9716	0.1633
261.186	0.1646
261.4003	0.1742
261.6147	0.172
261.829	0.1636
262.0433	0.168
262.2577	0.1577
262.472	0.1725
262.6863	0.1618
262.9005	0.1776
263.1148	0.162
263.3291	0.1592
263.5433	0.156
263.7576	0.1593
263.9718	0.1518
264.186	0.1694
264.4002	0.165
264.6144	0.1632
264.8286	0.1673
265.0427	0.1673
265.2569	0.1505
265.471	0.1654
265.6851	0.1634
265.8993	0.1564
266.1134	0.1633
266.3275	0.1707
266.5415	0.1523
266.7556	0.1698
266.9697	0.1807
267.1837	0.1654
267.3978	0.1601
267.6118	0.1739
267.8258	0.1655
268.0398	0.1508
268.2538	0.1638
268.4677	0.1644
268.6817	0.1579
268.8957	0.1652
269.1096	0.1585
269.3235	0.1687
269.5374	0.1502
269.7514	0.15
269.9652	0.1573
270.1791	0.1519
270.393	0.1469
270.6068	0.1541
270.8207	0.1499
271.0345	0.1471
271.2483	0.1485
271.4622	0.1418
271.676	0.157
271.8897	0.1383
272.1035	0.1422
272.3173	0.1423
272.531	0.1532
272.7448	0.1394
272.9585	0.1393
273.1722	0.1494
273.3859	0.1505
273.5996	0.124
273.8133	0.1499
274.0269	0.1397
274.2406	0.1404
274.4542	0.1431
274.6679	0.1232
274.8815	0.137
275.0951	0.1464
275.3087	0.149
275.5223	0.149
275.7358	0.1409
275.9494	0.1306
276.1629	0.1395
276.3765	0.1468
276.59	0.1532
276.8035	0.1408
277.017	0.1473
277.2305	0.1313
277.444	0.1443
277.6574	0.1325
277.8709	0.1485
278.0843	0.1426
278.2978	0.1427
278.5112	0.1395
278.7246	0.1454
278.938	0.1533
279.1513	0.1479
279.3647	0.1496
279.5781	0.149
279.7914	0.1499
280.0047	0.1565
280.2181	0.14
280.4314	0.1544
280.6447	0.1459
280.8579	0.1469
281.0712	0.16
281.2845	0.1519
281.4977	0.1578
281.711	0.1552
281.9242	0.1536
282.1374	0.1456
282.3506	0.1466
282.5638	0.1498
282.7769	0.1533
282.9901	0.1454
283.2033	0.1582
283.4164	0.1614
283.6295	0.1464
283.8426	0.1454
284.0557	0.153
284.2688	0.1647
284.4819	0.1611
284.695	0.162
284.908	0.1562
285.1211	0.1571
285.3341	0.1597
285.5471	0.1616
285.7601	0.1578
285.9731	0.1464
286.1861	0.1478
286.3991	0.1705
286.612	0.1701
286.825	0.1559
287.0379	0.1661
287.2508	0.1668
287.4637	0.1643
287.6766	0.1633
287.8895	0.1701
288.1024	0.1741
288.3152	0.1753
288.5281	0.1561
288.7409	0.1621
288.9538	0.1607
289.1666	0.1604
289.3794	0.1629
289.5922	0.1721
289.8049	0.1694
290.0177	0.1789
290.2304	0.1674
290.4432	0.1741
290.6559	0.1786
290.8686	0.1864
291.0813	0.1661
291.294	0.1658
291.5067	0.1744
291.7194	0.1675
291.932	0.1855
292.1447	0.1779
292.3573	0.1611
292.5699	0.1758
292.7825	0.183
292.9951	0.1661
293.2077	0.1816
293.4203	0.1729
293.6328	0.1615
293.8454	0.1815
294.0579	0.1741
294.2704	0.1595
294.4829	0.1608
294.6954	0.1702
294.9079	0.17
295.1204	0.1734
295.3328	0.1756
295.5453	0.1802
295.7577	0.1668
295.9701	0.1583
296.1825	0.1795
296.3949	0.1722
296.6073	0.1624
296.8197	0.1615
297.0321	0.1781
297.2444	0.162
297.4567	0.1738
297.6691	0.1765
297.8814	0.1673
298.0937	0.1734
298.306	0.1714
298.5182	0.1633
298.7305	0.1796
298.9428	0.1655
299.155	0.1675
299.3672	0.1714
299.5794	0.1617
299.7916	0.1675
300.0038	0.1701
300.216	0.1628
300.4282	0.1752
300.6403	0.1693
300.8525	0.1718
301.0646	0.1712
301.2767	0.17
301.4888	0.17
301.7009	0.1694
301.913	0.1674
302.125	0.1712
302.3371	0.1591
302.5491	0.1746
302.7612	0.177
302.9732	0.1719
303.1852	0.1656
303.3972	0.1599
303.6092	0.1671
303.8211	0.1632
304.0331	0.1577
304.245	0.154
304.457	0.1667
304.6689	0.1569
304.8808	0.1781
305.0927	0.1573
305.3046	0.1625
305.5164	0.1606
305.7283	0.144
305.9401	0.1459
306.152	0.1559
306.3638	0.1568
306.5756	0.1426
306.7874	0.1517
306.9992	0.1551
307.2109	0.1419
307.4227	0.1338
307.6344	0.1515
307.8462	0.1426
308.0579	0.1419
308.2696	0.1314
308.4813	0.1234
308.693	0.1349
308.9046	0.1372
309.1163	0.1289
309.328	0.131
309.5396	0.1233
309.7512	0.1253
309.9628	0.128
310.1744	0.1214
310.386	0.1208
310.5976	0.1241
310.8091	0.1189
311.0207	0.119
311.2322	0.123
311.4437	0.1139
311.6552	0.1021
311.8667	0.1233
312.0782	0.1083
312.2897	0.0966
312.5012	0.1147
312.7126	0.1113
312.924	0.1008
313.1355	0.1242
313.3469	0.105
313.5583	0.1117
313.7696	0.1043
313.981	0.0947
314.1924	0.1065
314.4037	0.0945
314.6151	0.1102
314.8264	0.0946
315.0377	0.0958
315.249	0.099
315.4603	0.1157
315.6716	0.1005
315.8828	0.1013
316.0941	0.1022
316.3053	0.1017
316.5165	0.1031
316.7277	0.0916
316.9389	0.1049
317.1501	0.0895
317.3613	0.0975
317.5724	0.0891
317.7836	0.1024
317.9947	0.0985
318.2058	0.0986
318.417	0.0915
318.6281	0.0869
318.8391	0.0965
319.0502	0.0925
319.2613	0.0912
319.4723	0.1015
319.6834	0.105
319.8944	0.0993
320.1054	0.0978
320.3164	0.0982
320.5274	0.0913
320.7383	0.0955
320.9493	0.0951
321.1602	0.1118
321.3712	0.0812
321.5821	0.1039
321.793	0.0895
322.0039	0.1027
322.2148	0.0913
322.4257	0.1041
322.6365	0.1119
322.8474	0.1029
323.0582	0.1075
323.269	0.1008
323.4798	0.107
323.6906	0.0902
323.9014	0.1144
324.1122	0.1076
324.3229	0.1011
324.5337	0.0879
324.7444	0.0901
324.9551	0.1151
325.1658	0.0954
325.3765	0.1044
325.5872	0.1035
325.7979	0.1039
326.0085	0.0936
326.2192	0.0944
326.4298	0.0989
326.6404	0.0925
326.851	0.0922
327.0616	0.0796
327.2722	0.1081
327.4828	0.1087
327.6933	0.1083
327.9039	0.1018
328.1144	0.1165
328.3249	0.1029
328.5354	0.0901
328.7459	0.0957
328.9564	0.0914
329.1669	0.1009
329.3773	0.1004
329.5878	0.0941
329.7982	0.1032
330.0086	0.0924
330.219	0.1102
330.4294	0.1071
330.6398	0.0968
330.8502	0.099
331.0605	0.108
331.2708	0.1106
331.4812	0.111
331.6915	0.1068
331.9018	0.1165
332.1121	0.0979
332.3224	0.0981
332.5326	0.1161
332.7429	0.1073
332.9531	0.114
333.1633	0.1107
333.3735	0.0947
333.5837	0.0932
333.7939	0.106
334.0041	0.1205
334.2143	0.1132
334.4244	0.1035
334.6346	0.0937
334.8447	0.114
335.0548	0.1064
335.2649	0.1018
335.475	0.1131
335.685	0.1055
335.8951	0.109
336.1051	0.1041
336.3152	0.1166
336.5252	0.1144
336.7352	0.1097
336.9452	0.1078
337.1552	0.1101
337.3652	0.1122
337.5751	0.1061
337.7851	0.109
337.995	0.105
338.2049	0.1211
338.4148	0.1005
338.6247	0.1181
338.8346	0.1
339.0445	0.107
339.2543	0.113
339.4642	0.1153
339.674	0.0943
339.8838	0.1121
340.0936	0.1128
340.3034	0.1231
340.5132	0.1072
340.7229	0.1045
340.9327	0.1074
341.1424	0.1092
341.3522	0.129
341.5619	0.1147
341.7716	0.1262
341.9813	0.1131
342.1909	0.11
342.4006	0.1252
342.6102	0.1278
342.8199	0.1314
343.0295	0.113
343.2391	0.1249
343.4487	0.1234
343.6583	0.1093
343.8679	0.1212
344.0774	0.1304
344.287	0.1233
344.4965	0.1144
344.706	0.1295
344.9155	0.1198
345.125	0.1249
345.3345	0.122
345.544	0.125
345.7534	0.1161
345.9629	0.1208
346.1723	0.1309
346.3817	0.1113
346.5911	0.1254
346.8005	0.1249
347.0099	0.1145
347.2193	0.1341
347.4286	0.1254
347.638	0.127
347.8473	0.1271
348.0566	0.1362
348.2659	0.1257
348.4752	0.1259
348.6845	0.121
348.8937	0.1278
349.103	0.1468
349.3122	0.1274
349.5214	0.1283
349.7306	0.1404
349.9398	0.1351
350.149	0.1354
350.3582	0.1327
350.5674	0.152
350.7765	0.1496
350.9856	0.1363
351.1948	0.1377
351.4039	0.1318
351.613	0.1364
351.822	0.14
352.0311	0.1474
352.2402	0.1523
352.4492	0.1427
352.6582	0.1507
352.8672	0.1336
353.0762	0.1475
353.2852	0.1417
353.4942	0.1378
353.7032	0.1632
353.9121	0.1405
354.1211	0.1596
354.33	0.1476
354.5389	0.1594
354.7478	0.143
354.9567	0.1594
355.1655	0.1431
355.3744	0.1635
355.5833	0.1567
355.7921	0.1757
356.0009	0.1509
356.2097	0.1635
356.4185	0.1736
356.6273	0.1663
356.8361	0.1701
357.0448	0.1651
357.2536	0.1585
357.4623	0.1447
357.671	0.1688
357.8797	0.1659
358.0884	0.1714
358.2971	0.1771
358.5057	0.1678
358.7144	0.156
358.923	0.1708
359.1316	0.1652
359.3402	0.1765
359.5488	0.1557
359.7574	0.16
359.966	0.1859
360.1746	0.1848
360.3831	0.1755
360.5916	0.1656
360.8002	0.1661
361.0087	0.1897
361.2172	0.175
361.4256	0.189
361.6341	0.1819
361.8426	0.1914
362.051	0.1914
362.2594	0.1794
362.4678	0.1807
362.6762	0.1986
362.8846	0.1795
363.093	0.1695
363.3014	0.1905
363.5097	0.1807
363.718	0.1865
363.9264	0.1918
364.1347	0.1884
364.343	0.1995
364.5513	0.2085
364.7595	0.2083
364.9678	0.211
365.176	0.2008
365.3842	0.2052
365.5925	0.1932
365.8007	0.2036
366.0089	0.2003
366.217	0.2061
366.4252	0.2105
366.6333	0.2122
366.8415	0.2022
367.0496	0.1993
367.2577	0.2101
367.4658	0.2172
367.6739	0.212
367.882	0.2223
368.09	0.2127
368.2981	0.2053
368.5061	0.2086
368.7141	0.22
368.9221	0.2242
369.1301	0.203
369.3381	0.2019
369.5461	0.2249
369.754	0.2096
369.962	0.2264
370.1699	0.222
370.3778	0.2212
370.5857	0.2189
370.7936	0.2281
371.0015	0.2309
371.2093	0.2328
371.4172	0.2382
371.625	0.2162
371.8328	0.2165
372.0406	0.2146
372.2484	0.2201
372.4562	0.2442
372.664	0.2208
372.8717	0.2312
373.0795	0.2176
373.2872	0.2338
373.4949	0.2279
373.7026	0.2348
373.9103	0.2517
374.118	0.2297
374.3256	0.2462
374.5333	0.2389
374.7409	0.2237
374.9485	0.2537
375.1561	0.2402
375.3637	0.2252
375.5713	0.2368
375.7789	0.2443
375.9864	0.2419
376.194	0.2515
376.4015	0.2637
376.609	0.2644
376.8165	0.2396
377.024	0.2689
377.2315	0.2262
377.4389	0.256
377.6464	0.2586
377.8538	0.2367
378.0612	0.2503
378.2686	0.2499
378.476	0.2699
378.6834	0.2429
378.8908	0.2497
379.0981	0.2576
379.3055	0.2604
379.5128	0.248
379.7201	0.2593
379.9274	0.2496
380.1347	0.2535
380.342	0.2771
380.5492	0.2786
380.7565	0.253
380.9637	0.2743
381.1709	0.2564
381.3781	0.2489
381.5853	0.2765
381.7925	0.2699
381.9997	0.2681
382.2068	0.2724
382.4139	0.2625
382.6211	0.269
382.8282	0.2573
383.0353	0.2573
383.2424	0.2655
383.4494	0.2709
383.6565	0.254
383.8635	0.2554
384.0706	0.2726
384.2776	0.2867
384.4846	0.2548
384.6916	0.2654
384.8986	0.2641
385.1055	0.271
385.3125	0.2605
385.5194	0.258
385.7263	0.2802
385.9333	0.2618
386.1402	0.2789
386.347	0.2633
386.5539	0.2511
386.7608	0.289
386.9676	0.265
387.1744	0.2718
387.3813	0.2625
387.5881	0.2636
387.7948	0.2577
388.0016	0.2748
388.2084	0.2793
388.4151	0.2619
388.6219	0.2677
388.8286	0.2491
389.0353	0.2759
389.242	0.2688
389.4487	0.2604
389.6553	0.2553
389.862	0.2424
390.0686	0.2635
390.2753	0.2788
390.4819	0.2504
390.6885	0.2452
390.8951	0.2548
391.1016	0.2591
391.3082	0.2448
391.5147	0.254
391.7213	0.2506
391.9278	0.2388
392.1343	0.2422
392.3408	0.2337
392.5473	0.2566
392.7537	0.2379
392.9602	0.2465
393.1666	0.2467
393.373	0.2302
393.5794	0.246
393.7858	0.2554
393.9922	0.2203
394.1986	0.2475
394.4049	0.2337
394.6113	0.2347
394.8176	0.2278
395.0239	0.2327
395.2302	0.2223
395.4365	0.2173
395.6428	0.2488
395.8491	0.2149
396.0553	0.2415
396.2615	0.2276
396.4678	0.2314
396.674	0.2045
396.8802	0.2259
397.0863	0.2531
397.2925	0.2191
397.4987	0.2211
397.7048	0.2214
397.9109	0.2173
398.117	0.228
398.3231	0.2291
398.5292	0.2358
398.7353	0.2361
398.9413	0.2097
399.1474	0.2299
399.3534	0.2239
399.5594	0.2162
399.7654	0.238
399.9714	0.2443
400.1774	0.218
400.3833	0.2135
400.5893	0.2228
400.7952	0.2234
401.0011	0.2307
401.207	0.2177
401.4129	0.2257
401.6188	0.2367
401.8247	0.2292
402.0305	0.2181
402.2364	0.2263
402.4422	0.2279
402.648	0.2273
402.8538	0.2295
403.0596	0.2037
403.2654	0.2391
403.4711	0.2202
403.6768	0.2152
403.8826	0.2222
404.0883	0.2355
404.294	0.2196
404.4997	0.2424
404.7054	0.2339
404.911	0.2309
405.1167	0.218
405.3223	0.2448
405.5279	0.2378
405.7335	0.2248
405.9391	0.2263
406.1447	0.2251
406.3502	0.2422
406.5558	0.2059
406.7613	0.2273
406.9668	0.2231
407.1724	0.2327
407.3778	0.2294
407.5833	0.2306
407.7888	0.2137
407.9942	0.2419
408.1997	0.2174
408.4051	0.2298
408.6105	0.2063
408.8159	0.2169
409.0213	0.2206
409.2267	0.2322
409.432	0.2173
409.6374	0.2342
409.8427	0.2331
410.048	0.2463
410.2533	0.2156
410.4586	0.2294
410.6639	0.2258
410.8691	0.2158
411.0744	0.2251
411.2796	0.2254
411.4848	0.2168
411.69	0.2201
411.8952	0.2391
412.1004	0.2191
412.3056	0.2174
412.5107	0.2212
412.7158	0.2472
412.921	0.2114
413.1261	0.2091
413.3312	0.2093
413.5362	0.2263
413.7413	0.2198
413.9464	0.2232
414.1514	0.2084
414.3564	0.2151
414.5614	0.2095
414.7664	0.2054
414.9714	0.2158
415.1764	0.219
415.3813	0.2332
415.5863	0.2194
415.7912	0.2109
415.9961	0.2211
416.201	0.206
416.4059	0.2332
416.6108	0.2004
416.8156	0.2162
417.0205	0.2118
417.2253	0.1949
417.4301	0.2017
417.6349	0.2059
417.8397	0.2049
418.0445	0.2164
418.2492	0.2105
418.454	0.2087
418.6587	0.2056
418.8634	0.1997
419.0681	0.1997
419.2728	0.2094
419.4775	0.1994
419.6822	0.211
419.8868	0.1765
420.0915	0.2202
420.2961	0.196
420.5007	0.1943
420.7053	0.203
420.9099	0.2163
421.1144	0.2013
421.319	0.2069
421.5235	0.202
421.728	0.2222
421.9325	0.2135
422.137	0.2113
422.3415	0.2045
422.546	0.2168
422.7504	0.2008
422.9549	0.2062
423.1593	0.2
423.3637	0.203
423.5681	0.2014
423.7725	0.1793
423.9769	0.1806
424.1812	0.1788
424.3856	0.2032
424.5899	0.1801
424.7942	0.1701
424.9985	0.1857
425.2028	0.1862
425.4071	0.2031
425.6113	0.1695
425.8156	0.2107
426.0198	0.1941
426.224	0.1651
426.4282	0.185
426.6324	0.1772
426.8366	0.1781
427.0407	0.1861
427.2449	0.1878
427.449	0.192
427.6531	0.1478
427.8572	0.1721
428.0613	0.1729
428.2654	0.1587
428.4694	0.1723
428.6735	0.1684
428.8775	0.1795
429.0815	0.1769
429.2855	0.1459
429.4895	0.1584
429.6935	0.1695
429.8975	0.1605
430.1014	0.1531
430.3053	0.158
430.5093	0.1562
430.7132	0.1536
430.9171	0.1394
431.1209	0.1528
431.3248	0.158
431.5286	0.1445
431.7325	0.1498
431.9363	0.1531
432.1401	0.1439
432.3439	0.1415
432.5477	0.1155
432.7514	0.1267
432.9552	0.1311
433.1589	0.1216
433.3627	0.148
433.5664	0.1219
433.7701	0.1185
433.9737	0.1252
434.1774	0.1202
434.3811	0.1292
434.5847	0.1316
434.7883	0.1156
434.9919	0.1209
435.1955	0.1168
435.3991	0.0999
435.6027	0.1226
435.8062	0.1005
436.0098	0.0993
436.2133	0.116
436.4168	0.1107
436.6203	0.1056
436.8238	0.1128
437.0272	0.115
437.2307	0.1129
437.4341	0.1163
437.6375	0.1225
437.841	0.0866
438.0443	0.101
438.2477	0.1124
438.4511	0.0934
438.6545	0.0909
438.8578	0.1049
439.0611	0.0838
439.2644	0.1033
439.4677	0.0776
439.671	0.0897
439.8743	0.0838
440.0775	0.0802
440.2808	0.09
440.484	0.0838
440.6872	0.0799
440.8904	0.0659
441.0936	0.0827
441.2967	0.0782
441.4999	0.0757
441.703	0.0829
441.9062	0.0589
442.1093	0.0907
442.3124	0.0868
442.5155	0.0614
442.7185	0.0705
442.9216	0.0443
443.1246	0.08
443.3276	0.0625
443.5307	0.071
443.7337	0.056
443.9366	0.0679
444.1396	0.0731
444.3426	0.0582
444.5455	0.0508
444.7484	0.0491
444.9513	0.0594
445.1542	0.0553
445.3571	0.0503
445.56	0.0668
445.7628	0.0447
445.9657	0.0444
446.1685	0.0516
446.3713	0.0494
446.5741	0.0357
446.7769	0.0411
446.9797	0.0526
447.1824	0.0672
447.3852	0.0357
447.5879	0.0617
447.7906	0.0583
447.9933	0.0385
448.196	0.0344
448.3986	0.0404
448.6013	0.0422
448.8039	0.02
449.0066	0.0396
449.2092	0.0404
449.4118	0.0349
449.6143	0.0436
449.8169	0.0379
450.0195	0.0312
450.222	0.0163
450.4245	0.0294
450.627	0.035
450.8295	0.0355
451.032	0.0299
451.2345	0.0306
451.4369	0.0384
451.6394	0.0264
451.8418	0.0144
452.0442	0.0143
452.2466	0.0407
452.449	0.005
452.6513	0.0316
452.8537	0.0181
453.056	0.0159
453.2583	0.0103
453.4607	0.0213
453.663	0.0339
453.8652	0.0265
454.0675	0.0074
454.2697	0.0294
454.472	0.0118
454.6742	0.0171
454.8764	0.0239
455.0786	0.0232
455.2808	0.0101
455.4829	0.0266
455.6851	0.0289
455.8872	0.0147
456.0893	0.0263
456.2915	0.0094
456.4935	0.0172
456.6956	0.0083
456.8977	0.0303
457.0997	0.0149
457.3018	0.0076
457.5038	0.0191
457.7058	0.0164
457.9078	0.0101
458.1098	0.0158
458.3117	0.0197
458.5137	0.0247
458.7156	0.0133
458.9175	-0.0009
459.1194	0.0158
459.3213	0.0211
459.5232	0.0013
459.725	0.0008
459.9269	-0.0007
460.1287	0.0068
460.3305	-0.0001
460.5323	0.0104
460.7341	0.0077
460.9359	0.0033
461.1376	0.026
461.3394	-0.0002
461.5411	0.0108
461.7428	0.0015
461.9445	0.0113
462.1462	0.0375
462.3479	0.0096
462.5495	0.0003
462.7512	0.0019
462.9528	0.0063
463.1544	-0.0104
463.356	0.0105
463.5576	0.0073
463.7592	0.0016
463.9607	0.0163
464.1623	0.0227
464.3638	0.0235
464.5653	-0.0035
464.7668	0.019
464.9683	0.0139
465.1697	0.0248
465.3712	0.004
465.5726	-0.0005
465.7741	-0.0089
465.9755	-0.0025
466.1769	0.0072
466.3782	-0.0037
466.5796	-0.0118
466.7809	0.0161
466.9823	0.0015
467.1836	-0.0104
467.3849	0.0018
467.5862	0.0095
467.7875	-0.0098
467.9887	0.0189
468.19	0.0157
468.3912	-0.0033
468.5924	-0.006
468.7936	0.017
468.9948	0.0133
469.196	0.016
469.3972	-0.0224
469.5983	0.006
469.7994	-0.0013
470.0006	0.0065
470.2017	-0.0137
470.4027	0.0051
470.6038	0.0091
470.8049	-0.0052
471.0059	-0.0096
471.2069	-0.0211
471.408	0.0105
471.6089	0.0072
471.8099	-0.004
472.0109	0.0028
472.2119	-0.0099
472.4128	-0.0073
472.6137	0.0031
472.8146	-0.0139
473.0155	-0.002
473.2164	0.0043
473.4173	0.0043
473.6181	0.0045
473.819	0.0048
474.0198	-0.0099
474.2206	-0.005
474.4214	-0.0046
474.6222	-0.0065
474.8229	-0.0007
475.0237	-0.0093
475.2244	-0.0051
475.4251	0.0067
475.6258	0.0087
475.8265	-0.0062
476.0272	0.0061
476.2278	-0.0003
476.4285	-0.0051
476.6291	0.0051
476.8297	-0.0042
477.0303	-0.0117
477.2309	0.0046
477.4315	-0.0116
477.632	0.0039
477.8326	-0.0018
478.0331	-0.009
478.2336	0.0145
478.4341	-0.0159
478.6346	-0.0018
478.8351	-0.0024
479.0355	-0.003
479.236	-0.0059
479.4364	0.0025
479.6368	-0.0035
479.8372	-0.0101
480.0376	0.0021
480.2379	-0.0073
480.4383	-0.009
480.6386	0.0053
480.8389	-0.003
481.0392	-0.0123
481.2395	-0.0092
481.4398	0.0139
481.6401	0.004
481.8403	-0.0028
482.0405	-0.0037
482.2408	-0.0082
482.441	0.0071
482.6411	-0
482.8413	-0.0027
483.0415	-0.0092
483.2416	-0.0119
483.4417	-0.0118
483.6419	-0.0008
483.8419	-0.0056
484.042	0.0067
484.2421	0.0056
484.4422	-0.0101
484.6422	-0.002
484.8422	0.0038
485.0422	-0.0113
485.2422	0.0038
485.4422	-0.0063
485.6422	-0.0147
485.8421	0.0062
486.042	-0.0029
486.242	-0.0126
486.4419	-0.0063
486.6417	-0.0069
486.8416	-0.0077
487.0415	0.0033
487.2413	-0.0022
487.4411	-0.0017
487.641	-0.0073
487.8408	0.0156
488.0405	-0.0127
488.2403	-0.007
488.4401	0.0079
488.6398	0.0026
488.8395	-0.0042
489.0392	0.0016
489.2389	-0.0059
489.4386	-0.0052
489.6383	-0.0033
489.8379	-0
490.0376	-0.0078
490.2372	-0.007
490.4368	-0.01
490.6364	0.0048
490.836	-0.0027
491.0355	-0.0037
491.2351	-0.0094
491.4346	0.0022
491.6341	-0.0165
491.8336	-0.0033
492.0331	-0.0158
492.2326	0.0011
492.432	0.0038
492.6315	0.001
492.8309	-0.01
493.0303	-0.0131
493.2297	-0.0039
493.4291	0.0019
493.6284	-0.0045
493.8278	0.0021
494.0271	0.0127
494.2264	-0.0007
494.4257	-0.0122
494.625	-0.0068
494.8243	-0.0165
495.0236	-0.0049
495.2228	-0.0049
495.422	0.0019
495.6213	0.0091
495.8205	-0.0088
496.0196	-0.0012
496.2188	0.0027
496.418	-0.0103
496.6171	0.0038
496.8162	-0.0082
497.0153	-0.0048
497.2144	-0.0079
497.4135	0.0015
497.6126	-0.0027
497.8116	-0.0069
498.0107	0.005
498.2097	-0.0099
498.4087	-0.0093
498.6077	0.003
498.8067	-0.0049
499.0056	0.0015
499.2046	-0.0096
499.4035	-0.0229
499.6024	0.0043
499.8013	0.0148
500.0002	-0.0128
500.199	-0.0074
500.3979	-0.0035
500.5967	-0.0134
500.7956	-0.0037
500.9944	-0.0075
501.1932	-0.0121
501.3919	-0.017
501.5907	-0.0125
501.7895	0.0021
501.9882	-0.0109
502.1869	-0.0146
502.3856	-0.003
502.5843	-0.0099
502.783	-0.0108
502.9816	-0.0009
503.1803	-0.0139
503.3789	-0.0095
503.5775	0.0031
503.7761	-0.0096
503.9747	-0.0081
504.1732	-0.0068
504.3718	-0.0065
504.5703	-0.0082
504.7689	-0.0099
504.9674	-0.0001
505.1658	-0.0043
505.3643	0.0018
505.5628	-0.0086
505.7612	-0.0098
505.9597	0.0071
506.1581	-0.0124
506.3565	0.0057
506.5549	0.0032
506.7532	-0.021
506.9516	-0.0113
507.1499	-0.0019
507.3482	-0.0183
507.5465	-0.0083
507.7448	-0.0009
507.9431	-0.0021
508.1414	-0.0044
508.3396	-0.0043
508.5379	-0.0053
508.7361	0.0009
508.9343	0.0041
509.1325	-0.0002
509.3306	-0.0056
509.5288	-0.0074
509.7269	0.0002
509.9251	0.0023
510.1232	-0.0083
510.3213	0.0033
510.5193	0.0078
510.7174	-0.015
510.9154	-0.002
511.1135	0.0043
511.3115	-0.0144
511.5095	-0.0003
511.7075	-0.0078
511.9055	-0.0082
512.1034	-0.0047
512.3014	0.0001
512.4993	0.0045
512.6972	-0.0037
512.8951	-0.0199
513.093	-0.0003
513.2908	-0.001
513.4887	0.0019
513.6865	-0.0033
513.8844	-0.009
514.0822	-0.0059
514.2799	-0.0103
514.4777	-0.0077
514.6755	-0.0134
514.8732	-0.003
515.0709	-0.0071
515.2687	0.0038
515.4664	0.0056
515.664	-0.005
515.8617	-0.0058
516.0594	-0.0189
516.257	-0.0006
516.4546	-0.0146
516.6522	0.0015
516.8498	0.0073
517.0474	0.0055
517.2449	-0.0007
517.4425	-0.0092
517.64	-0.0044
517.8375	0.0038
518.035	0.0039
518.2325	-0.0172
518.43	-0.0014
518.6274	-0.0151
518.8249	-0.0137
519.0223	0.0044
519.2197	-0.0072
519.4171	0.0006
519.6145	-0.0091
519.8118	-0.0046
520.0092	-0.009
520.2065	-0.0148
520.4038	-0.0085
520.6011	0.001
520.7984	-0.0021
520.9956	-0.0137
521.1929	-0.0142
521.3901	0.0039
521.5874	-0.0025
521.7846	0.0054
521.9818	-0.0091
522.1789	-0.0049
522.3761	-0.004
522.5732	-0.0083
522.7704	-0.0077
522.9675	-0.0051
523.1646	-0.0079
523.3617	-0.0069
523.5587	0.0015
523.7558	-0.0049
523.9528	-0.0093
524.1498	0.001
524.3468	-0.0076
524.5438	-0.0029
524.7408	-0.0056
524.9378	0.0094
525.1347	-0.0002
525.3316	0.0062
525.5285	-0.013
525.7254	-0.0134
525.9223	-0.0104
526.1192	0.0024
526.316	-0.0136
526.5129	0.0033
526.7097	-0.0001
526.9065	0.0074
527.1033	-0.0139
527.3	0.0016
527.4968	-0.0059
527.6935	0.0044
527.8903	-0.0074
528.087	-0.0084
528.2837	-0.0058
528.4804	-0.003
528.677	-0.0009
528.8737	-0.0011
529.0703	0.0066
529.2669	-0.0136
529.4635	-0.0156
529.6601	0.0018
529.8567	-0.0022
530.0532	-0.0136
530.2498	0.0018
530.4463	0.0064
530.6428	-0.0076
530.8393	0.0037
531.0358	-0.002
531.2322	-0.0003
531.4287	-0.0144
531.6251	-0.0056
531.8215	0.0064
532.0179	0.001
532.2143	0.0071
532.4107	-0.0084
532.607	-0.0015
532.8034	-0.0066
532.9997	0.0018
533.196	-0.0035
533.3923	-0.0067
533.5886	-0.0046
533.7848	0.0017
533.9811	0.0065
534.1773	-0.003
534.3735	0.0041
534.5697	-0.0006
534.7659	-0.0086
534.9621	0.0003
535.1582	-0.0041
535.3544	-0.0046
535.5505	-0.0071
535.7466	-0.0019
535.9427	-0.0035
536.1387	-0.0121
536.3348	-0.001
536.5308	0.0057
536.7269	-0.0112
536.9229	0.0023
537.1189	0.0019
537.3148	-0.0004
537.5108	-0.0052
537.7068	-0.0078
537.9027	0.0002
538.0986	-0.0061
538.2945	-0.0147
538.4904	0.0023
538.6863	-0.0053
538.8821	-0.0039
539.078	-0.0029
539.2738	0.0016
539.4696	-0.0089
539.6654	-0.0014
539.8611	0.0063
540.0569	-0.008
540.2526	0.0002
540.4484	0.0042
540.6441	0.0119
540.8398	0.0077
541.0355	0.0068
541.2311	-0.0085
541.4268	-0.0054
541.6224	-0.0017
541.818	0.0073
542.0136	-0.0001
542.2092	0.0026
542.4048	0.0019
542.6003	-0.001
542.7959	-0.0046
542.9914	-0.0093
543.1869	0.0031
543.3824	0.0058
543.5779	0.0007
543.7734	-0.0027
543.9688	-0.0052
544.1642	0.0066
544.3596	-0
544.555	-0.0027
544.7504	0.0001
544.9458	0.0002
545.1411	-0.0005
545.3365	-0.0007
545.5318	-0.0028
545.7271	-0.0015
545.9224	0.0035
546.1177	-0.0009
546.3129	0.0134
546.5081	-0.0001
546.7034	-0.0025
546.8986	-0.0089
547.0938	-0.0022
547.289	0.0018
547.4841	0.001
547.6793	0.0145
547.8744	-0.0031
548.0695	0.0011
548.2646	-0.0123
548.4597	-0.0013
548.6548	-0.0083
548.8498	-0.0002
549.0448	0.0079
549.2399	-0.0013
549.4349	0.0096
549.6298	0.0027
549.8248	0.0008
550.0198	0.0085
550.2147	0.0028
550.4096	0.0038
550.6045	0.0039
550.7994	0.0093
550.9943	0.0008
551.1892	0.0023
551.384	0.0045
551.5788	-0.0055
551.7737	0.0006
551.9685	-0.0009
552.1632	0.0006
552.358	-0.002
552.5528	0.0009
552.7475	-0.0008
552.9422	0.0013
553.1369	0.0059
553.3316	0.0067
553.5263	-0.0022
553.7209	0.0021
553.9156	-0.0028
554.1102	-0.0028
554.3048	-0.0017
554.4994	0.009
554.694	-0.0077
554.8885	0.0059
555.0831	-0.0128
555.2776	-0.0074
555.4721	0.0029
555.6666	0.002
555.8611	0.0104
556.0555	0.0002
556.25	-0.0015
556.4444	-0.0087
556.6388	0.0038
556.8332	0.0051
557.0276	0.0017
557.222	-0.0027
557.4163	0.0015
557.6107	-0.008
557.805	0.0086
557.9993	-0.0098
558.1936	-0.0056
558.3879	0.0053
558.5821	0.0034
558.7764	-0.0055
558.9706	-0.0013
559.1648	0.0125
559.359	-0.0085
559.5532	-0.0062
559.7473	-0.0033
559.9415	-0.0053
560.1356	0.0041
560.3297	-0.0091
560.5238	-0.0017
560.7179	-0.0024
560.9119	0.0002
561.106	-0.0008
561.3	0.0023
561.494	-0.0004
561.688	0.0025
561.882	-0.0051
562.076	-0.0036
562.2699	0.0032
562.4639	0.0026
562.6578	0.0037
562.8517	-0.001
563.0456	-0.009
563.2395	-0.0044
563.4333	0.0008
563.6272	0.011
563.821	-0.0065
564.0148	-0.0042
564.2086	-0.0108
564.4024	0.0024
564.5961	-0.0023
564.7899	0.007
564.9836	-0.0014
565.1773	-0.0033
565.371	0.0133
565.5647	0.0095
565.7584	0.0033
565.952	-0.0046
566.1456	0.0103
566.3393	0.0087
566.5329	-0.0034
566.7264	0.0029
566.92	-0.0048
567.1136	0.0083
567.3071	-0.0062
567.5006	0.0012
567.6941	0.0047
567.8876	0.0009
568.0811	0.0025
568.2745	0.0095
568.468	0.0093
568.6614	-0.0023
568.8548	0.0011
569.0482	0.004
569.2416	0.011
569.4349	-0.0014
569.6283	0.0056
569.8216	0.0016
570.0149	-0.001
570.2082	0.0096
570.4015	0.0141
570.5947	0.006
570.788	0.0043
570.9812	0.0054
571.1744	0.0082
571.3676	-0.0068
571.5608	0.0004
571.754	0.0099
571.9471	0.0034
572.1402	0.0026
572.3333	0.0079
572.5264	-0.0031
572.7195	-0.0017
572.9126	0.009
573.1057	-0.0011
573.2987	-0.0019
573.4917	0.0096
573.6847	-0.0022
573.8777	0.0113
574.0707	0.0066
574.2636	0.0028
574.4566	-0.0033
574.6495	0.0053
574.8424	0.0012
575.0353	0.0021
575.2281	0.0046
575.421	0.0061
575.6138	0.005
575.8067	-0.0007
575.9995	0.0078
576.1923	0.0039
576.385	0.0039
576.5778	-0.0009
576.7706	0.0017
576.9633	0.0065
577.156	0.0112
577.3487	-0.0031
577.5414	-0.0013
577.734	0.0051
577.9267	0.0114
578.1193	-0.0007
578.3119	-0.0063
578.5045	0.0043
578.6971	0.0015
578.8897	0.01
579.0822	0.0087
579.2747	0.0034
579.4673	0.0006
579.6598	-0.001
579.8522	0.0006
580.0447	-0.0046
580.2372	0.0034
580.4296	0.0116
580.622	0.0013
580.8144	0.0041
581.0068	0.0059
581.1992	-0.0057
581.3915	0.0042
581.5839	0.0003
581.7762	-0.0042
581.9685	0.0003
582.1608	0.0102
582.353	0.0015
582.5453	0.0038
582.7375	0.0036
582.9298	0.0055
583.122	0.0031
583.3142	0.0057
583.5063	0.0022
583.6985	0.0044
583.8906	0.0027
584.0827	-0.0023
584.2749	0.0053
584.4669	0.0077
584.659	0.0072
584.8511	0.0061
585.0431	0.0029
585.2352	0.0109
585.4272	0.002
585.6192	0.0055
585.8111	0.0006
586.0031	0.0074
586.195	-0.0005
586.387	0.009
586.5789	0.002
586.7708	0.0025
586.9627	0.0015
587.1545	-0.0009
587.3464	0.0096
587.5382	0.0064
587.73	0.0052
587.9218	0.0062
588.1136	-0.0011
588.3053	0.0047
588.4971	-0.0008
588.6888	0.0019
588.8805	0.0094
589.0722	0.0122
589.2639	0.0074
589.4556	0.0027
589.6472	0.0036
589.8389	0.0018
590.0305	-0.0015
590.2221	0.0001
590.4137	-0.0068
590.6052	0.0143
590.7968	0.007
590.9883	0.0013
591.1798	0.0086
591.3713	0.0058
591.5628	0.0125
591.7543	0.0111
591.9458	0.0019
592.1372	0.008
592.3286	0.0127
592.52	0.0098
592.7114	0.0016
592.9028	0.0033
593.0941	0.0023
593.2855	0.0099
593.4768	-0.0023
593.6681	0.0018
593.8594	0.0045
594.0506	0.0096
594.2419	0.0178
594.4331	0.0022
594.6244	0.0109
594.8156	-0.0018
595.0067	0.0046
595.1979	0.0055
595.3891	0.0121
595.5802	0.0053
595.7713	0.0047
595.9624	-0.0003
596.1535	0.0035
596.3446	0.0005
596.5357	-0.0025
596.7267	0.0106
596.9177	0.0077
597.1087	-0.0042
597.2997	-0.0001
597.4907	0.003
597.6817	-0.001
597.8726	0.0008
598.0635	-0.0008
598.2544	0.0026
598.4453	0.0057
598.6362	0.0035
598.827	0.0003
599.0179	0.0095
599.2087	0.0085
599.3995	0.0013
599.5903	0.0025
599.7811	0.0035
599.9718	0.0071
600.1626	-0.005
600.3533	-0.0035
600.544	0.0005
600.7347	0.0001
600.9254	-0.0031
601.116	-0.009
601.3067	-0.0002
601.4973	0.004
601.6879	0.0106
601.8785	0.0021
602.0691	0.0059
602.2596	0.0137
602.4502	0.0103
602.6407	0.0065
602.8312	0.0015
603.0217	-0.0055
603.2122	-0.0008
603.4027	0.0027
603.5931	0.0006
603.7835	-0.0011
603.9739	0.0038
604.1643	0.002
604.3547	0.0001
604.5451	0.0096
604.7354	0.005
604.9257	0.0091
605.116	0.0084
605.3063	0.0145
605.4966	0.0076
605.6869	0.0011
605.8771	0.0091
606.0673	0.0101
606.2575	0.009
606.4477	0.0113
606.6379	0.0061
606.8281	0.0066
607.0182	0.0055
607.2083	0.0066
607.3985	0.003
607.5885	0.0032
607.7786	0.0009
607.9687	-0.0037
608.1587	0.0057
608.3488	0.0097
608.5388	0.0048
608.7288	0.0086
608.9187	0.0018
609.1087	-0.005
609.2986	-0.0083
609.4886	0.0001
609.6785	-0.0007
609.8684	0.01
610.0582	0.0061
610.2481	0.0041
610.4379	0.0037
610.6278	0.0016
610.8176	0.0093
611.0074	0.003
611.1971	0.0074
611.3869	0.0004
611.5766	0.0034
611.7664	0.0075
611.9561	-0.0013
612.1458	0.0064
612.3354	-0.0008
612.5251	0.0044
612.7147	0.0025
612.9044	0.012
613.094	0.0035
613.2836	0.0102
613.4731	0.0027
613.6627	-0.0003
613.8522	0.0082
614.0417	0.0053
614.2313	0.0042
614.4207	0.0036
614.6102	0.0058
614.7997	0.001
614.9891	0.001
615.1785	0.0009
615.3679	-0.0013
615.5573	0.0137
615.7467	0.0059
615.9361	0.0021
616.1254	-0.004
616.3147	-0.0007
616.504	0.0018
616.6933	0.0015
616.8826	0.011
617.0718	0.0073
617.2611	0.0047
617.4503	0.0016
617.6395	0.0011
617.8287	0.0038
618.0179	0.0036
618.207	0.0101
618.3961	0.0065
618.5853	0.0079
618.7744	0.0088
618.9634	0.0103
619.1525	0.0056
619.3416	0.0143
619.5306	0.0097
619.7196	0.0103
619.9086	0.0058
620.0976	0.0137
620.2866	0.0122
620.4755	0.0123
620.6645	0.0105
620.8534	0.0121
621.0423	0.0055
621.2312	0.0083
621.42	0.0087
621.6089	-0.0012
621.7977	0.015
621.9865	-0.0035
622.1753	0.0085
622.3641	0.0037
622.5529	0.0106
622.7416	0.0113
622.9303	0.0027
623.1191	0.0098
623.3078	0.0034
623.4964	0.003
623.6851	0.0029
623.8737	0.0027
624.0624	0.006
624.251	0.0058
624.4396	0.002
624.6282	0.0002
624.8167	0.0011
625.0053	0.0086
625.1938	0.01
625.3823	0.0057
625.5708	0.0019
625.7593	-0.0042
625.9477	-0.0006
626.1362	0.0088
626.3246	0.0049
626.513	0.0062
626.7014	0.0168
626.8898	0.0056
627.0781	0.0066
627.2665	-0.0022
627.4548	0.008
627.6431	0.0127
627.8314	0.0046
628.0197	0.0093
628.2079	-0.0029
628.3962	-0.0043
628.5844	0.0015
628.7726	0.0155
628.9608	0.0117
629.1489	0.0038
629.3371	0.0122
629.5252	-0.0008
629.7134	0.0111
629.9015	-0.0015
630.0895	-0.0012
630.2776	0.0028
630.4657	-0.0026
630.6537	0.0023
630.8417	0.0027
631.0297	0.0019
631.2177	0.0017
631.4057	-0.0032
631.5936	0.0056
631.7815	0.0119
631.9695	0.0048
632.1574	0.0185
632.3452	0.0139
632.5331	0.0085
632.7209	0.0101
632.9088	0.013
633.0966	0.0078
633.2844	-0.001
633.4722	-0.0024
633.6599	0.0077
633.8477	0.0073
634.0354	-0.004
634.2231	0.0048
634.4108	0.0059
634.5985	0.0097
634.7861	0.0083
634.9738	0.0026
635.1614	0.0044
635.349	0.0068
635.5366	-0.002
635.7242	0.0021
635.9117	0.0088
636.0993	0.0023
636.2868	0.0066
636.4743	0.004
636.6618	0.0081
636.8492	0.0005
637.0367	0.0055
637.2241	0.0084
637.4115	-0.0009
637.5989	0.0034
637.7863	0.0049
637.9737	0.0074
638.161	0.0023
638.3484	0.0096
638.5357	0.017
638.723	0.0008
638.9103	0.0036
639.0975	0.01
639.2848	0.0061
639.472	0.0053
639.6592	0.0047
639.8464	0.0104
640.0336	0.0119
640.2208	0.0054
640.4079	0.0041
640.595	0.0062
640.7821	0.006
640.9692	0.0028
641.1563	0.0078
641.3434	0.0146
641.5304	0.0044
641.7174	0
641.9044	0.0068
642.0914	0.0094
642.2784	0.0091
642.4653	0.0031
642.6523	0.0085
642.8392	0.0026
643.0261	0.0045
643.213	-0.0013
643.3999	-0.0048
643.5867	0.0059
643.7735	0.0061
643.9604	0.0033
644.1472	0.007
644.3339	0.0042
644.5207	0.0072
644.7075	0.0044
644.8942	0.0044
645.0809	0.0078
645.2676	0.0169
645.4543	0.0055
645.6409	0.0076
645.8276	0.0008
646.0142	0.014
646.2008	0.0055
646.3874	-0.0041
646.574	0.0043
646.7605	0.0003
646.9471	-0.0065
647.1336	0.0032
647.3201	0.0054
647.5066	-0.0031
647.6931	0.0089
647.8795	0.0011
648.0659	0.0053
648.2524	0.0081
648.4388	0.0011
648.6252	0.0048
648.8115	0.0112
648.9979	0.001
649.1842	0.0066
649.3705	0.0047
649.5568	0.0011
649.7431	0.0091
649.9294	0.0031
650.1156	0.0025
650.3018	0.0002
650.488	0.0059
650.6742	0.0083
650.8604	-0
651.0466	-0.0004
651.2327	0.0105
651.4188	0.0015
651.6049	0.0016
651.791	0.0034
651.9771	0.0177
652.1632	0.0068
652.3492	0.0096
652.5352	0.0022
652.7212	0.0025
652.9072	0.0099
653.0932	-0.003
653.2791	-0.001
653.465	0.0099
653.651	-0.0064
653.8369	-0.0014
654.0227	0.0026
654.2086	0.0078
654.3944	0.0064
654.5803	0.0021
654.7661	-0.0031
654.9519	0.0101
655.1377	-0.0005
655.3234	0.002
655.5092	0.0005
655.6949	-0.0092
655.8806	-0.0012
656.0663	0.0015
656.2519	-0.0002
656.4376	0.0007
656.6232	0.0086
656.8088	0.0056
656.9945	0.004
657.18	0.0067
657.3656	0.0016
657.5511	0.0007
657.7367	-0.0032
657.9222	0.0062
658.1077	0.004
658.2932	0.0073
658.4786	-0.0018
658.6641	-0.0002
658.8495	0.0104
659.0349	-0.0027
659.2203	0.013
659.4057	0.0109
659.591	0.0092
659.7764	0.0058
659.9617	0.0104
660.147	0.0029
660.3323	0.0099
660.5176	0.0119
660.7028	0.0104
660.888	0.0114
661.0733	0.0077
661.2585	0.0044
661.4436	0.008
661.6288	0.0045
661.8139	0.0049
661.9991	0.0106
662.1842	-0.002
662.3693	0.0054
662.5544	-0.0022
662.7394	0.005
662.9245	0.0019
663.1095	0.0022
663.2945	0.0037
663.4795	0.0114
663.6644	0.0123
663.8494	0.0045
664.0343	0.0061
664.2193	0.0002
664.4042	0.0088
664.589	0.008
664.7739	-0.0013
664.9587	-0.0034
665.1436	0.0001
665.3284	0.0092
665.5132	0.0044
665.698	0.0038
665.8827	0.0036
666.0675	0.0088
666.2522	-0.0009
666.4369	0.0064
666.6216	0.0057
666.8063	0.007
666.9909	0.0016
667.1756	0.0026
667.3602	0.0065
667.5448	0.0024
667.7294	0.0091
667.9139	0.0068
668.0985	0.0157
668.283	-0.0036
668.4675	0.0076
668.652	0.0034
668.8365	-0.002
669.0209	0.0099
669.2054	0.0149
669.3898	0.004
669.5742	0.0041
669.7586	0.0061
669.943	0.0094
670.1273	0.0106
670.3117	0.0086
670.496	0.0098
670.6803	0.0197
670.8646	0.0139
671.0488	0.0027
671.2331	0.0077
671.4173	0.0124
671.6015	0.0066
671.7857	0.0086
671.9699	0.0104
672.1541	0.0109
672.3382	0.0095
672.5223	0.0117
672.7064	0.0102
672.8905	0.0189
673.0746	0.0133
673.2587	0.0037
673.4427	0.01
673.6267	0.0122
673.8107	0.0124
673.9947	0.0131
674.1787	0.0115
674.3626	0.0046
674.5465	0.0082
674.7304	0.0062
674.9143	0.0096
675.0982	0.0151
675.2821	-0.0003
675.4659	-0.0036
675.6497	0.0098
675.8335	-0.0012
676.0173	0.0058
676.2011	0.0033
676.3849	0.0021
676.5686	-0.0013
676.7523	0.0014
676.936	-0.0021
677.1197	0.0008
677.3034	-0.0009
677.487	0.0106
677.6706	0.0123
677.8542	0.0013
678.0378	0.0075
678.2214	0.0004
678.405	0.0003
678.5885	-0.0085
678.772	0.0032
678.9555	-0.0031
679.139	-0.0003
679.3225	0.0046
679.5059	0.0015
679.6894	0.003
679.8728	-0.0029
680.0562	-0.0042
680.2395	-0.003
680.4229	0.0021
680.6062	0.0074
680.7896	0.0083
680.9729	-0.0042
681.1562	0.0054
681.3394	0.0024
681.5227	-0.0074
681.7059	0.0015
681.8891	0.0093
682.0723	0.0068
682.2555	-0.0003
682.4387	0.0013
682.6218	-0.0013
682.805	0.0061
682.9881	0.0106
683.1712	-0.0023
683.3542	-0.0032
683.5373	-0.0004
683.7203	-0.0016
683.9034	0.0053
684.0864	0.0014
684.2694	-0.0012
684.4523	0.0113
684.6353	-0.0044
684.8182	0.0035
685.0011	-0.0036
685.184	0.0068
685.3669	0.0024
685.5498	0.0044
685.7326	0.0068
685.9154	0.0018
686.0982	0.0121
686.281	0.004
686.4638	0.0053
686.6465	0.0002
686.8293	0.0035
687.012	0.0081
687.1947	-0.0016
687.3774	0.0014
687.56	0.0103
687.7427	0.012
687.9253	0.0046
688.1079	0.0041
688.2905	0.0188
688.4731	0.003
688.6556	0.0049
688.8382	0.0091
689.0207	-0.0036
689.2032	-0.0026
689.3857	-0.0045
689.5681	0.0118
689.7506	0.0017
689.933	-0.0027
690.1154	0.0026
690.2978	0.0018
690.4802	0.0046
690.6626	-0.0025
690.8449	-0.0014
691.0272	0.0206
691.2095	-0.0032
691.3918	-0.0035
691.5741	0.0155
691.7563	0.0009
691.9386	0.0095
692.1208	0.0029
692.303	0.0072
692.4852	0.0043
692.6673	0.0058
692.8495	0.0019
693.0316	0.0064
693.2137	0.0023
693.3958	-0.0041
693.5778	0.0062
693.7599	0.0083
693.9419	0.0055
694.1239	0.0048
694.3059	0.0026
694.4879	0.0106
694.6699	0.0097
694.8518	0.0059
695.0337	-0.0047
695.2157	0.0089
695.3975	0.0123
695.5794	0.0123
695.7613	-0.0002
695.9431	0.0005
696.1249	0.01
696.3067	0.0088
696.4885	0.008
696.6703	0.0039
696.852	0.0014
697.0337	0.0116
697.2154	0.0018
697.3971	0.0075
697.5788	0.0019
697.7605	0.0033
697.9421	0.0107
698.1237	0.0068
698.3053	0.0013
698.4869	0.001
698.6685	0.0023
698.85	0.0029
699.0315	0.0115
699.213	0.0002
699.3945	0.0086
699.576	0.0096
699.7575	0.0077
699.9389	0.0049
700.1203	0.0007
700.3017	-0.006
700.4831	-0.0011
700.6645	0.006
700.8458	0.0057
701.0271	0.0009
701.2084	0.0157
701.3897	0.0007
701.571	0.0162
701.7523	-0.0001
701.9335	0.0089
702.1147	0.0005
702.2959	0.0019
702.4771	0.0096
702.6583	0.0025
702.8394	0.0035
703.0205	0.0066
703.2016	-0.0062
703.3827	0.0004
703.5638	0.0077
703.7449	0.0041
703.9259	0.0084
704.1069	0.0021
704.2879	0.0033
704.4689	0.0033
704.6499	-0.0005
704.8308	0.0045
705.0117	0.0029
705.1927	0.0003
705.3735	-0.0002
705.5544	-0.004
705.7353	0.0034
705.9161	-0.0062
706.0969	0.0012
706.2777	0.005
706.4585	0
706.6393	0.0143
706.82	-0.0027
707.0007	0.0147
707.1815	0.0049
707.3621	0.0114
707.5428	0.0108
707.7235	0.0061
707.9041	0.0063
708.0847	0.0037
708.2653	0.0046
708.4459	-0.0084
708.6265	0.012
708.807	0.0031
708.9875	0
709.168	-0.0014
709.3485	-0.0092
709.529	-0.0067
709.7095	-0.0054
709.8899	0.002
710.0703	-0.0031
710.2507	0.0044
710.4311	-0.0082
710.6115	-0.0005
710.7918	-0.0015
710.9721	-0.0014
711.1524	-0
711.3327	0.0044
711.513	0.009
711.6932	-0.0057
711.8735	0.0096
712.0537	0.0003
712.2339	0.0002
712.4141	-0.001
712.5942	0.0004
712.7744	-0.0008
712.9545	-0.0007
713.1346	0.0038
713.3147	0.0036
713.4947	-0.0067
713.6748	0.0027
713.8548	0.0027
714.0348	-0.0014
714.2148	-0.0033
714.3948	0.0092
714.5748	-0.0001
714.7547	0.0042
714.9346	0.0083
715.1145	0
715.2944	-0.0083
715.4743	0.0002
715.6541	-0.0014
715.834	0.0046
716.0138	-0.0032
716.1936	-0.017
716.3733	0.0023
716.5531	0.0071
716.7328	0.0023
716.9126	-0.0017
717.0923	0.0062
717.2719	-0.0025
717.4516	0.0082
717.6312	0.0067
717.8109	-0.0045
717.9905	0.0055
718.1701	0.0004
718.3496	0.0009
718.5292	0.0031
718.7087	0.0043
718.8882	-0.003
719.0677	0.0054
719.2472	0.0025
719.4267	0.0046
719.6061	-0.0037
719.7856	0.0048
719.965	0.0091
720.1443	-0.0057
720.3237	0.0138
720.5031	0.0021
720.6824	0.0093
720.8617	0.0049
721.041	0.0043
721.2203	0.0086
721.3995	0.0064
721.5788	0.003
721.758	0.0049
721.9372	0.0032
722.1164	0.0068
722.2956	0.0092
722.4747	0.006
722.6538	0.0036
722.8329	0.0197
723.012	0.0076
723.1911	0.0072
723.3702	-0.0003
723.5492	0.0215
723.7282	0.0034
723.9072	0.009
724.0862	-0.0043
724.2652	0.0014
724.4441	0.0039
724.623	-0
724.8019	0.0004
724.9808	-0.0008
725.1597	-0.0077
725.3385	0.0087
725.5174	0.0015
725.6962	0.005
725.875	-0.0025
726.0538	0.0063
726.2325	-0.0021
726.4112	0.0019
726.59	-0.0022
726.7687	-0.0056
726.9474	0.0087
727.126	0.0007
727.3047	-0.0092
727.4833	-0.0003
727.6619	-0.0036
727.8405	-0.0038
728.0191	-0.0002
728.1976	0.0069
728.3762	0.0055
728.5547	-0
728.7332	-0.0031
728.9116	0.005
729.0901	0.0029
729.2686	0.0041
729.447	-0.0055
729.6254	0.0035
729.8038	0.0087
729.9821	-0.0152
730.1605	-0.0084
730.3388	-0.0003
730.5171	0.0014
730.6954	-0.0081
730.8737	0.0039
731.0519	0.0087
731.2302	0.0021
731.4084	0.0093
731.5866	0.0063
731.7648	0.0073
731.9429	0.0089
732.1211	0.0055
732.2992	0.0092
732.4773	0.0038
732.6554	0.0034
732.8335	-0.0017
733.0115	0.0106
733.1896	0.0151
733.3676	-0.0057
733.5456	0.0045
733.7235	0.0068
733.9015	-0.0051
734.0794	0.0031
734.2574	0.0057
734.4353	0.0066
734.6131	0.0227
734.791	0.0071
734.9689	0.0112
735.1467	0.0098
735.3245	0.0029
735.5023	0.0054
735.68	0.0007
735.8578	0.0163
736.0355	-0.0112
736.2132	0.0022
736.3909	0.0003
736.5686	-0.0067
736.7463	0.0131
736.9239	0.0108
737.1015	0.0074
737.2791	0.0067
737.4567	0.0077
737.6343	0.0022
737.8118	0.0036
737.9894	0.0076
738.1669	-0.0075
738.3444	0.0018
738.5218	0.0077
738.6993	0.0012
738.8767	-0.0056
739.0541	0.0098
739.2315	-0.0061
739.4089	0.0021
739.5863	0.0065
739.7636	-0.0022
739.9409	0.0093
740.1182	0.0055
740.2955	0.0106
740.4728	0.0068
740.65	0.0028
740.8272	0.0074
741.0044	-0.0045
741.1816	0.0074
741.3588	-0.0048
741.5359	0.0055
741.7131	-0.0075
741.8902	0.0016
742.0673	-0.0034
742.2444	-0.0036
742.4214	-0.0073
742.5985	0.0045
742.7755	-0.0019
742.9525	-0.0046
743.1295	-0.0023
743.3064	0.0054
743.4834	0.0116
743.6603	-0.0004
743.8372	-0.0027
744.0141	-0.0019
744.191	0.0074
744.3678	0.0074
744.5446	0.0014
744.7215	0.0147
744.8982	0.0008
745.075	-0.0038
745.2518	0.0056
745.4285	0.0025
745.6052	-0.0018
745.7819	0.0006
745.9586	0.0021
746.1353	0.0058
746.3119	-0.0027
746.4885	-0.0035
746.6651	-0.0032
746.8417	-0.0068
747.0183	0.0017
747.1948	-0.0065
747.3714	0.0121
747.5479	-0.0004
747.7244	-0.0038
747.9008	0.0075
748.0773	-0.004
748.2537	-0.0027
748.4301	-0.005
748.6065	0.0106
748.7829	0.0116
748.9593	-0.0051
749.1356	0.0079
749.3119	0.0084
749.4882	0.0002
749.6645	-0.0012
749.8408	-0.0001
750.017	-0.0042
750.1933	0.0094
750.3695	-0.0049
750.5457	0.002
750.7218	0.0029
750.898	0.0061
751.0741	-0.0034
751.2502	0.003
751.4263	0
751.6024	-0.0004
751.7784	0.0007
751.9545	-0.0064
752.1305	-0.0051
752.3065	0.0042
752.4825	0.0037
752.6584	0.0035
752.8344	0.003
753.0103	-0.0017
753.1862	0.0039
753.3621	0.001
753.5379	-0.0084
753.7138	0.0023
753.8896	0.0013
754.0654	0.0063
754.2412	0.0116
754.417	0.0042
754.5927	-0.0049
754.7685	-0.0032
754.9442	0.0039
755.1199	0.0143
755.2956	0.0083
755.4712	0.0098
755.6469	0.0087
755.8225	-0.002
755.9981	-0.0008
756.1736	0.0001
756.3492	0.004
756.5248	-0.0108
756.7003	0.0069
756.8758	0.0015
757.0513	-0.0077
757.2267	-0.0024
757.4022	0.0064
757.5776	-0.0096
757.753	-0.0075
757.9284	0.0038
758.1038	0.0105
758.2791	-0.0006
758.4545	-0.0074
758.6298	0.0039
758.8051	0.0001
758.9803	-0.0087
759.1556	-0.0049
759.3308	-0.0021
759.506	0.0102
759.6812	0.0021
759.8564	0.0044
760.0316	-0.0026
760.2067	0.0141
760.3819	0.0048
760.557	0.0114
760.732	-0.0058
760.9071	-0.0054
761.0821	0.0082
761.2572	0.0192
761.4322	0.0075
761.6072	0.009
761.7821	0.0011
761.9571	0.006
762.132	-0.0084
762.3069	-0.0039
762.4818	0.0053
762.6567	0.0046
762.8316	-0.0001
763.0064	-0.0053
763.1812	-0.0097
763.356	-0.007
763.5308	-0.0041
763.7055	0.0024
763.8803	-0.0096
764.055	-0.004
764.2297	-0.0082
764.4044	0.0025
764.579	-0.0046
764.7537	-0.009
764.9283	0.005
765.1029	-0.005
765.2775	-0.0103
765.4521	0.0001
765.6266	-0.0042
765.8011	-0.0006
765.9756	0.0094
766.1501	0.0158
766.3246	-0.0086
766.4991	0.0005
766.6735	0.0122
766.8479	-0.0023
767.0223	0.0162
767.1967	0.0092
767.371	0.006
767.5454	0.0011
767.7197	0.0145
767.894	-0.0061
768.0683	0.0077
768.2425	-0.0002
768.4168	0.0015
768.591	0.0101
768.7652	-0.0042
768.9394	0.0035
769.1135	0.0075
769.2877	0.0127
769.4618	0.001
769.6359	-0.0014
769.81	0.006
769.984	0.0022
770.1581	-0.0038
770.3321	0.0029
770.5061	-0.0084
770.6801	-0.0043
770.8541	-0.0004
771.028	0.0033
771.202	-0.0025
771.3759	0.014
771.5498	0.0028
771.7236	-0.0065
771.8975	-0.0025
772.0713	-0.0035
772.2451	0.0027
772.4189	0.0145
772.5927	0.0074
772.7665	0.0025
772.9402	-0.0005
773.1139	-0.0021
773.2876	0.0016
773.4613	0.0169
773.635	0.0175
773.8086	-0.0026
773.9822	-0.0032
774.1558	0.0087
774.3294	-0.0063
774.503	0.0037
774.6765	0.0219
774.8501	0.0091
775.0236	0.0161
775.1971	0.0161
775.3705	-0.001
775.544	0.0172
775.7174	-0.004
775.8908	-0.0045
776.0642	0.0072
776.2376	0.0098
776.4109	-0.0038
776.5843	0.0145
776.7576	0.0071
776.9309	0.0202
777.1041	0.0124
777.2774	0.0187
777.4506	0.015
777.6238	-0.0011
777.797	0.0128
777.9702	0.0078
778.1434	0.0034
778.3165	-0.009
778.4896	-0.0186
778.6627	0.0028
778.8358	-0.0009
779.0089	-0.0138
779.1819	0.001
779.3549	0.0171
779.5279	-0.0002
779.7009	0.0025
779.8739	0.0036
780.0468	0.0016
780.2197	-0.0009
780.3926	0.0009
780.5655	-0.0009
780.7384	0.0003
780.9112	-0.0057
781.0841	-0.0019
781.2569	0.0015
781.4297	0.0088
781.6024	-0
781.7752	0.0243
781.9479	0.0126
782.1206	-0.007
782.2933	-0.0098
782.466	0.0002
782.6386	0.0106
782.8113	0.0091
782.9839	0.0219
783.1565	0.0255
783.329	0.0176
783.5016	0.0223
783.6741	0.0094
783.8466	0.0085
784.0191	0.0176
784.1916	0.0222
784.3641	0.0153
784.5365	0.0074
784.7089	0.0062
784.8813	0.0154
785.0537	0.0096
785.2261	0.0168
785.3984	-0.0068
785.5707	0.0026
785.743	0.015
785.9153	0.005
786.0876	0.0028
786.2598	0.0068
786.432	-0.0006
786.6042	0.02
786.7764	-0.001
786.9486	0.0133
787.1207	0.0061
787.2928	0.0166
787.4649	0.0107
787.637	0.0071
787.8091	0.0024
787.9811	0.0064
788.1532	0.0055
788.3252	0.0037
788.4972	-0.0051
788.6691	0.0116
788.8411	0.0048
789.013	-0.0077
789.1849	0.0083
789.3568	0.0134
789.5287	0.0151
789.7005	-0.0002
789.8723	0.0076
790.0442	0.02
790.2159	0.0152
790.3877	0.0015
790.5595	-0.0032
790.7312	0.0063
790.9029	0.0048
791.0746	0.0156
791.2463	0.0213
791.4179	0.0092
791.5896	-0.0111
791.7612	0.0126
791.9328	0.0178
792.1044	-0.0028
792.2759	-0.0151
792.4474	-0.0214
792.619	-0.0002
792.7905	0.0001
792.9619	0.0057
793.1334	0.0013
793.3048	0.0173
793.4762	0.007
793.6476	0.0111
793.819	0.0035
793.9904	0.0218
794.1617	-0.0068
794.333	-0.0002
794.5043	-0.0235
794.6756	0.0148
794.8469	-0.0015
795.0181	-0.0015
795.1893	-0.0189
795.3605	0.0086
795.5317	0.0076
795.7029	0.0003
795.874	0.0127
796.0452	-0.0013
796.2163	0.0012
796.3873	0.0266
796.5584	0.0157
796.7294	0.0151
796.9005	0.0212
797.0715	0.0258
797.2425	-0.0099
797.4134	0.0093
797.5844	0.0111
797.7553	-0.0038
797.9262	0.0043
798.0971	-0.0001
798.2679	-0.0008
798.4388	-0.0232
798.6096	-0.0052
798.7804	0.0148
798.9512	-0.0065
799.122	0.0028
799.2927	0.0036
799.4635	0.0269
799.6342	-0.0141
799.8049	0.0017
799.9755	0.0015
800.1462	0.0077
800.3168	0.0213
800.4874	-0.0073
800.658	0.0283
800.8286	0.0076
800.9991	0.0034
801.1696	-0.0007
801.3402	0.0184
801.5106	-0.0141
801.6811	0.0136
801.8516	0.0288
802.022	0.0034
802.1924	0.0149
802.3628	0.0127
802.5332	0.0147
802.7035	0.05
802.8739	0.0109
803.0442	0.0069
803.2145	0.0182
803.3847	-0.0022
803.555	0.01
803.7252	-0.0031
803.8954	-0.0086
804.0656	0.0121
804.2358	0.0058
804.4059	0.0088
804.5761	0.0175
804.7462	0.0081
804.9163	-0.0046
805.0864	-0.0199
805.2564	-0.0123
805.4264	0.0097
805.5965	0.0042
805.7665	0.009
805.9364	0.0042
806.1064	0.0404
806.2763	0.0066
806.4462	0.0211
806.6161	0.0047
806.786	0.0246
806.9559	-0.0057
807.1257	0.0175
807.2955	-0.0046
807.4653	-0.0033
807.6351	0.0042
807.8048	0.0215
807.9746	0.0056
808.1443	0.0153
808.314	0.0064
808.4837	0.0044
808.6533	0.0214
808.8229	0.0261
808.9926	0.0102
809.1622	0.0111
809.3317	-0.017
809.5013	0.0219
809.6708	0.0387
809.8403	0.0157
810.0098	0.005
810.1793	-0.0006
810.3488	0.0116
810.5182	-0.0235
810.6876	0.0101
810.857	0.011
811.0264	0.0404
811.1958	0.0177
811.3651	0.0049
811.5344	0.0066
811.7037	0.0087
811.873	-0.0105
812.0422	0.0041
812.2115	0.0181
812.3807	0.0054
812.5499	0.02
812.7191	0.0205
812.8882	0.0071
813.0574	0.0032
813.2265	0.0015
813.3956	0.0167
813.5646	0.0071
813.7337	0.0066
813.9027	0.0381
814.0718	0.0237
814.2407	0.0013
814.4097	-0.002
814.5787	-0.0018
814.7476	0.0108
814.9165	-0.0157
815.0854	-0.0004
815.2543	0.0119
815.4232	0.0103
815.592	0.0113
815.7608	0.0199
815.9296	0.0341
816.0984	0.0103
816.2671	0.0059
816.4359	0.0072
816.6046	0.02
816.7733	0.0148
816.942	-0.0014
817.1106	0.0339
817.2793	0.0313
817.4479	0.0061
817.6165	0.0248
817.785	0.0117
817.9536	-0.0043
818.1221	0.0087
818.2906	0.0219
818.4591	-0.0034
818.6276	-0.0085
818.7961	0.0153
818.9645	-0.0008
819.1329	0.0196
819.3013	0.0535
819.4697	0.0378
819.638	-0.0025
819.8064	0.0342
819.9747	0.0216
820.143	0.0292
820.3113	-0.0041
820.4795	0.0144
820.6477	0.0171
820.816	0.0224
820.9842	0.0258
821.1523	0.006
821.3205	0.011
821.4886	0.0031
821.6567	0.0107
821.8248	0.0172
821.9929	0.0384
822.1609	0.0167
822.329	0.0193
822.497	0.0544
822.665	0.0066
822.833	0.0253
823.0009	0.0113
823.1688	0.0314
823.3367	0.0235
823.5046	0.0127
823.6725	0.0225
823.8404	0.0271
824.0082	0.0361
824.176	0.0399
824.3438	0.0411
824.5116	-0.017
824.6793	0.0261
824.847	-0.0014
825.0147	0.0107
825.1824	0.0218
825.3501	0.0135
825.5177	0.0084
825.6854	0.0297
825.853	0.0121
826.0206	-0.0071
826.1881	0.0256
826.3557	-0.0169
826.5232	0.0351
826.6907	-0.0042
826.8582	-0.0209
827.0257	-0.0204
827.1931	0.0202
827.3605	0.009
827.528	-0.0298
827.6953	-0.0174
827.8627	-0.0011
828.03	0.0607
828.1974	0.0069
828.3647	-0.0002
828.532	0.0073
828.6992	0.0363
828.8665	0.0042
829.0337	-0.0092
829.2009	0.0074
829.3681	0.0218
829.5352	0.0452
829.7024	-0.0217
829.8695	-0.022
830.0366	0.0426
830.2037	-0.0201
830.3707	0.0231
830.5378	-0.0086
830.7048	0.0097
830.8718	-0.013
831.0388	0.0114
831.2057	-0.03
831.3727	0.0401
831.5396	-0.0346
831.7065	0.0021
831.8734	0.0169
832.0402	-0.0137
832.2071	0.0176
832.3739	-0.0161
832.5407	0.0385
832.7075	-0.0015
832.8742	0.0004
833.041	-0.0504
833.2077	0.0004
833.3744	0.0222
833.541	0.0126
833.7077	-0.0143
833.8743	-0.0118
834.0409	-0.0116
834.2075	0.0055
834.3741	-0.0129
834.5407	0.0133
834.7072	0.0307
834.8737	-0.0022
835.0402	-0.0141
835.2067	0.0215
835.3731	0.0435
835.5395	0.0114
835.706	0.0109
835.8723	0.0041
836.0387	0.0184
836.2051	-0.0002
836.3714	-0.003
836.5377	0.0439
836.704	-0.0258
836.8703	0.0219
837.0365	0.0246
837.2027	-0.0107
837.3689	0.056
837.5351	-0.0032
837.7013	-0.0095
837.8674	0.0006
838.0335	-0.0236
838.1997	0.0038
838.3657	-0.0509
838.5318	-0.0067
838.6978	0.0444
838.8639	0.0484
839.0299	0.0023
839.1958	0.0124
839.3618	0.041
839.5277	-0.0204
839.6937	0.0323
839.8596	-0.018
840.0254	-0.0173
840.1913	0.0226
840.3571	0.0537
840.523	-0.0675
840.6888	0.0044
840.8545	-0.0003
841.0203	-0.0208
841.186	0.0544
841.3517	0.0469
841.5174	-0.0029
841.6831	-0.0441
841.8488	0.0421
842.0144	0.0136
842.18	0.0159
842.3456	0.0545
842.5112	-0.0123
842.6767	-0.0477
842.8422	-0.0171
843.0077	0.0283
843.1732	-0.0119
843.3387	0.0099
843.5042	0.0055
843.6696	-0.0526
843.835	-0.0454
844.0004	0.0701
844.1657	0.0088
844.3311	-0.0551
844.4964	-0.0464
844.6617	-0.0263
844.827	0.0066
844.9923	0.0219
845.1575	0.019
845.3227	0.0185
845.4879	-0.0115
845.6531	-0.0521
845.8183	-0.0031
845.9834	0.0511
846.1485	-0.0438
846.3136	-0.0129
846.4787	-0.0531
846.6438	0.1196
846.8088	-0.0219
846.9738	-0.0625
847.1388	0.0038
847.3038	-0.061
847.4687	-0.0853
847.6337	0.014
847.7986	0.0158
847.9635	-0.0451
848.1284	0.047
848.2932	0.0554
848.458	-0.004
848.6228	0.0935
848.7876	0.0211
848.9524	-0.0416
849.1172	-0.0654
849.2819	0.0023
849.4466	-0.1225
849.6113	-0.0904
849.7759	-0.0164
849.9406	-0.083
850.1052	0.0718
850.2698	-0.0557
850.4344	0.034
850.599	-0.0595
850.7635	0.0936
850.928	0.0477
851.0925	0.0502
851.257	-0.0059
851.4215	0.0056
851.5859	-0.0283
851.7503	0.0498
851.9147	0.0044
852.0791	-0.0307
852.2434	-0.021
852.4078	0.0522
852.5721	0.006
852.7364	-0.0244
852.9007	-0.1238
853.0649	0.0298
853.2291	0.1155
853.3934	-0.0031
853.5575	0.1105
853.7217	-0.0835
853.8859	-0.1217
854.05	-0.0623
854.2141	0.015
854.3782	0.0469
854.5423	-0.026
854.7063	0.0606
854.8703	-0.0429
855.0343	-0.0225
855.1983	-0.186
855.3623	0.1501
855.5262	0.148
855.6901	0.0427
855.854	-0.0027
856.0179	0.1209
856.1818	0.0049
856.3456	-0.064
856.5094	-0.0651
856.6732	-0.1101
856.837	-0.0084
857.0008	0.0222
857.1645	-0.0331
857.3282	0.089
857.4919	0.0389
857.6556	0.037
857.8192	0.026
857.9828	0.1042
858.1465	-0.1048
858.31	0.0196
858.4736	-0.0999
858.6372	-0.1748
858.8007	-0.1347
858.9642	0.0077
859.1277	-0.2035
859.2911	-0.0239
859.4546	0.135
859.618	-0.2787
859.7814	-0.0693
859.9448	0.219
860.1081	-0.0787
860.2715	0.0932
860.4348	0.6524
860.5981	-0.0709
860.7614	0.1041
860.9246	-0.0987
861.0879	-0.183
861.2511	-0.0335
861.4143	0.0405
861.5774	0.2743
861.7406	-0.1246
861.9037	-0.0841
862.0668	0.0323
862.2299	-0.2439
862.393	-0.7406
862.556	0.051
862.7191	-0.278
862.8821	-0.2971
863.0451	0.1867
863.208	0.1456
863.371	-0.0357
863.5339	-0.0258
863.6968	0.0731
863.8597	0.2295
864.0225	0.1876
864.1854	-0.12
864.3482	0.6289
864.511	-0.081
864.6737	0.1173
864.8365	-0.1411
864.9992	-0.0325
865.1619	-0.3155
865.3246	0.3182
865.4873	-0.0392
865.65	0.0606
865.8126	-0.1246
865.9752	-0.0805
866.1378	-0.1619
866.3004	1.0958
866.4629	0.2571
866.6254	-0.2671
866.7879	-0.1197
866.9504	-0
867.1129	-0
867.2753	0.0047
867.4377	0.1329
867.6001	-0.1514
867.7625	-0.016
867.9249	-0.7646
868.0872	-0.1889
868.2495	0.4035
868.4118	0.389
868.5741	-0.5003
868.7363	-0.3169
868.8986	-0.3148
869.0608	-0.3799
869.223	-0
869.3851	-0
869.5473	0.1216
869.7094	-0.0355
869.8715	-0.304
870.0336	-0.7907
870.1957	-0.4477
870.3577	-1.1433
870.5197	0.1038
870.6817	-0.3601
870.8437	-0.128
871.0057	-0
871.1676	0.0295
871.3295	-0
871.4914	-0
871.6533	-0.2611
871.8151	-0.1624
871.977	-0
872.1388	-0
872.3006	-0.595
872.4623	-0
872.6241	0.0606
872.7858	-0.0428
872.9475	-0.2465
873.1092	0.3634
873.2709	-0
873.4325	-0.3202
873.5941	-0.1134
873.7557	-0
873.9173	1.195
874.0789	0.65
874.2404	-0
874.4019	-0.1191
874.5634	0.1444
874.7249	0.0882
874.8863	-0.2674
875.0478	0.4626
875.2092	-0
875.3706	-0
875.5319	0.3153
875.6933	0.1411
875.8546	-0.4293
876.0159	-0
876.1772	-0
876.3385	-0
876.4997	0.2039
876.6609	-0.4625
876.8221	-0
876.9833	-0
877.1445	-0
877.3056	0.0754
877.4667	-0.3619
877.6278	-0
877.7889	-0
877.9499	-0.0918
878.111	-0.6192
878.272	-0
878.433	-0
878.5939	-0
878.7549	-0.186
878.9158	-0.9048
879.0767	1.2986
879.2376	-0
879.3984	-0
879.5593	-0
879.7201	0.1518
879.8809	-0
880.0417	-0
880.2024	-0.1213
880.3632	-0
880.5239	0.2433
880.6846	0.6585
880.8452	-2.4065
881.0059	-1.3692
881.1665	0.115
881.3271	0.0797
881.4877	-0.7292
881.6483	-0.4546
881.8088	-0.0068
881.9693	1.2526
882.1298	1.2526
882.2903	1.2526
