Data from MonoPyChalIsomerACN10uM360nmA_Absorbance_13-57-30-204.txt Node
Date: Fri Jul 05 13:57:30 BST 2024
User: LASERRRRR
Spectrometer: FLMT03099
Trigger mode: 0
Integration Time (sec): 1.000000E-1
Scans to average: 1
Electric dark correction enabled: true
Nonlinearity correction enabled: false
Boxcar width: 0
XAxis mode: Wavelengths
Number of Pixels in Spectrum: 3648
>>>>>Begin Spectral Data<<<<<
179.3399	-0.1214
179.5586	-0.1214
179.7771	-0.1214
179.9957	0.1098
180.2143	-0
180.4329	-0.0278
180.6514	-0
180.8699	-0.083
181.0885	-0.0048
181.307	0.3337
181.5255	-0
181.744	-0.4001
181.9625	-0.4421
182.181	-1.0929
182.3994	2.356
182.6179	-0
182.8363	0.674
183.0547	-0.2662
183.2732	0.0855
183.4916	-0.0073
183.71	0.1073
183.9284	0.0571
184.1467	0.1199
184.3651	-0.1536
184.5835	-0.0163
184.8018	0.0976
185.0201	-0.0128
185.2385	0.0739
185.4568	0.2335
185.6751	0.3597
185.8934	0.1454
186.1117	0.0323
186.3299	-0.0847
186.5482	-0.0688
186.7664	0.0687
186.9847	-0.0164
187.2029	0.1081
187.4211	0.3058
187.6393	-0.0889
187.8575	0.0265
188.0757	0.173
188.2939	0.1171
188.512	-0.0977
188.7302	-0.0735
188.9483	-0.0228
189.1665	0.1713
189.3846	-0.118
189.6027	0.0888
189.8208	0.2493
190.0389	0.1615
190.257	0.1744
190.475	0.1677
190.6931	-0.0022
190.9111	0.4375
191.1292	0.0959
191.3472	0.2534
191.5652	0.1834
191.7832	0.3297
192.0012	0.4679
192.2192	0.3812
192.4371	0.3714
192.6551	0.2979
192.873	0.3915
193.091	0.3197
193.3089	0.5166
193.5268	0.7388
193.7447	0.4971
193.9626	0.3786
194.1805	0.5172
194.3984	0.6899
194.6162	0.3722
194.8341	0.7175
195.0519	0.5055
195.2697	0.8171
195.4875	0.8234
195.7054	0.6895
195.9231	0.4758
196.1409	0.6396
196.3587	0.6779
196.5765	0.6609
196.7942	0.6152
197.012	0.6019
197.2297	0.7059
197.4474	0.8204
197.6651	0.5521
197.8828	0.5052
198.1005	0.6129
198.3182	0.5886
198.5358	0.8867
198.7535	0.7053
198.9711	0.5827
199.1888	0.6153
199.4064	0.7863
199.624	0.6085
199.8416	0.4519
200.0592	0.7258
200.2767	0.5986
200.4943	0.712
200.7119	0.6888
200.9294	0.5955
201.1469	0.572
201.3645	0.6155
201.582	0.6219
201.7995	0.647
202.017	0.6516
202.2344	0.6435
202.4519	0.8938
202.6694	0.7091
202.8868	0.581
203.1042	0.7382
203.3217	0.8644
203.5391	0.6171
203.7565	0.5842
203.9739	0.6104
204.1913	0.6107
204.4086	0.6308
204.626	0.7098
204.8433	0.6573
205.0607	0.5683
205.278	0.6659
205.4953	0.5911
205.7126	0.6282
205.9299	0.6132
206.1472	0.7053
206.3644	0.6029
206.5817	0.7657
206.7989	0.7038
207.0162	0.6231
207.2334	0.6732
207.4506	0.6959
207.6678	0.662
207.885	0.7467
208.1022	0.7074
208.3194	0.6732
208.5365	0.6588
208.7537	0.5882
208.9708	0.5626
209.1879	0.6667
209.405	0.7558
209.6222	0.5976
209.8392	0.5825
210.0563	0.5483
210.2734	0.6003
210.4905	0.6076
210.7075	0.6372
210.9245	0.5653
211.1416	0.6477
211.3586	0.6139
211.5756	0.5781
211.7926	0.5884
212.0096	0.5833
212.2265	0.5403
212.4435	0.625
212.6604	0.5148
212.8774	0.5606
213.0943	0.5277
213.3112	0.5052
213.5281	0.5476
213.745	0.4877
213.9619	0.4935
214.1788	0.4544
214.3956	0.4836
214.6125	0.4788
214.8293	0.426
215.0461	0.4799
215.2629	0.4709
215.4798	0.4817
215.6965	0.3948
215.9133	0.4541
216.1301	0.4166
216.3469	0.4007
216.5636	0.4243
216.7803	0.3616
216.9971	0.4085
217.2138	0.3649
217.4305	0.3892
217.6472	0.3619
217.8639	0.3974
218.0805	0.3442
218.2972	0.3471
218.5138	0.3232
218.7305	0.3294
218.9471	0.3096
219.1637	0.3055
219.3803	0.3069
219.5969	0.2906
219.8135	0.2577
220.0301	0.2854
220.2466	0.2847
220.4632	0.2286
220.6797	0.2438
220.8962	0.2541
221.1127	0.2625
221.3292	0.2231
221.5457	0.2429
221.7622	0.2413
221.9787	0.2686
222.1951	0.2449
222.4116	0.2554
222.628	0.2788
222.8444	0.2676
223.0608	0.2629
223.2772	0.2529
223.4936	0.2522
223.71	0.2579
223.9264	0.2691
224.1427	0.2607
224.3591	0.2464
224.5754	0.2598
224.7917	0.2654
225.008	0.2822
225.2243	0.2662
225.4406	0.2911
225.6569	0.2872
225.8732	0.2583
226.0894	0.2617
226.3057	0.2713
226.5219	0.2926
226.7381	0.2886
226.9543	0.2716
227.1705	0.2963
227.3867	0.2878
227.6029	0.3102
227.8191	0.2926
228.0352	0.2927
228.2513	0.3151
228.4675	0.3159
228.6836	0.3012
228.8997	0.3045
229.1158	0.3133
229.3319	0.309
229.548	0.3089
229.764	0.3291
229.9801	0.3415
230.1961	0.329
230.4121	0.3398
230.6282	0.3308
230.8442	0.3173
231.0602	0.3414
231.2761	0.3431
231.4921	0.3441
231.7081	0.3845
231.924	0.3491
232.14	0.3689
232.3559	0.3574
232.5718	0.3748
232.7877	0.3468
233.0036	0.3425
233.2195	0.3423
233.4353	0.3464
233.6512	0.3818
233.867	0.3525
234.0829	0.3647
234.2987	0.3808
234.5145	0.3646
234.7303	0.3729
234.9461	0.4119
235.1619	0.3835
235.3776	0.3717
235.5934	0.3734
235.8091	0.3643
236.0249	0.3842
236.2406	0.3903
236.4563	0.3997
236.672	0.3901
236.8877	0.3942
237.1034	0.3889
237.319	0.4047
237.5347	0.3904
237.7503	0.396
237.966	0.4105
238.1816	0.3889
238.3972	0.4035
238.6128	0.4029
238.8284	0.4013
239.0439	0.4292
239.2595	0.3987
239.475	0.408
239.6906	0.4117
239.9061	0.4023
240.1216	0.4107
240.3371	0.3967
240.5526	0.4019
240.7681	0.4008
240.9836	0.3889
241.199	0.3965
241.4145	0.3842
241.6299	0.373
241.8453	0.3837
242.0607	0.4129
242.2761	0.3755
242.4915	0.37
242.7069	0.3721
242.9223	0.3343
243.1376	0.3698
243.353	0.3565
243.5683	0.3529
243.7836	0.3353
243.9989	0.3401
244.2142	0.3181
244.4295	0.3328
244.6448	0.3102
244.86	0.3079
245.0753	0.29
245.2905	0.2853
245.5057	0.2834
245.721	0.2688
245.9362	0.2667
246.1514	0.2747
246.3665	0.2642
246.5817	0.257
246.7969	0.2729
247.012	0.2457
247.2271	0.2431
247.4423	0.2494
247.6574	0.2464
247.8725	0.2301
248.0876	0.228
248.3026	0.2335
248.5177	0.2321
248.7328	0.208
248.9478	0.2063
249.1628	0.2122
249.3779	0.2129
249.5929	0.1915
249.8079	0.2253
250.0228	0.1997
250.2378	0.2047
250.4528	0.1961
250.6677	0.1877
250.8827	0.1988
251.0976	0.198
251.3125	0.1767
251.5274	0.1718
251.7423	0.1897
251.9572	0.1949
252.172	0.1738
252.3869	0.1855
252.6017	0.182
252.8166	0.1774
253.0314	0.1622
253.2462	0.17
253.461	0.1751
253.6758	0.1766
253.8906	0.1832
254.1053	0.1681
254.3201	0.1664
254.5348	0.1787
254.7496	0.1745
254.9643	0.1581
255.179	0.1685
255.3937	0.1653
255.6083	0.1829
255.823	0.1742
256.0377	0.167
256.2523	0.1655
256.467	0.1583
256.6816	0.1611
256.8962	0.1578
257.1108	0.1666
257.3254	0.1795
257.54	0.1539
257.7545	0.1749
257.9691	0.1687
258.1836	0.1665
258.3981	0.1772
258.6127	0.1782
258.8272	0.1629
259.0417	0.1619
259.2561	0.163
259.4706	0.1561
259.6851	0.1643
259.8995	0.1508
260.114	0.1673
260.3284	0.1664
260.5428	0.1552
260.7572	0.1678
260.9716	0.164
261.186	0.1648
261.4003	0.1521
261.6147	0.161
261.829	0.1641
262.0433	0.162
262.2577	0.1604
262.472	0.1726
262.6863	0.1569
262.9005	0.1697
263.1148	0.1579
263.3291	0.161
263.5433	0.1671
263.7576	0.1623
263.9718	0.1576
264.186	0.1685
264.4002	0.1514
264.6144	0.1532
264.8286	0.1781
265.0427	0.1697
265.2569	0.1646
265.471	0.1668
265.6851	0.1583
265.8993	0.1584
266.1134	0.1506
266.3275	0.1519
266.5415	0.1588
266.7556	0.1637
266.9697	0.1688
267.1837	0.1738
267.3978	0.161
267.6118	0.1793
267.8258	0.1807
268.0398	0.1553
268.2538	0.1621
268.4677	0.1672
268.6817	0.1599
268.8957	0.1586
269.1096	0.1665
269.3235	0.1721
269.5374	0.1537
269.7514	0.162
269.9652	0.1571
270.1791	0.1527
270.393	0.1443
270.6068	0.1753
270.8207	0.1475
271.0345	0.1444
271.2483	0.1557
271.4622	0.152
271.676	0.1566
271.8897	0.1469
272.1035	0.1375
272.3173	0.1358
272.531	0.1431
272.7448	0.1493
272.9585	0.1314
273.1722	0.148
273.3859	0.153
273.5996	0.1327
273.8133	0.1535
274.0269	0.1576
274.2406	0.1539
274.4542	0.154
274.6679	0.1333
274.8815	0.1437
275.0951	0.1491
275.3087	0.1584
275.5223	0.1531
275.7358	0.1516
275.9494	0.1463
276.1629	0.1325
276.3765	0.1474
276.59	0.1501
276.8035	0.1499
277.017	0.1533
277.2305	0.1501
277.444	0.1621
277.6574	0.1313
277.8709	0.163
278.0843	0.1449
278.2978	0.1458
278.5112	0.1553
278.7246	0.1647
278.938	0.162
279.1513	0.1407
279.3647	0.1465
279.5781	0.1464
279.7914	0.1517
280.0047	0.1595
280.2181	0.1566
280.4314	0.1528
280.6447	0.1639
280.8579	0.1508
281.0712	0.1568
281.2845	0.1541
281.4977	0.1445
281.711	0.1489
281.9242	0.1608
282.1374	0.165
282.3506	0.1523
282.5638	0.1726
282.7769	0.152
282.9901	0.154
283.2033	0.1643
283.4164	0.157
283.6295	0.1569
283.8426	0.1458
284.0557	0.1641
284.2688	0.1561
284.4819	0.1583
284.695	0.1519
284.908	0.1711
285.1211	0.1531
285.3341	0.1548
285.5471	0.1653
285.7601	0.1514
285.9731	0.1474
286.1861	0.1505
286.3991	0.1717
286.612	0.1592
286.825	0.1625
287.0379	0.1734
287.2508	0.1528
287.4637	0.1587
287.6766	0.1538
287.8895	0.1627
288.1024	0.1802
288.3152	0.176
288.5281	0.1537
288.7409	0.1644
288.9538	0.1565
289.1666	0.156
289.3794	0.1704
289.5922	0.1605
289.8049	0.1572
290.0177	0.164
290.2304	0.1624
290.4432	0.1762
290.6559	0.1622
290.8686	0.1753
291.0813	0.1624
291.294	0.1577
291.5067	0.1648
291.7194	0.1623
291.932	0.1723
292.1447	0.1689
292.3573	0.1606
292.5699	0.1598
292.7825	0.1582
292.9951	0.1612
293.2077	0.167
293.4203	0.17
293.6328	0.1541
293.8454	0.1714
294.0579	0.1584
294.2704	0.1626
294.4829	0.1594
294.6954	0.1668
294.9079	0.1571
295.1204	0.1546
295.3328	0.1525
295.5453	0.1588
295.7577	0.1653
295.9701	0.1598
296.1825	0.165
296.3949	0.1508
296.6073	0.1623
296.8197	0.1543
297.0321	0.1622
297.2444	0.1594
297.4567	0.1657
297.6691	0.1597
297.8814	0.1626
298.0937	0.1429
298.306	0.1681
298.5182	0.1543
298.7305	0.1619
298.9428	0.15
299.155	0.1698
299.3672	0.1596
299.5794	0.1534
299.7916	0.1555
300.0038	0.1695
300.216	0.1672
300.4282	0.1684
300.6403	0.1585
300.8525	0.1625
301.0646	0.1621
301.2767	0.1665
301.4888	0.1652
301.7009	0.1476
301.913	0.148
302.125	0.1672
302.3371	0.1565
302.5491	0.152
302.7612	0.1651
302.9732	0.1663
303.1852	0.164
303.3972	0.1574
303.6092	0.1649
303.8211	0.1492
304.0331	0.1525
304.245	0.1574
304.457	0.1483
304.6689	0.1566
304.8808	0.1631
305.0927	0.1452
305.3046	0.1431
305.5164	0.1517
305.7283	0.1568
305.9401	0.144
306.152	0.1396
306.3638	0.1532
306.5756	0.1425
306.7874	0.143
306.9992	0.1534
307.2109	0.1385
307.4227	0.1295
307.6344	0.1406
307.8462	0.1352
308.0579	0.1391
308.2696	0.1364
308.4813	0.1345
308.693	0.1335
308.9046	0.1411
309.1163	0.1292
309.328	0.132
309.5396	0.1258
309.7512	0.1121
309.9628	0.118
310.1744	0.1114
310.386	0.1148
310.5976	0.1228
310.8091	0.1167
311.0207	0.1092
311.2322	0.1207
311.4437	0.1128
311.6552	0.1195
311.8667	0.1122
312.0782	0.1153
312.2897	0.1082
312.5012	0.1123
312.7126	0.107
312.924	0.1063
313.1355	0.1224
313.3469	0.1103
313.5583	0.1022
313.7696	0.1082
313.981	0.1075
314.1924	0.108
314.4037	0.1095
314.6151	0.1229
314.8264	0.0973
315.0377	0.0942
315.249	0.0995
315.4603	0.1108
315.6716	0.0997
315.8828	0.0997
316.0941	0.097
316.3053	0.098
316.5165	0.0969
316.7277	0.0777
316.9389	0.1087
317.1501	0.0969
317.3613	0.1064
317.5724	0.0882
317.7836	0.1032
317.9947	0.0951
318.2058	0.1063
318.417	0.1061
318.6281	0.088
318.8391	0.0942
319.0502	0.0987
319.2613	0.0922
319.4723	0.1142
319.6834	0.1146
319.8944	0.0903
320.1054	0.1008
320.3164	0.0983
320.5274	0.0916
320.7383	0.095
320.9493	0.0945
321.1602	0.1053
321.3712	0.0954
321.5821	0.1001
321.793	0.1023
322.0039	0.0997
322.2148	0.098
322.4257	0.0993
322.6365	0.1055
322.8474	0.1038
323.0582	0.0991
323.269	0.1056
323.4798	0.1118
323.6906	0.1138
323.9014	0.1039
324.1122	0.0969
324.3229	0.0997
324.5337	0.1161
324.7444	0.1005
324.9551	0.1209
325.1658	0.1038
325.3765	0.1058
325.5872	0.0931
325.7979	0.091
326.0085	0.1144
326.2192	0.1031
326.4298	0.1159
326.6404	0.0917
326.851	0.0937
327.0616	0.0913
327.2722	0.1012
327.4828	0.1144
327.6933	0.1097
327.9039	0.1187
328.1144	0.1159
328.3249	0.1181
328.5354	0.1024
328.7459	0.1044
328.9564	0.1019
329.1669	0.1096
329.3773	0.1064
329.5878	0.1105
329.7982	0.1036
330.0086	0.1116
330.219	0.099
330.4294	0.1078
330.6398	0.1088
330.8502	0.1023
331.0605	0.1119
331.2708	0.1093
331.4812	0.1117
331.6915	0.1205
331.9018	0.1079
332.1121	0.1043
332.3224	0.1118
332.5326	0.1023
332.7429	0.1162
332.9531	0.1123
333.1633	0.1103
333.3735	0.1094
333.5837	0.1097
333.7939	0.1196
334.0041	0.1232
334.2143	0.1067
334.4244	0.1037
334.6346	0.1003
334.8447	0.1262
335.0548	0.0995
335.2649	0.1053
335.475	0.1131
335.685	0.1065
335.8951	0.1094
336.1051	0.1243
336.3152	0.1233
336.5252	0.1093
336.7352	0.1161
336.9452	0.1089
337.1552	0.1069
337.3652	0.1093
337.5751	0.1098
337.7851	0.1088
337.995	0.1032
338.2049	0.1136
338.4148	0.1191
338.6247	0.1267
338.8346	0.1009
339.0445	0.0991
339.2543	0.1157
339.4642	0.1104
339.674	0.0989
339.8838	0.1219
340.0936	0.1177
340.3034	0.1265
340.5132	0.1288
340.7229	0.1252
340.9327	0.1149
341.1424	0.1111
341.3522	0.1361
341.5619	0.1276
341.7716	0.1067
341.9813	0.1238
342.1909	0.1302
342.4006	0.1225
342.6102	0.122
342.8199	0.1217
343.0295	0.1116
343.2391	0.1211
343.4487	0.1329
343.6583	0.1231
343.8679	0.1281
344.0774	0.1203
344.287	0.1295
344.4965	0.1243
344.706	0.1285
344.9155	0.1249
345.125	0.1227
345.3345	0.1337
345.544	0.1181
345.7534	0.1406
345.9629	0.1199
346.1723	0.1423
346.3817	0.1202
346.5911	0.1324
346.8005	0.1382
347.0099	0.139
347.2193	0.1269
347.4286	0.1294
347.638	0.1344
347.8473	0.1343
348.0566	0.152
348.2659	0.1422
348.4752	0.1297
348.6845	0.1305
348.8937	0.1256
349.103	0.1543
349.3122	0.1397
349.5214	0.13
349.7306	0.1378
349.9398	0.1382
350.149	0.1429
350.3582	0.1335
350.5674	0.1548
350.7765	0.1369
350.9856	0.1344
351.1948	0.1412
351.4039	0.1218
351.613	0.1302
351.822	0.1374
352.0311	0.1483
352.2402	0.1509
352.4492	0.1504
352.6582	0.1441
352.8672	0.1397
353.0762	0.1494
353.2852	0.152
353.4942	0.1575
353.7032	0.1501
353.9121	0.1535
354.1211	0.1483
354.33	0.1502
354.5389	0.1543
354.7478	0.1409
354.9567	0.1483
355.1655	0.1529
355.3744	0.1638
355.5833	0.1572
355.7921	0.1789
356.0009	0.1591
356.2097	0.1718
356.4185	0.1541
356.6273	0.1594
356.8361	0.1666
357.0448	0.1609
357.2536	0.1628
357.4623	0.1612
357.671	0.1662
357.8797	0.1633
358.0884	0.1625
358.2971	0.1746
358.5057	0.1687
358.7144	0.1628
358.923	0.1633
359.1316	0.1666
359.3402	0.1599
359.5488	0.1679
359.7574	0.1608
359.966	0.1799
360.1746	0.166
360.3831	0.1751
360.5916	0.1735
360.8002	0.1598
361.0087	0.1839
361.2172	0.1835
361.4256	0.1727
361.6341	0.188
361.8426	0.1648
362.051	0.1822
362.2594	0.1681
362.4678	0.1621
362.6762	0.2037
362.8846	0.1861
363.093	0.173
363.3014	0.1753
363.5097	0.1614
363.718	0.1766
363.9264	0.186
364.1347	0.1827
364.343	0.197
364.5513	0.1885
364.7595	0.1963
364.9678	0.1892
365.176	0.2059
365.3842	0.1912
365.5925	0.1972
365.8007	0.1896
366.0089	0.2099
366.217	0.1877
366.4252	0.1963
366.6333	0.2028
366.8415	0.1943
367.0496	0.2084
367.2577	0.2128
367.4658	0.2187
367.6739	0.2072
367.882	0.208
368.09	0.206
368.2981	0.2065
368.5061	0.1953
368.7141	0.2044
368.9221	0.2127
369.1301	0.2059
369.3381	0.1948
369.5461	0.214
369.754	0.2061
369.962	0.2088
370.1699	0.2111
370.3778	0.2251
370.5857	0.2038
370.7936	0.1992
371.0015	0.2225
371.2093	0.2201
371.4172	0.2164
371.625	0.2101
371.8328	0.2148
372.0406	0.2166
372.2484	0.2153
372.4562	0.2146
372.664	0.2209
372.8717	0.2191
373.0795	0.2078
373.2872	0.2154
373.4949	0.2123
373.7026	0.2223
373.9103	0.2178
374.118	0.2191
374.3256	0.2305
374.5333	0.2213
374.7409	0.22
374.9485	0.2327
375.1561	0.2172
375.3637	0.2264
375.5713	0.2229
375.7789	0.2347
375.9864	0.2216
376.194	0.2208
376.4015	0.2281
376.609	0.2354
376.8165	0.2364
377.024	0.2167
377.2315	0.2219
377.4389	0.2419
377.6464	0.2549
377.8538	0.237
378.0612	0.2385
378.2686	0.219
378.476	0.2423
378.6834	0.2396
378.8908	0.2502
379.0981	0.2337
379.3055	0.238
379.5128	0.2189
379.7201	0.2291
379.9274	0.2294
380.1347	0.2409
380.342	0.2444
380.5492	0.2286
380.7565	0.249
380.9637	0.24
381.1709	0.2367
381.3781	0.2538
381.5853	0.24
381.7925	0.2456
381.9997	0.2623
382.2068	0.26
382.4139	0.2397
382.6211	0.2351
382.8282	0.2453
383.0353	0.2369
383.2424	0.2412
383.4494	0.2423
383.6565	0.2465
383.8635	0.237
384.0706	0.2654
384.2776	0.2504
384.4846	0.2204
384.6916	0.2492
384.8986	0.2529
385.1055	0.238
385.3125	0.2601
385.5194	0.2295
385.7263	0.2551
385.9333	0.2578
386.1402	0.2293
386.347	0.2392
386.5539	0.253
386.7608	0.2787
386.9676	0.2269
387.1744	0.2435
387.3813	0.2431
387.5881	0.2372
387.7948	0.2332
388.0016	0.2371
388.2084	0.2368
388.4151	0.2334
388.6219	0.2469
388.8286	0.2369
389.0353	0.2454
389.242	0.2419
389.4487	0.2304
389.6553	0.2297
389.862	0.2233
390.0686	0.228
390.2753	0.2483
390.4819	0.2399
390.6885	0.2399
390.8951	0.2452
391.1016	0.2352
391.3082	0.2348
391.5147	0.2276
391.7213	0.2396
391.9278	0.2215
392.1343	0.2287
392.3408	0.2214
392.5473	0.229
392.7537	0.211
392.9602	0.2142
393.1666	0.2336
393.373	0.2087
393.5794	0.2343
393.7858	0.2051
393.9922	0.2113
394.1986	0.2248
394.4049	0.2212
394.6113	0.2137
394.8176	0.1908
395.0239	0.2182
395.2302	0.206
395.4365	0.2027
395.6428	0.2085
395.8491	0.213
396.0553	0.2055
396.2615	0.1889
396.4678	0.215
396.674	0.1895
396.8802	0.2082
397.0863	0.2135
397.2925	0.2087
397.4987	0.1984
397.7048	0.2053
397.9109	0.2033
398.117	0.2031
398.3231	0.1998
398.5292	0.2139
398.7353	0.2097
398.9413	0.2072
399.1474	0.205
399.3534	0.2092
399.5594	0.1943
399.7654	0.2198
399.9714	0.2277
400.1774	0.206
400.3833	0.2004
400.5893	0.2086
400.7952	0.1989
401.0011	0.2137
401.207	0.2091
401.4129	0.2195
401.6188	0.2132
401.8247	0.2029
402.0305	0.1947
402.2364	0.1852
402.4422	0.2014
402.648	0.2125
402.8538	0.221
403.0596	0.2117
403.2654	0.2045
403.4711	0.2046
403.6768	0.2163
403.8826	0.2078
404.0883	0.2104
404.294	0.2126
404.4997	0.2034
404.7054	0.2066
404.911	0.2045
405.1167	0.2074
405.3223	0.215
405.5279	0.216
405.7335	0.2064
405.9391	0.2045
406.1447	0.1878
406.3502	0.1994
406.5558	0.2002
406.7613	0.2084
406.9668	0.2003
407.1724	0.2021
407.3778	0.1877
407.5833	0.2074
407.7888	0.1928
407.9942	0.2179
408.1997	0.1919
408.4051	0.1914
408.6105	0.1988
408.8159	0.1934
409.0213	0.199
409.2267	0.2326
409.432	0.1957
409.6374	0.2081
409.8427	0.2003
410.048	0.206
410.2533	0.1905
410.4586	0.2108
410.6639	0.1798
410.8691	0.1928
411.0744	0.2114
411.2796	0.2037
411.4848	0.2024
411.69	0.1864
411.8952	0.1973
412.1004	0.1601
412.3056	0.2176
412.5107	0.184
412.7158	0.2024
412.921	0.2037
413.1261	0.188
413.3312	0.194
413.5362	0.1964
413.7413	0.1927
413.9464	0.2026
414.1514	0.1924
414.3564	0.1867
414.5614	0.1889
414.7664	0.1894
414.9714	0.1774
415.1764	0.2021
415.3813	0.1985
415.5863	0.1923
415.7912	0.21
415.9961	0.1978
416.201	0.202
416.4059	0.2011
416.6108	0.1822
416.8156	0.1992
417.0205	0.1922
417.2253	0.186
417.4301	0.1955
417.6349	0.1895
417.8397	0.1863
418.0445	0.1985
418.2492	0.1855
418.454	0.1881
418.6587	0.2063
418.8634	0.1914
419.0681	0.1834
419.2728	0.18
419.4775	0.2074
419.6822	0.1702
419.8868	0.1574
420.0915	0.185
420.2961	0.1659
420.5007	0.186
420.7053	0.1794
420.9099	0.1939
421.1144	0.189
421.319	0.1884
421.5235	0.1786
421.728	0.1929
421.9325	0.1864
422.137	0.1875
422.3415	0.1811
422.546	0.1864
422.7504	0.1711
422.9549	0.1831
423.1593	0.1804
423.3637	0.1986
423.5681	0.1772
423.7725	0.1671
423.9769	0.1721
424.1812	0.1641
424.3856	0.1676
424.5899	0.1586
424.7942	0.1556
424.9985	0.1847
425.2028	0.1645
425.4071	0.1646
425.6113	0.1427
425.8156	0.1784
426.0198	0.1606
426.224	0.1382
426.4282	0.1434
426.6324	0.1651
426.8366	0.1583
427.0407	0.1449
427.2449	0.158
427.449	0.1542
427.6531	0.1464
427.8572	0.1556
428.0613	0.1462
428.2654	0.1542
428.4694	0.1437
428.6735	0.1432
428.8775	0.169
429.0815	0.1541
429.2855	0.1438
429.4895	0.1429
429.6935	0.1485
429.8975	0.144
430.1014	0.1404
430.3053	0.1198
430.5093	0.1481
430.7132	0.1327
430.9171	0.1427
431.1209	0.1425
431.3248	0.1321
431.5286	0.1199
431.7325	0.1324
431.9363	0.1147
432.1401	0.1377
432.3439	0.1296
432.5477	0.1199
432.7514	0.1032
432.9552	0.1121
433.1589	0.1021
433.3627	0.1265
433.5664	0.1194
433.7701	0.1259
433.9737	0.1096
434.1774	0.1
434.3811	0.1152
434.5847	0.1167
434.7883	0.1012
434.9919	0.1123
435.1955	0.1032
435.3991	0.1038
435.6027	0.1052
435.8062	0.1019
436.0098	0.092
436.2133	0.0958
436.4168	0.0894
436.6203	0.0835
436.8238	0.1026
437.0272	0.0952
437.2307	0.0796
437.4341	0.0996
437.6375	0.1029
437.841	0.0888
438.0443	0.1017
438.2477	0.0761
438.4511	0.0645
438.6545	0.0855
438.8578	0.0873
439.0611	0.0887
439.2644	0.0872
439.4677	0.065
439.671	0.0751
439.8743	0.0938
440.0775	0.0804
440.2808	0.0758
440.484	0.0732
440.6872	0.0531
440.8904	0.0698
441.0936	0.0837
441.2967	0.0661
441.4999	0.0751
441.703	0.0634
441.9062	0.0623
442.1093	0.0677
442.3124	0.0633
442.5155	0.0525
442.7185	0.0629
442.9216	0.0389
443.1246	0.0756
443.3276	0.0486
443.5307	0.052
443.7337	0.0619
443.9366	0.0509
444.1396	0.0557
444.3426	0.0511
444.5455	0.0544
444.7484	0.0513
444.9513	0.0471
445.1542	0.0485
445.3571	0.0454
445.56	0.0614
445.7628	0.0351
445.9657	0.0179
446.1685	0.0553
446.3713	0.0388
446.5741	0.0376
446.7769	0.0268
446.9797	0.0282
447.1824	0.0411
447.3852	0.0296
447.5879	0.0404
447.7906	0.0501
447.9933	0.0294
448.196	0.0171
448.3986	0.0349
448.6013	0.023
448.8039	0.0258
449.0066	0.0307
449.2092	0.0435
449.4118	0.0332
449.6143	0.0401
449.8169	0.0366
450.0195	0.0217
450.222	0.0097
450.4245	0.0178
450.627	0.0233
450.8295	0.0273
451.032	0.018
451.2345	0.0095
451.4369	0.0373
451.6394	0.0371
451.8418	0.0154
452.0442	0.0148
452.2466	0.0272
452.449	0.0066
452.6513	0.0211
452.8537	0.0194
453.056	-0.0011
453.2583	0.0235
453.4607	0.0261
453.663	0.0162
453.8652	0.0312
454.0675	0.0032
454.2697	0.0308
454.472	0.0102
454.6742	0.0163
454.8764	0.0215
455.0786	0.0202
455.2808	0.0125
455.4829	0.0207
455.6851	0.0213
455.8872	0.0208
456.0893	0.0261
456.2915	0.0016
456.4935	0.0161
456.6956	0.0151
456.8977	0.0175
457.0997	-0.004
457.3018	0.0018
457.5038	0.0098
457.7058	0.0042
457.9078	-0.0056
458.1098	0.0251
458.3117	0.0081
458.5137	0.0125
458.7156	0.003
458.9175	-0.0004
459.1194	0.0056
459.3213	0.0059
459.5232	0.0088
459.725	-0.0064
459.9269	-0.0045
460.1287	-0.0039
460.3305	0.0102
460.5323	0.0063
460.7341	0.0092
460.9359	0.0067
461.1376	-0.0001
461.3394	0.0007
461.5411	0.0122
461.7428	0.0059
461.9445	0.0151
462.1462	0.0171
462.3479	0.0063
462.5495	-0.0053
462.7512	0.0113
462.9528	0.0029
463.1544	-0.0051
463.356	0.0171
463.5576	0.0074
463.7592	0.0011
463.9607	0.0107
464.1623	0.0013
464.3638	0.0174
464.5653	-0.0111
464.7668	0.0011
464.9683	0.008
465.1697	0.0124
465.3712	-0.0148
465.5726	-0.0066
465.7741	0.0081
465.9755	-0.0082
466.1769	0.0044
466.3782	-0.0073
466.5796	-0.003
466.7809	0.0077
466.9823	-0.0063
467.1836	0.0081
467.3849	-0.0032
467.5862	0.0029
467.7875	-0.0025
467.9887	0.0095
468.19	0.006
468.3912	-0.0043
468.5924	-0.0024
468.7936	-0.0043
468.9948	0.0061
469.196	0.0096
469.3972	-0.012
469.5983	0.0123
469.7994	-0.0269
470.0006	-0.0098
470.2017	-0.011
470.4027	-0.0103
470.6038	0.0102
470.8049	-0.0089
471.0059	-0.0105
471.2069	-0.0148
471.408	-0.0032
471.6089	0.002
471.8099	-0.0114
472.0109	0.0086
472.2119	-0.0047
472.4128	-0.0251
472.6137	0.0203
472.8146	-0.019
473.0155	-0.0137
473.2164	-0.0096
473.4173	0.0011
473.6181	0.0074
473.819	0.0111
474.0198	-0.0068
474.2206	-0.0095
474.4214	-0.0092
474.6222	0.003
474.8229	0.0006
475.0237	-0.0046
475.2244	-0.0196
475.4251	-0.001
475.6258	-0.0107
475.8265	-0.0109
476.0272	0.0195
476.2278	0.0059
476.4285	-0.0071
476.6291	-0.009
476.8297	-0.0092
477.0303	-0.0138
477.2309	-0.0106
477.4315	-0.0089
477.632	-0.0048
477.8326	-0.0034
478.0331	-0.0045
478.2336	0.013
478.4341	-0.0053
478.6346	-0.01
478.8351	0.0019
479.0355	0.0029
479.236	-0.007
479.4364	0.0028
479.6368	-0.0085
479.8372	-0.0167
480.0376	-0.0039
480.2379	-0.007
480.4383	-0.0104
480.6386	0.0085
480.8389	-0.0008
481.0392	-0.0158
481.2395	-0.0115
481.4398	0.012
481.6401	0.0041
481.8403	-0.0062
482.0405	-0.0104
482.2408	-0.0005
482.441	0.0098
482.6411	-0.0148
482.8413	-0.0057
483.0415	-0.0123
483.2416	-0.0067
483.4417	0.0002
483.6419	-0.0043
483.8419	-0.0056
484.042	0.0022
484.2421	-0.0059
484.4422	0.0069
484.6422	-0.0006
484.8422	0.0004
485.0422	-0.0112
485.2422	0.0003
485.4422	-0.0178
485.6422	-0.0127
485.8421	-0.0063
486.042	-0.0019
486.242	-0.0037
486.4419	-0.0164
486.6417	-0.0065
486.8416	-0.0046
487.0415	0.0014
487.2413	-0.0108
487.4411	-0.0079
487.641	-0.0107
487.8408	0.0011
488.0405	-0.006
488.2403	-0.0105
488.4401	0.002
488.6398	-0.0036
488.8395	-0.0015
489.0392	0.0039
489.2389	-0.0047
489.4386	-0.0097
489.6383	-0.0079
489.8379	-0.0006
490.0376	-0.0086
490.2372	-0.0073
490.4368	-0.0147
490.6364	-0.0049
490.836	-0.0016
491.0355	-0.0035
491.2351	-0.0109
491.4346	-0.008
491.6341	-0.0125
491.8336	0.0071
492.0331	-0.0184
492.2326	-0.007
492.432	-0.0044
492.6315	-0.0092
492.8309	-0.0173
493.0303	-0.0152
493.2297	-0.013
493.4291	0.0013
493.6284	-0.007
493.8278	-0.0116
494.0271	0.0049
494.2264	-0.0047
494.4257	-0.0086
494.625	0.0037
494.8243	-0.0167
495.0236	-0.0064
495.2228	-0.0112
495.422	-0.008
495.6213	-0.0019
495.8205	0.0045
496.0196	-0.0021
496.2188	-0.0047
496.418	-0.0155
496.6171	-0.0082
496.8162	-0.0139
497.0153	0.0056
497.2144	-0.0056
497.4135	-0.0053
497.6126	-0.0153
497.8116	-0.0134
498.0107	-0.0099
498.2097	-0.0149
498.4087	-0.0081
498.6077	-0.0075
498.8067	-0.0079
499.0056	-0.0078
499.2046	-0.0113
499.4035	-0.0091
499.6024	-0.0084
499.8013	-0.0063
500.0002	-0.0216
500.199	-0.0034
500.3979	-0.0159
500.5967	-0.0176
500.7956	-0.0067
500.9944	-0.0103
501.1932	-0.0159
501.3919	-0.013
501.5907	-0.007
501.7895	-0.0123
501.9882	-0.0076
502.1869	-0.0109
502.3856	-0.0117
502.5843	-0.0142
502.783	-0.0138
502.9816	-0.0036
503.1803	-0.0086
503.3789	-0.0139
503.5775	0.0039
503.7761	-0.0063
503.9747	-0.0102
504.1732	-0.0097
504.3718	-0.0036
504.5703	0.0007
504.7689	-0.0128
504.9674	-0.0038
505.1658	-0.0177
505.3643	-0.01
505.5628	-0.0075
505.7612	-0.0061
505.9597	0.0029
506.1581	-0.0016
506.3565	0.0052
506.5549	-0.0057
506.7532	-0.0123
506.9516	-0.0029
507.1499	-0.0106
507.3482	-0.0154
507.5465	-0.0096
507.7448	-0.0101
507.9431	-0.0062
508.1414	-0.0088
508.3396	-0.0044
508.5379	-0.0033
508.7361	-0.0087
508.9343	-0.0005
509.1325	-0.0032
509.3306	-0.0089
509.5288	-0.0013
509.7269	-0.0114
509.9251	-0.0026
510.1232	-0.0099
510.3213	-0.0038
510.5193	0.0014
510.7174	-0.0109
510.9154	-0.0111
511.1135	0.0009
511.3115	-0.0153
511.5095	-0.0081
511.7075	0.0083
511.9055	-0.0081
512.1034	-0.0039
512.3014	-0.0035
512.4993	0.0069
512.6972	-0.0081
512.8951	-0.019
513.093	0.0019
513.2908	-0.0036
513.4887	-0.0008
513.6865	-0.0052
513.8844	-0.0012
514.0822	0
514.2799	-0.0065
514.4777	-0.0089
514.6755	-0.003
514.8732	-0.0131
515.0709	0.0054
515.2687	0.0028
515.4664	-0.0033
515.664	-0.0042
515.8617	0.0038
516.0594	-0.0136
516.257	-0.0017
516.4546	-0.0153
516.6522	-0.004
516.8498	-0.0065
517.0474	-0.0076
517.2449	0.0034
517.4425	-0.0136
517.64	-0.0056
517.8375	-0.0018
518.035	-0.012
518.2325	-0.0172
518.43	-0.009
518.6274	-0.0084
518.8249	-0.0087
519.0223	-0.0052
519.2197	-0.0065
519.4171	-0.0038
519.6145	-0.0061
519.8118	0.0012
520.0092	0.0006
520.2065	-0.0133
520.4038	-0.0171
520.6011	-0.0009
520.7984	-0.0083
520.9956	-0.0008
521.1929	-0.0147
521.3901	-0.0001
521.5874	-0.0028
521.7846	-0.0011
521.9818	-0.0031
522.1789	-0.0147
522.3761	-0.0004
522.5732	-0.0125
522.7704	-0.0064
522.9675	-0.0067
523.1646	-0.0111
523.3617	-0.0051
523.5587	-0.0012
523.7558	0.0025
523.9528	-0.0045
524.1498	0.0091
524.3468	-0.0105
524.5438	-0.0082
524.7408	-0.0055
524.9378	-0.0035
525.1347	0.0009
525.3316	0.0128
525.5285	-0.0094
525.7254	-0.0136
525.9223	-0.0029
526.1192	0.0011
526.316	-0.0161
526.5129	0.0028
526.7097	-0.0055
526.9065	-0.0027
527.1033	-0.0153
527.3	-0.0062
527.4968	-0.0027
527.6935	-0.001
527.8903	-0.0176
528.087	-0.0003
528.2837	-0.013
528.4804	-0.001
528.677	-0.0032
528.8737	0.0134
529.0703	0.0068
529.2669	0.0013
529.4635	-0.0065
529.6601	-0.0051
529.8567	-0.0009
530.0532	-0.0138
530.2498	-0.0016
530.4463	-0.0009
530.6428	-0.0104
530.8393	0.0043
531.0358	-0.0051
531.2322	-0.0029
531.4287	-0.016
531.6251	0
531.8215	0.0039
532.0179	0.0042
532.2143	0.0066
532.4107	-0.0085
532.607	-0.0042
532.8034	0.0007
532.9997	-0.0039
533.196	-0.0061
533.3923	-0.0061
533.5886	-0.011
533.7848	-0.0022
533.9811	0.0002
534.1773	-0.0032
534.3735	0.0139
534.5697	-0.0082
534.7659	-0.0114
534.9621	0.0021
535.1582	-0.0134
535.3544	-0.0108
535.5505	-0.0154
535.7466	-0.0065
535.9427	-0.0131
536.1387	-0.0097
536.3348	-0.0034
536.5308	0.0063
536.7269	-0.0154
536.9229	0.0043
537.1189	-0.0067
537.3148	-0.0093
537.5108	-0.0114
537.7068	0.0004
537.9027	-0.0007
538.0986	-0.004
538.2945	-0.0103
538.4904	-0.0073
538.6863	-0.0126
538.8821	-0.004
539.078	-0.0048
539.2738	0
539.4696	-0.0045
539.6654	0.0038
539.8611	0.0108
540.0569	-0.0004
540.2526	-0.0001
540.4484	-0.0001
540.6441	0.0086
540.8398	0.0003
541.0355	0.0034
541.2311	0.0018
541.4268	-0.001
541.6224	0.001
541.818	-0.0004
542.0136	-0.0027
542.2092	0.0088
542.4048	0.0023
542.6003	0.0006
542.7959	0.0074
542.9914	-0.0008
543.1869	-0.0065
543.3824	-0.0063
543.5779	-0.007
543.7734	-0.0064
543.9688	-0.0066
544.1642	-0.0026
544.3596	0.0024
544.555	-0.0042
544.7504	0.0008
544.9458	-0.0063
545.1411	-0.0004
545.3365	-0.0034
545.5318	-0.0146
545.7271	-0.0029
545.9224	0.0035
546.1177	-0.0006
546.3129	0.0081
546.5081	0.0037
546.7034	-0.0026
546.8986	0.0047
547.0938	-0.0052
547.289	-0.0041
547.4841	-0.0018
547.6793	0.0074
547.8744	-0.0131
548.0695	-0.0084
548.2646	-0.004
548.4597	0.0039
548.6548	-0.0038
548.8498	-0.0035
549.0448	0.0181
549.2399	-0.0115
549.4349	0.0098
549.6298	-0.0024
549.8248	-0.0015
550.0198	0.0064
550.2147	-0.0011
550.4096	-0.0024
550.6045	0.0007
550.7994	0.0048
550.9943	-0.0099
551.1892	-0.006
551.384	-0.0003
551.5788	-0.0144
551.7737	-0.0001
551.9685	0.0019
552.1632	0.0047
552.358	-0.0017
552.5528	0.0052
552.7475	-0.0001
552.9422	-0.0019
553.1369	0.0006
553.3316	0.0068
553.5263	-0.0036
553.7209	0.0045
553.9156	-0.0035
554.1102	-0.0034
554.3048	-0.0005
554.4994	0.0082
554.694	-0.0037
554.8885	0.0053
555.0831	-0.0143
555.2776	-0.0067
555.4721	0.0026
555.6666	-0.0045
555.8611	0.0038
556.0555	0.0012
556.25	-0.0005
556.4444	-0.0124
556.6388	0.006
556.8332	0.0008
557.0276	0.0062
557.222	-0.0057
557.4163	0.0018
557.6107	-0.0038
557.805	0.0029
557.9993	0.0024
558.1936	0.0044
558.3879	-0.0006
558.5821	0.0067
558.7764	-0.0035
558.9706	0.0005
559.1648	0.0069
559.359	-0.0057
559.5532	-0.0011
559.7473	-0.0028
559.9415	-0.0051
560.1356	-0.0084
560.3297	-0.0064
560.5238	-0.0053
560.7179	0.0015
560.9119	0.0053
561.106	-0.0081
561.3	0.0004
561.494	-0.0002
561.688	-0.0028
561.882	-0.0106
562.076	-0.0052
562.2699	0.01
562.4639	0.0019
562.6578	0.0023
562.8517	-0.0025
563.0456	-0.0002
563.2395	-0.0014
563.4333	0.0038
563.6272	0.0043
563.821	-0.0082
564.0148	0.0029
564.2086	-0.0023
564.4024	-0.0019
564.5961	-0.0002
564.7899	0.0054
564.9836	0.0032
565.1773	0.0069
565.371	0.0099
565.5647	0.0011
565.7584	0.0047
565.952	0.0004
566.1456	0.0026
566.3393	-0.0025
566.5329	0.0025
566.7264	0.0004
566.92	-0.0049
567.1136	0.0025
567.3071	-0.0024
567.5006	0.0062
567.6941	0.0052
567.8876	0.0005
568.0811	0.0028
568.2745	0.0074
568.468	0.0084
568.6614	0.0046
568.8548	0.0077
569.0482	-0.0011
569.2416	0.0029
569.4349	-0.0013
569.6283	0.0061
569.8216	-0.0035
570.0149	-0.0059
570.2082	0.0063
570.4015	0.0045
570.5947	0.0092
570.788	0.0045
570.9812	-0.0003
571.1744	-0.0035
571.3676	-0.0078
571.5608	-0.0038
571.754	0.0002
571.9471	0.0007
572.1402	0.0057
572.3333	-0.0024
572.5264	0.0017
572.7195	0.0048
572.9126	-0.0021
573.1057	0.0044
573.2987	0.0034
573.4917	0.0013
573.6847	-0.0079
573.8777	0.0043
574.0707	0.0105
574.2636	-0.0013
574.4566	0.0041
574.6495	0.0048
574.8424	0.0017
575.0353	-0.005
575.2281	0.0069
575.421	-0.0004
575.6138	0.0038
575.8067	-0.0042
575.9995	0.0038
576.1923	0.0021
576.385	0.0051
576.5778	0.0069
576.7706	-0.0034
576.9633	0.0061
577.156	0.0006
577.3487	0.0115
577.5414	0.0038
577.734	0.0002
577.9267	0.0027
578.1193	-0.0019
578.3119	-0.0017
578.5045	0.0014
578.6971	0.0073
578.8897	0.0064
579.0822	0.0029
579.2747	0.0022
579.4673	-0.0067
579.6598	-0.0089
579.8522	0.0038
580.0447	-0.0027
580.2372	-0.0067
580.4296	0.0116
580.622	0.0006
580.8144	0.0048
581.0068	0.0004
581.1992	-0.0085
581.3915	-0.001
581.5839	-0.0041
581.7762	-0.0064
581.9685	-0
582.1608	-0.0006
582.353	0.0025
582.5453	-0.0007
582.7375	0.0028
582.9298	0.0005
583.122	0.0037
583.3142	0.0019
583.5063	0.0025
583.6985	0.0032
583.8906	0.0035
584.0827	-0.0016
584.2749	0.0022
584.4669	0.0035
584.659	0.0029
584.8511	0.0007
585.0431	0.0039
585.2352	0.0026
585.4272	-0.0015
585.6192	0.009
585.8111	0.0003
586.0031	0.0007
586.195	-0.0029
586.387	0.0057
586.5789	0.0061
586.7708	0.0042
586.9627	0.0032
587.1545	0.002
587.3464	0.0041
587.5382	0.0061
587.73	-0.0016
587.9218	0.0078
588.1136	0.0022
588.3053	0.0043
588.4971	-0.0007
588.6888	-0.002
588.8805	-0.002
589.0722	0.0091
589.2639	0.0025
589.4556	0.0047
589.6472	0.0049
589.8389	-0.0014
590.0305	-0.007
590.2221	0.0079
590.4137	-0.0032
590.6052	-0.0012
590.7968	0.0052
590.9883	0.0076
591.1798	-0.0003
591.3713	-0.0004
591.5628	-0.0039
591.7543	0.0069
591.9458	0.0027
592.1372	0.0111
592.3286	0.0121
592.52	0.0054
592.7114	-0.0016
592.9028	0.0007
593.0941	0.0016
593.2855	0.0015
593.4768	0.0028
593.6681	-0.0023
593.8594	0.0011
594.0506	0.001
594.2419	0.0132
594.4331	0.0022
594.6244	0.007
594.8156	-0.002
595.0067	0.0086
595.1979	0.0004
595.3891	0.0033
595.5802	0.0013
595.7713	-0.0073
595.9624	0.0003
596.1535	0.0094
596.3446	0.0074
596.5357	-0.0009
596.7267	0.0126
596.9177	-0.0011
597.1087	-0.0053
597.2997	-0.0006
597.4907	0.0058
597.6817	-0.0013
597.8726	0.0009
598.0635	-0.0013
598.2544	0.0069
598.4453	0.0054
598.6362	0.0009
598.827	-0.0011
599.0179	0.009
599.2087	-0.0002
599.3995	0.0014
599.5903	0.004
599.7811	0.0032
599.9718	0.0018
600.1626	-0.0019
600.3533	-0.0066
600.544	0.0032
600.7347	-0.0029
600.9254	0.0065
601.116	-0.0009
601.3067	-0.0015
601.4973	-0.0014
601.6879	0.0084
601.8785	0.0017
602.0691	0.0066
602.2596	0.0049
602.4502	0.0025
602.6407	0.0075
602.8312	0.0069
603.0217	-0.0016
603.2122	0.011
603.4027	-0.0042
603.5931	-0.0038
603.7835	-0.0065
603.9739	0.0019
604.1643	0.001
604.3547	0.0009
604.5451	0.0089
604.7354	0.0002
604.9257	0.0049
605.116	0.0043
605.3063	0.0067
605.4966	0.007
605.6869	0.0095
605.8771	0.0102
606.0673	0.007
606.2575	0.0051
606.4477	0.0093
606.6379	0.005
606.8281	0.0004
607.0182	-0.0011
607.2083	0.0071
607.3985	0.0042
607.5885	-0.0043
607.7786	-0.0033
607.9687	-0.007
608.1587	0.0041
608.3488	-0.0008
608.5388	-0.0039
608.7288	-0.0008
608.9187	-0.0027
609.1087	-0.0055
609.2986	-0.0027
609.4886	0.0034
609.6785	0.0042
609.8684	0.0056
610.0582	0.0117
610.2481	-0.002
610.4379	0.0098
610.6278	0.0005
610.8176	-0.0055
611.0074	-0.0031
611.1971	0.0009
611.3869	0.0041
611.5766	-0.007
611.7664	0.014
611.9561	0.0144
612.1458	0.0004
612.3354	-0.0028
612.5251	-0.0014
612.7147	-0.0017
612.9044	0.0108
613.094	-0.0055
613.2836	0.0061
613.4731	0.0039
613.6627	0.003
613.8522	0.0023
614.0417	0.013
614.2313	0.0035
614.4207	0.0005
614.6102	0.0017
614.7997	-0.002
614.9891	-0.0019
615.1785	0.0002
615.3679	0.0014
615.5573	0.01
615.7467	-0.0071
615.9361	0.002
616.1254	-0.0027
616.3147	0.0069
616.504	-0.0005
616.6933	0.0035
616.8826	0.0072
617.0718	0.0044
617.2611	0.0053
617.4503	-0.0009
617.6395	-0.0012
617.8287	-0.0015
618.0179	0.0011
618.207	0.0098
618.3961	0.0029
618.5853	-0.0026
618.7744	0.0123
618.9634	0.0097
619.1525	0.0061
619.3416	0.0071
619.5306	0.0095
619.7196	0.0082
619.9086	0.0016
620.0976	0.0115
620.2866	0.0041
620.4755	0.0121
620.6645	0.01
620.8534	0.0153
621.0423	0.0045
621.2312	0.0114
621.42	0.0102
621.6089	0.0057
621.7977	0.0121
621.9865	-0.0082
622.1753	0.0011
622.3641	0.0015
622.5529	0.0085
622.7416	0.0073
622.9303	0.0065
623.1191	0.009
623.3078	-0.0028
623.4964	0.004
623.6851	-0.0006
623.8737	-0.0058
624.0624	0.0007
624.251	0.0025
624.4396	0.0048
624.6282	-0.0016
624.8167	0.0047
625.0053	0.0106
625.1938	0.0066
625.3823	0.0078
625.5708	0.007
625.7593	-0.0032
625.9477	-0.004
626.1362	0.0031
626.3246	0.0061
626.513	0.0124
626.7014	0.0111
626.8898	0.0073
627.0781	0.0016
627.2665	0.0065
627.4548	0.0022
627.6431	0.0048
627.8314	0
628.0197	0.0055
628.2079	-0.0046
628.3962	-0.0032
628.5844	0.0053
628.7726	0.0047
628.9608	0.0087
629.1489	-0.0004
629.3371	0.0032
629.5252	-0.0001
629.7134	0.0041
629.9015	0.0003
630.0895	0.0004
630.2776	0.0025
630.4657	0.0037
630.6537	0.0027
630.8417	0.002
631.0297	0.0015
631.2177	-0.0011
631.4057	-0.006
631.5936	0.0017
631.7815	0.0058
631.9695	0.0093
632.1574	0.009
632.3452	0.0123
632.5331	-0.0015
632.7209	0.0076
632.9088	0.0031
633.0966	0.0082
633.2844	-0.0038
633.4722	-0.0066
633.6599	0.0078
633.8477	0.0041
634.0354	-0.0003
634.2231	0.0052
634.4108	0.0049
634.5985	0.0091
634.7861	0.001
634.9738	0.0039
635.1614	0.0014
635.349	0.0047
635.5366	0.0026
635.7242	0.0103
635.9117	0.0113
636.0993	0.0023
636.2868	0.0101
636.4743	-0.0074
636.6618	0.0131
636.8492	0.0103
637.0367	0.0054
637.2241	0.0019
637.4115	-0.0019
637.5989	-0.0011
637.7863	-0.002
637.9737	0
638.161	0.0004
638.3484	0.0021
638.5357	0.0089
638.723	0.006
638.9103	0.0127
639.0975	0.0088
639.2848	0.0098
639.472	-0.0033
639.6592	0.004
639.8464	0.0134
640.0336	0.0092
640.2208	0.003
640.4079	-0.0007
640.595	0.0005
640.7821	-0.0016
640.9692	0.0055
641.1563	0.0029
641.3434	-0.0022
641.5304	0.0029
641.7174	-0
641.9044	0.0072
642.0914	0.0056
642.2784	0.005
642.4653	0.0062
642.6523	-0.0031
642.8392	0.002
643.0261	0.0039
643.213	0.0039
643.3999	0.0003
643.5867	-0.0025
643.7735	0.0085
643.9604	-0.0066
644.1472	0.004
644.3339	-0.0058
644.5207	0.0047
644.7075	0.0004
644.8942	0.0003
645.0809	0.0033
645.2676	0.0105
645.4543	0.0101
645.6409	0.0074
645.8276	0.0062
646.0142	0.004
646.2008	-0.0016
646.3874	-0.0033
646.574	0.0049
646.7605	0.0021
646.9471	-0.0083
647.1336	-0.0047
647.3201	0.0017
647.5066	0.0003
647.6931	0.0037
647.8795	0.004
648.0659	0.0079
648.2524	0.0119
648.4388	-0.0011
648.6252	0.0003
648.8115	0.0038
648.9979	-0.0009
649.1842	0.005
649.3705	0.0028
649.5568	0.0088
649.7431	0.008
649.9294	-0.0027
650.1156	0.0116
650.3018	0.0013
650.488	0.0069
650.6742	0.0083
650.8604	0.006
651.0466	0.0014
651.2327	0.0033
651.4188	0.0075
651.6049	-0.0043
651.791	0.0059
651.9771	0.0067
652.1632	0.0085
652.3492	0.0091
652.5352	0.0033
652.7212	0.0027
652.9072	0.0068
653.0932	-0.0041
653.2791	-0.0031
653.465	0.0028
653.651	0.0025
653.8369	-0.006
654.0227	0.0004
654.2086	-0.0026
654.3944	0.0113
654.5803	-0.0015
654.7661	-0.0003
654.9519	0.0057
655.1377	-0.0034
655.3234	0.0034
655.5092	-0.0001
655.6949	-0.0087
655.8806	-0.0039
656.0663	-0.0024
656.2519	0.0023
656.4376	0.0034
656.6232	0.0066
656.8088	-0.0011
656.9945	0.0007
657.18	0.0024
657.3656	0.0051
657.5511	-0.0035
657.7367	-0.0076
657.9222	-0.0029
658.1077	0.0049
658.2932	0.0039
658.4786	-0.0038
658.6641	0.0023
658.8495	0.0005
659.0349	0.0041
659.2203	0.0062
659.4057	0.0107
659.591	0.0034
659.7764	0.0044
659.9617	0.0009
660.147	0.0007
660.3323	0.0062
660.5176	0.0127
660.7028	0.0059
660.888	0.0048
661.0733	0.0055
661.2585	-0.0043
661.4436	0.0043
661.6288	0.0031
661.8139	0.0007
661.9991	0.0082
662.1842	0.0022
662.3693	0.0126
662.5544	0.0037
662.7394	0.0086
662.9245	-0.0015
663.1095	0.0044
663.2945	0.0007
663.4795	0.0021
663.6644	0.0051
663.8494	0.0052
664.0343	0.0091
664.2193	-0.0064
664.4042	0.0086
664.589	-0.0022
664.7739	0.0003
664.9587	0.003
665.1436	-0.0019
665.3284	0.0072
665.5132	0.0028
665.698	0.0034
665.8827	0.0073
666.0675	-0.0016
666.2522	0.0021
666.4369	0.0088
666.6216	0.0076
666.8063	0.0056
666.9909	0.0093
667.1756	-0.0033
667.3602	0.0032
667.5448	0.0024
667.7294	0.0116
667.9139	0.0048
668.0985	0.0123
668.283	0.0035
668.4675	0.0015
668.652	0.0001
668.8365	0.0006
669.0209	0.01
669.2054	0.0164
669.3898	0.0039
669.5742	0.0079
669.7586	0.0104
669.943	0.0146
670.1273	0.0083
670.3117	0.0117
670.496	0.0087
670.6803	0.0168
670.8646	0.0088
671.0488	0.0069
671.2331	0.0062
671.4173	0.0103
671.6015	0.0064
671.7857	0.0029
671.9699	0.0092
672.1541	0.0129
672.3382	0.0052
672.5223	0.0089
672.7064	0.0085
672.8905	0.0066
673.0746	0.0082
673.2587	-0.0019
673.4427	0.008
673.6267	0.0163
673.8107	0.0102
673.9947	0.0178
674.1787	0.0064
674.3626	0.0018
674.5465	0.0053
674.7304	0.0067
674.9143	0.0014
675.0982	0.0119
675.2821	-0.0017
675.4659	0.0121
675.6497	0.0041
675.8335	-0.0004
676.0173	0.0009
676.2011	-0.0002
676.3849	-0
676.5686	-0.0013
676.7523	0.0078
676.936	-0.0067
677.1197	0.0029
677.3034	-0.0025
677.487	0.0055
677.6706	0.0067
677.8542	-0.002
678.0378	-0.0008
678.2214	0.004
678.405	-0.0036
678.5885	-0.0088
678.772	0.0033
678.9555	-0.006
679.139	0.0081
679.3225	-0.0025
679.5059	0.002
679.6894	0.0066
679.8728	-0.0001
680.0562	-0.0067
680.2395	-0.0006
680.4229	-0.0009
680.6062	0.0089
680.7896	0.0025
680.9729	-0.0037
681.1562	0.0029
681.3394	0.0002
681.5227	-0.0117
681.7059	-0.0033
681.8891	-0.0021
682.0723	0.0054
682.2555	0.0003
682.4387	0.0006
682.6218	-0.0046
682.805	0.0022
682.9881	0.0031
683.1712	-0.0017
683.3542	0.0042
683.5373	0.0093
683.7203	-0.0017
683.9034	-0.0026
684.0864	-0.0085
684.2694	-0.0031
684.4523	0.0037
684.6353	-0.0012
684.8182	0.0001
685.0011	0.0008
685.184	0.01
685.3669	-0.0068
685.5498	0.0021
685.7326	0.0077
685.9154	0.0014
686.0982	0.0068
686.281	-0.0022
686.4638	0.0032
686.6465	0.0044
686.8293	0.0016
687.012	0.0091
687.1947	-0.0043
687.3774	0.0057
687.56	-0.0014
687.7427	0.0069
687.9253	0.0038
688.1079	0.0081
688.2905	0.0106
688.4731	0.0018
688.6556	-0.002
688.8382	0.0027
689.0207	0.0064
689.2032	-0.0071
689.3857	0.0024
689.5681	0.009
689.7506	-0.0001
689.933	0.0011
690.1154	-0.0019
690.2978	0.0025
690.4802	-0.0036
690.6626	-0.0039
690.8449	-0.0016
691.0272	0.0085
691.2095	0.0006
691.3918	0.0007
691.5741	0.0087
691.7563	0.0034
691.9386	0.0102
692.1208	0.0071
692.303	0.0034
692.4852	-0.0038
692.6673	0.0069
692.8495	0.0058
693.0316	-0.0019
693.2137	0.0039
693.3958	0.006
693.5778	-0.0014
693.7599	0.0074
693.9419	0.0052
694.1239	0.0038
694.3059	0.0068
694.4879	0.0043
694.6699	0.009
694.8518	0.0047
695.0337	-0.0053
695.2157	0.0066
695.3975	0.0049
695.5794	0.0111
695.7613	0.0063
695.9431	-0.0061
696.1249	0.0046
696.3067	0.0024
696.4885	0.0065
696.6703	-0.0041
696.852	0.0047
697.0337	0.0064
697.2154	0.0095
697.3971	0.0027
697.5788	0.0075
697.7605	0.0066
697.9421	0.0029
698.1237	-0.0054
698.3053	-0
698.4869	-0.002
698.6685	-0.0056
698.85	-0.0021
699.0315	0.012
699.213	-0.0009
699.3945	0.0028
699.576	0.0088
699.7575	0.0086
699.9389	0.0067
700.1203	0.0002
700.3017	-0.003
700.4831	-0.0017
700.6645	0.0011
700.8458	0.0101
701.0271	0.0025
701.2084	0.0085
701.3897	0.0013
701.571	0.0158
701.7523	-0.0034
701.9335	0.0041
702.1147	0.0058
702.2959	0.0054
702.4771	0.0019
702.6583	0.0038
702.8394	0.001
703.0205	0.0039
703.2016	0.0003
703.3827	-0.0019
703.5638	0.008
703.7449	-0.0021
703.9259	0.0083
704.1069	-0.0074
704.2879	0.0022
704.4689	0.0009
704.6499	-0.0033
704.8308	-0.0058
705.0117	-0.0004
705.1927	-0.002
705.3735	-0.0065
705.5544	-0.0013
705.7353	-0.0032
705.9161	-0.0109
706.0969	-0.0048
706.2777	0.0042
706.4585	-0.0014
706.6393	0.0047
706.82	0.0042
707.0007	0.0019
707.1815	0.0056
707.3621	0.0187
707.5428	0.0067
707.7235	0.0131
707.9041	0.0108
708.0847	-0.005
708.2653	-0.0014
708.4459	-0.0102
708.6265	0.0044
708.807	-0.0001
708.9875	-0.0023
709.168	-0.0019
709.3485	-0.0052
709.529	-0.0019
709.7095	-0.0072
709.8899	0.0009
710.0703	-0.0055
710.2507	-0.0031
710.4311	-0.0049
710.6115	-0.0037
710.7918	-0.006
710.9721	-0.0049
711.1524	-0.0002
711.3327	-0.0021
711.513	-0.0046
711.6932	-0.0012
711.8735	0.0082
712.0537	-0.0012
712.2339	-0.004
712.4141	-0.008
712.5942	-0.0025
712.7744	0.0004
712.9545	0.0004
713.1346	-0.0053
713.3147	-0.0019
713.4947	-0.0064
713.6748	-0.0007
713.8548	0.0008
714.0348	-0.0061
714.2148	0.0017
714.3948	0.0066
714.5748	-0.0059
714.7547	-0.001
714.9346	0.002
715.1145	-0.001
715.2944	-0.0024
715.4743	0.0058
715.6541	-0.0044
715.834	-0.0031
716.0138	0.0001
716.1936	-0.0047
716.3733	-0.0064
716.5531	0.0055
716.7328	-0.0004
716.9126	-0.0035
717.0923	-0.0015
717.2719	0.0064
717.4516	0.0053
717.6312	0.0077
717.8109	-0.0033
717.9905	0.0006
718.1701	0.0013
718.3496	-0.0025
718.5292	-0.0038
718.7087	-0.0026
718.8882	-0.0027
719.0677	0.0111
719.2472	0.0011
719.4267	0.006
719.6061	-0.0044
719.7856	0.0039
719.965	0.0025
720.1443	-0.0059
720.3237	0.0123
720.5031	0.0101
720.6824	0.0084
720.8617	-0.0017
721.041	0.0039
721.2203	0.0114
721.3995	0.0035
721.5788	0.0027
721.758	0.0008
721.9372	-0.0035
722.1164	0.0034
722.2956	0.0093
722.4747	0.0047
722.6538	0.0018
722.8329	0.0109
723.012	0.013
723.1911	0.0013
723.3702	0.0078
723.5492	0.0092
723.7282	0.0019
723.9072	-0.0019
724.0862	-0.002
724.2652	-0.0049
724.4441	-0.0018
724.623	0.0002
724.8019	-0.0069
724.9808	-0.0004
725.1597	-0.0115
725.3385	0.0013
725.5174	0.0011
725.6962	-0.0031
725.875	0.002
726.0538	0.0048
726.2325	-0.0035
726.4112	-0.0058
726.59	-0.0025
726.7687	-0.009
726.9474	0.0013
727.126	-0.0033
727.3047	-0.0008
727.4833	-0.0031
727.6619	-0.0057
727.8405	-0.0026
728.0191	-0.0088
728.1976	-0.0031
728.3762	-0.0013
728.5547	-0.0018
728.7332	-0.0069
728.9116	0.0073
729.0901	0.0069
729.2686	0.0012
729.447	-0.0007
729.6254	0.0038
729.8038	-0.0006
729.9821	-0.0086
730.1605	0.0039
730.3388	0.0039
730.5171	-0.0046
730.6954	-0.0067
730.8737	-0.0017
731.0519	0.014
731.2302	0.0037
731.4084	0.0135
731.5866	0.0045
731.7648	0.0028
731.9429	0.0115
732.1211	-0.0054
732.2992	0.0041
732.4773	-0.0009
732.6554	-0.0018
732.8335	0.0059
733.0115	0.0091
733.1896	0.0089
733.3676	-0.004
733.5456	-0.0024
733.7235	0.0068
733.9015	0.0113
734.0794	-0.0008
734.2574	-0.0067
734.4353	0.0132
734.6131	0.0123
734.791	0.0123
734.9689	0.0042
735.1467	0.0092
735.3245	0.0015
735.5023	0.0043
735.68	0.0058
735.8578	0.0135
736.0355	-0.0103
736.2132	0.0011
736.3909	0.0018
736.5686	0
736.7463	0.0072
736.9239	0.0037
737.1015	0.0006
737.2791	0.0116
737.4567	0.0076
737.6343	0.001
737.8118	0.0063
737.9894	0.0089
738.1669	0.0003
738.3444	0.0022
738.5218	-0.0023
738.6993	0.0025
738.8767	-0.0048
739.0541	0.0067
739.2315	-0.0058
739.4089	0.0048
739.5863	0.012
739.7636	-0.0072
739.9409	0.0009
740.1182	0.0131
740.2955	0.0024
740.4728	0.0062
740.65	-0.0037
740.8272	-0.0007
741.0044	-0.005
741.1816	0.0007
741.3588	0.0012
741.5359	-0.0003
741.7131	-0.0139
741.8902	-0.0069
742.0673	0.0007
742.2444	-0.0066
742.4214	-0.0124
742.5985	-0.0013
742.7755	-0.0055
742.9525	-0.0132
743.1295	0.011
743.3064	-0.0049
743.4834	0
743.6603	-0.0051
743.8372	-0.001
744.0141	-0.0003
744.191	-0.0026
744.3678	-0.0079
744.5446	-0.0033
744.7215	0.0015
744.8982	-0.0037
745.075	-0.0048
745.2518	-0
745.4285	0.0008
745.6052	-0.0067
745.7819	-0.0007
745.9586	-0.0049
746.1353	0.0038
746.3119	-0.0128
746.4885	0.0023
746.6651	-0.0176
746.8417	-0.0029
747.0183	-0.0041
747.1948	-0.0025
747.3714	0.0018
747.5479	-0.0082
747.7244	-0.0068
747.9008	0.0092
748.0773	-0.0032
748.2537	-0.002
748.4301	-0.0129
748.6065	0.009
748.7829	0.0012
748.9593	-0.0003
749.1356	0.0051
749.3119	0.0096
749.4882	-0.0038
749.6645	0.0026
749.8408	-0.0046
750.017	-0.0006
750.1933	0.0021
750.3695	-0.0031
750.5457	-0
750.7218	0.0063
750.898	0.0046
751.0741	0.0001
751.2502	-0.0047
751.4263	-0.0071
751.6024	-0.0058
751.7784	-0.0114
751.9545	-0.001
752.1305	0.0026
752.3065	-0.0022
752.4825	0.0117
752.6584	0.0011
752.8344	-0.0016
753.0103	-0.0031
753.1862	-0.0025
753.3621	0.0014
753.5379	-0.0019
753.7138	-0.0057
753.8896	-0.0055
754.0654	0.0048
754.2412	0.0091
754.417	0.0079
754.5927	-0.0043
754.7685	-0.0075
754.9442	0.0004
755.1199	0.0155
755.2956	-0.0043
755.4712	0.0171
755.6469	0.0066
755.8225	-0.0028
755.9981	-0.0044
756.1736	0.008
756.3492	0.005
756.5248	-0.0066
756.7003	-0.0026
756.8758	-0.0042
757.0513	-0.0075
757.2267	-0.0122
757.4022	-0.0014
757.5776	-0.0071
757.753	0.002
757.9284	-0.0007
758.1038	0.0088
758.2791	0.0012
758.4545	-0.012
758.6298	-0.0021
758.8051	-0.003
758.9803	-0.0086
759.1556	0.0001
759.3308	-0.0164
759.506	0.0118
759.6812	-0.0069
759.8564	0.0045
760.0316	-0.0036
760.2067	0.0096
760.3819	0.0116
760.557	0.0106
760.732	-0.0034
760.9071	-0.0108
761.0821	0.0052
761.2572	0.0092
761.4322	-0.0021
761.6072	0.0032
761.7821	-0.0032
761.9571	0.0093
762.132	-0.0045
762.3069	-0.0079
762.4818	-0.0016
762.6567	-0.0089
762.8316	0.0018
763.0064	-0.0058
763.1812	0.008
763.356	-0.0111
763.5308	-0.0054
763.7055	0.0043
763.8803	-0.0054
764.055	0.006
764.2297	-0.0009
764.4044	-0.009
764.579	-0.0064
764.7537	-0.0163
764.9283	0.0053
765.1029	-0.0044
765.2775	-0.0041
765.4521	-0.0008
765.6266	-0.0086
765.8011	0.0099
765.9756	0.0007
766.1501	0.0097
766.3246	-0.0014
766.4991	-0.0003
766.6735	0.0104
766.8479	0.0029
767.0223	0.0151
767.1967	0.0077
767.371	0.0072
767.5454	0
767.7197	0.0073
767.894	0.0017
768.0683	-0.0141
768.2425	-0.006
768.4168	0.0085
768.591	-0.0025
768.7652	0.0055
768.9394	0.0003
769.1135	0.0148
769.2877	0.0001
769.4618	-0.0025
769.6359	0.0002
769.81	0.0039
769.984	0.0069
770.1581	-0.0138
770.3321	0.0028
770.5061	0.0004
770.6801	-0.0028
770.8541	-0.004
771.028	0.0146
771.202	-0.0155
771.3759	0.0073
771.5498	0.0068
771.7236	0.0053
771.8975	-0.0052
772.0713	-0.001
772.2451	0.0016
772.4189	-0.0008
772.5927	0.006
772.7665	0.0084
772.9402	-0.0005
773.1139	0.0046
773.2876	0
773.4613	0.0111
773.635	0.0099
773.8086	-0.0075
773.9822	0.0082
774.1558	0.013
774.3294	-0.0069
774.503	0.0125
774.6765	0.0015
774.8501	0.0068
775.0236	0.0087
775.1971	0.0071
775.3705	-0.0027
775.544	0.0212
775.7174	-0.0041
775.8908	-0.0054
776.0642	0.0022
776.2376	0.0139
776.4109	-0.0069
776.5843	0.0071
776.7576	0.0087
776.9309	0.0131
777.1041	0.0137
777.2774	0.0222
777.4506	0.003
777.6238	0.0019
777.797	0.007
777.9702	0.0071
778.1434	0.0018
778.3165	-0.0055
778.4896	-0.0069
778.6627	0.0034
778.8358	-0.002
779.0089	-0.0093
779.1819	-0.004
779.3549	0.007
779.5279	0.0024
779.7009	0.0029
779.8739	-0.0031
780.0468	-0.0057
780.2197	0.0028
780.3926	0.0003
780.5655	-0.0056
780.7384	-0.0104
780.9112	-0.0043
781.0841	-0.0053
781.2569	-0.0001
781.4297	0.0034
781.6024	0.0018
781.7752	0.0199
781.9479	0.0096
782.1206	-0.0043
782.2933	-0.0026
782.466	0.0103
782.6386	-0.001
782.8113	0.0097
782.9839	0.0146
783.1565	0.0163
783.329	0.0058
783.5016	0.0134
783.6741	0.0073
783.8466	-0.0074
784.0191	0.0223
784.1916	0.01
784.3641	0.0096
784.5365	0.0065
784.7089	0.0007
784.8813	0.0004
785.0537	-0.0042
785.2261	-0.0025
785.3984	-0.0036
785.5707	0.0145
785.743	0.0066
785.9153	0.0035
786.0876	0.0052
786.2598	-0.0128
786.432	-0.0073
786.6042	0.0152
786.7764	-0.0068
786.9486	0.0127
787.1207	-0.0021
787.2928	0.0041
787.4649	0.0068
787.637	0.0112
787.8091	-0.0002
787.9811	-0.0051
788.1532	0.0107
788.3252	0.0148
788.4972	0.0005
788.6691	-0.0024
788.8411	0.016
789.013	0.0089
789.1849	0.0067
789.3568	0.0116
789.5287	-0.0025
789.7005	-0.0013
789.8723	0.0114
790.0442	0.0313
790.2159	0.0037
790.3877	0.0036
790.5595	-0.0198
790.7312	0.0002
790.9029	0.0142
791.0746	0.0044
791.2463	-0.0044
791.4179	-0.0059
791.5896	-0.0159
791.7612	0.0109
791.9328	0.0091
792.1044	-0.0154
792.2759	-0.0029
792.4474	0.0023
792.619	0.0026
792.7905	-0.002
792.9619	0.0028
793.1334	0.0071
793.3048	0.0043
793.4762	0.0051
793.6476	-0.0004
793.819	0.0026
793.9904	0.0043
794.1617	0.0051
794.333	-0.0021
794.5043	-0.0063
794.6756	-0.0038
794.8469	0.0001
795.0181	0.0009
795.1893	-0.0039
795.3605	-0.0027
795.5317	0.0016
795.7029	0.0021
795.874	0.0049
796.0452	0.0025
796.2163	-0.0022
796.3873	0.0124
796.5584	0.0054
796.7294	-0.0056
796.9005	0.02
797.0715	0.0069
797.2425	-0.0046
797.4134	0.005
797.5844	0.0125
797.7553	0.0004
797.9262	0.0002
798.0971	-0.0068
798.2679	0.001
798.4388	-0.0023
798.6096	-0.0062
798.7804	0.0008
798.9512	0.004
799.122	-0.0033
799.2927	0.0146
799.4635	-0.0009
799.6342	-0.0043
799.8049	-0.0003
799.9755	-0.0085
800.1462	0.0026
800.3168	0.0088
800.4874	0.0174
800.658	0.0151
800.8286	0.0083
800.9991	0.011
801.1696	0.0028
801.3402	0.0141
801.5106	0.0037
801.6811	0.0051
801.8516	0.0204
802.022	0.013
802.1924	0.0197
802.3628	-0.0106
802.5332	0.0142
802.7035	0.0393
802.8739	0.0121
803.0442	-0.0076
803.2145	0.0197
803.3847	-0.0197
803.555	0.0117
803.7252	-0.0069
803.8954	-0.0156
804.0656	0.0005
804.2358	0.006
804.4059	0.0205
804.5761	0.0092
804.7462	0.0114
804.9163	-0.017
805.0864	-0.006
805.2564	-0.0015
805.4264	-0.0047
805.5965	-0.0046
805.7665	0.0081
805.9364	0.0059
806.1064	0.0167
806.2763	-0.0082
806.4462	0.0188
806.6161	-0.0068
806.786	0.0217
806.9559	0.0001
807.1257	-0.0027
807.2955	-0.0033
807.4653	-0.0098
807.6351	0.001
807.8048	0.0108
807.9746	0.0087
808.1443	0.0065
808.314	0.0056
808.4837	-0.0002
808.6533	-0.0018
808.8229	0.0136
808.9926	-0.0104
809.1622	0.0174
809.3317	-0.0026
809.5013	0.0224
809.6708	0.0077
809.8403	0.0244
810.0098	-0.0112
810.1793	-0.0089
810.3488	-0.015
810.5182	-0.0095
810.6876	-0.0024
810.857	-0.0012
811.0264	0.0169
811.1958	0.0081
811.3651	0.012
811.5344	-0.0075
811.7037	0.0046
811.873	-0.0023
812.0422	0.0056
812.2115	0.0088
812.3807	-0.0025
812.5499	0.0177
812.7191	0.0146
812.8882	-0.0016
813.0574	-0.001
813.2265	0.017
813.3956	0.013
813.5646	0.0136
813.7337	-0.0105
813.9027	0.0327
814.0718	0.0316
814.2407	0.014
814.4097	-0.0166
814.5787	-0.0094
814.7476	-0.0103
814.9165	-0.0049
815.0854	-0.0101
815.2543	-0.0036
815.4232	0.0065
815.592	0.0157
815.7608	0.0161
815.9296	0.0292
816.0984	0.0105
816.2671	-0.0104
816.4359	-0.01
816.6046	0.0292
816.7733	0.0053
816.942	-0.0002
817.1106	0.0185
817.2793	0.0276
817.4479	0.0244
817.6165	0.0247
817.785	0.0068
817.9536	0.0051
818.1221	0.0138
818.2906	0.0118
818.4591	0.0064
818.6276	-0.0119
818.7961	0.0207
818.9645	0.0188
819.1329	0.0369
819.3013	0.0277
819.4697	0.0281
819.638	0.0056
819.8064	0.0101
819.9747	0.0121
820.143	0.0055
820.3113	-0.0205
820.4795	-0.0068
820.6477	0.017
820.816	0.0168
820.9842	-0.024
821.1523	-0.0109
821.3205	0.0113
821.4886	0.0328
821.6567	0.0225
821.8248	0.0167
821.9929	0.0235
822.1609	0.0197
822.329	0.0402
822.497	0.0483
822.665	0.0142
822.833	0.0052
823.0009	0.0173
823.1688	0.0285
823.3367	0.0449
823.5046	0.0036
823.6725	0.0337
823.8404	0.017
824.0082	0.0136
824.176	0.0093
824.3438	0.034
824.5116	0.0035
824.6793	0.022
824.847	0.006
825.0147	0.0014
825.1824	0.0286
825.3501	0.0291
825.5177	0.0033
825.6854	-0.0184
825.853	0.0264
826.0206	-0.0059
826.1881	0.0137
826.3557	-0.0115
826.5232	0.0256
826.6907	-0.0277
826.8582	0.0135
827.0257	0.0157
827.1931	-0.0075
827.3605	0.0083
827.528	-0.0145
827.6953	-0.0236
827.8627	0.0222
828.03	0.0175
828.1974	0.0082
828.3647	-0.013
828.532	-0.013
828.6992	-0.0134
828.8665	0.0207
829.0337	0.0083
829.2009	0.0243
829.3681	0.0136
829.5352	0.0419
829.7024	-0.0294
829.8695	-0.0343
830.0366	0.0425
830.2037	0.0027
830.3707	0.0308
830.5378	-0.0078
830.7048	0.004
830.8718	0.0259
831.0388	-0.0329
831.2057	0.0265
831.3727	0.0193
831.5396	-0.0236
831.7065	0.0002
831.8734	0.0223
832.0402	-0.0086
832.2071	0.0251
832.3739	-0.0175
832.5407	0.002
832.7075	-0.0023
832.8742	-0.0178
833.041	-0.0263
833.2077	-0.0083
833.3744	0.0314
833.541	0.0321
833.7077	-0.027
833.8743	0.0252
834.0409	-0.023
834.2075	0.0047
834.3741	-0.0137
834.5407	0.0339
834.7072	-0.0111
834.8737	-0.0255
835.0402	-0.0097
835.2067	-0.0287
835.3731	0.0411
835.5395	0.0439
835.706	0.0458
835.8723	-0.0249
836.0387	0.0303
836.2051	0.0065
836.3714	0.0256
836.5377	0.0065
836.704	-0.0089
836.8703	0.0381
837.0365	0.0151
837.2027	-0.0065
837.3689	-0.0236
837.5351	0.004
837.7013	-0.0317
837.8674	-0.0594
838.0335	0.0029
838.1997	-0.0118
838.3657	0.0146
838.5318	0.0106
838.6978	0.0156
838.8639	0.0431
839.0299	0.0037
839.1958	0.0122
839.3618	0.0214
839.5277	-0.0295
839.6937	0.0214
839.8596	-0.0024
840.0254	0.0129
840.1913	0.0111
840.3571	0.0455
840.523	0.0186
840.6888	0.0274
840.8545	-0.0195
841.0203	0.0349
841.186	0.0214
841.3517	0.0271
841.5174	0.0145
841.6831	0.0206
841.8488	0.0488
842.0144	0.004
842.18	0.024
842.3456	-0.0225
842.5112	0.019
842.6767	-0.0142
842.8422	0.0234
843.0077	-0.0098
843.1732	0.0086
843.3387	-0.0075
843.5042	-0.0179
843.6696	-0.0828
843.835	-0.0339
844.0004	0.0274
844.1657	-0.0056
844.3311	-0.0863
844.4964	-0.0753
844.6617	-0.051
844.827	0.023
844.9923	0.0299
845.1575	0.0714
845.3227	-0.0088
845.4879	0.0247
845.6531	-0.0607
845.8183	-0.0701
845.9834	-0.0203
846.1485	-0.0136
846.3136	-0.0096
846.4787	-0.0339
846.6438	0.1067
846.8088	-0.0103
846.9738	-0.0802
847.1388	0.0019
847.3038	0.0191
847.4687	-0.0634
847.6337	0.0384
847.7986	0.0321
847.9635	-0.0252
848.1284	0.0604
848.2932	0.0359
848.458	-0.0416
848.6228	0.0458
848.7876	0.1521
848.9524	-0.0752
849.1172	-0.0216
849.2819	-0.0383
849.4466	-0.13
849.6113	-0.1049
849.7759	-0.0878
849.9406	-0.0011
850.1052	0.0121
850.2698	-0.0645
850.4344	-0.0334
850.599	-0.0112
850.7635	0.0243
850.928	-0.0197
851.0925	-0.0126
851.257	0.118
851.4215	0.0159
851.5859	0.0519
851.7503	0.0161
851.9147	-0.006
852.0791	-0.038
852.2434	-0.005
852.4078	0.0572
852.5721	0.1703
852.7364	-0.0251
852.9007	-0.152
853.0649	-0.011
853.2291	0.0135
853.3934	-0.0015
853.5575	0.0632
853.7217	-0.082
853.8859	-0.2637
854.05	-0.0854
854.2141	-0.0861
854.3782	-0.0886
854.5423	-0.0506
854.7063	0.1926
854.8703	-0.1065
855.0343	0.0728
855.1983	-0.0524
855.3623	0.1628
855.5262	0.187
855.6901	0.0582
855.854	-0.0075
856.0179	0.1199
856.1818	-0.0019
856.3456	-0.1145
856.5094	-0.0862
856.6732	-0.2062
856.837	0.1038
857.0008	0.0095
857.1645	-0.147
857.3282	-0.2148
857.4919	0.0816
857.6556	0.0923
857.8192	0.0687
857.9828	-0.0599
858.1465	-0.1439
858.31	-0.0616
858.4736	-0.1583
858.6372	-0.2914
858.8007	-0.1504
858.9642	-0.0502
859.1277	-0.0784
859.2911	0.0253
859.4546	0.0245
859.618	-0.3848
859.7814	-0.0843
859.9448	-0.1059
860.1081	0.0464
860.2715	0.006
860.4348	0.6005
860.5981	0.0209
860.7614	0.1443
860.9246	-0.1361
861.0879	-0.2112
861.2511	-0.0316
861.4143	-0.2876
861.5774	0.272
861.7406	-0.1669
861.9037	-0.0617
862.0668	0.0022
862.2299	-0.1643
862.393	-0.5092
862.556	-0.0843
862.7191	-0.321
862.8821	-0.2591
863.0451	0.1216
863.208	0.0228
863.371	-0.0074
863.5339	-0.1412
863.6968	0.5331
863.8597	0.2629
864.0225	-0.0744
864.1854	0.1664
864.3482	-0.1886
864.511	0.14
864.6737	-0.0923
864.8365	0.4459
864.9992	-0.3656
865.1619	-0.7283
865.3246	-0.1315
865.4873	-0.0129
865.65	-0
865.8126	0.0355
865.9752	0.4594
866.1378	-0.2731
866.3004	1.5729
866.4629	0.3848
866.6254	-0.0346
866.7879	0.7609
866.9504	-0.1425
867.1129	-0
867.2753	-0.0115
867.4377	-0.0913
867.6001	-0.2547
867.7625	0.2393
867.9249	-0.7855
868.0872	-0.0765
868.2495	0.0269
868.4118	0.0726
868.5741	-0.6539
868.7363	-0.3974
868.8986	-0.3725
869.0608	-0.1655
869.223	0.0436
869.3851	-0
869.5473	-0
869.7094	0.3933
869.8715	-0
870.0336	-0
870.1957	-0.5222
870.3577	-1.3184
870.5197	0.5292
870.6817	-0.4054
870.8437	-0.0483
871.0057	-0.0241
871.1676	0.4236
871.3295	-0.4953
871.4914	-0
871.6533	-0.4423
871.8151	-0.5755
871.977	-0
872.1388	-0
872.3006	0.7725
872.4623	0.8638
872.6241	0.2968
872.7858	-0.1813
872.9475	-0.2634
873.1092	-0.0226
873.2709	-0
873.4325	-0.3041
873.5941	-0.0252
873.7557	-0
873.9173	-0
874.0789	0.5956
874.2404	-0
874.4019	-0.0108
874.5634	-0.4294
874.7249	-0.1105
874.8863	-0
875.0478	0.0766
875.2092	-0
875.3706	-0
875.5319	-1.155
875.6933	0.858
875.8546	-0.2468
876.0159	0.2122
876.1772	0.3404
876.3385	-0
876.4997	0.6527
876.6609	-0.4575
876.8221	-0
876.9833	-0.1193
877.1445	-0
877.3056	-0.0693
877.4667	0.242
877.6278	-0
877.7889	-0.6593
877.9499	-0
878.111	-0
878.272	-0
878.433	-0
878.5939	-0.0446
878.7549	-0
878.9158	-0.7155
879.0767	0.0915
879.2376	-0.0393
879.3984	-0
879.5593	-0
879.7201	0.45
879.8809	-0.699
880.0417	-0.542
880.2024	0.1689
880.3632	-0
880.5239	0.3106
880.6846	1.6128
880.8452	-2.6345
881.0059	-0
881.1665	-0
881.3271	0.2927
881.4877	-0
881.6483	-0.6923
881.8088	-0.618
881.9693	-0.2717
882.1298	-0.2717
882.2903	-0.2717
