Data from MonoPyChalIsomerACN10uM360nmA_Absorbance_13-57-30-304.txt Node
Date: Fri Jul 05 13:57:30 BST 2024
User: LASERRRRR
Spectrometer: FLMT03099
Trigger mode: 0
Integration Time (sec): 1.000000E-1
Scans to average: 1
Electric dark correction enabled: true
Nonlinearity correction enabled: false
Boxcar width: 0
XAxis mode: Wavelengths
Number of Pixels in Spectrum: 3648
>>>>>Begin Spectral Data<<<<<
179.3399	-0.3094
179.5586	-0.3094
179.7771	-0.3094
179.9957	0.0173
180.2143	-0.0273
180.4329	0.3866
180.6514	0.2359
180.8699	-0.2578
181.0885	0.1193
181.307	0.1093
181.5255	-0.7125
181.744	-0.5208
181.9625	0.1283
182.181	-1.2245
182.3994	0.3307
182.6179	0.7736
182.8363	-0.1303
183.0547	-0.4291
183.2732	0.0074
183.4916	-0.0051
183.71	0.0445
183.9284	0.1414
184.1467	-0.0271
184.3651	-0.1205
184.5835	-0.0557
184.8018	-0.0066
185.0201	0.1156
185.2385	0.0363
185.4568	0.2542
185.6751	0.0955
185.8934	0.2342
186.1117	-0.0006
186.3299	0.205
186.5482	0.5508
186.7664	-0.0502
186.9847	-0.1332
187.2029	0.0587
187.4211	0.0753
187.6393	-0.0061
187.8575	0.0361
188.0757	0.2939
188.2939	0.2541
188.512	0.0586
188.7302	0.0969
188.9483	0.1404
189.1665	0.0344
189.3846	0.2254
189.6027	0.1801
189.8208	0.104
190.0389	0.0861
190.257	0.3239
190.475	0.2217
190.6931	0.2867
190.9111	0.1499
191.1292	0.1448
191.3472	0.3413
191.5652	0.4365
191.7832	0.1002
192.0012	0.6215
192.2192	0.3286
192.4371	0.2911
192.6551	0.6383
192.873	0.3755
193.091	0.3178
193.3089	0.4546
193.5268	0.5714
193.7447	0.4836
193.9626	0.4157
194.1805	0.6091
194.3984	0.7062
194.6162	0.4852
194.8341	0.5761
195.0519	0.5369
195.2697	0.6664
195.4875	0.561
195.7054	0.6292
195.9231	0.5581
196.1409	0.6052
196.3587	0.5048
196.5765	0.4873
196.7942	0.7703
197.012	0.7307
197.2297	0.5789
197.4474	0.6284
197.6651	0.6479
197.8828	0.5239
198.1005	0.579
198.3182	0.607
198.5358	0.744
198.7535	0.7317
198.9711	0.4883
199.1888	0.6082
199.4064	0.7886
199.624	0.727
199.8416	0.5817
200.0592	0.6872
200.2767	0.6899
200.4943	0.7412
200.7119	0.675
200.9294	0.6369
201.1469	0.5826
201.3645	0.5204
201.582	0.516
201.7995	0.634
202.017	0.6122
202.2344	0.6397
202.4519	0.6429
202.6694	0.6434
202.8868	0.56
203.1042	0.6769
203.3217	0.7137
203.5391	0.6252
203.7565	0.529
203.9739	0.6809
204.1913	0.5619
204.4086	0.605
204.626	0.6507
204.8433	0.6071
205.0607	0.6096
205.278	0.6195
205.4953	0.6856
205.7126	0.6215
205.9299	0.7332
206.1472	0.6876
206.3644	0.6402
206.5817	0.6737
206.7989	0.6909
207.0162	0.6562
207.2334	0.68
207.4506	0.6502
207.6678	0.6091
207.885	0.7524
208.1022	0.6423
208.3194	0.6373
208.5365	0.6235
208.7537	0.5848
208.9708	0.6124
209.1879	0.6009
209.405	0.7079
209.6222	0.6548
209.8392	0.6753
210.0563	0.6536
210.2734	0.572
210.4905	0.5862
210.7075	0.6533
210.9245	0.6448
211.1416	0.6559
211.3586	0.6732
211.5756	0.6039
211.7926	0.562
212.0096	0.5571
212.2265	0.562
212.4435	0.5442
212.6604	0.5504
212.8774	0.6029
213.0943	0.5772
213.3112	0.5664
213.5281	0.5452
213.745	0.4873
213.9619	0.4993
214.1788	0.4396
214.3956	0.4758
214.6125	0.4575
214.8293	0.4426
215.0461	0.4891
215.2629	0.4351
215.4798	0.4888
215.6965	0.4122
215.9133	0.4304
216.1301	0.4088
216.3469	0.4174
216.5636	0.4028
216.7803	0.3916
216.9971	0.3898
217.2138	0.3701
217.4305	0.3636
217.6472	0.3388
217.8639	0.3785
218.0805	0.3548
218.2972	0.3256
218.5138	0.3172
218.7305	0.3251
218.9471	0.3098
219.1637	0.291
219.3803	0.2973
219.5969	0.2869
219.8135	0.2403
220.0301	0.2785
220.2466	0.258
220.4632	0.2532
220.6797	0.2676
220.8962	0.2546
221.1127	0.2791
221.3292	0.2522
221.5457	0.2428
221.7622	0.2382
221.9787	0.2517
222.1951	0.2293
222.4116	0.2549
222.628	0.276
222.8444	0.2613
223.0608	0.2519
223.2772	0.2421
223.4936	0.2606
223.71	0.2603
223.9264	0.261
224.1427	0.2505
224.3591	0.2703
224.5754	0.2717
224.7917	0.2582
225.008	0.2861
225.2243	0.2592
225.4406	0.2817
225.6569	0.2751
225.8732	0.2683
226.0894	0.2536
226.3057	0.2861
226.5219	0.3082
226.7381	0.2723
226.9543	0.2911
227.1705	0.305
227.3867	0.2648
227.6029	0.2981
227.8191	0.2931
228.0352	0.3115
228.2513	0.3281
228.4675	0.3316
228.6836	0.3047
228.8997	0.2924
229.1158	0.3115
229.3319	0.2984
229.548	0.3047
229.764	0.3379
229.9801	0.3196
230.1961	0.3342
230.4121	0.3427
230.6282	0.3307
230.8442	0.3207
231.0602	0.3582
231.2761	0.3663
231.4921	0.3496
231.7081	0.3486
231.924	0.349
232.14	0.3657
232.3559	0.3616
232.5718	0.3655
232.7877	0.3732
233.0036	0.3345
233.2195	0.3553
233.4353	0.3643
233.6512	0.3549
233.867	0.3649
234.0829	0.3513
234.2987	0.3601
234.5145	0.3862
234.7303	0.369
234.9461	0.3837
235.1619	0.3731
235.3776	0.3988
235.5934	0.3821
235.8091	0.3832
236.0249	0.377
236.2406	0.3878
236.4563	0.3763
236.672	0.3959
236.8877	0.3895
237.1034	0.3805
237.319	0.4013
237.5347	0.3968
237.7503	0.3945
237.966	0.4176
238.1816	0.4122
238.3972	0.4114
238.6128	0.3955
238.8284	0.4089
239.0439	0.4171
239.2595	0.411
239.475	0.4279
239.6906	0.4096
239.9061	0.4059
240.1216	0.4101
240.3371	0.4006
240.5526	0.4099
240.7681	0.4083
240.9836	0.39
241.199	0.4152
241.4145	0.3961
241.6299	0.3724
241.8453	0.3805
242.0607	0.3881
242.2761	0.3603
242.4915	0.3875
242.7069	0.375
242.9223	0.3653
243.1376	0.3563
243.353	0.3593
243.5683	0.3535
243.7836	0.3374
243.9989	0.3486
244.2142	0.323
244.4295	0.3183
244.6448	0.3221
244.86	0.295
245.0753	0.293
245.2905	0.2908
245.5057	0.2833
245.721	0.2875
245.9362	0.2667
246.1514	0.2687
246.3665	0.2629
246.5817	0.2614
246.7969	0.2415
247.012	0.2443
247.2271	0.2493
247.4423	0.2485
247.6574	0.2412
247.8725	0.2267
248.0876	0.2254
248.3026	0.227
248.5177	0.2248
248.7328	0.2304
248.9478	0.1988
249.1628	0.2046
249.3779	0.2234
249.5929	0.2055
249.8079	0.2168
250.0228	0.2037
250.2378	0.1955
250.4528	0.2137
250.6677	0.1908
250.8827	0.2008
251.0976	0.2016
251.3125	0.2095
251.5274	0.1802
251.7423	0.1809
251.9572	0.1895
252.172	0.185
252.3869	0.1964
252.6017	0.1732
252.8166	0.1572
253.0314	0.1717
253.2462	0.1705
253.461	0.1783
253.6758	0.167
253.8906	0.1843
254.1053	0.1548
254.3201	0.1608
254.5348	0.1751
254.7496	0.1944
254.9643	0.1757
255.179	0.1622
255.3937	0.1719
255.6083	0.1749
255.823	0.1696
256.0377	0.1664
256.2523	0.1803
256.467	0.1516
256.6816	0.1743
256.8962	0.1719
257.1108	0.1616
257.3254	0.1773
257.54	0.1531
257.7545	0.1745
257.9691	0.175
258.1836	0.1539
258.3981	0.1809
258.6127	0.1791
258.8272	0.17
259.0417	0.1604
259.2561	0.1574
259.4706	0.1715
259.6851	0.1704
259.8995	0.1626
260.114	0.1478
260.3284	0.1614
260.5428	0.1538
260.7572	0.1566
260.9716	0.1633
261.186	0.1672
261.4003	0.174
261.6147	0.1712
261.829	0.1563
262.0433	0.169
262.2577	0.1642
262.472	0.1722
262.6863	0.1543
262.9005	0.161
263.1148	0.1602
263.3291	0.1498
263.5433	0.1602
263.7576	0.1675
263.9718	0.161
264.186	0.1642
264.4002	0.1598
264.6144	0.1531
264.8286	0.1801
265.0427	0.1493
265.2569	0.1598
265.471	0.1585
265.6851	0.1591
265.8993	0.1673
266.1134	0.1503
266.3275	0.1586
266.5415	0.1564
266.7556	0.176
266.9697	0.1508
267.1837	0.1717
267.3978	0.17
267.6118	0.1793
267.8258	0.1729
268.0398	0.1595
268.2538	0.1611
268.4677	0.1719
268.6817	0.1461
268.8957	0.1588
269.1096	0.1529
269.3235	0.1702
269.5374	0.1534
269.7514	0.1657
269.9652	0.1556
270.1791	0.1489
270.393	0.1542
270.6068	0.157
270.8207	0.1418
271.0345	0.1453
271.2483	0.1517
271.4622	0.1505
271.676	0.1639
271.8897	0.1489
272.1035	0.1464
272.3173	0.1508
272.531	0.155
272.7448	0.1488
272.9585	0.1401
273.1722	0.1485
273.3859	0.1566
273.5996	0.1388
273.8133	0.1606
274.0269	0.1455
274.2406	0.1431
274.4542	0.144
274.6679	0.1378
274.8815	0.1409
275.0951	0.1524
275.3087	0.1618
275.5223	0.1394
275.7358	0.1616
275.9494	0.1555
276.1629	0.1451
276.3765	0.1506
276.59	0.1616
276.8035	0.1494
277.017	0.1411
277.2305	0.1353
277.444	0.1463
277.6574	0.1479
277.8709	0.1513
278.0843	0.1426
278.2978	0.1538
278.5112	0.1379
278.7246	0.1411
278.938	0.1519
279.1513	0.1496
279.3647	0.1587
279.5781	0.1546
279.7914	0.1512
280.0047	0.1632
280.2181	0.1445
280.4314	0.1522
280.6447	0.156
280.8579	0.1532
281.0712	0.1556
281.2845	0.1688
281.4977	0.1504
281.711	0.1362
281.9242	0.1482
282.1374	0.1506
282.3506	0.1637
282.5638	0.1634
282.7769	0.155
282.9901	0.1613
283.2033	0.1731
283.4164	0.1588
283.6295	0.1522
283.8426	0.1553
284.0557	0.1763
284.2688	0.1578
284.4819	0.1559
284.695	0.1597
284.908	0.164
285.1211	0.1522
285.3341	0.1574
285.5471	0.1574
285.7601	0.1602
285.9731	0.1568
286.1861	0.1565
286.3991	0.1671
286.612	0.1718
286.825	0.1594
287.0379	0.1612
287.2508	0.1591
287.4637	0.1654
287.6766	0.1514
287.8895	0.173
288.1024	0.1725
288.3152	0.1602
288.5281	0.1498
288.7409	0.1626
288.9538	0.1625
289.1666	0.1627
289.3794	0.1561
289.5922	0.1565
289.8049	0.1572
290.0177	0.1646
290.2304	0.1606
290.4432	0.1747
290.6559	0.1577
290.8686	0.1716
291.0813	0.165
291.294	0.1822
291.5067	0.1642
291.7194	0.1652
291.932	0.17
292.1447	0.1683
292.3573	0.1655
292.5699	0.1602
292.7825	0.1683
292.9951	0.1618
293.2077	0.1667
293.4203	0.1673
293.6328	0.1511
293.8454	0.1713
294.0579	0.1627
294.2704	0.1622
294.4829	0.1596
294.6954	0.1745
294.9079	0.1688
295.1204	0.157
295.3328	0.1635
295.5453	0.1671
295.7577	0.168
295.9701	0.1524
296.1825	0.1624
296.3949	0.157
296.6073	0.1534
296.8197	0.1565
297.0321	0.1728
297.2444	0.1473
297.4567	0.1715
297.6691	0.1653
297.8814	0.1425
298.0937	0.1607
298.306	0.1633
298.5182	0.1561
298.7305	0.1716
298.9428	0.1538
299.155	0.1695
299.3672	0.1544
299.5794	0.1555
299.7916	0.153
300.0038	0.1676
300.216	0.1638
300.4282	0.1677
300.6403	0.1515
300.8525	0.1676
301.0646	0.1546
301.2767	0.1653
301.4888	0.1578
301.7009	0.1552
301.913	0.1556
302.125	0.158
302.3371	0.1583
302.5491	0.1629
302.7612	0.1602
302.9732	0.1657
303.1852	0.1688
303.3972	0.1496
303.6092	0.15
303.8211	0.156
304.0331	0.1662
304.245	0.1511
304.457	0.1457
304.6689	0.1456
304.8808	0.1605
305.0927	0.1459
305.3046	0.159
305.5164	0.1478
305.7283	0.1497
305.9401	0.152
306.152	0.1517
306.3638	0.1436
306.5756	0.1416
306.7874	0.1538
306.9992	0.1386
307.2109	0.1355
307.4227	0.125
307.6344	0.1383
307.8462	0.1422
308.0579	0.1327
308.2696	0.1395
308.4813	0.1253
308.693	0.1268
308.9046	0.1325
309.1163	0.1256
309.328	0.1262
309.5396	0.1161
309.7512	0.1181
309.9628	0.1208
310.1744	0.119
310.386	0.1133
310.5976	0.1255
310.8091	0.1171
311.0207	0.1189
311.2322	0.1221
311.4437	0.1074
311.6552	0.1103
311.8667	0.1137
312.0782	0.1006
312.2897	0.1019
312.5012	0.1171
312.7126	0.0976
312.924	0.1023
313.1355	0.1156
313.3469	0.1179
313.5583	0.1112
313.7696	0.1079
313.981	0.1144
314.1924	0.1075
314.4037	0.1072
314.6151	0.1149
314.8264	0.0962
315.0377	0.1101
315.249	0.1096
315.4603	0.112
315.6716	0.1021
315.8828	0.1037
316.0941	0.1158
316.3053	0.0971
316.5165	0.0987
316.7277	0.0915
316.9389	0.1134
317.1501	0.0966
317.3613	0.1016
317.5724	0.0823
317.7836	0.1032
317.9947	0.0928
318.2058	0.0951
318.417	0.0977
318.6281	0.0915
318.8391	0.0871
319.0502	0.0957
319.2613	0.1074
319.4723	0.0957
319.6834	0.0977
319.8944	0.0957
320.1054	0.1066
320.3164	0.1023
320.5274	0.0964
320.7383	0.1022
320.9493	0.0996
321.1602	0.1096
321.3712	0.0983
321.5821	0.0981
321.793	0.0882
322.0039	0.1052
322.2148	0.0995
322.4257	0.1107
322.6365	0.1097
322.8474	0.103
323.0582	0.107
323.269	0.1123
323.4798	0.1094
323.6906	0.1055
323.9014	0.1063
324.1122	0.1051
324.3229	0.0991
324.5337	0.1122
324.7444	0.0965
324.9551	0.1244
325.1658	0.1086
325.3765	0.1033
325.5872	0.1063
325.7979	0.0938
326.0085	0.1097
326.2192	0.113
326.4298	0.1116
326.6404	0.0953
326.851	0.0903
327.0616	0.1008
327.2722	0.0999
327.4828	0.1092
327.6933	0.0926
327.9039	0.1186
328.1144	0.1164
328.3249	0.1046
328.5354	0.1024
328.7459	0.1083
328.9564	0.1081
329.1669	0.1027
329.3773	0.1034
329.5878	0.1078
329.7982	0.0997
330.0086	0.1078
330.219	0.1101
330.4294	0.1031
330.6398	0.1166
330.8502	0.1003
331.0605	0.112
331.2708	0.1056
331.4812	0.1072
331.6915	0.1081
331.9018	0.1176
332.1121	0.0959
332.3224	0.1138
332.5326	0.1172
332.7429	0.1083
332.9531	0.1221
333.1633	0.1093
333.3735	0.1001
333.5837	0.1044
333.7939	0.1112
334.0041	0.1167
334.2143	0.1204
334.4244	0.119
334.6346	0.0964
334.8447	0.1222
335.0548	0.0921
335.2649	0.1056
335.475	0.1197
335.685	0.11
335.8951	0.1258
336.1051	0.1119
336.3152	0.107
336.5252	0.1037
336.7352	0.1136
336.9452	0.1301
337.1552	0.1267
337.3652	0.1067
337.5751	0.1111
337.7851	0.1207
337.995	0.1075
338.2049	0.1171
338.4148	0.1156
338.6247	0.1127
338.8346	0.1116
339.0445	0.0992
339.2543	0.1024
339.4642	0.1094
339.674	0.1138
339.8838	0.1188
340.0936	0.1351
340.3034	0.1228
340.5132	0.1326
340.7229	0.1216
340.9327	0.1161
341.1424	0.113
341.3522	0.1253
341.5619	0.1317
341.7716	0.1307
341.9813	0.1274
342.1909	0.1067
342.4006	0.1243
342.6102	0.1419
342.8199	0.124
343.0295	0.1227
343.2391	0.1266
343.4487	0.1267
343.6583	0.1188
343.8679	0.126
344.0774	0.1253
344.287	0.1333
344.4965	0.1225
344.706	0.1301
344.9155	0.1346
345.125	0.1202
345.3345	0.1379
345.544	0.1242
345.7534	0.1274
345.9629	0.1284
346.1723	0.1346
346.3817	0.125
346.5911	0.1271
346.8005	0.1304
347.0099	0.1344
347.2193	0.1311
347.4286	0.1188
347.638	0.1466
347.8473	0.1383
348.0566	0.1332
348.2659	0.1406
348.4752	0.1369
348.6845	0.1198
348.8937	0.1368
349.103	0.1409
349.3122	0.1363
349.5214	0.1262
349.7306	0.1347
349.9398	0.1444
350.149	0.1403
350.3582	0.1295
350.5674	0.1453
350.7765	0.141
350.9856	0.1357
351.1948	0.1426
351.4039	0.1265
351.613	0.1327
351.822	0.1461
352.0311	0.1541
352.2402	0.1442
352.4492	0.147
352.6582	0.158
352.8672	0.1486
353.0762	0.14
353.2852	0.1541
353.4942	0.1258
353.7032	0.1431
353.9121	0.152
354.1211	0.1537
354.33	0.1497
354.5389	0.1444
354.7478	0.1533
354.9567	0.1503
355.1655	0.1371
355.3744	0.1555
355.5833	0.1569
355.7921	0.1753
356.0009	0.1427
356.2097	0.185
356.4185	0.1683
356.6273	0.1623
356.8361	0.1728
357.0448	0.1479
357.2536	0.1511
357.4623	0.1522
357.671	0.1769
357.8797	0.1611
358.0884	0.1599
358.2971	0.1662
358.5057	0.1698
358.7144	0.1613
358.923	0.1611
359.1316	0.1754
359.3402	0.1618
359.5488	0.1559
359.7574	0.1452
359.966	0.1739
360.1746	0.1809
360.3831	0.1757
360.5916	0.1651
360.8002	0.1623
361.0087	0.1889
361.2172	0.1731
361.4256	0.1787
361.6341	0.1725
361.8426	0.1915
362.051	0.1843
362.2594	0.1731
362.4678	0.182
362.6762	0.1891
362.8846	0.1825
363.093	0.174
363.3014	0.1801
363.5097	0.1751
363.718	0.1855
363.9264	0.1874
364.1347	0.1883
364.343	0.2003
364.5513	0.1895
364.7595	0.2041
364.9678	0.185
365.176	0.1949
365.3842	0.1943
365.5925	0.1895
365.8007	0.1976
366.0089	0.1883
366.217	0.1807
366.4252	0.1952
366.6333	0.2186
366.8415	0.1973
367.0496	0.1943
367.2577	0.1969
367.4658	0.212
367.6739	0.2045
367.882	0.2083
368.09	0.195
368.2981	0.2014
368.5061	0.1967
368.7141	0.2103
368.9221	0.2179
369.1301	0.2101
369.3381	0.1964
369.5461	0.2091
369.754	0.2089
369.962	0.2062
370.1699	0.2207
370.3778	0.2167
370.5857	0.2054
370.7936	0.2181
371.0015	0.2166
371.2093	0.1937
371.4172	0.2288
371.625	0.217
371.8328	0.2021
372.0406	0.2257
372.2484	0.1991
372.4562	0.2089
372.664	0.2134
372.8717	0.2366
373.0795	0.1971
373.2872	0.2135
373.4949	0.2164
373.7026	0.2334
373.9103	0.228
374.118	0.2265
374.3256	0.2336
374.5333	0.2024
374.7409	0.2241
374.9485	0.2211
375.1561	0.2202
375.3637	0.2218
375.5713	0.2261
375.7789	0.2213
375.9864	0.2104
376.194	0.2437
376.4015	0.2299
376.609	0.2432
376.8165	0.2289
377.024	0.2154
377.2315	0.2126
377.4389	0.2268
377.6464	0.2508
377.8538	0.2348
378.0612	0.2309
378.2686	0.2406
378.476	0.2497
378.6834	0.2348
378.8908	0.2277
379.0981	0.2291
379.3055	0.2379
379.5128	0.2295
379.7201	0.2478
379.9274	0.2123
380.1347	0.2358
380.342	0.2599
380.5492	0.2417
380.7565	0.2466
380.9637	0.2448
381.1709	0.2446
381.3781	0.2355
381.5853	0.2549
381.7925	0.2458
381.9997	0.2483
382.2068	0.269
382.4139	0.2578
382.6211	0.2343
382.8282	0.2546
383.0353	0.241
383.2424	0.2491
383.4494	0.2411
383.6565	0.2457
383.8635	0.2524
384.0706	0.2452
384.2776	0.2607
384.4846	0.2459
384.6916	0.2457
384.8986	0.2453
385.1055	0.2737
385.3125	0.2425
385.5194	0.2531
385.7263	0.2501
385.9333	0.2353
386.1402	0.2488
386.347	0.2498
386.5539	0.2263
386.7608	0.2662
386.9676	0.2469
387.1744	0.224
387.3813	0.2359
387.5881	0.2568
387.7948	0.2449
388.0016	0.2395
388.2084	0.2341
388.4151	0.2421
388.6219	0.2445
388.8286	0.2293
389.0353	0.2609
389.242	0.2418
389.4487	0.2415
389.6553	0.2371
389.862	0.2205
390.0686	0.2244
390.2753	0.2344
390.4819	0.2507
390.6885	0.2297
390.8951	0.2492
391.1016	0.2308
391.3082	0.2219
391.5147	0.2268
391.7213	0.2206
391.9278	0.2281
392.1343	0.2195
392.3408	0.2144
392.5473	0.2389
392.7537	0.2125
392.9602	0.2278
393.1666	0.2177
393.373	0.2263
393.5794	0.2329
393.7858	0.2241
393.9922	0.1961
394.1986	0.2398
394.4049	0.2169
394.6113	0.2151
394.8176	0.2188
395.0239	0.2015
395.2302	0.2073
395.4365	0.2237
395.6428	0.219
395.8491	0.2067
396.0553	0.2145
396.2615	0.2044
396.4678	0.2031
396.674	0.1828
396.8802	0.2194
397.0863	0.2247
397.2925	0.1968
397.4987	0.2013
397.7048	0.1879
397.9109	0.2138
398.117	0.1924
398.3231	0.1953
398.5292	0.2006
398.7353	0.2108
398.9413	0.2026
399.1474	0.2131
399.3534	0.2131
399.5594	0.1896
399.7654	0.2035
399.9714	0.2196
400.1774	0.2128
400.3833	0.184
400.5893	0.207
400.7952	0.201
401.0011	0.1807
401.207	0.2239
401.4129	0.1985
401.6188	0.2137
401.8247	0.1962
402.0305	0.1963
402.2364	0.1955
402.4422	0.2079
402.648	0.2013
402.8538	0.2128
403.0596	0.1928
403.2654	0.2125
403.4711	0.2006
403.6768	0.2014
403.8826	0.2111
404.0883	0.1978
404.294	0.2219
404.4997	0.2056
404.7054	0.2058
404.911	0.1952
405.1167	0.1999
405.3223	0.2213
405.5279	0.2007
405.7335	0.2026
405.9391	0.2238
406.1447	0.1944
406.3502	0.2278
406.5558	0.1873
406.7613	0.2316
406.9668	0.2119
407.1724	0.2041
407.3778	0.1917
407.5833	0.2058
407.7888	0.1792
407.9942	0.2117
408.1997	0.1885
408.4051	0.1878
408.6105	0.2032
408.8159	0.2022
409.0213	0.1996
409.2267	0.2104
409.432	0.1941
409.6374	0.2042
409.8427	0.1891
410.048	0.2071
410.2533	0.2045
410.4586	0.1939
410.6639	0.1812
410.8691	0.1927
411.0744	0.2118
411.2796	0.1858
411.4848	0.2018
411.69	0.1817
411.8952	0.2203
412.1004	0.1844
412.3056	0.2079
412.5107	0.1855
412.7158	0.2164
412.921	0.1994
413.1261	0.2096
413.3312	0.1868
413.5362	0.2044
413.7413	0.2085
413.9464	0.187
414.1514	0.1935
414.3564	0.1963
414.5614	0.1796
414.7664	0.1968
414.9714	0.1993
415.1764	0.1882
415.3813	0.2249
415.5863	0.2022
415.7912	0.1973
415.9961	0.2001
416.201	0.194
416.4059	0.192
416.6108	0.1914
416.8156	0.2008
417.0205	0.1845
417.2253	0.1892
417.4301	0.1879
417.6349	0.2037
417.8397	0.1908
418.0445	0.2023
418.2492	0.2103
418.454	0.2016
418.6587	0.1743
418.8634	0.205
419.0681	0.1853
419.2728	0.1794
419.4775	0.1889
419.6822	0.1843
419.8868	0.1564
420.0915	0.1621
420.2961	0.1793
420.5007	0.1884
420.7053	0.1938
420.9099	0.1683
421.1144	0.1827
421.319	0.1789
421.5235	0.1877
421.728	0.1745
421.9325	0.1787
422.137	0.1864
422.3415	0.1946
422.546	0.1738
422.7504	0.1755
422.9549	0.1719
423.1593	0.1854
423.3637	0.1887
423.5681	0.1711
423.7725	0.1529
423.9769	0.1491
424.1812	0.1726
424.3856	0.1643
424.5899	0.1684
424.7942	0.1783
424.9985	0.1619
425.2028	0.16
425.4071	0.1958
425.6113	0.1567
425.8156	0.1703
426.0198	0.1741
426.224	0.1488
426.4282	0.1543
426.6324	0.1664
426.8366	0.1632
427.0407	0.1639
427.2449	0.1516
427.449	0.1548
427.6531	0.139
427.8572	0.146
428.0613	0.1507
428.2654	0.1459
428.4694	0.1549
428.6735	0.1454
428.8775	0.1587
429.0815	0.1501
429.2855	0.136
429.4895	0.1601
429.6935	0.1389
429.8975	0.145
430.1014	0.1486
430.3053	0.1226
430.5093	0.1427
430.7132	0.129
430.9171	0.1345
431.1209	0.1384
431.3248	0.1332
431.5286	0.1464
431.7325	0.1412
431.9363	0.1239
432.1401	0.1293
432.3439	0.1111
432.5477	0.1046
432.7514	0.1162
432.9552	0.1325
433.1589	0.1207
433.3627	0.1109
433.5664	0.1225
433.7701	0.1183
433.9737	0.1035
434.1774	0.1138
434.3811	0.1157
434.5847	0.1297
434.7883	0.1115
434.9919	0.1084
435.1955	0.1042
435.3991	0.1019
435.6027	0.1007
435.8062	0.0984
436.0098	0.0869
436.2133	0.1021
436.4168	0.0934
436.6203	0.0865
436.8238	0.1118
437.0272	0.092
437.2307	0.0957
437.4341	0.1031
437.6375	0.1031
437.841	0.0822
438.0443	0.1047
438.2477	0.1087
438.4511	0.085
438.6545	0.0942
438.8578	0.0859
439.0611	0.092
439.2644	0.0764
439.4677	0.0797
439.671	0.0677
439.8743	0.0892
440.0775	0.0805
440.2808	0.0744
440.484	0.0694
440.6872	0.0586
440.8904	0.0699
441.0936	0.0726
441.2967	0.0706
441.4999	0.0798
441.703	0.0606
441.9062	0.0716
442.1093	0.0618
442.3124	0.06
442.5155	0.0543
442.7185	0.0547
442.9216	0.036
443.1246	0.0771
443.3276	0.0526
443.5307	0.0468
443.7337	0.0605
443.9366	0.0452
444.1396	0.0581
444.3426	0.0471
444.5455	0.0444
444.7484	0.0526
444.9513	0.0496
445.1542	0.0577
445.3571	0.0492
445.56	0.051
445.7628	0.0433
445.9657	0.0462
446.1685	0.0647
446.3713	0.0434
446.5741	0.0462
446.7769	0.0359
446.9797	0.0585
447.1824	0.0453
447.3852	0.0253
447.5879	0.045
447.7906	0.0436
447.9933	0.0505
448.196	0.0397
448.3986	0.038
448.6013	0.0283
448.8039	0.0277
449.0066	0.034
449.2092	0.0506
449.4118	0.0353
449.6143	0.0268
449.8169	0.0346
450.0195	0.0286
450.222	0.0142
450.4245	0.0278
450.627	0.0192
450.8295	0.0278
451.032	0.0227
451.2345	0.0237
451.4369	0.0311
451.6394	0.0263
451.8418	-0
452.0442	0.0252
452.2466	0.0403
452.449	0.0206
452.6513	0.0322
452.8537	0.0148
453.056	0.0142
453.2583	0.0169
453.4607	0.0217
453.663	0.012
453.8652	0.0217
454.0675	0.004
454.2697	0.0211
454.472	-0.0084
454.6742	0.0223
454.8764	0.0155
455.0786	0.0164
455.2808	0.023
455.4829	0.0195
455.6851	0.0204
455.8872	0.0118
456.0893	0.0225
456.2915	-0.0012
456.4935	0.0167
456.6956	0.0199
456.8977	0.0219
457.0997	0.0142
457.3018	-0.0004
457.5038	0.0205
457.7058	0.0233
457.9078	-0.0061
458.1098	0.0122
458.3117	0.0323
458.5137	0.0105
458.7156	0.0213
458.9175	-0.0025
459.1194	0.0077
459.3213	0.014
459.5232	-0.0086
459.725	-0.0047
459.9269	0.0069
460.1287	-0.0002
460.3305	0.0014
460.5323	-0.0025
460.7341	0.0125
460.9359	-0.0099
461.1376	0.0024
461.3394	-0.0165
461.5411	0.0008
461.7428	0.003
461.9445	0.005
462.1462	0.0105
462.3479	-0.0064
462.5495	-0.0045
462.7512	-0.0042
462.9528	0.0047
463.1544	-0.0046
463.356	-0.0107
463.5576	0.0092
463.7592	-0.0152
463.9607	0.0116
464.1623	0.0128
464.3638	0.0208
464.5653	-0.0102
464.7668	0.0184
464.9683	0.0106
465.1697	0.0124
465.3712	-0.0058
465.5726	-0.0013
465.7741	-0.0035
465.9755	0.0004
466.1769	-0.0035
466.3782	0.0033
466.5796	-0.0018
466.7809	0.0084
466.9823	0.0011
467.1836	0.0103
467.3849	0.0046
467.5862	0.0019
467.7875	-0.009
467.9887	0.0153
468.19	0.0016
468.3912	-0.0117
468.5924	-0.0086
468.7936	0.0021
468.9948	-0.0126
469.196	0.008
469.3972	-0.0112
469.5983	0.0041
469.7994	-0.013
470.0006	-0.003
470.2017	-0.0195
470.4027	-0.0048
470.6038	-0.0085
470.8049	-0.0119
471.0059	0.0001
471.2069	-0.0196
471.408	-0.007
471.6089	0.0076
471.8099	-0.0103
472.0109	0.008
472.2119	-0.0084
472.4128	-0.027
472.6137	0.0069
472.8146	-0.0235
473.0155	-0.01
473.2164	0.006
473.4173	0.0014
473.6181	0.0059
473.819	0.0075
474.0198	-0.0164
474.2206	-0.0057
474.4214	-0.0022
474.6222	0.0005
474.8229	0.0011
475.0237	-0.0126
475.2244	-0.0059
475.4251	-0.0004
475.6258	-0
475.8265	-0.0086
476.0272	0.0027
476.2278	0.0109
476.4285	-0.0116
476.6291	-0.008
476.8297	-0.0047
477.0303	-0.0167
477.2309	-0.0107
477.4315	0.0021
477.632	-0.0063
477.8326	-0.0092
478.0331	-0.0101
478.2336	0.001
478.4341	0.0052
478.6346	-0.0063
478.8351	-0.0042
479.0355	-0
479.236	-0.0051
479.4364	-0.004
479.6368	0.0122
479.8372	-0.0152
480.0376	0.0034
480.2379	-0.0245
480.4383	-0.0094
480.6386	0.0119
480.8389	-0.0009
481.0392	-0.012
481.2395	-0.0117
481.4398	-0.002
481.6401	0.005
481.8403	-0.0009
482.0405	-0.0063
482.2408	-0.0089
482.441	0.0048
482.6411	-0.0089
482.8413	-0.0052
483.0415	-0.0074
483.2416	-0.0085
483.4417	-0.0072
483.6419	-0.0042
483.8419	-0.0037
484.042	0.0066
484.2421	0.0004
484.4422	0.0026
484.6422	-0.001
484.8422	-0.0052
485.0422	-0.01
485.2422	-0.0002
485.4422	-0.0096
485.6422	-0.0091
485.8421	-0.0094
486.042	-0.0005
486.242	0.004
486.4419	-0.0075
486.6417	-0.0128
486.8416	0.0065
487.0415	0.0032
487.2413	-0.007
487.4411	0.0025
487.641	-0.0104
487.8408	0.0029
488.0405	-0.0046
488.2403	-0.0059
488.4401	0.0047
488.6398	-0.0025
488.8395	-0.0068
489.0392	0.0028
489.2389	-0.0075
489.4386	-0.0065
489.6383	-0.0096
489.8379	0.001
490.0376	-0.0076
490.2372	-0.0193
490.4368	-0.0077
490.6364	-0.0073
490.836	-0.0037
491.0355	-0.008
491.2351	-0.0143
491.4346	-0.0022
491.6341	-0.0091
491.8336	0.0019
492.0331	-0.0164
492.2326	-0.0146
492.432	0.0013
492.6315	-0.0029
492.8309	-0.0168
493.0303	-0.0094
493.2297	-0.011
493.4291	-0.0065
493.6284	-0.0061
493.8278	-0.0034
494.0271	0.006
494.2264	0.0021
494.4257	-0.0097
494.625	0.0025
494.8243	-0.0134
495.0236	-0.0028
495.2228	-0.0155
495.422	-0.0032
495.6213	-0.0091
495.8205	-0.0032
496.0196	-0.0022
496.2188	0.0031
496.418	-0.0187
496.6171	-0.0088
496.8162	-0.0149
497.0153	-0.0091
497.2144	-0.0174
497.4135	0.0041
497.6126	-0.0232
497.8116	-0.015
498.0107	0.001
498.2097	-0.0109
498.4087	-0.0089
498.6077	-0.0106
498.8067	-0.0039
499.0056	-0.0002
499.2046	-0.0141
499.4035	-0.0256
499.6024	-0.0034
499.8013	0.0008
500.0002	-0.0052
500.199	-0.0032
500.3979	-0.0119
500.5967	-0.013
500.7956	-0.0016
500.9944	0.0028
501.1932	-0.0133
501.3919	-0.0129
501.5907	-0.0179
501.7895	-0.009
501.9882	-0.007
502.1869	-0.0101
502.3856	-0.021
502.5843	-0.0143
502.783	-0.0008
502.9816	0.0018
503.1803	-0.013
503.3789	-0.0027
503.5775	0.0081
503.7761	-0.0061
503.9747	-0.0019
504.1732	-0.0025
504.3718	-0.0064
504.5703	-0.0051
504.7689	-0.0031
504.9674	0.0085
505.1658	-0.0101
505.3643	0.0007
505.5628	-0.0104
505.7612	-0.0008
505.9597	0.0076
506.1581	-0.0056
506.3565	0.0025
506.5549	-0.0068
506.7532	-0.0166
506.9516	-0.0092
507.1499	-0.0057
507.3482	-0.0156
507.5465	-0.0073
507.7448	-0.0017
507.9431	0.0028
508.1414	-0.0019
508.3396	-0.0047
508.5379	-0.0032
508.7361	0.0029
508.9343	-0.01
509.1325	-0.0101
509.3306	0.0047
509.5288	-0.0006
509.7269	-0.017
509.9251	0.0038
510.1232	-0.0197
510.3213	-0.0099
510.5193	0.0039
510.7174	-0.0136
510.9154	-0.017
511.1135	-0.0047
511.3115	-0.0039
511.5095	-0.0031
511.7075	0.0015
511.9055	-0.0101
512.1034	-0.0058
512.3014	-0.0036
512.4993	-0.0032
512.6972	-0.0071
512.8951	-0.0104
513.093	-0.0085
513.2908	0.0022
513.4887	0.0011
513.6865	-0.0093
513.8844	-0.0015
514.0822	-0.0057
514.2799	-0.0187
514.4777	-0.011
514.6755	0.0005
514.8732	-0.0126
515.0709	-0.0061
515.2687	-0.0158
515.4664	-0.0007
515.664	-0.0052
515.8617	-0.0091
516.0594	-0.0167
516.257	-0.0062
516.4546	-0.02
516.6522	-0.0069
516.8498	-0.0058
517.0474	0.0073
517.2449	0.0106
517.4425	-0.0121
517.64	-0.0109
517.8375	0.0105
518.035	-0.0075
518.2325	-0.011
518.43	-0.0074
518.6274	-0.0052
518.8249	-0.0113
519.0223	0.0023
519.2197	-0.0129
519.4171	-0.0201
519.6145	-0.022
519.8118	-0.0027
520.0092	0.0002
520.2065	-0.0192
520.4038	-0.0069
520.6011	0.011
520.7984	-0.012
520.9956	-0.0086
521.1929	-0.0203
521.3901	-0.0111
521.5874	-0.0042
521.7846	-0.0093
521.9818	-0.0151
522.1789	-0.018
522.3761	-0.0033
522.5732	-0.0061
522.7704	-0.0077
522.9675	-0.0033
523.1646	-0.0093
523.3617	-0.0058
523.5587	0.0049
523.7558	0.0004
523.9528	-0.0101
524.1498	-0.0103
524.3468	-0.0044
524.5438	-0.0163
524.7408	-0.0066
524.9378	0.0022
525.1347	-0.0078
525.3316	-0.0042
525.5285	-0.0071
525.7254	-0.0047
525.9223	-0.0039
526.1192	-0.0061
526.316	-0.0067
526.5129	0.0026
526.7097	-0.0025
526.9065	-0.0076
527.1033	-0.0006
527.3	-0.0045
527.4968	-0.0064
527.6935	-0.0075
527.8903	-0.0126
528.087	0.0023
528.2837	-0.0028
528.4804	0.0044
528.677	-0.0015
528.8737	0.0017
529.0703	-0.0033
529.2669	-0.0029
529.4635	-0.0054
529.6601	-0.0008
529.8567	-0.0049
530.0532	-0.015
530.2498	0.0087
530.4463	0.0016
530.6428	-0.0006
530.8393	0.0109
531.0358	0.0002
531.2322	-0.0055
531.4287	0.0039
531.6251	-0.0045
531.8215	0.0022
532.0179	-0.004
532.2143	-0.0056
532.4107	-0.0059
532.607	-0.0084
532.8034	0.0046
532.9997	-0.0065
533.196	-0.0086
533.3923	-0.007
533.5886	-0.0021
533.7848	-0.001
533.9811	-0.009
534.1773	-0.003
534.3735	0.0052
534.5697	-0.0009
534.7659	-0.0028
534.9621	0.0012
535.1582	-0.005
535.3544	0.0001
535.5505	-0.0122
535.7466	-0.0048
535.9427	-0.0036
536.1387	-0.0056
536.3348	-0.0119
536.5308	-0.0034
536.7269	-0.0194
536.9229	0.0086
537.1189	-0.0036
537.3148	-0.0026
537.5108	-0.0041
537.7068	-0.004
537.9027	-0.0011
538.0986	-0.0083
538.2945	-0.0088
538.4904	-0
538.6863	-0.0015
538.8821	-0.0057
539.078	-0.0076
539.2738	0.0096
539.4696	-0.0041
539.6654	-0.0011
539.8611	0.0087
540.0569	-0.0041
540.2526	-0.0107
540.4484	-0.0007
540.6441	0.0072
540.8398	-0.0029
541.0355	-0.0011
541.2311	-0.0114
541.4268	-0.0068
541.6224	0.0007
541.818	-0.0056
542.0136	-0.0033
542.2092	0.0013
542.4048	0.0032
542.6003	-0.0013
542.7959	-0.0043
542.9914	-0.0019
543.1869	-0.0069
543.3824	0.0014
543.5779	-0.0046
543.7734	-0.0063
543.9688	-0.005
544.1642	0.0016
544.3596	-0.0061
544.555	-0.0005
544.7504	-0.0043
544.9458	-0.0006
545.1411	-0.0003
545.3365	-0.0049
545.5318	-0.0055
545.7271	-0.001
545.9224	0.0031
546.1177	0.0044
546.3129	-0.0032
546.5081	0.0014
546.7034	0.0075
546.8986	0.003
547.0938	-0.0055
547.289	-0.0007
547.4841	0.0015
547.6793	0.0143
547.8744	-0.0053
548.0695	0.0053
548.2646	0.0023
548.4597	0.0046
548.6548	0.0031
548.8498	-0.0002
549.0448	0.0052
549.2399	-0.0013
549.4349	0.0086
549.6298	0.0008
549.8248	-0.0029
550.0198	-0.0044
550.2147	-0.0076
550.4096	-0.0086
550.6045	-0.0046
550.7994	-0.0014
550.9943	0.0013
551.1892	-0.0033
551.384	0.0065
551.5788	-0.0042
551.7737	0.0039
551.9685	-0.0045
552.1632	-0.0012
552.358	-0.0039
552.5528	-0.0109
552.7475	0.0029
552.9422	-0.0035
553.1369	-0.0059
553.3316	0.0016
553.5263	-0.0132
553.7209	0.0054
553.9156	-0.0071
554.1102	-0.0087
554.3048	0.005
554.4994	0.0026
554.694	-0.0083
554.8885	0.0099
555.0831	-0.0102
555.2776	-0.0048
555.4721	-0.0032
555.6666	-0.0066
555.8611	-0.0017
556.0555	-0.0089
556.25	-0.0063
556.4444	-0.0039
556.6388	-0.0017
556.8332	0.0059
557.0276	-0.0027
557.222	0.0043
557.4163	-0.0047
557.6107	-0.0074
557.805	0.0089
557.9993	-0.0069
558.1936	0.0037
558.3879	-0.0026
558.5821	-0.0011
558.7764	-0.0074
558.9706	0.0092
559.1648	0.0091
559.359	0.0027
559.5532	-0.007
559.7473	-0.015
559.9415	0.0008
560.1356	0.002
560.3297	-0.0123
560.5238	-0.0072
560.7179	0.0024
560.9119	0.0029
561.106	-0.0047
561.3	-0.0033
561.494	0.002
561.688	-0.0031
561.882	-0.0021
562.076	-0.0085
562.2699	0.003
562.4639	-0.0025
562.6578	-0.0084
562.8517	-0.0064
563.0456	0.0027
563.2395	0.0067
563.4333	0.0006
563.6272	0.0022
563.821	-0.0043
564.0148	-0.003
564.2086	-0.0027
564.4024	-0.005
564.5961	-0.0055
564.7899	-0.003
564.9836	-0.0031
565.1773	0.0068
565.371	0.0078
565.5647	0.0025
565.7584	-0.0008
565.952	-0.003
566.1456	0.0004
566.3393	0.0021
566.5329	-0.0008
566.7264	-0.0055
566.92	0.0001
567.1136	0.0075
567.3071	-0.0099
567.5006	-0.0017
567.6941	-0.002
567.8876	-0.0016
568.0811	-0.0027
568.2745	0.0006
568.468	0.0088
568.6614	0.0029
568.8548	0.0004
569.0482	-0.0032
569.2416	0.0057
569.4349	0.0048
569.6283	0.0063
569.8216	0.0021
570.0149	-0.0004
570.2082	0.0071
570.4015	0.0073
570.5947	-0.0032
570.788	0.0042
570.9812	0.0073
571.1744	0.0056
571.3676	-0.005
571.5608	-0.001
571.754	0.0055
571.9471	0.0046
572.1402	0.0007
572.3333	-0.0033
572.5264	-0.0043
572.7195	0.0012
572.9126	-0.0013
573.1057	-0.0035
573.2987	-0.0104
573.4917	0.0059
573.6847	-0.0058
573.8777	0.0023
574.0707	0.0062
574.2636	-0.0004
574.4566	0.0028
574.6495	0.0061
574.8424	-0.0023
575.0353	-0.0013
575.2281	0.0069
575.421	0.0064
575.6138	0.0032
575.8067	0.0026
575.9995	0.0008
576.1923	0.0038
576.385	0.004
576.5778	0.0068
576.7706	0.0012
576.9633	0.0002
577.156	0.0008
577.3487	0.0013
577.5414	0.0066
577.734	0.0028
577.9267	0.0055
578.1193	-0.0053
578.3119	0.0004
578.5045	0.0039
578.6971	-0.0019
578.8897	0.0014
579.0822	0.0078
579.2747	0.0004
579.4673	-0.0001
579.6598	-0.0012
579.8522	-0.0032
580.0447	-0.002
580.2372	0.0032
580.4296	0.0042
580.622	0.0035
580.8144	-0.0009
581.0068	-0.0009
581.1992	-0.0056
581.3915	-0.0092
581.5839	-0.0052
581.7762	-0.0045
581.9685	-0.0004
582.1608	0.003
582.353	0.0029
582.5453	0.0048
582.7375	0.0039
582.9298	0.0014
583.122	-0.0014
583.3142	0.007
583.5063	0.0025
583.6985	0.0048
583.8906	-0.0028
584.0827	0.0013
584.2749	0.011
584.4669	0.0043
584.659	0.0083
584.8511	0.0045
585.0431	0.0004
585.2352	0.0014
585.4272	0.0018
585.6192	0.0049
585.8111	-0.0016
586.0031	-0.0003
586.195	0.0007
586.387	0.0062
586.5789	0.0018
586.7708	0.0069
586.9627	0.0067
587.1545	-0.0068
587.3464	-0
587.5382	0.0012
587.73	-0.0018
587.9218	0.005
588.1136	-0.0018
588.3053	0.0039
588.4971	0.0033
588.6888	-0.0054
588.8805	0.0027
589.0722	0.0082
589.2639	0.0071
589.4556	0.0013
589.6472	0.0042
589.8389	-0.0065
590.0305	-0.0073
590.2221	0.0081
590.4137	-0.0106
590.6052	0.0088
590.7968	-0.0003
590.9883	0.0048
591.1798	0.0047
591.3713	0.0044
591.5628	0.0086
591.7543	0.0109
591.9458	-0.0007
592.1372	0.0067
592.3286	0.0053
592.52	0.0079
592.7114	-0.0009
592.9028	-0.0011
593.0941	-0.0003
593.2855	0.0045
593.4768	-0.006
593.6681	-0.0004
593.8594	-0.0045
594.0506	0.0041
594.2419	0.0102
594.4331	0.0026
594.6244	0.0075
594.8156	-0.0056
595.0067	0.0081
595.1979	0.0027
595.3891	0.0015
595.5802	0.0003
595.7713	-0.0034
595.9624	-0.0003
596.1535	0.0048
596.3446	-0.0014
596.5357	0.0004
596.7267	0.0035
596.9177	-0.0031
597.1087	-0.0068
597.2997	-0.0083
597.4907	0.0075
597.6817	0.0022
597.8726	-0.0028
598.0635	-0.0013
598.2544	0.0012
598.4453	-0.0031
598.6362	0.0007
598.827	-0.0017
599.0179	0.0074
599.2087	0.0051
599.3995	0.0043
599.5903	-0.0009
599.7811	0.0027
599.9718	-0.0014
600.1626	-0.0048
600.3533	-0.0021
600.544	0.0055
600.7347	-0.0059
600.9254	0.0022
601.116	-0.0078
601.3067	-0.0004
601.4973	-0.0034
601.6879	0.0069
601.8785	-0.0002
602.0691	0.011
602.2596	0.0066
602.4502	0.0066
602.6407	0.0066
602.8312	0.0058
603.0217	-0.004
603.2122	0.0008
603.4027	0.0014
603.5931	-0.009
603.7835	-0.0034
603.9739	-0.0049
604.1643	-0.0017
604.3547	-0.0017
604.5451	0.011
604.7354	0.0063
604.9257	0.0031
605.116	-0.0002
605.3063	0.0084
605.4966	0.0049
605.6869	-0.0017
605.8771	0.0035
606.0673	0.0097
606.2575	0.0048
606.4477	0.0086
606.6379	0.0031
606.8281	0.0072
607.0182	-0.0013
607.2083	0.0102
607.3985	-0.0014
607.5885	0.0037
607.7786	0.0052
607.9687	-0.001
608.1587	0.0031
608.3488	-0.0002
608.5388	-0.0008
608.7288	0.0017
608.9187	-0.0031
609.1087	-0.0017
609.2986	-0.0054
609.4886	-0.0005
609.6785	-0.0025
609.8684	0.0092
610.0582	0.009
610.2481	0.0083
610.4379	-0.0016
610.6278	-0.0026
610.8176	0.0046
611.0074	0.0028
611.1971	-0.0029
611.3869	0.0003
611.5766	-0.0039
611.7664	0.0101
611.9561	0.008
612.1458	0.0066
612.3354	0.0007
612.5251	0.008
612.7147	0.0078
612.9044	0.0089
613.094	-0.0021
613.2836	0.0008
613.4731	0.0042
613.6627	0.0038
613.8522	0.0134
614.0417	0.0069
614.2313	-0.0008
614.4207	-0.006
614.6102	0.0019
614.7997	-0.0023
614.9891	-0.004
615.1785	0.0057
615.3679	-0.009
615.5573	0.0132
615.7467	-0.0043
615.9361	0.0031
616.1254	0.007
616.3147	0.0003
616.504	0.0037
616.6933	0.0008
616.8826	0.0041
617.0718	0.0035
617.2611	0.0042
617.4503	-0.0002
617.6395	0.0018
617.8287	0.0008
618.0179	0.0052
618.207	0.0101
618.3961	0.009
618.5853	-0.0005
618.7744	0.0059
618.9634	0.0077
619.1525	0.0022
619.3416	0.005
619.5306	0.0123
619.7196	0.0045
619.9086	0.0059
620.0976	0.0055
620.2866	-0.0005
620.4755	0.0115
620.6645	0.0039
620.8534	0.003
621.0423	0.0087
621.2312	0.0104
621.42	0.0033
621.6089	0.0018
621.7977	0.0099
621.9865	-0.0035
622.1753	0.0039
622.3641	0.0018
622.5529	0.0066
622.7416	0.0105
622.9303	-0
623.1191	0.0083
623.3078	0.0013
623.4964	0.0052
623.6851	-0.0006
623.8737	0.0035
624.0624	0.0023
624.251	-0
624.4396	0.0066
624.6282	-0.0014
624.8167	0.004
625.0053	0.0053
625.1938	0.0089
625.3823	0.0036
625.5708	0.0048
625.7593	-0.0013
625.9477	0.0055
626.1362	-0.0022
626.3246	0.0012
626.513	0.008
626.7014	0.0059
626.8898	0.004
627.0781	0.0023
627.2665	0.0001
627.4548	0.0073
627.6431	0.0052
627.8314	0.0031
628.0197	0.0046
628.2079	-0.0018
628.3962	0.0039
628.5844	0.0062
628.7726	0.0025
628.9608	0.0078
629.1489	0.0028
629.3371	0.0097
629.5252	-0.0025
629.7134	0.0027
629.9015	-0.0021
630.0895	-0.0004
630.2776	0.0051
630.4657	-0.0009
630.6537	-0.0006
630.8417	-0.0013
631.0297	-0.0025
631.2177	0.0024
631.4057	-0.0019
631.5936	0.0043
631.7815	0.0077
631.9695	0.0124
632.1574	0.0073
632.3452	0.0178
632.5331	0.0086
632.7209	0.0066
632.9088	0.0128
633.0966	0.0141
633.2844	-0.0044
633.4722	0.0008
633.6599	0.0076
633.8477	-0.0036
634.0354	-0.0045
634.2231	0.0014
634.4108	0.0014
634.5985	0.0102
634.7861	-0.0031
634.9738	-0.0018
635.1614	0.0011
635.349	0.0058
635.5366	0.0062
635.7242	0.0071
635.9117	0.0071
636.0993	-0.0049
636.2868	0.0009
636.4743	-0.0035
636.6618	0.0077
636.8492	-0.0004
637.0367	0.0016
637.2241	-0.0064
637.4115	-0.0006
637.5989	0.0017
637.7863	-0.002
637.9737	0.0037
638.161	0.0049
638.3484	0.0064
638.5357	0.0057
638.723	-0.0025
638.9103	0.0024
639.0975	0.0106
639.2848	0.0035
639.472	0.0059
639.6592	0.0095
639.8464	0.0146
640.0336	0.0077
640.2208	-0.0009
640.4079	0.002
640.595	0.0018
640.7821	0.0046
640.9692	0.0105
641.1563	0.0029
641.3434	0.0136
641.5304	0.0059
641.7174	0.0059
641.9044	0.001
642.0914	0.0108
642.2784	0.0083
642.4653	0.0095
642.6523	-0.0062
642.8392	-0.0005
643.0261	0.0057
643.213	0.0068
643.3999	-0.0073
643.5867	-0.0018
643.7735	0.0015
643.9604	-0.0065
644.1472	0.0039
644.3339	0.0006
644.5207	0.0066
644.7075	0.0007
644.8942	0.0093
645.0809	0.0031
645.2676	0.011
645.4543	0.0039
645.6409	0.0104
645.8276	-0.004
646.0142	0.0015
646.2008	-0.0047
646.3874	-0.0058
646.574	-0.0007
646.7605	-0.0033
646.9471	-0.0084
647.1336	0.0052
647.3201	0.0073
647.5066	0.0017
647.6931	0.0041
647.8795	0.0031
648.0659	0.0071
648.2524	0.0074
648.4388	-0.0028
648.6252	0.0043
648.8115	0.0037
648.9979	-0.0009
649.1842	-0.0003
649.3705	0.01
649.5568	0.0023
649.7431	0.0044
649.9294	0.0023
650.1156	0.0086
650.3018	-0.0018
650.488	0.0072
650.6742	0.01
650.8604	0.0076
651.0466	0.0039
651.2327	0.0029
651.4188	0.0062
651.6049	0.0044
651.791	0.0014
651.9771	0.0101
652.1632	0.0062
652.3492	0.0099
652.5352	0.0011
652.7212	0.008
652.9072	0.0079
653.0932	-0.0003
653.2791	-0.006
653.465	0.0032
653.651	-0.0036
653.8369	-0.0021
654.0227	0.0013
654.2086	0.0019
654.3944	0.0114
654.5803	-0.0002
654.7661	-0.0026
654.9519	0.0045
655.1377	-0.0069
655.3234	-0.0018
655.5092	0.0005
655.6949	-0.0023
655.8806	-0.0018
656.0663	-0.0027
656.2519	0.003
656.4376	0.0018
656.6232	0.0058
656.8088	0.0035
656.9945	0.0036
657.18	0.0079
657.3656	0.0071
657.5511	0.0049
657.7367	-0.0026
657.9222	0.0111
658.1077	0.0022
658.2932	0.0047
658.4786	0.0003
658.6641	0.004
658.8495	0.0029
659.0349	0.0016
659.2203	0.0105
659.4057	0.0046
659.591	0.01
659.7764	0.0045
659.9617	0.0011
660.147	0.0019
660.3323	0.0032
660.5176	0.0117
660.7028	0.0097
660.888	0.0051
661.0733	0.0034
661.2585	-0.0013
661.4436	-0.0017
661.6288	-0.0017
661.8139	0.0049
661.9991	0.0087
662.1842	-0.0024
662.3693	0.005
662.5544	0.0012
662.7394	0.0081
662.9245	-0.0049
663.1095	0.0058
663.2945	0.0068
663.4795	0.0044
663.6644	0.0084
663.8494	0.005
664.0343	0.0087
664.2193	-0.007
664.4042	0.0066
664.589	0.0025
664.7739	0.0016
664.9587	-0.0064
665.1436	0.0048
665.3284	0.0056
665.5132	0.0064
665.698	0.0041
665.8827	0.0111
666.0675	0.0018
666.2522	-0.0052
666.4369	0.0113
666.6216	0.0054
666.8063	0.0036
666.9909	0.0069
667.1756	-0.0042
667.3602	0.0031
667.5448	-0.001
667.7294	0.0068
667.9139	0.0054
668.0985	0.0163
668.283	0.0014
668.4675	0.0019
668.652	0.0038
668.8365	0.0063
669.0209	0.0085
669.2054	0.0086
669.3898	0.0029
669.5742	0.0094
669.7586	0.0109
669.943	0.0142
670.1273	0.0111
670.3117	0.009
670.496	0.0112
670.6803	0.0131
670.8646	0.0098
671.0488	0.0076
671.2331	0.0158
671.4173	0.0116
671.6015	-0.0004
671.7857	0.0079
671.9699	0.0049
672.1541	0.0097
672.3382	0.0084
672.5223	0.0026
672.7064	0.0052
672.8905	0.0134
673.0746	0.0005
673.2587	0.0111
673.4427	0.0141
673.6267	0.0118
673.8107	0.0116
673.9947	0.0079
674.1787	0.0044
674.3626	-0.0028
674.5465	0.004
674.7304	0.005
674.9143	0.0112
675.0982	0.0022
675.2821	-0.0025
675.4659	0.0034
675.6497	0.0033
675.8335	0.0001
676.0173	0.0034
676.2011	0.0006
676.3849	-0.0031
676.5686	-0.0016
676.7523	0.0095
676.936	-0.0036
677.1197	-0.0012
677.3034	0.0038
677.487	0.0082
677.6706	0.0086
677.8542	0.009
678.0378	-0.0018
678.2214	-0.0057
678.405	0.0014
678.5885	-0.0091
678.772	0.0084
678.9555	-0.0044
679.139	-0.0027
679.3225	-0.0026
679.5059	-0.0038
679.6894	-0.0029
679.8728	-0.0023
680.0562	-0.0085
680.2395	-0.0008
680.4229	0.0035
680.6062	0.0116
680.7896	0.001
680.9729	-0.0061
681.1562	0.0059
681.3394	0.0005
681.5227	-0.0061
681.7059	0.0026
681.8891	-0.0052
682.0723	0.0091
682.2555	0.0029
682.4387	0.004
682.6218	-0.0016
682.805	0.0101
682.9881	0.0015
683.1712	0.002
683.3542	-0.0062
683.5373	-0.0039
683.7203	-0.0077
683.9034	0.0057
684.0864	-0.0108
684.2694	-0.0115
684.4523	0.0062
684.6353	-0.0054
684.8182	0.0051
685.0011	-0.0029
685.184	0.0046
685.3669	-0.0001
685.5498	0.004
685.7326	-0.0001
685.9154	-0.0046
686.0982	0.0084
686.281	0.0082
686.4638	0.002
686.6465	-0.003
686.8293	0.003
687.012	0.0009
687.1947	-0.0025
687.3774	0.0015
687.56	0.0011
687.7427	0.0089
687.9253	0.0035
688.1079	0.0022
688.2905	0.019
688.4731	0.0013
688.6556	0.0006
688.8382	0.0067
689.0207	0.0038
689.2032	-0.0058
689.3857	0.0039
689.5681	-0.0024
689.7506	0.0042
689.933	0.003
690.1154	0.0032
690.2978	0.0064
690.4802	0.0054
690.6626	-0.0014
690.8449	-0.0007
691.0272	0.0108
691.2095	-0.0042
691.3918	0.0008
691.5741	0.0097
691.7563	0.011
691.9386	0.0115
692.1208	0.0059
692.303	0.0021
692.4852	0.0033
692.6673	0.0013
692.8495	0.0074
693.0316	0.0101
693.2137	0.0058
693.3958	0.0068
693.5778	0.0053
693.7599	0.0068
693.9419	0.0014
694.1239	0.0051
694.3059	0.0039
694.4879	0.0079
694.6699	0.0089
694.8518	0.0038
695.0337	0.0025
695.2157	0.0083
695.3975	-0.0003
695.5794	0.0109
695.7613	0.0059
695.9431	0.0046
696.1249	0.0012
696.3067	0.0062
696.4885	0.0035
696.6703	-0.008
696.852	0.0077
697.0337	0.0042
697.2154	0.0068
697.3971	0.0011
697.5788	0.0015
697.7605	-0.0014
697.9421	0.0051
698.1237	0.0036
698.3053	0.0026
698.4869	0.0027
698.6685	-0.0026
698.85	-0.0045
699.0315	0.0069
699.213	0.0037
699.3945	0.002
699.576	0.0092
699.7575	0.0036
699.9389	0.0126
700.1203	0.0007
700.3017	-0.005
700.4831	-0.0057
700.6645	0.0025
700.8458	0.0037
701.0271	0.0081
701.2084	0.0079
701.3897	0.0048
701.571	0.0114
701.7523	-0.0046
701.9335	0.0126
702.1147	0
702.2959	0.0028
702.4771	0.0002
702.6583	0.0079
702.8394	0.0045
703.0205	0.0056
703.2016	-0.0037
703.3827	0.0057
703.5638	0.0075
703.7449	0.0011
703.9259	0.0085
704.1069	-0.0046
704.2879	0.0007
704.4689	0.0043
704.6499	-0.0028
704.8308	-0.0015
705.0117	-0.0054
705.1927	0.0023
705.3735	0.0005
705.5544	-0.0065
705.7353	-0.0009
705.9161	-0.0056
706.0969	-0.0016
706.2777	0.0016
706.4585	-0.001
706.6393	0.0044
706.82	-0.0025
707.0007	0.0077
707.1815	0.0074
707.3621	0.0105
707.5428	0.005
707.7235	0.0139
707.9041	0.0103
708.0847	-0.0049
708.2653	0.0059
708.4459	-0.0079
708.6265	0.01
708.807	-0.0037
708.9875	0.0044
709.168	-0.0002
709.3485	-0.0017
709.529	-0.0054
709.7095	-0.0091
709.8899	-0.0032
710.0703	-0.0089
710.2507	0.0002
710.4311	-0.0036
710.6115	-0.0028
710.7918	-0.0068
710.9721	0.0053
711.1524	-0.0012
711.3327	-0.0036
711.513	-0.0007
711.6932	0.0058
711.8735	0.009
712.0537	-0.0034
712.2339	-0.0009
712.4141	-0.0079
712.5942	-0.0077
712.7744	0.0007
712.9545	-0.0091
713.1346	-0.0005
713.3147	-0.0046
713.4947	-0.0028
713.6748	0.0002
713.8548	0.0022
714.0348	-0.0007
714.2148	-0.0082
714.3948	0.0155
714.5748	0.0009
714.7547	0.0013
714.9346	0.0088
715.1145	0.0029
715.2944	-0.0009
715.4743	0.0014
715.6541	-0.0009
715.834	0.0049
716.0138	-0.0052
716.1936	-0.0099
716.3733	-0.0126
716.5531	0.0036
716.7328	-0.0019
716.9126	-0.0016
717.0923	0.0072
717.2719	0.0088
717.4516	0.0084
717.6312	0.0116
717.8109	-0.0011
717.9905	0.0091
718.1701	-0.0015
718.3496	-0.0095
718.5292	0.0016
718.7087	-0.0033
718.8882	-0.0009
719.0677	0.0017
719.2472	-0.0065
719.4267	0.0051
719.6061	-0.0017
719.7856	0.0087
719.965	0.0084
720.1443	-0.0031
720.3237	0.0089
720.5031	0.0007
720.6824	0.0057
720.8617	-0.0042
721.041	0.0044
721.2203	0.0116
721.3995	-0.0007
721.5788	-0
721.758	0.0041
721.9372	0.0002
722.1164	0.0034
722.2956	0.0044
722.4747	0.0081
722.6538	0.0033
722.8329	0.0154
723.012	0.0115
723.1911	0.0086
723.3702	-0.0018
723.5492	0.0064
723.7282	0.0025
723.9072	0.0047
724.0862	-0.0055
724.2652	0.0012
724.4441	0.0033
724.623	0.0001
724.8019	-0.0091
724.9808	0.0046
725.1597	-0.0033
725.3385	0.0069
725.5174	-0.0001
725.6962	0.0022
725.875	-0.0037
726.0538	0.0044
726.2325	-0.0101
726.4112	0.0051
726.59	0.002
726.7687	-0.0051
726.9474	0.0035
727.126	-0.0048
727.3047	-0.014
727.4833	-0.0036
727.6619	-0.009
727.8405	-0.0115
728.0191	-0.0023
728.1976	0.0009
728.3762	-0.0029
728.5547	0.0097
728.7332	-0.0125
728.9116	0.0045
729.0901	0.0054
729.2686	-0.0026
729.447	-0.0018
729.6254	-0.0094
729.8038	-0.0038
729.9821	-0.0056
730.1605	0.0033
730.3388	-0.0008
730.5171	0.0019
730.6954	-0.0082
730.8737	0.0046
731.0519	-0.0005
731.2302	0.0066
731.4084	0.0142
731.5866	0.0116
731.7648	-0.0009
731.9429	0.0064
732.1211	-0.0017
732.2992	-0.0008
732.4773	0.0031
732.6554	-0.0032
732.8335	0.0045
733.0115	0.0044
733.1896	0.0035
733.3676	-0.0061
733.5456	0.0028
733.7235	0.0098
733.9015	0.0051
734.0794	0.0067
734.2574	0.0004
734.4353	0.0006
734.6131	0.0074
734.791	0.0052
734.9689	0.0106
735.1467	0.0056
735.3245	-0.0004
735.5023	-0.0067
735.68	0.0068
735.8578	0.0084
736.0355	-0.012
736.2132	-0.0013
736.3909	-0.0004
736.5686	-0.0067
736.7463	0.0157
736.9239	0.0007
737.1015	-0.0008
737.2791	0.0102
737.4567	-0.0009
737.6343	0.004
737.8118	0.0052
737.9894	0.0033
738.1669	-0.0008
738.3444	-0.0026
738.5218	-0.001
738.6993	0.0013
738.8767	-0.0039
739.0541	0.0118
739.2315	-0.0063
739.4089	0.0034
739.5863	-0.0031
739.7636	-0.0043
739.9409	0.0055
740.1182	0.0082
740.2955	0.0086
740.4728	0.0002
740.65	0.0009
740.8272	-0.0028
741.0044	-0.0084
741.1816	-0.0006
741.3588	-0.0007
741.5359	0.0014
741.7131	-0.0114
741.8902	-0.0012
742.0673	-0.0044
742.2444	-0.0067
742.4214	-0.0053
742.5985	-0.0011
742.7755	0.0021
742.9525	-0.013
743.1295	0.0049
743.3064	0.01
743.4834	0.004
743.6603	-0.001
743.8372	-0.0016
744.0141	0.0031
744.191	0.0024
744.3678	0.0018
744.5446	-0.0023
744.7215	0.004
744.8982	-0.001
745.075	-0.0072
745.2518	0.0028
745.4285	0.0017
745.6052	-0.0069
745.7819	-0.003
745.9586	-0.0004
746.1353	-0.008
746.3119	-0.0158
746.4885	-0.0077
746.6651	0.0006
746.8417	-0.0156
747.0183	-0.0083
747.1948	-0.0053
747.3714	-0.0037
747.5479	0.006
747.7244	-0.0043
747.9008	0.0049
748.0773	-0.0067
748.2537	0.0016
748.4301	-0.0108
748.6065	0.0085
748.7829	0.0032
748.9593	-0.0042
749.1356	0.0055
749.3119	0.0091
749.4882	-0.0064
749.6645	0.0053
749.8408	-0.0042
750.017	-0.0009
750.1933	0.0121
750.3695	-0.0065
750.5457	0.0087
750.7218	-0.0023
750.898	0.0007
751.0741	-0.0002
751.2502	-0.0024
751.4263	-0.0069
751.6024	0.0009
751.7784	-0.0115
751.9545	-0.0052
752.1305	0.0032
752.3065	-0.0045
752.4825	-0.0001
752.6584	0.0009
752.8344	-0.0005
753.0103	-0.0054
753.1862	-0.0003
753.3621	-0.0022
753.5379	-0.0065
753.7138	0.0017
753.8896	-0.0076
754.0654	0.0013
754.2412	0.004
754.417	0.003
754.5927	0.0007
754.7685	-0.0006
754.9442	0.0058
755.1199	0.0152
755.2956	0.0091
755.4712	0.003
755.6469	0.0007
755.8225	0.0008
755.9981	-0.0051
756.1736	0.0037
756.3492	0.0071
756.5248	-0.0049
756.7003	-0.0051
756.8758	0.0112
757.0513	-0.0148
757.2267	-0.0136
757.4022	-0.0032
757.5776	-0.0115
757.753	0.0047
757.9284	-0.007
758.1038	0.0126
758.2791	0.0008
758.4545	-0.0207
758.6298	-0.0016
758.8051	0.0059
758.9803	-0.0095
759.1556	0.0045
759.3308	-0.0047
759.506	0.0093
759.6812	-0.009
759.8564	-0.0024
760.0316	-0.0042
760.2067	0.0061
760.3819	0.0028
760.557	0.0158
760.732	0.0067
760.9071	-0.0078
761.0821	0.0056
761.2572	0.0113
761.4322	0.002
761.6072	0.0011
761.7821	-0.0122
761.9571	0.0129
762.132	-0.0028
762.3069	-0.006
762.4818	-0.0041
762.6567	-0.0087
762.8316	-0.0065
763.0064	-0.0103
763.1812	0.0007
763.356	-0.0084
763.5308	-0.0097
763.7055	0.0009
763.8803	-0.0035
764.055	0.0023
764.2297	-0.0031
764.4044	-0.0076
764.579	-0.0059
764.7537	-0.013
764.9283	0.0062
765.1029	-0.0143
765.2775	0.0029
765.4521	-0.0024
765.6266	0.0048
765.8011	-0.0081
765.9756	0.0037
766.1501	0.0078
766.3246	0.0084
766.4991	-0.0051
766.6735	0.0092
766.8479	0.0026
767.0223	0.0155
767.1967	0.0022
767.371	0.009
767.5454	0.0004
767.7197	0.0027
767.894	-0.0076
768.0683	-0.008
768.2425	0.0084
768.4168	0.0116
768.591	-0
768.7652	-0.0028
768.9394	0.0016
769.1135	-0.002
769.2877	0.0081
769.4618	-0.0004
769.6359	0.0028
769.81	0.0035
769.984	-0.005
770.1581	0.0014
770.3321	0.0011
770.5061	-0.0044
770.6801	-0.0106
770.8541	0.0002
771.028	0.0132
771.202	-0.003
771.3759	-0.0008
771.5498	-0.0057
771.7236	0.0076
771.8975	-0
772.0713	0.0044
772.2451	0.0034
772.4189	0.0066
772.5927	0.0149
772.7665	0.0045
772.9402	0.0091
773.1139	0.0038
773.2876	-0.0034
773.4613	0.0108
773.635	0.0153
773.8086	0.0055
773.9822	0.0039
774.1558	0.0067
774.3294	-0.0039
774.503	-0.0066
774.6765	0.0062
774.8501	-0.0022
775.0236	0.0093
775.1971	0.0145
775.3705	-0.0061
775.544	0.0181
775.7174	0.0042
775.8908	-0.0026
776.0642	0.0004
776.2376	0.0044
776.4109	0.002
776.5843	0.0096
776.7576	0.0127
776.9309	0.0188
777.1041	0.0099
777.2774	0.0117
777.4506	0.0076
777.6238	0.008
777.797	0.0114
777.9702	0.0021
778.1434	-0.0027
778.3165	-0.0066
778.4896	0.0008
778.6627	0.0205
778.8358	-0.0031
779.0089	-0.0069
779.1819	-0.0074
779.3549	0.0175
779.5279	-0.0048
779.7009	-0.0105
779.8739	0.004
780.0468	-0.0009
780.2197	0.0033
780.3926	-0.0001
780.5655	-0.0058
780.7384	-0.0007
780.9112	-0.0041
781.0841	-0.008
781.2569	0.0006
781.4297	-0.0018
781.6024	0.0072
781.7752	0.0028
781.9479	0.0059
782.1206	-0.004
782.2933	-0.0026
782.466	-0.0024
782.6386	0.0056
782.8113	0.0157
782.9839	0.0061
783.1565	0.0216
783.329	0.0026
783.5016	0.0062
783.6741	0.0084
783.8466	0.0039
784.0191	0.0101
784.1916	0.0077
784.3641	0.0081
784.5365	0.02
784.7089	0.0114
784.8813	0.0122
785.0537	-0.0038
785.2261	0.0044
785.3984	0.003
785.5707	0.005
785.743	0.0057
785.9153	-0.0038
786.0876	0.0079
786.2598	0.0032
786.432	-0.0068
786.6042	0.0176
786.7764	-0.0015
786.9486	0.0034
787.1207	-0.0013
787.2928	0.0133
787.4649	0.0062
787.637	0.0075
787.8091	-0.0014
787.9811	0.0068
788.1532	0.0112
788.3252	-0.0006
788.4972	-0.0073
788.6691	0.003
788.8411	0.0138
789.013	-0.0017
789.1849	0.0087
789.3568	-0.0106
789.5287	-0.0006
789.7005	-0.0086
789.8723	0.0027
790.0442	0.0123
790.2159	0.016
790.3877	0.0151
790.5595	-0.006
790.7312	0.0155
790.9029	0.007
791.0746	-0.0058
791.2463	0.0048
791.4179	0.0102
791.5896	-0.0035
791.7612	0.0069
791.9328	-0.0036
792.1044	-0.0053
792.2759	-0.0066
792.4474	0.0025
792.619	0.0093
792.7905	0.0075
792.9619	0.0072
793.1334	0.0059
793.3048	0.016
793.4762	-0.0009
793.6476	0.002
793.819	0.0012
793.9904	0.014
794.1617	-0.0066
794.333	-0.0028
794.5043	-0.0039
794.6756	-0.0004
794.8469	-0.0018
795.0181	0.0021
795.1893	-0.003
795.3605	0.02
795.5317	0.0006
795.7029	-0.0051
795.874	0.0089
796.0452	-0.0091
796.2163	-0.0007
796.3873	0.0162
796.5584	0.0058
796.7294	-0.0074
796.9005	0.0072
797.0715	0.0068
797.2425	-0.006
797.4134	-0.0029
797.5844	0.0126
797.7553	0.0091
797.9262	0.0105
798.0971	0.008
798.2679	-0.0012
798.4388	-0.0216
798.6096	0.0011
798.7804	0.016
798.9512	0.0002
799.122	-0.0055
799.2927	-0.0076
799.4635	0.0169
799.6342	-0.0216
799.8049	-0.0062
799.9755	0.0021
800.1462	0.0115
800.3168	-0.0014
800.4874	0.0099
800.658	0.031
800.8286	0.0096
800.9991	0.0219
801.1696	0.0094
801.3402	0.0063
801.5106	0.0084
801.6811	0.0043
801.8516	0.0244
802.022	0.0126
802.1924	0.009
802.3628	0.0148
802.5332	0.0093
802.7035	0.0242
802.8739	0.0021
803.0442	0.016
803.2145	0.0187
803.3847	-0.018
803.555	0.0079
803.7252	0.0095
803.8954	-0.0114
804.0656	-0.0018
804.2358	0.0221
804.4059	0.025
804.5761	0.0111
804.7462	0.0149
804.9163	0.0015
805.0864	-0.0109
805.2564	-0.0096
805.4264	-0.0098
805.5965	-0.0143
805.7665	-0.002
805.9364	0.018
806.1064	0.0443
806.2763	0.0066
806.4462	0.0117
806.6161	0.005
806.786	0.0103
806.9559	-0.013
807.1257	-0.0131
807.2955	0.0006
807.4653	0.0085
807.6351	-0.0069
807.8048	0.0133
807.9746	-0.0115
808.1443	0.0062
808.314	-0.0039
808.4837	0.0141
808.6533	0.0184
808.8229	0.0251
808.9926	0.0184
809.1622	0.0173
809.3317	0.0017
809.5013	0.0022
809.6708	0.0186
809.8403	0.0181
810.0098	0.0058
810.1793	0.0089
810.3488	0.007
810.5182	-0.0045
810.6876	-0.0031
810.857	-0.0242
811.0264	0.0293
811.1958	0.0146
811.3651	0.0124
811.5344	-0.0011
811.7037	0.0108
811.873	-0.0099
812.0422	0.0013
812.2115	0.004
812.3807	-0.0277
812.5499	0.0232
812.7191	0.0178
812.8882	0.0005
813.0574	0.0052
813.2265	0.0051
813.3956	0.0128
813.5646	0.0072
813.7337	0.0026
813.9027	0.0299
814.0718	0.0273
814.2407	0.0128
814.4097	0.0067
814.5787	0.0154
814.7476	0.0088
814.9165	0.007
815.0854	0.0044
815.2543	0.0052
815.4232	-0.0131
815.592	0.0258
815.7608	0.0181
815.9296	0.0062
816.0984	0.0035
816.2671	0.0218
816.4359	0.0063
816.6046	0.011
816.7733	-0.0055
816.942	-0.0022
817.1106	0.0072
817.2793	0.0324
817.4479	0.0242
817.6165	0.0133
817.785	0.02
817.9536	-0.0215
818.1221	0.017
818.2906	0.0209
818.4591	0.0062
818.6276	-0.0028
818.7961	0.0265
818.9645	0.0238
819.1329	0.0121
819.3013	0.0232
819.4697	0.0403
819.638	0.0006
819.8064	0.0216
819.9747	0.0059
820.143	0.0278
820.3113	0.0036
820.4795	0.0174
820.6477	0.015
820.816	0.0192
820.9842	-0.0111
821.1523	0.0112
821.3205	-0.0215
821.4886	0.0143
821.6567	-0.0004
821.8248	0.019
821.9929	0.0208
822.1609	-0.0101
822.329	0.0032
822.497	0.0597
822.665	-0.0024
822.833	0.0011
823.0009	0.027
823.1688	0.0376
823.3367	0.0248
823.5046	0.0375
823.6725	0.0268
823.8404	0.0242
824.0082	0.032
824.176	0.0156
824.3438	0.0124
824.5116	0.0131
824.6793	0.0426
824.847	0.0164
825.0147	0.0134
825.1824	0.012
825.3501	0.014
825.5177	0.0167
825.6854	-0.0174
825.853	0.0139
826.0206	0.0065
826.1881	0.0391
826.3557	-0.0168
826.5232	0.0404
826.6907	0.0017
826.8582	0.0114
827.0257	-0.0079
827.1931	-0.0191
827.3605	0.0063
827.528	-0.0065
827.6953	0.0231
827.8627	0.0284
828.03	0.0246
828.1974	0.0128
828.3647	-0.0304
828.532	0.0134
828.6992	-0.0383
828.8665	0.014
829.0337	-0.0086
829.2009	0.0126
829.3681	0.0192
829.5352	0.0255
829.7024	-0.0033
829.8695	-0.0203
830.0366	0.048
830.2037	-0.0072
830.3707	0.0059
830.5378	0.0053
830.7048	0.0205
830.8718	0.0087
831.0388	-0.0395
831.2057	0.0195
831.3727	0.0312
831.5396	-0.0255
831.7065	0.0039
831.8734	0.0164
832.0402	-0.0101
832.2071	0.0022
832.3739	-0.0102
832.5407	0.0151
832.7075	-0.0154
832.8742	-0.0303
833.041	-0.0241
833.2077	0.0205
833.3744	0.018
833.541	0.0177
833.7077	-0.0232
833.8743	-0.0085
834.0409	0.0173
834.2075	0.0018
834.3741	-0.0098
834.5407	0.0005
834.7072	0.0254
834.8737	-0.0394
835.0402	-0.0153
835.2067	0.0451
835.3731	0.0415
835.5395	0.0162
835.706	0.0051
835.8723	-0.0001
836.0387	0.0321
836.2051	-0.0022
836.3714	-0.0292
836.5377	0.032
836.704	-0.0324
836.8703	0.01
837.0365	-0.0016
837.2027	-0.048
837.3689	0.0045
837.5351	0.0167
837.7013	-0.0603
837.8674	-0.0497
838.0335	-0.0169
838.1997	0.0131
838.3657	-0.0149
838.5318	-0.0052
838.6978	0.051
838.8639	0.0786
839.0299	-0.0095
839.1958	0.0593
839.3618	0.0526
839.5277	-0.0371
839.6937	0.0469
839.8596	-0.0179
840.0254	-0.0358
840.1913	-0.0242
840.3571	0.0469
840.523	-0.0419
840.6888	-0.0709
840.8545	0.0185
841.0203	0.0016
841.186	0.0291
841.3517	0.0531
841.5174	-0.0096
841.6831	-0.0122
841.8488	0.021
842.0144	-0.0386
842.18	0.0161
842.3456	0.0411
842.5112	0.0174
842.6767	-0.005
842.8422	-0.0458
843.0077	-0.0261
843.1732	0.0057
843.3387	-0.0179
843.5042	-0.0284
843.6696	-0.0156
843.835	-0.0264
844.0004	0.0784
844.1657	0.0419
844.3311	-0.0338
844.4964	-0.0647
844.6617	-0.0535
844.827	-0.0116
844.9923	0.0067
845.1575	-0.0188
845.3227	-0.0172
845.4879	-0.0047
845.6531	-0.0981
845.8183	-0.0989
845.9834	-0.0125
846.1485	-0.013
846.3136	0.0023
846.4787	-0.0446
846.6438	0.0476
846.8088	-0.0172
846.9738	-0.0747
847.1388	0.0112
847.3038	0.0013
847.4687	-0.0886
847.6337	0.032
847.7986	0.0105
847.9635	0.0446
848.1284	0.0938
848.2932	0.0219
848.458	-0.0299
848.6228	0.0819
848.7876	0.0969
848.9524	-0.0071
849.1172	-0.1122
849.2819	-0.0286
849.4466	-0.1093
849.6113	0.0018
849.7759	-0.0886
849.9406	0.0487
850.1052	0.0036
850.2698	-0.0097
850.4344	-0.0233
850.599	-0.0739
850.7635	0.0413
850.928	0.0505
851.0925	0.0055
851.257	0.1431
851.4215	0.0898
851.5859	-0.0341
851.7503	-0.0138
851.9147	0.0148
852.0791	-0.1346
852.2434	-0.0097
852.4078	0.0619
852.5721	0.0528
852.7364	0.0424
852.9007	-0.1177
853.0649	-0.0468
853.2291	0.0332
853.3934	0.0161
853.5575	0.2345
853.7217	0.088
853.8859	-0.2179
854.05	0.0499
854.2141	-0.0654
854.3782	0.0258
854.5423	-0.0851
854.7063	0.0723
854.8703	0.1233
855.0343	0.0058
855.1983	-0.1544
855.3623	0.1144
855.5262	0.0338
855.6901	-0.0264
855.854	0.0408
856.0179	0.1243
856.1818	0.0897
856.3456	-0.1386
856.5094	-0.0875
856.6732	0.0313
856.837	-0.0149
857.0008	0.0598
857.1645	0.0056
857.3282	-0.0668
857.4919	0.0797
857.6556	-0.0206
857.8192	0.1701
857.9828	0.0635
858.1465	-0.0624
858.31	-0.1604
858.4736	-0.1289
858.6372	-0.09
858.8007	-0.1592
858.9642	-0.0315
859.1277	0.1118
859.2911	0.1655
859.4546	0.014
859.618	-0.31
859.7814	-0.1124
859.9448	-0.1143
860.1081	-0.0314
860.2715	0.1034
860.4348	-0.1211
860.5981	-0.0742
860.7614	-0.0953
860.9246	-0.352
861.0879	-0.1172
861.2511	-0.0359
861.4143	-0.2072
861.5774	0.0029
861.7406	-0.301
861.9037	-0.1504
862.0668	0.2304
862.2299	0.0209
862.393	-0.5663
862.556	-0.0434
862.7191	-0.3126
862.8821	-0.0787
863.0451	0.0639
863.208	0.4121
863.371	-0.1071
863.5339	-0.1026
863.6968	0.0458
863.8597	-0.3067
864.0225	-0.0963
864.1854	-0.1884
864.3482	-0.0365
864.511	-0.0424
864.6737	0.2371
864.8365	0.2165
864.9992	-0.5237
865.1619	-0.3374
865.3246	-0.1472
865.4873	0.0142
865.65	0.3954
865.8126	0.0229
865.9752	0.2381
866.1378	-0.307
866.3004	-0
866.4629	0.319
866.6254	-0.149
866.7879	0.0827
866.9504	-0
867.1129	-0
867.2753	0.0585
867.4377	0.1579
867.6001	-0.3744
867.7625	-0.0658
867.9249	-0.058
868.0872	0.5755
868.2495	0.005
868.4118	0.0818
868.5741	-0.1005
868.7363	-0.2539
868.8986	-0
869.0608	-0.1513
869.223	0.1527
869.3851	0.4572
869.5473	-0
869.7094	0.319
869.8715	0.2199
870.0336	-0
870.1957	-0
870.3577	-0.8724
870.5197	0.3142
870.6817	-0.3308
870.8437	-0.0331
871.0057	-0
871.1676	-0.5531
871.3295	-0.6177
871.4914	-0.2004
871.6533	-0.4053
871.8151	-0.301
871.977	-0
872.1388	-0
872.3006	-0
872.4623	0.9777
872.6241	0.1608
872.7858	-0.1193
872.9475	-0.2144
873.1092	-0.1722
873.2709	-0
873.4325	-0.2272
873.5941	-0
873.7557	-0
873.9173	-0.173
874.0789	-0.5242
874.2404	-0.1147
874.4019	0.2655
874.5634	-0.3376
874.7249	-0.2091
874.8863	-0.0127
875.0478	-0
875.2092	-0
875.3706	-0.0568
875.5319	1.1903
875.6933	-0
875.8546	-0.3739
876.0159	-0
876.1772	-0
876.3385	-0
876.4997	0.3041
876.6609	-0.6109
876.8221	0.8129
876.9833	-0.0217
877.1445	-0
877.3056	0.0766
877.4667	0.0216
877.6278	-0
877.7889	-0
877.9499	-0
878.111	-0
878.272	-0
878.433	-0
878.5939	0.3227
878.7549	-0.1259
878.9158	-0.6158
879.0767	0.372
879.2376	0.3587
879.3984	-0
879.5593	-0
879.7201	0.2501
879.8809	-0.3608
880.0417	-0.4027
880.2024	-0
880.3632	-0
880.5239	0.8257
880.6846	-0
880.8452	-2.5441
881.0059	-0
881.1665	0.2606
881.3271	0.3842
881.4877	-0
881.6483	-0.5824
881.8088	-0.3931
881.9693	0.4908
882.1298	0.4908
882.2903	0.4908
