Data from MonoPyChalIsomerACN10uM360nmA_Absorbance_13-57-28-404.txt Node
Date: Fri Jul 05 13:57:28 BST 2024
User: LASERRRRR
Spectrometer: FLMT03099
Trigger mode: 0
Integration Time (sec): 1.000000E-1
Scans to average: 1
Electric dark correction enabled: true
Nonlinearity correction enabled: false
Boxcar width: 0
XAxis mode: Wavelengths
Number of Pixels in Spectrum: 3648
>>>>>Begin Spectral Data<<<<<
179.3399	-0.1008
179.5586	-0.1008
179.7771	-0.1008
179.9957	-0.1117
180.2143	-0
180.4329	-0
180.6514	-0
180.8699	-0
181.0885	-0
181.307	-0.153
181.5255	-0
181.744	-0.6784
181.9625	-0
182.181	-0.7217
182.3994	0.3582
182.6179	0.2659
182.8363	-0.0095
183.0547	0.1997
183.2732	0.0827
183.4916	0.0813
183.71	0.0573
183.9284	0.3631
184.1467	0.3427
184.3651	0.0283
184.5835	-0.06
184.8018	0.1541
185.0201	0.1619
185.2385	0.1712
185.4568	0.1907
185.6751	0.1403
185.8934	0.3411
186.1117	0.1491
186.3299	0.1151
186.5482	0.0715
186.7664	0.1247
186.9847	-0.0361
187.2029	0.1878
187.4211	0.216
187.6393	0.179
187.8575	0.0904
188.0757	0.1835
188.2939	-0.0266
188.512	0.0399
188.7302	0.0749
188.9483	0.3096
189.1665	0.1098
189.3846	0.065
189.6027	0.3419
189.8208	0.122
190.0389	0.0684
190.257	0.163
190.475	0.2553
190.6931	0.3919
190.9111	0.3744
191.1292	0.4555
191.3472	0.5545
191.5652	0.3017
191.7832	0.5303
192.0012	0.434
192.2192	0.4503
192.4371	0.5868
192.6551	0.4451
192.873	0.5812
193.091	0.5631
193.3089	0.9573
193.5268	0.4623
193.7447	0.7535
193.9626	0.4331
194.1805	0.8426
194.3984	0.8738
194.6162	0.715
194.8341	0.733
195.0519	0.6302
195.2697	1.0077
195.4875	0.8189
195.7054	0.5901
195.9231	0.6257
196.1409	0.575
196.3587	0.6204
196.5765	0.7204
196.7942	0.7249
197.012	0.4743
197.2297	0.6217
197.4474	0.8818
197.6651	0.5313
197.8828	0.7242
198.1005	0.5821
198.3182	0.6573
198.5358	0.7196
198.7535	0.6017
198.9711	0.5415
199.1888	0.5887
199.4064	0.9885
199.624	0.5659
199.8416	0.5925
200.0592	0.6663
200.2767	0.6929
200.4943	0.7857
200.7119	0.618
200.9294	0.7263
201.1469	0.758
201.3645	0.4782
201.582	0.5779
201.7995	0.5586
202.017	0.6884
202.2344	0.5989
202.4519	0.5592
202.6694	0.6563
202.8868	0.5839
203.1042	0.9195
203.3217	0.6851
203.5391	0.6441
203.7565	0.5812
203.9739	0.676
204.1913	0.5777
204.4086	0.7086
204.626	0.7329
204.8433	0.6125
205.0607	0.692
205.278	0.6784
205.4953	0.5526
205.7126	0.6549
205.9299	0.7431
206.1472	0.6793
206.3644	0.6214
206.5817	0.6715
206.7989	0.6811
207.0162	0.7006
207.2334	0.6371
207.4506	0.5796
207.6678	0.7081
207.885	0.7088
208.1022	0.6986
208.3194	0.6909
208.5365	0.663
208.7537	0.6862
208.9708	0.6475
209.1879	0.6305
209.405	0.795
209.6222	0.6398
209.8392	0.6372
210.0563	0.5828
210.2734	0.6482
210.4905	0.6273
210.7075	0.6174
210.9245	0.6693
211.1416	0.6805
211.3586	0.6791
211.5756	0.5592
211.7926	0.6116
212.0096	0.5872
212.2265	0.5807
212.4435	0.6145
212.6604	0.6009
212.8774	0.5346
213.0943	0.6253
213.3112	0.5419
213.5281	0.5691
213.745	0.511
213.9619	0.5148
214.1788	0.4601
214.3956	0.4741
214.6125	0.4769
214.8293	0.4469
215.0461	0.4899
215.2629	0.4323
215.4798	0.4507
215.6965	0.4109
215.9133	0.4385
216.1301	0.4323
216.3469	0.4293
216.5636	0.4359
216.7803	0.4075
216.9971	0.3921
217.2138	0.3797
217.4305	0.3877
217.6472	0.3417
217.8639	0.3982
218.0805	0.3622
218.2972	0.343
218.5138	0.3482
218.7305	0.343
218.9471	0.3286
219.1637	0.3026
219.3803	0.2869
219.5969	0.2963
219.8135	0.27
220.0301	0.2682
220.2466	0.2587
220.4632	0.2517
220.6797	0.2238
220.8962	0.2557
221.1127	0.2557
221.3292	0.261
221.5457	0.2461
221.7622	0.2461
221.9787	0.2608
222.1951	0.24
222.4116	0.2724
222.628	0.2613
222.8444	0.268
223.0608	0.2537
223.2772	0.2592
223.4936	0.27
223.71	0.2485
223.9264	0.2774
224.1427	0.258
224.3591	0.2465
224.5754	0.2686
224.7917	0.2652
225.008	0.2741
225.2243	0.2822
225.4406	0.2805
225.6569	0.278
225.8732	0.2737
226.0894	0.2729
226.3057	0.2953
226.5219	0.291
226.7381	0.2808
226.9543	0.2877
227.1705	0.288
227.3867	0.2935
227.6029	0.2989
227.8191	0.311
228.0352	0.2953
228.2513	0.3361
228.4675	0.3141
228.6836	0.3291
228.8997	0.2984
229.1158	0.3324
229.3319	0.3161
229.548	0.3302
229.764	0.326
229.9801	0.3373
230.1961	0.3497
230.4121	0.3473
230.6282	0.3366
230.8442	0.3401
231.0602	0.3546
231.2761	0.3625
231.4921	0.3439
231.7081	0.3693
231.924	0.3479
232.14	0.3526
232.3559	0.3423
232.5718	0.3692
232.7877	0.3652
233.0036	0.3645
233.2195	0.3596
233.4353	0.3521
233.6512	0.3695
233.867	0.3804
234.0829	0.3717
234.2987	0.3815
234.5145	0.3717
234.7303	0.3623
234.9461	0.398
235.1619	0.3817
235.3776	0.3988
235.5934	0.3782
235.8091	0.3565
236.0249	0.3865
236.2406	0.4014
236.4563	0.3845
236.672	0.4138
236.8877	0.401
237.1034	0.3994
237.319	0.3997
237.5347	0.4042
237.7503	0.404
237.966	0.4259
238.1816	0.4256
238.3972	0.4317
238.6128	0.4015
238.8284	0.4148
239.0439	0.4105
239.2595	0.4177
239.475	0.4116
239.6906	0.4245
239.9061	0.4057
240.1216	0.3952
240.3371	0.4182
240.5526	0.3955
240.7681	0.3907
240.9836	0.395
241.199	0.4179
241.4145	0.3855
241.6299	0.3915
241.8453	0.3758
242.0607	0.4037
242.2761	0.3657
242.4915	0.3497
242.7069	0.3914
242.9223	0.3554
243.1376	0.3513
243.353	0.342
243.5683	0.3511
243.7836	0.3177
243.9989	0.3355
244.2142	0.3217
244.4295	0.3063
244.6448	0.3097
244.86	0.2872
245.0753	0.2891
245.2905	0.2825
245.5057	0.2961
245.721	0.2777
245.9362	0.2765
246.1514	0.2894
246.3665	0.2591
246.5817	0.2661
246.7969	0.2682
247.012	0.2527
247.2271	0.2359
247.4423	0.2473
247.6574	0.2498
247.8725	0.2216
248.0876	0.2411
248.3026	0.2383
248.5177	0.2219
248.7328	0.2173
248.9478	0.2072
249.1628	0.2184
249.3779	0.2254
249.5929	0.2102
249.8079	0.2099
250.0228	0.2123
250.2378	0.2056
250.4528	0.2037
250.6677	0.1971
250.8827	0.2033
251.0976	0.2009
251.3125	0.1902
251.5274	0.1689
251.7423	0.191
251.9572	0.1991
252.172	0.1733
252.3869	0.1906
252.6017	0.1889
252.8166	0.176
253.0314	0.1754
253.2462	0.1771
253.461	0.1939
253.6758	0.1856
253.8906	0.2
254.1053	0.1757
254.3201	0.1704
254.5348	0.1749
254.7496	0.1818
254.9643	0.172
255.179	0.1711
255.3937	0.1711
255.6083	0.1779
255.823	0.1669
256.0377	0.158
256.2523	0.1678
256.467	0.149
256.6816	0.1876
256.8962	0.1709
257.1108	0.1496
257.3254	0.1841
257.54	0.158
257.7545	0.1638
257.9691	0.1674
258.1836	0.1738
258.3981	0.1711
258.6127	0.1792
258.8272	0.1632
259.0417	0.1756
259.2561	0.1618
259.4706	0.1655
259.6851	0.1638
259.8995	0.1617
260.114	0.1674
260.3284	0.1602
260.5428	0.1563
260.7572	0.1811
260.9716	0.1691
261.186	0.153
261.4003	0.1742
261.6147	0.1709
261.829	0.1487
262.0433	0.1606
262.2577	0.1682
262.472	0.166
262.6863	0.1619
262.9005	0.1721
263.1148	0.1639
263.3291	0.151
263.5433	0.1727
263.7576	0.1506
263.9718	0.1558
264.186	0.1531
264.4002	0.153
264.6144	0.1696
264.8286	0.1692
265.0427	0.1617
265.2569	0.1532
265.471	0.1528
265.6851	0.1597
265.8993	0.1635
266.1134	0.1699
266.3275	0.1564
266.5415	0.1563
266.7556	0.1631
266.9697	0.169
267.1837	0.1646
267.3978	0.1621
267.6118	0.178
267.8258	0.1703
268.0398	0.1543
268.2538	0.1769
268.4677	0.1624
268.6817	0.1533
268.8957	0.161
269.1096	0.1717
269.3235	0.1623
269.5374	0.1586
269.7514	0.1541
269.9652	0.1554
270.1791	0.1537
270.393	0.1538
270.6068	0.1671
270.8207	0.1463
271.0345	0.142
271.2483	0.1518
271.4622	0.1404
271.676	0.1426
271.8897	0.1391
272.1035	0.1502
272.3173	0.1411
272.531	0.1421
272.7448	0.1535
272.9585	0.1428
273.1722	0.149
273.3859	0.1527
273.5996	0.1473
273.8133	0.1476
274.0269	0.1371
274.2406	0.1287
274.4542	0.1456
274.6679	0.1268
274.8815	0.1484
275.0951	0.153
275.3087	0.1507
275.5223	0.1451
275.7358	0.1542
275.9494	0.1516
276.1629	0.1373
276.3765	0.1608
276.59	0.1489
276.8035	0.1365
277.017	0.1509
277.2305	0.1491
277.444	0.1593
277.6574	0.1419
277.8709	0.1512
278.0843	0.1365
278.2978	0.1538
278.5112	0.147
278.7246	0.1524
278.938	0.1437
279.1513	0.155
279.3647	0.1507
279.5781	0.1512
279.7914	0.1587
280.0047	0.1629
280.2181	0.1448
280.4314	0.1562
280.6447	0.1604
280.8579	0.1511
281.0712	0.1692
281.2845	0.1561
281.4977	0.1647
281.711	0.1475
281.9242	0.1446
282.1374	0.1577
282.3506	0.1546
282.5638	0.1572
282.7769	0.1584
282.9901	0.1522
283.2033	0.1612
283.4164	0.1672
283.6295	0.1464
283.8426	0.1582
284.0557	0.1622
284.2688	0.1712
284.4819	0.1632
284.695	0.162
284.908	0.1653
285.1211	0.152
285.3341	0.1655
285.5471	0.1661
285.7601	0.1543
285.9731	0.153
286.1861	0.1442
286.3991	0.1447
286.612	0.1703
286.825	0.151
287.0379	0.167
287.2508	0.1545
287.4637	0.1705
287.6766	0.1648
287.8895	0.1685
288.1024	0.1863
288.3152	0.1646
288.5281	0.1575
288.7409	0.1672
288.9538	0.1741
289.1666	0.1642
289.3794	0.1659
289.5922	0.1637
289.8049	0.1703
290.0177	0.1662
290.2304	0.1619
290.4432	0.1646
290.6559	0.1667
290.8686	0.1746
291.0813	0.1669
291.294	0.1644
291.5067	0.1714
291.7194	0.1686
291.932	0.1842
292.1447	0.1649
292.3573	0.1561
292.5699	0.1615
292.7825	0.1677
292.9951	0.1688
293.2077	0.1704
293.4203	0.1603
293.6328	0.1485
293.8454	0.1672
294.0579	0.1613
294.2704	0.1726
294.4829	0.1581
294.6954	0.1604
294.9079	0.1768
295.1204	0.1714
295.3328	0.1579
295.5453	0.1619
295.7577	0.1724
295.9701	0.1577
296.1825	0.1735
296.3949	0.1723
296.6073	0.171
296.8197	0.153
297.0321	0.1767
297.2444	0.1487
297.4567	0.1616
297.6691	0.1702
297.8814	0.152
298.0937	0.1742
298.306	0.1736
298.5182	0.1582
298.7305	0.1626
298.9428	0.1601
299.155	0.1784
299.3672	0.1619
299.5794	0.1581
299.7916	0.1623
300.0038	0.1654
300.216	0.1665
300.4282	0.1685
300.6403	0.1608
300.8525	0.163
301.0646	0.1493
301.2767	0.1624
301.4888	0.16
301.7009	0.1603
301.913	0.1624
302.125	0.1665
302.3371	0.1517
302.5491	0.166
302.7612	0.1727
302.9732	0.1691
303.1852	0.1591
303.3972	0.1539
303.6092	0.1564
303.8211	0.1536
304.0331	0.1542
304.245	0.1586
304.457	0.1477
304.6689	0.147
304.8808	0.1568
305.0927	0.1569
305.3046	0.163
305.5164	0.1577
305.7283	0.1402
305.9401	0.1555
306.152	0.1509
306.3638	0.1685
306.5756	0.1329
306.7874	0.1453
306.9992	0.1514
307.2109	0.147
307.4227	0.1306
307.6344	0.1459
307.8462	0.1378
308.0579	0.1311
308.2696	0.1402
308.4813	0.1238
308.693	0.132
308.9046	0.1386
309.1163	0.1203
309.328	0.1321
309.5396	0.1213
309.7512	0.1247
309.9628	0.1238
310.1744	0.1193
310.386	0.1186
310.5976	0.1241
310.8091	0.1306
311.0207	0.1214
311.2322	0.1175
311.4437	0.1062
311.6552	0.1124
311.8667	0.1118
312.0782	0.1091
312.2897	0.1086
312.5012	0.1049
312.7126	0.1078
312.924	0.1126
313.1355	0.1178
313.3469	0.1026
313.5583	0.1087
313.7696	0.1046
313.981	0.1036
314.1924	0.1048
314.4037	0.0918
314.6151	0.114
314.8264	0.0963
315.0377	0.0988
315.249	0.1057
315.4603	0.1128
315.6716	0.1051
315.8828	0.0934
316.0941	0.1083
316.3053	0.0895
316.5165	0.0927
316.7277	0.0943
316.9389	0.098
317.1501	0.0982
317.3613	0.1017
317.5724	0.0896
317.7836	0.1015
317.9947	0.0953
318.2058	0.0949
318.417	0.0963
318.6281	0.0833
318.8391	0.0977
319.0502	0.096
319.2613	0.101
319.4723	0.111
319.6834	0.1007
319.8944	0.092
320.1054	0.0961
320.3164	0.1079
320.5274	0.104
320.7383	0.1118
320.9493	0.0954
321.1602	0.114
321.3712	0.0873
321.5821	0.086
321.793	0.1113
322.0039	0.1011
322.2148	0.1007
322.4257	0.112
322.6365	0.1072
322.8474	0.1008
323.0582	0.1068
323.269	0.1032
323.4798	0.1126
323.6906	0.101
323.9014	0.0958
324.1122	0.1101
324.3229	0.1062
324.5337	0.0986
324.7444	0.0906
324.9551	0.1242
325.1658	0.1139
325.3765	0.1103
325.5872	0.1044
325.7979	0.0972
326.0085	0.1016
326.2192	0.1093
326.4298	0.1054
326.6404	0.0969
326.851	0.1028
327.0616	0.0925
327.2722	0.102
327.4828	0.109
327.6933	0.1036
327.9039	0.1017
328.1144	0.1083
328.3249	0.1113
328.5354	0.0969
328.7459	0.1039
328.9564	0.1007
329.1669	0.0927
329.3773	0.0983
329.5878	0.0983
329.7982	0.107
330.0086	0.1005
330.219	0.1041
330.4294	0.0988
330.6398	0.1046
330.8502	0.0914
331.0605	0.1086
331.2708	0.1067
331.4812	0.1122
331.6915	0.1107
331.9018	0.1212
332.1121	0.1101
332.3224	0.1158
332.5326	0.1128
332.7429	0.1155
332.9531	0.1139
333.1633	0.1115
333.3735	0.1093
333.5837	0.1085
333.7939	0.1027
334.0041	0.117
334.2143	0.1187
334.4244	0.1059
334.6346	0.0912
334.8447	0.1232
335.0548	0.1232
335.2649	0.1011
335.475	0.1086
335.685	0.108
335.8951	0.129
336.1051	0.1025
336.3152	0.1132
336.5252	0.1055
336.7352	0.12
336.9452	0.121
337.1552	0.1163
337.3652	0.1104
337.5751	0.1147
337.7851	0.1093
337.995	0.108
338.2049	0.1127
338.4148	0.1126
338.6247	0.1276
338.8346	0.109
339.0445	0.1108
339.2543	0.1044
339.4642	0.1219
339.674	0.1055
339.8838	0.1148
340.0936	0.1155
340.3034	0.1175
340.5132	0.1307
340.7229	0.1183
340.9327	0.1201
341.1424	0.1157
341.3522	0.1351
341.5619	0.1353
341.7716	0.116
341.9813	0.1247
342.1909	0.1104
342.4006	0.1239
342.6102	0.1366
342.8199	0.1209
343.0295	0.1234
343.2391	0.1297
343.4487	0.1279
343.6583	0.127
343.8679	0.1302
344.0774	0.1327
344.287	0.1289
344.4965	0.1112
344.706	0.1374
344.9155	0.1303
345.125	0.1345
345.3345	0.1357
345.544	0.1302
345.7534	0.1256
345.9629	0.1282
346.1723	0.1223
346.3817	0.1251
346.5911	0.1299
346.8005	0.1417
347.0099	0.1274
347.2193	0.1438
347.4286	0.1245
347.638	0.1369
347.8473	0.1357
348.0566	0.146
348.2659	0.1337
348.4752	0.1433
348.6845	0.1321
348.8937	0.1335
349.103	0.1407
349.3122	0.137
349.5214	0.1437
349.7306	0.1427
349.9398	0.1368
350.149	0.1386
350.3582	0.1353
350.5674	0.1452
350.7765	0.1436
350.9856	0.1423
351.1948	0.1525
351.4039	0.1318
351.613	0.1436
351.822	0.1415
352.0311	0.1516
352.2402	0.1419
352.4492	0.1542
352.6582	0.1496
352.8672	0.1425
353.0762	0.1468
353.2852	0.1579
353.4942	0.1458
353.7032	0.1537
353.9121	0.149
354.1211	0.1464
354.33	0.1517
354.5389	0.159
354.7478	0.1562
354.9567	0.1514
355.1655	0.1522
355.3744	0.1506
355.5833	0.1574
355.7921	0.1618
356.0009	0.1603
356.2097	0.1747
356.4185	0.1653
356.6273	0.1593
356.8361	0.1683
357.0448	0.1526
357.2536	0.1587
357.4623	0.1488
357.671	0.1658
357.8797	0.1706
358.0884	0.1672
358.2971	0.1536
358.5057	0.1735
358.7144	0.1675
358.923	0.1655
359.1316	0.1721
359.3402	0.168
359.5488	0.1743
359.7574	0.1556
359.966	0.1712
360.1746	0.1694
360.3831	0.1767
360.5916	0.1743
360.8002	0.1585
361.0087	0.1805
361.2172	0.174
361.4256	0.1651
361.6341	0.1874
361.8426	0.1835
362.051	0.1688
362.2594	0.1823
362.4678	0.1811
362.6762	0.1903
362.8846	0.1928
363.093	0.1791
363.3014	0.1825
363.5097	0.1733
363.718	0.1884
363.9264	0.1799
364.1347	0.1804
364.343	0.1847
364.5513	0.2061
364.7595	0.1956
364.9678	0.1905
365.176	0.1932
365.3842	0.1823
365.5925	0.1938
365.8007	0.196
366.0089	0.1947
366.217	0.1878
366.4252	0.2201
366.6333	0.2109
366.8415	0.206
367.0496	0.1995
367.2577	0.2133
367.4658	0.2139
367.6739	0.2052
367.882	0.199
368.09	0.1983
368.2981	0.2061
368.5061	0.1971
368.7141	0.2207
368.9221	0.2067
369.1301	0.2013
369.3381	0.214
369.5461	0.2203
369.754	0.201
369.962	0.2034
370.1699	0.2018
370.3778	0.2114
370.5857	0.2098
370.7936	0.2077
371.0015	0.2213
371.2093	0.229
371.4172	0.2305
371.625	0.2014
371.8328	0.213
372.0406	0.2136
372.2484	0.2181
372.4562	0.2279
372.664	0.2064
372.8717	0.2221
373.0795	0.21
373.2872	0.2359
373.4949	0.2334
373.7026	0.2279
373.9103	0.2289
374.118	0.2233
374.3256	0.2169
374.5333	0.2164
374.7409	0.2309
374.9485	0.2432
375.1561	0.2324
375.3637	0.2357
375.5713	0.2354
375.7789	0.2223
375.9864	0.2286
376.194	0.2342
376.4015	0.2323
376.609	0.2421
376.8165	0.22
377.024	0.223
377.2315	0.2313
377.4389	0.252
377.6464	0.235
377.8538	0.2557
378.0612	0.2431
378.2686	0.2475
378.476	0.2634
378.6834	0.2429
378.8908	0.2332
379.0981	0.2375
379.3055	0.2447
379.5128	0.2256
379.7201	0.2561
379.9274	0.2328
380.1347	0.2548
380.342	0.2547
380.5492	0.2393
380.7565	0.2511
380.9637	0.2482
381.1709	0.2571
381.3781	0.2464
381.5853	0.2583
381.7925	0.2624
381.9997	0.2417
382.2068	0.2554
382.4139	0.2553
382.6211	0.2365
382.8282	0.2571
383.0353	0.2531
383.2424	0.2411
383.4494	0.2721
383.6565	0.25
383.8635	0.25
384.0706	0.2711
384.2776	0.2739
384.4846	0.2274
384.6916	0.2507
384.8986	0.252
385.1055	0.2499
385.3125	0.2597
385.5194	0.2451
385.7263	0.266
385.9333	0.2424
386.1402	0.253
386.347	0.2647
386.5539	0.2509
386.7608	0.2584
386.9676	0.2608
387.1744	0.2522
387.3813	0.2194
387.5881	0.2571
387.7948	0.2575
388.0016	0.2475
388.2084	0.2526
388.4151	0.2423
388.6219	0.2603
388.8286	0.2469
389.0353	0.2604
389.242	0.239
389.4487	0.2314
389.6553	0.2296
389.862	0.2243
390.0686	0.2249
390.2753	0.2359
390.4819	0.2452
390.6885	0.2484
390.8951	0.2448
391.1016	0.2328
391.3082	0.2439
391.5147	0.245
391.7213	0.2277
391.9278	0.2257
392.1343	0.2461
392.3408	0.2126
392.5473	0.2355
392.7537	0.2337
392.9602	0.2309
393.1666	0.2314
393.373	0.2208
393.5794	0.2298
393.7858	0.2202
393.9922	0.213
394.1986	0.2255
394.4049	0.2215
394.6113	0.209
394.8176	0.2185
395.0239	0.2178
395.2302	0.205
395.4365	0.2135
395.6428	0.2192
395.8491	0.214
396.0553	0.2151
396.2615	0.2102
396.4678	0.2093
396.674	0.2017
396.8802	0.2285
397.0863	0.2308
397.2925	0.1966
397.4987	0.2166
397.7048	0.2089
397.9109	0.2276
398.117	0.1928
398.3231	0.2015
398.5292	0.2306
398.7353	0.227
398.9413	0.2044
399.1474	0.2101
399.3534	0.2097
399.5594	0.1859
399.7654	0.2175
399.9714	0.2207
400.1774	0.2267
400.3833	0.1937
400.5893	0.2106
400.7952	0.2067
401.0011	0.2035
401.207	0.2241
401.4129	0.2086
401.6188	0.2144
401.8247	0.2101
402.0305	0.2124
402.2364	0.2068
402.4422	0.2192
402.648	0.2248
402.8538	0.2153
403.0596	0.2012
403.2654	0.2293
403.4711	0.2052
403.6768	0.2105
403.8826	0.216
404.0883	0.2209
404.294	0.1988
404.4997	0.2166
404.7054	0.2205
404.911	0.1995
405.1167	0.2158
405.3223	0.2244
405.5279	0.2172
405.7335	0.2081
405.9391	0.2048
406.1447	0.1918
406.3502	0.2175
406.5558	0.1923
406.7613	0.2121
406.9668	0.196
407.1724	0.1981
407.3778	0.2136
407.5833	0.2089
407.7888	0.2072
407.9942	0.214
408.1997	0.1997
408.4051	0.1984
408.6105	0.2205
408.8159	0.1978
409.0213	0.2129
409.2267	0.2212
409.432	0.2069
409.6374	0.2147
409.8427	0.2042
410.048	0.2054
410.2533	0.2027
410.4586	0.1975
410.6639	0.2089
410.8691	0.2133
411.0744	0.2176
411.2796	0.1928
411.4848	0.2018
411.69	0.2191
411.8952	0.2386
412.1004	0.2089
412.3056	0.2038
412.5107	0.2048
412.7158	0.2126
412.921	0.1996
413.1261	0.2039
413.3312	0.1864
413.5362	0.1951
413.7413	0.1947
413.9464	0.1909
414.1514	0.1999
414.3564	0.2005
414.5614	0.194
414.7664	0.2143
414.9714	0.2153
415.1764	0.2025
415.3813	0.2126
415.5863	0.1908
415.7912	0.2
415.9961	0.1977
416.201	0.2158
416.4059	0.2186
416.6108	0.1937
416.8156	0.2008
417.0205	0.1972
417.2253	0.1804
417.4301	0.2007
417.6349	0.2044
417.8397	0.1911
418.0445	0.1947
418.2492	0.1965
418.454	0.1953
418.6587	0.1949
418.8634	0.2017
419.0681	0.1905
419.2728	0.1887
419.4775	0.1955
419.6822	0.1869
419.8868	0.1689
420.0915	0.1851
420.2961	0.1907
420.5007	0.1712
420.7053	0.2005
420.9099	0.1855
421.1144	0.1948
421.319	0.1758
421.5235	0.1795
421.728	0.1816
421.9325	0.1936
422.137	0.1817
422.3415	0.1952
422.546	0.1787
422.7504	0.1878
422.9549	0.1871
423.1593	0.1814
423.3637	0.1896
423.5681	0.1763
423.7725	0.171
423.9769	0.1526
424.1812	0.1612
424.3856	0.1656
424.5899	0.1831
424.7942	0.1728
424.9985	0.1668
425.2028	0.1688
425.4071	0.1937
425.6113	0.1569
425.8156	0.192
426.0198	0.1616
426.224	0.1692
426.4282	0.1663
426.6324	0.1652
426.8366	0.1747
427.0407	0.1546
427.2449	0.1627
427.449	0.1705
427.6531	0.1447
427.8572	0.156
428.0613	0.1395
428.2654	0.1539
428.4694	0.1472
428.6735	0.161
428.8775	0.1782
429.0815	0.1721
429.2855	0.1338
429.4895	0.1419
429.6935	0.1447
429.8975	0.148
430.1014	0.1352
430.3053	0.149
430.5093	0.1472
430.7132	0.1397
430.9171	0.1343
431.1209	0.1349
431.3248	0.1324
431.5286	0.1428
431.7325	0.135
431.9363	0.1177
432.1401	0.1374
432.3439	0.1178
432.5477	0.122
432.7514	0.1223
432.9552	0.1307
433.1589	0.1171
433.3627	0.1233
433.5664	0.1192
433.7701	0.1114
433.9737	0.1073
434.1774	0.1298
434.3811	0.1352
434.5847	0.1254
434.7883	0.1197
434.9919	0.1134
435.1955	0.1192
435.3991	0.0918
435.6027	0.1078
435.8062	0.0993
436.0098	0.0915
436.2133	0.0952
436.4168	0.0978
436.6203	0.1086
436.8238	0.1084
437.0272	0.1069
437.2307	0.0972
437.4341	0.1173
437.6375	0.0926
437.841	0.1004
438.0443	0.098
438.2477	0.0851
438.4511	0.0786
438.6545	0.0857
438.8578	0.0973
439.0611	0.0813
439.2644	0.074
439.4677	0.0725
439.671	0.0758
439.8743	0.0796
440.0775	0.0906
440.2808	0.0785
440.484	0.0747
440.6872	0.0661
440.8904	0.0711
441.0936	0.0811
441.2967	0.0845
441.4999	0.0788
441.703	0.0786
441.9062	0.0597
442.1093	0.0726
442.3124	0.0626
442.5155	0.0532
442.7185	0.0509
442.9216	0.0427
443.1246	0.0745
443.3276	0.0549
443.5307	0.0474
443.7337	0.0637
443.9366	0.0671
444.1396	0.055
444.3426	0.0588
444.5455	0.0581
444.7484	0.0621
444.9513	0.0625
445.1542	0.0528
445.3571	0.0528
445.56	0.0585
445.7628	0.0336
445.9657	0.0528
446.1685	0.0548
446.3713	0.0503
446.5741	0.0447
446.7769	0.0362
446.9797	0.0375
447.1824	0.0416
447.3852	0.0271
447.5879	0.0549
447.7906	0.0426
447.9933	0.0558
448.196	0.0231
448.3986	0.0333
448.6013	0.0325
448.8039	0.0229
449.0066	0.0111
449.2092	0.0426
449.4118	0.0351
449.6143	0.0448
449.8169	0.0379
450.0195	0.0302
450.222	0.015
450.4245	0.0278
450.627	0.0365
450.8295	0.0342
451.032	0.0361
451.2345	0.0321
451.4369	0.0256
451.6394	0.0432
451.8418	0.0146
452.0442	0.0161
452.2466	0.0275
452.449	0.013
452.6513	0.0263
452.8537	0.0237
453.056	0.0102
453.2583	0.0201
453.4607	0.0164
453.663	0.0172
453.8652	0.0203
454.0675	0.0083
454.2697	0.0175
454.472	0.0016
454.6742	0.0257
454.8764	0.0155
455.0786	0.0236
455.2808	0.0185
455.4829	0.0114
455.6851	0.0176
455.8872	0.0295
456.0893	0.0198
456.2915	0.0052
456.4935	0.0219
456.6956	0.0112
456.8977	0.0259
457.0997	0.0129
457.3018	0.0013
457.5038	0.0141
457.7058	0.0059
457.9078	0.0126
458.1098	0.0131
458.3117	0.0153
458.5137	0.0057
458.7156	0.0156
458.9175	-0.0042
459.1194	0.0081
459.3213	0.0142
459.5232	0.0044
459.725	0.0062
459.9269	0.0162
460.1287	-0.0002
460.3305	0.0043
460.5323	-0.0011
460.7341	0.0114
460.9359	-0.0005
461.1376	0.0052
461.3394	0.0029
461.5411	0.0173
461.7428	0.0045
461.9445	0.0227
462.1462	0.0375
462.3479	0.0016
462.5495	0.0024
462.7512	-0.0009
462.9528	-0.0053
463.1544	-0.0057
463.356	0.0079
463.5576	0.013
463.7592	0.0023
463.9607	0.0071
464.1623	0.0126
464.3638	0.0219
464.5653	-0.0131
464.7668	-0.0085
464.9683	0.0203
465.1697	0.0104
465.3712	0.0021
465.5726	-0.009
465.7741	-0.0055
465.9755	0.0043
466.1769	0.0034
466.3782	0.0053
466.5796	-0.0092
466.7809	0.0073
466.9823	0.0028
467.1836	0.0001
467.3849	0.0024
467.5862	-0.0108
467.7875	0.0031
467.9887	0.0055
468.19	0.0122
468.3912	-0.0082
468.5924	-0.0074
468.7936	0.0087
468.9948	0.0021
469.196	0.0161
469.3972	-0.0109
469.5983	0.0037
469.7994	-0.0161
470.0006	0.0056
470.2017	-0.0082
470.4027	0.0018
470.6038	-0.0055
470.8049	-0.0168
471.0059	-0.0159
471.2069	-0.0263
471.408	0.0105
471.6089	-0.0085
471.8099	0.0066
472.0109	0.0075
472.2119	-0.0093
472.4128	0.0039
472.6137	-0.0006
472.8146	-0.016
473.0155	-0.0081
473.2164	0.0152
473.4173	0.0115
473.6181	0.0029
473.819	0.0095
474.0198	-0.0045
474.2206	0.0031
474.4214	-0.0098
474.6222	-0.0037
474.8229	-0.005
475.0237	-0.0119
475.2244	-0.0124
475.4251	-0.0119
475.6258	-0.0066
475.8265	-0.0123
476.0272	0.005
476.2278	0.0022
476.4285	-0.0081
476.6291	-0.0153
476.8297	-0.011
477.0303	-0.0122
477.2309	0.001
477.4315	-0.0157
477.632	-0.0124
477.8326	-0.0045
478.0331	0.0001
478.2336	0.006
478.4341	-0.0016
478.6346	-0.004
478.8351	-0.0062
479.0355	0.0031
479.236	0.0027
479.4364	-0.0008
479.6368	-0.0019
479.8372	-0.0041
480.0376	0.0012
480.2379	-0.0185
480.4383	-0.0118
480.6386	-0.0001
480.8389	-0.0009
481.0392	-0.009
481.2395	-0.0061
481.4398	0.0032
481.6401	0.0051
481.8403	-0.0001
482.0405	-0.0142
482.2408	-0.0003
482.441	0.016
482.6411	-0.0068
482.8413	-0.0039
483.0415	-0.0112
483.2416	0.0035
483.4417	0.005
483.6419	0.0166
483.8419	0.0061
484.042	0.0106
484.2421	0.0113
484.4422	-0.0013
484.6422	-0.0015
484.8422	-0.0077
485.0422	-0.0057
485.2422	-0.0002
485.4422	-0.009
485.6422	-0.0053
485.8421	0.004
486.042	0.0036
486.242	-0.0012
486.4419	-0.0131
486.6417	-0.0112
486.8416	-0.0046
487.0415	0.0047
487.2413	-0.0004
487.4411	-0.0009
487.641	-0.003
487.8408	0.0042
488.0405	-0.0076
488.2403	-0.0021
488.4401	-0.0043
488.6398	-0.0001
488.8395	-0.0053
489.0392	0.0061
489.2389	-0.0036
489.4386	-0.0102
489.6383	0.0037
489.8379	0.0012
490.0376	0.0057
490.2372	-0.0041
490.4368	-0.0134
490.6364	-0.0099
490.836	-0.0022
491.0355	-0.0076
491.2351	0.0004
491.4346	0.0015
491.6341	-0.0137
491.8336	0.0107
492.0331	-0.0071
492.2326	-0.0131
492.432	-0.0104
492.6315	-0.003
492.8309	-0.0145
493.0303	-0.0084
493.2297	-0.0096
493.4291	-0.0059
493.6284	-0.0101
493.8278	-0.0066
494.0271	0.0059
494.2264	0.0062
494.4257	-0.0173
494.625	0.0029
494.8243	-0.0122
495.0236	-0.0039
495.2228	-0.0163
495.422	0.01
495.6213	-0.0097
495.8205	-0.0049
496.0196	-0.0064
496.2188	-0.0006
496.418	-0.0066
496.6171	-0.0118
496.8162	-0.0146
497.0153	-0.0001
497.2144	-0.0103
497.4135	0.0013
497.6126	-0.0135
497.8116	-0.0112
498.0107	-0.005
498.2097	-0.0145
498.4087	-0.0085
498.6077	0.0005
498.8067	-0.0073
499.0056	-0.003
499.2046	-0.0003
499.4035	-0.0212
499.6024	-0
499.8013	-0.0053
500.0002	-0.0201
500.199	-0.0025
500.3979	-0.0001
500.5967	-0.0249
500.7956	-0.0021
500.9944	-0.0081
501.1932	-0.0088
501.3919	-0.0182
501.5907	-0.0134
501.7895	-0.0089
501.9882	-0.0048
502.1869	-0.0114
502.3856	-0.0139
502.5843	-0.0075
502.783	-0.0079
502.9816	-0.0074
503.1803	-0.0145
503.3789	-0.0104
503.5775	-0.0041
503.7761	-0.0072
503.9747	0.0061
504.1732	-0.0143
504.3718	-0.0051
504.5703	-0.0074
504.7689	-0.0164
504.9674	-0.0026
505.1658	-0.0017
505.3643	0.0011
505.5628	-0.0064
505.7612	-0.0016
505.9597	0.0047
506.1581	-0.0062
506.3565	0.0048
506.5549	-0.0051
506.7532	-0.017
506.9516	-0.0106
507.1499	-0.0078
507.3482	-0.0082
507.5465	-0.0031
507.7448	-0.0038
507.9431	-0.0062
508.1414	0.0029
508.3396	-0.0042
508.5379	-0.0004
508.7361	-0.0119
508.9343	0.0008
509.1325	-0.0026
509.3306	0.004
509.5288	-0.0031
509.7269	-0.0117
509.9251	0.0014
510.1232	-0.0119
510.3213	0.0018
510.5193	0.008
510.7174	-0.0112
510.9154	-0.0092
511.1135	-0.0123
511.3115	-0.0059
511.5095	-0.0098
511.7075	-0.0086
511.9055	-0.0092
512.1034	-0.0057
512.3014	-0.0011
512.4993	0.0021
512.6972	-0.0052
512.8951	-0.0166
513.093	-0.0095
513.2908	-0.0044
513.4887	0.0052
513.6865	-0.003
513.8844	-0.0097
514.0822	-0.0062
514.2799	-0.0087
514.4777	-0.007
514.6755	-0.0106
514.8732	-0.0108
515.0709	-0.0069
515.2687	-0.0135
515.4664	-0.0008
515.664	-0.0026
515.8617	-0.0068
516.0594	-0.0133
516.257	-0.0027
516.4546	-0.0079
516.6522	0.0052
516.8498	-0.0123
517.0474	0.0018
517.2449	-0.0011
517.4425	-0.0116
517.64	-0.0015
517.8375	-0.0049
518.035	-0.006
518.2325	-0.0127
518.43	-0.0021
518.6274	-0.013
518.8249	-0.0084
519.0223	0.0025
519.2197	-0.0082
519.4171	-0.008
519.6145	-0.0191
519.8118	-0.0056
520.0092	-0.007
520.2065	-0.0123
520.4038	-0.0017
520.6011	-0.0068
520.7984	-0.0023
520.9956	-0.0051
521.1929	-0.0211
521.3901	-0.0088
521.5874	-0.0018
521.7846	-0.0109
521.9818	-0.0179
522.1789	-0.0193
522.3761	-0.0068
522.5732	-0.0041
522.7704	-0.0068
522.9675	0.001
523.1646	-0.0135
523.3617	-0.0006
523.5587	-0.0019
523.7558	0.0024
523.9528	0.0091
524.1498	0.0035
524.3468	-0.0127
524.5438	-0.0063
524.7408	-0.0044
524.9378	-0
525.1347	-0.004
525.3316	-0.0029
525.5285	-0.0127
525.7254	-0.0078
525.9223	-0.0055
526.1192	-0.0023
526.316	-0.0135
526.5129	-0.0045
526.7097	0.0037
526.9065	-0.001
527.1033	-0.0113
527.3	0.0068
527.4968	-0.0051
527.6935	0.0044
527.8903	-0.0184
528.087	-0.0038
528.2837	0.0037
528.4804	-0.011
528.677	-0.0023
528.8737	0.0135
529.0703	0.002
529.2669	-0.006
529.4635	-0.0023
529.6601	-0.0064
529.8567	-0.0059
530.0532	-0.0043
530.2498	0.005
530.4463	0.0067
530.6428	-0.0062
530.8393	0.0069
531.0358	-0.0022
531.2322	-0.002
531.4287	0.0044
531.6251	-0.0111
531.8215	-0.0073
532.0179	-0.0055
532.2143	0.0006
532.4107	-0.0003
532.607	-0.0052
532.8034	0.0042
532.9997	-0.0015
533.196	-0.0047
533.3923	-0.0038
533.5886	-0.0005
533.7848	0.0012
533.9811	-0.0038
534.1773	0.0028
534.3735	0.0163
534.5697	0.0024
534.7659	-0.0049
534.9621	0.003
535.1582	-0.0147
535.3544	-0.0076
535.5505	-0.0149
535.7466	-0.0033
535.9427	-0.0038
536.1387	-0.0023
536.3348	-0.0065
536.5308	-0.001
536.7269	-0.016
536.9229	0.0052
537.1189	-0.0037
537.3148	0.0025
537.5108	-0.0107
537.7068	-0.0077
537.9027	0.0001
538.0986	-0.0018
538.2945	-0.0117
538.4904	0.0006
538.6863	-0.0172
538.8821	-0.005
539.078	-0.0079
539.2738	0.0058
539.4696	-0.0029
539.6654	0.0037
539.8611	0.0071
540.0569	-0.0052
540.2526	0.0014
540.4484	-0.005
540.6441	0.0067
540.8398	0.0013
541.0355	0.0004
541.2311	-0.0008
541.4268	-0.0098
541.6224	0.0051
541.818	0.0046
542.0136	0.0017
542.2092	0.0005
542.4048	0.0014
542.6003	0.0013
542.7959	-0.0074
542.9914	-0.0076
543.1869	-0.0041
543.3824	-0.0026
543.5779	-0.0009
543.7734	-0.0076
543.9688	-0.0108
544.1642	-0.0046
544.3596	0.0017
544.555	0.0001
544.7504	0.0051
544.9458	-0.0127
545.1411	-0.0053
545.3365	-0.0062
545.5318	-0.0136
545.7271	0.0032
545.9224	-0.0082
546.1177	0.0071
546.3129	0.0053
546.5081	-0.0018
546.7034	0.0006
546.8986	-0.0046
547.0938	-0.0081
547.289	-0.0052
547.4841	0.0079
547.6793	0.0135
547.8744	-0.0064
548.0695	-0.0017
548.2646	-0.0044
548.4597	0.0094
548.6548	-0.0035
548.8498	0.003
549.0448	0.0078
549.2399	-0.0076
549.4349	0.0062
549.6298	0.0021
549.8248	0.0027
550.0198	0.0007
550.2147	-0.0033
550.4096	0.0007
550.6045	0.0018
550.7994	-0.0013
550.9943	0.0077
551.1892	-0.0026
551.384	0.0084
551.5788	-0.0069
551.7737	0.0034
551.9685	-0.0009
552.1632	-0.0015
552.358	-0.0051
552.5528	-0.0005
552.7475	-0.004
552.9422	-0.0059
553.1369	-0.004
553.3316	0.0001
553.5263	-0.0074
553.7209	0.0007
553.9156	-0.0026
554.1102	-0.0047
554.3048	0.0008
554.4994	0.012
554.694	-0.0096
554.8885	-0.0002
555.0831	-0.0044
555.2776	-0.0093
555.4721	0.0014
555.6666	-0.0026
555.8611	0.0084
556.0555	-0.0004
556.25	-0.0023
556.4444	-0.0027
556.6388	-0.002
556.8332	0.0027
557.0276	-0.0002
557.222	0.0003
557.4163	-0.0045
557.6107	-0.0074
557.805	0.0017
557.9993	-0.0043
558.1936	-0.0048
558.3879	0.0037
558.5821	0.0034
558.7764	-0.0018
558.9706	-0.001
559.1648	0.0077
559.359	0.0038
559.5532	-0.0063
559.7473	0.0032
559.9415	-0.0008
560.1356	0.0022
560.3297	-0.0116
560.5238	-0.0025
560.7179	-0.0021
560.9119	0.0039
561.106	-0.011
561.3	-0.0055
561.494	-0.007
561.688	-0.0073
561.882	-0.0101
562.076	-0.0022
562.2699	-0.0022
562.4639	0.0005
562.6578	-0.0013
562.8517	-0.0037
563.0456	-0.002
563.2395	-0.0013
563.4333	0.0032
563.6272	0.0067
563.821	-0.0004
564.0148	-0.0045
564.2086	-0.0076
564.4024	-0.0079
564.5961	-0.0019
564.7899	0.0097
564.9836	-0.0004
565.1773	-0.0033
565.371	0.0119
565.5647	0.0063
565.7584	0.0086
565.952	0.0076
566.1456	-0.0043
566.3393	-0.0006
566.5329	-0.0055
566.7264	-0.0024
566.92	-0.0008
567.1136	0.0053
567.3071	0.0036
567.5006	0.0025
567.6941	-0.001
567.8876	0.0003
568.0811	-0.0006
568.2745	0.0048
568.468	0.0113
568.6614	0.0018
568.8548	0.0002
569.0482	-0.0037
569.2416	0.0079
569.4349	0.0012
569.6283	0.0104
569.8216	-0.0008
570.0149	0.0043
570.2082	0.0074
570.4015	0.0101
570.5947	0.0106
570.788	0.0055
570.9812	0.0022
571.1744	-0.0011
571.3676	-0.0017
571.5608	0.0049
571.754	0.0017
571.9471	0.0008
572.1402	0.0023
572.3333	-0.006
572.5264	-0.0058
572.7195	-0.0076
572.9126	0.0069
573.1057	0.001
573.2987	-0.0022
573.4917	-0.0013
573.6847	-0.0059
573.8777	0.0058
574.0707	0.0082
574.2636	-0.0016
574.4566	-0.0039
574.6495	0.0111
574.8424	0.0057
575.0353	-0.0017
575.2281	0.0097
575.421	0.0016
575.6138	0.0054
575.8067	-0.0074
575.9995	0.0052
576.1923	0.0038
576.385	0.0013
576.5778	-0.001
576.7706	0.0039
576.9633	0.0006
577.156	0.0069
577.3487	0.0059
577.5414	0.001
577.734	-0.0005
577.9267	0.0085
578.1193	-0.0048
578.3119	-0.002
578.5045	0.0023
578.6971	0.0013
578.8897	0.0084
579.0822	-0.0021
579.2747	0.0029
579.4673	0.003
579.6598	-0.0046
579.8522	0.0044
580.0447	-0.0037
580.2372	0.0019
580.4296	0.0075
580.622	0.0072
580.8144	0.0026
581.0068	0.0001
581.1992	-0.0085
581.3915	0.0009
581.5839	-0.0101
581.7762	-0.0048
581.9685	-0.0015
582.1608	0.0036
582.353	0.0056
582.5453	-0.0011
582.7375	0.0046
582.9298	0.0071
583.122	0.0043
583.3142	0.0049
583.5063	0.0054
583.6985	0.0101
583.8906	0.0002
584.0827	-0.0009
584.2749	0.0046
584.4669	0.0067
584.659	0.001
584.8511	0.0028
585.0431	0.0024
585.2352	0.0042
585.4272	0.0084
585.6192	0.0097
585.8111	0.0042
586.0031	0.0072
586.195	0.0085
586.387	0.0052
586.5789	0.0023
586.7708	0.0079
586.9627	0.0011
587.1545	-0.0021
587.3464	-0.0021
587.5382	0.0054
587.73	0.0075
587.9218	0.0071
588.1136	-0.001
588.3053	0.0051
588.4971	-0.0046
588.6888	-0.0056
588.8805	0.0059
589.0722	0.0031
589.2639	-0.0026
589.4556	0.0074
589.6472	0.004
589.8389	-0.0069
590.0305	-0.0034
590.2221	0.0074
590.4137	-0.0064
590.6052	0.0068
590.7968	0.0038
590.9883	0.0039
591.1798	0.0027
591.3713	0.0072
591.5628	0.003
591.7543	0.0094
591.9458	0.0066
592.1372	0.0075
592.3286	0.0133
592.52	0.012
592.7114	0.002
592.9028	0.0041
593.0941	0.0007
593.2855	-0
593.4768	0.0003
593.6681	-0.0022
593.8594	0.0011
594.0506	0.0023
594.2419	0.0143
594.4331	0.0056
594.6244	0.001
594.8156	-0.0054
595.0067	0.0025
595.1979	0.0041
595.3891	-0.003
595.5802	0.0017
595.7713	-0.0022
595.9624	-0.0077
596.1535	-0.0007
596.3446	-0.0044
596.5357	-0.0013
596.7267	0.008
596.9177	0.0022
597.1087	0.0008
597.2997	-0.0014
597.4907	0.0068
597.6817	-0.0052
597.8726	0.0059
598.0635	-0.0079
598.2544	0.0064
598.4453	-0.0009
598.6362	-0.002
598.827	0.0006
599.0179	0.0066
599.2087	0.0042
599.3995	-0.0012
599.5903	-0.0024
599.7811	0.0008
599.9718	0.0001
600.1626	-0.0004
600.3533	-0.003
600.544	0.0069
600.7347	-0.0014
600.9254	0.0063
601.116	-0.0086
601.3067	0.0046
601.4973	-0.0022
601.6879	0.0071
601.8785	0.0013
602.0691	0.0118
602.2596	0.0106
602.4502	0.004
602.6407	0.0075
602.8312	0.0081
603.0217	-0.0053
603.2122	0.0074
603.4027	-0.0011
603.5931	-0.0003
603.7835	0.0047
603.9739	-0.0031
604.1643	0.0003
604.3547	-0.0053
604.5451	-0.0006
604.7354	0.0046
604.9257	0.0002
605.116	0.0027
605.3063	0.0097
605.4966	0.0047
605.6869	0.0058
605.8771	0.007
606.0673	0.0064
606.2575	0.0055
606.4477	0.0047
606.6379	0.0082
606.8281	0.0028
607.0182	0.0039
607.2083	0.016
607.3985	-0.0018
607.5885	0.0038
607.7786	0.006
607.9687	-0.0023
608.1587	0.0054
608.3488	-0.003
608.5388	0.0019
608.7288	0.0001
608.9187	-0.0069
609.1087	0.0006
609.2986	-0.0053
609.4886	-0.0024
609.6785	-0.0019
609.8684	0.0085
610.0582	0.0027
610.2481	0.002
610.4379	0.0064
610.6278	0.0047
610.8176	0
611.0074	0.0013
611.1971	-0.002
611.3869	0.0004
611.5766	-0.0077
611.7664	0.0116
611.9561	0.0065
612.1458	0.0074
612.3354	0.0015
612.5251	0.0052
612.7147	-0.0012
612.9044	0.0099
613.094	-0.0033
613.2836	0.0081
613.4731	-0.0025
613.6627	-0.0009
613.8522	0.0009
614.0417	0.0083
614.2313	-0.0033
614.4207	-0.0058
614.6102	0.001
614.7997	0.0029
614.9891	-0.0085
615.1785	0.0043
615.3679	-0.0048
615.5573	0.0046
615.7467	-0.0028
615.9361	-0.0043
616.1254	-0.0004
616.3147	0.0016
616.504	0.0018
616.6933	0.0051
616.8826	0.0068
617.0718	0.0055
617.2611	0.0033
617.4503	-0.0032
617.6395	0.0028
617.8287	0.0002
618.0179	-0.0067
618.207	0.0165
618.3961	0.0074
618.5853	0.0032
618.7744	0.0095
618.9634	0.0078
619.1525	0.005
619.3416	0.0127
619.5306	0.0098
619.7196	0.0042
619.9086	0.002
620.0976	0.0145
620.2866	0.0061
620.4755	0.0116
620.6645	0.0113
620.8534	0.0106
621.0423	0.0121
621.2312	0.0095
621.42	0.003
621.6089	0.0102
621.7977	0.0057
621.9865	-0.0061
622.1753	0.0126
622.3641	0.0009
622.5529	0.0121
622.7416	0.013
622.9303	0.0026
623.1191	0.0122
623.3078	0.0012
623.4964	0.0063
623.6851	0.0042
623.8737	0.0041
624.0624	0.0039
624.251	0.0054
624.4396	0.0018
624.6282	0.0023
624.8167	0.0033
625.0053	0.0099
625.1938	0.0075
625.3823	0.0019
625.5708	0.0003
625.7593	-0.0063
625.9477	-0.0025
626.1362	0.0024
626.3246	0.0028
626.513	0.0099
626.7014	0.0053
626.8898	0.0028
627.0781	-0.0037
627.2665	-0.0018
627.4548	0.0103
627.6431	0.0067
627.8314	0.0018
628.0197	0.0073
628.2079	-0.0061
628.3962	-0.003
628.5844	0.0017
628.7726	0.0076
628.9608	0.006
629.1489	0.0003
629.3371	0.0063
629.5252	-0.0053
629.7134	0.0065
629.9015	0.0049
630.0895	0.0066
630.2776	0.0053
630.4657	-0.0024
630.6537	-0.0014
630.8417	0.0014
631.0297	-0.0018
631.2177	0.0014
631.4057	-0.0043
631.5936	0.0005
631.7815	0.0033
631.9695	0.0044
632.1574	0.003
632.3452	0.0126
632.5331	0.0023
632.7209	0.0033
632.9088	0.0071
633.0966	0.0145
633.2844	-0.0004
633.4722	0.0086
633.6599	0.0095
633.8477	0.0081
634.0354	0.005
634.2231	0.0013
634.4108	-0.0004
634.5985	0.0112
634.7861	-0.0019
634.9738	0.0022
635.1614	0.0046
635.349	0.0099
635.5366	0.0019
635.7242	0.0019
635.9117	0.0049
636.0993	-0.0012
636.2868	0.0002
636.4743	-0.002
636.6618	0.0104
636.8492	0.0024
637.0367	0.0054
637.2241	-0.0033
637.4115	-0.0038
637.5989	0.0022
637.7863	0.0054
637.9737	0.0005
638.161	0
638.3484	-0.0019
638.5357	0.0089
638.723	-0.001
638.9103	0.0085
639.0975	0.0041
639.2848	0.0089
639.472	0.0013
639.6592	0.0102
639.8464	0.0056
640.0336	0.0051
640.2208	0.0018
640.4079	0.0073
640.595	0.0016
640.7821	0.0028
640.9692	0.0051
641.1563	0.0078
641.3434	0.0026
641.5304	0.0006
641.7174	-0.0055
641.9044	0.005
642.0914	0.0075
642.2784	0.0128
642.4653	0.0094
642.6523	0.0038
642.8392	-0.0023
643.0261	0.0002
643.213	0.0031
643.3999	-0.0045
643.5867	0.0039
643.7735	0.0027
643.9604	0.0016
644.1472	0.0018
644.3339	0.0009
644.5207	0.0045
644.7075	-0.0013
644.8942	0.0014
645.0809	0.0064
645.2676	0.0071
645.4543	0.0048
645.6409	0.0024
645.8276	0.0083
646.0142	0.0087
646.2008	-0.0052
646.3874	-0.0003
646.574	0.008
646.7605	-0.0001
646.9471	-0.0113
647.1336	0.0018
647.3201	0.0061
647.5066	-0.0036
647.6931	0.0093
647.8795	0.0063
648.0659	0.0063
648.2524	0.0063
648.4388	-0.0014
648.6252	0.0031
648.8115	0.003
648.9979	0.0033
649.1842	0.0029
649.3705	0.0138
649.5568	0.0041
649.7431	0.0031
649.9294	0.0022
650.1156	0.0088
650.3018	0.0026
650.488	0.0109
650.6742	0.0151
650.8604	0.0072
651.0466	-0.0004
651.2327	0.0013
651.4188	0.0088
651.6049	-0.0027
651.791	0.0045
651.9771	0.0099
652.1632	0.0096
652.3492	0.0065
652.5352	0.0101
652.7212	0.0021
652.9072	0.0045
653.0932	-0.0002
653.2791	-0.0001
653.465	0.0078
653.651	-0.0031
653.8369	-0.0034
654.0227	0.0001
654.2086	0.0049
654.3944	0.0059
654.5803	0.0035
654.7661	0.0043
654.9519	0.0091
655.1377	-0.0019
655.3234	-0.0014
655.5092	-0.0037
655.6949	-0.0061
655.8806	0.0008
656.0663	0.0006
656.2519	-0.0019
656.4376	-0.0032
656.6232	0.0074
656.8088	0.0025
656.9945	0.0016
657.18	-0.0035
657.3656	-0.001
657.5511	-0.0055
657.7367	-0.0049
657.9222	0.0029
658.1077	0.006
658.2932	0.0035
658.4786	-0.0088
658.6641	-0.0062
658.8495	0.0009
659.0349	-0.0008
659.2203	0.0102
659.4057	0.0116
659.591	0.0054
659.7764	0.0023
659.9617	0.0017
660.147	-0.0004
660.3323	0.0047
660.5176	0.0092
660.7028	0.0111
660.888	0.0045
661.0733	0.013
661.2585	-0.0016
661.4436	0.0027
661.6288	-0.002
661.8139	0.0018
661.9991	0.0107
662.1842	-0.0009
662.3693	0.0119
662.5544	0.0042
662.7394	0.0133
662.9245	0.0014
663.1095	0.0059
663.2945	0.008
663.4795	-0.0018
663.6644	0.0098
663.8494	0.0079
664.0343	0.0112
664.2193	0.0006
664.4042	0.0028
664.589	0.0096
664.7739	0.0074
664.9587	0.0016
665.1436	0.0037
665.3284	0.0058
665.5132	0.0053
665.698	0.0087
665.8827	0.0105
666.0675	0.0049
666.2522	0.0009
666.4369	0.0104
666.6216	0.0165
666.8063	0.0035
666.9909	0.006
667.1756	0.0007
667.3602	0.0009
667.5448	-0.0025
667.7294	0.0063
667.9139	0.0147
668.0985	0.0109
668.283	0.0043
668.4675	0.0037
668.652	0.0042
668.8365	0.0058
669.0209	0.0045
669.2054	0.0209
669.3898	0.0099
669.5742	0.0055
669.7586	0.011
669.943	0.0148
670.1273	0.0107
670.3117	0.0104
670.496	0.0123
670.6803	0.0206
670.8646	0.0116
671.0488	0.0008
671.2331	0.0076
671.4173	0.0075
671.6015	-0.0036
671.7857	0.0043
671.9699	0.0123
672.1541	0.0019
672.3382	0.0015
672.5223	0.0074
672.7064	0.0099
672.8905	0.01
673.0746	0.005
673.2587	0.0011
673.4427	0.0088
673.6267	0.0153
673.8107	0.0121
673.9947	0.0083
674.1787	0.0126
674.3626	0.0001
674.5465	0.0053
674.7304	-0.0005
674.9143	0.0117
675.0982	0.0074
675.2821	-0.0032
675.4659	0.0083
675.6497	0.0046
675.8335	0.003
676.0173	0.0056
676.2011	-0.0022
676.3849	-0.0013
676.5686	-0.002
676.7523	0.0051
676.936	0.0056
677.1197	-0.0042
677.3034	-0.0025
677.487	0.0088
677.6706	0.0062
677.8542	0.009
678.0378	0
678.2214	-0.0045
678.405	-0.0012
678.5885	-0.0091
678.772	0.0052
678.9555	-0.0067
679.139	-0.0004
679.3225	-0.0039
679.5059	-0.0009
679.6894	0.005
679.8728	-0.0033
680.0562	-0.0074
680.2395	-0.0047
680.4229	-0.001
680.6062	0.0053
680.7896	0.0025
680.9729	-0.005
681.1562	0.0041
681.3394	0.0111
681.5227	-0.0071
681.7059	0.004
681.8891	0.0066
682.0723	0.0106
682.2555	0.0117
682.4387	-0.0036
682.6218	0.0005
682.805	0.0004
682.9881	-0.0013
683.1712	0.0056
683.3542	-0.0034
683.5373	0.0069
683.7203	-0.0039
683.9034	0.0015
684.0864	-0.0049
684.2694	-0.0071
684.4523	-0.0009
684.6353	-0.0091
684.8182	0.0075
685.0011	-0.0024
685.184	0.0026
685.3669	-0.004
685.5498	0.0078
685.7326	0.0004
685.9154	-0.0013
686.0982	0.0056
686.281	-0
686.4638	0.0071
686.6465	0.0052
686.8293	0.0033
687.012	0.0055
687.1947	0.0016
687.3774	0.0082
687.56	0.0106
687.7427	0.0145
687.9253	0.0003
688.1079	0.0037
688.2905	0.0109
688.4731	0.0031
688.6556	0.0029
688.8382	0.0091
689.0207	0.006
689.2032	-0.0076
689.3857	-0.0033
689.5681	0.0048
689.7506	0.0036
689.933	-0.0002
690.1154	-0.0002
690.2978	0.0009
690.4802	0.0063
690.6626	-0.0017
690.8449	-0.0016
691.0272	0.0053
691.2095	-0.0038
691.3918	0.0007
691.5741	0.0102
691.7563	0.0078
691.9386	0.0024
692.1208	0.0018
692.303	0.0054
692.4852	-0.0042
692.6673	0.0049
692.8495	0.006
693.0316	0.0092
693.2137	0.003
693.3958	0.0054
693.5778	0.0021
693.7599	0.0065
693.9419	-0.0011
694.1239	0.0061
694.3059	-0.0059
694.4879	0.007
694.6699	0.0096
694.8518	0.0044
695.0337	0.0041
695.2157	0.0052
695.3975	0.0066
695.5794	0.0034
695.7613	0.0095
695.9431	-0.004
696.1249	0.0075
696.3067	0.0005
696.4885	0.0083
696.6703	-0.0078
696.852	0.0004
697.0337	0.0072
697.2154	0.0062
697.3971	-0.0004
697.5788	0.004
697.7605	-0.0015
697.9421	0.0014
698.1237	0.0017
698.3053	0.0059
698.4869	-0.0008
698.6685	-0.0009
698.85	-0.0032
699.0315	0.0149
699.213	-0.0091
699.3945	-0.0001
699.576	0.0167
699.7575	0.0037
699.9389	0.0126
700.1203	0.0007
700.3017	-0.0042
700.4831	-0.004
700.6645	0.0011
700.8458	0.0017
701.0271	-0.0053
701.2084	-0.0018
701.3897	0.0068
701.571	0.0078
701.7523	-0.0029
701.9335	0.0042
702.1147	0.0058
702.2959	0.0057
702.4771	0.0061
702.6583	0.0025
702.8394	-0.0034
703.0205	-0.0029
703.2016	-0.0065
703.3827	0.0025
703.5638	0.011
703.7449	-0.0019
703.9259	0.0107
704.1069	-0.0062
704.2879	0.0008
704.4689	0.009
704.6499	-0.0052
704.8308	-0.0047
705.0117	-0.0034
705.1927	0.0041
705.3735	-0.0038
705.5544	-0.0117
705.7353	-0.0018
705.9161	-0.007
706.0969	-0.0003
706.2777	0.007
706.4585	0.0006
706.6393	0.0131
706.82	0.0028
707.0007	0.0134
707.1815	0.0149
707.3621	0.0103
707.5428	0.006
707.7235	0.0081
707.9041	0.01
708.0847	-0.0057
708.2653	0.0015
708.4459	-0.0048
708.6265	0.0013
708.807	0.0063
708.9875	0.0016
709.168	-0.0042
709.3485	-0.01
709.529	-0.0031
709.7095	-0.0047
709.8899	0.0001
710.0703	-0.0106
710.2507	0.0052
710.4311	-0.0011
710.6115	-0.0123
710.7918	-0.0041
710.9721	0.0003
711.1524	-0.0071
711.3327	-0.0009
711.513	0.0034
711.6932	0.0068
711.8735	0.0094
712.0537	0.0039
712.2339	0.004
712.4141	-0.0076
712.5942	-0.0061
712.7744	-0.0015
712.9545	-0.0006
713.1346	0.0012
713.3147	0.0055
713.4947	-0.0012
713.6748	-0.0015
713.8548	-0.0097
714.0348	0.0051
714.2148	-0.0034
714.3948	0.0075
714.5748	-0.0038
714.7547	0.0043
714.9346	0.0026
715.1145	-0.0017
715.2944	-0.0064
715.4743	-0.0012
715.6541	-0.0041
715.834	0.006
716.0138	-0.0001
716.1936	-0.0092
716.3733	-0.0009
716.5531	-0.0007
716.7328	0.0011
716.9126	0.0051
717.0923	0.005
717.2719	-0.0004
717.4516	0.0113
717.6312	-0.0019
717.8109	-0.0001
717.9905	-0.0003
718.1701	-0.0044
718.3496	-0.0105
718.5292	0.0074
718.7087	0.0013
718.8882	0.0015
719.0677	0.0031
719.2472	-0.005
719.4267	0.0071
719.6061	0.0016
719.7856	0.0066
719.965	0.0065
720.1443	-0.0055
720.3237	0.0163
720.5031	-0.0036
720.6824	0.0039
720.8617	-0.0044
721.041	0.0018
721.2203	-0.0005
721.3995	0.0057
721.5788	0.0058
721.758	0.0104
721.9372	0.004
722.1164	0.0034
722.2956	0.0058
722.4747	0.0017
722.6538	-0.0049
722.8329	0.0141
723.012	0.0133
723.1911	-0.0023
723.3702	0.0066
723.5492	0.0109
723.7282	0.0051
723.9072	0.0017
724.0862	0.0002
724.2652	0.0001
724.4441	-0.0056
724.623	0.0045
724.8019	0
724.9808	-0.0004
725.1597	0.0015
725.3385	0.0071
725.5174	0.0046
725.6962	0.0109
725.875	-0.0042
726.0538	0.0039
726.2325	0.0019
726.4112	-0.0019
726.59	-0.0011
726.7687	-0.0077
726.9474	-0.002
727.126	-0.0008
727.3047	-0.013
727.4833	-0.0038
727.6619	-0.0012
727.8405	-0.0043
728.0191	-0.006
728.1976	0.0023
728.3762	0.0012
728.5547	0.0029
728.7332	-0.0128
728.9116	0.0004
729.0901	0.0149
729.2686	0.0029
729.447	0.0003
729.6254	0.0017
729.8038	-0.0094
729.9821	-0.0085
730.1605	-0.0021
730.3388	0.0005
730.5171	0.0008
730.6954	-0.0007
730.8737	0.0083
731.0519	0.0037
731.2302	0.0069
731.4084	0.0142
731.5866	0.0065
731.7648	0.0017
731.9429	0.0025
732.1211	-0.0073
732.2992	0.0056
732.4773	0.0042
732.6554	0.0093
732.8335	0.0047
733.0115	-0.003
733.1896	0.0128
733.3676	0.0004
733.5456	0.0147
733.7235	0.0076
733.9015	0.0032
734.0794	0.01
734.2574	0.0001
734.4353	0.0065
734.6131	0.0166
734.791	0.01
734.9689	0.0154
735.1467	0.0035
735.3245	0.002
735.5023	-0.0067
735.68	0.0037
735.8578	0.0121
736.0355	-0.0099
736.2132	-0.0074
736.3909	-0.0011
736.5686	-0.0003
736.7463	0.0107
736.9239	-0.0008
737.1015	0.0052
737.2791	0.0101
737.4567	0.0072
737.6343	0.0007
737.8118	0.0088
737.9894	0.0041
738.1669	-0.0053
738.3444	-0.0055
738.5218	0.0049
738.6993	0.0004
738.8767	-0.004
739.0541	0.0085
739.2315	-0.0144
739.4089	0.0033
739.5863	0.0128
739.7636	0.0013
739.9409	0.0029
740.1182	0.006
740.2955	0.0036
740.4728	0.0001
740.65	0.0014
740.8272	-0.0058
741.0044	-0.0053
741.1816	-0.0014
741.3588	-0.0053
741.5359	0.0022
741.7131	-0.0068
741.8902	0.0035
742.0673	-0.0071
742.2444	-0.0038
742.4214	0.0001
742.5985	-0.0005
742.7755	-0.0102
742.9525	-0.0145
743.1295	0.002
743.3064	-0.0018
743.4834	0.0092
743.6603	-0.0087
743.8372	0.0013
744.0141	-0.0047
744.191	-0
744.3678	0.0018
744.5446	0.0044
744.7215	0.0013
744.8982	0.004
745.075	-0.003
745.2518	0.0008
745.4285	0.0106
745.6052	-0.0103
745.7819	-0.0072
745.9586	-0.01
746.1353	-0.0007
746.3119	-0.0055
746.4885	-0.0064
746.6651	-0.004
746.8417	-0.0067
747.0183	0.0006
747.1948	-0.0075
747.3714	-0.0053
747.5479	0.0079
747.7244	-0.0117
747.9008	-0.0008
748.0773	0.0014
748.2537	0.0029
748.4301	-0.0058
748.6065	0.0034
748.7829	0.0094
748.9593	-0.0012
749.1356	0.0024
749.3119	0.0094
749.4882	-0.0121
749.6645	0.0058
749.8408	-0.0076
750.017	-0.0037
750.1933	0.0028
750.3695	-0.0098
750.5457	0.0093
750.7218	0.0023
750.898	0.0111
751.0741	0.0023
751.2502	-0.0016
751.4263	-0.0005
751.6024	0.0006
751.7784	-0.0091
751.9545	-0.0045
752.1305	-0.0011
752.3065	-0.0045
752.4825	0.0078
752.6584	-0.0064
752.8344	-0.0014
753.0103	-0.0075
753.1862	-0.0054
753.3621	-0.0084
753.5379	-0.0072
753.7138	-0.0067
753.8896	-0.0144
754.0654	-0.0014
754.2412	0.0136
754.417	0.0079
754.5927	0.001
754.7685	0.0047
754.9442	0.001
755.1199	0.0207
755.2956	-0.0024
755.4712	0.0081
755.6469	0.004
755.8225	0.0013
755.9981	0.0077
756.1736	0.0023
756.3492	0.0028
756.5248	-0.0065
756.7003	0.005
756.8758	0.0051
757.0513	-0.0116
757.2267	-0.0053
757.4022	-0.0013
757.5776	-0.0102
757.753	0.0019
757.9284	-0.004
758.1038	0.0116
758.2791	0.0082
758.4545	-0.0136
758.6298	-0.0001
758.8051	0.0014
758.9803	-0.0002
759.1556	0.0028
759.3308	-0.0054
759.506	0.0049
759.6812	-0.001
759.8564	0.0013
760.0316	-0.0039
760.2067	0.0194
760.3819	0.0116
760.557	0.0121
760.732	0.0079
760.9071	-0.0059
761.0821	0.0046
761.2572	0.0134
761.4322	-0
761.6072	0.0003
761.7821	0.0072
761.9571	0.0065
762.132	-0.0002
762.3069	-0.0061
762.4818	-0.0208
762.6567	-0.0064
762.8316	0.0009
763.0064	0.0026
763.1812	-0.006
763.356	-0.0164
763.5308	-0.0008
763.7055	-0.0042
763.8803	0.0021
764.055	0.0037
764.2297	0.0006
764.4044	-0.0004
764.579	-0.0013
764.7537	-0.012
764.9283	0.0026
765.1029	-0.0011
765.2775	0.0083
765.4521	-0.0066
765.6266	0.0072
765.8011	0.0019
765.9756	0.0009
766.1501	0.0081
766.3246	0.0023
766.4991	0.0071
766.6735	0.0121
766.8479	-0.0088
767.0223	0.0161
767.1967	0.0078
767.371	0.0064
767.5454	-0.0013
767.7197	0.0044
767.894	-0.0071
768.0683	-0.0046
768.2425	0.0085
768.4168	0.005
768.591	-0.0019
768.7652	0.0011
768.9394	0.0006
769.1135	-0.0009
769.2877	0.0045
769.4618	-0.0022
769.6359	0.0071
769.81	0.0047
769.984	-0.0057
770.1581	-0.001
770.3321	0.0068
770.5061	0.0008
770.6801	-0.0079
770.8541	-0.0056
771.028	-0.0048
771.202	-0.0089
771.3759	0.0126
771.5498	0.001
771.7236	0.0045
771.8975	0.0069
772.0713	0.0022
772.2451	0.0068
772.4189	0.0021
772.5927	0.0077
772.7665	0.0044
772.9402	-0.0012
773.1139	0.002
773.2876	-0.0033
773.4613	0.0066
773.635	0.0248
773.8086	-0.0123
773.9822	0.0098
774.1558	0.009
774.3294	-0.0123
774.503	0.0113
774.6765	0.0113
774.8501	0.0023
775.0236	0.0103
775.1971	0.013
775.3705	-0.0068
775.544	0.0103
775.7174	0.0043
775.8908	0.0009
776.0642	-0.0003
776.2376	0.0112
776.4109	-0.0028
776.5843	-0.0008
776.7576	0.0224
776.9309	0.0187
777.1041	0.0188
777.2774	0.0134
777.4506	0.0056
777.6238	-0.001
777.797	0.007
777.9702	0.0059
778.1434	0.0094
778.3165	-0.002
778.4896	-0.0029
778.6627	0.0009
778.8358	-0.0013
779.0089	-0.0051
779.1819	0.0007
779.3549	0.0123
779.5279	0.0147
779.7009	-0.0021
779.8739	0.0033
780.0468	0.0021
780.2197	-0.0044
780.3926	-0.0057
780.5655	0.0045
780.7384	-0.0016
780.9112	0.0107
781.0841	-0.0045
781.2569	0.0105
781.4297	0.0048
781.6024	0.0069
781.7752	0.0061
781.9479	0.0051
782.1206	0.0033
782.2933	-0.0044
782.466	-0.0008
782.6386	0.0174
782.8113	0.0172
782.9839	0.013
783.1565	0.0085
783.329	0.0111
783.5016	0.0108
783.6741	0.0131
783.8466	0.0033
784.0191	0.0217
784.1916	0.0103
784.3641	0.0072
784.5365	0.0069
784.7089	-0.0056
784.8813	-0.0002
785.0537	0.0065
785.2261	0.0075
785.3984	-0.0013
785.5707	0.0048
785.743	0.0154
785.9153	-0.0034
786.0876	0.0021
786.2598	-0.0023
786.432	-0.0076
786.6042	0.0009
786.7764	-0
786.9486	0.0126
787.1207	-0.0015
787.2928	0.0191
787.4649	0.0183
787.637	0.0084
787.8091	0.0059
787.9811	-0.0047
788.1532	0.0081
788.3252	0.0182
788.4972	0.0106
788.6691	0.0107
788.8411	0.0123
789.013	-0.011
789.1849	0.0053
789.3568	0.001
789.5287	0.0111
789.7005	-0.0005
789.8723	0.0101
790.0442	0.0206
790.2159	0.0021
790.3877	0.0178
790.5595	-0.0124
790.7312	0.0219
790.9029	0.0114
791.0746	-0.0005
791.2463	0.0043
791.4179	0.0071
791.5896	-0.0043
791.7612	0.007
791.9328	0.0133
792.1044	-0.0062
792.2759	-0.0191
792.4474	-0.0101
792.619	0.0081
792.7905	0.0077
792.9619	0.0082
793.1334	0.0252
793.3048	0.0121
793.4762	0.0124
793.6476	0.0088
793.819	-0.0002
793.9904	0.0111
794.1617	-0.0202
794.333	-0.0022
794.5043	-0.0096
794.6756	0.0062
794.8469	-0.0051
795.0181	0.0197
795.1893	-0.0114
795.3605	0.0121
795.5317	0.0166
795.7029	-0.0029
795.874	0.0182
796.0452	0.0024
796.2163	-0.0037
796.3873	0.0233
796.5584	-0
796.7294	0.0088
796.9005	0.0047
797.0715	0.0136
797.2425	0.0018
797.4134	-0.0019
797.5844	0.0212
797.7553	0.0072
797.9262	0.0044
798.0971	0.0001
798.2679	-0.0051
798.4388	-0.0111
798.6096	-0.0145
798.7804	-0.0004
798.9512	-0.0131
799.122	0.0124
799.2927	-0.0037
799.4635	0.0179
799.6342	-0.0116
799.8049	0.0076
799.9755	0.0019
800.1462	0.005
800.3168	0.0073
800.4874	0.0046
800.658	0.0196
800.8286	0.0172
800.9991	0.0139
801.1696	0.0029
801.3402	-0.0031
801.5106	0.0008
801.6811	0.0092
801.8516	0.0263
802.022	0.0246
802.1924	0.0153
802.3628	0.0254
802.5332	0.0109
802.7035	0.016
802.8739	0.0128
803.0442	-0.005
803.2145	0.0102
803.3847	-0.0155
803.555	0.0008
803.7252	0.0084
803.8954	0.0006
804.0656	0.0042
804.2358	-0.0005
804.4059	0.0184
804.5761	0.0236
804.7462	0.0063
804.9163	0.0041
805.0864	-0.0105
805.2564	0.0002
805.4264	0.0041
805.5965	-0.0023
805.7665	0.0128
805.9364	0.0201
806.1064	0.0179
806.2763	0.0138
806.4462	0.0361
806.6161	0.0127
806.786	0.0264
806.9559	-0.0005
807.1257	-0.0001
807.2955	0.0033
807.4653	0.0085
807.6351	0.0054
807.8048	0.0135
807.9746	0.0114
808.1443	0.017
808.314	0.0116
808.4837	0.018
808.6533	0.0277
808.8229	0.034
808.9926	0.011
809.1622	0.017
809.3317	-0.0086
809.5013	-0.007
809.6708	0.0347
809.8403	0.0155
810.0098	-0.0064
810.1793	-0.0013
810.3488	0.0014
810.5182	-0.012
810.6876	0.0299
810.857	-0.0006
811.0264	0.0314
811.1958	0.0101
811.3651	0.0119
811.5344	0.0106
811.7037	0.0168
811.873	-0.0038
812.0422	0.0098
812.2115	0.0156
812.3807	-0.0001
812.5499	0.0037
812.7191	0.0061
812.8882	0.0002
813.0574	0.0097
813.2265	-0.0022
813.3956	0.0167
813.5646	0.0359
813.7337	0.0002
813.9027	0.0308
814.0718	0.0276
814.2407	0.0251
814.4097	-0.0105
814.5787	0.0154
814.7476	0.0265
814.9165	0.005
815.0854	-0.0039
815.2543	-0.0244
815.4232	-0.0172
815.592	0.0125
815.7608	0.0116
815.9296	0.0463
816.0984	0.0259
816.2671	0.0153
816.4359	0.0134
816.6046	0.0314
816.7733	-0.0034
816.942	-0.0097
817.1106	0.0298
817.2793	0.0406
817.4479	0.0146
817.6165	0.0301
817.785	0.0209
817.9536	0.0006
818.1221	0.009
818.2906	-0.0001
818.4591	-0.0014
818.6276	0.0067
818.7961	0.0275
818.9645	0.0154
819.1329	0.0121
819.3013	0.0109
819.4697	0.0378
819.638	0.0282
819.8064	0.0386
819.9747	0.0399
820.143	0.0094
820.3113	-0.0133
820.4795	0.0207
820.6477	0.0037
820.816	0.0188
820.9842	0.0024
821.1523	-0.0079
821.3205	0.0081
821.4886	-0.0147
821.6567	0.0075
821.8248	0.0186
821.9929	0.0339
822.1609	0.016
822.329	0.0174
822.497	0.0377
822.665	-0.0087
822.833	-0.0062
823.0009	0.0156
823.1688	0.0029
823.3367	0.0139
823.5046	0.0387
823.6725	0.0497
823.8404	0.0217
824.0082	0.0086
824.176	0.0143
824.3438	0.0091
824.5116	-0.0059
824.6793	0.0309
824.847	-0.0013
825.0147	0.0308
825.1824	0.0175
825.3501	0.0255
825.5177	-0.0072
825.6854	0.0139
825.853	0.0342
826.0206	0.0223
826.1881	0.0358
826.3557	0.0056
826.5232	0.0475
826.6907	-0.051
826.8582	0.0118
827.0257	0.0017
827.1931	0.0155
827.3605	0.0414
827.528	0.0317
827.6953	0.0086
827.8627	-0.0001
828.03	0.033
828.1974	0.0018
828.3647	-0.0493
828.532	0.0038
828.6992	0.0369
828.8665	0.0219
829.0337	-0.0021
829.2009	0.0298
829.3681	0.0133
829.5352	0.0494
829.7024	-0.0267
829.8695	-0.0068
830.0366	0.0581
830.2037	0.0277
830.3707	0.0327
830.5378	0.0118
830.7048	0.0268
830.8718	-0.0098
831.0388	-0.0126
831.2057	0.0009
831.3727	0.012
831.5396	0.0067
831.7065	-0.0198
831.8734	-0.0155
832.0402	-0.0261
832.2071	0.0061
832.3739	0.017
832.5407	0.0107
832.7075	-0.0197
832.8742	-0.0298
833.041	-0.0152
833.2077	-0.0397
833.3744	0.0272
833.541	-0.0014
833.7077	-0.0131
833.8743	0.0186
834.0409	0.0173
834.2075	0.0266
834.3741	0.0364
834.5407	0.0088
834.7072	-0.0027
834.8737	-0.0171
835.0402	-0.0179
835.2067	0.0376
835.3731	0.0099
835.5395	0.0168
835.706	0.0163
835.8723	0.01
836.0387	0.0386
836.2051	-0.0238
836.3714	-0.0324
836.5377	0.0124
836.704	0.0106
836.8703	0.0187
837.0365	0.0372
837.2027	0.0419
837.3689	0.0631
837.5351	0.0221
837.7013	-0.0053
837.8674	-0.029
838.0335	0.0075
838.1997	-0.0146
838.3657	-0.0046
838.5318	-0.0067
838.6978	0.0397
838.8639	0.0451
839.0299	-0.0096
839.1958	0.0101
839.3618	0.0199
839.5277	0.0181
839.6937	0.0192
839.8596	0.0089
840.0254	-0.0344
840.1913	0.0297
840.3571	0.0325
840.523	-0.0111
840.6888	0.0045
840.8545	-0.0116
841.0203	0.0278
841.186	-0.012
841.3517	0.0097
841.5174	0.0203
841.6831	0.0017
841.8488	-0.0002
842.0144	0.0232
842.18	0.0197
842.3456	0.0026
842.5112	-0.0325
842.6767	-0.036
842.8422	-0.0252
843.0077	0.007
843.1732	-0.0317
843.3387	0.0089
843.5042	0.0324
843.6696	0.0296
843.835	0.0648
844.0004	0.0176
844.1657	0.0224
844.3311	-0.0674
844.4964	-0.0498
844.6617	0.0064
844.827	-0.0305
844.9923	-0.0171
845.1575	0.0069
845.3227	-0.0139
845.4879	-0.0359
845.6531	-0.0288
845.8183	-0.0774
845.9834	-0.0257
846.1485	-0.0089
846.3136	-0.0483
846.4787	-0.0489
846.6438	0.0293
846.8088	0.0156
846.9738	-0.1341
847.1388	0.0111
847.3038	-0.0462
847.4687	-0.0814
847.6337	0.0683
847.7986	-0.0134
847.9635	0.0494
848.1284	0.0367
848.2932	0.052
848.458	0.1226
848.6228	0.1853
848.7876	0.0534
848.9524	-0.0383
849.1172	-0.0275
849.2819	0.0658
849.4466	-0.0567
849.6113	-0.1526
849.7759	0.0199
849.9406	-0.027
850.1052	0.0261
850.2698	0.0229
850.4344	0.0114
850.599	-0.0253
850.7635	0.1477
850.928	-0.0047
851.0925	-0.0229
851.257	0.0542
851.4215	0.0823
851.5859	-0.0092
851.7503	0.0232
851.9147	-0.0037
852.0791	-0.1365
852.2434	-0.0783
852.4078	0.0793
852.5721	0.0848
852.7364	-0.0968
852.9007	-0.21
853.0649	-0.0024
853.2291	0.0523
853.3934	0.0041
853.5575	0.1011
853.7217	-0.1409
853.8859	-0.1336
854.05	-0.0458
854.2141	-0.0473
854.3782	-0.1013
854.5423	-0.0209
854.7063	0.1125
854.8703	0.0489
855.0343	-0.0594
855.1983	-0.1446
855.3623	0.0972
855.5262	0.0973
855.6901	-0.0079
855.854	0.0036
856.0179	0.051
856.1818	0.1152
856.3456	0.0199
856.5094	-0.1343
856.6732	-0.0309
856.837	0.0831
857.0008	-0.1139
857.1645	0.021
857.3282	0.1549
857.4919	0.1875
857.6556	0.217
857.8192	0.0297
857.9828	-0.0489
858.1465	-0.0087
858.31	-0.2367
858.4736	0.2439
858.6372	-0.0019
858.8007	0.0695
858.9642	0.0731
859.1277	0.1676
859.2911	0.1856
859.4546	0.1163
859.618	-0.2923
859.7814	-0.0008
859.9448	0.1175
860.1081	0.0549
860.2715	0.2769
860.4348	0.4084
860.5981	0.0486
860.7614	0.2661
860.9246	-0.0096
861.0879	-0.1049
861.2511	0.0912
861.4143	-0.2331
861.5774	0.2748
861.7406	-0.2021
861.9037	0.003
862.0668	0.3921
862.2299	-0.1769
862.393	-0.5295
862.556	-0.0658
862.7191	-0.047
862.8821	0.0368
863.0451	0.2319
863.208	0.4332
863.371	0.221
863.5339	-0.0028
863.6968	-0.0012
863.8597	0.7744
864.0225	-0.1198
864.1854	-0.0367
864.3482	0.1047
864.511	0.1807
864.6737	-0.051
864.8365	0.1475
864.9992	-0.5244
865.1619	-0.3384
865.3246	-0.1581
865.4873	0.0621
865.65	-0.2779
865.8126	-0.0998
865.9752	0.5163
866.1378	0.4307
866.3004	0.5198
866.4629	0.2507
866.6254	0.2192
866.7879	0.4668
866.9504	-0
867.1129	-0
867.2753	0.8684
867.4377	0.1828
867.6001	-0.0195
867.7625	0.6347
867.9249	-0
868.0872	0.2033
868.2495	0.297
868.4118	-0.3525
868.5741	-0.3979
868.7363	-0.2942
868.8986	-0.4765
869.0608	-0.2059
869.223	0.0243
869.3851	-0.0129
869.5473	-0
869.7094	0.4522
869.8715	-0
870.0336	-0
870.1957	-0.6204
870.3577	-1.1447
870.5197	0.2173
870.6817	0.1377
870.8437	0.055
871.0057	-0
871.1676	-0
871.3295	0.044
871.4914	-0.867
871.6533	-0.3568
871.8151	-0.245
871.977	-0
872.1388	0.5692
872.3006	0.1747
872.4623	-0
872.6241	0.468
872.7858	0.5335
872.9475	-0.0638
873.1092	-0
873.2709	-0
873.4325	0.3308
873.5941	-0
873.7557	-0.4783
873.9173	-0.4787
874.0789	-0
874.2404	-0
874.4019	0.0021
874.5634	-0.1331
874.7249	0.2356
874.8863	-0.1661
875.0478	-0.1585
875.2092	-0
875.3706	0.2945
875.5319	-0.7248
875.6933	-0
875.8546	0.7489
876.0159	-0
876.1772	-0.3004
876.3385	-0
876.4997	0.1246
876.6609	-0.2799
876.8221	-0.2344
876.9833	0.1817
877.1445	0.1749
877.3056	0.8466
877.4667	-0
877.6278	0.5043
877.7889	-0.6754
877.9499	-0
878.111	-0
878.272	-0.6166
878.433	-0
878.5939	0.0484
878.7549	1.9385
878.9158	-0.5278
879.0767	-0
879.2376	-0
879.3984	0.2681
879.5593	-0
879.7201	-0.1267
879.8809	0.2734
880.0417	-0
880.2024	-0
880.3632	-0
880.5239	0.5517
880.6846	0.3456
880.8452	-2.4541
881.0059	-1.5198
881.1665	-0.2691
881.3271	0.2483
881.4877	-0.3979
881.6483	-0.3341
881.8088	-0.4334
881.9693	-0
882.1298	-0
882.2903	-0
