Data from MonoPyChalIsomerACN10uM360nmA_Absorbance_13-57-25-204.txt Node
Date: Fri Jul 05 13:57:25 BST 2024
User: LASERRRRR
Spectrometer: FLMT03099
Trigger mode: 0
Integration Time (sec): 1.000000E-1
Scans to average: 1
Electric dark correction enabled: true
Nonlinearity correction enabled: false
Boxcar width: 0
XAxis mode: Wavelengths
Number of Pixels in Spectrum: 3648
>>>>>Begin Spectral Data<<<<<
179.3399	-0.5177
179.5586	-0.5177
179.7771	-0.5177
179.9957	-0.106
180.2143	-0
180.4329	-0.0894
180.6514	-0
180.8699	1.1648
181.0885	0.1306
181.307	0.1131
181.5255	-0
181.744	-0
181.9625	-0
182.181	-0
182.3994	0.7276
182.6179	-0
182.8363	0.2054
183.0547	-0.011
183.2732	-0.0148
183.4916	0.2767
183.71	0.1069
183.9284	0.0666
184.1467	-0.0094
184.3651	0.3926
184.5835	0.1202
184.8018	0.2391
185.0201	0.2697
185.2385	0.1247
185.4568	0.5034
185.6751	0.0377
185.8934	0.4787
186.1117	0.2268
186.3299	0.0988
186.5482	0.3549
186.7664	-0.1043
186.9847	0.0758
187.2029	0.161
187.4211	0.0769
187.6393	0.2434
187.8575	0.0015
188.0757	0.2794
188.2939	0.1133
188.512	-0.117
188.7302	0.1227
188.9483	0.4549
189.1665	0.2502
189.3846	-0
189.6027	0.1376
189.8208	0.3892
190.0389	0.1697
190.257	0.3265
190.475	0.224
190.6931	0.3289
190.9111	0.429
191.1292	0.1502
191.3472	0.4859
191.5652	0.3724
191.7832	0.3407
192.0012	0.7883
192.2192	0.4936
192.4371	0.5495
192.6551	0.3273
192.873	0.5674
193.091	0.8429
193.3089	-0
193.5268	0.6789
193.7447	0.8182
193.9626	0.5748
194.1805	0.6419
194.3984	0.8594
194.6162	1.0628
194.8341	0.6985
195.0519	0.6521
195.2697	0.8512
195.4875	0.7305
195.7054	0.5305
195.9231	0.6067
196.1409	0.6792
196.3587	1.1965
196.5765	0.5989
196.7942	0.5532
197.012	0.531
197.2297	0.7878
197.4474	0.5613
197.6651	0.5684
197.8828	0.7181
198.1005	0.6434
198.3182	0.595
198.5358	0.7541
198.7535	0.7873
198.9711	0.7118
199.1888	0.8014
199.4064	0.9322
199.624	0.9161
199.8416	0.5996
200.0592	0.7919
200.2767	0.8322
200.4943	0.6892
200.7119	0.8449
200.9294	0.9201
201.1469	0.5719
201.3645	0.5831
201.582	0.5295
201.7995	0.7826
202.017	0.6868
202.2344	0.6885
202.4519	0.8553
202.6694	0.6713
202.8868	0.6353
203.1042	0.7083
203.3217	0.7149
203.5391	0.6971
203.7565	0.6691
203.9739	0.6371
204.1913	0.6105
204.4086	0.616
204.626	0.7049
204.8433	0.7578
205.0607	0.6908
205.278	0.6479
205.4953	0.6239
205.7126	0.6398
205.9299	0.8046
206.1472	0.7973
206.3644	0.6915
206.5817	0.6399
206.7989	0.7263
207.0162	0.6379
207.2334	0.753
207.4506	0.6701
207.6678	0.6226
207.885	0.7465
208.1022	0.8183
208.3194	0.7376
208.5365	0.6056
208.7537	0.6541
208.9708	0.623
209.1879	0.6282
209.405	0.7068
209.6222	0.7185
209.8392	0.6597
210.0563	0.6386
210.2734	0.6445
210.4905	0.6894
210.7075	0.6416
210.9245	0.6686
211.1416	0.783
211.3586	0.6664
211.5756	0.5982
211.7926	0.6001
212.0096	0.5995
212.2265	0.5528
212.4435	0.5701
212.6604	0.6172
212.8774	0.6235
213.0943	0.6133
213.3112	0.5396
213.5281	0.5544
213.745	0.5185
213.9619	0.4952
214.1788	0.519
214.3956	0.4835
214.6125	0.4571
214.8293	0.4967
215.0461	0.5076
215.2629	0.4608
215.4798	0.4721
215.6965	0.4408
215.9133	0.4402
216.1301	0.4091
216.3469	0.5016
216.5636	0.4157
216.7803	0.3865
216.9971	0.4048
217.2138	0.3887
217.4305	0.3649
217.6472	0.3706
217.8639	0.365
218.0805	0.3421
218.2972	0.3318
218.5138	0.3365
218.7305	0.3298
218.9471	0.3376
219.1637	0.2711
219.3803	0.3186
219.5969	0.3054
219.8135	0.2648
220.0301	0.2637
220.2466	0.2917
220.4632	0.2675
220.6797	0.2351
220.8962	0.235
221.1127	0.2635
221.3292	0.2636
221.5457	0.2497
221.7622	0.2406
221.9787	0.2709
222.1951	0.2487
222.4116	0.2623
222.628	0.2562
222.8444	0.2705
223.0608	0.2336
223.2772	0.2541
223.4936	0.2657
223.71	0.2695
223.9264	0.2916
224.1427	0.269
224.3591	0.2567
224.5754	0.2973
224.7917	0.2808
225.008	0.2682
225.2243	0.2582
225.4406	0.3129
225.6569	0.285
225.8732	0.2947
226.0894	0.2831
226.3057	0.274
226.5219	0.2908
226.7381	0.2984
226.9543	0.2927
227.1705	0.2995
227.3867	0.2957
227.6029	0.3043
227.8191	0.3046
228.0352	0.3266
228.2513	0.3162
228.4675	0.3361
228.6836	0.3056
228.8997	0.3229
229.1158	0.3226
229.3319	0.3339
229.548	0.3292
229.764	0.3248
229.9801	0.3409
230.1961	0.3384
230.4121	0.3353
230.6282	0.3288
230.8442	0.3369
231.0602	0.3558
231.2761	0.3417
231.4921	0.3735
231.7081	0.3619
231.924	0.361
232.14	0.3686
232.3559	0.3394
232.5718	0.3614
232.7877	0.3531
233.0036	0.3739
233.2195	0.3841
233.4353	0.3547
233.6512	0.3758
233.867	0.3868
234.0829	0.3501
234.2987	0.3808
234.5145	0.3877
234.7303	0.3784
234.9461	0.3841
235.1619	0.4107
235.3776	0.3802
235.5934	0.4013
235.8091	0.3776
236.0249	0.4063
236.2406	0.4062
236.4563	0.3874
236.672	0.4117
236.8877	0.4092
237.1034	0.3932
237.319	0.4004
237.5347	0.4161
237.7503	0.3927
237.966	0.4067
238.1816	0.4331
238.3972	0.4134
238.6128	0.4035
238.8284	0.4273
239.0439	0.4248
239.2595	0.4138
239.475	0.4191
239.6906	0.4267
239.9061	0.4005
240.1216	0.4104
240.3371	0.4026
240.5526	0.4116
240.7681	0.4229
240.9836	0.3881
241.199	0.4119
241.4145	0.4013
241.6299	0.3931
241.8453	0.3889
242.0607	0.3787
242.2761	0.3613
242.4915	0.3825
242.7069	0.3692
242.9223	0.3494
243.1376	0.3499
243.353	0.3567
243.5683	0.358
243.7836	0.3286
243.9989	0.3198
244.2142	0.321
244.4295	0.3317
244.6448	0.3114
244.86	0.2993
245.0753	0.3153
245.2905	0.284
245.5057	0.2757
245.721	0.2829
245.9362	0.2766
246.1514	0.2816
246.3665	0.2595
246.5817	0.2561
246.7969	0.2503
247.012	0.2622
247.2271	0.238
247.4423	0.2403
247.6574	0.2314
247.8725	0.2313
248.0876	0.2253
248.3026	0.2211
248.5177	0.2301
248.7328	0.203
248.9478	0.205
249.1628	0.2167
249.3779	0.2144
249.5929	0.2109
249.8079	0.2208
250.0228	0.2075
250.2378	0.2117
250.4528	0.1924
250.6677	0.1865
250.8827	0.1912
251.0976	0.195
251.3125	0.1918
251.5274	0.1826
251.7423	0.1911
251.9572	0.1983
252.172	0.1861
252.3869	0.1914
252.6017	0.1768
252.8166	0.1744
253.0314	0.1767
253.2462	0.1722
253.461	0.1809
253.6758	0.176
253.8906	0.1808
254.1053	0.1794
254.3201	0.1746
254.5348	0.1816
254.7496	0.1792
254.9643	0.1753
255.179	0.1735
255.3937	0.1739
255.6083	0.1671
255.823	0.1734
256.0377	0.1647
256.2523	0.1827
256.467	0.1596
256.6816	0.1766
256.8962	0.1711
257.1108	0.1674
257.3254	0.1743
257.54	0.1741
257.7545	0.1684
257.9691	0.1835
258.1836	0.1626
258.3981	0.1628
258.6127	0.1822
258.8272	0.1629
259.0417	0.1647
259.2561	0.1643
259.4706	0.1669
259.6851	0.1623
259.8995	0.1683
260.114	0.1712
260.3284	0.1655
260.5428	0.1641
260.7572	0.1647
260.9716	0.1775
261.186	0.1504
261.4003	0.1723
261.6147	0.1739
261.829	0.164
262.0433	0.1705
262.2577	0.1655
262.472	0.1724
262.6863	0.1638
262.9005	0.1616
263.1148	0.1648
263.3291	0.1527
263.5433	0.1633
263.7576	0.1639
263.9718	0.1667
264.186	0.1716
264.4002	0.1546
264.6144	0.1693
264.8286	0.1669
265.0427	0.1633
265.2569	0.1627
265.471	0.1611
265.6851	0.1582
265.8993	0.1565
266.1134	0.1651
266.3275	0.1555
266.5415	0.1573
266.7556	0.1742
266.9697	0.1613
267.1837	0.1723
267.3978	0.1733
267.6118	0.1703
267.8258	0.171
268.0398	0.1585
268.2538	0.1655
268.4677	0.166
268.6817	0.1598
268.8957	0.1644
269.1096	0.1669
269.3235	0.1701
269.5374	0.1514
269.7514	0.1679
269.9652	0.1415
270.1791	0.1455
270.393	0.1478
270.6068	0.1534
270.8207	0.1476
271.0345	0.1508
271.2483	0.1606
271.4622	0.1594
271.676	0.1568
271.8897	0.1279
272.1035	0.1455
272.3173	0.1458
272.531	0.1406
272.7448	0.1307
272.9585	0.1315
273.1722	0.1456
273.3859	0.1435
273.5996	0.1408
273.8133	0.1459
274.0269	0.1476
274.2406	0.1382
274.4542	0.1524
274.6679	0.1435
274.8815	0.1471
275.0951	0.1421
275.3087	0.1587
275.5223	0.1529
275.7358	0.1429
275.9494	0.151
276.1629	0.1354
276.3765	0.1419
276.59	0.1471
276.8035	0.1516
277.017	0.1593
277.2305	0.134
277.444	0.154
277.6574	0.1387
277.8709	0.1574
278.0843	0.1441
278.2978	0.1345
278.5112	0.1419
278.7246	0.1416
278.938	0.1528
279.1513	0.1515
279.3647	0.1567
279.5781	0.1532
279.7914	0.1557
280.0047	0.1707
280.2181	0.1556
280.4314	0.1481
280.6447	0.1566
280.8579	0.148
281.0712	0.1512
281.2845	0.1656
281.4977	0.151
281.711	0.1537
281.9242	0.1522
282.1374	0.162
282.3506	0.1397
282.5638	0.1567
282.7769	0.1491
282.9901	0.1563
283.2033	0.1687
283.4164	0.1569
283.6295	0.1404
283.8426	0.1534
284.0557	0.1531
284.2688	0.1667
284.4819	0.1659
284.695	0.1583
284.908	0.1622
285.1211	0.1439
285.3341	0.1698
285.5471	0.167
285.7601	0.1689
285.9731	0.1502
286.1861	0.1641
286.3991	0.1733
286.612	0.1624
286.825	0.1704
287.0379	0.18
287.2508	0.1549
287.4637	0.1685
287.6766	0.1615
287.8895	0.1726
288.1024	0.1902
288.3152	0.1716
288.5281	0.1682
288.7409	0.167
288.9538	0.1647
289.1666	0.1778
289.3794	0.1714
289.5922	0.1611
289.8049	0.167
290.0177	0.1685
290.2304	0.1895
290.4432	0.1697
290.6559	0.1627
290.8686	0.183
291.0813	0.1725
291.294	0.1649
291.5067	0.1786
291.7194	0.1764
291.932	0.1789
292.1447	0.1738
292.3573	0.1617
292.5699	0.1677
292.7825	0.1648
292.9951	0.1719
293.2077	0.1672
293.4203	0.168
293.6328	0.1706
293.8454	0.1807
294.0579	0.1777
294.2704	0.1783
294.4829	0.1634
294.6954	0.1806
294.9079	0.1745
295.1204	0.1715
295.3328	0.1743
295.5453	0.1705
295.7577	0.1765
295.9701	0.155
296.1825	0.1709
296.3949	0.1767
296.6073	0.1699
296.8197	0.1578
297.0321	0.1825
297.2444	0.1677
297.4567	0.1739
297.6691	0.17
297.8814	0.1596
298.0937	0.175
298.306	0.1782
298.5182	0.1724
298.7305	0.1737
298.9428	0.1763
299.155	0.1785
299.3672	0.1756
299.5794	0.1668
299.7916	0.1697
300.0038	0.1761
300.216	0.1659
300.4282	0.1728
300.6403	0.1698
300.8525	0.1767
301.0646	0.1701
301.2767	0.1658
301.4888	0.1653
301.7009	0.1693
301.913	0.1722
302.125	0.168
302.3371	0.1656
302.5491	0.1624
302.7612	0.178
302.9732	0.1736
303.1852	0.1669
303.3972	0.1693
303.6092	0.1714
303.8211	0.1519
304.0331	0.1587
304.245	0.1501
304.457	0.1625
304.6689	0.1601
304.8808	0.1775
305.0927	0.1529
305.3046	0.1685
305.5164	0.1651
305.7283	0.159
305.9401	0.1584
306.152	0.1465
306.3638	0.1622
306.5756	0.1455
306.7874	0.151
306.9992	0.1557
307.2109	0.1433
307.4227	0.1289
307.6344	0.144
307.8462	0.1427
308.0579	0.1415
308.2696	0.133
308.4813	0.1384
308.693	0.1404
308.9046	0.1476
309.1163	0.1361
309.328	0.1432
309.5396	0.1262
309.7512	0.1288
309.9628	0.1245
310.1744	0.1273
310.386	0.1245
310.5976	0.1295
310.8091	0.1196
311.0207	0.1195
311.2322	0.1165
311.4437	0.1045
311.6552	0.1177
311.8667	0.1191
312.0782	0.0934
312.2897	0.1043
312.5012	0.1212
312.7126	0.1033
312.924	0.1037
313.1355	0.1139
313.3469	0.1046
313.5583	0.1056
313.7696	0.1142
313.981	0.1121
314.1924	0.1081
314.4037	0.1058
314.6151	0.1109
314.8264	0.1034
315.0377	0.0955
315.249	0.0981
315.4603	0.1079
315.6716	0.106
315.8828	0.0988
316.0941	0.1156
316.3053	0.0921
316.5165	0.0942
316.7277	0.0943
316.9389	0.0974
317.1501	0.1015
317.3613	0.0986
317.5724	0.091
317.7836	0.092
317.9947	0.0984
318.2058	0.0974
318.417	0.0843
318.6281	0.0852
318.8391	0.0961
319.0502	0.0963
319.2613	0.111
319.4723	0.103
319.6834	0.1028
319.8944	0.0922
320.1054	0.1041
320.3164	0.0951
320.5274	0.0854
320.7383	0.107
320.9493	0.1091
321.1602	0.1122
321.3712	0.0944
321.5821	0.102
321.793	0.1032
322.0039	0.0965
322.2148	0.0941
322.4257	0.1028
322.6365	0.11
322.8474	0.0986
323.0582	0.0941
323.269	0.0978
323.4798	0.1139
323.6906	0.098
323.9014	0.1063
324.1122	0.0991
324.3229	0.0892
324.5337	0.0947
324.7444	0.0792
324.9551	0.1129
325.1658	0.102
325.3765	0.1098
325.5872	0.0998
325.7979	0.1024
326.0085	0.098
326.2192	0.1119
326.4298	0.1084
326.6404	0.1023
326.851	0.0986
327.0616	0.0944
327.2722	0.0993
327.4828	0.106
327.6933	0.099
327.9039	0.1123
328.1144	0.1128
328.3249	0.1095
328.5354	0.1009
328.7459	0.1044
328.9564	0.093
329.1669	0.1024
329.3773	0.1203
329.5878	0.1073
329.7982	0.0955
330.0086	0.1012
330.219	0.1156
330.4294	0.0952
330.6398	0.1099
330.8502	0.0997
331.0605	0.1126
331.2708	0.1184
331.4812	0.0992
331.6915	0.112
331.9018	0.113
332.1121	0.1095
332.3224	0.1077
332.5326	0.1092
332.7429	0.1105
332.9531	0.1205
333.1633	0.1114
333.3735	0.1131
333.5837	0.104
333.7939	0.1025
334.0041	0.1245
334.2143	0.1179
334.4244	0.1064
334.6346	0.0881
334.8447	0.1216
335.0548	0.1077
335.2649	0.1021
335.475	0.1232
335.685	0.1129
335.8951	0.1178
336.1051	0.1076
336.3152	0.1107
336.5252	0.1016
336.7352	0.1018
336.9452	0.1198
337.1552	0.1127
337.3652	0.1112
337.5751	0.1065
337.7851	0.1071
337.995	0.1084
338.2049	0.1082
338.4148	0.1109
338.6247	0.1109
338.8346	0.0961
339.0445	0.1122
339.2543	0.1118
339.4642	0.1138
339.674	0.1013
339.8838	0.1227
340.0936	0.1194
340.3034	0.1245
340.5132	0.1221
340.7229	0.116
340.9327	0.1071
341.1424	0.1088
341.3522	0.1335
341.5619	0.1162
341.7716	0.1128
341.9813	0.1217
342.1909	0.1155
342.4006	0.1298
342.6102	0.136
342.8199	0.1219
343.0295	0.1263
343.2391	0.1355
343.4487	0.1348
343.6583	0.1225
343.8679	0.1361
344.0774	0.121
344.287	0.1255
344.4965	0.13
344.706	0.1188
344.9155	0.1198
345.125	0.1253
345.3345	0.1264
345.544	0.1287
345.7534	0.1134
345.9629	0.1185
346.1723	0.1228
346.3817	0.1282
346.5911	0.1292
346.8005	0.1325
347.0099	0.1268
347.2193	0.1429
347.4286	0.1304
347.638	0.1377
347.8473	0.1347
348.0566	0.1436
348.2659	0.1409
348.4752	0.1294
348.6845	0.1262
348.8937	0.1353
349.103	0.1511
349.3122	0.1374
349.5214	0.1313
349.7306	0.1342
349.9398	0.1446
350.149	0.1469
350.3582	0.139
350.5674	0.1507
350.7765	0.1282
350.9856	0.1329
351.1948	0.1495
351.4039	0.1366
351.613	0.1437
351.822	0.1511
352.0311	0.1518
352.2402	0.1508
352.4492	0.1566
352.6582	0.1609
352.8672	0.1394
353.0762	0.1551
353.2852	0.1573
353.4942	0.1427
353.7032	0.1478
353.9121	0.1552
354.1211	0.1486
354.33	0.1536
354.5389	0.1587
354.7478	0.156
354.9567	0.1435
355.1655	0.1553
355.3744	0.1619
355.5833	0.1589
355.7921	0.1789
356.0009	0.1592
356.2097	0.1611
356.4185	0.168
356.6273	0.1681
356.8361	0.1697
357.0448	0.1568
357.2536	0.1626
357.4623	0.1676
357.671	0.1741
357.8797	0.1693
358.0884	0.1701
358.2971	0.1548
358.5057	0.1734
358.7144	0.1856
358.923	0.1675
359.1316	0.1758
359.3402	0.1729
359.5488	0.1691
359.7574	0.1531
359.966	0.1858
360.1746	0.1875
360.3831	0.1727
360.5916	0.1616
360.8002	0.1584
361.0087	0.1879
361.2172	0.1831
361.4256	0.1826
361.6341	0.1927
361.8426	0.1866
362.051	0.185
362.2594	0.1916
362.4678	0.1828
362.6762	0.2053
362.8846	0.1884
363.093	0.1896
363.3014	0.1782
363.5097	0.1912
363.718	0.2055
363.9264	0.195
364.1347	0.186
364.343	0.1906
364.5513	0.2143
364.7595	0.1959
364.9678	0.1871
365.176	0.1998
365.3842	0.202
365.5925	0.2032
365.8007	0.1973
366.0089	0.2085
366.217	0.1934
366.4252	0.212
366.6333	0.2278
366.8415	0.21
367.0496	0.1828
367.2577	0.225
367.4658	0.2115
367.6739	0.2072
367.882	0.2273
368.09	0.2172
368.2981	0.219
368.5061	0.2137
368.7141	0.2246
368.9221	0.2079
369.1301	0.2159
369.3381	0.2223
369.5461	0.2198
369.754	0.2243
369.962	0.212
370.1699	0.227
370.3778	0.2316
370.5857	0.2146
370.7936	0.2343
371.0015	0.2434
371.2093	0.2182
371.4172	0.2349
371.625	0.2223
371.8328	0.226
372.0406	0.2203
372.2484	0.2235
372.4562	0.2577
372.664	0.2387
372.8717	0.239
373.0795	0.208
373.2872	0.2307
373.4949	0.2437
373.7026	0.2456
373.9103	0.2426
374.118	0.247
374.3256	0.2152
374.5333	0.2221
374.7409	0.2323
374.9485	0.2552
375.1561	0.2412
375.3637	0.2516
375.5713	0.2443
375.7789	0.2467
375.9864	0.2382
376.194	0.24
376.4015	0.2769
376.609	0.265
376.8165	0.2506
377.024	0.2384
377.2315	0.2522
377.4389	0.2509
377.6464	0.2663
377.8538	0.2549
378.0612	0.2485
378.2686	0.2652
378.476	0.2791
378.6834	0.2531
378.8908	0.2504
379.0981	0.2815
379.3055	0.2672
379.5128	0.2534
379.7201	0.2575
379.9274	0.2591
380.1347	0.258
380.342	0.2677
380.5492	0.2723
380.7565	0.2718
380.9637	0.2577
381.1709	0.2487
381.3781	0.2692
381.5853	0.2588
381.7925	0.2563
381.9997	0.2798
382.2068	0.2831
382.4139	0.2768
382.6211	0.2655
382.8282	0.2694
383.0353	0.2744
383.2424	0.2681
383.4494	0.2682
383.6565	0.2616
383.8635	0.274
384.0706	0.2579
384.2776	0.2654
384.4846	0.2575
384.6916	0.2813
384.8986	0.2687
385.1055	0.2773
385.3125	0.2658
385.5194	0.2584
385.7263	0.2808
385.9333	0.2707
386.1402	0.2817
386.347	0.2663
386.5539	0.2621
386.7608	0.282
386.9676	0.2589
387.1744	0.278
387.3813	0.2538
387.5881	0.2719
387.7948	0.2441
388.0016	0.256
388.2084	0.2623
388.4151	0.2637
388.6219	0.2632
388.8286	0.2687
389.0353	0.2687
389.242	0.2652
389.4487	0.2574
389.6553	0.2497
389.862	0.2539
390.0686	0.2478
390.2753	0.2423
390.4819	0.2733
390.6885	0.2575
390.8951	0.2585
391.1016	0.2468
391.3082	0.2526
391.5147	0.2503
391.7213	0.2491
391.9278	0.233
392.1343	0.2517
392.3408	0.2529
392.5473	0.2452
392.7537	0.2445
392.9602	0.2394
393.1666	0.2573
393.373	0.2469
393.5794	0.2515
393.7858	0.2546
393.9922	0.235
394.1986	0.2555
394.4049	0.2429
394.6113	0.2333
394.8176	0.2222
395.0239	0.2534
395.2302	0.2361
395.4365	0.2327
395.6428	0.2476
395.8491	0.2369
396.0553	0.2421
396.2615	0.2239
396.4678	0.2207
396.674	0.2146
396.8802	0.2254
397.0863	0.2459
397.2925	0.2247
397.4987	0.2384
397.7048	0.2382
397.9109	0.2484
398.117	0.2117
398.3231	0.2112
398.5292	0.2392
398.7353	0.2365
398.9413	0.2186
399.1474	0.2233
399.3534	0.238
399.5594	0.2197
399.7654	0.2279
399.9714	0.2286
400.1774	0.2158
400.3833	0.224
400.5893	0.2241
400.7952	0.228
401.0011	0.2294
401.207	0.2382
401.4129	0.22
401.6188	0.2344
401.8247	0.2409
402.0305	0.2482
402.2364	0.2153
402.4422	0.2273
402.648	0.2274
402.8538	0.2409
403.0596	0.2293
403.2654	0.2294
403.4711	0.2179
403.6768	0.2271
403.8826	0.2244
404.0883	0.2396
404.294	0.2347
404.4997	0.2311
404.7054	0.234
404.911	0.2315
405.1167	0.2287
405.3223	0.2383
405.5279	0.231
405.7335	0.2456
405.9391	0.2382
406.1447	0.2191
406.3502	0.2306
406.5558	0.2299
406.7613	0.2297
406.9668	0.234
407.1724	0.2164
407.3778	0.207
407.5833	0.2243
407.7888	0.2334
407.9942	0.2435
408.1997	0.2317
408.4051	0.216
408.6105	0.2209
408.8159	0.2158
409.0213	0.2138
409.2267	0.2361
409.432	0.2124
409.6374	0.2397
409.8427	0.2211
410.048	0.2269
410.2533	0.2043
410.4586	0.2283
410.6639	0.2148
410.8691	0.2212
411.0744	0.2379
411.2796	0.2143
411.4848	0.2229
411.69	0.2149
411.8952	0.2256
412.1004	0.207
412.3056	0.2171
412.5107	0.2112
412.7158	0.2371
412.921	0.2281
413.1261	0.2218
413.3312	0.2171
413.5362	0.2167
413.7413	0.2362
413.9464	0.2342
414.1514	0.2405
414.3564	0.209
414.5614	0.2018
414.7664	0.2391
414.9714	0.2095
415.1764	0.2207
415.3813	0.2187
415.5863	0.2129
415.7912	0.2245
415.9961	0.2165
416.201	0.223
416.4059	0.2185
416.6108	0.2029
416.8156	0.222
417.0205	0.2234
417.2253	0.2275
417.4301	0.2221
417.6349	0.2178
417.8397	0.2226
418.0445	0.228
418.2492	0.2175
418.454	0.2163
418.6587	0.2194
418.8634	0.2285
419.0681	0.2011
419.2728	0.2135
419.4775	0.2094
419.6822	0.2213
419.8868	0.192
420.0915	0.2193
420.2961	0.2085
420.5007	0.2034
420.7053	0.214
420.9099	0.2041
421.1144	0.2113
421.319	0.2112
421.5235	0.2076
421.728	0.191
421.9325	0.2023
422.137	0.2207
422.3415	0.1945
422.546	0.1946
422.7504	0.198
422.9549	0.1938
423.1593	0.2006
423.3637	0.216
423.5681	0.2
423.7725	0.1944
423.9769	0.1896
424.1812	0.1818
424.3856	0.1689
424.5899	0.1992
424.7942	0.2019
424.9985	0.1992
425.2028	0.1849
425.4071	0.2102
425.6113	0.1797
425.8156	0.1761
426.0198	0.1874
426.224	0.1594
426.4282	0.1885
426.6324	0.1789
426.8366	0.1971
427.0407	0.191
427.2449	0.1719
427.449	0.1811
427.6531	0.1645
427.8572	0.1621
428.0613	0.164
428.2654	0.1737
428.4694	0.1541
428.6735	0.1563
428.8775	0.1873
429.0815	0.174
429.2855	0.16
429.4895	0.169
429.6935	0.1749
429.8975	0.1697
430.1014	0.1707
430.3053	0.1485
430.5093	0.1668
430.7132	0.1474
430.9171	0.1413
431.1209	0.1591
431.3248	0.1389
431.5286	0.1598
431.7325	0.1519
431.9363	0.119
432.1401	0.1563
432.3439	0.1483
432.5477	0.1067
432.7514	0.1409
432.9552	0.1276
433.1589	0.1284
433.3627	0.1298
433.5664	0.1292
433.7701	0.1299
433.9737	0.1146
434.1774	0.127
434.3811	0.1291
434.5847	0.1238
434.7883	0.1219
434.9919	0.1216
435.1955	0.1287
435.3991	0.1172
435.6027	0.1222
435.8062	0.1114
436.0098	0.1015
436.2133	0.1357
436.4168	0.1048
436.6203	0.1179
436.8238	0.1264
437.0272	0.1127
437.2307	0.1026
437.4341	0.1053
437.6375	0.1038
437.841	0.0962
438.0443	0.1117
438.2477	0.1138
438.4511	0.1002
438.6545	0.1058
438.8578	0.0988
439.0611	0.1005
439.2644	0.0962
439.4677	0.0798
439.671	0.0706
439.8743	0.0975
440.0775	0.1075
440.2808	0.0826
440.484	0.081
440.6872	0.0697
440.8904	0.0736
441.0936	0.0885
441.2967	0.079
441.4999	0.0872
441.703	0.077
441.9062	0.0681
442.1093	0.0741
442.3124	0.0787
442.5155	0.0703
442.7185	0.0659
442.9216	0.0405
443.1246	0.0689
443.3276	0.062
443.5307	0.0576
443.7337	0.0668
443.9366	0.0656
444.1396	0.0649
444.3426	0.0587
444.5455	0.0749
444.7484	0.0549
444.9513	0.061
445.1542	0.059
445.3571	0.0537
445.56	0.0542
445.7628	0.0509
445.9657	0.0492
446.1685	0.0631
446.3713	0.0516
446.5741	0.0433
446.7769	0.0328
446.9797	0.048
447.1824	0.046
447.3852	0.0403
447.5879	0.0414
447.7906	0.0544
447.9933	0.0465
448.196	0.0303
448.3986	0.0417
448.6013	0.0371
448.8039	0.0266
449.0066	0.035
449.2092	0.0467
449.4118	0.0461
449.6143	0.034
449.8169	0.0465
450.0195	0.0334
450.222	0.0229
450.4245	0.0331
450.627	0.0489
450.8295	0.0273
451.032	0.0379
451.2345	0.0458
451.4369	0.031
451.6394	0.0333
451.8418	0.0102
452.0442	0.035
452.2466	0.0408
452.449	0.0053
452.6513	0.0319
452.8537	0.027
453.056	0.0202
453.2583	0.0253
453.4607	0.0345
453.663	0.0247
453.8652	0.0155
454.0675	0.0125
454.2697	0.0295
454.472	0.0154
454.6742	0.0406
454.8764	0.0224
455.0786	0.0396
455.2808	0.017
455.4829	0.0163
455.6851	0.0089
455.8872	0.0319
456.0893	0.0373
456.2915	0.0075
456.4935	0.0309
456.6956	0.0144
456.8977	0.0151
457.0997	0.0246
457.3018	-0.0027
457.5038	0.015
457.7058	0.002
457.9078	0.0127
458.1098	0.0246
458.3117	0.0259
458.5137	0.0175
458.7156	0.0113
458.9175	0.0004
459.1194	0.0005
459.3213	0.0191
459.5232	0.0131
459.725	-0.0076
459.9269	0.0136
460.1287	0.0087
460.3305	0.0057
460.5323	0.0104
460.7341	0.0132
460.9359	0.0008
461.1376	0.0066
461.3394	0.0077
461.5411	0.0174
461.7428	0.01
461.9445	0.0238
462.1462	0.0238
462.3479	0.0154
462.5495	0.0074
462.7512	0.007
462.9528	-0.0029
463.1544	-0.0138
463.356	0.0165
463.5576	0.0148
463.7592	0.0007
463.9607	0.013
464.1623	0.023
464.3638	0.0304
464.5653	-0.0111
464.7668	0.0022
464.9683	0.0095
465.1697	0.0181
465.3712	-0.0152
465.5726	0.0044
465.7741	0.0055
465.9755	0.0044
466.1769	0.0063
466.3782	0.0102
466.5796	0.0009
466.7809	-0.0054
466.9823	-0.0012
467.1836	0.0078
467.3849	-0.0016
467.5862	0.0083
467.7875	-0.0016
467.9887	0.0201
468.19	0.0004
468.3912	0.0034
468.5924	-0.012
468.7936	0.0018
468.9948	-0.0064
469.196	0.0087
469.3972	-0.0053
469.5983	0.0178
469.7994	-0.0121
470.0006	0.0125
470.2017	-0.0096
470.4027	-0.0061
470.6038	0.0049
470.8049	0.0006
471.0059	-0.0018
471.2069	-0.0242
471.408	0.0099
471.6089	0.0091
471.8099	-0.0054
472.0109	0.004
472.2119	-0.0029
472.4128	-0.0205
472.6137	0.0071
472.8146	-0.0001
473.0155	0.0156
473.2164	0.0011
473.4173	0.0014
473.6181	0.0153
473.819	0
474.0198	-0.0104
474.2206	0.0038
474.4214	-0.0032
474.6222	0.0015
474.8229	-0.0056
475.0237	-0.006
475.2244	-0.0072
475.4251	0.0087
475.6258	-0.0058
475.8265	0.0013
476.0272	0.0154
476.2278	0.0016
476.4285	-0.0032
476.6291	-0.0001
476.8297	-0.007
477.0303	0.008
477.2309	0.0133
477.4315	-0.0108
477.632	0.0002
477.8326	0.0019
478.0331	0.0078
478.2336	0.0112
478.4341	0.0066
478.6346	-0.0062
478.8351	0.002
479.0355	0.0047
479.236	0.0032
479.4364	0.0089
479.6368	0.0175
479.8372	-0.0052
480.0376	0.0068
480.2379	-0.0178
480.4383	-0.0005
480.6386	0.0111
480.8389	-0.0018
481.0392	-0.0027
481.2395	-0.0076
481.4398	0.0072
481.6401	0.0065
481.8403	-0.0022
482.0405	0.0049
482.2408	-0.0063
482.441	0.0043
482.6411	0.0007
482.8413	0.0004
483.0415	-0.0057
483.2416	-0.0036
483.4417	0.0042
483.6419	-0.0014
483.8419	-0.0062
484.042	0.0165
484.2421	-0.0027
484.4422	0.0011
484.6422	0.0014
484.8422	0.005
485.0422	-0.0137
485.2422	0.0066
485.4422	-0.0067
485.6422	0.0005
485.8421	-0.0009
486.042	-0.0024
486.242	0.0029
486.4419	-0.0069
486.6417	-0.0084
486.8416	0.0007
487.0415	-0.0122
487.2413	-0.0107
487.4411	0.0037
487.641	-0.0146
487.8408	0.0018
488.0405	-0.0074
488.2403	-0.0003
488.4401	0.0136
488.6398	0.0024
488.8395	-0.0083
489.0392	-0.0028
489.2389	-0.0017
489.4386	-0.009
489.6383	-0.0018
489.8379	0.0045
490.0376	-0.0046
490.2372	-0.0154
490.4368	-0.0093
490.6364	-0.0096
490.836	-0.0049
491.0355	-0.0052
491.2351	-0.0088
491.4346	0.0064
491.6341	-0.0009
491.8336	0.0098
492.0331	-0.0069
492.2326	-0.0129
492.432	0.0021
492.6315	-0.0054
492.8309	-0.0246
493.0303	-0.0042
493.2297	-0.0071
493.4291	-0.002
493.6284	-0.0011
493.8278	0.0029
494.0271	-0.0033
494.2264	0.0065
494.4257	-0.0102
494.625	0.0004
494.8243	-0.0179
495.0236	-0.0087
495.2228	-0.0044
495.422	-0.0069
495.6213	-0.0013
495.8205	-0.002
496.0196	0.005
496.2188	-0.0028
496.418	-0.0167
496.6171	-0.0056
496.8162	-0.0099
497.0153	0.0126
497.2144	-0.0161
497.4135	0
497.6126	-0.0023
497.8116	-0.0053
498.0107	0.0001
498.2097	-0.0134
498.4087	-0.0103
498.6077	0.0004
498.8067	0.0001
499.0056	0.0102
499.2046	-0.0058
499.4035	-0.009
499.6024	-0.0019
499.8013	-0.0074
500.0002	-0.0107
500.199	-0.0041
500.3979	-0.0055
500.5967	-0.015
500.7956	0.0094
500.9944	-0.0076
501.1932	-0.0185
501.3919	-0.0067
501.5907	-0.0139
501.7895	-0.0062
501.9882	-0.0069
502.1869	-0.0092
502.3856	-0.0138
502.5843	-0.0138
502.783	-0.0104
502.9816	-0.0002
503.1803	-0.0179
503.3789	-0.0149
503.5775	0.0029
503.7761	-0.0014
503.9747	0.0096
504.1732	-0.0147
504.3718	0.0009
504.5703	-0.0073
504.7689	-0.0065
504.9674	-0.0022
505.1658	-0.0031
505.3643	-0.0001
505.5628	-0.0008
505.7612	-0.0092
505.9597	0.0068
506.1581	-0.0003
506.3565	0.0076
506.5549	-0.0082
506.7532	-0.0129
506.9516	-0.0064
507.1499	0.0015
507.3482	-0.017
507.5465	-0.0083
507.7448	0.0052
507.9431	-0.0045
508.1414	-0.0031
508.3396	0.0032
508.5379	-0.0038
508.7361	0.0021
508.9343	-0.0066
509.1325	0.0024
509.3306	-0.0075
509.5288	-0.0047
509.7269	0.0022
509.9251	0.0037
510.1232	-0.0039
510.3213	-0.0052
510.5193	-0.003
510.7174	-0.01
510.9154	-0.0126
511.1135	-0.0044
511.3115	-0.0075
511.5095	-0.0012
511.7075	-0.007
511.9055	-0.0071
512.1034	-0.0048
512.3014	-0.0053
512.4993	0.0089
512.6972	-0.0108
512.8951	-0.0088
513.093	-0.0073
513.2908	0.0043
513.4887	0.0023
513.6865	-0.0117
513.8844	-0.0031
514.0822	-0.0032
514.2799	-0.015
514.4777	-0.0025
514.6755	-0.0089
514.8732	-0.0028
515.0709	0.003
515.2687	-0.0023
515.4664	0.0039
515.664	0.0015
515.8617	-0.0076
516.0594	-0.0108
516.257	-0.0049
516.4546	-0.0102
516.6522	0.0001
516.8498	0.002
517.0474	0.0062
517.2449	0.0031
517.4425	-0.0089
517.64	-0.0064
517.8375	0.0013
518.035	-0.0047
518.2325	-0.0068
518.43	-0.0072
518.6274	-0.0119
518.8249	-0.0098
519.0223	-0.0006
519.2197	-0.002
519.4171	-0.0049
519.6145	-0.0097
519.8118	-0.0074
520.0092	-0.0028
520.2065	-0.0066
520.4038	-0.0145
520.6011	-0.0094
520.7984	-0.0059
520.9956	-0.0053
521.1929	-0.008
521.3901	-0.0084
521.5874	-0.0036
521.7846	-0.0055
521.9818	-0.0059
522.1789	-0.0055
522.3761	-0.0099
522.5732	-0.0093
522.7704	-0.0011
522.9675	-0.0062
523.1646	-0.0094
523.3617	0.0046
523.5587	-0.0062
523.7558	-0.0046
523.9528	-0.0005
524.1498	0.004
524.3468	-0.0016
524.5438	-0.0102
524.7408	0.0012
524.9378	0.0034
525.1347	0.0025
525.3316	-0.002
525.5285	-0.0039
525.7254	-0.0079
525.9223	-0.0023
526.1192	-0.0049
526.316	-0.0003
526.5129	0.0054
526.7097	-0.0009
526.9065	-0.0021
527.1033	-0.0076
527.3	-0.0045
527.4968	-0.0032
527.6935	0.0014
527.8903	-0.0084
528.087	-0.0027
528.2837	-0.0111
528.4804	0.0023
528.677	-0.0048
528.8737	0.0052
529.0703	-0.0068
529.2669	-0.0034
529.4635	-0.0015
529.6601	-0.0023
529.8567	0.0028
530.0532	-0.0046
530.2498	0.0093
530.4463	-0.0024
530.6428	-0.0035
530.8393	0.0099
531.0358	-0.0085
531.2322	0.0013
531.4287	0.0038
531.6251	0.0026
531.8215	0.0164
532.0179	0.002
532.2143	0.0157
532.4107	0.0019
532.607	-0.0043
532.8034	-0.0011
532.9997	-0.0018
533.196	-0.0073
533.3923	-0.0068
533.5886	0.0025
533.7848	0.0035
533.9811	-0.0003
534.1773	0.0064
534.3735	0.0103
534.5697	0.0033
534.7659	0.0013
534.9621	-0.0029
535.1582	-0.0027
535.3544	-0.0033
535.5505	-0.0022
535.7466	-0.0012
535.9427	-0.0017
536.1387	0.0007
536.3348	-0.0034
536.5308	0.0059
536.7269	-0.0115
536.9229	-0.0033
537.1189	0
537.3148	-0.0028
537.5108	-0.0032
537.7068	-0.0042
537.9027	0.0053
538.0986	-0.0009
538.2945	-0.0087
538.4904	0.0008
538.6863	-0.0017
538.8821	-0.007
539.078	-0.0156
539.2738	-0.0004
539.4696	0.0036
539.6654	0.0036
539.8611	0.0107
540.0569	0.0074
540.2526	-0.0055
540.4484	0.0088
540.6441	0.0135
540.8398	-0.002
541.0355	0.0007
541.2311	0.0094
541.4268	-0.0036
541.6224	0.0053
541.818	-0.0045
542.0136	0.0013
542.2092	0.0128
542.4048	0.0036
542.6003	-0.004
542.7959	-0.0005
542.9914	-0.0005
543.1869	0.0003
543.3824	0.0035
543.5779	-0.0088
543.7734	-0.0011
543.9688	-0.0104
544.1642	0.0022
544.3596	0.0026
544.555	-0.0114
544.7504	0.0016
544.9458	-0.0056
545.1411	-0.0038
545.3365	-0.0051
545.5318	-0.0061
545.7271	0.0029
545.9224	0.0056
546.1177	-0.0033
546.3129	-0.0007
546.5081	-0.0065
546.7034	-0.0054
546.8986	-0.0026
547.0938	0.003
547.289	-0.0112
547.4841	-0.0048
547.6793	0.0077
547.8744	-0.0062
548.0695	-0.0027
548.2646	-0.005
548.4597	0.0036
548.6548	-0.0038
548.8498	-0.0025
549.0448	-0.0025
549.2399	0.0093
549.4349	0.0057
549.6298	-0.0013
549.8248	-0.0004
550.0198	-0.0058
550.2147	0.0015
550.4096	-0.0052
550.6045	-0.0004
550.7994	0.0069
550.9943	0.0061
551.1892	-0.0024
551.384	0.0048
551.5788	-0.0016
551.7737	-0.0021
551.9685	-0.0059
552.1632	0.0069
552.358	-0.0007
552.5528	0.001
552.7475	-0.0054
552.9422	0.0043
553.1369	0.009
553.3316	-0.0008
553.5263	-0.0035
553.7209	0.0064
553.9156	-0.0053
554.1102	-0.0024
554.3048	-0.004
554.4994	0.0096
554.694	-0.0006
554.8885	0.009
555.0831	-0.0088
555.2776	0.0047
555.4721	0.0001
555.6666	-0.0027
555.8611	0.0013
556.0555	-0.0042
556.25	0.0011
556.4444	-0.0038
556.6388	0.0064
556.8332	0.0064
557.0276	-0.0006
557.222	-0.0012
557.4163	0.0035
557.6107	-0.001
557.805	0.0101
557.9993	-0.0099
558.1936	0.001
558.3879	0.0058
558.5821	0.0067
558.7764	-0.0046
558.9706	0.0006
559.1648	0.0072
559.359	-0.0043
559.5532	-0.0021
559.7473	-0.001
559.9415	0.0065
560.1356	-0.0016
560.3297	-0.0036
560.5238	0.0016
560.7179	0.0044
560.9119	-0.0018
561.106	0.0008
561.3	0.001
561.494	0.0081
561.688	-0.0139
561.882	-0.0006
562.076	0.0058
562.2699	0.005
562.4639	0.002
562.6578	0.0037
562.8517	0.0006
563.0456	-0.0044
563.2395	-0.0024
563.4333	-0.004
563.6272	0.0143
563.821	-0.0017
564.0148	0.0007
564.2086	-0.004
564.4024	0.0026
564.5961	0.0009
564.7899	0.0036
564.9836	0.0013
565.1773	-0.0048
565.371	-0.0001
565.5647	0.0066
565.7584	0.0036
565.952	0.0065
566.1456	-0.0005
566.3393	0.0047
566.5329	0.0026
566.7264	-0.0043
566.92	-0.0061
567.1136	0.0037
567.3071	-0.0063
567.5006	0.0076
567.6941	0.0106
567.8876	0.0038
568.0811	-0.0019
568.2745	0.0011
568.468	0.0105
568.6614	0.0127
568.8548	0.0045
569.0482	0.0025
569.2416	0.0081
569.4349	0.0039
569.6283	0.0165
569.8216	0.0006
570.0149	0.0061
570.2082	0.0137
570.4015	0.01
570.5947	0.0126
570.788	0.0069
570.9812	0.0119
571.1744	0.0093
571.3676	-0.0015
571.5608	0.0033
571.754	0.0072
571.9471	0.0076
572.1402	0.0029
572.3333	-0.0001
572.5264	0.0039
572.7195	0.006
572.9126	0.0067
573.1057	0.0035
573.2987	0.0077
573.4917	0.0063
573.6847	-0.0038
573.8777	0.0114
574.0707	0.0155
574.2636	-0.0032
574.4566	0.0031
574.6495	0.0059
574.8424	0.0041
575.0353	-0.0054
575.2281	0.0097
575.421	0.0047
575.6138	0.0057
575.8067	0.0052
575.9995	0.0021
576.1923	0.0062
576.385	0.0123
576.5778	0.0011
576.7706	0.0068
576.9633	0.0045
577.156	0.0065
577.3487	-0.0025
577.5414	0.0075
577.734	-0.0023
577.9267	0.0126
578.1193	-0.0055
578.3119	0.0044
578.5045	0.007
578.6971	0.0066
578.8897	0.0102
579.0822	0.0046
579.2747	0.0007
579.4673	0.0022
579.6598	0.0024
579.8522	0.0039
580.0447	-0.0001
580.2372	-0.0021
580.4296	0.0074
580.622	0.0052
580.8144	0.0071
581.0068	0.0003
581.1992	-0.0053
581.3915	0.0018
581.5839	-0.003
581.7762	-0.0002
581.9685	0.0014
582.1608	0.0047
582.353	0.0007
582.5453	0.01
582.7375	0.002
582.9298	0.0044
583.122	0.0031
583.3142	0.0065
583.5063	-0.0044
583.6985	-0.0001
583.8906	0.0044
584.0827	-0.0044
584.2749	0.0098
584.4669	0.0069
584.659	-0.0043
584.8511	0.0074
585.0431	0.0003
585.2352	0.0094
585.4272	0.0034
585.6192	0.0095
585.8111	-0.0017
586.0031	0.0019
586.195	0.0039
586.387	0.0054
586.5789	0.0058
586.7708	0.0001
586.9627	-0.0017
587.1545	-0.0007
587.3464	0.0049
587.5382	0.006
587.73	0.0093
587.9218	0.0087
588.1136	0.0072
588.3053	0.0127
588.4971	-0.0017
588.6888	-0.0055
588.8805	0.0088
589.0722	0.0094
589.2639	0.006
589.4556	0.0006
589.6472	0.0023
589.8389	-0.0023
590.0305	-0.0059
590.2221	0.0043
590.4137	-0.003
590.6052	0.0082
590.7968	0.006
590.9883	0.001
591.1798	0.0005
591.3713	0.0041
591.5628	0.0065
591.7543	0.0126
591.9458	0.008
592.1372	0.0127
592.3286	0.0109
592.52	0.0091
592.7114	0.0003
592.9028	-0.0007
593.0941	0.0009
593.2855	0.0089
593.4768	-0.0006
593.6681	-0.0015
593.8594	0.0041
594.0506	0.0007
594.2419	0.0163
594.4331	0.0059
594.6244	0.0117
594.8156	0.0032
595.0067	0.0084
595.1979	0.008
595.3891	0.0091
595.5802	-0.001
595.7713	-0.0001
595.9624	-0.0011
596.1535	0.0043
596.3446	0.0046
596.5357	0.0058
596.7267	0.006
596.9177	0.0042
597.1087	-0.0044
597.2997	0.0032
597.4907	0.0068
597.6817	-0.0008
597.8726	0.0029
598.0635	-0.0013
598.2544	0.0058
598.4453	0.0025
598.6362	0.0015
598.827	0.0007
599.0179	0.0053
599.2087	0.0078
599.3995	0.0041
599.5903	0.0027
599.7811	0.0067
599.9718	0.006
600.1626	-0.0025
600.3533	-0.006
600.544	0.0029
600.7347	0.0015
600.9254	0.0057
601.116	-0.0043
601.3067	0.0059
601.4973	-0.0015
601.6879	0.0088
601.8785	0.0015
602.0691	0.0066
602.2596	0.0054
602.4502	0.0085
602.6407	0.0058
602.8312	0.0051
603.0217	-0.0014
603.2122	0.0028
603.4027	0.0002
603.5931	-0.0031
603.7835	-0.0024
603.9739	0.0021
604.1643	-0.0021
604.3547	0.0012
604.5451	0.0056
604.7354	0.0101
604.9257	0.0071
605.116	-0.0007
605.3063	0.0118
605.4966	0.0116
605.6869	0.0083
605.8771	0.0124
606.0673	0.0105
606.2575	0.0109
606.4477	0.0026
606.6379	0.0069
606.8281	0.0033
607.0182	0.0017
607.2083	0.014
607.3985	-0.002
607.5885	0.0009
607.7786	-0.0001
607.9687	-0.0034
608.1587	0.0009
608.3488	0.0077
608.5388	0.0012
608.7288	0.0018
608.9187	-0.0007
609.1087	-0.0036
609.2986	-0.0051
609.4886	0.0034
609.6785	0.0015
609.8684	0.0101
610.0582	0.0117
610.2481	0.0008
610.4379	0.0002
610.6278	-0.001
610.8176	0.0008
611.0074	0.002
611.1971	0.0066
611.3869	0.006
611.5766	-0.0022
611.7664	0.0068
611.9561	0.0183
612.1458	0.004
612.3354	0.0055
612.5251	0.0118
612.7147	0.004
612.9044	0.011
613.094	-0.0037
613.2836	0.0047
613.4731	0.0041
613.6627	0.0021
613.8522	0.0065
614.0417	0.0103
614.2313	-0.0026
614.4207	-0.0063
614.6102	0.0067
614.7997	0.0027
614.9891	-0.0028
615.1785	0.005
615.3679	0.0037
615.5573	0.0137
615.7467	0.0006
615.9361	0.0045
616.1254	0.0032
616.3147	0.0007
616.504	0.0086
616.6933	0.0033
616.8826	0.0133
617.0718	0.0085
617.2611	0.0097
617.4503	0.0048
617.6395	0.0037
617.8287	0.0054
618.0179	0.004
618.207	0.0166
618.3961	0.0064
618.5853	0.0018
618.7744	0.0108
618.9634	0.0094
619.1525	0.0065
619.3416	0.0058
619.5306	0.0097
619.7196	0.0094
619.9086	0.0091
620.0976	0.0099
620.2866	0.0082
620.4755	0.0125
620.6645	0.0069
620.8534	0.0134
621.0423	0.0146
621.2312	0.0111
621.42	0.0051
621.6089	0.0063
621.7977	0.0098
621.9865	-0.0041
622.1753	0.0054
622.3641	0.0074
622.5529	0.0188
622.7416	0.0138
622.9303	0.0038
623.1191	0.0167
623.3078	0.0014
623.4964	0.0133
623.6851	0.0014
623.8737	0.0058
624.0624	0.0129
624.251	-0.0044
624.4396	0.0098
624.6282	0.0045
624.8167	0.0036
625.0053	0.0011
625.1938	0.008
625.3823	0.0108
625.5708	0.0047
625.7593	-0.0022
625.9477	0.0035
626.1362	0.0021
626.3246	0.0017
626.513	0.0098
626.7014	0.0099
626.8898	0.0045
627.0781	0.0111
627.2665	-0.002
627.4548	0.0052
627.6431	0.0059
627.8314	0.0073
628.0197	0.0136
628.2079	0.0026
628.3962	-0.0025
628.5844	0.0053
628.7726	0.0058
628.9608	0.0101
629.1489	0.0052
629.3371	0.0066
629.5252	0.0067
629.7134	0.0105
629.9015	-0.0019
630.0895	0.0012
630.2776	0.0074
630.4657	0.0006
630.6537	0.0002
630.8417	0.0057
631.0297	-0.0002
631.2177	0.0106
631.4057	0.0002
631.5936	-0.0002
631.7815	0.0089
631.9695	0.0079
632.1574	0.0141
632.3452	0.0122
632.5331	0.0018
632.7209	0.0032
632.9088	0.0146
633.0966	0.0084
633.2844	-0.001
633.4722	0.0046
633.6599	0.0111
633.8477	0.0018
634.0354	0.0062
634.2231	0.0006
634.4108	0.0111
634.5985	0.0105
634.7861	0.0076
634.9738	0.0061
635.1614	0.0075
635.349	0.0075
635.5366	0.001
635.7242	0.004
635.9117	0.0067
636.0993	0.0001
636.2868	0.005
636.4743	-0.0025
636.6618	0.0114
636.8492	-0.0012
637.0367	0.0085
637.2241	0.0061
637.4115	0.0053
637.5989	0.0034
637.7863	0.0037
637.9737	0.0061
638.161	0.0041
638.3484	0.0025
638.5357	0.0083
638.723	0.0087
638.9103	0.0185
639.0975	0.0135
639.2848	0.0053
639.472	0.0092
639.6592	0.0095
639.8464	0.02
640.0336	0.0125
640.2208	0.007
640.4079	0.0019
640.595	0.007
640.7821	0.0005
640.9692	0.0011
641.1563	0.0066
641.3434	0.0118
641.5304	0.0021
641.7174	0.0102
641.9044	0.007
642.0914	0.0065
642.2784	0.0049
642.4653	0.0087
642.6523	0.0051
642.8392	-0.0006
643.0261	0.0059
643.213	0.0033
643.3999	-0.0024
643.5867	0.0005
643.7735	0.0079
643.9604	-0.0015
644.1472	0.0042
644.3339	0.0054
644.5207	0.0016
644.7075	0.0058
644.8942	0.0106
645.0809	0.0054
645.2676	0.0111
645.4543	0.0017
645.6409	0.0075
645.8276	0.0086
646.0142	0.0068
646.2008	0.0023
646.3874	-0.0007
646.574	0.0066
646.7605	0.0066
646.9471	-0.0055
647.1336	-0.0026
647.3201	0.0061
647.5066	-0.0008
647.6931	0.0128
647.8795	0.0084
648.0659	0.003
648.2524	0.0143
648.4388	0.0063
648.6252	0.0102
648.8115	0
648.9979	0.0034
649.1842	0.0057
649.3705	0.0111
649.5568	0.0083
649.7431	0.015
649.9294	-0.0004
650.1156	0.0127
650.3018	0.0014
650.488	0.0078
650.6742	0.0102
650.8604	0.0088
651.0466	0.0001
651.2327	0.0075
651.4188	0.0028
651.6049	0.0066
651.791	0.0054
651.9771	0.0088
652.1632	0.0092
652.3492	0.0088
652.5352	0.0084
652.7212	0.0038
652.9072	0.0045
653.0932	-0.0029
653.2791	-0.0041
653.465	-0.0001
653.651	-0.0027
653.8369	-0.0023
654.0227	0.0022
654.2086	0.0083
654.3944	0.0108
654.5803	0.0022
654.7661	0.0011
654.9519	0.0097
655.1377	-0.0035
655.3234	0.0039
655.5092	-0.0031
655.6949	-0.002
655.8806	0.0004
656.0663	-0.0006
656.2519	0.0043
656.4376	0.0028
656.6232	0.01
656.8088	0.005
656.9945	0.0017
657.18	0.003
657.3656	0.0074
657.5511	0.0002
657.7367	0.0007
657.9222	0.0107
658.1077	0.0012
658.2932	0.0092
658.4786	-0.0011
658.6641	0.0062
658.8495	0.0076
659.0349	0.001
659.2203	0.0091
659.4057	0.007
659.591	0.0071
659.7764	0.0032
659.9617	0.0069
660.147	0.0071
660.3323	0.0135
660.5176	0.019
660.7028	0.0129
660.888	0.0114
661.0733	0.0097
661.2585	-0.0015
661.4436	0.0051
661.6288	-0.0019
661.8139	0.0087
661.9991	0.0187
662.1842	0.0031
662.3693	0.0071
662.5544	0.006
662.7394	0.0074
662.9245	-0.0002
663.1095	0.0089
663.2945	0.003
663.4795	0.0037
663.6644	0.0086
663.8494	0.0108
664.0343	0.0113
664.2193	0.004
664.4042	0.0077
664.589	0.0062
664.7739	0.0118
664.9587	-0.0022
665.1436	0.0076
665.3284	0.0122
665.5132	0.0025
665.698	0.0003
665.8827	0.0153
666.0675	0.0021
666.2522	0.0026
666.4369	0.0108
666.6216	0.0116
666.8063	0.01
666.9909	0.0029
667.1756	0.0036
667.3602	0.0063
667.5448	0.0038
667.7294	0.0101
667.9139	0.0085
668.0985	0.0152
668.283	0.0044
668.4675	0.0068
668.652	0.004
668.8365	0.0055
669.0209	0.0153
669.2054	0.0149
669.3898	0.0048
669.5742	0.006
669.7586	0.0116
669.943	0.0157
670.1273	0.012
670.3117	0.0102
670.496	0.0079
670.6803	0.0198
670.8646	0.0098
671.0488	0.0093
671.2331	0.0175
671.4173	0.0191
671.6015	0.0012
671.7857	0.0144
671.9699	0.0104
672.1541	0.0095
672.3382	0.0035
672.5223	0.0051
672.7064	0.0129
672.8905	0.0119
673.0746	0.0015
673.2587	0.0064
673.4427	0.0091
673.6267	0.0123
673.8107	0.0175
673.9947	0.0157
674.1787	0.0134
674.3626	0.0041
674.5465	0.012
674.7304	0.006
674.9143	0.0128
675.0982	0.0065
675.2821	-0.0028
675.4659	0.0059
675.6497	0.0047
675.8335	0.004
676.0173	0.0001
676.2011	0.0011
676.3849	0.0016
676.5686	-0.0004
676.7523	0.0032
676.936	0.006
677.1197	0.0002
677.3034	0.0038
677.487	0.0037
677.6706	0.0075
677.8542	0.0055
678.0378	0.0039
678.2214	0.0041
678.405	0.0035
678.5885	-0.0072
678.772	-0.0036
678.9555	-0.005
679.139	0.0033
679.3225	-0.0008
679.5059	0.0005
679.6894	0.0001
679.8728	-0.0005
680.0562	0.0018
680.2395	0.0034
680.4229	-0.0022
680.6062	0.0096
680.7896	0.0076
680.9729	-0.0029
681.1562	0.0062
681.3394	0.0022
681.5227	-0.0003
681.7059	0.001
681.8891	0.0011
682.0723	0.017
682.2555	0.0111
682.4387	-0.0005
682.6218	-0.0054
682.805	0.0052
682.9881	0.009
683.1712	0.0021
683.3542	-0.0012
683.5373	0.0077
683.7203	-0.0009
683.9034	0.0004
684.0864	-0.0107
684.2694	0.0035
684.4523	0.0074
684.6353	0.0008
684.8182	0.0108
685.0011	-0.005
685.184	0.0035
685.3669	0.0015
685.5498	0.0044
685.7326	0.0006
685.9154	-0.0024
686.0982	0.0126
686.281	0.0058
686.4638	0.005
686.6465	0.0032
686.8293	0.0061
687.012	0.0086
687.1947	-0.0027
687.3774	0.0106
687.56	0.0026
687.7427	0.0126
687.9253	-0.0005
688.1079	0.0055
688.2905	0.0132
688.4731	-0.0026
688.6556	0.006
688.8382	0.0012
689.0207	0.009
689.2032	-0.006
689.3857	0.0037
689.5681	0.0057
689.7506	0.005
689.933	-0.0011
690.1154	0.0089
690.2978	0.007
690.4802	0.012
690.6626	-0.0042
690.8449	-0.0013
691.0272	0.0123
691.2095	0.0023
691.3918	-0.0004
691.5741	0.0129
691.7563	-0.0018
691.9386	0.0044
692.1208	0.0072
692.303	0.005
692.4852	0.0115
692.6673	0.0052
692.8495	0.0019
693.0316	0.0054
693.2137	0.0055
693.3958	0.01
693.5778	0.0078
693.7599	0.0061
693.9419	0.0067
694.1239	0.002
694.3059	0.0003
694.4879	0.0138
694.6699	0.0143
694.8518	0.005
695.0337	0.003
695.2157	0.0128
695.3975	0.0102
695.5794	0.0102
695.7613	0.0045
695.9431	0.0003
696.1249	0.0154
696.3067	0.0023
696.4885	0.0032
696.6703	-0.0042
696.852	0.0097
697.0337	0.0129
697.2154	0.0111
697.3971	-0.0027
697.5788	0.0043
697.7605	0.0006
697.9421	0.0065
698.1237	0.0009
698.3053	0.0063
698.4869	0.0067
698.6685	-0.0094
698.85	-0.0014
699.0315	0.0054
699.213	0.0008
699.3945	0.0071
699.576	0.013
699.7575	0.0112
699.9389	0.0082
700.1203	0.0016
700.3017	0.0011
700.4831	0.004
700.6645	-0.0044
700.8458	0.0126
701.0271	0.0073
701.2084	0.0049
701.3897	0.0045
701.571	0.0071
701.7523	-0.0006
701.9335	0.0132
702.1147	0.0034
702.2959	0.0048
702.4771	0.0041
702.6583	0.0018
702.8394	0.0045
703.0205	0.0068
703.2016	-0.001
703.3827	0.0001
703.5638	0.0158
703.7449	0.0114
703.9259	0.0134
704.1069	-0.0025
704.2879	0.0093
704.4689	0.0096
704.6499	-0
704.8308	-0.0036
705.0117	-0.0006
705.1927	0.0005
705.3735	-0.0047
705.5544	-0.0062
705.7353	-0.003
705.9161	-0.0019
706.0969	-0.0045
706.2777	0.0076
706.4585	0.0037
706.6393	0.01
706.82	0.0038
707.0007	0.0124
707.1815	0.014
707.3621	0.0163
707.5428	0.0077
707.7235	0.0083
707.9041	0.0191
708.0847	0.0044
708.2653	0.0068
708.4459	-0.002
708.6265	0.0041
708.807	0.0053
708.9875	0.002
709.168	-0.0111
709.3485	0.002
709.529	0.0014
709.7095	-0.0023
709.8899	0.0025
710.0703	-0.0044
710.2507	0.0054
710.4311	0.0033
710.6115	-0.0128
710.7918	-0.0087
710.9721	0.0009
711.1524	-0.0039
711.3327	-0.0038
711.513	-0.0008
711.6932	-0.0032
711.8735	0.014
712.0537	0.0007
712.2339	0.0005
712.4141	-0.0073
712.5942	0.0019
712.7744	-0.0018
712.9545	0.0007
713.1346	-0.0041
713.3147	-0.0009
713.4947	-0.0063
713.6748	0.008
713.8548	0.0036
714.0348	0.0022
714.2148	-0.0037
714.3948	0.0113
714.5748	0.0012
714.7547	0.0003
714.9346	0.0074
715.1145	0.0008
715.2944	-0.0009
715.4743	-0.0005
715.6541	-0.0058
715.834	0.0114
716.0138	-0.001
716.1936	-0.0095
716.3733	0.0009
716.5531	0.0058
716.7328	-0.0037
716.9126	0.0069
717.0923	0.0086
717.2719	0.0072
717.4516	0.0126
717.6312	0.0061
717.8109	0.0003
717.9905	0.0067
718.1701	0.0051
718.3496	-0.0042
718.5292	0.0044
718.7087	0.0014
718.8882	0.0028
719.0677	0.0035
719.2472	0.001
719.4267	0.0133
719.6061	0.0039
719.7856	0.0099
719.965	0.0092
720.1443	-0.0051
720.3237	0.0198
720.5031	0.0098
720.6824	0.0109
720.8617	0.003
721.041	0.0056
721.2203	0.0161
721.3995	0.0027
721.5788	0.0019
721.758	0.0157
721.9372	0.0016
722.1164	0.0094
722.2956	0.008
722.4747	-0.0006
722.6538	0.0093
722.8329	0.0144
723.012	0.0075
723.1911	0.0036
723.3702	0.0055
723.5492	0.0092
723.7282	0.0082
723.9072	0.0053
724.0862	-0.0021
724.2652	-0.0011
724.4441	0.0076
724.623	-0.0025
724.8019	0.0001
724.9808	0.0043
725.1597	-0.0057
725.3385	0.0034
725.5174	0.0034
725.6962	-0.0012
725.875	0.0038
726.0538	0.006
726.2325	0.0019
726.4112	0.0024
726.59	-0.0022
726.7687	-0.0047
726.9474	0.0048
727.126	-0.0004
727.3047	-0.0116
727.4833	-0.0017
727.6619	-0.0028
727.8405	-0.0129
728.0191	0.0009
728.1976	0.0062
728.3762	-0.0016
728.5547	0.0019
728.7332	-0.0076
728.9116	0.0106
729.0901	0.0052
729.2686	0.0054
729.447	-0.0004
729.6254	0.0061
729.8038	0.0005
729.9821	-0.0048
730.1605	-0.0019
730.3388	-0.0003
730.5171	0.0042
730.6954	0.0007
730.8737	0.0053
731.0519	0.0103
731.2302	0.0062
731.4084	0.01
731.5866	0.0077
731.7648	0.0003
731.9429	0.008
732.1211	-0.0035
732.2992	0.0043
732.4773	0.0055
732.6554	0.0036
732.8335	0.0092
733.0115	0.0058
733.1896	0.0131
733.3676	-0.0006
733.5456	0.0173
733.7235	0.015
733.9015	0.0067
734.0794	0.0048
734.2574	0.0122
734.4353	0.0122
734.6131	0.0092
734.791	0.0089
734.9689	0.007
735.1467	0.0076
735.3245	0.0046
735.5023	0.007
735.68	0.006
735.8578	0.0205
736.0355	-0.008
736.2132	0.0052
736.3909	0.0105
736.5686	-0.0031
736.7463	0.0028
736.9239	-0.0045
737.1015	0.0036
737.2791	0.0125
737.4567	0.0064
737.6343	-0.0001
737.8118	0.006
737.9894	0.0122
738.1669	-0.0065
738.3444	0.001
738.5218	0.0099
738.6993	0
738.8767	0.0002
739.0541	0.0148
739.2315	0.0011
739.4089	0.0049
739.5863	0.0052
739.7636	-0.0063
739.9409	0.0015
740.1182	0.0093
740.2955	0.0076
740.4728	0.002
740.65	-0.0012
740.8272	-0.002
741.0044	0.0048
741.1816	0.0067
741.3588	-0.0008
741.5359	0.0052
741.7131	-0.0122
741.8902	-0.0065
742.0673	0.0018
742.2444	-0.0053
742.4214	-0.0073
742.5985	0.0053
742.7755	-0.0009
742.9525	-0.0003
743.1295	0.0039
743.3064	0.0042
743.4834	0.0132
743.6603	-0.0062
743.8372	-0.0073
744.0141	0.0125
744.191	0.0118
744.3678	0.0047
744.5446	0.0014
744.7215	0.0115
744.8982	0.003
745.075	0.0039
745.2518	-0.0014
745.4285	-0.003
745.6052	0.0013
745.7819	0.0012
745.9586	0.0019
746.1353	0.0009
746.3119	0.0033
746.4885	-0.0089
746.6651	0.0016
746.8417	0.0002
747.0183	0.0105
747.1948	-0.0014
747.3714	0.0043
747.5479	0.0075
747.7244	0.0028
747.9008	0.0085
748.0773	-0.0005
748.2537	-0.0032
748.4301	-0.0059
748.6065	-0.0012
748.7829	0.0111
748.9593	0.0086
749.1356	0.003
749.3119	0.0103
749.4882	-0.0038
749.6645	0.0133
749.8408	-0.0003
750.017	-0.0035
750.1933	0.0064
750.3695	-0.0055
750.5457	0.0098
750.7218	0.0009
750.898	0.0056
751.0741	-0.0033
751.2502	0.0005
751.4263	0.001
751.6024	0.0118
751.7784	-0.0018
751.9545	0.0045
752.1305	0.0056
752.3065	0.0015
752.4825	0.0113
752.6584	-0.0009
752.8344	0.0027
753.0103	-0.0027
753.1862	0.002
753.3621	-0.0015
753.5379	0.0014
753.7138	0.009
753.8896	-0.0024
754.0654	0.0008
754.2412	0.0085
754.417	0.0054
754.5927	-0.0048
754.7685	-0.0088
754.9442	0.0054
755.1199	0.0104
755.2956	0.0044
755.4712	0.0084
755.6469	0.0011
755.8225	0.001
755.9981	0.0017
756.1736	0.0086
756.3492	0.0039
756.5248	-0.0057
756.7003	0.0035
756.8758	0.0082
757.0513	-0.0116
757.2267	-0.0006
757.4022	0.0008
757.5776	-0.0047
757.753	0
757.9284	-0.0007
758.1038	0.0208
758.2791	0.0027
758.4545	-0.0172
758.6298	-0.0009
758.8051	0.0056
758.9803	0.0034
759.1556	-0.0012
759.3308	-0.0033
759.506	0.0097
759.6812	-0.0034
759.8564	0.0055
760.0316	-0.002
760.2067	0.013
760.3819	0.0065
760.557	0.0164
760.732	0.0089
760.9071	-0.0025
761.0821	0.0061
761.2572	0.0151
761.4322	-0.0034
761.6072	0.0047
761.7821	0.0049
761.9571	0.0075
762.132	0.0015
762.3069	-0.003
762.4818	-0.0039
762.6567	0.0036
762.8316	0.0001
763.0064	-0.0013
763.1812	-0.0043
763.356	-0.0086
763.5308	-0.0006
763.7055	0.0076
763.8803	-0.0055
764.055	-0.0053
764.2297	0.0029
764.4044	-0.0061
764.579	0
764.7537	-0.0052
764.9283	0.0066
765.1029	-0.002
765.2775	-0.0027
765.4521	-0.0107
765.6266	0.0048
765.8011	0.007
765.9756	0.0036
766.1501	0.0107
766.3246	0.0015
766.4991	0.0126
766.6735	0.0095
766.8479	-0.0112
767.0223	0.0246
767.1967	0.0115
767.371	0.0145
767.5454	0.0002
767.7197	0.0091
767.894	0.0126
768.0683	-0.0009
768.2425	0.0057
768.4168	0.0181
768.591	0.0046
768.7652	0.0036
768.9394	0.004
769.1135	0.003
769.2877	0.0125
769.4618	-0.0082
769.6359	0.0074
769.81	0.0121
769.984	0.0007
770.1581	-0.0024
770.3321	0.0041
770.5061	0.0077
770.6801	-0.0072
770.8541	0.0066
771.028	0.0196
771.202	0.002
771.3759	0.0092
771.5498	0.0074
771.7236	0.0004
771.8975	0.0071
772.0713	0.0083
772.2451	-0.0007
772.4189	0.0073
772.5927	0.0065
772.7665	0.004
772.9402	0.0098
773.1139	0.0131
773.2876	0.0086
773.4613	0.0204
773.635	0.0219
773.8086	-0.0069
773.9822	0.0014
774.1558	0.0096
774.3294	-0.0072
774.503	0.0126
774.6765	0.0065
774.8501	0.0211
775.0236	0.013
775.1971	0.016
775.3705	0.0076
775.544	0.0227
775.7174	0.0094
775.8908	-0.0022
776.0642	0.0022
776.2376	0.0173
776.4109	0.0056
776.5843	-0.0038
776.7576	0.0128
776.9309	0.0129
777.1041	0.0308
777.2774	0.0205
777.4506	0.0104
777.6238	-0.0009
777.797	0.0007
777.9702	0.0103
778.1434	0
778.3165	-0.0048
778.4896	0.0036
778.6627	0.0068
778.8358	0.0064
779.0089	0.0024
779.1819	-0.0057
779.3549	0.0082
779.5279	0.0114
779.7009	0.0028
779.8739	-0.0002
780.0468	0.0037
780.2197	0.0105
780.3926	0.0032
780.5655	-0.0085
780.7384	0.0123
780.9112	0.0048
781.0841	0.0005
781.2569	0.0035
781.4297	0.0085
781.6024	0.011
781.7752	0.0022
781.9479	0.0073
782.1206	0.0139
782.2933	-0.0001
782.466	0.0121
782.6386	0.0022
782.8113	0.005
782.9839	0.006
783.1565	0.0185
783.329	0.022
783.5016	0.0212
783.6741	0.0209
783.8466	0.0004
784.0191	0.0343
784.1916	0.0227
784.3641	0.0138
784.5365	0.0126
784.7089	0.0107
784.8813	0.0069
785.0537	0.0104
785.2261	0.0129
785.3984	0.0014
785.5707	0.0079
785.743	0.0166
785.9153	0.0079
786.0876	0.0098
786.2598	0.0172
786.432	-0.0083
786.6042	0.0136
786.7764	0.0035
786.9486	0.0181
787.1207	0.0057
787.2928	0.012
787.4649	0.0005
787.637	0.007
787.8091	0.0061
787.9811	0.0025
788.1532	0.0144
788.3252	0.0122
788.4972	0.0047
788.6691	0.02
788.8411	0.0101
789.013	-0.0017
789.1849	0.024
789.3568	0.005
789.5287	0.0041
789.7005	-0.0015
789.8723	0.0073
790.0442	0.0292
790.2159	0.0185
790.3877	0.0019
790.5595	-0.0076
790.7312	0.0163
790.9029	0.0126
791.0746	0.0062
791.2463	0.0047
791.4179	0.0202
791.5896	-0.0093
791.7612	0.0217
791.9328	0.0104
792.1044	0.0015
792.2759	-0.0089
792.4474	-0.0009
792.619	0.0152
792.7905	0.0068
792.9619	0.0224
793.1334	0.0141
793.3048	0.013
793.4762	0.0169
793.6476	0.0138
793.819	0.0019
793.9904	0.0094
794.1617	-0.007
794.333	0.0035
794.5043	0.0162
794.6756	-0.0058
794.8469	0.0041
795.0181	0.0073
795.1893	0.01
795.3605	0.0238
795.5317	-0.0003
795.7029	0.0009
795.874	0.01
796.0452	0.0102
796.2163	0.0143
796.3873	0.0161
796.5584	0.0215
796.7294	-0.0061
796.9005	0.0272
797.0715	0.0153
797.2425	-0.0067
797.4134	0.0015
797.5844	0.0182
797.7553	-0.0026
797.9262	0.008
798.0971	0.0072
798.2679	0.0129
798.4388	-0.0038
798.6096	-0.0032
798.7804	0.0093
798.9512	0.0074
799.122	0.0081
799.2927	0.016
799.4635	0.0161
799.6342	-0.021
799.8049	-0.003
799.9755	0.009
800.1462	0.0037
800.3168	0.02
800.4874	0.0184
800.658	0.0181
800.8286	0.0153
800.9991	0.0073
801.1696	0.0089
801.3402	0.0223
801.5106	0.012
801.6811	0.0164
801.8516	0.0215
802.022	0.0189
802.1924	0.0056
802.3628	0.0064
802.5332	0.014
802.7035	0.0178
802.8739	0.008
803.0442	-0.001
803.2145	0.0128
803.3847	0.0047
803.555	0.0143
803.7252	-0.0019
803.8954	-0.0087
804.0656	0.0079
804.2358	0.0071
804.4059	0.0143
804.5761	0.0035
804.7462	0.0116
804.9163	-0.0006
805.0864	0.0101
805.2564	0.0205
805.4264	0.0185
805.5965	-0.0088
805.7665	0.0167
805.9364	0.0202
806.1064	0.0285
806.2763	0.0322
806.4462	0.0356
806.6161	0.0114
806.786	0.0201
806.9559	0.0125
807.1257	-0.0041
807.2955	0.0007
807.4653	0.0042
807.6351	0.007
807.8048	0.0239
807.9746	0.0103
808.1443	0.0082
808.314	0.04
808.4837	-0.012
808.6533	0.0121
808.8229	0.0077
808.9926	0.0113
809.1622	0.0139
809.3317	-0.0155
809.5013	-0.0051
809.6708	0.0436
809.8403	0.0151
810.0098	0.0259
810.1793	0.0277
810.3488	0.0113
810.5182	-0.0141
810.6876	0.0134
810.857	0.0006
811.0264	0.0521
811.1958	0.0168
811.3651	0.0099
811.5344	0.019
811.7037	0.011
811.873	0.0172
812.0422	0.0038
812.2115	0.003
812.3807	-0.023
812.5499	0.0196
812.7191	0.0212
812.8882	0.0207
813.0574	0.0204
813.2265	0.034
813.3956	0.0152
813.5646	0.0216
813.7337	0.0001
813.9027	0.0338
814.0718	0.0277
814.2407	0.0148
814.4097	-0.0137
814.5787	-0.0254
814.7476	0.0133
814.9165	-0.0055
815.0854	0.0105
815.2543	0.0126
815.4232	0.0052
815.592	0.015
815.7608	0.0294
815.9296	0.0211
816.0984	0.0251
816.2671	0.0241
816.4359	0.0366
816.6046	-0.0012
816.7733	0.0115
816.942	0.0023
817.1106	0.0274
817.2793	0.0193
817.4479	0.0305
817.6165	0.0224
817.785	0.0425
817.9536	0.0154
818.1221	0.0112
818.2906	0.0124
818.4591	0.0093
818.6276	0.0117
818.7961	0.0091
818.9645	0.035
819.1329	0.0065
819.3013	0.0472
819.4697	0.0384
819.638	0.0295
819.8064	0.0217
819.9747	0.0124
820.143	0.0095
820.3113	0.0123
820.4795	0.015
820.6477	0.0046
820.816	0.0186
820.9842	0.007
821.1523	0.0005
821.3205	0.0127
821.4886	0.0103
821.6567	0.0213
821.8248	0.0372
821.9929	0.0474
822.1609	0.0146
822.329	0.0343
822.497	0.0273
822.665	0.0216
822.833	0.0067
823.0009	0.026
823.1688	0.0485
823.3367	0.0427
823.5046	0.0344
823.6725	0.054
823.8404	0.0273
824.0082	0.0519
824.176	0.0182
824.3438	0.0302
824.5116	0.0256
824.6793	0.0492
824.847	0.017
825.0147	-0.0162
825.1824	0.0383
825.3501	0.0334
825.5177	-0.0043
825.6854	0.0079
825.853	0.0102
826.0206	-0.0031
826.1881	0.019
826.3557	0.0054
826.5232	0.0228
826.6907	-0.0149
826.8582	0.0296
827.0257	-0.0049
827.1931	0.0162
827.3605	0.0358
827.528	0.0167
827.6953	-0.0172
827.8627	-0.005
828.03	0.0346
828.1974	0.0144
828.3647	-0.0131
828.532	-0.0149
828.6992	0.0011
828.8665	0.0147
829.0337	-0.0034
829.2009	0.0583
829.3681	-0.0203
829.5352	0.045
829.7024	-0.0057
829.8695	-0.0104
830.0366	0.075
830.2037	0.044
830.3707	0.0076
830.5378	0.0176
830.7048	0.0123
830.8718	-0.0069
831.0388	-0.0016
831.2057	0.0558
831.3727	0.0314
831.5396	0.0301
831.7065	-0.0239
831.8734	0.0039
832.0402	0.0007
832.2071	0.0348
832.3739	-0.0255
832.5407	0.0428
832.7075	0.0077
832.8742	-0.0053
833.041	-0.0338
833.2077	0.0075
833.3744	0.0257
833.541	-0.007
833.7077	-0.0241
833.8743	0.0237
834.0409	0.0151
834.2075	0.0059
834.3741	0.0178
834.5407	0.0359
834.7072	0.0163
834.8737	0.0419
835.0402	0.0201
835.2067	0.0325
835.3731	0.068
835.5395	0.0553
835.706	0.0686
835.8723	0.0253
836.0387	0.0361
836.2051	0.0387
836.3714	0.0277
836.5377	0.0428
836.704	-0.0118
836.8703	0.0491
837.0365	0.036
837.2027	-0.0051
837.3689	-0.0089
837.5351	-0.0124
837.7013	-0.0065
837.8674	-0.0375
838.0335	0.0203
838.1997	0.0323
838.3657	-0.0369
838.5318	0.0628
838.6978	0.037
838.8639	0.027
839.0299	0.0205
839.1958	-0.0256
839.3618	0.0285
839.5277	-0.0023
839.6937	-0.0144
839.8596	-0.0043
840.0254	0.032
840.1913	0.0418
840.3571	0.0562
840.523	-0.0106
840.6888	0.0175
840.8545	0.0322
841.0203	0.0893
841.186	0.0267
841.3517	0.0753
841.5174	0.0208
841.6831	0.0255
841.8488	0.0437
842.0144	0.018
842.18	0.0362
842.3456	0.0184
842.5112	-0.0088
842.6767	0.0235
842.8422	0.0188
843.0077	-0.0008
843.1732	0.0367
843.3387	0.0141
843.5042	-0.0451
843.6696	0.0515
843.835	0.1048
844.0004	0.0551
844.1657	0.0865
844.3311	-0.0601
844.4964	-0.0676
844.6617	0.0081
844.827	0.0003
844.9923	0.0178
845.1575	0.0063
845.3227	0.0544
845.4879	0.0037
845.6531	-0.0357
845.8183	-0.0315
845.9834	0.0169
846.1485	0.0535
846.3136	-0.0477
846.4787	-0.0686
846.6438	0.1143
846.8088	-0.0284
846.9738	-0.0656
847.1388	0.0543
847.3038	-0.0536
847.4687	-0.0616
847.6337	0.0675
847.7986	0.0193
847.9635	-0.0549
848.1284	0.0603
848.2932	0.1269
848.458	-0.0163
848.6228	0.1496
848.7876	0.1382
848.9524	0.0289
849.1172	0.004
849.2819	0.0189
849.4466	-0.1356
849.6113	0.0228
849.7759	-0.0627
849.9406	-0.0707
850.1052	0.096
850.2698	0.036
850.4344	-0.028
850.599	0.0305
850.7635	0.1262
850.928	-0.0179
851.0925	0.0063
851.257	0.0952
851.4215	0.0869
851.5859	0.0719
851.7503	-0.0011
851.9147	0.0473
852.0791	-0.0316
852.2434	-0.053
852.4078	0.0904
852.5721	0.0518
852.7364	0.015
852.9007	-0.1194
853.0649	0.0064
853.2291	0.0425
853.3934	0.0958
853.5575	0.1027
853.7217	0.0263
853.8859	0.1572
854.05	-0.0678
854.2141	0.062
854.3782	0.0424
854.5423	-0.1131
854.7063	0.1073
854.8703	0.1139
855.0343	-0.0207
855.1983	0.0499
855.3623	0.0866
855.5262	0.038
855.6901	-0.0368
855.854	0.1861
856.0179	0.2211
856.1818	0.0771
856.3456	-0.035
856.5094	-0.1632
856.6732	-0.053
856.837	0.0679
857.0008	0.2246
857.1645	-0.0142
857.3282	-0.0041
857.4919	0.1567
857.6556	0.3277
857.8192	-0.0153
857.9828	0.0551
858.1465	0.2907
858.31	0.0454
858.4736	0.1494
858.6372	-0.0347
858.8007	-0.1097
858.9642	-0.0382
859.1277	0.2082
859.2911	0.1111
859.4546	-0.005
859.618	-0.2662
859.7814	0.2031
859.9448	0.0981
860.1081	-0.1264
860.2715	0.1352
860.4348	0.5625
860.5981	0.0407
860.7614	0.2145
860.9246	-0.1309
861.0879	-0.1686
861.2511	0.0709
861.4143	-0.1557
861.5774	0.1771
861.7406	0.2435
861.9037	-0.062
862.0668	0.7029
862.2299	0.3829
862.393	-0.5378
862.556	0.0958
862.7191	-0.0918
862.8821	-0.0832
863.0451	0.1832
863.208	0.1794
863.371	0.1429
863.5339	-0.1659
863.6968	0.1901
863.8597	0.1517
864.0225	0.1246
864.1854	-0.1229
864.3482	0.3846
864.511	0.7681
864.6737	1.3558
864.8365	-0.0982
864.9992	0.3948
865.1619	0.2845
865.3246	-0.346
865.4873	0.1901
865.65	-0.0114
865.8126	0.0434
865.9752	0.1264
866.1378	-0
866.3004	-0.1958
866.4629	0.3477
866.6254	0.6089
866.7879	0.7046
866.9504	0.1585
867.1129	-0
867.2753	-0.0254
867.4377	0.0659
867.6001	0.1572
867.7625	0.0867
867.9249	-0.8197
868.0872	-0.0624
868.2495	0.1347
868.4118	-0.282
868.5741	-0.3607
868.7363	0.0862
868.8986	0.1157
869.0608	-0.08
869.223	0.2784
869.3851	-0
869.5473	-0.1805
869.7094	0.5218
869.8715	-0.0885
870.0336	-0.9294
870.1957	-0.56
870.3577	-1.4188
870.5197	-0.2022
870.6817	-0.4519
870.8437	0.2966
871.0057	-0.9751
871.1676	-0
871.3295	-0.1009
871.4914	-0.8354
871.6533	-0.1688
871.8151	-0
871.977	-0
872.1388	0.8919
872.3006	-0.3553
872.4623	-0
872.6241	-0
872.7858	0.0034
872.9475	-0.0223
873.1092	-0
873.2709	-0
873.4325	0.2469
873.5941	-0.1257
873.7557	-0
873.9173	-0.0643
874.0789	-0
874.2404	0.1636
874.4019	-0
874.5634	0.2131
874.7249	-0.0966
874.8863	-0
875.0478	-0
875.2092	-0
875.3706	-0
875.5319	-0.3979
875.6933	-0.3497
875.8546	0.1714
876.0159	0.0401
876.1772	0.8489
876.3385	-0.5287
876.4997	0.1126
876.6609	-0.0919
876.8221	-0.5225
876.9833	-0
877.1445	-0
877.3056	0.7532
877.4667	-0
877.6278	-0.3624
877.7889	-0.5418
877.9499	-0
878.111	-0
878.272	-0
878.433	0.293
878.5939	0.7829
878.7549	0.33
878.9158	-0
879.0767	-0.0449
879.2376	-0
879.3984	0.2495
879.5593	-0
879.7201	0.0972
879.8809	-0.5481
880.0417	-0.2156
880.2024	0.435
880.3632	-0
880.5239	-0
880.6846	-0
880.8452	-0
881.0059	-1.0828
881.1665	-0.2456
881.3271	-0.1329
881.4877	-0.2697
881.6483	-0.1338
881.8088	-0.0879
881.9693	0.384
882.1298	0.384
882.2903	0.384
