Data from MonoPyChalIsomerACN10uM360nmA_Absorbance_13-57-26-604.txt Node
Date: Fri Jul 05 13:57:26 BST 2024
User: LASERRRRR
Spectrometer: FLMT03099
Trigger mode: 0
Integration Time (sec): 1.000000E-1
Scans to average: 1
Electric dark correction enabled: true
Nonlinearity correction enabled: false
Boxcar width: 0
XAxis mode: Wavelengths
Number of Pixels in Spectrum: 3648
>>>>>Begin Spectral Data<<<<<
179.3399	0.45
179.5586	0.45
179.7771	0.45
179.9957	1.4078
180.2143	-0
180.4329	-0.1994
180.6514	-0
180.8699	-0
181.0885	-0.1989
181.307	0.4544
181.5255	-0
181.744	-0
181.9625	-0.253
182.181	-0
182.3994	0.177
182.6179	-0
182.8363	-0.0852
183.0547	-0.3193
183.2732	-0.0587
183.4916	0.1735
183.71	-0.0179
183.9284	0.104
184.1467	-0.1561
184.3651	-0.0307
184.5835	-0.1532
184.8018	-0.0906
185.0201	-0.0313
185.2385	-0.1373
185.4568	0.1143
185.6751	0.145
185.8934	0.1947
186.1117	0.0088
186.3299	-0.0936
186.5482	-0.1018
186.7664	0.0416
186.9847	-0.0662
187.2029	0.1039
187.4211	0.0515
187.6393	0.1235
187.8575	0.0459
188.0757	0.2089
188.2939	0.1136
188.512	-0.0645
188.7302	-0.0153
188.9483	-0.115
189.1665	-0.0111
189.3846	-0.0207
189.6027	0.0116
189.8208	0.1975
190.0389	0.0808
190.257	-0.002
190.475	-0.0659
190.6931	0.4665
190.9111	0.4537
191.1292	0.0726
191.3472	0.2865
191.5652	0.2713
191.7832	0.1866
192.0012	0.2494
192.2192	0.1846
192.4371	0.4364
192.6551	0.1801
192.873	0.3808
193.091	0.4497
193.3089	0.5532
193.5268	0.3858
193.7447	0.4632
193.9626	0.4993
194.1805	0.6553
194.3984	1.1442
194.6162	0.6218
194.8341	0.4223
195.0519	0.6097
195.2697	0.6295
195.4875	0.6496
195.7054	0.4929
195.9231	0.5075
196.1409	0.5651
196.3587	0.4509
196.5765	0.5205
196.7942	0.5571
197.012	0.519
197.2297	0.5588
197.4474	0.5292
197.6651	0.4973
197.8828	0.5252
198.1005	0.5226
198.3182	0.511
198.5358	0.7141
198.7535	0.5533
198.9711	0.5153
199.1888	0.7329
199.4064	0.7481
199.624	0.4909
199.8416	0.4834
200.0592	0.5856
200.2767	0.6656
200.4943	0.6474
200.7119	0.6857
200.9294	0.5981
201.1469	0.6057
201.3645	0.539
201.582	0.513
201.7995	0.5413
202.017	0.5982
202.2344	0.4862
202.4519	0.6014
202.6694	0.6526
202.8868	0.5437
203.1042	0.5786
203.3217	0.6324
203.5391	0.5948
203.7565	0.5598
203.9739	0.5471
204.1913	0.5805
204.4086	0.6482
204.626	0.6435
204.8433	0.5826
205.0607	0.5395
205.278	0.5122
205.4953	0.5571
205.7126	0.6075
205.9299	0.5911
206.1472	0.6666
206.3644	0.5807
206.5817	0.5765
206.7989	0.7078
207.0162	0.6024
207.2334	0.6889
207.4506	0.6183
207.6678	0.5479
207.885	0.5928
208.1022	0.5286
208.3194	0.623
208.5365	0.5851
208.7537	0.5841
208.9708	0.5588
209.1879	0.6193
209.405	0.6477
209.6222	0.7265
209.8392	0.5442
210.0563	0.622
210.2734	0.6823
210.4905	0.5932
210.7075	0.5457
210.9245	0.5554
211.1416	0.7338
211.3586	0.5408
211.5756	0.6095
211.7926	0.6111
212.0096	0.5491
212.2265	0.5221
212.4435	0.5226
212.6604	0.5991
212.8774	0.5102
213.0943	0.5746
213.3112	0.534
213.5281	0.5506
213.745	0.4927
213.9619	0.4728
214.1788	0.4645
214.3956	0.4595
214.6125	0.4578
214.8293	0.4503
215.0461	0.4523
215.2629	0.4609
215.4798	0.4809
215.6965	0.4213
215.9133	0.4183
216.1301	0.4166
216.3469	0.414
216.5636	0.4225
216.7803	0.3853
216.9971	0.4164
217.2138	0.3847
217.4305	0.3497
217.6472	0.3192
217.8639	0.3589
218.0805	0.3117
218.2972	0.3231
218.5138	0.3094
218.7305	0.299
218.9471	0.3031
219.1637	0.306
219.3803	0.269
219.5969	0.2851
219.8135	0.2566
220.0301	0.2684
220.2466	0.2862
220.4632	0.2595
220.6797	0.2587
220.8962	0.2576
221.1127	0.2674
221.3292	0.2658
221.5457	0.2538
221.7622	0.2315
221.9787	0.2493
222.1951	0.2541
222.4116	0.2617
222.628	0.2479
222.8444	0.2663
223.0608	0.2579
223.2772	0.2673
223.4936	0.2516
223.71	0.2539
223.9264	0.2713
224.1427	0.2706
224.3591	0.2392
224.5754	0.2571
224.7917	0.2711
225.008	0.2703
225.2243	0.2656
225.4406	0.298
225.6569	0.2954
225.8732	0.2744
226.0894	0.2793
226.3057	0.2658
226.5219	0.2672
226.7381	0.2871
226.9543	0.2912
227.1705	0.3066
227.3867	0.2713
227.6029	0.306
227.8191	0.3024
228.0352	0.2986
228.2513	0.3249
228.4675	0.3457
228.6836	0.3034
228.8997	0.3082
229.1158	0.3162
229.3319	0.3281
229.548	0.3295
229.764	0.3285
229.9801	0.3198
230.1961	0.3367
230.4121	0.3234
230.6282	0.3286
230.8442	0.3361
231.0602	0.3659
231.2761	0.3495
231.4921	0.3413
231.7081	0.3543
231.924	0.363
232.14	0.3745
232.3559	0.3331
232.5718	0.3699
232.7877	0.3558
233.0036	0.3499
233.2195	0.3535
233.4353	0.3616
233.6512	0.3521
233.867	0.3538
234.0829	0.3691
234.2987	0.3709
234.5145	0.3735
234.7303	0.3675
234.9461	0.3982
235.1619	0.3765
235.3776	0.4061
235.5934	0.375
235.8091	0.3672
236.0249	0.3793
236.2406	0.3838
236.4563	0.3656
236.672	0.3958
236.8877	0.3923
237.1034	0.4009
237.319	0.4039
237.5347	0.4087
237.7503	0.4047
237.966	0.3999
238.1816	0.4077
238.3972	0.4035
238.6128	0.3993
238.8284	0.409
239.0439	0.4227
239.2595	0.4025
239.475	0.4136
239.6906	0.4059
239.9061	0.4018
240.1216	0.3973
240.3371	0.3949
240.5526	0.39
240.7681	0.4094
240.9836	0.3889
241.199	0.3965
241.4145	0.3588
241.6299	0.3972
241.8453	0.3825
242.0607	0.3884
242.2761	0.3562
242.4915	0.3605
242.7069	0.3667
242.9223	0.3585
243.1376	0.3401
243.353	0.3522
243.5683	0.3343
243.7836	0.328
243.9989	0.3379
244.2142	0.299
244.4295	0.3106
244.6448	0.3059
244.86	0.3125
245.0753	0.2929
245.2905	0.2848
245.5057	0.2821
245.721	0.2748
245.9362	0.2608
246.1514	0.2739
246.3665	0.2635
246.5817	0.2542
246.7969	0.2675
247.012	0.2499
247.2271	0.2348
247.4423	0.2447
247.6574	0.2466
247.8725	0.2375
248.0876	0.2208
248.3026	0.2303
248.5177	0.211
248.7328	0.2104
248.9478	0.1998
249.1628	0.205
249.3779	0.2106
249.5929	0.211
249.8079	0.2232
250.0228	0.187
250.2378	0.2068
250.4528	0.2168
250.6677	0.1813
250.8827	0.1926
251.0976	0.1893
251.3125	0.1822
251.5274	0.176
251.7423	0.1778
251.9572	0.1818
252.172	0.1782
252.3869	0.1735
252.6017	0.1768
252.8166	0.1614
253.0314	0.1585
253.2462	0.1662
253.461	0.18
253.6758	0.1636
253.8906	0.1778
254.1053	0.1562
254.3201	0.164
254.5348	0.169
254.7496	0.1796
254.9643	0.1742
255.179	0.1585
255.3937	0.1746
255.6083	0.1829
255.823	0.1689
256.0377	0.1595
256.2523	0.1671
256.467	0.1494
256.6816	0.1771
256.8962	0.1567
257.1108	0.1451
257.3254	0.1659
257.54	0.1643
257.7545	0.1653
257.9691	0.1639
258.1836	0.1517
258.3981	0.1723
258.6127	0.1738
258.8272	0.1658
259.0417	0.1666
259.2561	0.167
259.4706	0.1577
259.6851	0.1622
259.8995	0.1553
260.114	0.1598
260.3284	0.1661
260.5428	0.1644
260.7572	0.1774
260.9716	0.1706
261.186	0.1633
261.4003	0.1617
261.6147	0.1761
261.829	0.1645
262.0433	0.1591
262.2577	0.1652
262.472	0.1717
262.6863	0.158
262.9005	0.1679
263.1148	0.1758
263.3291	0.1403
263.5433	0.1695
263.7576	0.1596
263.9718	0.1502
264.186	0.154
264.4002	0.1594
264.6144	0.167
264.8286	0.1689
265.0427	0.159
265.2569	0.1581
265.471	0.1571
265.6851	0.1496
265.8993	0.1531
266.1134	0.1436
266.3275	0.1449
266.5415	0.1589
266.7556	0.1612
266.9697	0.1736
267.1837	0.1645
267.3978	0.1499
267.6118	0.1571
267.8258	0.1651
268.0398	0.1507
268.2538	0.1646
268.4677	0.1738
268.6817	0.1514
268.8957	0.1654
269.1096	0.154
269.3235	0.1536
269.5374	0.1522
269.7514	0.1531
269.9652	0.1504
270.1791	0.1498
270.393	0.1542
270.6068	0.1642
270.8207	0.1389
271.0345	0.1354
271.2483	0.1539
271.4622	0.1432
271.676	0.1596
271.8897	0.131
272.1035	0.1368
272.3173	0.14
272.531	0.1368
272.7448	0.142
272.9585	0.1378
273.1722	0.1455
273.3859	0.1492
273.5996	0.1347
273.8133	0.1459
274.0269	0.1348
274.2406	0.125
274.4542	0.144
274.6679	0.134
274.8815	0.1343
275.0951	0.1546
275.3087	0.1493
275.5223	0.1396
275.7358	0.1432
275.9494	0.149
276.1629	0.139
276.3765	0.1554
276.59	0.155
276.8035	0.1494
277.017	0.1418
277.2305	0.1362
277.444	0.1476
277.6574	0.1419
277.8709	0.1319
278.0843	0.1483
278.2978	0.1412
278.5112	0.1496
278.7246	0.1409
278.938	0.1498
279.1513	0.1475
279.3647	0.1638
279.5781	0.1392
279.7914	0.1441
280.0047	0.1466
280.2181	0.1547
280.4314	0.164
280.6447	0.1489
280.8579	0.1557
281.0712	0.1492
281.2845	0.1402
281.4977	0.1548
281.711	0.1381
281.9242	0.1545
282.1374	0.1478
282.3506	0.1491
282.5638	0.15
282.7769	0.1383
282.9901	0.154
283.2033	0.1608
283.4164	0.1581
283.6295	0.1564
283.8426	0.1472
284.0557	0.1449
284.2688	0.1634
284.4819	0.1557
284.695	0.1487
284.908	0.1582
285.1211	0.1465
285.3341	0.1573
285.5471	0.1573
285.7601	0.1521
285.9731	0.1557
286.1861	0.1621
286.3991	0.1653
286.612	0.1643
286.825	0.1583
287.0379	0.1706
287.2508	0.1541
287.4637	0.1635
287.6766	0.156
287.8895	0.165
288.1024	0.183
288.3152	0.1655
288.5281	0.1641
288.7409	0.1618
288.9538	0.16
289.1666	0.1579
289.3794	0.1592
289.5922	0.1589
289.8049	0.1636
290.0177	0.1615
290.2304	0.1615
290.4432	0.1742
290.6559	0.166
290.8686	0.1641
291.0813	0.1636
291.294	0.1693
291.5067	0.1728
291.7194	0.1668
291.932	0.174
292.1447	0.1647
292.3573	0.1677
292.5699	0.162
292.7825	0.172
292.9951	0.1597
293.2077	0.1699
293.4203	0.17
293.6328	0.163
293.8454	0.1753
294.0579	0.1605
294.2704	0.158
294.4829	0.1674
294.6954	0.1617
294.9079	0.1638
295.1204	0.1649
295.3328	0.1614
295.5453	0.1636
295.7577	0.1656
295.9701	0.1487
296.1825	0.1587
296.3949	0.1633
296.6073	0.1653
296.8197	0.1617
297.0321	0.1789
297.2444	0.1493
297.4567	0.1716
297.6691	0.1772
297.8814	0.1657
298.0937	0.1593
298.306	0.1759
298.5182	0.1688
298.7305	0.1705
298.9428	0.1566
299.155	0.1628
299.3672	0.1586
299.5794	0.1573
299.7916	0.1642
300.0038	0.1601
300.216	0.1663
300.4282	0.1763
300.6403	0.1553
300.8525	0.1625
301.0646	0.153
301.2767	0.1785
301.4888	0.1652
301.7009	0.1667
301.913	0.1666
302.125	0.1615
302.3371	0.16
302.5491	0.1641
302.7612	0.1706
302.9732	0.1681
303.1852	0.167
303.3972	0.1583
303.6092	0.1608
303.8211	0.1618
304.0331	0.1608
304.245	0.1581
304.457	0.1584
304.6689	0.1571
304.8808	0.1642
305.0927	0.1609
305.3046	0.1399
305.5164	0.1583
305.7283	0.1394
305.9401	0.1498
306.152	0.1418
306.3638	0.1448
306.5756	0.1464
306.7874	0.1485
306.9992	0.1545
307.2109	0.1349
307.4227	0.1274
307.6344	0.1305
307.8462	0.1337
308.0579	0.1276
308.2696	0.1231
308.4813	0.1313
308.693	0.1226
308.9046	0.1431
309.1163	0.1245
309.328	0.1246
309.5396	0.1256
309.7512	0.1309
309.9628	0.1138
310.1744	0.1286
310.386	0.116
310.5976	0.1178
310.8091	0.1191
311.0207	0.113
311.2322	0.1125
311.4437	0.106
311.6552	0.1064
311.8667	0.1113
312.0782	0.1068
312.2897	0.0978
312.5012	0.118
312.7126	0.103
312.924	0.1024
313.1355	0.1045
313.3469	0.1008
313.5583	0.1124
313.7696	0.1106
313.981	0.0965
314.1924	0.1067
314.4037	0.0956
314.6151	0.1176
314.8264	0.0954
315.0377	0.1023
315.249	0.1022
315.4603	0.1064
315.6716	0.0984
315.8828	0.0888
316.0941	0.0984
316.3053	0.0975
316.5165	0.0921
316.7277	0.0971
316.9389	0.1039
317.1501	0.0985
317.3613	0.1053
317.5724	0.0788
317.7836	0.1037
317.9947	0.0972
318.2058	0.0981
318.417	0.0916
318.6281	0.0871
318.8391	0.0892
319.0502	0.0926
319.2613	0.1039
319.4723	0.0943
319.6834	0.0984
319.8944	0.0924
320.1054	0.1053
320.3164	0.0971
320.5274	0.087
320.7383	0.0939
320.9493	0.0928
321.1602	0.1073
321.3712	0.0975
321.5821	0.1042
321.793	0.0941
322.0039	0.0978
322.2148	0.0899
322.4257	0.1059
322.6365	0.1006
322.8474	0.096
323.0582	0.0975
323.269	0.1027
323.4798	0.1044
323.6906	0.0982
323.9014	0.1003
324.1122	0.0941
324.3229	0.0974
324.5337	0.0996
324.7444	0.0817
324.9551	0.1046
325.1658	0.0956
325.3765	0.1071
325.5872	0.1041
325.7979	0.1008
326.0085	0.1083
326.2192	0.1109
326.4298	0.1084
326.6404	0.0979
326.851	0.1003
327.0616	0.0921
327.2722	0.0975
327.4828	0.1091
327.6933	0.0964
327.9039	0.0955
328.1144	0.1167
328.3249	0.1069
328.5354	0.0906
328.7459	0.1102
328.9564	0.1043
329.1669	0.0949
329.3773	0.1015
329.5878	0.0962
329.7982	0.1093
330.0086	0.1029
330.219	0.1058
330.4294	0.1046
330.6398	0.1079
330.8502	0.0928
331.0605	0.1112
331.2708	0.1026
331.4812	0.1041
331.6915	0.1037
331.9018	0.0981
332.1121	0.1094
332.3224	0.1021
332.5326	0.1108
332.7429	0.1031
332.9531	0.1187
333.1633	0.1032
333.3735	0.0949
333.5837	0.1019
333.7939	0.1076
334.0041	0.1105
334.2143	0.1117
334.4244	0.1067
334.6346	0.0866
334.8447	0.1216
335.0548	0.1098
335.2649	0.095
335.475	0.1058
335.685	0.1049
335.8951	0.1137
336.1051	0.1027
336.3152	0.1062
336.5252	0.1093
336.7352	0.1104
336.9452	0.1198
337.1552	0.1206
337.3652	0.1068
337.5751	0.1154
337.7851	0.1157
337.995	0.0959
338.2049	0.1123
338.4148	0.1215
338.6247	0.1104
338.8346	0.1193
339.0445	0.1014
339.2543	0.1077
339.4642	0.1067
339.674	0.0984
339.8838	0.1019
340.0936	0.1183
340.3034	0.1213
340.5132	0.1126
340.7229	0.1193
340.9327	0.1054
341.1424	0.113
341.3522	0.1267
341.5619	0.1083
341.7716	0.1136
341.9813	0.1128
342.1909	0.1046
342.4006	0.1238
342.6102	0.1234
342.8199	0.1214
343.0295	0.1169
343.2391	0.1104
343.4487	0.1266
343.6583	0.1153
343.8679	0.1121
344.0774	0.1276
344.287	0.1338
344.4965	0.1202
344.706	0.1298
344.9155	0.1274
345.125	0.1143
345.3345	0.1248
345.544	0.1179
345.7534	0.1086
345.9629	0.1269
346.1723	0.1361
346.3817	0.1238
346.5911	0.1283
346.8005	0.1327
347.0099	0.1325
347.2193	0.1346
347.4286	0.1274
347.638	0.1403
347.8473	0.1257
348.0566	0.141
348.2659	0.1361
348.4752	0.1339
348.6845	0.13
348.8937	0.134
349.103	0.1435
349.3122	0.1251
349.5214	0.1266
349.7306	0.1421
349.9398	0.1346
350.149	0.1395
350.3582	0.1303
350.5674	0.1503
350.7765	0.1357
350.9856	0.1307
351.1948	0.1384
351.4039	0.1296
351.613	0.1286
351.822	0.1327
352.0311	0.1409
352.2402	0.1444
352.4492	0.1554
352.6582	0.1444
352.8672	0.1358
353.0762	0.1508
353.2852	0.1539
353.4942	0.1401
353.7032	0.1496
353.9121	0.1399
354.1211	0.145
354.33	0.1622
354.5389	0.1548
354.7478	0.1581
354.9567	0.1539
355.1655	0.1449
355.3744	0.1466
355.5833	0.1643
355.7921	0.1684
356.0009	0.1625
356.2097	0.1626
356.4185	0.1613
356.6273	0.1594
356.8361	0.1538
357.0448	0.1554
357.2536	0.1481
357.4623	0.1492
357.671	0.1667
357.8797	0.1628
358.0884	0.1653
358.2971	0.1616
358.5057	0.1596
358.7144	0.1691
358.923	0.1701
359.1316	0.1583
359.3402	0.1614
359.5488	0.1659
359.7574	0.1479
359.966	0.1783
360.1746	0.1655
360.3831	0.171
360.5916	0.158
360.8002	0.1645
361.0087	0.1786
361.2172	0.1792
361.4256	0.1754
361.6341	0.1837
361.8426	0.1901
362.051	0.1688
362.2594	0.1723
362.4678	0.1828
362.6762	0.1996
362.8846	0.1852
363.093	0.1823
363.3014	0.173
363.5097	0.1834
363.718	0.1741
363.9264	0.1728
364.1347	0.168
364.343	0.1939
364.5513	0.1922
364.7595	0.2023
364.9678	0.1827
365.176	0.1868
365.3842	0.199
365.5925	0.1991
365.8007	0.2007
366.0089	0.1963
366.217	0.188
366.4252	0.2034
366.6333	0.2105
366.8415	0.2014
367.0496	0.1983
367.2577	0.2106
367.4658	0.2127
367.6739	0.2091
367.882	0.2113
368.09	0.199
368.2981	0.2013
368.5061	0.1981
368.7141	0.2134
368.9221	0.2039
369.1301	0.2068
369.3381	0.2122
369.5461	0.2063
369.754	0.2049
369.962	0.2241
370.1699	0.2174
370.3778	0.2234
370.5857	0.2112
370.7936	0.226
371.0015	0.2254
371.2093	0.2139
371.4172	0.2345
371.625	0.2091
371.8328	0.2038
372.0406	0.2216
372.2484	0.2159
372.4562	0.219
372.664	0.2131
372.8717	0.2281
373.0795	0.2055
373.2872	0.2205
373.4949	0.2356
373.7026	0.2258
373.9103	0.2267
374.118	0.2191
374.3256	0.2175
374.5333	0.2307
374.7409	0.2236
374.9485	0.2485
375.1561	0.2284
375.3637	0.2238
375.5713	0.231
375.7789	0.2336
375.9864	0.222
376.194	0.217
376.4015	0.233
376.609	0.24
376.8165	0.2311
377.024	0.2307
377.2315	0.234
377.4389	0.2262
377.6464	0.2421
377.8538	0.2576
378.0612	0.2426
378.2686	0.25
378.476	0.2489
378.6834	0.2466
378.8908	0.2379
379.0981	0.2519
379.3055	0.2378
379.5128	0.2361
379.7201	0.2453
379.9274	0.2367
380.1347	0.2468
380.342	0.2553
380.5492	0.2458
380.7565	0.2444
380.9637	0.257
381.1709	0.2528
381.3781	0.2617
381.5853	0.2595
381.7925	0.2598
381.9997	0.2419
382.2068	0.2578
382.4139	0.2577
382.6211	0.2313
382.8282	0.2718
383.0353	0.2394
383.2424	0.253
383.4494	0.2643
383.6565	0.2404
383.8635	0.2471
384.0706	0.271
384.2776	0.258
384.4846	0.2653
384.6916	0.2566
384.8986	0.2628
385.1055	0.2689
385.3125	0.241
385.5194	0.2381
385.7263	0.2603
385.9333	0.2615
386.1402	0.2509
386.347	0.2661
386.5539	0.252
386.7608	0.2681
386.9676	0.2267
387.1744	0.2547
387.3813	0.2466
387.5881	0.2594
387.7948	0.2576
388.0016	0.2392
388.2084	0.2495
388.4151	0.244
388.6219	0.2384
388.8286	0.231
389.0353	0.2738
389.242	0.2363
389.4487	0.2543
389.6553	0.2391
389.862	0.2375
390.0686	0.2388
390.2753	0.2564
390.4819	0.2498
390.6885	0.2336
390.8951	0.2343
391.1016	0.2284
391.3082	0.2387
391.5147	0.2468
391.7213	0.2424
391.9278	0.2131
392.1343	0.2552
392.3408	0.2417
392.5473	0.2516
392.7537	0.2277
392.9602	0.2308
393.1666	0.2245
393.373	0.2424
393.5794	0.2304
393.7858	0.2363
393.9922	0.2207
394.1986	0.2453
394.4049	0.2325
394.6113	0.2187
394.8176	0.2187
395.0239	0.215
395.2302	0.2021
395.4365	0.2195
395.6428	0.227
395.8491	0.2116
396.0553	0.2166
396.2615	0.2256
396.4678	0.2085
396.674	0.1922
396.8802	0.2146
397.0863	0.2336
397.2925	0.208
397.4987	0.1917
397.7048	0.2215
397.9109	0.2227
398.117	0.1997
398.3231	0.2096
398.5292	0.2137
398.7353	0.2263
398.9413	0.197
399.1474	0.2214
399.3534	0.1977
399.5594	0.2021
399.7654	0.2379
399.9714	0.208
400.1774	0.21
400.3833	0.2039
400.5893	0.2017
400.7952	0.2226
401.0011	0.1999
401.207	0.2153
401.4129	0.2296
401.6188	0.2113
401.8247	0.2002
402.0305	0.201
402.2364	0.198
402.4422	0.2253
402.648	0.223
402.8538	0.2161
403.0596	0.2084
403.2654	0.217
403.4711	0.2077
403.6768	0.2118
403.8826	0.2152
404.0883	0.2215
404.294	0.2338
404.4997	0.213
404.7054	0.2128
404.911	0.2096
405.1167	0.1952
405.3223	0.2167
405.5279	0.2184
405.7335	0.2078
405.9391	0.215
406.1447	0.2111
406.3502	0.2292
406.5558	0.2141
406.7613	0.2279
406.9668	0.2295
407.1724	0.1901
407.3778	0.211
407.5833	0.2027
407.7888	0.2131
407.9942	0.2297
408.1997	0.2079
408.4051	0.2198
408.6105	0.2232
408.8159	0.2097
409.0213	0.2041
409.2267	0.2068
409.432	0.1957
409.6374	0.2212
409.8427	0.1973
410.048	0.208
410.2533	0.2192
410.4586	0.2069
410.6639	0.1914
410.8691	0.193
411.0744	0.2112
411.2796	0.2052
411.4848	0.2104
411.69	0.2111
411.8952	0.2199
412.1004	0.1802
412.3056	0.2092
412.5107	0.2069
412.7158	0.2214
412.921	0.2106
413.1261	0.2024
413.3312	0.2044
413.5362	0.1993
413.7413	0.1908
413.9464	0.1992
414.1514	0.2158
414.3564	0.1965
414.5614	0.1872
414.7664	0.2093
414.9714	0.2201
415.1764	0.2192
415.3813	0.2312
415.5863	0.21
415.7912	0.1954
415.9961	0.1998
416.201	0.221
416.4059	0.2131
416.6108	0.2021
416.8156	0.2251
417.0205	0.1966
417.2253	0.1851
417.4301	0.2107
417.6349	0.1862
417.8397	0.1787
418.0445	0.2059
418.2492	0.1862
418.454	0.1986
418.6587	0.2052
418.8634	0.2013
419.0681	0.197
419.2728	0.2011
419.4775	0.1984
419.6822	0.1873
419.8868	0.1747
420.0915	0.1969
420.2961	0.1887
420.5007	0.1783
420.7053	0.1899
420.9099	0.1892
421.1144	0.2061
421.319	0.1845
421.5235	0.1973
421.728	0.1931
421.9325	0.1797
422.137	0.1967
422.3415	0.1815
422.546	0.1864
422.7504	0.1737
422.9549	0.2007
423.1593	0.1846
423.3637	0.1946
423.5681	0.1928
423.7725	0.1714
423.9769	0.1759
424.1812	0.172
424.3856	0.169
424.5899	0.1753
424.7942	0.1841
424.9985	0.1821
425.2028	0.1734
425.4071	0.2009
425.6113	0.1745
425.8156	0.1811
426.0198	0.1947
426.224	0.1438
426.4282	0.1719
426.6324	0.1674
426.8366	0.1732
427.0407	0.1535
427.2449	0.1691
427.449	0.1663
427.6531	0.1585
427.8572	0.1599
428.0613	0.1578
428.2654	0.1662
428.4694	0.1621
428.6735	0.1643
428.8775	0.1739
429.0815	0.1675
429.2855	0.1398
429.4895	0.1483
429.6935	0.1528
429.8975	0.1645
430.1014	0.1448
430.3053	0.151
430.5093	0.145
430.7132	0.1289
430.9171	0.1333
431.1209	0.1413
431.3248	0.1447
431.5286	0.1302
431.7325	0.1449
431.9363	0.1199
432.1401	0.1477
432.3439	0.1292
432.5477	0.1061
432.7514	0.13
432.9552	0.1334
433.1589	0.1031
433.3627	0.1125
433.5664	0.1196
433.7701	0.1141
433.9737	0.109
434.1774	0.1051
434.3811	0.1088
434.5847	0.1307
434.7883	0.1135
434.9919	0.1282
435.1955	0.1259
435.3991	0.1107
435.6027	0.1054
435.8062	0.1095
436.0098	0.1045
436.2133	0.1083
436.4168	0.0837
436.6203	0.1043
436.8238	0.1049
437.0272	0.086
437.2307	0.1072
437.4341	0.1174
437.6375	0.0938
437.841	0.0835
438.0443	0.0908
438.2477	0.1003
438.4511	0.0899
438.6545	0.0923
438.8578	0.0996
439.0611	0.0936
439.2644	0.0834
439.4677	0.0894
439.671	0.0844
439.8743	0.0887
440.0775	0.0879
440.2808	0.0779
440.484	0.0629
440.6872	0.0587
440.8904	0.0706
441.0936	0.0876
441.2967	0.062
441.4999	0.069
441.703	0.0592
441.9062	0.0583
442.1093	0.0704
442.3124	0.0681
442.5155	0.0518
442.7185	0.0709
442.9216	0.0384
443.1246	0.0744
443.3276	0.0585
443.5307	0.0594
443.7337	0.0618
443.9366	0.0589
444.1396	0.0705
444.3426	0.0516
444.5455	0.0473
444.7484	0.0452
444.9513	0.0501
445.1542	0.0585
445.3571	0.0404
445.56	0.0629
445.7628	0.0405
445.9657	0.0556
446.1685	0.0467
446.3713	0.0492
446.5741	0.0518
446.7769	0.0371
446.9797	0.0464
447.1824	0.0428
447.3852	0.0369
447.5879	0.0417
447.7906	0.0574
447.9933	0.0478
448.196	0.0435
448.3986	0.03
448.6013	0.0342
448.8039	0.0282
449.0066	0.0345
449.2092	0.0418
449.4118	0.0327
449.6143	0.033
449.8169	0.037
450.0195	0.0396
450.222	0.0122
450.4245	0.02
450.627	0.0407
450.8295	0.0261
451.032	0.0144
451.2345	0.0226
451.4369	0.0182
451.6394	0.027
451.8418	-0.0071
452.0442	0.0145
452.2466	0.0339
452.449	0.0095
452.6513	0.0221
452.8537	0.0083
453.056	0.0023
453.2583	0.0209
453.4607	0.0107
453.663	0.0032
453.8652	0.0245
454.0675	0.0141
454.2697	0.016
454.472	-0.0055
454.6742	0.0119
454.8764	0.0042
455.0786	0.0176
455.2808	0.0175
455.4829	0.026
455.6851	0.0352
455.8872	0.0208
456.0893	0.0268
456.2915	0.0019
456.4935	0.0146
456.6956	0.0125
456.8977	0.0211
457.0997	0.0023
457.3018	0.0016
457.5038	0.0001
457.7058	0.0101
457.9078	0.0126
458.1098	0.0149
458.3117	0.0276
458.5137	0.016
458.7156	0.0228
458.9175	-0.0012
459.1194	0.0063
459.3213	0.0011
459.5232	0.0046
459.725	-0.0074
459.9269	-0.0037
460.1287	0.0032
460.3305	-0.0027
460.5323	0.011
460.7341	0.0131
460.9359	0.0116
461.1376	0.0105
461.3394	0.006
461.5411	0.0068
461.7428	0.0032
461.9445	0.0135
462.1462	0.0164
462.3479	0.007
462.5495	-0.0022
462.7512	0.0088
462.9528	-0.0015
463.1544	-0.0119
463.356	-0.0101
463.5576	0.0169
463.7592	-0.0046
463.9607	-0.0015
464.1623	0.0127
464.3638	0.0182
464.5653	-0.0084
464.7668	0.0075
464.9683	0.0081
465.1697	0.0185
465.3712	-0.0123
465.5726	-0.0028
465.7741	-0.0098
465.9755	-0.0033
466.1769	-0.0082
466.3782	0.0021
466.5796	-0.0136
466.7809	0.0131
466.9823	-0.0041
467.1836	0.0057
467.3849	-0.0132
467.5862	0.001
467.7875	-0.0051
467.9887	0.0152
468.19	0.006
468.3912	-0.0038
468.5924	0.0062
468.7936	0.0062
468.9948	-0.0061
469.196	-0.0022
469.3972	-0.0122
469.5983	0.0058
469.7994	-0.0159
470.0006	-0.0019
470.2017	-0.0052
470.4027	-0.015
470.6038	-0.0011
470.8049	-0.0158
471.0059	-0.0146
471.2069	-0.0174
471.408	-0.0011
471.6089	0.008
471.8099	-0.0073
472.0109	0.001
472.2119	-0.0155
472.4128	-0.0168
472.6137	0.0036
472.8146	-0.0187
473.0155	-0.0033
473.2164	-0.0065
473.4173	-0.0036
473.6181	0.008
473.819	-0.0084
474.0198	-0.0041
474.2206	-0.0134
474.4214	0.0019
474.6222	0.0012
474.8229	-0.0036
475.0237	0.0008
475.2244	-0.0165
475.4251	0.0058
475.6258	-0.0028
475.8265	0.0044
476.0272	-0.0022
476.2278	0.0013
476.4285	0.0015
476.6291	-0.0048
476.8297	-0.0089
477.0303	0.0045
477.2309	-0.0125
477.4315	-0.0124
477.632	-0.005
477.8326	-0.0015
478.0331	-0.0045
478.2336	0.0034
478.4341	-0.0071
478.6346	-0.0128
478.8351	0.0028
479.0355	0.0029
479.236	-0.0093
479.4364	0.005
479.6368	-0.0008
479.8372	-0.0064
480.0376	-0.0067
480.2379	-0.0191
480.4383	-0.0116
480.6386	-0.0021
480.8389	-0.0025
481.0392	-0.0074
481.2395	0
481.4398	0.0053
481.6401	0.007
481.8403	-0.0058
482.0405	-0.0023
482.2408	-0.0081
482.441	-0.0002
482.6411	-0.0125
482.8413	-0.0103
483.0415	-0.0105
483.2416	-0.0204
483.4417	-0.0006
483.6419	-0.0068
483.8419	-0.0133
484.042	0.0031
484.2421	0.0011
484.4422	-0.0031
484.6422	-0.0104
484.8422	0.0024
485.0422	-0.0039
485.2422	-0.0003
485.4422	0.0026
485.6422	-0.0058
485.8421	0.0025
486.042	-0.0024
486.242	-0.0102
486.4419	-0.0185
486.6417	-0.0043
486.8416	-0.0051
487.0415	-0.0032
487.2413	-0.0023
487.4411	-0.0034
487.641	-0.0167
487.8408	-0.0004
488.0405	-0.0061
488.2403	-0.0051
488.4401	-0.0015
488.6398	-0.0023
488.8395	-0.014
489.0392	-0.0019
489.2389	-0.01
489.4386	-0.0022
489.6383	-0.0041
489.8379	0.0013
490.0376	0
490.2372	-0.0161
490.4368	-0.0051
490.6364	0.0045
490.836	-0.015
491.0355	-0.0038
491.2351	-0.0107
491.4346	-0.0087
491.6341	-0.0227
491.8336	-0.0041
492.0331	-0.0107
492.2326	-0.0144
492.432	-0.0158
492.6315	-0.0074
492.8309	-0.0185
493.0303	-0.0216
493.2297	-0.0113
493.4291	-0.0022
493.6284	-0.009
493.8278	0.0017
494.0271	0.0003
494.2264	-0.0169
494.4257	-0.0209
494.625	-0.0082
494.8243	-0.0244
495.0236	-0.0172
495.2228	-0.0125
495.422	0.0001
495.6213	-0.0053
495.8205	-0.0054
496.0196	-0.0098
496.2188	0.0031
496.418	-0.0118
496.6171	0.0024
496.8162	-0.0077
497.0153	0.0059
497.2144	-0.0191
497.4135	-0.0065
497.6126	-0.0178
497.8116	-0.0163
498.0107	-0.0044
498.2097	-0.0104
498.4087	-0.0071
498.6077	-0.0029
498.8067	-0.0167
499.0056	-0.0065
499.2046	-0.0102
499.4035	-0.0223
499.6024	-0.0094
499.8013	-0.0036
500.0002	-0.013
500.199	-0.0059
500.3979	-0.0031
500.5967	-0.0109
500.7956	-0.0044
500.9944	-0.0138
501.1932	-0.0227
501.3919	-0.0052
501.5907	-0.0193
501.7895	-0.0042
501.9882	-0.0125
502.1869	-0.0069
502.3856	-0.0207
502.5843	-0.021
502.783	-0.008
502.9816	-0.0027
503.1803	-0.0112
503.3789	-0.0144
503.5775	0.0049
503.7761	-0.0065
503.9747	-0.0084
504.1732	-0.0091
504.3718	-0.0031
504.5703	0.003
504.7689	-0.0046
504.9674	-0.001
505.1658	-0.0145
505.3643	-0.004
505.5628	-0.0123
505.7612	-0.0153
505.9597	0.0085
506.1581	-0.008
506.3565	0.0079
506.5549	-0.0087
506.7532	-0.0126
506.9516	0.0007
507.1499	-0.0054
507.3482	-0.014
507.5465	-0.0126
507.7448	-0.0039
507.9431	-0.006
508.1414	-0.0055
508.3396	-0.0109
508.5379	-0.006
508.7361	-0.0122
508.9343	0.009
509.1325	-0.0092
509.3306	-0.0151
509.5288	-0.0083
509.7269	-0.0066
509.9251	-0.0083
510.1232	-0.013
510.3213	-0.001
510.5193	-0.0079
510.7174	-0.0149
510.9154	-0.0071
511.1135	-0.0072
511.3115	-0.0098
511.5095	-0.003
511.7075	-0.0074
511.9055	-0.0021
512.1034	-0.0109
512.3014	-0.0048
512.4993	-0.0053
512.6972	-0.008
512.8951	-0.021
513.093	-0.0033
513.2908	0.0041
513.4887	-0.005
513.6865	-0.0008
513.8844	-0.0059
514.0822	-0.0088
514.2799	-0.0241
514.4777	-0.0065
514.6755	-0.0097
514.8732	-0.0147
515.0709	-0.0008
515.2687	-0.0088
515.4664	-0.011
515.664	-0.0045
515.8617	-0.0103
516.0594	-0.0127
516.257	-0.0028
516.4546	-0.0215
516.6522	-0.0029
516.8498	-0.0009
517.0474	0.0043
517.2449	0.0007
517.4425	-0.0286
517.64	-0.004
517.8375	0.0041
518.035	-0.0088
518.2325	-0.0103
518.43	-0.0114
518.6274	-0.0115
518.8249	-0.0162
519.0223	-0.006
519.2197	-0.0139
519.4171	-0.0061
519.6145	-0.0011
519.8118	-0.0048
520.0092	-0.0126
520.2065	-0.014
520.4038	-0.0224
520.6011	-0.0168
520.7984	-0.0081
520.9956	-0.009
521.1929	-0.016
521.3901	-0.0028
521.5874	-0.0032
521.7846	-0.0043
521.9818	-0.0132
522.1789	-0.0136
522.3761	0.0029
522.5732	0.0002
522.7704	-0.0058
522.9675	-0.001
523.1646	-0.0173
523.3617	-0.002
523.5587	-0.0064
523.7558	-0.0082
523.9528	-0.0143
524.1498	-0.0003
524.3468	-0.0174
524.5438	-0.0185
524.7408	-0.0048
524.9378	-0.0009
525.1347	-0.0068
525.3316	-0.0027
525.5285	-0.0118
525.7254	-0.0036
525.9223	-0.0031
526.1192	-0.0074
526.316	-0.0084
526.5129	-0.0022
526.7097	0.0058
526.9065	-0.0121
527.1033	-0.0177
527.3	-0.0033
527.4968	-0.0157
527.6935	-0.0012
527.8903	-0.0181
528.087	-0.0095
528.2837	-0.0088
528.4804	-0.0028
528.677	-0.0138
528.8737	0.0017
529.0703	0.0013
529.2669	-0.0016
529.4635	0.0008
529.6601	-0.0114
529.8567	0
530.0532	-0.0144
530.2498	-0.0001
530.4463	0.0086
530.6428	-0.0043
530.8393	0.0017
531.0358	0.0003
531.2322	-0.0137
531.4287	-0.0082
531.6251	-0.0109
531.8215	0.0057
532.0179	0.0003
532.2143	0.0061
532.4107	-0.0005
532.607	0.0002
532.8034	-0.0014
532.9997	-0.0018
533.196	-0.0088
533.3923	-0.0073
533.5886	-0.0136
533.7848	0.0022
533.9811	-0.0118
534.1773	-0.0029
534.3735	0.0014
534.5697	-0.0023
534.7659	-0.0077
534.9621	-0.0101
535.1582	-0.014
535.3544	-0.0049
535.5505	-0.0085
535.7466	-0.0092
535.9427	-0.0074
536.1387	-0.0065
536.3348	-0.0083
536.5308	-0.0005
536.7269	-0.0179
536.9229	0.0075
537.1189	-0.0055
537.3148	0.0015
537.5108	-0.0108
537.7068	-0.0033
537.9027	-0.0034
538.0986	-0.0103
538.2945	-0.0103
538.4904	-0.0031
538.6863	-0.0092
538.8821	0.0031
539.078	-0.0073
539.2738	0.0065
539.4696	-0.0012
539.6654	0.0022
539.8611	0.0105
540.0569	-0.0055
540.2526	-0.0051
540.4484	-0.0029
540.6441	0.0024
540.8398	-0.0084
541.0355	-0.0001
541.2311	0.0043
541.4268	-0.001
541.6224	0.012
541.818	0.0001
542.0136	-0.0112
542.2092	-0.002
542.4048	0.0068
542.6003	0.0028
542.7959	-0.0063
542.9914	-0.0073
543.1869	0.003
543.3824	-0.0063
543.5779	-0.0099
543.7734	-0.0073
543.9688	-0.003
544.1642	0.0043
544.3596	-0.0067
544.555	-0.006
544.7504	-0.01
544.9458	-0.0118
545.1411	-0.01
545.3365	-0.0016
545.5318	-0.0151
545.7271	-0.0074
545.9224	0.0007
546.1177	-0.0038
546.3129	-0.0074
546.5081	-0.0073
546.7034	-0.0038
546.8986	-0.0008
547.0938	-0.0091
547.289	-0.0113
547.4841	-0.0012
547.6793	0.0026
547.8744	-0.0062
548.0695	0.005
548.2646	-0.0049
548.4597	-0.002
548.6548	0.001
548.8498	-0.0037
549.0448	-0.0118
549.2399	-0.0036
549.4349	-0.0042
549.6298	-0.0094
549.8248	-0.0056
550.0198	-0.0011
550.2147	-0.0008
550.4096	-0.0033
550.6045	-0.0041
550.7994	0.0008
550.9943	0.005
551.1892	-0.0063
551.384	0.0037
551.5788	-0.0077
551.7737	0.0053
551.9685	-0.003
552.1632	0.0021
552.358	0.0005
552.5528	0.0032
552.7475	0.0008
552.9422	-0.0037
553.1369	-0.0038
553.3316	0.0069
553.5263	-0.0141
553.7209	-0.0023
553.9156	0.0008
554.1102	-0.0064
554.3048	-0.0035
554.4994	0.0065
554.694	-0.001
554.8885	0.0031
555.0831	-0.0093
555.2776	-0.013
555.4721	-0.0051
555.6666	-0.0041
555.8611	0.0071
556.0555	0.0048
556.25	-0.0021
556.4444	-0
556.6388	-0.0026
556.8332	-0.003
557.0276	-0.002
557.222	-0.0064
557.4163	-0.0017
557.6107	-0.0099
557.805	0.0054
557.9993	-0.0116
558.1936	-0
558.3879	-0.0041
558.5821	-0.0023
558.7764	-0.0044
558.9706	0.0056
559.1648	0.0095
559.359	-0.0054
559.5532	-0.0087
559.7473	-0.0053
559.9415	-0.0093
560.1356	-0.0042
560.3297	-0.0083
560.5238	-0.0066
560.7179	-0.0101
560.9119	-0.0011
561.106	-0.0011
561.3	-0.0106
561.494	-0.0034
561.688	-0.0082
561.882	-0.0092
562.076	-0.0022
562.2699	0.0033
562.4639	-0.0018
562.6578	-0.0061
562.8517	-0.0037
563.0456	-0.0019
563.2395	-0.0044
563.4333	-0.0033
563.6272	0.0031
563.821	-0.0029
564.0148	-0.0013
564.2086	-0.0059
564.4024	0.0017
564.5961	-0.0068
564.7899	0.0059
564.9836	-0.0012
565.1773	0.0039
565.371	-0.0005
565.5647	0.0106
565.7584	-0.0047
565.952	0.0104
566.1456	0.0025
566.3393	-0.0027
566.5329	0.004
566.7264	0.0025
566.92	-0.0096
567.1136	0.0075
567.3071	-0.0131
567.5006	0.0013
567.6941	0.0046
567.8876	0.0015
568.0811	-0.0082
568.2745	0.0003
568.468	-0.0009
568.6614	-0.003
568.8548	0.0028
569.0482	0.0039
569.2416	0.0081
569.4349	-0.003
569.6283	0.0047
569.8216	-0.0001
570.0149	-0.008
570.2082	0.0066
570.4015	0.0053
570.5947	0.0052
570.788	-0.0015
570.9812	0.0038
571.1744	-0.0053
571.3676	-0.0093
571.5608	-0.0011
571.754	0.0022
571.9471	0.0046
572.1402	0.0008
572.3333	-0.0124
572.5264	-0.0011
572.7195	0.0002
572.9126	0.0008
573.1057	-0.0057
573.2987	-0.0026
573.4917	0.0027
573.6847	-0.0062
573.8777	0.0069
574.0707	0.0117
574.2636	0.0024
574.4566	-0.0034
574.6495	0.0066
574.8424	0.0017
575.0353	-0
575.2281	0.0082
575.421	-0.0002
575.6138	0.0001
575.8067	-0.0022
575.9995	0.0035
576.1923	-0.0006
576.385	0.0028
576.5778	-0.0021
576.7706	-0.0005
576.9633	-0.0031
577.156	0.0027
577.3487	0.0036
577.5414	-0.0025
577.734	0.0017
577.9267	0.007
578.1193	-0.0043
578.3119	-0.0014
578.5045	0.0029
578.6971	0.0074
578.8897	0.0065
579.0822	0.0044
579.2747	0.002
579.4673	-0.0068
579.6598	-0.0048
579.8522	-0.0019
580.0447	-0.0018
580.2372	0.0032
580.4296	0.0024
580.622	-0.0032
580.8144	0.0025
581.0068	0.0012
581.1992	-0.0029
581.3915	-0.0049
581.5839	-0.0021
581.7762	-0.0042
581.9685	0.0022
582.1608	0.0015
582.353	-0.0009
582.5453	-0.0028
582.7375	0.0067
582.9298	0.0058
583.122	-0.0015
583.3142	0.0045
583.5063	-0.0038
583.6985	-0.002
583.8906	0.0032
584.0827	-0.0041
584.2749	0.0086
584.4669	0.008
584.659	0.0007
584.8511	0.0057
585.0431	-0.0003
585.2352	0.0079
585.4272	0.0101
585.6192	0.0065
585.8111	-0.0032
586.0031	0.0014
586.195	0.0006
586.387	0.0076
586.5789	-0.001
586.7708	0.0075
586.9627	-0.0009
587.1545	-0.0011
587.3464	0.0064
587.5382	0.0041
587.73	0.0016
587.9218	0.0077
588.1136	-0.0008
588.3053	0.0089
588.4971	0.0013
588.6888	-0.0043
588.8805	0.0031
589.0722	0.0077
589.2639	0.0029
589.4556	0.0013
589.6472	0.0029
589.8389	-0.0105
590.0305	-0.0041
590.2221	-0.0024
590.4137	-0.0008
590.6052	0.0054
590.7968	0.0015
590.9883	0.0082
591.1798	0.0001
591.3713	0.0092
591.5628	0.0071
591.7543	0.0095
591.9458	0.0082
592.1372	0.0086
592.3286	0.0105
592.52	0.0089
592.7114	0.0021
592.9028	0.0025
593.0941	0.0041
593.2855	0.0042
593.4768	0.0002
593.6681	-0.0067
593.8594	-0.0058
594.0506	0.0026
594.2419	0.0032
594.4331	-0.0011
594.6244	0.0024
594.8156	-0.0067
595.0067	-0.001
595.1979	0.0024
595.3891	0.0082
595.5802	0.0027
595.7713	-0.0053
595.9624	-0.0013
596.1535	0.0047
596.3446	-0.0015
596.5357	-0.0007
596.7267	0.0054
596.9177	-0.0001
597.1087	-0.0089
597.2997	-0.0013
597.4907	0.0065
597.6817	-0.0052
597.8726	0.0024
598.0635	-0.0034
598.2544	0.0047
598.4453	0.0021
598.6362	-0.0059
598.827	-0.0019
599.0179	0.0029
599.2087	0.0009
599.3995	0.001
599.5903	0.0008
599.7811	0.0004
599.9718	0.0019
600.1626	0.0005
600.3533	-0.007
600.544	0.0005
600.7347	-0.0015
600.9254	0.003
601.116	-0.0045
601.3067	0.0029
601.4973	-0.0013
601.6879	0.005
601.8785	-0.0005
602.0691	0.0062
602.2596	0.0015
602.4502	0.0029
602.6407	0.0056
602.8312	0.0001
603.0217	-0.0033
603.2122	0.0058
603.4027	-0.0007
603.5931	-0.004
603.7835	-0.0074
603.9739	-0.0024
604.1643	-0.0024
604.3547	-0.0052
604.5451	0.0051
604.7354	0.0012
604.9257	0.0055
605.116	-0.0001
605.3063	0.0045
605.4966	0.0044
605.6869	0.0042
605.8771	0.0026
606.0673	0.0024
606.2575	0.0041
606.4477	0.0056
606.6379	0.005
606.8281	0.0027
607.0182	0.0047
607.2083	0.0109
607.3985	-0.0064
607.5885	-0.0008
607.7786	0.003
607.9687	-0.0058
608.1587	0.005
608.3488	0.0027
608.5388	0.0024
608.7288	-0.0023
608.9187	0.0001
609.1087	-0.0093
609.2986	-0.0064
609.4886	0
609.6785	0.0017
609.8684	0.0044
610.0582	0.0047
610.2481	0.0054
610.4379	0.0046
610.6278	-0.0011
610.8176	-0.0014
611.0074	0.0025
611.1971	0.0004
611.3869	-0.0007
611.5766	-0.0044
611.7664	0.0115
611.9561	0.0035
612.1458	0.0142
612.3354	-0.0023
612.5251	-0.0031
612.7147	0.0056
612.9044	0.0189
613.094	-0.0064
613.2836	0.0065
613.4731	0.005
613.6627	0.0012
613.8522	0.0103
614.0417	0.0075
614.2313	0.0019
614.4207	-0.0019
614.6102	0.0057
614.7997	0.001
614.9891	-0.0016
615.1785	0.0018
615.3679	-0.0033
615.5573	0.0006
615.7467	0.002
615.9361	-0.0052
616.1254	-0.0033
616.3147	0.0027
616.504	0.0045
616.6933	0.0126
616.8826	0.003
617.0718	0.0085
617.2611	0.0054
617.4503	-0.0034
617.6395	0.0013
617.8287	0.0008
618.0179	0.0009
618.207	0.0075
618.3961	0.0075
618.5853	-0
618.7744	0.0035
618.9634	0.0018
619.1525	0.0043
619.3416	0.0096
619.5306	0.0101
619.7196	0.01
619.9086	0.0036
620.0976	0.0076
620.2866	0.0024
620.4755	0.006
620.6645	0.0081
620.8534	0.0109
621.0423	0.0058
621.2312	0.0074
621.42	0.0002
621.6089	0.001
621.7977	0.0033
621.9865	-0.0016
622.1753	0.0016
622.3641	0.0006
622.5529	0.0104
622.7416	0.0056
622.9303	0.0036
623.1191	0.0052
623.3078	-0.0027
623.4964	0.0139
623.6851	0.0027
623.8737	0.0014
624.0624	0.0027
624.251	-0.004
624.4396	0.003
624.6282	-0.0002
624.8167	0.0023
625.0053	0.0048
625.1938	0.0069
625.3823	0.0028
625.5708	0.0068
625.7593	-0.0025
625.9477	-0.002
626.1362	-0.0038
626.3246	0.0016
626.513	0.0083
626.7014	0.0081
626.8898	0.0076
627.0781	0.0037
627.2665	-0.0042
627.4548	0.0061
627.6431	0.0062
627.8314	0.0021
628.0197	0.011
628.2079	-0.004
628.3962	0.0019
628.5844	0.0023
628.7726	0.0049
628.9608	0.0054
629.1489	0.0063
629.3371	0.0061
629.5252	0.0045
629.7134	0.003
629.9015	-0.0007
630.0895	0.0005
630.2776	0.0005
630.4657	-0.0008
630.6537	0.0001
630.8417	0.0036
631.0297	-0.0005
631.2177	0.0046
631.4057	-0.0002
631.5936	-0.0055
631.7815	0.0033
631.9695	-0.0012
632.1574	0.0065
632.3452	0.0143
632.5331	0.0058
632.7209	0.004
632.9088	0.0127
633.0966	0.0105
633.2844	-0
633.4722	-0.0029
633.6599	0.0057
633.8477	0.0043
634.0354	0.003
634.2231	-0.0003
634.4108	0.0079
634.5985	0.0059
634.7861	0.0033
634.9738	0.0025
635.1614	0.0091
635.349	0.0096
635.5366	0.0025
635.7242	-0.0014
635.9117	0.0047
636.0993	-0.0002
636.2868	0.006
636.4743	-0.0007
636.6618	0.0131
636.8492	0.0033
637.0367	0.011
637.2241	-0.001
637.4115	-0.0044
637.5989	0.0033
637.7863	0.0028
637.9737	0.0005
638.161	-0.0022
638.3484	-0.0025
638.5357	0.0029
638.723	-0.0036
638.9103	0.0043
639.0975	0.0044
639.2848	0.0032
639.472	-0.0023
639.6592	0.0113
639.8464	0.0082
640.0336	0.0084
640.2208	0.0016
640.4079	-0.0024
640.595	0.0035
640.7821	0.0038
640.9692	0.0049
641.1563	0.0039
641.3434	0.0012
641.5304	0.0096
641.7174	0
641.9044	-0.0012
642.0914	0.0048
642.2784	0.0042
642.4653	0.003
642.6523	-0.0005
642.8392	-0.0067
643.0261	0.0056
643.213	-0.0055
643.3999	-0.0039
643.5867	-0.0029
643.7735	-0.0036
643.9604	-0.0086
644.1472	0.0038
644.3339	0.0035
644.5207	0.0027
644.7075	0.0009
644.8942	0.0097
645.0809	0.0092
645.2676	0.0019
645.4543	0.0068
645.6409	0.0011
645.8276	0.0009
646.0142	0.002
646.2008	-0.0015
646.3874	0.0023
646.574	0.0039
646.7605	-0.0034
646.9471	-0.0146
647.1336	-0.0031
647.3201	0.0004
647.5066	-0.0019
647.6931	0.0095
647.8795	0.002
648.0659	0.0067
648.2524	0.0085
648.4388	0.004
648.6252	0.0051
648.8115	0.0045
648.9979	-0.0004
649.1842	0.0011
649.3705	0.0071
649.5568	0.0084
649.7431	-0.0007
649.9294	0.0029
650.1156	0.0071
650.3018	-0.0025
650.488	0.0052
650.6742	0.0104
650.8604	0.0029
651.0466	0.0024
651.2327	0.005
651.4188	0.0012
651.6049	0.0033
651.791	0.0079
651.9771	0.0069
652.1632	0.0109
652.3492	0.0132
652.5352	-0.0001
652.7212	-0.0025
652.9072	0.0007
653.0932	0.0001
653.2791	-0.0052
653.465	0.005
653.651	-0.0031
653.8369	0.0011
654.0227	0.0051
654.2086	0.0081
654.3944	0.0088
654.5803	0.0019
654.7661	0.0041
654.9519	0.0025
655.1377	-0.0005
655.3234	0.0031
655.5092	-0.0039
655.6949	-0.0081
655.8806	-0.0011
656.0663	0.0018
656.2519	-0.0023
656.4376	-0.0018
656.6232	0.0041
656.8088	-0.0003
656.9945	-0.0003
657.18	0.0027
657.3656	-0.0007
657.5511	0.0016
657.7367	-0.0053
657.9222	0.0096
658.1077	0.0081
658.2932	0.0039
658.4786	-0.0034
658.6641	-0.0012
658.8495	0.0004
659.0349	0.0039
659.2203	0.0089
659.4057	0.0041
659.591	0.0044
659.7764	0.0004
659.9617	0.0009
660.147	0.0039
660.3323	0.0087
660.5176	0.0125
660.7028	0.0091
660.888	0.0122
661.0733	0.0076
661.2585	-0.0017
661.4436	-0.0002
661.6288	0.009
661.8139	0.0059
661.9991	0.0057
662.1842	-0.0051
662.3693	0.0058
662.5544	0.0002
662.7394	0.0105
662.9245	0.0052
663.1095	0.0011
663.2945	0.0066
663.4795	0.005
663.6644	0.0073
663.8494	0.0028
664.0343	0.0114
664.2193	-0.0047
664.4042	0.0041
664.589	-0.0018
664.7739	0.0019
664.9587	-0.0003
665.1436	0.0071
665.3284	0.0047
665.5132	0.0042
665.698	0.0042
665.8827	0.0062
666.0675	0.0049
666.2522	0.0035
666.4369	0.0146
666.6216	0.0152
666.8063	0.008
666.9909	0.0062
667.1756	0.0056
667.3602	0.0069
667.5448	0.0034
667.7294	0.0112
667.9139	0.0044
668.0985	0.0112
668.283	0.0009
668.4675	0.0068
668.652	-0.0033
668.8365	0.0001
669.0209	0.0118
669.2054	0.0111
669.3898	0.0041
669.5742	0.0041
669.7586	0.005
669.943	0.0186
670.1273	0.0111
670.3117	0.0051
670.496	0.009
670.6803	0.015
670.8646	0.007
671.0488	0.0005
671.2331	0.0078
671.4173	0.0138
671.6015	0.0016
671.7857	0.0017
671.9699	0.0165
672.1541	0.0075
672.3382	0.0055
672.5223	0.0111
672.7064	0.0069
672.8905	0.0092
673.0746	0.0026
673.2587	0.0046
673.4427	0.0086
673.6267	0.0112
673.8107	0.0096
673.9947	0.0094
674.1787	0.0057
674.3626	-0.0006
674.5465	0.0109
674.7304	0.0031
674.9143	0.0008
675.0982	0.0055
675.2821	-0.0015
675.4659	0.0061
675.6497	-0.0006
675.8335	-0.0023
676.0173	-0.0041
676.2011	0.0056
676.3849	-0.001
676.5686	-0.0024
676.7523	0.002
676.936	-0.0021
677.1197	-0.0007
677.3034	-0.0045
677.487	0.0085
677.6706	0.0028
677.8542	0.0046
678.0378	0.0032
678.2214	0.0047
678.405	-0.0016
678.5885	-0.0046
678.772	-0.0016
678.9555	-0.003
679.139	-0.0069
679.3225	-0.001
679.5059	-0.0025
679.6894	-0.0032
679.8728	0.0043
680.0562	-0.0021
680.2395	-0.0034
680.4229	-0.0026
680.6062	0.0056
680.7896	0.0077
680.9729	-0.009
681.1562	0.01
681.3394	0.008
681.5227	-0.0039
681.7059	-0.0011
681.8891	0.0036
682.0723	0.0067
682.2555	0.0039
682.4387	0.0002
682.6218	0.002
682.805	0.0049
682.9881	0.0063
683.1712	-0.0017
683.3542	-0.003
683.5373	0.0054
683.7203	-0.0083
683.9034	-0.0052
684.0864	-0.0068
684.2694	0.0056
684.4523	-0.0001
684.6353	-0.0036
684.8182	0
685.0011	-0.0045
685.184	0.0047
685.3669	-0.0015
685.5498	0.0043
685.7326	-0.0017
685.9154	-0.0032
686.0982	0.0052
686.281	0.0003
686.4638	0.0017
686.6465	0.0013
686.8293	0.0054
687.012	0.0073
687.1947	-0.0007
687.3774	0.0122
687.56	-0.0017
687.7427	0.011
687.9253	-0.0041
688.1079	-0.0007
688.2905	0.0075
688.4731	-0.003
688.6556	0.0011
688.8382	0.0021
689.0207	0.0014
689.2032	-0.0074
689.3857	-0.0013
689.5681	0.0083
689.7506	0.0013
689.933	-0.0003
690.1154	0.0019
690.2978	-0.0026
690.4802	0.0032
690.6626	-0.003
690.8449	-0.0009
691.0272	0.0064
691.2095	-0.0019
691.3918	-0.0027
691.5741	0.0086
691.7563	0.0001
691.9386	0.0062
692.1208	0.0067
692.303	0.0039
692.4852	0.0006
692.6673	0.0039
692.8495	0.0023
693.0316	0.0043
693.2137	0.0095
693.3958	0.0107
693.5778	0.0013
693.7599	0.0006
693.9419	-0.0028
694.1239	-0.0005
694.3059	0.0032
694.4879	0.0026
694.6699	0.0116
694.8518	0.0077
695.0337	0.0046
695.2157	0.0121
695.3975	0.0011
695.5794	0.0034
695.7613	0.0054
695.9431	-0.0008
696.1249	0.0039
696.3067	0.0031
696.4885	0.0097
696.6703	-0.0026
696.852	0.0036
697.0337	0.0078
697.2154	0.0032
697.3971	0.0114
697.5788	0.0061
697.7605	0.0016
697.9421	0.0014
698.1237	0.0075
698.3053	0.0009
698.4869	-0.0023
698.6685	-0.0074
698.85	-0.008
699.0315	0.0091
699.213	-0.0039
699.3945	0.0019
699.576	0.0072
699.7575	0.0046
699.9389	0.0085
700.1203	-0.0016
700.3017	-0.0026
700.4831	0.0003
700.6645	0.0048
700.8458	0.0069
701.0271	-0.0074
701.2084	0.0124
701.3897	0.0067
701.571	0.009
701.7523	0
701.9335	0.0056
702.1147	0.0009
702.2959	-0.0025
702.4771	0.0044
702.6583	-0.0016
702.8394	-0.0034
703.0205	0.0013
703.2016	-0.004
703.3827	0.0028
703.5638	0.0032
703.7449	0.0003
703.9259	0.0065
704.1069	-0.007
704.2879	0.0025
704.4689	0.0053
704.6499	-0.0001
704.8308	-0.0071
705.0117	-0.0057
705.1927	-0.0003
705.3735	-0.0037
705.5544	-0.0023
705.7353	0.0052
705.9161	-0.0107
706.0969	-0.0028
706.2777	-0.0057
706.4585	0.0015
706.6393	0.0069
706.82	0.0074
707.0007	0.0125
707.1815	0.0039
707.3621	0.0137
707.5428	0.0065
707.7235	0.0063
707.9041	0.0032
708.0847	-0.0018
708.2653	0.0066
708.4459	-0.0104
708.6265	-0.0015
708.807	0.0032
708.9875	0.002
709.168	-0.0069
709.3485	0.0035
709.529	-0.0052
709.7095	-0.0047
709.8899	0.0019
710.0703	-0.0082
710.2507	-0.0006
710.4311	0.0024
710.6115	-0.0051
710.7918	-0.004
710.9721	-0.0048
711.1524	-0.0066
711.3327	-0.0066
711.513	0.0034
711.6932	0.0018
711.8735	0.0025
712.0537	-0.0015
712.2339	-0.0062
712.4141	-0.007
712.5942	-0.0042
712.7744	0.0051
712.9545	-0.0062
713.1346	-0.0006
713.3147	-0.0005
713.4947	-0.0057
713.6748	0.0039
713.8548	0.002
714.0348	-0.002
714.2148	-0.0052
714.3948	0.0063
714.5748	-0.0014
714.7547	-0.0048
714.9346	0.0054
715.1145	-0.0051
715.2944	-0.001
715.4743	0.0081
715.6541	0.0031
715.834	0.0058
716.0138	-0.0082
716.1936	-0.0088
716.3733	-0.005
716.5531	0.0113
716.7328	-0.0017
716.9126	-0.0023
717.0923	0.0013
717.2719	0.0048
717.4516	0.0069
717.6312	0.0085
717.8109	-0.0032
717.9905	0.0025
718.1701	-0.0009
718.3496	-0.0016
718.5292	0.0037
718.7087	-0.0014
718.8882	0.0003
719.0677	0.01
719.2472	-0.0026
719.4267	0.0029
719.6061	0.0045
719.7856	-0.0021
719.965	0.0074
720.1443	-0.0062
720.3237	0.012
720.5031	-0.0006
720.6824	0.0124
720.8617	0.0001
721.041	0.0019
721.2203	0.0031
721.3995	0.0058
721.5788	0.0057
721.758	0.0097
721.9372	0.0026
722.1164	0.002
722.2956	0.0016
722.4747	0.002
722.6538	0.0016
722.8329	0.0154
723.012	0.0138
723.1911	0.0075
723.3702	0.006
723.5492	0.0101
723.7282	0.001
723.9072	0.0011
724.0862	-0.0009
724.2652	0.0015
724.4441	-0.0023
724.623	-0.0017
724.8019	-0.003
724.9808	-0.0017
725.1597	-0.0092
725.3385	0.0094
725.5174	0.0069
725.6962	0.0034
725.875	-0.0021
726.0538	0.0047
726.2325	0.0016
726.4112	-0.0048
726.59	-0.0059
726.7687	-0.0041
726.9474	0.0044
727.126	-0.006
727.3047	-0.0086
727.4833	-0.0029
727.6619	-0.0129
727.8405	-0.0101
728.0191	0.0002
728.1976	-0.0004
728.3762	0.0034
728.5547	-0.0009
728.7332	-0.0069
728.9116	0.0042
729.0901	0.0011
729.2686	-0.005
729.447	-0.0008
729.6254	-0
729.8038	0.0001
729.9821	-0.0068
730.1605	0.0007
730.3388	-0.0015
730.5171	-0.0019
730.6954	-0.0067
730.8737	-0.0004
731.0519	0.0016
731.2302	-0.0002
731.4084	0.0102
731.5866	0.0118
731.7648	0.003
731.9429	0.0098
732.1211	-0.0066
732.2992	0.0067
732.4773	-0.0024
732.6554	0.0013
732.8335	0.0078
733.0115	-0.0008
733.1896	0.0086
733.3676	-0.0033
733.5456	0.0072
733.7235	0.0092
733.9015	0.0035
734.0794	0.0013
734.2574	-0.0043
734.4353	0.01
734.6131	0.004
734.791	0.0128
734.9689	0.0047
735.1467	0.0066
735.3245	-0.0042
735.5023	-0.004
735.68	0.0036
735.8578	0.0082
736.0355	-0.0011
736.2132	0.0024
736.3909	0.002
736.5686	-0.0037
736.7463	0.01
736.9239	-0.0026
737.1015	0.0004
737.2791	0.0141
737.4567	0.001
737.6343	-0.0042
737.8118	0.0064
737.9894	-0.0005
738.1669	-0.0015
738.3444	-0.0041
738.5218	0.0046
738.6993	-0.0075
738.8767	0.0059
739.0541	0.0076
739.2315	-0.0046
739.4089	0.0023
739.5863	0.0109
739.7636	-0.0003
739.9409	0.0058
740.1182	0.0078
740.2955	0.0076
740.4728	-0.0022
740.65	-0.0101
740.8272	-0.0022
741.0044	-0.0058
741.1816	-0.0039
741.3588	0.0005
741.5359	0.004
741.7131	-0.0087
741.8902	0.0007
742.0673	0.0021
742.2444	-0.0081
742.4214	-0.0158
742.5985	0.0002
742.7755	-0.0014
742.9525	-0.008
743.1295	0.0005
743.3064	-0.0029
743.4834	0.0078
743.6603	-0.0054
743.8372	-0.0109
744.0141	0.0046
744.191	0.0065
744.3678	-0.0006
744.5446	-0.007
744.7215	-0.0008
744.8982	-0.0041
745.075	-0.0092
745.2518	0.0039
745.4285	0.0034
745.6052	-0.0061
745.7819	0.0035
745.9586	-0.0022
746.1353	-0.0043
746.3119	-0.0004
746.4885	-0.0083
746.6651	-0.0093
746.8417	-0.0007
747.0183	-0.0072
747.1948	-0.0062
747.3714	0.0018
747.5479	-0.0004
747.7244	-0.0059
747.9008	-0.0005
748.0773	-0.0102
748.2537	0.0008
748.4301	-0.0056
748.6065	0.0064
748.7829	0.0025
748.9593	-0.0028
749.1356	0.005
749.3119	0.0067
749.4882	-0.0114
749.6645	0.0027
749.8408	-0.0079
750.017	-0.0082
750.1933	0.0007
750.3695	-0.0071
750.5457	-0.0013
750.7218	0.0016
750.898	0.0071
751.0741	-0.0078
751.2502	0.0045
751.4263	0.006
751.6024	-0.0073
751.7784	-0.0055
751.9545	-0.0077
752.1305	0.0029
752.3065	-0.0083
752.4825	0.0026
752.6584	-0.0006
752.8344	0.0019
753.0103	-0.0063
753.1862	-0.0003
753.3621	-0.0047
753.5379	-0.002
753.7138	0.0006
753.8896	0.0003
754.0654	0.0034
754.2412	0.0093
754.417	0.0057
754.5927	-0.0028
754.7685	-0.0024
754.9442	0.0113
755.1199	0.0084
755.2956	-0.002
755.4712	0.0066
755.6469	-0.0026
755.8225	-0.0043
755.9981	-0.0044
756.1736	0.0072
756.3492	-0.0028
756.5248	-0.0081
756.7003	-0.001
756.8758	0.0018
757.0513	-0.0147
757.2267	-0.0065
757.4022	0.0008
757.5776	-0.0019
757.753	-0.0021
757.9284	0.0012
758.1038	0.0113
758.2791	0.0022
758.4545	-0.0155
758.6298	0.0017
758.8051	-0.0019
758.9803	-0.0043
759.1556	-0.0021
759.3308	-0.0088
759.506	-0.0028
759.6812	-0.0035
759.8564	0.0039
760.0316	-0.0018
760.2067	0.001
760.3819	0.0083
760.557	0.0131
760.732	0.0096
760.9071	-0.0022
761.0821	0.0079
761.2572	0.0084
761.4322	0.0019
761.6072	-0.005
761.7821	0.0023
761.9571	-0.0026
762.132	-0.0029
762.3069	-0.0071
762.4818	-0.0144
762.6567	-0.0019
762.8316	-0.0035
763.0064	0.0036
763.1812	-0.0035
763.356	-0.0117
763.5308	-0.0026
763.7055	0.0128
763.8803	-0.0016
764.055	-0.0015
764.2297	0.0062
764.4044	-0.0101
764.579	-0.0002
764.7537	-0.0079
764.9283	0.0071
765.1029	-0.0083
765.2775	-0.0113
765.4521	-0.0037
765.6266	-0.011
765.8011	-0.0007
765.9756	0.0034
766.1501	0.0134
766.3246	0.0016
766.4991	0.0008
766.6735	0.0116
766.8479	-0.0051
767.0223	0.0206
767.1967	0.0013
767.371	-0.0043
767.5454	-0.0085
767.7197	0.0011
767.894	-0.0041
768.0683	-0.0097
768.2425	0.0067
768.4168	0.0124
768.591	0.0029
768.7652	0.0105
768.9394	0.0007
769.1135	0.0085
769.2877	0.0049
769.4618	0.0023
769.6359	0.005
769.81	0.0005
769.984	-0.0067
770.1581	-0.0118
770.3321	0.0062
770.5061	-0.0051
770.6801	-0.0071
770.8541	-0.0091
771.028	0.0008
771.202	-0.0081
771.3759	-0.0021
771.5498	-0.0101
771.7236	0.0067
771.8975	-0.0087
772.0713	-0.0009
772.2451	0.0019
772.4189	0.0055
772.5927	0.0005
772.7665	0.0116
772.9402	-0.0009
773.1139	0.0011
773.2876	-0.0063
773.4613	0.0033
773.635	0.0077
773.8086	-0.0049
773.9822	-0.001
774.1558	-0.0018
774.3294	-0.0018
774.503	-0.0009
774.6765	0.0063
774.8501	0.0137
775.0236	0.0119
775.1971	0.0182
775.3705	0.0057
775.544	0.0192
775.7174	0.0042
775.8908	0.0048
776.0642	0.0034
776.2376	0.0046
776.4109	-0.0128
776.5843	0.0103
776.7576	0.0033
776.9309	0.0106
777.1041	0.013
777.2774	0.0106
777.4506	0.0153
777.6238	-0.0067
777.797	0.003
777.9702	0.0011
778.1434	0.0009
778.3165	-0.0157
778.4896	-0.0029
778.6627	0.0057
778.8358	-0.0039
779.0089	-0.0158
779.1819	-0.0018
779.3549	0.0108
779.5279	-0.0069
779.7009	0.0103
779.8739	-0.0004
780.0468	0.0022
780.2197	0.0048
780.3926	0.0003
780.5655	-0.0126
780.7384	0.0002
780.9112	0.002
781.0841	-0.0124
781.2569	-0.0045
781.4297	-0.0002
781.6024	0.0084
781.7752	0.0075
781.9479	0.0081
782.1206	0.0015
782.2933	-0.0063
782.466	0.0049
782.6386	0.0109
782.8113	0.0006
782.9839	0.0098
783.1565	0.0125
783.329	0.0156
783.5016	0.0118
783.6741	0.0048
783.8466	0.0053
784.0191	0.0151
784.1916	-0.001
784.3641	0.0062
784.5365	0.0076
784.7089	-0.0111
784.8813	-0.0061
785.0537	0.0078
785.2261	0.0072
785.3984	-0.0183
785.5707	-0.0095
785.743	0.0046
785.9153	-0.0037
786.0876	0.0076
786.2598	-0.0001
786.432	-0.0045
786.6042	0.0084
786.7764	0.0012
786.9486	0.0026
787.1207	-0.0046
787.2928	0.0142
787.4649	0.0162
787.637	0.0044
787.8091	0.0015
787.9811	0.0065
788.1532	-0.0088
788.3252	0.0154
788.4972	0.0072
788.6691	-0.0014
788.8411	0.0136
789.013	-0.0002
789.1849	0.0115
789.3568	-0.0017
789.5287	0.0073
789.7005	0.0091
789.8723	0.0174
790.0442	0.0172
790.2159	0.0116
790.3877	0.0109
790.5595	-0.0207
790.7312	0.0098
790.9029	0.0181
791.0746	0.0014
791.2463	0.0005
791.4179	0.0039
791.5896	0.0034
791.7612	0.0051
791.9328	-0.0009
792.1044	-0.0032
792.2759	-0.0074
792.4474	0.006
792.619	0.0098
792.7905	0.0004
792.9619	0.0021
793.1334	0.0011
793.3048	0.0064
793.4762	-0.0043
793.6476	0.0076
793.819	-0.0114
793.9904	0.02
794.1617	-0.0119
794.333	0.0038
794.5043	-0.0077
794.6756	-0.0088
794.8469	0.0126
795.0181	0.0019
795.1893	0.0046
795.3605	0.0013
795.5317	-0.0028
795.7029	0.0047
795.874	0.0036
796.0452	-0.0063
796.2163	0.0105
796.3873	0.003
796.5584	0.0156
796.7294	0.0001
796.9005	0.0139
797.0715	0.0057
797.2425	-0.0103
797.4134	0.0158
797.5844	-0.0069
797.7553	-0.0026
797.9262	-0.0081
798.0971	-0.01
798.2679	-0.0077
798.4388	-0.0088
798.6096	-0.0101
798.7804	0.0099
798.9512	-0.0135
799.122	-0.0152
799.2927	0.0012
799.4635	0.0012
799.6342	0.0011
799.8049	-0.0084
799.9755	-0.0039
800.1462	0.013
800.3168	0.0001
800.4874	0.0006
800.658	0.0227
800.8286	0.001
800.9991	0.021
801.1696	0.0046
801.3402	0.0179
801.5106	0.0025
801.6811	0.0021
801.8516	0.023
802.022	-0.0012
802.1924	0.0148
802.3628	0.019
802.5332	0.0117
802.7035	0.0218
802.8739	0.0013
803.0442	-0.0017
803.2145	0.0021
803.3847	-0.0083
803.555	-0.0033
803.7252	0.001
803.8954	-0.0006
804.0656	-0.0074
804.2358	0.0025
804.4059	0.0075
804.5761	0.0064
804.7462	0.01
804.9163	0.0067
805.0864	-0.021
805.2564	-0.0053
805.4264	0.0146
805.5965	-0.0245
805.7665	0.007
805.9364	-0.0033
806.1064	0.0383
806.2763	0.0122
806.4462	0.0096
806.6161	0.0073
806.786	0.0075
806.9559	0.0079
807.1257	0.0121
807.2955	-0.0022
807.4653	-0.0017
807.6351	-0.0208
807.8048	-0.0018
807.9746	0.0017
808.1443	0.0131
808.314	0.0091
808.4837	0.0096
808.6533	0.0213
808.8229	0.0104
808.9926	-0.0051
809.1622	0.0061
809.3317	-0.0026
809.5013	0.0107
809.6708	0.0145
809.8403	0.0276
810.0098	-0.0065
810.1793	0.0067
810.3488	0.0097
810.5182	-0.0164
810.6876	0.0168
810.857	0.0055
811.0264	0.0146
811.1958	0.0032
811.3651	0.0137
811.5344	-0.0062
811.7037	-0.0007
811.873	0.0012
812.0422	0.0004
812.2115	0.0058
812.3807	-0.0087
812.5499	0.0245
812.7191	0.0069
812.8882	0.0087
813.0574	-0.0124
813.2265	0.0036
813.3956	0.0025
813.5646	0.015
813.7337	0.0054
813.9027	0.0229
814.0718	0.0333
814.2407	0.0244
814.4097	-0.0074
814.5787	-0.0226
814.7476	-0.0066
814.9165	0.0032
815.0854	0.0198
815.2543	0.0071
815.4232	0.0183
815.592	0.0039
815.7608	0.0076
815.9296	0.0286
816.0984	0.0177
816.2671	-0.0049
816.4359	0.0074
816.6046	0.0061
816.7733	-0.006
816.942	-0.0074
817.1106	0.0245
817.2793	0.0164
817.4479	0.0116
817.6165	0.0053
817.785	0.0087
817.9536	-0.0025
818.1221	-0.0097
818.2906	0.0085
818.4591	-0.0031
818.6276	0.0028
818.7961	0.0125
818.9645	0.0184
819.1329	0.0157
819.3013	0.009
819.4697	0.0233
819.638	0.0011
819.8064	0.009
819.9747	0.005
820.143	0.0001
820.3113	-0.0128
820.4795	0.0097
820.6477	0.012
820.816	0.0231
820.9842	0.0012
821.1523	-0.0151
821.3205	-0.002
821.4886	0.0016
821.6567	0.0026
821.8248	0.0149
821.9929	0.0275
822.1609	0.0016
822.329	0.0263
822.497	0.0303
822.665	0.0154
822.833	-0.0091
823.0009	0.022
823.1688	0.0277
823.3367	0.0185
823.5046	0.0071
823.6725	0.047
823.8404	0.0045
824.0082	0.0411
824.176	0.0282
824.3438	0.0197
824.5116	-0.0073
824.6793	0.001
824.847	0.0089
825.0147	-0.0066
825.1824	0.0131
825.3501	0.0041
825.5177	-0.0266
825.6854	0.0075
825.853	0.0006
826.0206	-0.0132
826.1881	-0.0016
826.3557	-0.0238
826.5232	0.0183
826.6907	-0.0184
826.8582	0.0163
827.0257	-0.045
827.1931	0.0015
827.3605	0.0176
827.528	0.0096
827.6953	-0.0141
827.8627	-0.01
828.03	0.036
828.1974	-0.0091
828.3647	-0.0135
828.532	-0.0243
828.6992	-0.0191
828.8665	-0.0116
829.0337	0.0099
829.2009	0.0144
829.3681	-0.0149
829.5352	0.0188
829.7024	-0.0182
829.8695	-0.045
830.0366	0.0352
830.2037	-0.0197
830.3707	0.0122
830.5378	0.016
830.7048	-0.0262
830.8718	-0.0014
831.0388	-0.0106
831.2057	0.0248
831.3727	0.0123
831.5396	-0.0055
831.7065	-0.0072
831.8734	0.0374
832.0402	-0.0179
832.2071	-0.0087
832.3739	-0.0377
832.5407	0.0026
832.7075	-0.0403
832.8742	-0.0131
833.041	-0.0495
833.2077	-0.0071
833.3744	0.0055
833.541	0.0131
833.7077	0.0002
833.8743	-0.0004
834.0409	-0.0101
834.2075	0.0197
834.3741	0.0204
834.5407	0.0112
834.7072	-0.0048
834.8737	-0.0096
835.0402	-0.0104
835.2067	0.0553
835.3731	0.0029
835.5395	0.0009
835.706	0.0048
835.8723	0.0097
836.0387	-0.0118
836.2051	-0.0195
836.3714	-0.0198
836.5377	0.0243
836.704	-0.0117
836.8703	0.0144
837.0365	-0.0396
837.2027	-0.0374
837.3689	-0.025
837.5351	0.0048
837.7013	-0.0387
837.8674	-0.0616
838.0335	-0.0535
838.1997	0.0035
838.3657	-0.0527
838.5318	0.0083
838.6978	0.0386
838.8639	0.0239
839.0299	-0.0141
839.1958	0.0058
839.3618	-0.0014
839.5277	-0.0335
839.6937	0.0163
839.8596	-0.0379
840.0254	0.025
840.1913	0.0329
840.3571	0.0218
840.523	-0.0432
840.6888	-0.0383
840.8545	-0.012
841.0203	-0.0015
841.186	0.0081
841.3517	-0.0121
841.5174	0.0807
841.6831	-0.0537
841.8488	-0.0326
842.0144	0.0021
842.18	0.0221
842.3456	0.0088
842.5112	-0.0262
842.6767	-0.0497
842.8422	-0.0539
843.0077	-0.0324
843.1732	-0.0418
843.3387	-0.0174
843.5042	-0.0565
843.6696	-0.0366
843.835	-0.0418
844.0004	0.0141
844.1657	-0.039
844.3311	-0.0656
844.4964	-0.0862
844.6617	-0.0192
844.827	0.0418
844.9923	0.0399
845.1575	-0.0657
845.3227	-0.0177
845.4879	-0.0565
845.6531	-0.0405
845.8183	-0.0667
845.9834	-0.0502
846.1485	-0.024
846.3136	-0.0655
846.4787	-0.0777
846.6438	0.0199
846.8088	-0.0209
846.9738	-0.0979
847.1388	-0.0229
847.3038	-0.0562
847.4687	-0.1375
847.6337	0.0557
847.7986	0.0071
847.9635	0.0094
848.1284	-0.0063
848.2932	0.0513
848.458	0.0023
848.6228	0.0473
848.7876	0.0356
848.9524	-0.0514
849.1172	-0.095
849.2819	0.0033
849.4466	-0.113
849.6113	-0.1281
849.7759	-0.0092
849.9406	-0.0466
850.1052	-0.0072
850.2698	0.091
850.4344	0.0007
850.599	-0.1012
850.7635	0.1356
850.928	-0.0237
851.0925	-0.0783
851.257	0.0932
851.4215	-0.0357
851.5859	-0.07
851.7503	0.0373
851.9147	-0.0188
852.0791	-0.1389
852.2434	-0.1225
852.4078	-0.0205
852.5721	0.0537
852.7364	-0.0134
852.9007	-0.0928
853.0649	-0.1144
853.2291	-0.0465
853.3934	-0.0239
853.5575	0.1647
853.7217	-0.0337
853.8859	-0.107
854.05	-0.0562
854.2141	0.0141
854.3782	-0.1305
854.5423	-0.113
854.7063	0.1377
854.8703	-0.0362
855.0343	-0.1072
855.1983	-0.2005
855.3623	0.0282
855.5262	0.0758
855.6901	-0.0542
855.854	-0.0034
856.0179	0.1141
856.1818	0.0375
856.3456	-0.1566
856.5094	-0.1218
856.6732	-0.1474
856.837	-0.1435
857.0008	0.0848
857.1645	-0.0638
857.3282	-0.18
857.4919	0.0043
857.6556	-0.0416
857.8192	0.0726
857.9828	0.0958
858.1465	-0.0806
858.31	-0.1867
858.4736	-0.1378
858.6372	-0.145
858.8007	-0.1847
858.9642	-0.0251
859.1277	-0.1784
859.2911	0.0109
859.4546	-0.0774
859.618	-0.3658
859.7814	-0.0673
859.9448	-0.0631
860.1081	-0.2183
860.2715	0.0166
860.4348	-0.2393
860.5981	0.1082
860.7614	0.1805
860.9246	-0.204
861.0879	-0.1848
861.2511	-0.0828
861.4143	-0.367
861.5774	0.1275
861.7406	-0.3167
861.9037	-0.1198
862.0668	-0.2306
862.2299	-0.1543
862.393	-0.5788
862.556	-0.183
862.7191	-0.4784
862.8821	0.0225
863.0451	-0.169
863.208	0.1379
863.371	0.0693
863.5339	0.107
863.6968	0.0016
863.8597	0.0274
864.0225	0.0203
864.1854	-0.0319
864.3482	-0.3999
864.511	-0.02
864.6737	0.0737
864.8365	-0.0335
864.9992	-0.0165
865.1619	-0.2099
865.3246	-0.0234
865.4873	-0.071
865.65	-0.2893
865.8126	-0.0961
865.9752	0.1571
866.1378	-0.1392
866.3004	-0.3975
866.4629	0.1438
866.6254	-0.0219
866.7879	0.0546
866.9504	-0.4359
867.1129	-0
867.2753	-0.1086
867.4377	0.2068
867.6001	-0.3129
867.7625	0.2907
867.9249	-0
868.0872	0.1225
868.2495	0.0814
868.4118	-0.2478
868.5741	-0.2539
868.7363	-0.282
868.8986	-0.6589
869.0608	-0.2467
869.223	0.0221
869.3851	-0
869.5473	0.2539
869.7094	0.0975
869.8715	-0.4038
870.0336	-0
870.1957	-0.8243
870.3577	-1.1545
870.5197	-0.2856
870.6817	-0.2406
870.8437	-0.2187
871.0057	1.5441
871.1676	-0.5348
871.3295	-0.1853
871.4914	-0
871.6533	-0.2705
871.8151	-0.5683
871.977	-0
872.1388	-0
872.3006	0.1963
872.4623	0.4864
872.6241	0.1547
872.7858	0.1488
872.9475	-0.3234
873.1092	0.0815
873.2709	-0
873.4325	-0.2723
873.5941	-0.455
873.7557	-0
873.9173	0.1807
874.0789	-0
874.2404	-0.5734
874.4019	0.0586
874.5634	-0.1893
874.7249	-0.351
874.8863	-0.2634
875.0478	-0.154
875.2092	-0
875.3706	-0.1318
875.5319	-1.0564
875.6933	-0.3058
875.8546	-0.3593
876.0159	-0
876.1772	-0
876.3385	-0
876.4997	0.2007
876.6609	-0.4264
876.8221	0.5342
876.9833	2.3324
877.1445	-0
877.3056	0.1097
877.4667	0.2886
877.6278	-0
877.7889	-0.1787
877.9499	-0
878.111	-0.887
878.272	-0
878.433	-0
878.5939	-0
878.7549	-0.3384
878.9158	-1.189
879.0767	-0
879.2376	-0.1165
879.3984	-0
879.5593	-0
879.7201	-0.1727
879.8809	-0.777
880.0417	-0.4301
880.2024	1.2829
880.3632	-0.8051
880.5239	0.3236
880.6846	0.0307
880.8452	-2.6911
881.0059	-0.9345
881.1665	0.4348
881.3271	0.1296
881.4877	-0.1924
881.6483	-0.4915
881.8088	-0.5121
881.9693	-0.0362
882.1298	-0.0362
882.2903	-0.0362
