Data from MonoPyChalIsomerACN10uM360nmA_Absorbance_13-57-24-904.txt Node
Date: Fri Jul 05 13:57:24 BST 2024
User: LASERRRRR
Spectrometer: FLMT03099
Trigger mode: 0
Integration Time (sec): 1.000000E-1
Scans to average: 1
Electric dark correction enabled: true
Nonlinearity correction enabled: false
Boxcar width: 0
XAxis mode: Wavelengths
Number of Pixels in Spectrum: 3648
>>>>>Begin Spectral Data<<<<<
179.3399	-0.278
179.5586	-0.278
179.7771	-0.278
179.9957	0.0433
180.2143	-0
180.4329	0.1704
180.6514	-0
180.8699	-0
181.0885	0.3608
181.307	0.1215
181.5255	-0
181.744	-0
181.9625	-0
182.181	-0
182.3994	0.6236
182.6179	0.7225
182.8363	0.1869
183.0547	0.0335
183.2732	-0.093
183.4916	0.1791
183.71	-0.1741
183.9284	0.2083
184.1467	-0.0737
184.3651	-0.004
184.5835	-0.1631
184.8018	0.2585
185.0201	0.0929
185.2385	-0.1111
185.4568	0.1937
185.6751	0.1858
185.8934	0.3364
186.1117	0.0783
186.3299	0.1623
186.5482	0.2715
186.7664	-0.0816
186.9847	-0.0215
187.2029	0.1421
187.4211	0.0438
187.6393	0.1154
187.8575	0.0192
188.0757	0.3253
188.2939	0.0796
188.512	0.0095
188.7302	0.247
188.9483	0.014
189.1665	0.0322
189.3846	-0
189.6027	0.0182
189.8208	0.1627
190.0389	0.0531
190.257	0.3519
190.475	0.1255
190.6931	0.3081
190.9111	0.6451
191.1292	0.0624
191.3472	0.4185
191.5652	0.5823
191.7832	0.233
192.0012	0.4606
192.2192	0.6535
192.4371	0.456
192.6551	0.3226
192.873	0.4657
193.091	0.529
193.3089	0.6951
193.5268	0.4692
193.7447	0.5733
193.9626	0.5828
194.1805	0.5994
194.3984	-0
194.6162	0.4747
194.8341	0.4282
195.0519	0.5826
195.2697	1.3012
195.4875	0.5625
195.7054	0.6352
195.9231	0.494
196.1409	1.0416
196.3587	0.551
196.5765	0.5986
196.7942	0.5712
197.012	0.5338
197.2297	0.6318
197.4474	0.6617
197.6651	0.6658
197.8828	0.5122
198.1005	0.5132
198.3182	0.5784
198.5358	0.6838
198.7535	0.6668
198.9711	0.4974
199.1888	0.6696
199.4064	1.0693
199.624	0.6079
199.8416	0.6668
200.0592	0.5608
200.2767	0.6714
200.4943	0.7834
200.7119	0.7706
200.9294	0.6638
201.1469	0.5857
201.3645	0.6127
201.582	0.5602
201.7995	0.6613
202.017	0.6317
202.2344	0.5323
202.4519	0.7909
202.6694	0.6117
202.8868	0.6398
203.1042	0.5575
203.3217	0.8204
203.5391	0.61
203.7565	0.6201
203.9739	0.7451
204.1913	0.6554
204.4086	0.5997
204.626	0.7416
204.8433	0.7102
205.0607	0.5932
205.278	0.57
205.4953	0.5816
205.7126	0.6968
205.9299	0.7027
206.1472	0.7268
206.3644	0.6765
206.5817	0.6763
206.7989	0.7434
207.0162	0.6498
207.2334	0.6432
207.4506	0.5831
207.6678	0.5895
207.885	0.6759
208.1022	0.707
208.3194	0.7592
208.5365	0.676
208.7537	0.7244
208.9708	0.5356
209.1879	0.5736
209.405	0.699
209.6222	0.6168
209.8392	0.6014
210.0563	0.5972
210.2734	0.6398
210.4905	0.5643
210.7075	0.6066
210.9245	0.6244
211.1416	0.664
211.3586	0.6269
211.5756	0.5596
211.7926	0.622
212.0096	0.6152
212.2265	0.5506
212.4435	0.5789
212.6604	0.5718
212.8774	0.5874
213.0943	0.5407
213.3112	0.552
213.5281	0.5181
213.745	0.5149
213.9619	0.541
214.1788	0.4739
214.3956	0.4641
214.6125	0.4823
214.8293	0.459
215.0461	0.4846
215.2629	0.4353
215.4798	0.4441
215.6965	0.3894
215.9133	0.4498
216.1301	0.4452
216.3469	0.4518
216.5636	0.4144
216.7803	0.393
216.9971	0.409
217.2138	0.3898
217.4305	0.359
217.6472	0.3294
217.8639	0.3744
218.0805	0.3467
218.2972	0.323
218.5138	0.3227
218.7305	0.3243
218.9471	0.3297
219.1637	0.2911
219.3803	0.303
219.5969	0.2953
219.8135	0.2618
220.0301	0.2812
220.2466	0.2776
220.4632	0.2787
220.6797	0.2347
220.8962	0.2583
221.1127	0.2635
221.3292	0.2665
221.5457	0.2473
221.7622	0.2299
221.9787	0.246
222.1951	0.2694
222.4116	0.2693
222.628	0.2713
222.8444	0.2537
223.0608	0.2579
223.2772	0.2691
223.4936	0.2749
223.71	0.252
223.9264	0.2756
224.1427	0.2882
224.3591	0.2451
224.5754	0.2612
224.7917	0.2735
225.008	0.2757
225.2243	0.2726
225.4406	0.2965
225.6569	0.2767
225.8732	0.2639
226.0894	0.2804
226.3057	0.2802
226.5219	0.2968
226.7381	0.2865
226.9543	0.2889
227.1705	0.2939
227.3867	0.3005
227.6029	0.3078
227.8191	0.3063
228.0352	0.3125
228.2513	0.3209
228.4675	0.3244
228.6836	0.3185
228.8997	0.2963
229.1158	0.322
229.3319	0.3286
229.548	0.3224
229.764	0.3284
229.9801	0.3485
230.1961	0.3283
230.4121	0.3338
230.6282	0.3379
230.8442	0.3138
231.0602	0.361
231.2761	0.3635
231.4921	0.3335
231.7081	0.354
231.924	0.3708
232.14	0.3697
232.3559	0.3452
232.5718	0.3679
232.7877	0.3672
233.0036	0.3558
233.2195	0.3666
233.4353	0.3563
233.6512	0.3826
233.867	0.3805
234.0829	0.3763
234.2987	0.3717
234.5145	0.3773
234.7303	0.3806
234.9461	0.3811
235.1619	0.371
235.3776	0.3861
235.5934	0.3901
235.8091	0.3781
236.0249	0.3858
236.2406	0.3871
236.4563	0.3759
236.672	0.4223
236.8877	0.3979
237.1034	0.3897
237.319	0.4011
237.5347	0.3988
237.7503	0.4159
237.966	0.4183
238.1816	0.4223
238.3972	0.4136
238.6128	0.395
238.8284	0.4245
239.0439	0.4059
239.2595	0.4114
239.475	0.4246
239.6906	0.4117
239.9061	0.3997
240.1216	0.4088
240.3371	0.4119
240.5526	0.4
240.7681	0.4055
240.9836	0.3961
241.199	0.4018
241.4145	0.3797
241.6299	0.3694
241.8453	0.385
242.0607	0.3821
242.2761	0.3579
242.4915	0.3676
242.7069	0.37
242.9223	0.3544
243.1376	0.3427
243.353	0.3484
243.5683	0.358
243.7836	0.3319
243.9989	0.3396
244.2142	0.3089
244.4295	0.3323
244.6448	0.3027
244.86	0.2936
245.0753	0.2927
245.2905	0.2897
245.5057	0.2781
245.721	0.2693
245.9362	0.2527
246.1514	0.2633
246.3665	0.2466
246.5817	0.237
246.7969	0.2483
247.012	0.2362
247.2271	0.2365
247.4423	0.2452
247.6574	0.2348
247.8725	0.2257
248.0876	0.2277
248.3026	0.2113
248.5177	0.2159
248.7328	0.2143
248.9478	0.209
249.1628	0.2022
249.3779	0.2043
249.5929	0.2029
249.8079	0.2045
250.0228	0.2101
250.2378	0.2045
250.4528	0.2133
250.6677	0.1933
250.8827	0.1953
251.0976	0.1995
251.3125	0.1977
251.5274	0.1655
251.7423	0.1918
251.9572	0.1871
252.172	0.1727
252.3869	0.1791
252.6017	0.1982
252.8166	0.1706
253.0314	0.1623
253.2462	0.1723
253.461	0.1801
253.6758	0.1667
253.8906	0.1736
254.1053	0.1807
254.3201	0.1652
254.5348	0.1802
254.7496	0.1918
254.9643	0.1633
255.179	0.1744
255.3937	0.1572
255.6083	0.177
255.823	0.1709
256.0377	0.1747
256.2523	0.1822
256.467	0.17
256.6816	0.1752
256.8962	0.1674
257.1108	0.1612
257.3254	0.1679
257.54	0.1646
257.7545	0.1645
257.9691	0.1657
258.1836	0.1768
258.3981	0.1697
258.6127	0.1708
258.8272	0.1473
259.0417	0.1682
259.2561	0.1714
259.4706	0.1738
259.6851	0.1664
259.8995	0.1679
260.114	0.1735
260.3284	0.1671
260.5428	0.1548
260.7572	0.1654
260.9716	0.169
261.186	0.1701
261.4003	0.1644
261.6147	0.1656
261.829	0.1593
262.0433	0.1581
262.2577	0.1598
262.472	0.1586
262.6863	0.1542
262.9005	0.1693
263.1148	0.1661
263.3291	0.1495
263.5433	0.1722
263.7576	0.1616
263.9718	0.158
264.186	0.1612
264.4002	0.1532
264.6144	0.163
264.8286	0.1723
265.0427	0.1588
265.2569	0.1578
265.471	0.1498
265.6851	0.1547
265.8993	0.157
266.1134	0.1477
266.3275	0.161
266.5415	0.1614
266.7556	0.1662
266.9697	0.165
267.1837	0.1737
267.3978	0.1599
267.6118	0.1723
267.8258	0.161
268.0398	0.1505
268.2538	0.155
268.4677	0.1639
268.6817	0.1462
268.8957	0.1632
269.1096	0.1594
269.3235	0.1462
269.5374	0.1482
269.7514	0.147
269.9652	0.152
270.1791	0.1422
270.393	0.1359
270.6068	0.1467
270.8207	0.1497
271.0345	0.1473
271.2483	0.1437
271.4622	0.1436
271.676	0.1492
271.8897	0.1332
272.1035	0.14
272.3173	0.1387
272.531	0.147
272.7448	0.1466
272.9585	0.1416
273.1722	0.1399
273.3859	0.142
273.5996	0.1415
273.8133	0.1387
274.0269	0.1367
274.2406	0.1405
274.4542	0.1425
274.6679	0.1305
274.8815	0.1529
275.0951	0.1457
275.3087	0.1453
275.5223	0.1535
275.7358	0.1473
275.9494	0.1501
276.1629	0.1375
276.3765	0.1407
276.59	0.1283
276.8035	0.1482
277.017	0.145
277.2305	0.142
277.444	0.1385
277.6574	0.1272
277.8709	0.1395
278.0843	0.1332
278.2978	0.1498
278.5112	0.1372
278.7246	0.1389
278.938	0.136
279.1513	0.1444
279.3647	0.1595
279.5781	0.1535
279.7914	0.148
280.0047	0.1616
280.2181	0.1533
280.4314	0.1423
280.6447	0.1538
280.8579	0.143
281.0712	0.1518
281.2845	0.1531
281.4977	0.1529
281.711	0.1304
281.9242	0.1494
282.1374	0.1519
282.3506	0.1508
282.5638	0.1553
282.7769	0.1519
282.9901	0.1384
283.2033	0.1644
283.4164	0.1683
283.6295	0.144
283.8426	0.1343
284.0557	0.1487
284.2688	0.1693
284.4819	0.1578
284.695	0.1555
284.908	0.1697
285.1211	0.1509
285.3341	0.159
285.5471	0.1675
285.7601	0.1591
285.9731	0.1595
286.1861	0.1439
286.3991	0.1654
286.612	0.1693
286.825	0.162
287.0379	0.1672
287.2508	0.1638
287.4637	0.1608
287.6766	0.1619
287.8895	0.1613
288.1024	0.1836
288.3152	0.1769
288.5281	0.1553
288.7409	0.1739
288.9538	0.1704
289.1666	0.1755
289.3794	0.1602
289.5922	0.1705
289.8049	0.169
290.0177	0.1643
290.2304	0.1668
290.4432	0.1697
290.6559	0.1654
290.8686	0.1785
291.0813	0.17
291.294	0.1661
291.5067	0.1776
291.7194	0.167
291.932	0.194
292.1447	0.1793
292.3573	0.1589
292.5699	0.1759
292.7825	0.1749
292.9951	0.1654
293.2077	0.1685
293.4203	0.1685
293.6328	0.1723
293.8454	0.175
294.0579	0.1635
294.2704	0.1758
294.4829	0.1587
294.6954	0.1814
294.9079	0.1647
295.1204	0.178
295.3328	0.1679
295.5453	0.1674
295.7577	0.1746
295.9701	0.1526
296.1825	0.1779
296.3949	0.1647
296.6073	0.1668
296.8197	0.1686
297.0321	0.1743
297.2444	0.1692
297.4567	0.1683
297.6691	0.1765
297.8814	0.1586
298.0937	0.1708
298.306	0.173
298.5182	0.1605
298.7305	0.1802
298.9428	0.1693
299.155	0.1792
299.3672	0.168
299.5794	0.1709
299.7916	0.1706
300.0038	0.1718
300.216	0.1615
300.4282	0.1726
300.6403	0.1727
300.8525	0.1815
301.0646	0.1702
301.2767	0.178
301.4888	0.177
301.7009	0.1632
301.913	0.1702
302.125	0.1691
302.3371	0.1606
302.5491	0.1696
302.7612	0.1778
302.9732	0.1806
303.1852	0.1593
303.3972	0.1658
303.6092	0.1684
303.8211	0.1612
304.0331	0.1732
304.245	0.1588
304.457	0.1528
304.6689	0.1655
304.8808	0.1713
305.0927	0.1524
305.3046	0.155
305.5164	0.1586
305.7283	0.1526
305.9401	0.1488
306.152	0.1524
306.3638	0.1559
306.5756	0.1461
306.7874	0.1466
306.9992	0.1522
307.2109	0.152
307.4227	0.1423
307.6344	0.1422
307.8462	0.1394
308.0579	0.1371
308.2696	0.1377
308.4813	0.1314
308.693	0.1385
308.9046	0.1398
309.1163	0.132
309.328	0.135
309.5396	0.1244
309.7512	0.1223
309.9628	0.1226
310.1744	0.1263
310.386	0.113
310.5976	0.1175
310.8091	0.1191
311.0207	0.1227
311.2322	0.1198
311.4437	0.1198
311.6552	0.1102
311.8667	0.1073
312.0782	0.1001
312.2897	0.1011
312.5012	0.1197
312.7126	0.1036
312.924	0.1009
313.1355	0.1064
313.3469	0.0969
313.5583	0.1082
313.7696	0.109
313.981	0.1156
314.1924	0.1035
314.4037	0.1006
314.6151	0.1102
314.8264	0.0997
315.0377	0.1101
315.249	0.1023
315.4603	0.1007
315.6716	0.1047
315.8828	0.0858
316.0941	0.1021
316.3053	0.1016
316.5165	0.0947
316.7277	0.0889
316.9389	0.1098
317.1501	0.0948
317.3613	0.1041
317.5724	0.0859
317.7836	0.1014
317.9947	0.0797
318.2058	0.1014
318.417	0.0944
318.6281	0.0935
318.8391	0.0951
319.0502	0.0838
319.2613	0.0909
319.4723	0.0991
319.6834	0.1038
319.8944	0.0927
320.1054	0.0954
320.3164	0.0986
320.5274	0.0825
320.7383	0.0946
320.9493	0.1008
321.1602	0.1186
321.3712	0.0858
321.5821	0.1093
321.793	0.0913
322.0039	0.0998
322.2148	0.0991
322.4257	0.0958
322.6365	0.108
322.8474	0.0934
323.0582	0.0964
323.269	0.1017
323.4798	0.1068
323.6906	0.1013
323.9014	0.1061
324.1122	0.1084
324.3229	0.0944
324.5337	0.0944
324.7444	0.0896
324.9551	0.1037
325.1658	0.102
325.3765	0.1041
325.5872	0.1079
325.7979	0.0991
326.0085	0.0966
326.2192	0.1022
326.4298	0.1001
326.6404	0.089
326.851	0.0933
327.0616	0.0933
327.2722	0.0997
327.4828	0.1085
327.6933	0.0924
327.9039	0.1023
328.1144	0.1031
328.3249	0.1026
328.5354	0.094
328.7459	0.1013
328.9564	0.0983
329.1669	0.0998
329.3773	0.1043
329.5878	0.0966
329.7982	0.1137
330.0086	0.1045
330.219	0.1111
330.4294	0.1088
330.6398	0.1133
330.8502	0.0945
331.0605	0.0995
331.2708	0.1084
331.4812	0.0976
331.6915	0.1082
331.9018	0.0984
332.1121	0.1002
332.3224	0.1075
332.5326	0.1126
332.7429	0.1041
332.9531	0.1241
333.1633	0.1009
333.3735	0.1103
333.5837	0.1098
333.7939	0.1035
334.0041	0.1145
334.2143	0.1077
334.4244	0.1062
334.6346	0.0951
334.8447	0.1218
335.0548	0.0948
335.2649	0.1066
335.475	0.1117
335.685	0.0929
335.8951	0.1154
336.1051	0.1127
336.3152	0.117
336.5252	0.0999
336.7352	0.1081
336.9452	0.1065
337.1552	0.1095
337.3652	0.1085
337.5751	0.1068
337.7851	0.1124
337.995	0.0973
338.2049	0.1083
338.4148	0.1104
338.6247	0.1197
338.8346	0.107
339.0445	0.1082
339.2543	0.097
339.4642	0.1094
339.674	0.1001
339.8838	0.1141
340.0936	0.115
340.3034	0.1094
340.5132	0.1159
340.7229	0.1074
340.9327	0.111
341.1424	0.1088
341.3522	0.1252
341.5619	0.1316
341.7716	0.1124
341.9813	0.1189
342.1909	0.1073
342.4006	0.1214
342.6102	0.1222
342.8199	0.1327
343.0295	0.1164
343.2391	0.1167
343.4487	0.1326
343.6583	0.1261
343.8679	0.1159
344.0774	0.1156
344.287	0.1194
344.4965	0.122
344.706	0.1276
344.9155	0.1339
345.125	0.1231
345.3345	0.1238
345.544	0.1272
345.7534	0.1295
345.9629	0.1318
346.1723	0.1162
346.3817	0.1207
346.5911	0.1259
346.8005	0.1336
347.0099	0.1177
347.2193	0.1364
347.4286	0.1359
347.638	0.1351
347.8473	0.144
348.0566	0.1376
348.2659	0.1426
348.4752	0.1307
348.6845	0.1324
348.8937	0.138
349.103	0.1577
349.3122	0.1243
349.5214	0.1366
349.7306	0.1362
349.9398	0.1373
350.149	0.1408
350.3582	0.1334
350.5674	0.1497
350.7765	0.1474
350.9856	0.1435
351.1948	0.1445
351.4039	0.1287
351.613	0.1344
351.822	0.141
352.0311	0.1461
352.2402	0.1408
352.4492	0.1511
352.6582	0.1587
352.8672	0.1419
353.0762	0.1583
353.2852	0.1255
353.4942	0.1506
353.7032	0.1613
353.9121	0.1444
354.1211	0.1536
354.33	0.1568
354.5389	0.156
354.7478	0.1448
354.9567	0.1513
355.1655	0.1377
355.3744	0.1596
355.5833	0.1609
355.7921	0.1667
356.0009	0.1511
356.2097	0.1777
356.4185	0.1561
356.6273	0.1602
356.8361	0.1705
357.0448	0.1636
357.2536	0.1624
357.4623	0.1554
357.671	0.1667
357.8797	0.171
358.0884	0.1656
358.2971	0.1641
358.5057	0.1665
358.7144	0.1724
358.923	0.167
359.1316	0.1697
359.3402	0.1726
359.5488	0.1603
359.7574	0.1743
359.966	0.1858
360.1746	0.1806
360.3831	0.1742
360.5916	0.1545
360.8002	0.1682
361.0087	0.1782
361.2172	0.1621
361.4256	0.1809
361.6341	0.182
361.8426	0.1721
362.051	0.1833
362.2594	0.1646
362.4678	0.1694
362.6762	0.2021
362.8846	0.1935
363.093	0.1909
363.3014	0.1801
363.5097	0.1778
363.718	0.2022
363.9264	0.2003
364.1347	0.1929
364.343	0.1966
364.5513	0.2058
364.7595	0.2059
364.9678	0.2099
365.176	0.1973
365.3842	0.1898
365.5925	0.2034
365.8007	0.2058
366.0089	0.2006
366.217	0.1992
366.4252	0.207
366.6333	0.2177
366.8415	0.2111
367.0496	0.205
367.2577	0.2265
367.4658	0.211
367.6739	0.2166
367.882	0.2107
368.09	0.2077
368.2981	0.2327
368.5061	0.2009
368.7141	0.2167
368.9221	0.2106
369.1301	0.2284
369.3381	0.2169
369.5461	0.2248
369.754	0.2157
369.962	0.207
370.1699	0.216
370.3778	0.229
370.5857	0.2142
370.7936	0.2297
371.0015	0.2179
371.2093	0.2312
371.4172	0.2475
371.625	0.2229
371.8328	0.2277
372.0406	0.2285
372.2484	0.2229
372.4562	0.2204
372.664	0.2293
372.8717	0.2382
373.0795	0.2101
373.2872	0.236
373.4949	0.2293
373.7026	0.2339
373.9103	0.226
374.118	0.2458
374.3256	0.2195
374.5333	0.2173
374.7409	0.2323
374.9485	0.2435
375.1561	0.2405
375.3637	0.2507
375.5713	0.235
375.7789	0.2362
375.9864	0.2309
376.194	0.2312
376.4015	0.2634
376.609	0.2482
376.8165	0.2334
377.024	0.2491
377.2315	0.2268
377.4389	0.2485
377.6464	0.2537
377.8538	0.2631
378.0612	0.2432
378.2686	0.2546
378.476	0.2741
378.6834	0.2601
378.8908	0.2596
379.0981	0.2645
379.3055	0.2523
379.5128	0.2448
379.7201	0.2608
379.9274	0.2486
380.1347	0.2538
380.342	0.273
380.5492	0.2559
380.7565	0.2615
380.9637	0.2619
381.1709	0.2625
381.3781	0.2626
381.5853	0.2637
381.7925	0.2667
381.9997	0.2852
382.2068	0.2883
382.4139	0.2652
382.6211	0.2711
382.8282	0.2723
383.0353	0.2621
383.2424	0.2561
383.4494	0.275
383.6565	0.2699
383.8635	0.2565
384.0706	0.2651
384.2776	0.2563
384.4846	0.2596
384.6916	0.2788
384.8986	0.2768
385.1055	0.2851
385.3125	0.2596
385.5194	0.2459
385.7263	0.2811
385.9333	0.2756
386.1402	0.257
386.347	0.2655
386.5539	0.2684
386.7608	0.2691
386.9676	0.247
387.1744	0.2669
387.3813	0.2612
387.5881	0.2736
387.7948	0.2625
388.0016	0.2725
388.2084	0.267
388.4151	0.2573
388.6219	0.2657
388.8286	0.2827
389.0353	0.2665
389.242	0.2612
389.4487	0.2635
389.6553	0.2597
389.862	0.2401
390.0686	0.2431
390.2753	0.269
390.4819	0.2536
390.6885	0.2454
390.8951	0.2561
391.1016	0.2563
391.3082	0.2496
391.5147	0.2584
391.7213	0.2569
391.9278	0.2271
392.1343	0.2582
392.3408	0.2419
392.5473	0.2454
392.7537	0.2353
392.9602	0.2404
393.1666	0.2524
393.373	0.2455
393.5794	0.2543
393.7858	0.2383
393.9922	0.2443
394.1986	0.2374
394.4049	0.2307
394.6113	0.2452
394.8176	0.2222
395.0239	0.2272
395.2302	0.2368
395.4365	0.2284
395.6428	0.2239
395.8491	0.2325
396.0553	0.2188
396.2615	0.238
396.4678	0.2269
396.674	0.217
396.8802	0.2386
397.0863	0.2509
397.2925	0.2286
397.4987	0.2108
397.7048	0.2193
397.9109	0.2269
398.117	0.2205
398.3231	0.2296
398.5292	0.2382
398.7353	0.2354
398.9413	0.2161
399.1474	0.2091
399.3534	0.2179
399.5594	0.2135
399.7654	0.2374
399.9714	0.2361
400.1774	0.2188
400.3833	0.2332
400.5893	0.2245
400.7952	0.2301
401.0011	0.2154
401.207	0.229
401.4129	0.2298
401.6188	0.2284
401.8247	0.2279
402.0305	0.2168
402.2364	0.2281
402.4422	0.2449
402.648	0.2416
402.8538	0.237
403.0596	0.2194
403.2654	0.2409
403.4711	0.2062
403.6768	0.2188
403.8826	0.2234
404.0883	0.2376
404.294	0.2309
404.4997	0.2204
404.7054	0.2254
404.911	0.2117
405.1167	0.2278
405.3223	0.254
405.5279	0.2254
405.7335	0.2408
405.9391	0.2258
406.1447	0.231
406.3502	0.2515
406.5558	0.2289
406.7613	0.2439
406.9668	0.2181
407.1724	0.2174
407.3778	0.2158
407.5833	0.2208
407.7888	0.2118
407.9942	0.2483
408.1997	0.2322
408.4051	0.22
408.6105	0.2302
408.8159	0.2087
409.0213	0.2208
409.2267	0.2404
409.432	0.227
409.6374	0.2379
409.8427	0.2036
410.048	0.2388
410.2533	0.2259
410.4586	0.2168
410.6639	0.2003
410.8691	0.2219
411.0744	0.2307
411.2796	0.2174
411.4848	0.2187
411.69	0.2128
411.8952	0.2364
412.1004	0.2145
412.3056	0.2249
412.5107	0.2127
412.7158	0.2361
412.921	0.2154
413.1261	0.2268
413.3312	0.2271
413.5362	0.2076
413.7413	0.2232
413.9464	0.2373
414.1514	0.2181
414.3564	0.1986
414.5614	0.2086
414.7664	0.2167
414.9714	0.2141
415.1764	0.2222
415.3813	0.2158
415.5863	0.2104
415.7912	0.2288
415.9961	0.2202
416.201	0.2152
416.4059	0.212
416.6108	0.1979
416.8156	0.2251
417.0205	0.2016
417.2253	0.2174
417.4301	0.2199
417.6349	0.2041
417.8397	0.2141
418.0445	0.2267
418.2492	0.2159
418.454	0.2004
418.6587	0.2031
418.8634	0.2137
419.0681	0.1939
419.2728	0.1893
419.4775	0.2013
419.6822	0.2084
419.8868	0.1974
420.0915	0.2066
420.2961	0.21
420.5007	0.2025
420.7053	0.21
420.9099	0.2083
421.1144	0.2066
421.319	0.1959
421.5235	0.2132
421.728	0.2185
421.9325	0.218
422.137	0.2039
422.3415	0.1951
422.546	0.2088
422.7504	0.1916
422.9549	0.212
423.1593	0.1942
423.3637	0.2063
423.5681	0.1871
423.7725	0.1898
423.9769	0.1859
424.1812	0.184
424.3856	0.1926
424.5899	0.192
424.7942	0.1888
424.9985	0.1878
425.2028	0.1842
425.4071	0.2138
425.6113	0.157
425.8156	0.2005
426.0198	0.1779
426.224	0.1553
426.4282	0.1849
426.6324	0.1635
426.8366	0.1715
427.0407	0.1789
427.2449	0.1712
427.449	0.1743
427.6531	0.1587
427.8572	0.1699
428.0613	0.179
428.2654	0.1664
428.4694	0.1605
428.6735	0.1719
428.8775	0.1796
429.0815	0.1818
429.2855	0.1654
429.4895	0.1739
429.6935	0.1551
429.8975	0.1718
430.1014	0.1621
430.3053	0.1453
430.5093	0.1659
430.7132	0.1504
430.9171	0.1549
431.1209	0.1543
431.3248	0.1487
431.5286	0.1517
431.7325	0.1436
431.9363	0.1465
432.1401	0.1528
432.3439	0.1354
432.5477	0.1163
432.7514	0.1511
432.9552	0.1407
433.1589	0.1261
433.3627	0.13
433.5664	0.1214
433.7701	0.1256
433.9737	0.1247
434.1774	0.1263
434.3811	0.1333
434.5847	0.1317
434.7883	0.114
434.9919	0.1275
435.1955	0.127
435.3991	0.1094
435.6027	0.1181
435.8062	0.1323
436.0098	0.1202
436.2133	0.1055
436.4168	0.1155
436.6203	0.1158
436.8238	0.1216
437.0272	0.0994
437.2307	0.1209
437.4341	0.1085
437.6375	0.1024
437.841	0.088
438.0443	0.1105
438.2477	0.108
438.4511	0.0949
438.6545	0.1045
438.8578	0.106
439.0611	0.0999
439.2644	0.0913
439.4677	0.0941
439.671	0.0856
439.8743	0.0928
440.0775	0.0898
440.2808	0.0882
440.484	0.0759
440.6872	0.077
440.8904	0.0736
441.0936	0.0919
441.2967	0.073
441.4999	0.0824
441.703	0.0794
441.9062	0.0806
442.1093	0.073
442.3124	0.0691
442.5155	0.066
442.7185	0.0617
442.9216	0.0568
443.1246	0.0697
443.3276	0.0604
443.5307	0.0565
443.7337	0.0594
443.9366	0.0754
444.1396	0.0579
444.3426	0.0664
444.5455	0.057
444.7484	0.0645
444.9513	0.0522
445.1542	0.0612
445.3571	0.0588
445.56	0.0644
445.7628	0.0322
445.9657	0.0393
446.1685	0.0608
446.3713	0.0534
446.5741	0.0453
446.7769	0.0366
446.9797	0.0536
447.1824	0.0497
447.3852	0.0444
447.5879	0.0529
447.7906	0.0409
447.9933	0.031
448.196	0.0348
448.3986	0.0335
448.6013	0.0287
448.8039	0.0119
449.0066	0.0401
449.2092	0.0393
449.4118	0.0355
449.6143	0.0274
449.8169	0.0372
450.0195	0.0232
450.222	0.0106
450.4245	0.0326
450.627	0.041
450.8295	0.0325
451.032	0.0213
451.2345	0.0305
451.4369	0.0267
451.6394	0.0351
451.8418	0.0122
452.0442	0.0162
452.2466	0.0454
452.449	0.0145
452.6513	0.0113
452.8537	0.0323
453.056	0.0085
453.2583	0.0263
453.4607	0.0124
453.663	0.018
453.8652	0.0245
454.0675	0.0037
454.2697	0.0246
454.472	0.0013
454.6742	0.0243
454.8764	0.0117
455.0786	0.0136
455.2808	0.0162
455.4829	0.0247
455.6851	0.0246
455.8872	0.0287
456.0893	0.0177
456.2915	0.0078
456.4935	0.0175
456.6956	0.0099
456.8977	0.0239
457.0997	0.0086
457.3018	-0.0138
457.5038	0.0325
457.7058	0.0089
457.9078	0.0175
458.1098	0.0182
458.3117	0.028
458.5137	0.0149
458.7156	0.0097
458.9175	-0.0051
459.1194	0.0194
459.3213	0.0165
459.5232	0.0018
459.725	-0.0036
459.9269	0.012
460.1287	0.0072
460.3305	0.0016
460.5323	0.0149
460.7341	-0.0011
460.9359	-0.0003
461.1376	0.0042
461.3394	0.0055
461.5411	0.014
461.7428	0.0073
461.9445	0.018
462.1462	0.0109
462.3479	0.009
462.5495	0.0058
462.7512	0.0113
462.9528	-0.0022
463.1544	-0.0058
463.356	0.0078
463.5576	0.0137
463.7592	0.0095
463.9607	0.0068
464.1623	0.0143
464.3638	0.0128
464.5653	0.0093
464.7668	-0.0036
464.9683	0.0007
465.1697	0.0206
465.3712	-0.004
465.5726	-0.0033
465.7741	-0.0049
465.9755	0.0044
466.1769	0.0041
466.3782	-0.0009
466.5796	0.0071
466.7809	0.0105
466.9823	-0.0032
467.1836	0.0005
467.3849	0.0015
467.5862	0.0286
467.7875	0.0005
467.9887	0.0198
468.19	-0.0016
468.3912	-0.0038
468.5924	-0.0045
468.7936	0.0075
468.9948	-0.0101
469.196	0.0015
469.3972	-0.0124
469.5983	0.0029
469.7994	-0.0161
470.0006	0.0111
470.2017	-0.0055
470.4027	-0.002
470.6038	0.0041
470.8049	-0.0187
471.0059	-0.0068
471.2069	-0.0133
471.408	0.0023
471.6089	0.015
471.8099	0.0117
472.0109	0.0092
472.2119	-0.0016
472.4128	-0.0123
472.6137	-0.0019
472.8146	-0.0091
473.0155	-0.0027
473.2164	-0.0016
473.4173	0.0017
473.6181	0.0123
473.819	0.0078
474.0198	-0.0126
474.2206	0.0036
474.4214	0.0042
474.6222	-0.0112
474.8229	0.0076
475.0237	-0.0169
475.2244	-0.0114
475.4251	0.0002
475.6258	-0.0005
475.8265	-0.0002
476.0272	0.007
476.2278	-0.0019
476.4285	0.0031
476.6291	-0.0039
476.8297	-0.0157
477.0303	-0.0078
477.2309	0.006
477.4315	-0.0134
477.632	0.0044
477.8326	-0.0045
478.0331	-0.0028
478.2336	0.0119
478.4341	-0.0111
478.6346	-0.0048
478.8351	-0.003
479.0355	0.0102
479.236	-0.0099
479.4364	-0.0046
479.6368	-0.0049
479.8372	-0.0001
480.0376	-0.0032
480.2379	-0.012
480.4383	-0.0082
480.6386	-0.0035
480.8389	0.0076
481.0392	0.0009
481.2395	-0.0066
481.4398	0.0068
481.6401	-0.0054
481.8403	-0.0028
482.0405	-0.0021
482.2408	-0.001
482.441	0.0139
482.6411	-0.0016
482.8413	-0.0034
483.0415	-0.0067
483.2416	-0.0176
483.4417	0.0006
483.6419	-0.0118
483.8419	-0.0086
484.042	0.0105
484.2421	0.0056
484.4422	0.0044
484.6422	-0.0064
484.8422	-0.0034
485.0422	-0.0007
485.2422	-0.0021
485.4422	-0.0019
485.6422	-0.0014
485.8421	0.0014
486.042	0.0061
486.242	0.0019
486.4419	-0.008
486.6417	-0.0097
486.8416	-0.0041
487.0415	-0.0058
487.2413	-0.0003
487.4411	-0.0062
487.641	-0.0141
487.8408	0.0087
488.0405	0.0027
488.2403	-0.0043
488.4401	0.0086
488.6398	0.0005
488.8395	-0.0015
489.0392	-0.0007
489.2389	-0.0045
489.4386	-0.0006
489.6383	-0.0073
489.8379	0.0027
490.0376	-0.0055
490.2372	-0.0043
490.4368	-0.0111
490.6364	-0.0019
490.836	-0.0105
491.0355	-0.0048
491.2351	-0.0088
491.4346	-0.0043
491.6341	-0.0136
491.8336	0.0143
492.0331	-0.018
492.2326	-0.0147
492.432	0.0014
492.6315	-0.0028
492.8309	-0.0114
493.0303	-0.0074
493.2297	-0.0029
493.4291	0.0044
493.6284	-0.0091
493.8278	-0.0047
494.0271	0.0014
494.2264	0.0057
494.4257	-0.0066
494.625	-0.0018
494.8243	-0.0227
495.0236	0.0009
495.2228	-0.0099
495.422	-0.0087
495.6213	-0.0006
495.8205	-0.0018
496.0196	-0.0004
496.2188	0.0038
496.418	-0.0037
496.6171	-0.0088
496.8162	-0.0121
497.0153	-0.0036
497.2144	-0.0164
497.4135	-0.0002
497.6126	-0.0188
497.8116	-0.007
498.0107	-0.0003
498.2097	-0.0075
498.4087	-0.0121
498.6077	-0.0045
498.8067	-0.0101
499.0056	0.0084
499.2046	-0.005
499.4035	-0.0154
499.6024	-0.0053
499.8013	-0.0008
500.0002	-0.016
500.199	0.0028
500.3979	-0.0104
500.5967	-0.017
500.7956	-0.003
500.9944	-0.0015
501.1932	-0.0162
501.3919	-0.0079
501.5907	-0.0108
501.7895	-0.0095
501.9882	-0.0125
502.1869	-0.0069
502.3856	-0.0057
502.5843	-0.0151
502.783	-0.0074
502.9816	-0.005
503.1803	-0.0156
503.3789	-0.0078
503.5775	0.006
503.7761	-0.0118
503.9747	-0.0012
504.1732	-0.0075
504.3718	0.0018
504.5703	-0.0097
504.7689	-0.0091
504.9674	-0.0035
505.1658	-0.0061
505.3643	-0.0015
505.5628	-0.0016
505.7612	-0.0127
505.9597	0.0073
506.1581	-0.0109
506.3565	0.0042
506.5549	-0.0079
506.7532	-0.0186
506.9516	-0.0002
507.1499	0.0008
507.3482	-0.0129
507.5465	-0.0094
507.7448	-0.0029
507.9431	-0.0023
508.1414	0.0022
508.3396	-0.0053
508.5379	-0.0114
508.7361	-0.0034
508.9343	0.0026
509.1325	0.0011
509.3306	-0.0109
509.5288	-0.0086
509.7269	-0.0041
509.9251	-0.0035
510.1232	0.0006
510.3213	-0.0018
510.5193	0.0047
510.7174	-0.0148
510.9154	-0.0089
511.1135	-0.0081
511.3115	-0.0095
511.5095	-0.0049
511.7075	-0.0098
511.9055	-0.0004
512.1034	-0.0092
512.3014	-0.002
512.4993	-0.0002
512.6972	-0.0089
512.8951	-0.0082
513.093	-0.0058
513.2908	-0.0006
513.4887	-0.0027
513.6865	-0.0054
513.8844	-0.0051
514.0822	-0.0134
514.2799	-0.0084
514.4777	-0.0066
514.6755	-0.0077
514.8732	-0.0014
515.0709	-0.0071
515.2687	-0.0155
515.4664	-0.0036
515.664	-0.0053
515.8617	-0.0076
516.0594	-0.0151
516.257	-0.0051
516.4546	-0.0046
516.6522	0
516.8498	0.0021
517.0474	0.0018
517.2449	-0.0013
517.4425	-0.0196
517.64	-0.0097
517.8375	0.0042
518.035	-0.0081
518.2325	-0.0148
518.43	-0.0045
518.6274	-0.0042
518.8249	-0.0132
519.0223	-0.0083
519.2197	-0.002
519.4171	-0.0039
519.6145	-0.0036
519.8118	0.0046
520.0092	-0.0066
520.2065	-0.0113
520.4038	-0.0098
520.6011	0.0019
520.7984	-0.0077
520.9956	-0.0036
521.1929	-0.0074
521.3901	-0.002
521.5874	-0.0047
521.7846	-0.0089
521.9818	-0.0086
522.1789	-0.0007
522.3761	-0.0025
522.5732	-0.0086
522.7704	-0.0041
522.9675	0.0048
523.1646	-0.0106
523.3617	0.0048
523.5587	-0.0011
523.7558	0.0022
523.9528	-0.0039
524.1498	0.0009
524.3468	-0.0063
524.5438	-0.0102
524.7408	-0.0013
524.9378	-0.0002
525.1347	0.0033
525.3316	0.0042
525.5285	-0.0113
525.7254	-0.0067
525.9223	0.0023
526.1192	-0.0027
526.316	-0.0163
526.5129	0.0001
526.7097	-0.0064
526.9065	-0.002
527.1033	-0.0016
527.3	-0.0022
527.4968	-0.0057
527.6935	-0.0032
527.8903	-0.0034
528.087	-0.0067
528.2837	-0.0018
528.4804	-0.0017
528.677	-0.0054
528.8737	0.0036
529.0703	0.0008
529.2669	0.0002
529.4635	-0.0092
529.6601	0.0025
529.8567	-0.006
530.0532	-0.0094
530.2498	0.0033
530.4463	-0.0007
530.6428	-0.0087
530.8393	0.0074
531.0358	0.0024
531.2322	0.0015
531.4287	-0.0026
531.6251	0.0003
531.8215	0.0111
532.0179	0.0034
532.2143	-0.0027
532.4107	-0.0119
532.607	-0.0008
532.8034	0.0099
532.9997	-0.006
533.196	-0.0018
533.3923	-0.0153
533.5886	0.0039
533.7848	0.0084
533.9811	-0.0002
534.1773	0.0005
534.3735	-0.001
534.5697	-0.0045
534.7659	-0.0043
534.9621	-0.001
535.1582	-0.0052
535.3544	-0.0129
535.5505	-0.0136
535.7466	-0.0012
535.9427	-0.0068
536.1387	-0.0066
536.3348	0.0014
536.5308	0.0085
536.7269	-0.0057
536.9229	0.0092
537.1189	-0.0011
537.3148	-0.0025
537.5108	-0.0135
537.7068	-0.0013
537.9027	0.0078
538.0986	-0.0025
538.2945	-0.005
538.4904	-0.0056
538.6863	-0.0033
538.8821	-0.0098
539.078	-0.0065
539.2738	0.0005
539.4696	-0.0035
539.6654	0.0017
539.8611	0.0111
540.0569	-0.0054
540.2526	-0.0007
540.4484	0.0005
540.6441	0.0106
540.8398	-0.0049
541.0355	-0.0011
541.2311	-0.0059
541.4268	-0.0012
541.6224	0.0015
541.818	0.0074
542.0136	-0.009
542.2092	-0.0059
542.4048	0.0051
542.6003	0.0089
542.7959	-0.0025
542.9914	-0.0089
543.1869	-0.0046
543.3824	-0.0023
543.5779	0.0026
543.7734	-0.0107
543.9688	0.0025
544.1642	-0.0029
544.3596	0.003
544.555	0.007
544.7504	0.0036
544.9458	-0.0015
545.1411	-0.0043
545.3365	-0.0009
545.5318	-0.0113
545.7271	0.0009
545.9224	-0.0055
546.1177	0.0003
546.3129	0.0086
546.5081	-0.0006
546.7034	-0.0011
546.8986	-0.0003
547.0938	-0.0001
547.289	-0.0039
547.4841	0.0055
547.6793	0.0058
547.8744	-0.0103
548.0695	0.0036
548.2646	-0.0069
548.4597	-0.0071
548.6548	0.0057
548.8498	0.0016
549.0448	0.0018
549.2399	-0.0032
549.4349	0.0122
549.6298	0.0002
549.8248	0.0048
550.0198	-0.008
550.2147	-0.0084
550.4096	-0.0044
550.6045	-0.0001
550.7994	0.0027
550.9943	0.0013
551.1892	-0.0089
551.384	0.0148
551.5788	-0.01
551.7737	-0.0058
551.9685	-0.0108
552.1632	0.0015
552.358	-0.0036
552.5528	-0.0016
552.7475	-0.0014
552.9422	-0.004
553.1369	0.0015
553.3316	0.0068
553.5263	-0.0078
553.7209	0.008
553.9156	-0.0022
554.1102	-0.0068
554.3048	-0.008
554.4994	0.0087
554.694	0.0099
554.8885	0.0046
555.0831	0.0014
555.2776	-0.0102
555.4721	-0.0052
555.6666	-0.0078
555.8611	0.0085
556.0555	-0.0028
556.25	0.0052
556.4444	-0.0064
556.6388	0.0049
556.8332	0.0017
557.0276	-0.0032
557.222	-0.0066
557.4163	0.0034
557.6107	-0.0053
557.805	0.0093
557.9993	-0.0047
558.1936	0.0021
558.3879	-0.0017
558.5821	0.002
558.7764	-0.003
558.9706	0.0078
559.1648	0.0161
559.359	-0.0019
559.5532	-0.0063
559.7473	-0.0024
559.9415	-0.0024
560.1356	0.0008
560.3297	-0.0133
560.5238	0.0011
560.7179	0.0022
560.9119	-0.0002
561.106	-0.0016
561.3	0.005
561.494	-0.0024
561.688	0.0008
561.882	-0.0094
562.076	0.0029
562.2699	0.0038
562.4639	-0.0004
562.6578	-0.0005
562.8517	-0.0001
563.0456	0.0022
563.2395	-0.0042
563.4333	-0.0009
563.6272	0.0155
563.821	-0.0052
564.0148	0.0067
564.2086	-0.015
564.4024	-0.0048
564.5961	-0.0034
564.7899	0.0084
564.9836	-0.0031
565.1773	0.0002
565.371	0.0142
565.5647	0.0112
565.7584	0.0089
565.952	0.0108
566.1456	0.007
566.3393	0.0024
566.5329	-0.0157
566.7264	0.0011
566.92	-0.0097
567.1136	0.006
567.3071	-0.0043
567.5006	0.0042
567.6941	0.0045
567.8876	0.0012
568.0811	-0.0009
568.2745	0.0129
568.468	0.0068
568.6614	0.0081
568.8548	0.0014
569.0482	-0.0003
569.2416	0.0122
569.4349	0.0054
569.6283	0.0086
569.8216	-0
570.0149	0.0021
570.2082	0.0089
570.4015	0.0075
570.5947	0.0114
570.788	0.0083
570.9812	0.0115
571.1744	0.0014
571.3676	0.0023
571.5608	-0.0083
571.754	0.0124
571.9471	0.0047
572.1402	0
572.3333	-0.0039
572.5264	-0.0015
572.7195	0.0035
572.9126	-0.0001
573.1057	0.0007
573.2987	0.0055
573.4917	0.0071
573.6847	-0.0091
573.8777	0.0076
574.0707	0.0034
574.2636	-0.0041
574.4566	-0.0012
574.6495	0.0028
574.8424	0.0025
575.0353	0.0018
575.2281	0.0107
575.421	0.0029
575.6138	0.0062
575.8067	-0.0058
575.9995	0.0026
576.1923	0.0137
576.385	0.0092
576.5778	0.0002
576.7706	-0.0017
576.9633	0.0063
577.156	0.0083
577.3487	0.0039
577.5414	0.0062
577.734	-0.0047
577.9267	0.0046
578.1193	-0.0016
578.3119	-0.003
578.5045	0.0053
578.6971	0.0067
578.8897	0.013
579.0822	0.0039
579.2747	0.0052
579.4673	-0.0005
579.6598	0.0038
579.8522	-0.002
580.0447	0.0003
580.2372	-0.0005
580.4296	0.0066
580.622	0.0033
580.8144	0.0078
581.0068	0.0031
581.1992	-0.0002
581.3915	0.0015
581.5839	-0.0124
581.7762	-0.0035
581.9685	-0.0004
582.1608	0.0055
582.353	0.0032
582.5453	0.0026
582.7375	0.0064
582.9298	0.0064
583.122	0.0025
583.3142	0.0044
583.5063	0.0008
583.6985	0.0025
583.8906	0.0023
584.0827	0.0008
584.2749	0.009
584.4669	0.0107
584.659	0.0016
584.8511	0.0038
585.0431	0.0027
585.2352	0.0102
585.4272	0.0027
585.6192	0.011
585.8111	0.0038
586.0031	0.0081
586.195	0.0056
586.387	0.0066
586.5789	0.0036
586.7708	0.0059
586.9627	-0.0001
587.1545	0.0022
587.3464	0.0019
587.5382	0.0085
587.73	-0.0013
587.9218	0.0061
588.1136	0.0053
588.3053	0.0064
588.4971	-0.0038
588.6888	-0.0068
588.8805	-0.0002
589.0722	0.0072
589.2639	0.0018
589.4556	0.0051
589.6472	0.0046
589.8389	-0.0049
590.0305	-0.0074
590.2221	0.0071
590.4137	-0.0099
590.6052	0.0094
590.7968	0.0018
590.9883	0.0012
591.1798	0.0018
591.3713	0.0094
591.5628	0.0145
591.7543	0.009
591.9458	0.0079
592.1372	0.008
592.3286	0.0119
592.52	0.0122
592.7114	-0.0009
592.9028	0.0027
593.0941	0.0059
593.2855	0.0093
593.4768	0.0022
593.6681	0.0012
593.8594	-0.0038
594.0506	0.007
594.2419	0.0151
594.4331	0.0056
594.6244	0.0086
594.8156	-0.0047
595.0067	0.0014
595.1979	0.001
595.3891	0.0054
595.5802	0.0008
595.7713	-0.0036
595.9624	0
596.1535	0.0073
596.3446	-0.0017
596.5357	-0.0013
596.7267	0.0066
596.9177	0.0047
597.1087	-0.0039
597.2997	0.0026
597.4907	0.008
597.6817	0.0011
597.8726	0.0006
598.0635	-0.0045
598.2544	0.0028
598.4453	0.0046
598.6362	-0.0028
598.827	0.0078
599.0179	0.0118
599.2087	0.0011
599.3995	0.0019
599.5903	0.0047
599.7811	0.0055
599.9718	0.0028
600.1626	0.0034
600.3533	-0.0023
600.544	0.0094
600.7347	-0.0008
600.9254	0.008
601.116	-0.0094
601.3067	0.0065
601.4973	-0.0026
601.6879	0.0096
601.8785	0.0022
602.0691	0.0112
602.2596	0.0064
602.4502	-0.0012
602.6407	0.011
602.8312	0.0054
603.0217	-0.0052
603.2122	0.0052
603.4027	-0.0024
603.5931	0.001
603.7835	-0.0061
603.9739	-0.0033
604.1643	-0.0022
604.3547	-0.0018
604.5451	0.0054
604.7354	-0.0006
604.9257	0.0049
605.116	0.0055
605.3063	0.0049
605.4966	0.0072
605.6869	0.0063
605.8771	0.0114
606.0673	0.0105
606.2575	0.0112
606.4477	0.0154
606.6379	0.0054
606.8281	0.0033
607.0182	0.0093
607.2083	0.0087
607.3985	-0.0013
607.5885	0.0003
607.7786	-0.0009
607.9687	-0.0014
608.1587	0.0036
608.3488	0.0075
608.5388	0.0021
608.7288	0.0027
608.9187	-0.0034
609.1087	-0.0006
609.2986	-0.0037
609.4886	0.0015
609.6785	0.0051
609.8684	0.0065
610.0582	0.0046
610.2481	0.0093
610.4379	0.0041
610.6278	0.004
610.8176	0.0004
611.0074	-0.0047
611.1971	0.0049
611.3869	0.0089
611.5766	-0.002
611.7664	0.0087
611.9561	0.0096
612.1458	0.0062
612.3354	0.0009
612.5251	0.0022
612.7147	0.006
612.9044	0.01
613.094	-0.0062
613.2836	0.0068
613.4731	-0
613.6627	0.0009
613.8522	0.006
614.0417	0.0097
614.2313	0.0051
614.4207	-0.0029
614.6102	0.0077
614.7997	0.0028
614.9891	0.0009
615.1785	0.0055
615.3679	-0.0048
615.5573	0.0099
615.7467	0.001
615.9361	0.0025
616.1254	0.0027
616.3147	0.0045
616.504	0.0105
616.6933	0.0035
616.8826	0.0093
617.0718	0.0058
617.2611	0.0061
617.4503	0.0018
617.6395	0.008
617.8287	0.0039
618.0179	0.0007
618.207	0.009
618.3961	0.0114
618.5853	-0.0018
618.7744	0.0069
618.9634	0.0114
619.1525	0.0054
619.3416	0.0098
619.5306	0.0059
619.7196	0.0064
619.9086	0.0072
620.0976	0.0114
620.2866	0.0056
620.4755	0.0192
620.6645	0.0095
620.8534	0.011
621.0423	0.0143
621.2312	0.0037
621.42	0.0026
621.6089	0.0007
621.7977	0.0073
621.9865	-0.0005
622.1753	0.0044
622.3641	0.0006
622.5529	0.0128
622.7416	0.0125
622.9303	0.0035
623.1191	0.0106
623.3078	0.0077
623.4964	0.01
623.6851	0.0025
623.8737	0.0095
624.0624	0.0097
624.251	0.0136
624.4396	0.0041
624.6282	-0.0049
624.8167	0.0019
625.0053	0.002
625.1938	0.0092
625.3823	0.0038
625.5708	0.0066
625.7593	-0.0004
625.9477	0.0005
626.1362	0.0036
626.3246	0.0068
626.513	0.0084
626.7014	0.0086
626.8898	0.0008
627.0781	0.001
627.2665	0.0008
627.4548	0.0033
627.6431	0.0023
627.8314	0.0047
628.0197	0.0008
628.2079	0.0021
628.3962	0.0066
628.5844	-0.0004
628.7726	0.0102
628.9608	0.008
629.1489	0.0133
629.3371	0.008
629.5252	-0.0012
629.7134	0.0111
629.9015	0.004
630.0895	0.0056
630.2776	0.0063
630.4657	0.0023
630.6537	0.0061
630.8417	0.0014
631.0297	0.0066
631.2177	0.0065
631.4057	-0.0086
631.5936	0.003
631.7815	0.005
631.9695	0.008
632.1574	0.015
632.3452	0.013
632.5331	0.0098
632.7209	0.0085
632.9088	0.0129
633.0966	0.0142
633.2844	0.0048
633.4722	0.0028
633.6599	0.0116
633.8477	0.0034
634.0354	0.0078
634.2231	0.0061
634.4108	0.0115
634.5985	0.008
634.7861	0.0095
634.9738	0.0052
635.1614	0.0093
635.349	0.0061
635.5366	0.0037
635.7242	-0.001
635.9117	0.0054
636.0993	0.0031
636.2868	0.0087
636.4743	-0.0002
636.6618	0.0159
636.8492	0.0046
637.0367	0.0061
637.2241	0.0038
637.4115	0.0037
637.5989	-0.0027
637.7863	0.001
637.9737	0.0066
638.161	0.0049
638.3484	0.0056
638.5357	0.007
638.723	-0.0002
638.9103	0.0051
639.0975	0.0064
639.2848	0.0032
639.472	0.0046
639.6592	0.0065
639.8464	0.011
640.0336	0.0122
640.2208	0.0023
640.4079	0.0026
640.595	0.0044
640.7821	0.0055
640.9692	0.0053
641.1563	0.0057
641.3434	0.0036
641.5304	0.0049
641.7174	0.0063
641.9044	-0.0034
642.0914	0.0091
642.2784	0.0065
642.4653	0.0125
642.6523	0.0009
642.8392	0.0021
643.0261	0.0051
643.213	0.0135
643.3999	0.0013
643.5867	-0.0002
643.7735	0.0064
643.9604	-0.003
644.1472	0.0077
644.3339	0.007
644.5207	-0.0005
644.7075	0.0039
644.8942	0.0107
645.0809	0.0114
645.2676	0.0105
645.4543	-0.0004
645.6409	0.0086
645.8276	0.0027
646.0142	0.0079
646.2008	0.0019
646.3874	-0.0017
646.574	0.0044
646.7605	-0.0011
646.9471	-0.0095
647.1336	-0.0023
647.3201	0.0065
647.5066	-0.0062
647.6931	0.0055
647.8795	0.0052
648.0659	0.0044
648.2524	0.0111
648.4388	0.0026
648.6252	0.0001
648.8115	-0.0009
648.9979	0.006
649.1842	-0.0009
649.3705	0.0059
649.5568	0.007
649.7431	0.0114
649.9294	0.01
650.1156	0.0089
650.3018	0.0048
650.488	0.0108
650.6742	0.007
650.8604	0.0046
651.0466	-0.0002
651.2327	0.0086
651.4188	0.0075
651.6049	-0.003
651.791	0.0057
651.9771	0.0054
652.1632	0.0118
652.3492	0.0094
652.5352	0.005
652.7212	0.0021
652.9072	0.0142
653.0932	0.0044
653.2791	-0.0003
653.465	-0.0017
653.651	-0.006
653.8369	0.0054
654.0227	0.0048
654.2086	0.0046
654.3944	0.0089
654.5803	0.0075
654.7661	0.0004
654.9519	0.0071
655.1377	-0.0021
655.3234	0.003
655.5092	0.0033
655.6949	-0.0024
655.8806	-0.0046
656.0663	0.0054
656.2519	-0.0006
656.4376	-0.0018
656.6232	0.0076
656.8088	0.0053
656.9945	0.0063
657.18	0.0039
657.3656	0.0029
657.5511	-0.0016
657.7367	0.0052
657.9222	0.0017
658.1077	0.0057
658.2932	0.0047
658.4786	-0.0078
658.6641	0.004
658.8495	0.0103
659.0349	-0.0026
659.2203	0.0075
659.4057	0.0084
659.591	0.0127
659.7764	0.0033
659.9617	0.0041
660.147	0.0077
660.3323	0.0025
660.5176	0.0146
660.7028	0.0069
660.888	0.0052
661.0733	0.0047
661.2585	-0.0008
661.4436	0.0076
661.6288	-0.0007
661.8139	-0.004
661.9991	0.0106
662.1842	0.0016
662.3693	0.0058
662.5544	0.0069
662.7394	0.0066
662.9245	0.0105
663.1095	0.0072
663.2945	0.0124
663.4795	0.0042
663.6644	0.0118
663.8494	0.0091
664.0343	0.012
664.2193	0.0009
664.4042	0.0023
664.589	-0.0004
664.7739	0.0071
664.9587	-0.0014
665.1436	0.0062
665.3284	0.004
665.5132	0.0002
665.698	0.0075
665.8827	0.01
666.0675	0.0106
666.2522	0.0003
666.4369	0.0089
666.6216	0.0048
666.8063	0.0029
666.9909	0.007
667.1756	-0.0034
667.3602	0.0046
667.5448	0.007
667.7294	0.0124
667.9139	0.0081
668.0985	0.0132
668.283	0.0069
668.4675	0.0119
668.652	0.0104
668.8365	0.0074
669.0209	0.0139
669.2054	0.0151
669.3898	0.0107
669.5742	0.0086
669.7586	0.0041
669.943	0.0116
670.1273	0.0119
670.3117	0.0141
670.496	0.0055
670.6803	0.0165
670.8646	0.0132
671.0488	0.0054
671.2331	0.0142
671.4173	0.0162
671.6015	-0.0009
671.7857	0.016
671.9699	0.0122
672.1541	0.0071
672.3382	0.0113
672.5223	0.0051
672.7064	0.0084
672.8905	0.0122
673.0746	0.0078
673.2587	0.0035
673.4427	0.01
673.6267	0.0108
673.8107	0.0132
673.9947	0.0048
674.1787	0.0104
674.3626	-0.0044
674.5465	0.0093
674.7304	0.0045
674.9143	0.0133
675.0982	0.0068
675.2821	-0.0003
675.4659	0.0102
675.6497	0.0098
675.8335	0.0034
676.0173	0.0051
676.2011	0.0093
676.3849	0.0037
676.5686	0.0005
676.7523	0.008
676.936	0.0086
677.1197	0.0055
677.3034	-0.0094
677.487	0.0073
677.6706	0.002
677.8542	0.0023
678.0378	0.0031
678.2214	0.0078
678.405	-0.0017
678.5885	-0.0016
678.772	0.0048
678.9555	-0.0041
679.139	0.0032
679.3225	0.0072
679.5059	0.001
679.6894	0.0021
679.8728	0.0018
680.0562	-0.0113
680.2395	0.0002
680.4229	-0.0003
680.6062	0.0104
680.7896	0.0082
680.9729	-0.0013
681.1562	-0.0008
681.3394	0.0048
681.5227	-0.008
681.7059	-0.0007
681.8891	-0.001
682.0723	0.0127
682.2555	0.0149
682.4387	-0.0026
682.6218	-0.0046
682.805	0.0068
682.9881	0.0043
683.1712	-0.0034
683.3542	-0.0041
683.5373	0.0028
683.7203	-0.0071
683.9034	-0.0006
684.0864	-0.0031
684.2694	0.0081
684.4523	0.0007
684.6353	-0.0015
684.8182	0.0007
685.0011	-0.0134
685.184	0.0104
685.3669	0.0013
685.5498	0.0074
685.7326	0.0052
685.9154	0.0041
686.0982	0.0085
686.281	0.011
686.4638	0.0037
686.6465	0.0045
686.8293	0.0004
687.012	0.0081
687.1947	-0.0045
687.3774	0.0088
687.56	0.0067
687.7427	0.0084
687.9253	0.0017
688.1079	0.0065
688.2905	0.0095
688.4731	0.0056
688.6556	0.0008
688.8382	0.0103
689.0207	0.0046
689.2032	0.0012
689.3857	0.0015
689.5681	0.0038
689.7506	0.0011
689.933	0.0019
690.1154	-0.0015
690.2978	0.0003
690.4802	0.0072
690.6626	-0.0031
690.8449	0.0006
691.0272	0.0095
691.2095	-0.0013
691.3918	0.0028
691.5741	0.0093
691.7563	0.0039
691.9386	0.0027
692.1208	0.0071
692.303	0.0058
692.4852	0.003
692.6673	-0.0013
692.8495	-0.0011
693.0316	0.0055
693.2137	0.0082
693.3958	0.0071
693.5778	0.0059
693.7599	0.0073
693.9419	0.01
694.1239	0.0017
694.3059	0.0038
694.4879	0.0091
694.6699	0.0063
694.8518	0.0088
695.0337	0.0016
695.2157	0.0148
695.3975	0.0031
695.5794	0.0027
695.7613	0.0055
695.9431	0.0019
696.1249	0.0076
696.3067	0.0088
696.4885	0.0122
696.6703	-0.0024
696.852	0.011
697.0337	0.0078
697.2154	0.0067
697.3971	0.0081
697.5788	0.0081
697.7605	0.0029
697.9421	0.0034
698.1237	-0.0003
698.3053	-0.0016
698.4869	-0.0035
698.6685	0.0018
698.85	-0.0005
699.0315	0.0071
699.213	0.0054
699.3945	0.0035
699.576	0.008
699.7575	0.006
699.9389	0.0055
700.1203	-0.0004
700.3017	-0.0032
700.4831	0.0026
700.6645	0.0065
700.8458	0.0072
701.0271	-0.0035
701.2084	0.0037
701.3897	0.007
701.571	0.0018
701.7523	0.0026
701.9335	0.0013
702.1147	0.0013
702.2959	0.0032
702.4771	0.0098
702.6583	0.0092
702.8394	0.0024
703.0205	0.0068
703.2016	-0.0037
703.3827	-0.0019
703.5638	0.014
703.7449	0.0034
703.9259	0.0118
704.1069	0.0005
704.2879	0.0017
704.4689	-0.0004
704.6499	-0.003
704.8308	0.0024
705.0117	0.007
705.1927	0.0074
705.3735	0.0007
705.5544	-0.0041
705.7353	0.0007
705.9161	0.0019
706.0969	-0.0022
706.2777	0.0034
706.4585	0.0021
706.6393	0.0065
706.82	0.0061
707.0007	0.0151
707.1815	0.0113
707.3621	0.0114
707.5428	0.0087
707.7235	0.0058
707.9041	0.0065
708.0847	-0.0006
708.2653	0.0044
708.4459	-0.0084
708.6265	0.0065
708.807	0.0023
708.9875	-0.0032
709.168	-0.0146
709.3485	-0.0036
709.529	-0.0035
709.7095	-0.0019
709.8899	0.0039
710.0703	0.0023
710.2507	-0.0005
710.4311	0.0024
710.6115	-0.005
710.7918	-0.0033
710.9721	0.0013
711.1524	-0.0082
711.3327	-0.0013
711.513	-0.0007
711.6932	0.0016
711.8735	0.0066
712.0537	0.0027
712.2339	0.0015
712.4141	-0.007
712.5942	-0.0022
712.7744	-0.0012
712.9545	-0.0033
713.1346	-0.0114
713.3147	-0.0052
713.4947	0.0022
713.6748	0.0033
713.8548	0.0054
714.0348	0.0037
714.2148	-0.0005
714.3948	0.012
714.5748	0.0052
714.7547	0.0025
714.9346	0.0082
715.1145	0.0039
715.2944	-0.0086
715.4743	0.0061
715.6541	-0.0048
715.834	0.0039
716.0138	-0.0031
716.1936	-0.0104
716.3733	-0.0013
716.5531	0.0088
716.7328	0.0055
716.9126	0.0032
717.0923	0.0034
717.2719	0.0006
717.4516	0.0076
717.6312	0.0061
717.8109	-0.0015
717.9905	0.005
718.1701	-0.0034
718.3496	0.0012
718.5292	0.004
718.7087	0.0033
718.8882	-0.0058
719.0677	0.0074
719.2472	-0.0043
719.4267	-0.003
719.6061	0.002
719.7856	0.0044
719.965	0.0074
720.1443	0.0039
720.3237	0.0088
720.5031	0.0091
720.6824	0.0062
720.8617	-0.0002
721.041	-0.0022
721.2203	0.0062
721.3995	0.0038
721.5788	0.0117
721.758	0.0027
721.9372	-0.0015
722.1164	0.0026
722.2956	0.0022
722.4747	0.0037
722.6538	0.0003
722.8329	0.0163
723.012	0.0157
723.1911	-0.0019
723.3702	0.0029
723.5492	0.0153
723.7282	0.0005
723.9072	0.0096
724.0862	0.008
724.2652	-0.0044
724.4441	0.0024
724.623	0.0008
724.8019	0.0058
724.9808	-0.0005
725.1597	-0.0054
725.3385	0.0089
725.5174	0.0037
725.6962	0.0028
725.875	-0.0036
726.0538	0.0033
726.2325	0.0011
726.4112	0.0015
726.59	-0.0019
726.7687	-0.0021
726.9474	0.0011
727.126	0.0012
727.3047	-0.0066
727.4833	0.001
727.6619	-0.0059
727.8405	-0.0076
728.0191	-0.0124
728.1976	0.0061
728.3762	0.004
728.5547	0.0038
728.7332	-0.0105
728.9116	0.0092
729.0901	0.0048
729.2686	-0.0105
729.447	0.0011
729.6254	-0.0052
729.8038	0.0057
729.9821	-0.0082
730.1605	-0.0019
730.3388	0.0082
730.5171	-0.0038
730.6954	-0.0069
730.8737	0.0066
731.0519	0.0116
731.2302	0.0094
731.4084	0.0142
731.5866	0.0117
731.7648	0.0053
731.9429	0.0026
732.1211	-0.0047
732.2992	0.0032
732.4773	0.003
732.6554	0.0028
732.8335	0.003
733.0115	0.0069
733.1896	0.0079
733.3676	-0.0047
733.5456	0.0063
733.7235	0.0133
733.9015	0.0004
734.0794	0.0109
734.2574	0.0016
734.4353	0.0076
734.6131	0.0126
734.791	0.013
734.9689	0.0131
735.1467	0.0085
735.3245	-0.0034
735.5023	0.0052
735.68	0.0115
735.8578	0.0192
736.0355	-0.0058
736.2132	-0.0019
736.3909	0.0091
736.5686	0.0007
736.7463	0.0032
736.9239	-0.0035
737.1015	-0.0022
737.2791	0.0064
737.4567	0.0012
737.6343	0.0047
737.8118	0.0111
737.9894	0.0146
738.1669	0.0072
738.3444	-0.0034
738.5218	0.0097
738.6993	0.0023
738.8767	0.0012
739.0541	0.0178
739.2315	-0.01
739.4089	0.0061
739.5863	0.0017
739.7636	0.0002
739.9409	0.0076
740.1182	0.0096
740.2955	0.0092
740.4728	-0.0031
740.65	0.0012
740.8272	0.0011
741.0044	-0.002
741.1816	0.0026
741.3588	-0.0012
741.5359	0.0076
741.7131	-0.0092
741.8902	0.002
742.0673	0.0026
742.2444	-0.0092
742.4214	0.0024
742.5985	0.003
742.7755	-0.0056
742.9525	-0.005
743.1295	0.0073
743.3064	0.0046
743.4834	0.0037
743.6603	0.004
743.8372	0.0111
744.0141	0.0002
744.191	0.0031
744.3678	0.0052
744.5446	0.0003
744.7215	0.0068
744.8982	-0.0101
745.075	-0.0147
745.2518	-0.0015
745.4285	0.0004
745.6052	-0.007
745.7819	0.0046
745.9586	-0.0062
746.1353	0.003
746.3119	-0.0075
746.4885	-0.004
746.6651	-0.0028
746.8417	-0.0024
747.0183	-0.0005
747.1948	0.0036
747.3714	-0.0019
747.5479	0.013
747.7244	-0.0077
747.9008	0.007
748.0773	-0.0034
748.2537	-0.0056
748.4301	-0.0034
748.6065	0.0144
748.7829	0.0089
748.9593	0.0024
749.1356	0.0078
749.3119	0.02
749.4882	0.0063
749.6645	0.0051
749.8408	-0.0017
750.017	0.0018
750.1933	-0.0004
750.3695	-0.0144
750.5457	0.0092
750.7218	0.0038
750.898	0.0009
751.0741	-0.0065
751.2502	-0.0041
751.4263	-0.004
751.6024	0.0116
751.7784	0.0002
751.9545	-0.0004
752.1305	0.003
752.3065	0.0016
752.4825	0.0114
752.6584	0.0034
752.8344	-0.0038
753.0103	0
753.1862	-0.0037
753.3621	0.0073
753.5379	-0.0056
753.7138	0.0049
753.8896	-0.0058
754.0654	0.0086
754.2412	0.0071
754.417	0.0087
754.5927	-0.0017
754.7685	-0.0008
754.9442	-0.0012
755.1199	0.0163
755.2956	0.0002
755.4712	0.0135
755.6469	0.0053
755.8225	0.0009
755.9981	-0.0022
756.1736	0.0013
756.3492	0.0005
756.5248	-0.004
756.7003	0.0026
756.8758	0.0057
757.0513	-0.0035
757.2267	-0.0055
757.4022	0.002
757.5776	-0.0133
757.753	0.0081
757.9284	-0.0053
758.1038	0.0036
758.2791	-0.0019
758.4545	-0.0059
758.6298	-0.0028
758.8051	-0.0005
758.9803	-0.0017
759.1556	-0.0016
759.3308	-0.0075
759.506	0.0089
759.6812	-0.0048
759.8564	0.0034
760.0316	-0.006
760.2067	0.0089
760.3819	0.0074
760.557	0.0124
760.732	0.0053
760.9071	-0.0082
761.0821	0.0094
761.2572	0.013
761.4322	-0.0018
761.6072	0.0093
761.7821	0.0006
761.9571	0.0005
762.132	-0.0039
762.3069	-0.0016
762.4818	-0.0041
762.6567	-0.0045
762.8316	0.0004
763.0064	-0.0004
763.1812	0.0058
763.356	-0.0133
763.5308	-0.005
763.7055	0.0019
763.8803	-0.0089
764.055	-0.0029
764.2297	0
764.4044	-0.0041
764.579	-0.0055
764.7537	0.003
764.9283	0.0108
765.1029	-0.0019
765.2775	-0.0011
765.4521	0.0025
765.6266	0.004
765.8011	0.0004
765.9756	0.0033
766.1501	0.0147
766.3246	-0.0028
766.4991	0
766.6735	0.0146
766.8479	0.0019
767.0223	0.017
767.1967	0.0157
767.371	0.0062
767.5454	0.0092
767.7197	0.0033
767.894	-0.002
768.0683	-0.0039
768.2425	0.0003
768.4168	0.0086
768.591	0.0169
768.7652	0.003
768.9394	-0.0054
769.1135	0.0046
769.2877	0.0144
769.4618	0.0095
769.6359	-0.0026
769.81	0.0042
769.984	0.0052
770.1581	-0.0125
770.3321	0.0029
770.5061	-0.0117
770.6801	-0.0074
770.8541	0.0008
771.028	0.0146
771.202	0.0005
771.3759	0.0085
771.5498	0.0004
771.7236	0.0045
771.8975	0.0031
772.0713	0.0035
772.2451	-0.001
772.4189	0.0078
772.5927	0.0067
772.7665	-0.0007
772.9402	-0.0009
773.1139	0.01
773.2876	-0.0078
773.4613	0.0066
773.635	0.004
773.8086	0.002
773.9822	0.0049
774.1558	0.0093
774.3294	-0.0006
774.503	0.0094
774.6765	0.0123
774.8501	0.0041
775.0236	0.0162
775.1971	0.0144
775.3705	-0.0029
775.544	0.0192
775.7174	0.0021
775.8908	0.0043
776.0642	0.0016
776.2376	0.0067
776.4109	0.0017
776.5843	0.0084
776.7576	0.0025
776.9309	0.024
777.1041	0.018
777.2774	0.0079
777.4506	0.0032
777.6238	0.0019
777.797	0.009
777.9702	0.0018
778.1434	0.0035
778.3165	-0.0029
778.4896	0.0065
778.6627	0.0124
778.8358	-0.0055
779.0089	0.0035
779.1819	-0.0009
779.3549	0.0108
779.5279	0.0231
779.7009	0.0014
779.8739	0.0063
780.0468	-0.001
780.2197	0.0074
780.3926	0.0048
780.5655	0.0067
780.7384	-0.0032
780.9112	0.0015
781.0841	-0.0017
781.2569	-0.004
781.4297	0.0004
781.6024	0.0041
781.7752	0.0007
781.9479	0.0067
782.1206	0.0074
782.2933	-0.0122
782.466	0.0054
782.6386	0.0154
782.8113	0.0122
782.9839	0.0061
783.1565	0.0161
783.329	0.0033
783.5016	0.0196
783.6741	0.0208
783.8466	0.0046
784.0191	0.0234
784.1916	0.0095
784.3641	0.0066
784.5365	0.0099
784.7089	-0.0004
784.8813	0.008
785.0537	0.0037
785.2261	0.0062
785.3984	-0.0065
785.5707	-0.0022
785.743	0.0076
785.9153	0.0137
786.0876	0.0176
786.2598	0.0069
786.432	-0.0053
786.6042	0.0227
786.7764	-0.0013
786.9486	0.0166
787.1207	-0.0011
787.2928	0.0093
787.4649	0.0148
787.637	0.01
787.8091	0.0046
787.9811	0.0029
788.1532	0.0178
788.3252	0.0111
788.4972	-0.0027
788.6691	0.0043
788.8411	0.0122
789.013	-0.0183
789.1849	-0.0074
789.3568	0.0068
789.5287	0.0081
789.7005	0.0077
789.8723	0.0141
790.0442	0.0291
790.2159	0.0072
790.3877	0.0194
790.5595	0.003
790.7312	0.0002
790.9029	0.01
791.0746	0.0031
791.2463	0.0179
791.4179	0.0023
791.5896	-0.0139
791.7612	-0.0025
791.9328	0.0104
792.1044	0.0095
792.2759	-0.011
792.4474	-0.0055
792.619	0.0116
792.7905	0.0109
792.9619	0.0128
793.1334	0.015
793.3048	0.0097
793.4762	0.0158
793.6476	0.0107
793.819	-0.008
793.9904	0.0083
794.1617	-0.0108
794.333	0.0075
794.5043	-0.0048
794.6756	0.0005
794.8469	0.0028
795.0181	0.0043
795.1893	0.0042
795.3605	0.0015
795.5317	-0.0001
795.7029	-0.0042
795.874	0.0053
796.0452	0.0075
796.2163	-0.0033
796.3873	0.0131
796.5584	-0.0017
796.7294	-0.0007
796.9005	0.0227
797.0715	0.0056
797.2425	-0.0094
797.4134	0.0116
797.5844	0.0188
797.7553	0.0107
797.9262	0.0126
798.0971	0.0075
798.2679	0.0106
798.4388	-0.0094
798.6096	0.0016
798.7804	0.0279
798.9512	0.0045
799.122	-0.0022
799.2927	0.0037
799.4635	0.0145
799.6342	-0.0121
799.8049	-0.0065
799.9755	-0.0023
800.1462	0.0061
800.3168	0.0092
800.4874	0.014
800.658	0.0123
800.8286	0.0228
800.9991	0.0014
801.1696	0.0079
801.3402	0.009
801.5106	-0.009
801.6811	0.0103
801.8516	0.0145
802.022	0.0236
802.1924	0.0015
802.3628	0.0157
802.5332	0.0201
802.7035	0.0232
802.8739	0
803.0442	0.0046
803.2145	0.0251
803.3847	-0.02
803.555	0.0145
803.7252	-0.0185
803.8954	-0.0033
804.0656	-0.0002
804.2358	0.0144
804.4059	0.0137
804.5761	0.0219
804.7462	0.0098
804.9163	0.0104
805.0864	-0.0133
805.2564	-0.008
805.4264	0.0224
805.5965	0.0091
805.7665	0.0041
805.9364	0.0141
806.1064	0.0353
806.2763	0.0061
806.4462	0.0296
806.6161	0.0213
806.786	0.0064
806.9559	0.0039
807.1257	0.0128
807.2955	-0.0093
807.4653	0.001
807.6351	0.0027
807.8048	0.0014
807.9746	-0.0081
808.1443	0.0067
808.314	0
808.4837	-0.0053
808.6533	0.0232
808.8229	0.0252
808.9926	0.01
809.1622	0.0132
809.3317	-0.0088
809.5013	0.013
809.6708	0.0208
809.8403	0.027
810.0098	0.0132
810.1793	0.0036
810.3488	0.0005
810.5182	-0.0028
810.6876	0.0018
810.857	0.0092
811.0264	0.039
811.1958	0.0065
811.3651	0.0147
811.5344	0.0043
811.7037	0.0067
811.873	0.0028
812.0422	-0.0057
812.2115	0.0038
812.3807	0.0041
812.5499	0.0151
812.7191	0.0145
812.8882	-0.007
813.0574	0.0207
813.2265	-0.0002
813.3956	0.0141
813.5646	0.0187
813.7337	-0.0092
813.9027	0.0214
814.0718	0.0388
814.2407	0.006
814.4097	0.0151
814.5787	0.0012
814.7476	0.0144
814.9165	0.0217
815.0854	0.0123
815.2543	-0.0031
815.4232	0.0154
815.592	0.0228
815.7608	0.0102
815.9296	0.0245
816.0984	0.0241
816.2671	0.0093
816.4359	0.0064
816.6046	0.0029
816.7733	0.0175
816.942	-0.0037
817.1106	0.0273
817.2793	-0.0015
817.4479	0.0084
817.6165	0.0176
817.785	0.0174
817.9536	0.0073
818.1221	0.0085
818.2906	0.021
818.4591	0.0066
818.6276	0.0205
818.7961	-0.0029
818.9645	0.0091
819.1329	0.0212
819.3013	0.0209
819.4697	0.0246
819.638	-0.0051
819.8064	0.0156
819.9747	0.0247
820.143	0.008
820.3113	-0.0195
820.4795	0.0263
820.6477	0.0137
820.816	0.019
820.9842	0.0181
821.1523	0.0256
821.3205	0.0029
821.4886	0.0304
821.6567	0.0019
821.8248	0.0264
821.9929	0.0352
822.1609	0.0161
822.329	0.0232
822.497	0.0526
822.665	0.0274
822.833	0.013
823.0009	0.0012
823.1688	0.0107
823.3367	0.0058
823.5046	0.029
823.6725	0.0305
823.8404	0.0248
824.0082	-0.0092
824.176	0.0269
824.3438	0.0344
824.5116	-0.0033
824.6793	0.0151
824.847	0.0127
825.0147	0.0135
825.1824	0.0802
825.3501	0.0137
825.5177	0.0118
825.6854	0.0092
825.853	0.0237
826.0206	0.0043
826.1881	0.0364
826.3557	0.0063
826.5232	0.0124
826.6907	0.0037
826.8582	-0.0075
827.0257	0.0057
827.1931	0.011
827.3605	0.0147
827.528	-0.0146
827.6953	-0.0207
827.8627	-0.0119
828.03	0.017
828.1974	-0.0055
828.3647	-0.0009
828.532	0.0065
828.6992	0.0096
828.8665	0.0068
829.0337	-0.0099
829.2009	0.02
829.3681	0.013
829.5352	0.0168
829.7024	-0.0285
829.8695	-0.011
830.0366	0.0589
830.2037	0.0204
830.3707	0.0096
830.5378	-0.0073
830.7048	0.0224
830.8718	0.0156
831.0388	-0.0129
831.2057	0.0197
831.3727	0.0058
831.5396	-0.0056
831.7065	-0.0394
831.8734	0.0183
832.0402	0.0073
832.2071	0.0041
832.3739	-0.01
832.5407	0.0025
832.7075	-0.0055
832.8742	-0.0084
833.041	-0.0448
833.2077	0.0233
833.3744	0.0527
833.541	-0.0017
833.7077	-0.014
833.8743	-0.0012
834.0409	0.0404
834.2075	-0.0037
834.3741	-0.003
834.5407	0.023
834.7072	0.0071
834.8737	-0.0104
835.0402	-0.0059
835.2067	0.0623
835.3731	0.019
835.5395	0.0545
835.706	0.0227
835.8723	-0.023
836.0387	0.0338
836.2051	0.0318
836.3714	0.0372
836.5377	0.0162
836.704	-0.002
836.8703	0.0001
837.0365	0.0045
837.2027	-0.0133
837.3689	-0.006
837.5351	-0.0103
837.7013	-0.0342
837.8674	0.0081
838.0335	-0.0351
838.1997	-0.0158
838.3657	-0.0474
838.5318	-0.0342
838.6978	0.0409
838.8639	0.0122
839.0299	-0.0168
839.1958	-0.0115
839.3618	-0.0075
839.5277	-0.0109
839.6937	0.0068
839.8596	-0.0559
840.0254	0.0093
840.1913	0.039
840.3571	0.0028
840.523	-0.0077
840.6888	-0.0064
840.8545	0.0011
841.0203	0.0405
841.186	0.0036
841.3517	0.0575
841.5174	0.03
841.6831	0.0165
841.8488	0.028
842.0144	0.0404
842.18	0.0352
842.3456	0.0373
842.5112	-0.0559
842.6767	-0.0237
842.8422	-0.0474
843.0077	0.0053
843.1732	-0.001
843.3387	-0.0121
843.5042	-0.0658
843.6696	0.0149
843.835	-0.024
844.0004	0.0398
844.1657	-0.0068
844.3311	-0.0691
844.4964	-0.0422
844.6617	-0.0042
844.827	-0.0146
844.9923	0.0225
845.1575	-0.0417
845.3227	0.0179
845.4879	-0.0109
845.6531	-0.0924
845.8183	-0.0115
845.9834	0.0206
846.1485	0.0353
846.3136	-0.0689
846.4787	-0.062
846.6438	0.0454
846.8088	0.013
846.9738	-0.1004
847.1388	0.0324
847.3038	-0.0247
847.4687	-0.1521
847.6337	0.0584
847.7986	-0.0293
847.9635	-0.0789
848.1284	-0.0092
848.2932	0.1226
848.458	-0.0586
848.6228	0.0486
848.7876	0.0461
848.9524	-0.0637
849.1172	-0.078
849.2819	0.0505
849.4466	-0.0392
849.6113	-0.045
849.7759	-0.0343
849.9406	-0.0328
850.1052	0.0591
850.2698	-0.0016
850.4344	-0.0055
850.599	-0.0115
850.7635	0.0811
850.928	-0.018
851.0925	0.016
851.257	0.0451
851.4215	0.0447
851.5859	0.059
851.7503	-0.0222
851.9147	-0.019
852.0791	-0.0576
852.2434	0.008
852.4078	-0.0096
852.5721	0.0117
852.7364	-0.101
852.9007	-0.2205
853.0649	-0.0337
853.2291	-0.007
853.3934	-0.1199
853.5575	0.0599
853.7217	0.0145
853.8859	0.0132
854.05	0.0306
854.2141	-0.0533
854.3782	0.078
854.5423	-0.0533
854.7063	0.0808
854.8703	-0.0158
855.0343	-0.1173
855.1983	-0.1511
855.3623	0.1202
855.5262	-0.0104
855.6901	-0.0392
855.854	0.0281
856.0179	0.0231
856.1818	-0.0304
856.3456	0.0744
856.5094	0.0159
856.6732	-0.0836
856.837	0.0117
857.0008	-0.0134
857.1645	-0.0115
857.3282	-0.0309
857.4919	0.1473
857.6556	0.1175
857.8192	0.0242
857.9828	0.0613
858.1465	-0.0404
858.31	-0.1135
858.4736	-0.0493
858.6372	-0.216
858.8007	-0.0559
858.9642	0.034
859.1277	0.2367
859.2911	-0.1722
859.4546	0.0121
859.618	-0.4571
859.7814	0.0006
859.9448	0.1374
860.1081	-0.0443
860.2715	0.1177
860.4348	0.0939
860.5981	-0.0923
860.7614	0.0572
860.9246	-0.1138
861.0879	-0.2649
861.2511	0.0099
861.4143	-0.0844
861.5774	0.3915
861.7406	-0.3104
861.9037	0.0169
862.0668	-0.1402
862.2299	-0.2775
862.393	-0.4413
862.556	0.0653
862.7191	-0.2811
862.8821	-0.0169
863.0451	0.0293
863.208	-0.0651
863.371	0.1363
863.5339	-0.1426
863.6968	-0.1078
863.8597	0.1667
864.0225	-0.1731
864.1854	-0.2568
864.3482	-0
864.511	0.3062
864.6737	-0.0825
864.8365	-0.0804
864.9992	-0.2838
865.1619	-0.5135
865.3246	-0.0118
865.4873	-0.0759
865.65	-0.3698
865.8126	0.1735
865.9752	-0.0454
866.1378	-0.1138
866.3004	0.6486
866.4629	0.5145
866.6254	-0.0111
866.7879	0.075
866.9504	-0.2838
867.1129	-0
867.2753	0.3786
867.4377	0.2342
867.6001	-0.1223
867.7625	0.0612
867.9249	0.912
868.0872	-0.2634
868.2495	0.4604
868.4118	-0.2224
868.5741	-0.3919
868.7363	-0.3275
868.8986	-0.3535
869.0608	0.4704
869.223	0.8612
869.3851	-0.2282
869.5473	-0
869.7094	0.0603
869.8715	-0.5381
870.0336	-0
870.1957	-0.1389
870.3577	-0.9128
870.5197	-0.1746
870.6817	-0.1515
870.8437	-0.1946
871.0057	-0.5351
871.1676	-0
871.3295	-0
871.4914	-0
871.6533	-0.0108
871.8151	-0.3354
871.977	-0
872.1388	-0
872.3006	0.2632
872.4623	-0
872.6241	0.5629
872.7858	0.6043
872.9475	-0.2502
873.1092	-0.1498
873.2709	-0
873.4325	-0.299
873.5941	-0.2308
873.7557	-0.2861
873.9173	-0.22
874.0789	-0
874.2404	-0.1447
874.4019	0.2044
874.5634	0.0712
874.7249	-0.2948
874.8863	0.1158
875.0478	0.0614
875.2092	-0
875.3706	-0
875.5319	-0.7339
875.6933	0.0575
875.8546	-0.1946
876.0159	-0
876.1772	-0
876.3385	-0
876.4997	0.3899
876.6609	-0.6592
876.8221	-0
876.9833	0.6
877.1445	-0
877.3056	0.007
877.4667	-0.3564
877.6278	-0
877.7889	-0.1517
877.9499	-0
878.111	-0
878.272	-0
878.433	-0
878.5939	-0
878.7549	-0.1044
878.9158	-0.8053
879.0767	0.5716
879.2376	-0
879.3984	0.2843
879.5593	-0
879.7201	-0.1407
879.8809	-0.7487
880.0417	-0.2815
880.2024	0.4
880.3632	-0
880.5239	0.4597
880.6846	0.0422
880.8452	-2.3692
881.0059	-1.7419
881.1665	-0.0478
881.3271	0.2361
881.4877	-0.4842
881.6483	-0.7256
881.8088	-0.3178
881.9693	-0
882.1298	-0
882.2903	-0
