Data from MonoPyChalIsomerACN10uM360nmA_Absorbance_13-57-26-404.txt Node
Date: Fri Jul 05 13:57:26 BST 2024
User: LASERRRRR
Spectrometer: FLMT03099
Trigger mode: 0
Integration Time (sec): 1.000000E-1
Scans to average: 1
Electric dark correction enabled: true
Nonlinearity correction enabled: false
Boxcar width: 0
XAxis mode: Wavelengths
Number of Pixels in Spectrum: 3648
>>>>>Begin Spectral Data<<<<<
179.3399	0.5569
179.5586	0.5569
179.7771	0.5569
179.9957	0.2661
180.2143	-0
180.4329	0.0423
180.6514	0.3065
180.8699	0.1924
181.0885	-0.1801
181.307	0.142
181.5255	0.5798
181.744	-0.4246
181.9625	-0
182.181	-0.8354
182.3994	0.6658
182.6179	-0
182.8363	0.3485
183.0547	-0.1566
183.2732	0.0054
183.4916	0.1479
183.71	0.0599
183.9284	0.1325
184.1467	-0.073
184.3651	-0.0848
184.5835	0.0648
184.8018	-0.0417
185.0201	-0.0358
185.2385	-0.0902
185.4568	0.3536
185.6751	0.0919
185.8934	0.0567
186.1117	0.0405
186.3299	-0.0632
186.5482	0.1963
186.7664	-0.0481
186.9847	-0.0075
187.2029	0.2168
187.4211	0.1887
187.6393	0.0524
187.8575	-0.1562
188.0757	0.3715
188.2939	0.1692
188.512	-0.1574
188.7302	0.0933
188.9483	0.0021
189.1665	0.0852
189.3846	-0.2133
189.6027	0.188
189.8208	0.0518
190.0389	0.1701
190.257	0.0582
190.475	0.0044
190.6931	0.1991
190.9111	0.6472
191.1292	0.1063
191.3472	0.2942
191.5652	0.5427
191.7832	0.3241
192.0012	0.8028
192.2192	0.4024
192.4371	0.5769
192.6551	0.4485
192.873	0.3843
193.091	0.4646
193.3089	0.428
193.5268	0.5004
193.7447	0.8902
193.9626	0.4259
194.1805	0.4853
194.3984	0.8896
194.6162	0.547
194.8341	0.5648
195.0519	0.5545
195.2697	0.8088
195.4875	0.5504
195.7054	0.4705
195.9231	0.4349
196.1409	0.6255
196.3587	0.5858
196.5765	0.5782
196.7942	0.6152
197.012	0.584
197.2297	0.5733
197.4474	0.5769
197.6651	0.5489
197.8828	0.6035
198.1005	0.6019
198.3182	0.4619
198.5358	0.9896
198.7535	0.5792
198.9711	0.6264
199.1888	0.5394
199.4064	0.8432
199.624	0.6572
199.8416	0.5998
200.0592	0.6682
200.2767	0.7337
200.4943	0.6333
200.7119	0.7113
200.9294	0.6411
201.1469	0.572
201.3645	0.5291
201.582	0.5427
201.7995	0.6772
202.017	0.6214
202.2344	0.5779
202.4519	0.6753
202.6694	0.5556
202.8868	0.5474
203.1042	0.7833
203.3217	0.5908
203.5391	0.6504
203.7565	0.5672
203.9739	0.6459
204.1913	0.5751
204.4086	0.6182
204.626	0.7369
204.8433	0.6409
205.0607	0.5362
205.278	0.7243
205.4953	0.6619
205.7126	0.6645
205.9299	0.7819
206.1472	0.6866
206.3644	0.5959
206.5817	0.6345
206.7989	0.7058
207.0162	0.677
207.2334	0.7721
207.4506	0.6703
207.6678	0.6326
207.885	0.6686
208.1022	0.6549
208.3194	0.7097
208.5365	0.7001
208.7537	0.5787
208.9708	0.5664
209.1879	0.6299
209.405	0.6809
209.6222	0.7488
209.8392	0.6567
210.0563	0.6059
210.2734	0.7058
210.4905	0.6171
210.7075	0.5999
210.9245	0.5743
211.1416	0.701
211.3586	0.6695
211.5756	0.5643
211.7926	0.6135
212.0096	0.6421
212.2265	0.6107
212.4435	0.5437
212.6604	0.578
212.8774	0.5831
213.0943	0.5767
213.3112	0.5521
213.5281	0.5137
213.745	0.5349
213.9619	0.5382
214.1788	0.4629
214.3956	0.4564
214.6125	0.4714
214.8293	0.4211
215.0461	0.4494
215.2629	0.468
215.4798	0.4566
215.6965	0.4201
215.9133	0.4478
216.1301	0.436
216.3469	0.4278
216.5636	0.3938
216.7803	0.3967
216.9971	0.4043
217.2138	0.3882
217.4305	0.3824
217.6472	0.3568
217.8639	0.3985
218.0805	0.3604
218.2972	0.3277
218.5138	0.3251
218.7305	0.3299
218.9471	0.3118
219.1637	0.3003
219.3803	0.2959
219.5969	0.2759
219.8135	0.251
220.0301	0.2699
220.2466	0.2431
220.4632	0.2679
220.6797	0.2324
220.8962	0.2441
221.1127	0.2664
221.3292	0.2493
221.5457	0.2559
221.7622	0.228
221.9787	0.2653
222.1951	0.2387
222.4116	0.2601
222.628	0.2631
222.8444	0.264
223.0608	0.2595
223.2772	0.2685
223.4936	0.2733
223.71	0.2397
223.9264	0.2842
224.1427	0.2634
224.3591	0.2645
224.5754	0.251
224.7917	0.2961
225.008	0.2599
225.2243	0.2654
225.4406	0.289
225.6569	0.2703
225.8732	0.255
226.0894	0.276
226.3057	0.2758
226.5219	0.2897
226.7381	0.269
226.9543	0.2982
227.1705	0.2934
227.3867	0.2957
227.6029	0.3176
227.8191	0.3158
228.0352	0.3227
228.2513	0.3193
228.4675	0.3236
228.6836	0.304
228.8997	0.2964
229.1158	0.3264
229.3319	0.3152
229.548	0.2968
229.764	0.3271
229.9801	0.3156
230.1961	0.3275
230.4121	0.3389
230.6282	0.3603
230.8442	0.3228
231.0602	0.3695
231.2761	0.3414
231.4921	0.3449
231.7081	0.3586
231.924	0.3514
232.14	0.3474
232.3559	0.3531
232.5718	0.3589
232.7877	0.3717
233.0036	0.3553
233.2195	0.3663
233.4353	0.3467
233.6512	0.3688
233.867	0.3504
234.0829	0.3791
234.2987	0.3786
234.5145	0.3816
234.7303	0.3972
234.9461	0.4033
235.1619	0.3808
235.3776	0.3928
235.5934	0.3955
235.8091	0.3763
236.0249	0.3878
236.2406	0.3869
236.4563	0.3928
236.672	0.3896
236.8877	0.3958
237.1034	0.3938
237.319	0.3961
237.5347	0.4082
237.7503	0.4067
237.966	0.4028
238.1816	0.4266
238.3972	0.4158
238.6128	0.3953
238.8284	0.4021
239.0439	0.4157
239.2595	0.4149
239.475	0.4269
239.6906	0.4133
239.9061	0.4104
240.1216	0.4053
240.3371	0.4173
240.5526	0.3928
240.7681	0.4174
240.9836	0.3859
241.199	0.4052
241.4145	0.3934
241.6299	0.3881
241.8453	0.3773
242.0607	0.3785
242.2761	0.3602
242.4915	0.3693
242.7069	0.3696
242.9223	0.3698
243.1376	0.3475
243.353	0.3423
243.5683	0.3374
243.7836	0.3286
243.9989	0.3301
244.2142	0.3012
244.4295	0.3223
244.6448	0.3171
244.86	0.3036
245.0753	0.2785
245.2905	0.2936
245.5057	0.2882
245.721	0.2721
245.9362	0.276
246.1514	0.2747
246.3665	0.2602
246.5817	0.2568
246.7969	0.2566
247.012	0.24
247.2271	0.2458
247.4423	0.2492
247.6574	0.2539
247.8725	0.232
248.0876	0.2244
248.3026	0.2252
248.5177	0.2227
248.7328	0.2094
248.9478	0.1922
249.1628	0.2098
249.3779	0.2219
249.5929	0.2042
249.8079	0.2185
250.0228	0.2037
250.2378	0.1921
250.4528	0.2089
250.6677	0.1751
250.8827	0.1956
251.0976	0.1889
251.3125	0.2004
251.5274	0.1779
251.7423	0.1898
251.9572	0.1783
252.172	0.1827
252.3869	0.1715
252.6017	0.1809
252.8166	0.1771
253.0314	0.1668
253.2462	0.1726
253.461	0.1682
253.6758	0.1744
253.8906	0.178
254.1053	0.1766
254.3201	0.1731
254.5348	0.1878
254.7496	0.1859
254.9643	0.1625
255.179	0.1759
255.3937	0.1698
255.6083	0.1759
255.823	0.1762
256.0377	0.1649
256.2523	0.1758
256.467	0.1647
256.6816	0.1674
256.8962	0.1706
257.1108	0.1649
257.3254	0.1669
257.54	0.1561
257.7545	0.17
257.9691	0.1686
258.1836	0.1714
258.3981	0.1749
258.6127	0.1776
258.8272	0.1544
259.0417	0.1655
259.2561	0.17
259.4706	0.1635
259.6851	0.1667
259.8995	0.1568
260.114	0.168
260.3284	0.1651
260.5428	0.151
260.7572	0.1719
260.9716	0.1666
261.186	0.1633
261.4003	0.1611
261.6147	0.1595
261.829	0.1515
262.0433	0.1522
262.2577	0.1541
262.472	0.172
262.6863	0.1599
262.9005	0.1605
263.1148	0.1717
263.3291	0.149
263.5433	0.1736
263.7576	0.1686
263.9718	0.1716
264.186	0.1585
264.4002	0.1606
264.6144	0.1513
264.8286	0.1785
265.0427	0.1588
265.2569	0.1655
265.471	0.1588
265.6851	0.1612
265.8993	0.1629
266.1134	0.1561
266.3275	0.1602
266.5415	0.1617
266.7556	0.1612
266.9697	0.1544
267.1837	0.1709
267.3978	0.1588
267.6118	0.1692
267.8258	0.1674
268.0398	0.1444
268.2538	0.1621
268.4677	0.1556
268.6817	0.1532
268.8957	0.1642
269.1096	0.1518
269.3235	0.1544
269.5374	0.1515
269.7514	0.153
269.9652	0.1551
270.1791	0.1639
270.393	0.1486
270.6068	0.1555
270.8207	0.1457
271.0345	0.1329
271.2483	0.1471
271.4622	0.1438
271.676	0.1568
271.8897	0.1399
272.1035	0.1489
272.3173	0.1399
272.531	0.1526
272.7448	0.1458
272.9585	0.1457
273.1722	0.1489
273.3859	0.1533
273.5996	0.1329
273.8133	0.1474
274.0269	0.1471
274.2406	0.14
274.4542	0.1482
274.6679	0.1389
274.8815	0.1367
275.0951	0.1475
275.3087	0.1564
275.5223	0.1438
275.7358	0.1462
275.9494	0.1444
276.1629	0.1333
276.3765	0.1434
276.59	0.1525
276.8035	0.1431
277.017	0.1485
277.2305	0.1403
277.444	0.1506
277.6574	0.1492
277.8709	0.15
278.0843	0.1355
278.2978	0.143
278.5112	0.1434
278.7246	0.1473
278.938	0.1452
279.1513	0.1503
279.3647	0.1679
279.5781	0.147
279.7914	0.1655
280.0047	0.1555
280.2181	0.1486
280.4314	0.1496
280.6447	0.1507
280.8579	0.1523
281.0712	0.1538
281.2845	0.1601
281.4977	0.147
281.711	0.1496
281.9242	0.1516
282.1374	0.1637
282.3506	0.1512
282.5638	0.1543
282.7769	0.1592
282.9901	0.1572
283.2033	0.1543
283.4164	0.1519
283.6295	0.1567
283.8426	0.1468
284.0557	0.1694
284.2688	0.169
284.4819	0.1557
284.695	0.1681
284.908	0.1624
285.1211	0.1496
285.3341	0.1603
285.5471	0.1655
285.7601	0.1595
285.9731	0.1489
286.1861	0.1572
286.3991	0.1571
286.612	0.1656
286.825	0.1586
287.0379	0.1581
287.2508	0.1571
287.4637	0.1673
287.6766	0.1539
287.8895	0.1635
288.1024	0.1923
288.3152	0.1703
288.5281	0.1552
288.7409	0.1703
288.9538	0.1624
289.1666	0.1702
289.3794	0.1702
289.5922	0.1617
289.8049	0.1695
290.0177	0.166
290.2304	0.1688
290.4432	0.1647
290.6559	0.1545
290.8686	0.1772
291.0813	0.1708
291.294	0.1751
291.5067	0.1734
291.7194	0.1722
291.932	0.1752
292.1447	0.1661
292.3573	0.1536
292.5699	0.1655
292.7825	0.1624
292.9951	0.1761
293.2077	0.1583
293.4203	0.179
293.6328	0.1516
293.8454	0.174
294.0579	0.1727
294.2704	0.1603
294.4829	0.1709
294.6954	0.1764
294.9079	0.1719
295.1204	0.1705
295.3328	0.174
295.5453	0.1642
295.7577	0.1634
295.9701	0.1585
296.1825	0.1622
296.3949	0.1693
296.6073	0.1576
296.8197	0.1627
297.0321	0.1829
297.2444	0.1548
297.4567	0.1712
297.6691	0.1795
297.8814	0.1631
298.0937	0.1693
298.306	0.1704
298.5182	0.1539
298.7305	0.1783
298.9428	0.1691
299.155	0.176
299.3672	0.1618
299.5794	0.1622
299.7916	0.1686
300.0038	0.1724
300.216	0.1661
300.4282	0.178
300.6403	0.1448
300.8525	0.1766
301.0646	0.1638
301.2767	0.1714
301.4888	0.1714
301.7009	0.1728
301.913	0.1497
302.125	0.1663
302.3371	0.1584
302.5491	0.1612
302.7612	0.1704
302.9732	0.1683
303.1852	0.1669
303.3972	0.16
303.6092	0.169
303.8211	0.1558
304.0331	0.1567
304.245	0.1362
304.457	0.1541
304.6689	0.1556
304.8808	0.1689
305.0927	0.1558
305.3046	0.1531
305.5164	0.1522
305.7283	0.1513
305.9401	0.1459
306.152	0.1421
306.3638	0.1526
306.5756	0.1437
306.7874	0.1435
306.9992	0.1445
307.2109	0.1434
307.4227	0.1258
307.6344	0.1462
307.8462	0.1408
308.0579	0.1375
308.2696	0.142
308.4813	0.1358
308.693	0.1255
308.9046	0.1398
309.1163	0.1313
309.328	0.1269
309.5396	0.1229
309.7512	0.1256
309.9628	0.1213
310.1744	0.1239
310.386	0.1276
310.5976	0.1212
310.8091	0.1214
311.0207	0.1163
311.2322	0.1166
311.4437	0.1144
311.6552	0.1234
311.8667	0.1152
312.0782	0.1007
312.2897	0.0986
312.5012	0.1076
312.7126	0.109
312.924	0.1083
313.1355	0.1146
313.3469	0.1137
313.5583	0.1123
313.7696	0.1188
313.981	0.0973
314.1924	0.0946
314.4037	0.1012
314.6151	0.0996
314.8264	0.0961
315.0377	0.0909
315.249	0.1011
315.4603	0.1102
315.6716	0.1053
315.8828	0.0898
316.0941	0.1033
316.3053	0.0953
316.5165	0.0949
316.7277	0.0983
316.9389	0.1003
317.1501	0.1056
317.3613	0.0974
317.5724	0.0938
317.7836	0.106
317.9947	0.0977
318.2058	0.0995
318.417	0.0865
318.6281	0.0894
318.8391	0.0933
319.0502	0.0858
319.2613	0.104
319.4723	0.0992
319.6834	0.1127
319.8944	0.0975
320.1054	0.1049
320.3164	0.1061
320.5274	0.0924
320.7383	0.0923
320.9493	0.0919
321.1602	0.1024
321.3712	0.0838
321.5821	0.0974
321.793	0.0995
322.0039	0.0992
322.2148	0.0956
322.4257	0.0945
322.6365	0.1124
322.8474	0.109
323.0582	0.0967
323.269	0.1087
323.4798	0.1065
323.6906	0.1118
323.9014	0.0995
324.1122	0.0961
324.3229	0.0883
324.5337	0.0932
324.7444	0.0904
324.9551	0.1268
325.1658	0.1066
325.3765	0.1142
325.5872	0.1062
325.7979	0.1026
326.0085	0.1082
326.2192	0.107
326.4298	0.0999
326.6404	0.0969
326.851	0.0896
327.0616	0.0989
327.2722	0.1191
327.4828	0.0997
327.6933	0.0924
327.9039	0.1025
328.1144	0.1059
328.3249	0.1066
328.5354	0.097
328.7459	0.1012
328.9564	0.0894
329.1669	0.1025
329.3773	0.1086
329.5878	0.1025
329.7982	0.102
330.0086	0.1084
330.219	0.1025
330.4294	0.1022
330.6398	0.1065
330.8502	0.0881
331.0605	0.1046
331.2708	0.105
331.4812	0.1041
331.6915	0.1105
331.9018	0.1106
332.1121	0.1051
332.3224	0.1081
332.5326	0.1045
332.7429	0.1007
332.9531	0.1145
333.1633	0.1118
333.3735	0.1048
333.5837	0.1055
333.7939	0.1066
334.0041	0.1132
334.2143	0.1214
334.4244	0.1078
334.6346	0.0874
334.8447	0.1302
335.0548	0.1049
335.2649	0.1054
335.475	0.1086
335.685	0.1046
335.8951	0.1137
336.1051	0.1117
336.3152	0.1194
336.5252	0.1011
336.7352	0.1106
336.9452	0.1218
337.1552	0.1057
337.3652	0.1014
337.5751	0.1093
337.7851	0.107
337.995	0.0967
338.2049	0.114
338.4148	0.11
338.6247	0.1087
338.8346	0.11
339.0445	0.1076
339.2543	0.0991
339.4642	0.1135
339.674	0.0999
339.8838	0.1223
340.0936	0.1205
340.3034	0.1159
340.5132	0.1239
340.7229	0.1215
340.9327	0.1089
341.1424	0.1185
341.3522	0.1304
341.5619	0.1232
341.7716	0.1085
341.9813	0.1222
342.1909	0.1155
342.4006	0.1169
342.6102	0.1242
342.8199	0.1238
343.0295	0.1276
343.2391	0.1168
343.4487	0.1321
343.6583	0.1148
343.8679	0.1178
344.0774	0.1218
344.287	0.1243
344.4965	0.1192
344.706	0.1235
344.9155	0.1243
345.125	0.1158
345.3345	0.1293
345.544	0.1148
345.7534	0.1279
345.9629	0.1224
346.1723	0.1212
346.3817	0.1206
346.5911	0.1276
346.8005	0.1292
347.0099	0.1235
347.2193	0.132
347.4286	0.1301
347.638	0.1292
347.8473	0.1446
348.0566	0.1369
348.2659	0.1357
348.4752	0.1314
348.6845	0.1249
348.8937	0.1357
349.103	0.1372
349.3122	0.1333
349.5214	0.1213
349.7306	0.1367
349.9398	0.1359
350.149	0.1358
350.3582	0.1361
350.5674	0.1451
350.7765	0.1302
350.9856	0.1359
351.1948	0.1309
351.4039	0.1291
351.613	0.1417
351.822	0.1421
352.0311	0.1391
352.2402	0.1403
352.4492	0.1425
352.6582	0.1499
352.8672	0.1376
353.0762	0.1454
353.2852	0.1442
353.4942	0.1349
353.7032	0.1505
353.9121	0.1549
354.1211	0.1575
354.33	0.1617
354.5389	0.1431
354.7478	0.1339
354.9567	0.1486
355.1655	0.15
355.3744	0.1578
355.5833	0.1479
355.7921	0.1596
356.0009	0.169
356.2097	0.1701
356.4185	0.1751
356.6273	0.163
356.8361	0.1634
357.0448	0.1549
357.2536	0.1521
357.4623	0.1649
357.671	0.1677
357.8797	0.1653
358.0884	0.1655
358.2971	0.1565
358.5057	0.1696
358.7144	0.1811
358.923	0.1744
359.1316	0.1644
359.3402	0.1619
359.5488	0.1664
359.7574	0.1587
359.966	0.1556
360.1746	0.1724
360.3831	0.1737
360.5916	0.1783
360.8002	0.1721
361.0087	0.1812
361.2172	0.1671
361.4256	0.182
361.6341	0.1982
361.8426	0.1818
362.051	0.1897
362.2594	0.1791
362.4678	0.184
362.6762	0.1994
362.8846	0.1895
363.093	0.1768
363.3014	0.1895
363.5097	0.1694
363.718	0.1954
363.9264	0.1936
364.1347	0.1807
364.343	0.1941
364.5513	0.1906
364.7595	0.2006
364.9678	0.2014
365.176	0.197
365.3842	0.1965
365.5925	0.1854
365.8007	0.1832
366.0089	0.1918
366.217	0.1913
366.4252	0.19
366.6333	0.2202
366.8415	0.2012
367.0496	0.1917
367.2577	0.205
367.4658	0.2129
367.6739	0.2174
367.882	0.2105
368.09	0.2153
368.2981	0.2094
368.5061	0.2009
368.7141	0.222
368.9221	0.2313
369.1301	0.2053
369.3381	0.2013
369.5461	0.2032
369.754	0.2177
369.962	0.213
370.1699	0.2132
370.3778	0.2265
370.5857	0.1959
370.7936	0.2008
371.0015	0.2165
371.2093	0.2327
371.4172	0.2345
371.625	0.2159
371.8328	0.2127
372.0406	0.2273
372.2484	0.2235
372.4562	0.2204
372.664	0.2317
372.8717	0.2432
373.0795	0.2029
373.2872	0.2224
373.4949	0.2125
373.7026	0.2324
373.9103	0.236
374.118	0.2275
374.3256	0.2371
374.5333	0.2228
374.7409	0.2167
374.9485	0.2338
375.1561	0.2415
375.3637	0.243
375.5713	0.2402
375.7789	0.2382
375.9864	0.2351
376.194	0.2335
376.4015	0.2521
376.609	0.2454
376.8165	0.2475
377.024	0.2405
377.2315	0.2468
377.4389	0.2492
377.6464	0.2531
377.8538	0.2388
378.0612	0.2402
378.2686	0.2394
378.476	0.2498
378.6834	0.2487
378.8908	0.2432
379.0981	0.2491
379.3055	0.2653
379.5128	0.2331
379.7201	0.2464
379.9274	0.2443
380.1347	0.2576
380.342	0.2575
380.5492	0.2463
380.7565	0.2524
380.9637	0.254
381.1709	0.2494
381.3781	0.2418
381.5853	0.2698
381.7925	0.2556
381.9997	0.2572
382.2068	0.262
382.4139	0.2593
382.6211	0.2573
382.8282	0.2583
383.0353	0.2705
383.2424	0.2603
383.4494	0.2666
383.6565	0.2588
383.8635	0.264
384.0706	0.2644
384.2776	0.2719
384.4846	0.2622
384.6916	0.2744
384.8986	0.2405
385.1055	0.2571
385.3125	0.2716
385.5194	0.2589
385.7263	0.2754
385.9333	0.2632
386.1402	0.2698
386.347	0.2458
386.5539	0.2589
386.7608	0.2602
386.9676	0.2459
387.1744	0.2608
387.3813	0.2462
387.5881	0.2648
387.7948	0.2648
388.0016	0.2636
388.2084	0.247
388.4151	0.2354
388.6219	0.2578
388.8286	0.2483
389.0353	0.2559
389.242	0.2465
389.4487	0.2357
389.6553	0.2452
389.862	0.2309
390.0686	0.2513
390.2753	0.2574
390.4819	0.2532
390.6885	0.2447
390.8951	0.239
391.1016	0.2275
391.3082	0.2457
391.5147	0.2308
391.7213	0.2296
391.9278	0.2222
392.1343	0.2297
392.3408	0.244
392.5473	0.2459
392.7537	0.2456
392.9602	0.2354
393.1666	0.2332
393.373	0.2228
393.5794	0.2348
393.7858	0.2197
393.9922	0.2163
394.1986	0.2285
394.4049	0.2436
394.6113	0.2235
394.8176	0.2177
395.0239	0.2134
395.2302	0.2182
395.4365	0.2287
395.6428	0.2167
395.8491	0.2178
396.0553	0.2084
396.2615	0.2188
396.4678	0.2265
396.674	0.1998
396.8802	0.2146
397.0863	0.2178
397.2925	0.2152
397.4987	0.2068
397.7048	0.2076
397.9109	0.2263
398.117	0.198
398.3231	0.2055
398.5292	0.2391
398.7353	0.2267
398.9413	0.207
399.1474	0.2206
399.3534	0.2107
399.5594	0.1953
399.7654	0.2343
399.9714	0.2236
400.1774	0.2303
400.3833	0.221
400.5893	0.2129
400.7952	0.2141
401.0011	0.2207
401.207	0.2293
401.4129	0.2306
401.6188	0.2344
401.8247	0.234
402.0305	0.2171
402.2364	0.216
402.4422	0.2389
402.648	0.2171
402.8538	0.2285
403.0596	0.2098
403.2654	0.2142
403.4711	0.2103
403.6768	0.2191
403.8826	0.227
404.0883	0.2192
404.294	0.2149
404.4997	0.208
404.7054	0.2137
404.911	0.2003
405.1167	0.2231
405.3223	0.2246
405.5279	0.212
405.7335	0.225
405.9391	0.22
406.1447	0.2039
406.3502	0.2421
406.5558	0.2098
406.7613	0.2262
406.9668	0.2113
407.1724	0.2204
407.3778	0.2135
407.5833	0.2163
407.7888	0.2005
407.9942	0.2179
408.1997	0.2028
408.4051	0.2138
408.6105	0.2177
408.8159	0.2048
409.0213	0.2093
409.2267	0.2331
409.432	0.2005
409.6374	0.2122
409.8427	0.2005
410.048	0.228
410.2533	0.2086
410.4586	0.2078
410.6639	0.2111
410.8691	0.2112
411.0744	0.2124
411.2796	0.2103
411.4848	0.2211
411.69	0.2029
411.8952	0.239
412.1004	0.1936
412.3056	0.2135
412.5107	0.2078
412.7158	0.2364
412.921	0.1919
413.1261	0.2266
413.3312	0.2059
413.5362	0.2179
413.7413	0.2052
413.9464	0.2051
414.1514	0.2262
414.3564	0.2092
414.5614	0.2092
414.7664	0.2136
414.9714	0.2251
415.1764	0.2164
415.3813	0.2229
415.5863	0.211
415.7912	0.2052
415.9961	0.2061
416.201	0.2088
416.4059	0.228
416.6108	0.2084
416.8156	0.2124
417.0205	0.2004
417.2253	0.1927
417.4301	0.2047
417.6349	0.2086
417.8397	0.1732
418.0445	0.2044
418.2492	0.2123
418.454	0.2164
418.6587	0.2164
418.8634	0.2066
419.0681	0.1829
419.2728	0.1944
419.4775	0.189
419.6822	0.191
419.8868	0.1693
420.0915	0.203
420.2961	0.1829
420.5007	0.1894
420.7053	0.197
420.9099	0.2055
421.1144	0.1955
421.319	0.1891
421.5235	0.2005
421.728	0.1975
421.9325	0.2039
422.137	0.1926
422.3415	0.189
422.546	0.1873
422.7504	0.1932
422.9549	0.1911
423.1593	0.1879
423.3637	0.1917
423.5681	0.1835
423.7725	0.1725
423.9769	0.1871
424.1812	0.1631
424.3856	0.1754
424.5899	0.1768
424.7942	0.1762
424.9985	0.1725
425.2028	0.1845
425.4071	0.1927
425.6113	0.1708
425.8156	0.1873
426.0198	0.1827
426.224	0.1613
426.4282	0.1838
426.6324	0.1563
426.8366	0.1838
427.0407	0.1683
427.2449	0.1465
427.449	0.1741
427.6531	0.1441
427.8572	0.1481
428.0613	0.1569
428.2654	0.1797
428.4694	0.1522
428.6735	0.1628
428.8775	0.1571
429.0815	0.157
429.2855	0.1446
429.4895	0.1604
429.6935	0.1601
429.8975	0.1501
430.1014	0.1435
430.3053	0.1388
430.5093	0.146
430.7132	0.1396
430.9171	0.1402
431.1209	0.1465
431.3248	0.1557
431.5286	0.1442
431.7325	0.1552
431.9363	0.1238
432.1401	0.1434
432.3439	0.1384
432.5477	0.1063
432.7514	0.1191
432.9552	0.1499
433.1589	0.1269
433.3627	0.1108
433.5664	0.1255
433.7701	0.1157
433.9737	0.1401
434.1774	0.1243
434.3811	0.1225
434.5847	0.1318
434.7883	0.1178
434.9919	0.1071
435.1955	0.1161
435.3991	0.1146
435.6027	0.1146
435.8062	0.1074
436.0098	0.1109
436.2133	0.1011
436.4168	0.0944
436.6203	0.1156
436.8238	0.1164
437.0272	0.0974
437.2307	0.0925
437.4341	0.104
437.6375	0.1073
437.841	0.1071
438.0443	0.0964
438.2477	0.0994
438.4511	0.0806
438.6545	0.0916
438.8578	0.0808
439.0611	0.0913
439.2644	0.0952
439.4677	0.0674
439.671	0.0926
439.8743	0.0748
440.0775	0.0787
440.2808	0.0813
440.484	0.0591
440.6872	0.0592
440.8904	0.0805
441.0936	0.0926
441.2967	0.0787
441.4999	0.0733
441.703	0.0694
441.9062	0.0609
442.1093	0.0573
442.3124	0.0759
442.5155	0.0601
442.7185	0.0644
442.9216	0.0421
443.1246	0.0726
443.3276	0.063
443.5307	0.0547
443.7337	0.0674
443.9366	0.0463
444.1396	0.0552
444.3426	0.0666
444.5455	0.0693
444.7484	0.044
444.9513	0.0567
445.1542	0.0628
445.3571	0.05
445.56	0.047
445.7628	0.0416
445.9657	0.0489
446.1685	0.0533
446.3713	0.0512
446.5741	0.0493
446.7769	0.042
446.9797	0.05
447.1824	0.0475
447.3852	0.0361
447.5879	0.049
447.7906	0.0478
447.9933	0.0249
448.196	0.0343
448.3986	0.034
448.6013	0.0287
448.8039	0.035
449.0066	0.0304
449.2092	0.0407
449.4118	0.0387
449.6143	0.0291
449.8169	0.0407
450.0195	0.0341
450.222	0.0001
450.4245	0.0344
450.627	0.0274
450.8295	0.0291
451.032	0.0167
451.2345	0.0359
451.4369	0.0412
451.6394	0.0396
451.8418	0.0212
452.0442	0.0235
452.2466	0.0316
452.449	0.0141
452.6513	0.0274
452.8537	0.021
453.056	0.011
453.2583	0.0226
453.4607	0.0249
453.663	0.0249
453.8652	0.0254
454.0675	0.0166
454.2697	0.0339
454.472	0.0218
454.6742	0.0098
454.8764	0.0167
455.0786	0.0219
455.2808	0.02
455.4829	0.0076
455.6851	0.0294
455.8872	0.0365
456.0893	0.0203
456.2915	0.0004
456.4935	0.017
456.6956	0.0029
456.8977	0.0107
457.0997	-0.0015
457.3018	0.0023
457.5038	0.025
457.7058	0.0068
457.9078	0.0202
458.1098	0.0255
458.3117	0.008
458.5137	0.013
458.7156	0.0276
458.9175	-0.003
459.1194	0.0071
459.3213	0.0175
459.5232	-0.0011
459.725	-0.0059
459.9269	-0.01
460.1287	0.0063
460.3305	-0.0013
460.5323	0.0166
460.7341	0.0113
460.9359	0.0108
461.1376	0.0008
461.3394	0.0055
461.5411	0.0132
461.7428	0.0055
461.9445	0.0149
462.1462	0.0333
462.3479	0.0098
462.5495	0.0113
462.7512	0.003
462.9528	-0.0036
463.1544	-0.0051
463.356	0.0077
463.5576	0.0068
463.7592	-0.004
463.9607	0.0069
464.1623	0.0212
464.3638	0.0325
464.5653	0.0021
464.7668	0.0046
464.9683	0.006
465.1697	0.019
465.3712	0.0005
465.5726	0.0089
465.7741	0.0025
465.9755	0.0002
466.1769	-0.001
466.3782	-0.001
466.5796	-0.0147
466.7809	0.0123
466.9823	-0.0072
467.1836	-0.0028
467.3849	-0.0061
467.5862	-0.0001
467.7875	-0.0051
467.9887	0.0103
468.19	0.0064
468.3912	-0.0146
468.5924	-0.0097
468.7936	0.0068
468.9948	-0.0144
469.196	-0.0053
469.3972	-0.0134
469.5983	0.0045
469.7994	-0.0235
470.0006	-0.0079
470.2017	-0.0176
470.4027	-0.0142
470.6038	-0.0056
470.8049	0.002
471.0059	-0.0043
471.2069	-0.0262
471.408	0.0103
471.6089	-0.0021
471.8099	0.0113
472.0109	0.0007
472.2119	-0.0074
472.4128	-0.0151
472.6137	-0.0037
472.8146	-0.0079
473.0155	0.0059
473.2164	-0.0057
473.4173	0.0053
473.6181	-0.0065
473.819	0.0019
474.0198	-0.0084
474.2206	-0.0107
474.4214	-0.0042
474.6222	-0.0179
474.8229	-0.0043
475.0237	-0.0015
475.2244	-0.0096
475.4251	-0.0134
475.6258	-0.006
475.8265	0.0085
476.0272	0.0066
476.2278	-0.0011
476.4285	-0.0109
476.6291	-0.0143
476.8297	-0.0119
477.0303	-0.0106
477.2309	-0.0004
477.4315	-0.0181
477.632	-0.0074
477.8326	-0.0076
478.0331	0
478.2336	0.0063
478.4341	0.0027
478.6346	0.0057
478.8351	-0.0055
479.0355	0.0041
479.236	-0.0102
479.4364	0.0004
479.6368	-0.0057
479.8372	-0.0101
480.0376	-0.0102
480.2379	-0.0163
480.4383	-0.0209
480.6386	-0.0002
480.8389	0.0039
481.0392	0.0025
481.2395	0.0055
481.4398	0.0026
481.6401	0.0025
481.8403	-0.0089
482.0405	-0.008
482.2408	-0.0096
482.441	0.0039
482.6411	-0.0083
482.8413	-0.0107
483.0415	-0.0092
483.2416	-0.0189
483.4417	0.0019
483.6419	-0.0086
483.8419	-0.0067
484.042	0.0094
484.2421	0.0125
484.4422	0.0043
484.6422	-0.007
484.8422	-0.002
485.0422	-0.0166
485.2422	0.0013
485.4422	-0.0012
485.6422	-0.0076
485.8421	-0.0053
486.042	0.0034
486.242	-0.0053
486.4419	-0.0143
486.6417	-0.0065
486.8416	0.0006
487.0415	-0.0086
487.2413	-0.0103
487.4411	-0.0007
487.641	-0.0094
487.8408	0.005
488.0405	-0.0077
488.2403	-0.0008
488.4401	0.0053
488.6398	-0.0129
488.8395	-0.0035
489.0392	0.0062
489.2389	-0.0076
489.4386	-0.008
489.6383	-0.0053
489.8379	-0.0071
490.0376	-0.0117
490.2372	-0.0187
490.4368	-0.0115
490.6364	-0.0104
490.836	-0.0117
491.0355	-0.0077
491.2351	-0.0089
491.4346	-0.0095
491.6341	-0.0148
491.8336	-0.0004
492.0331	-0.0112
492.2326	-0.0199
492.432	-0.0189
492.6315	-0.0137
492.8309	-0.0201
493.0303	-0.0109
493.2297	-0.0015
493.4291	-0.0061
493.6284	-0.0054
493.8278	-0.0062
494.0271	-0.0003
494.2264	-0.0039
494.4257	-0.0025
494.625	-0.0081
494.8243	-0.0196
495.0236	-0.013
495.2228	-0.0186
495.422	-0.0033
495.6213	-0.0002
495.8205	0.001
496.0196	-0.0074
496.2188	-0.0004
496.418	-0.0159
496.6171	-0.006
496.8162	-0.0144
497.0153	-0.0007
497.2144	-0.0089
497.4135	-0.0063
497.6126	-0.0103
497.8116	-0.0102
498.0107	-0.0044
498.2097	-0.0157
498.4087	-0.0053
498.6077	0.0052
498.8067	-0.01
499.0056	0.0021
499.2046	-0.0124
499.4035	-0.0148
499.6024	-0.0136
499.8013	-0.0052
500.0002	-0.0121
500.199	0.0003
500.3979	-0.0043
500.5967	-0.0194
500.7956	-0.0043
500.9944	-0.0062
501.1932	-0.0133
501.3919	-0.0089
501.5907	-0.0124
501.7895	-0.003
501.9882	-0.0063
502.1869	-0.0049
502.3856	-0.0164
502.5843	-0.011
502.783	-0.0024
502.9816	-0.0106
503.1803	-0.0119
503.3789	-0.0157
503.5775	-0.002
503.7761	-0.0113
503.9747	-0.0027
504.1732	-0.0032
504.3718	-0.0051
504.5703	-0.0032
504.7689	0.0024
504.9674	0.0026
505.1658	-0.0116
505.3643	-0.0017
505.5628	0.0015
505.7612	-0.0042
505.9597	-0.001
506.1581	-0.0087
506.3565	0.0011
506.5549	-0.0008
506.7532	-0.0211
506.9516	0.0051
507.1499	0.0016
507.3482	-0.017
507.5465	-0.0062
507.7448	-0.0007
507.9431	-0.0033
508.1414	0.0011
508.3396	-0.0052
508.5379	0.0004
508.7361	-0.0067
508.9343	-0.0079
509.1325	0.0018
509.3306	-0.0046
509.5288	0.0022
509.7269	-0.0061
509.9251	-0.007
510.1232	-0.0078
510.3213	0.0039
510.5193	0.0003
510.7174	-0.0097
510.9154	-0.0116
511.1135	-0.0115
511.3115	-0.0034
511.5095	-0.0058
511.7075	-0.0049
511.9055	-0.0057
512.1034	-0.0138
512.3014	0.0032
512.4993	0.0033
512.6972	-0.0023
512.8951	-0.0162
513.093	-0.0112
513.2908	-0.0056
513.4887	-0.0061
513.6865	-0.0105
513.8844	-0.0079
514.0822	-0.0166
514.2799	-0.0108
514.4777	-0.0105
514.6755	-0.0118
514.8732	-0.012
515.0709	0.0007
515.2687	-0.001
515.4664	0.0013
515.664	-0.0099
515.8617	-0.0042
516.0594	-0.0062
516.257	-0.0029
516.4546	-0.0125
516.6522	-0.0038
516.8498	0.0016
517.0474	-0.0043
517.2449	-0.0047
517.4425	-0.0097
517.64	-0.0061
517.8375	-0.0024
518.035	0.0017
518.2325	-0.0156
518.43	-0.003
518.6274	-0.0101
518.8249	-0.019
519.0223	-0.0058
519.2197	-0.0055
519.4171	-0.0019
519.6145	-0.0171
519.8118	-0.0058
520.0092	-0.0016
520.2065	-0.0091
520.4038	-0.0179
520.6011	-0.0003
520.7984	-0.0108
520.9956	-0.0109
521.1929	-0.0129
521.3901	-0.0062
521.5874	0.0005
521.7846	0.0035
521.9818	-0.0143
522.1789	0.0006
522.3761	-0.0024
522.5732	-0.0023
522.7704	0
522.9675	-0.0013
523.1646	-0.0087
523.3617	0.0071
523.5587	-0.0162
523.7558	-0.0075
523.9528	-0.0049
524.1498	-0.0051
524.3468	-0.0067
524.5438	-0.0045
524.7408	-0.0051
524.9378	0.0102
525.1347	-0.0007
525.3316	-0.0053
525.5285	-0.0095
525.7254	-0.01
525.9223	-0.0048
526.1192	-0.0007
526.316	-0.0113
526.5129	0.0002
526.7097	-0.0025
526.9065	-0.0159
527.1033	-0.008
527.3	-0.0032
527.4968	-0.0055
527.6935	-0.0064
527.8903	-0.0092
528.087	-0.0081
528.2837	0.0015
528.4804	-0.0071
528.677	-0.0014
528.8737	0.0019
529.0703	-0.0022
529.2669	-0.007
529.4635	-0.0116
529.6601	-0.0015
529.8567	-0.0063
530.0532	-0.0043
530.2498	0.0026
530.4463	-0.0009
530.6428	-0.0031
530.8393	0.003
531.0358	-0.0031
531.2322	-0.0101
531.4287	-0.0119
531.6251	-0.0097
531.8215	0.0025
532.0179	-0.0087
532.2143	0.0035
532.4107	-0.0067
532.607	0.0017
532.8034	-0.0044
532.9997	0.0023
533.196	-0.0042
533.3923	-0.0001
533.5886	0.002
533.7848	-0.0057
533.9811	-0.0073
534.1773	-0.0009
534.3735	0.0053
534.5697	-0.0091
534.7659	0.0039
534.9621	0.006
535.1582	-0.0084
535.3544	-0.0087
535.5505	-0.0117
535.7466	0.0045
535.9427	-0.006
536.1387	-0.0048
536.3348	-0.0035
536.5308	-0.0026
536.7269	-0.0097
536.9229	-0.0025
537.1189	-0.0025
537.3148	0.0019
537.5108	-0.0068
537.7068	0.0035
537.9027	-0.0001
538.0986	-0.0041
538.2945	-0.008
538.4904	-0.008
538.6863	-0.0075
538.8821	-0.0009
539.078	-0.0081
539.2738	0.0047
539.4696	-0.0077
539.6654	0.0058
539.8611	0.0129
540.0569	-0.0068
540.2526	-0.0047
540.4484	-0.002
540.6441	0.0036
540.8398	-0.006
541.0355	0.01
541.2311	-0.0074
541.4268	-0.0152
541.6224	0.0087
541.818	0.0041
542.0136	-0.0067
542.2092	-0.0029
542.4048	0.0018
542.6003	-0.0055
542.7959	0.0043
542.9914	-0.0041
543.1869	0.0055
543.3824	-0.0038
543.5779	-0.0052
543.7734	-0.0037
543.9688	0.0021
544.1642	0.0012
544.3596	0.0068
544.555	-0.0001
544.7504	-0.0008
544.9458	-0.005
545.1411	-0.0045
545.3365	-0.0072
545.5318	-0.0006
545.7271	0.0019
545.9224	-0.0019
546.1177	0.0037
546.3129	0.0042
546.5081	0.0003
546.7034	-0.0046
546.8986	-0.0101
547.0938	-0.0037
547.289	-0.0052
547.4841	0.002
547.6793	0.0041
547.8744	-0.014
548.0695	-0.0081
548.2646	-0.0012
548.4597	-0.0025
548.6548	-0.0052
548.8498	0.0009
549.0448	-0.003
549.2399	0.0028
549.4349	0.0076
549.6298	-0.001
549.8248	-0.0033
550.0198	-0.003
550.2147	-0.0061
550.4096	-0.0024
550.6045	-0.0058
550.7994	0.0022
550.9943	0.0042
551.1892	0.0041
551.384	0.0045
551.5788	-0.0102
551.7737	0.003
551.9685	-0.0032
552.1632	-0.0016
552.358	-0.0127
552.5528	0.0053
552.7475	-0.0024
552.9422	0.0051
553.1369	-0.004
553.3316	0.0028
553.5263	-0.0088
553.7209	0.0077
553.9156	-0.0009
554.1102	-0.0122
554.3048	-0.004
554.4994	0.0075
554.694	-0.0077
554.8885	0.005
555.0831	-0.0048
555.2776	-0.0058
555.4721	0.0026
555.6666	-0.0075
555.8611	0.0038
556.0555	0.0034
556.25	-0.0063
556.4444	-0.0041
556.6388	0.0028
556.8332	-0.0078
557.0276	-0.0019
557.222	-0.0031
557.4163	0.0001
557.6107	-0.019
557.805	0.0051
557.9993	-0.0033
558.1936	-0.0039
558.3879	-0.003
558.5821	0.0077
558.7764	-0.0006
558.9706	-0.0023
559.1648	-0.0008
559.359	-0.0054
559.5532	-0.002
559.7473	-0.0059
559.9415	-0.0022
560.1356	-0.0031
560.3297	-0.0104
560.5238	-0.0081
560.7179	-0.0048
560.9119	-0.0005
561.106	-0.0025
561.3	-0.0073
561.494	0.0019
561.688	-0.0076
561.882	-0.0108
562.076	-0.0006
562.2699	0.0011
562.4639	-0.0057
562.6578	-0.0087
562.8517	0.0066
563.0456	-0.0047
563.2395	0.0021
563.4333	-0.0038
563.6272	0.004
563.821	-0.0054
564.0148	-0.002
564.2086	-0.0017
564.4024	-0.0043
564.5961	-0.0042
564.7899	0.0008
564.9836	0.0001
565.1773	0.0018
565.371	0.0122
565.5647	-0.0017
565.7584	0.0065
565.952	0.0025
566.1456	0.0057
566.3393	-0.0036
566.5329	-0.0018
566.7264	-0.0056
566.92	-0.0068
567.1136	0.0095
567.3071	-0.0041
567.5006	0.0107
567.6941	0.003
567.8876	-0.0033
568.0811	-0.0059
568.2745	-0.0004
568.468	0.0071
568.6614	0.0085
568.8548	0.0049
569.0482	-0.0032
569.2416	0.0077
569.4349	0.0076
569.6283	0.0101
569.8216	-0.0045
570.0149	-0.0023
570.2082	0.0051
570.4015	0.0024
570.5947	0.0144
570.788	0.0064
570.9812	0.0053
571.1744	-0.0012
571.3676	-0.002
571.5608	0.0008
571.754	0.0024
571.9471	0.0004
572.1402	0
572.3333	-0.0022
572.5264	0.002
572.7195	0.0003
572.9126	0.0051
573.1057	0.0026
573.2987	-0.0008
573.4917	-0.0009
573.6847	-0.0044
573.8777	0.0067
574.0707	0.0114
574.2636	-0.002
574.4566	-0.005
574.6495	0.0086
574.8424	0.0022
575.0353	0.0021
575.2281	0.0134
575.421	0.0031
575.6138	-0.0012
575.8067	0.0012
575.9995	0.0033
576.1923	0.0084
576.385	0.0028
576.5778	0.0011
576.7706	0.0019
576.9633	0.0023
577.156	0.0067
577.3487	0.0011
577.5414	0.0004
577.734	0.0013
577.9267	0.0033
578.1193	-0.0099
578.3119	0.0012
578.5045	-0.001
578.6971	0.0011
578.8897	0.0058
579.0822	0.0041
579.2747	0.0037
579.4673	-0.0017
579.6598	0.0019
579.8522	-0.0015
580.0447	-0.0014
580.2372	0.0063
580.4296	0.0105
580.622	0.0028
580.8144	-0.0006
581.0068	0.0023
581.1992	-0.0066
581.3915	-0.0061
581.5839	0.0001
581.7762	-0.0032
581.9685	-0.001
582.1608	0.0045
582.353	-0.0033
582.5453	0.0033
582.7375	0.0046
582.9298	0.0079
583.122	0.0036
583.3142	0.0005
583.5063	0.0046
583.6985	0.0071
583.8906	-0.0025
584.0827	-0.0028
584.2749	0.006
584.4669	0.0058
584.659	0.0017
584.8511	0.0025
585.0431	-0.0006
585.2352	0.0096
585.4272	0.0006
585.6192	0.0044
585.8111	-0.0002
586.0031	0.0074
586.195	0.003
586.387	0.0111
586.5789	-0.0036
586.7708	0.0065
586.9627	-0.0039
587.1545	-0.0051
587.3464	0.0064
587.5382	0.0012
587.73	-0.0028
587.9218	0.0068
588.1136	0.0032
588.3053	0.008
588.4971	-0.0019
588.6888	-0.0072
588.8805	-0.0025
589.0722	0.0088
589.2639	0.0054
589.4556	-0.0002
589.6472	-0.0001
589.8389	-0.0043
590.0305	-0.0063
590.2221	0.0003
590.4137	-0.0034
590.6052	0.0089
590.7968	0.0034
590.9883	0.0013
591.1798	0.0058
591.3713	0.0011
591.5628	0.0039
591.7543	0.0145
591.9458	0.0053
592.1372	0.0094
592.3286	0.013
592.52	0.0055
592.7114	-0.0005
592.9028	0.0001
593.0941	0.006
593.2855	0.0069
593.4768	-0.0002
593.6681	-0.0025
593.8594	-0.0046
594.0506	0.0063
594.2419	0.0094
594.4331	0.0015
594.6244	0.005
594.8156	0.0027
595.0067	0.0039
595.1979	0.0076
595.3891	0.003
595.5802	0.0009
595.7713	-0.0025
595.9624	-0.001
596.1535	0.0017
596.3446	0.0005
596.5357	0.0059
596.7267	0.0031
596.9177	0.0009
597.1087	-0.0013
597.2997	-0.0002
597.4907	0.0069
597.6817	-0.0019
597.8726	0.0014
598.0635	-0.0048
598.2544	-0.0016
598.4453	-0.0009
598.6362	0.0025
598.827	0.0007
599.0179	0.0048
599.2087	0.0052
599.3995	-0.0002
599.5903	0.0017
599.7811	0.0063
599.9718	0.0028
600.1626	-0.0005
600.3533	-0.0034
600.544	0.0025
600.7347	0.0036
600.9254	0.0025
601.116	0.0012
601.3067	0.0007
601.4973	0.0025
601.6879	0.0075
601.8785	-0.0078
602.0691	0.0021
602.2596	0.0081
602.4502	0.006
602.6407	0.0046
602.8312	0.0052
603.0217	0.0026
603.2122	0.001
603.4027	0.0029
603.5931	-0.0035
603.7835	-0.0091
603.9739	-0.0002
604.1643	-0.0005
604.3547	-0.0028
604.5451	0.0075
604.7354	0.0052
604.9257	0.006
605.116	0.0047
605.3063	0.0124
605.4966	0.0053
605.6869	0.006
605.8771	0.0088
606.0673	0.0055
606.2575	0.0083
606.4477	0.0109
606.6379	0.0057
606.8281	0.0046
607.0182	0.0025
607.2083	0.0063
607.3985	-0.0014
607.5885	-0.003
607.7786	0.0061
607.9687	-0.0001
608.1587	-0.0034
608.3488	0.002
608.5388	-0.0065
608.7288	-0.0031
608.9187	0.0012
609.1087	-0.0032
609.2986	-0.0036
609.4886	0.0028
609.6785	-0.001
609.8684	0.0036
610.0582	0.0038
610.2481	0.0118
610.4379	-0.0002
610.6278	0.0036
610.8176	-0.0015
611.0074	0.007
611.1971	0.0023
611.3869	0.0011
611.5766	0.0005
611.7664	0.0135
611.9561	0.0057
612.1458	0.0033
612.3354	-0.0048
612.5251	0.0062
612.7147	0.0122
612.9044	0.0137
613.094	-0.007
613.2836	0.012
613.4731	0.0048
613.6627	0.0023
613.8522	0.0119
614.0417	0.0084
614.2313	-0.0003
614.4207	-0.0015
614.6102	0.008
614.7997	-0.0004
614.9891	0.0007
615.1785	0.0026
615.3679	-0.0042
615.5573	0.008
615.7467	-0.0022
615.9361	-0.0062
616.1254	-0.005
616.3147	0.001
616.504	0.0067
616.6933	0.0038
616.8826	0.0017
617.0718	0.0022
617.2611	-0.0041
617.4503	0.0006
617.6395	-0.0053
617.8287	-0.003
618.0179	0.0062
618.207	0.0125
618.3961	0.0068
618.5853	0.0061
618.7744	0.0111
618.9634	0.0121
619.1525	0.0039
619.3416	0.0035
619.5306	0.0125
619.7196	0.0052
619.9086	0.0005
620.0976	0.0068
620.2866	0.0076
620.4755	0.0147
620.6645	0.0074
620.8534	0.007
621.0423	0.0085
621.2312	0.0056
621.42	0.0101
621.6089	0.0001
621.7977	0.0052
621.9865	0.0003
622.1753	0.0069
622.3641	0.0112
622.5529	0.0111
622.7416	0.0015
622.9303	0.0068
623.1191	0.0133
623.3078	-0.0018
623.4964	0.0064
623.6851	0.0016
623.8737	-0.0006
624.0624	0.0048
624.251	0.0048
624.4396	0.002
624.6282	-0.0041
624.8167	0.0024
625.0053	0.0079
625.1938	-0.0004
625.3823	0.0033
625.5708	0.0041
625.7593	0.0022
625.9477	-0.0007
626.1362	-0.0039
626.3246	0.0081
626.513	0.0072
626.7014	0.0059
626.8898	0.0062
627.0781	0.0016
627.2665	-0.0035
627.4548	0.0093
627.6431	0.0029
627.8314	0.0052
628.0197	0.0066
628.2079	-0.0065
628.3962	-0.0051
628.5844	0.0003
628.7726	0.0015
628.9608	0.0065
629.1489	0.0058
629.3371	0.0048
629.5252	0.0033
629.7134	0.0065
629.9015	-0.0032
630.0895	0.0016
630.2776	0.0015
630.4657	-0.003
630.6537	0.0034
630.8417	0.0001
631.0297	0.0028
631.2177	-0.0043
631.4057	0.0002
631.5936	0.0028
631.7815	0.0073
631.9695	0.0084
632.1574	0.0141
632.3452	0.0123
632.5331	0.0076
632.7209	0.002
632.9088	0.0094
633.0966	0.0136
633.2844	-0.0017
633.4722	0.004
633.6599	0.0101
633.8477	0.0022
634.0354	0.0006
634.2231	-0.0018
634.4108	0.0006
634.5985	0.0141
634.7861	0.0077
634.9738	0.0091
635.1614	0.0105
635.349	0.0025
635.5366	0.0041
635.7242	0.0075
635.9117	0.0067
636.0993	0.0056
636.2868	0.0002
636.4743	0.0017
636.6618	0.0099
636.8492	0.004
637.0367	0.0017
637.2241	0.0026
637.4115	0.003
637.5989	-0.0038
637.7863	0.0031
637.9737	-0.0019
638.161	0.0049
638.3484	0.0067
638.5357	0.0059
638.723	0.0012
638.9103	0.0079
639.0975	0.0036
639.2848	0.0084
639.472	0.0038
639.6592	0.0083
639.8464	0.0081
640.0336	0.0158
640.2208	0.0045
640.4079	0.0025
640.595	0.0013
640.7821	0.005
640.9692	-0.0013
641.1563	-0.0018
641.3434	0.0109
641.5304	-0.003
641.7174	0.0018
641.9044	0.0105
642.0914	0.003
642.2784	0.0055
642.4653	0.0096
642.6523	-0.0022
642.8392	-0.0009
643.0261	0.0054
643.213	0.0034
643.3999	0.0013
643.5867	-0.0038
643.7735	0.0028
643.9604	-0.0001
644.1472	-0.005
644.3339	0.0022
644.5207	0.0094
644.7075	0.005
644.8942	0.0052
645.0809	0.0065
645.2676	0.0075
645.4543	0.0053
645.6409	0.0077
645.8276	0.0012
646.0142	0.0075
646.2008	-0.0065
646.3874	-0.002
646.574	0.0032
646.7605	0.0032
646.9471	-0.0009
647.1336	0.0003
647.3201	0.008
647.5066	-0.0026
647.6931	0.003
647.8795	0.0041
648.0659	0.003
648.2524	0.0024
648.4388	0.0047
648.6252	0.0048
648.8115	0.0034
648.9979	0.0004
649.1842	0.0011
649.3705	0.0037
649.5568	0.0037
649.7431	0.0077
649.9294	-0.0008
650.1156	0.0077
650.3018	-0.0009
650.488	0.009
650.6742	0.0049
650.8604	0.0027
651.0466	0.0056
651.2327	0.0032
651.4188	0.0043
651.6049	0.0039
651.791	0.0004
651.9771	0.0064
652.1632	0.0094
652.3492	0.0008
652.5352	0.008
652.7212	0.003
652.9072	0.013
653.0932	0.0021
653.2791	0.0038
653.465	0.0084
653.651	-0.0042
653.8369	-0.0067
654.0227	0.0034
654.2086	0.0069
654.3944	0.0075
654.5803	0.0042
654.7661	0.0021
654.9519	0.0094
655.1377	-0.0043
655.3234	0.0024
655.5092	-0.0036
655.6949	-0.0068
655.8806	-0.0022
656.0663	-0.0004
656.2519	-0.0045
656.4376	-0.0034
656.6232	0.0025
656.8088	0.0019
656.9945	0.0018
657.18	-0.004
657.3656	0.0072
657.5511	-0.0004
657.7367	-0.0043
657.9222	0.0084
658.1077	0.0029
658.2932	0.0083
658.4786	-0.0011
658.6641	0.0072
658.8495	0.0054
659.0349	-0.0032
659.2203	0.0035
659.4057	0.0076
659.591	0.0091
659.7764	0.0013
659.9617	0.0054
660.147	-0.0003
660.3323	-0.0033
660.5176	0.0078
660.7028	0.0075
660.888	0.0076
661.0733	0.0066
661.2585	-0.0028
661.4436	0.0081
661.6288	-0.0031
661.8139	0.0079
661.9991	0.0106
662.1842	0.0039
662.3693	0.0069
662.5544	0.0019
662.7394	0.0077
662.9245	-0.0002
663.1095	0.0049
663.2945	0.0085
663.4795	0.0063
663.6644	0.0134
663.8494	0.0145
664.0343	0.004
664.2193	-0.0082
664.4042	0.0116
664.589	0.0011
664.7739	0.0105
664.9587	-0.002
665.1436	0.0011
665.3284	0.0036
665.5132	0.0013
665.698	0.0065
665.8827	0.0067
666.0675	0.0118
666.2522	0.0038
666.4369	0.002
666.6216	0.0119
666.8063	0.0069
666.9909	0.0049
667.1756	0.0116
667.3602	0.0107
667.5448	0.0031
667.7294	0.0123
667.9139	0.0006
668.0985	0.0077
668.283	0.0064
668.4675	0.0052
668.652	-0.001
668.8365	0.0024
669.0209	0.0119
669.2054	0.0081
669.3898	0.0055
669.5742	0.0079
669.7586	0.0083
669.943	0.012
670.1273	0.0087
670.3117	0.0091
670.496	0.0095
670.6803	0.0116
670.8646	0.0125
671.0488	0.0059
671.2331	0.007
671.4173	0.0119
671.6015	0.0009
671.7857	0.0096
671.9699	0.0104
672.1541	0.0083
672.3382	0.0003
672.5223	0.0042
672.7064	0.0051
672.8905	0.0093
673.0746	0.0012
673.2587	0.005
673.4427	0.0063
673.6267	0.0138
673.8107	0.0172
673.9947	0.0137
674.1787	0.0028
674.3626	0.0041
674.5465	0.0075
674.7304	0.0065
674.9143	0.0061
675.0982	0.0091
675.2821	-0.009
675.4659	0.0047
675.6497	-0.0013
675.8335	0.0006
676.0173	0.0035
676.2011	0.0024
676.3849	0.0037
676.5686	-0.0042
676.7523	0.003
676.936	0.0053
677.1197	0.0028
677.3034	0.0008
677.487	0.009
677.6706	-0.0022
677.8542	0.01
678.0378	0.003
678.2214	-0.0013
678.405	0.001
678.5885	-0.0106
678.772	-0.0065
678.9555	-0.0095
679.139	-0.0002
679.3225	0.0033
679.5059	-0.0052
679.6894	-0.002
679.8728	0.0066
680.0562	-0.0015
680.2395	0.0012
680.4229	-0.0027
680.6062	0.0166
680.7896	0.003
680.9729	-0.0064
681.1562	0.0004
681.3394	0.0039
681.5227	-0.0045
681.7059	0.007
681.8891	0.0082
682.0723	0.0123
682.2555	0.0072
682.4387	-0.0078
682.6218	-0.0069
682.805	0.0075
682.9881	-0.0005
683.1712	-0.0016
683.3542	-0.0006
683.5373	0.0031
683.7203	-0.0079
683.9034	0.0015
684.0864	-0.0049
684.2694	-0.0016
684.4523	0.0027
684.6353	-0.0111
684.8182	0.0015
685.0011	-0.0033
685.184	0.0009
685.3669	-0.0008
685.5498	-0.0001
685.7326	-0.0053
685.9154	-0.0075
686.0982	0.0116
686.281	0.0153
686.4638	0.006
686.6465	0.0086
686.8293	-0.0036
687.012	0.0001
687.1947	-0.0095
687.3774	0.0012
687.56	0.0001
687.7427	0.0082
687.9253	0.0088
688.1079	0.0042
688.2905	0.008
688.4731	-0.0003
688.6556	0.0017
688.8382	-0.0024
689.0207	0.0063
689.2032	-0.0068
689.3857	-0.0017
689.5681	0.0027
689.7506	0.0003
689.933	0.0015
690.1154	-0.0005
690.2978	0.0044
690.4802	0.0033
690.6626	-0.0049
690.8449	0.0043
691.0272	0.0078
691.2095	0.0002
691.3918	-0.0007
691.5741	0.012
691.7563	0.0019
691.9386	0.0057
692.1208	0.0037
692.303	0.004
692.4852	-0.0033
692.6673	0.0038
692.8495	0.0023
693.0316	0.0016
693.2137	0.0041
693.3958	0.0101
693.5778	0.0044
693.7599	0.0034
693.9419	0.0008
694.1239	0.0022
694.3059	-0.0033
694.4879	0.0092
694.6699	0.0042
694.8518	0.0026
695.0337	0.0064
695.2157	0.0114
695.3975	0.0029
695.5794	0.0072
695.7613	-0.0024
695.9431	0.0061
696.1249	0.0113
696.3067	0.0086
696.4885	0.0039
696.6703	-0.0048
696.852	0.0068
697.0337	0.0066
697.2154	0.0028
697.3971	0.0006
697.5788	-0.0007
697.7605	0.0025
697.9421	0.0002
698.1237	0.0033
698.3053	0.0012
698.4869	-0.0013
698.6685	-0.0114
698.85	-0.0054
699.0315	0.0109
699.213	0
699.3945	0.0113
699.576	0.0137
699.7575	0.0054
699.9389	0.016
700.1203	-0.0035
700.3017	-0.0068
700.4831	-0.0059
700.6645	0.0048
700.8458	0.0071
701.0271	0.0063
701.2084	0.0111
701.3897	-0.0027
701.571	-0.0042
701.7523	-0.0012
701.9335	0.0019
702.1147	0.0066
702.2959	0.004
702.4771	0.0124
702.6583	0.0035
702.8394	-0.0035
703.0205	0.0045
703.2016	0.0003
703.3827	0.0068
703.5638	0.0111
703.7449	0.0069
703.9259	0.008
704.1069	-0.0029
704.2879	-0.0023
704.4689	0.0115
704.6499	-0.0014
704.8308	0.0015
705.0117	-0.0019
705.1927	-0.0049
705.3735	-0.0018
705.5544	-0.0026
705.7353	-0.0077
705.9161	-0.0005
706.0969	-0.0022
706.2777	0.0024
706.4585	0.0037
706.6393	0.0026
706.82	0.0068
707.0007	0.0042
707.1815	0.0153
707.3621	0.0134
707.5428	0.0037
707.7235	0.0074
707.9041	0.002
708.0847	-0.0029
708.2653	0.0027
708.4459	-0.0044
708.6265	-0.0003
708.807	0.0018
708.9875	-0.0039
709.168	0.0001
709.3485	-0.0017
709.529	0.0035
709.7095	-0.0141
709.8899	0.0008
710.0703	-0.0062
710.2507	0.001
710.4311	-0.0031
710.6115	-0.0104
710.7918	-0.0082
710.9721	0.0029
711.1524	-0.0031
711.3327	0.001
711.513	0.0039
711.6932	-0.0014
711.8735	0.0092
712.0537	0.0008
712.2339	0.0009
712.4141	-0.0079
712.5942	-0.004
712.7744	-0.0033
712.9545	-0.005
713.1346	-0.0019
713.3147	0.0007
713.4947	-0.003
713.6748	-0.0056
713.8548	0.0015
714.0348	-0.0122
714.2148	0.001
714.3948	0.0041
714.5748	0.005
714.7547	-0.0002
714.9346	0.006
715.1145	-0.0056
715.2944	-0.0039
715.4743	0.0054
715.6541	-0.0047
715.834	0.0008
716.0138	-0.0043
716.1936	-0.0143
716.3733	-0.0003
716.5531	0.0083
716.7328	0.004
716.9126	-0.0037
717.0923	-0.0008
717.2719	0.0107
717.4516	0.006
717.6312	0.0074
717.8109	-0.0041
717.9905	0.0058
718.1701	0.0005
718.3496	-0.0043
718.5292	0.003
718.7087	-0.0007
718.8882	-0.0052
719.0677	0.0062
719.2472	-0.0033
719.4267	-0.0045
719.6061	-0.004
719.7856	0.0041
719.965	0.0068
720.1443	-0.0067
720.3237	0.0157
720.5031	0.0105
720.6824	0.0041
720.8617	-0.004
721.041	0.0016
721.2203	0.0023
721.3995	0.0029
721.5788	-0.0009
721.758	0.0103
721.9372	0.0023
722.1164	0.0058
722.2956	0.0028
722.4747	0.0003
722.6538	-0.0092
722.8329	0.0198
723.012	0.0088
723.1911	0.0011
723.3702	0.008
723.5492	0.0062
723.7282	0.0017
723.9072	0.0108
724.0862	-0.0014
724.2652	0.0019
724.4441	0.0024
724.623	0.0036
724.8019	-0.0032
724.9808	0.0113
725.1597	-0.0072
725.3385	0.014
725.5174	-0.0015
725.6962	-0.0048
725.875	0.0001
726.0538	0.0052
726.2325	-0.0038
726.4112	0.0025
726.59	-0.0014
726.7687	-0.0079
726.9474	0.004
727.126	-0.0056
727.3047	-0.0098
727.4833	-0.0018
727.6619	-0.0105
727.8405	-0.0022
728.0191	-0.0089
728.1976	0.0051
728.3762	-0.004
728.5547	0.0023
728.7332	-0.0113
728.9116	0.0071
729.0901	0.003
729.2686	0.0022
729.447	0.0017
729.6254	0.0038
729.8038	0.0079
729.9821	-0.0089
730.1605	0.0008
730.3388	-0.0067
730.5171	0.0036
730.6954	-0.0055
730.8737	0.0063
731.0519	0.0029
731.2302	0.0131
731.4084	0.0122
731.5866	0.0109
731.7648	0.0051
731.9429	0.0019
732.1211	-0.0033
732.2992	0.0059
732.4773	0.0047
732.6554	0.001
732.8335	0.0004
733.0115	0.0008
733.1896	0.0054
733.3676	-0.0052
733.5456	0.003
733.7235	0.0106
733.9015	-0.0003
734.0794	0.0033
734.2574	0.0017
734.4353	0.0129
734.6131	0.0122
734.791	0.0073
734.9689	0.0035
735.1467	0.0117
735.3245	0.0027
735.5023	0.0078
735.68	0.012
735.8578	0.0079
736.0355	-0.0109
736.2132	0.0016
736.3909	0.0099
736.5686	0.0005
736.7463	0.017
736.9239	0.002
737.1015	0.0029
737.2791	0.0094
737.4567	0.007
737.6343	-0.0106
737.8118	0.0058
737.9894	0.0048
738.1669	-0.0012
738.3444	0.0014
738.5218	-0.0022
738.6993	0.0041
738.8767	-0.0049
739.0541	0.0055
739.2315	-0.0035
739.4089	-0.0034
739.5863	0.0095
739.7636	-0.0051
739.9409	0.0014
740.1182	0.0161
740.2955	0.0072
740.4728	-0.0044
740.65	0.0064
740.8272	-0.0006
741.0044	-0.0045
741.1816	0.001
741.3588	0.0062
741.5359	-0.0006
741.7131	-0.0034
741.8902	0.0054
742.0673	0.0075
742.2444	-0.0069
742.4214	-0.0053
742.5985	0.0023
742.7755	-0.0015
742.9525	-0.0053
743.1295	0.0053
743.3064	0.0009
743.4834	0.0067
743.6603	-0.0038
743.8372	0.0033
744.0141	0.0059
744.191	0.0066
744.3678	0.0029
744.5446	0.0055
744.7215	0.0059
744.8982	0.0015
745.075	-0.0063
745.2518	0.0018
745.4285	-0.0019
745.6052	0.0031
745.7819	-0.0049
745.9586	-0.0011
746.1353	0.0009
746.3119	-0.002
746.4885	-0.0109
746.6651	-0.0096
746.8417	-0.0057
747.0183	0.0002
747.1948	-0.0072
747.3714	-0.0048
747.5479	-0.0022
747.7244	-0.0005
747.9008	0.0067
748.0773	-0.0081
748.2537	0.0061
748.4301	-0.0108
748.6065	0.0115
748.7829	0.0031
748.9593	-0.0026
749.1356	0.002
749.3119	0.0125
749.4882	-0.006
749.6645	-0.0017
749.8408	-0.0093
750.017	-0.0058
750.1933	-0.0021
750.3695	-0.0063
750.5457	0.0076
750.7218	-0.0031
750.898	0.007
751.0741	-0.0078
751.2502	0.0039
751.4263	0.0049
751.6024	-0.0073
751.7784	0.0014
751.9545	-0.0106
752.1305	-0.0028
752.3065	-0.01
752.4825	0.0031
752.6584	0.0016
752.8344	0.0037
753.0103	-0.0093
753.1862	-0.0065
753.3621	-0.0033
753.5379	-0.0046
753.7138	0.0031
753.8896	0.0037
754.0654	0.0094
754.2412	0.0155
754.417	0.0056
754.5927	-0.0002
754.7685	-0.0014
754.9442	0.0015
755.1199	0.0127
755.2956	0.0002
755.4712	0.0106
755.6469	0.0011
755.8225	-0.0044
755.9981	-0.005
756.1736	0.0092
756.3492	-0.0017
756.5248	-0.0059
756.7003	-0.0041
756.8758	0.0062
757.0513	-0.0129
757.2267	-0.0093
757.4022	-0.0058
757.5776	-0.0025
757.753	0.0044
757.9284	0.0027
758.1038	0.0086
758.2791	0.0052
758.4545	-0.0098
758.6298	0.005
758.8051	-0.0054
758.9803	-0.0084
759.1556	-0.001
759.3308	-0.005
759.506	0.0017
759.6812	-0.004
759.8564	0.0045
760.0316	0.0017
760.2067	0.0039
760.3819	0.016
760.557	0.0124
760.732	0.0082
760.9071	-0.0109
761.0821	0.0072
761.2572	0.0138
761.4322	-0.0003
761.6072	-0.0004
761.7821	0.0016
761.9571	0.0178
762.132	-0.0092
762.3069	-0.0049
762.4818	-0.0085
762.6567	-0.0115
762.8316	-0.0065
763.0064	-0.0068
763.1812	-0.0015
763.356	-0.0067
763.5308	-0.004
763.7055	-0.0036
763.8803	-0.0031
764.055	-0.0043
764.2297	0.0038
764.4044	-0.0077
764.579	-0.0007
764.7537	-0.0118
764.9283	0.0044
765.1029	-0.0129
765.2775	-0.0048
765.4521	0.0005
765.6266	-0.0072
765.8011	-0.0021
765.9756	-0.0003
766.1501	0.0125
766.3246	-0.002
766.4991	0.0165
766.6735	0.0029
766.8479	-0.0003
767.0223	0.0131
767.1967	0.0102
767.371	0.0106
767.5454	-0.0041
767.7197	-0.002
767.894	0.0002
768.0683	-0.0053
768.2425	-0.0023
768.4168	-0.0002
768.591	0.0022
768.7652	-0.0035
768.9394	0.0102
769.1135	0.0062
769.2877	0.0017
769.4618	-0.0063
769.6359	-0.0005
769.81	0.0036
769.984	0.0106
770.1581	-0.0136
770.3321	0.0049
770.5061	0.0019
770.6801	-0.0047
770.8541	-0.0065
771.028	0.008
771.202	-0.0043
771.3759	0.0117
771.5498	-0.0115
771.7236	-0.0029
771.8975	-0.0045
772.0713	0.0117
772.2451	0.0095
772.4189	-0.0061
772.5927	0.0121
772.7665	0.0081
772.9402	-0.0018
773.1139	-0.002
773.2876	0.0057
773.4613	0.0106
773.635	-0.0008
773.8086	-0.0027
773.9822	-0.0019
774.1558	0.0101
774.3294	-0.0175
774.503	-0.0018
774.6765	0.0132
774.8501	0.0122
775.0236	0.0209
775.1971	0.018
775.3705	-0.0044
775.544	0.0041
775.7174	0.0051
775.8908	0.0021
776.0642	0.0041
776.2376	0.0003
776.4109	-0.0002
776.5843	0.0045
776.7576	0.0146
776.9309	0.0249
777.1041	0.0215
777.2774	0.0157
777.4506	0.0048
777.6238	0.0054
777.797	0.0031
777.9702	-0.0024
778.1434	-0.0104
778.3165	-0.0014
778.4896	0.0063
778.6627	0.0096
778.8358	-0.0106
779.0089	-0.0102
779.1819	-0.0053
779.3549	0.017
779.5279	-0.0023
779.7009	-0.007
779.8739	0.0008
780.0468	0.0078
780.2197	0.0028
780.3926	-0.0086
780.5655	0.0032
780.7384	-0.0002
780.9112	0.0002
781.0841	-0.0079
781.2569	0.0093
781.4297	0.0095
781.6024	0.0063
781.7752	0.003
781.9479	0.0169
782.1206	0.0104
782.2933	-0.0101
782.466	0.027
782.6386	0.0096
782.8113	0.0021
782.9839	0.0104
783.1565	0.0235
783.329	0.0095
783.5016	0.0152
783.6741	0.0053
783.8466	0.0046
784.0191	0.0243
784.1916	0.007
784.3641	0.0065
784.5365	0.0134
784.7089	-0.0021
784.8813	-0.0037
785.0537	0.005
785.2261	0.0036
785.3984	0.0064
785.5707	0.0129
785.743	-0.0021
785.9153	0.0059
786.0876	0.0015
786.2598	-0.0035
786.432	-0.0008
786.6042	0.0142
786.7764	0.0016
786.9486	0.0067
787.1207	-0.0121
787.2928	0.0117
787.4649	0.0157
787.637	0.0126
787.8091	-0.0057
787.9811	0.0025
788.1532	-0.0012
788.3252	0.0153
788.4972	-0.0019
788.6691	0.0131
788.8411	0.0095
789.013	-0.0001
789.1849	0.0031
789.3568	0.0059
789.5287	-0.0007
789.7005	0.0108
789.8723	0.008
790.0442	0.0266
790.2159	0.0175
790.3877	0.0069
790.5595	-0.0101
790.7312	0.0086
790.9029	0.0128
791.0746	-0.0003
791.2463	0.0019
791.4179	0.0014
791.5896	-0.0094
791.7612	-0.0012
791.9328	0.0115
792.1044	-0.004
792.2759	-0.0066
792.4474	-0.0083
792.619	-0.0031
792.7905	0.0076
792.9619	0.0158
793.1334	0.0117
793.3048	0.0101
793.4762	0.0188
793.6476	0.0027
793.819	-0.0009
793.9904	0.0137
794.1617	0.0064
794.333	0.0083
794.5043	0.0007
794.6756	0.0117
794.8469	0.0056
795.0181	-0.005
795.1893	-0.0087
795.3605	0.0217
795.5317	-0.0031
795.7029	0.0124
795.874	-0.0023
796.0452	-0.0049
796.2163	0.0045
796.3873	0.0109
796.5584	0.0066
796.7294	0.014
796.9005	0.0112
797.0715	0.0064
797.2425	-0.0178
797.4134	0.003
797.5844	0.0048
797.7553	-0.0142
797.9262	0.0061
798.0971	-0.0053
798.2679	-0.0066
798.4388	-0.0228
798.6096	-0.0017
798.7804	0.0031
798.9512	0.0006
799.122	-0.0022
799.2927	-0.0062
799.4635	0.008
799.6342	-0.0185
799.8049	0.0042
799.9755	-0.0068
800.1462	0.0045
800.3168	0.0104
800.4874	0.0116
800.658	0.0327
800.8286	0.0087
800.9991	0.0081
801.1696	0.0131
801.3402	0.0179
801.5106	-0.0026
801.6811	0.0069
801.8516	0.0268
802.022	0.0104
802.1924	0.0077
802.3628	0.0147
802.5332	0.0114
802.7035	0.0153
802.8739	0.0108
803.0442	0.0001
803.2145	0.0107
803.3847	-0.0147
803.555	0.0132
803.7252	-0.0101
803.8954	-0.0061
804.0656	0.0007
804.2358	0.0055
804.4059	0.0163
804.5761	0.0167
804.7462	0.0047
804.9163	0.0003
805.0864	-0.0084
805.2564	0.0094
805.4264	0.0101
805.5965	0.0032
805.7665	0.0105
805.9364	-0.0026
806.1064	0.0339
806.2763	-0.0046
806.4462	0.0166
806.6161	0.0137
806.786	0.016
806.9559	0.0072
807.1257	0.0015
807.2955	0.0001
807.4653	-0.0024
807.6351	-0.0328
807.8048	0.0175
807.9746	-0.003
808.1443	0.0205
808.314	0.0157
808.4837	0.0171
808.6533	0.0082
808.8229	0.0237
808.9926	0.0078
809.1622	0.0076
809.3317	-0.0114
809.5013	-0.0034
809.6708	-0.0009
809.8403	0.0108
810.0098	0.0091
810.1793	0.0103
810.3488	0.0152
810.5182	-0.0002
810.6876	0.0137
810.857	-0.0076
811.0264	0.032
811.1958	0.0066
811.3651	0.0191
811.5344	0.0206
811.7037	0.0099
811.873	-0.0127
812.0422	0.0151
812.2115	-0.0013
812.3807	-0.0039
812.5499	0.025
812.7191	0.0096
812.8882	0.007
813.0574	0.0099
813.2265	0.015
813.3956	0.0083
813.5646	0.0004
813.7337	0.0013
813.9027	0.0053
814.0718	0.0177
814.2407	0.0063
814.4097	-0.0163
814.5787	0.0092
814.7476	-0.0019
814.9165	-0.0079
815.0854	0.0167
815.2543	-0.0022
815.4232	0.017
815.592	0.016
815.7608	0.0241
815.9296	0.0245
816.0984	0.0422
816.2671	0.0022
816.4359	0.0108
816.6046	0.001
816.7733	0.0038
816.942	-0.0117
817.1106	0.0077
817.2793	0.0397
817.4479	0.0173
817.6165	0.0094
817.785	0.0132
817.9536	-0.0103
818.1221	-0.0012
818.2906	0.0062
818.4591	0.0084
818.6276	0.0062
818.7961	0.0038
818.9645	0.0353
819.1329	0.0119
819.3013	0.0564
819.4697	0.0387
819.638	0.0018
819.8064	0.0224
819.9747	0.0012
820.143	0.0211
820.3113	-0.0166
820.4795	0.0107
820.6477	0.0286
820.816	0.0019
820.9842	0.0118
821.1523	-0.0141
821.3205	0.0015
821.4886	0.0012
821.6567	0.0081
821.8248	0.0217
821.9929	0.047
822.1609	0.0085
822.329	0.0143
822.497	0.0303
822.665	-0.0184
822.833	0.0364
823.0009	0.0377
823.1688	0.0366
823.3367	0.0423
823.5046	0.0225
823.6725	0.0728
823.8404	0.0125
824.0082	0.021
824.176	0.0312
824.3438	0.018
824.5116	0.0116
824.6793	0.0173
824.847	-0.0003
825.0147	0.0176
825.1824	0.0609
825.3501	0.0175
825.5177	0.0082
825.6854	0.0023
825.853	0.0229
826.0206	0.0082
826.1881	0.0309
826.3557	-0.0124
826.5232	0.0596
826.6907	0.0029
826.8582	0.0084
827.0257	-0.0241
827.1931	0.0111
827.3605	0.0148
827.528	0.0197
827.6953	0.002
827.8627	0.0063
828.03	0.0474
828.1974	0.002
828.3647	-0.0268
828.532	-0.0038
828.6992	-0.0018
828.8665	0.0021
829.0337	-0.0103
829.2009	0.0437
829.3681	0.0168
829.5352	0.0277
829.7024	0.0034
829.8695	-0.0201
830.0366	0.023
830.2037	0.0385
830.3707	0.0459
830.5378	0.0243
830.7048	-0.0079
830.8718	0.03
831.0388	-0.0205
831.2057	0.0121
831.3727	-0.0086
831.5396	-0.0231
831.7065	-0.0089
831.8734	0.0117
832.0402	-0.0297
832.2071	0.0042
832.3739	-0.0052
832.5407	-0.0087
832.7075	-0.0229
832.8742	-0.0294
833.041	-0.0238
833.2077	0.0033
833.3744	0.0502
833.541	0.0354
833.7077	0.0213
833.8743	-0.0221
834.0409	0.0254
834.2075	0.0359
834.3741	0.0114
834.5407	0.0015
834.7072	0.0144
834.8737	-0.0051
835.0402	-0.0227
835.2067	0.0206
835.3731	0.0339
835.5395	0.0086
835.706	0.0009
835.8723	0.0002
836.0387	-0.015
836.2051	0.0158
836.3714	0.0071
836.5377	0.0044
836.704	-0.0131
836.8703	0.024
837.0365	-0.0019
837.2027	0.0033
837.3689	0.048
837.5351	-0.0012
837.7013	-0.0006
837.8674	-0.0318
838.0335	-0.0132
838.1997	-0.0118
838.3657	-0.0344
838.5318	-0.0327
838.6978	0.006
838.8639	0.0366
839.0299	0.0161
839.1958	0.0219
839.3618	-0.0115
839.5277	0.0055
839.6937	-0.0005
839.8596	0.0039
840.0254	-0.0246
840.1913	0.0293
840.3571	0.0603
840.523	-0.0066
840.6888	0.0156
840.8545	-0.0624
841.0203	0.0091
841.186	0.0142
841.3517	0.03
841.5174	0.0273
841.6831	0.007
841.8488	-0.0199
842.0144	0.0171
842.18	0.0021
842.3456	0.0334
842.5112	-0.0047
842.6767	0.0503
842.8422	-0.0144
843.0077	-0.0078
843.1732	-0.0614
843.3387	0.0321
843.5042	-0.1003
843.6696	0.0252
843.835	0.0294
844.0004	0.0072
844.1657	0.0074
844.3311	-0.006
844.4964	-0.0385
844.6617	-0.0441
844.827	-0.0321
844.9923	0.05
845.1575	-0.0394
845.3227	0.0365
845.4879	0.0211
845.6531	-0.0009
845.8183	-0.0768
845.9834	-0.0286
846.1485	0.0004
846.3136	-0.0182
846.4787	-0.0508
846.6438	0.0758
846.8088	-0.0689
846.9738	-0.0277
847.1388	0.0207
847.3038	0.0128
847.4687	-0.1293
847.6337	0.0096
847.7986	0.0364
847.9635	-0.0111
848.1284	0.1282
848.2932	0.1917
848.458	-0.0871
848.6228	0.0583
848.7876	0.0387
848.9524	-0.0544
849.1172	-0.0992
849.2819	0.0684
849.4466	-0.0952
849.6113	-0.0543
849.7759	-0.0073
849.9406	-0.0096
850.1052	0.0214
850.2698	-0.0305
850.4344	-0.011
850.599	-0.0387
850.7635	0.0272
850.928	0.0423
851.0925	0.0473
851.257	-0.0335
851.4215	0.0112
851.5859	0.0074
851.7503	0.002
851.9147	0.0511
852.0791	-0.0655
852.2434	-0.0545
852.4078	0.0667
852.5721	0.0939
852.7364	-0.0383
852.9007	-0.1751
853.0649	-0.0071
853.2291	-0.085
853.3934	0.0101
853.5575	0.0546
853.7217	-0.1108
853.8859	-0.1554
854.05	-0.1087
854.2141	-0.0413
854.3782	-0.0345
854.5423	-0.0341
854.7063	0.156
854.8703	-0.0207
855.0343	-0.0922
855.1983	-0.0799
855.3623	0.0938
855.5262	0.0629
855.6901	-0.0669
855.854	0.0241
856.0179	0.0353
856.1818	0.1024
856.3456	-0.0316
856.5094	0.001
856.6732	0.1417
856.837	-0.1435
857.0008	0.1356
857.1645	-0.0198
857.3282	-0.0351
857.4919	0.1571
857.6556	0.0181
857.8192	-0.0182
857.9828	-0.0423
858.1465	0.0974
858.31	-0.1088
858.4736	0.0316
858.6372	-0.2106
858.8007	-0.0551
858.9642	0.0061
859.1277	0.304
859.2911	0.1425
859.4546	0.0825
859.618	-0.2942
859.7814	0.0587
859.9448	0.1209
860.1081	-0.019
860.2715	0.0765
860.4348	0.3987
860.5981	0.0111
860.7614	0.1712
860.9246	0.1385
861.0879	-0.2112
861.2511	0.0397
861.4143	0.1255
861.5774	0.1619
861.7406	-0.2921
861.9037	0.0218
862.0668	-0.1196
862.2299	-0.0188
862.393	-0.6679
862.556	0.0548
862.7191	-0.3266
862.8821	-0.1735
863.0451	0.1756
863.208	0.2948
863.371	-0.0371
863.5339	0.0927
863.6968	0.0219
863.8597	-0.1652
864.0225	0.0329
864.1854	0.0122
864.3482	0.2834
864.511	0.0478
864.6737	-0.0108
864.8365	-0.0538
864.9992	-0.3316
865.1619	-0.4715
865.3246	-0.0748
865.4873	0.0654
865.65	-0.23
865.8126	-0.0634
865.9752	0.3148
866.1378	0.0554
866.3004	-0
866.4629	0.2019
866.6254	-0.2622
866.7879	0.7087
866.9504	-0.1425
867.1129	-0
867.2753	0.4962
867.4377	0.1932
867.6001	-0.3844
867.7625	0.1933
867.9249	-0.5908
868.0872	-0.131
868.2495	0.5609
868.4118	0.0376
868.5741	-0.7398
868.7363	-0.2497
868.8986	-0.2827
869.0608	-0.1978
869.223	0.0382
869.3851	0.5397
869.5473	-0
869.7094	0.0171
869.8715	0.1912
870.0336	-0
870.1957	-0.1337
870.3577	-0.2374
870.5197	0.3418
870.6817	-0.3259
870.8437	-0.3438
871.0057	-0.7136
871.1676	-0
871.3295	-0.3517
871.4914	-0.575
871.6533	-0.4079
871.8151	-0.443
871.977	-0
872.1388	2.281
872.3006	-0
872.4623	-0
872.6241	0.1087
872.7858	-0
872.9475	0.2945
873.1092	0.0338
873.2709	-0
873.4325	0.0432
873.5941	-0
873.7557	-0
873.9173	-0.1912
874.0789	-0.0252
874.2404	0.5921
874.4019	0.0402
874.5634	-0.0666
874.7249	-0.1827
874.8863	-0.2121
875.0478	-0
875.2092	-0
875.3706	0.2865
875.5319	-0.887
875.6933	-0
875.8546	-0.5293
876.0159	0.9616
876.1772	-0
876.3385	-0
876.4997	0.601
876.6609	-0.3751
876.8221	-0.1739
876.9833	-0
877.1445	-0
877.3056	0.0661
877.4667	-0.2543
877.6278	-0
877.7889	-0.3565
877.9499	-0
878.111	-0
878.272	-0.5921
878.433	-0.1496
878.5939	0.4038
878.7549	0.1296
878.9158	-0
879.0767	-0
879.2376	-0
879.3984	0.6414
879.5593	-0
879.7201	-0.2601
879.8809	-0.6444
880.0417	0.0726
880.2024	0.1689
880.3632	-0
880.5239	0.2081
880.6846	0.5409
880.8452	-2.5694
881.0059	-0
881.1665	2.3324
881.3271	-0.223
881.4877	-0.5348
881.6483	-0.2196
881.8088	-0.5246
881.9693	1.3617
882.1298	1.3617
882.2903	1.3617
