Data from MonoPyChalIsomerACN10uM360nmA_Absorbance_13-57-27-104.txt Node
Date: Fri Jul 05 13:57:27 BST 2024
User: LASERRRRR
Spectrometer: FLMT03099
Trigger mode: 0
Integration Time (sec): 1.000000E-1
Scans to average: 1
Electric dark correction enabled: true
Nonlinearity correction enabled: false
Boxcar width: 0
XAxis mode: Wavelengths
Number of Pixels in Spectrum: 3648
>>>>>Begin Spectral Data<<<<<
179.3399	-0.4209
179.5586	-0.4209
179.7771	-0.4209
179.9957	-0.0449
180.2143	-0
180.4329	-0.2318
180.6514	0.6075
180.8699	-0
181.0885	0.8637
181.307	0.5652
181.5255	-0
181.744	-0
181.9625	-0
182.181	-0
182.3994	-0
182.6179	-0.3696
182.8363	-0
183.0547	-0.242
183.2732	-0.0728
183.4916	0.16
183.71	-0.0293
183.9284	0.1884
184.1467	-0.1488
184.3651	-0.1227
184.5835	-0.0295
184.8018	-0.0421
185.0201	-0.0317
185.2385	-0.0187
185.4568	0.6044
185.6751	0.2334
185.8934	0.6723
186.1117	0.1361
186.3299	-0.0135
186.5482	0.1555
186.7664	-0.1154
186.9847	-0.0894
187.2029	0.1162
187.4211	0.1164
187.6393	0.2623
187.8575	-0.1647
188.0757	0.1992
188.2939	0.1384
188.512	-0.0719
188.7302	0.2583
188.9483	0.1622
189.1665	0.0325
189.3846	0.0577
189.6027	0.1929
189.8208	0.1927
190.0389	0.1248
190.257	0.1875
190.475	0.2765
190.6931	0.6517
190.9111	0.4783
191.1292	0.1166
191.3472	0.544
191.5652	0.2745
191.7832	0.207
192.0012	0.4254
192.2192	0.2684
192.4371	0.5832
192.6551	0.5523
192.873	0.5162
193.091	0.2947
193.3089	0.5091
193.5268	0.5866
193.7447	0.6128
193.9626	0.5546
194.1805	0.6295
194.3984	0.6297
194.6162	0.4712
194.8341	0.6314
195.0519	0.4843
195.2697	0.7329
195.4875	0.7305
195.7054	0.8894
195.9231	0.3999
196.1409	0.5226
196.3587	0.6098
196.5765	0.5143
196.7942	0.5121
197.012	0.5127
197.2297	0.6196
197.4474	0.543
197.6651	0.5584
197.8828	0.6125
198.1005	0.8001
198.3182	0.5916
198.5358	0.8225
198.7535	0.6635
198.9711	0.5671
199.1888	0.5742
199.4064	0.7995
199.624	0.6681
199.8416	0.6771
200.0592	0.6202
200.2767	0.6913
200.4943	0.7252
200.7119	0.7903
200.9294	0.7045
201.1469	0.5981
201.3645	0.6058
201.582	0.5839
201.7995	0.7265
202.017	0.7122
202.2344	0.6333
202.4519	0.7027
202.6694	0.694
202.8868	0.6216
203.1042	0.5935
203.3217	0.6783
203.5391	0.6889
203.7565	0.5998
203.9739	0.6435
204.1913	0.6578
204.4086	0.6436
204.626	0.6708
204.8433	0.7372
205.0607	0.6028
205.278	0.724
205.4953	0.5639
205.7126	0.656
205.9299	0.7244
206.1472	0.727
206.3644	0.6429
206.5817	0.6218
206.7989	0.7662
207.0162	0.5915
207.2334	0.6155
207.4506	0.663
207.6678	0.5866
207.885	0.6039
208.1022	0.6204
208.3194	0.6334
208.5365	0.6338
208.7537	0.6385
208.9708	0.5765
209.1879	0.6616
209.405	0.6168
209.6222	0.7283
209.8392	0.554
210.0563	0.6189
210.2734	0.7092
210.4905	0.6156
210.7075	0.5876
210.9245	0.5833
211.1416	0.6462
211.3586	0.6724
211.5756	0.562
211.7926	0.5942
212.0096	0.5719
212.2265	0.5341
212.4435	0.5903
212.6604	0.5952
212.8774	0.5658
213.0943	0.5745
213.3112	0.5659
213.5281	0.4739
213.745	0.4818
213.9619	0.4702
214.1788	0.4963
214.3956	0.4729
214.6125	0.467
214.8293	0.4393
215.0461	0.4759
215.2629	0.4775
215.4798	0.5153
215.6965	0.4131
215.9133	0.4471
216.1301	0.4521
216.3469	0.4335
216.5636	0.3972
216.7803	0.3678
216.9971	0.362
217.2138	0.3533
217.4305	0.3931
217.6472	0.3795
217.8639	0.3787
218.0805	0.3462
218.2972	0.3198
218.5138	0.3214
218.7305	0.3226
218.9471	0.3005
219.1637	0.2963
219.3803	0.2992
219.5969	0.2953
219.8135	0.2656
220.0301	0.2779
220.2466	0.3021
220.4632	0.2558
220.6797	0.2307
220.8962	0.238
221.1127	0.2753
221.3292	0.2513
221.5457	0.2382
221.7622	0.2344
221.9787	0.2622
222.1951	0.2465
222.4116	0.2792
222.628	0.2515
222.8444	0.241
223.0608	0.2664
223.2772	0.2538
223.4936	0.2571
223.71	0.2579
223.9264	0.263
224.1427	0.2527
224.3591	0.2482
224.5754	0.274
224.7917	0.2864
225.008	0.2715
225.2243	0.2498
225.4406	0.2789
225.6569	0.2723
225.8732	0.275
226.0894	0.2813
226.3057	0.2701
226.5219	0.2718
226.7381	0.2752
226.9543	0.2766
227.1705	0.2974
227.3867	0.2843
227.6029	0.2849
227.8191	0.2965
228.0352	0.296
228.2513	0.3203
228.4675	0.3004
228.6836	0.3129
228.8997	0.2941
229.1158	0.2924
229.3319	0.3168
229.548	0.3188
229.764	0.3319
229.9801	0.3339
230.1961	0.3264
230.4121	0.3414
230.6282	0.3576
230.8442	0.3341
231.0602	0.3569
231.2761	0.3566
231.4921	0.3352
231.7081	0.3824
231.924	0.3511
232.14	0.3581
232.3559	0.3531
232.5718	0.3693
232.7877	0.3861
233.0036	0.3414
233.2195	0.3702
233.4353	0.3691
233.6512	0.3499
233.867	0.378
234.0829	0.3749
234.2987	0.3575
234.5145	0.3992
234.7303	0.3705
234.9461	0.3795
235.1619	0.3832
235.3776	0.3848
235.5934	0.3753
235.8091	0.3538
236.0249	0.4069
236.2406	0.3809
236.4563	0.3825
236.672	0.3768
236.8877	0.399
237.1034	0.3935
237.319	0.3947
237.5347	0.4114
237.7503	0.3785
237.966	0.4123
238.1816	0.4061
238.3972	0.3999
238.6128	0.4072
238.8284	0.4021
239.0439	0.4314
239.2595	0.3974
239.475	0.4376
239.6906	0.411
239.9061	0.4012
240.1216	0.3991
240.3371	0.4101
240.5526	0.4018
240.7681	0.4153
240.9836	0.3919
241.199	0.3855
241.4145	0.3927
241.6299	0.3781
241.8453	0.3782
242.0607	0.3961
242.2761	0.3599
242.4915	0.3789
242.7069	0.3642
242.9223	0.3682
243.1376	0.3563
243.353	0.3252
243.5683	0.3492
243.7836	0.3263
243.9989	0.3354
244.2142	0.3389
244.4295	0.311
244.6448	0.3082
244.86	0.2951
245.0753	0.3028
245.2905	0.2881
245.5057	0.2898
245.721	0.2565
245.9362	0.2687
246.1514	0.2818
246.3665	0.2467
246.5817	0.2487
246.7969	0.2621
247.012	0.2394
247.2271	0.2509
247.4423	0.232
247.6574	0.2379
247.8725	0.2399
248.0876	0.2261
248.3026	0.2226
248.5177	0.2456
248.7328	0.2118
248.9478	0.2079
249.1628	0.2074
249.3779	0.2219
249.5929	0.2006
249.8079	0.2074
250.0228	0.2115
250.2378	0.1982
250.4528	0.2083
250.6677	0.1872
250.8827	0.1904
251.0976	0.1942
251.3125	0.1836
251.5274	0.178
251.7423	0.1887
251.9572	0.1839
252.172	0.1718
252.3869	0.1763
252.6017	0.1838
252.8166	0.1655
253.0314	0.1697
253.2462	0.1633
253.461	0.1771
253.6758	0.1666
253.8906	0.185
254.1053	0.1674
254.3201	0.1641
254.5348	0.1865
254.7496	0.1742
254.9643	0.1728
255.179	0.1645
255.3937	0.1721
255.6083	0.1675
255.823	0.1721
256.0377	0.1659
256.2523	0.1661
256.467	0.151
256.6816	0.1699
256.8962	0.1673
257.1108	0.1599
257.3254	0.1849
257.54	0.1561
257.7545	0.1557
257.9691	0.172
258.1836	0.1808
258.3981	0.1796
258.6127	0.1643
258.8272	0.1656
259.0417	0.1626
259.2561	0.1782
259.4706	0.1555
259.6851	0.1607
259.8995	0.159
260.114	0.153
260.3284	0.164
260.5428	0.1501
260.7572	0.1709
260.9716	0.1637
261.186	0.1617
261.4003	0.1602
261.6147	0.1688
261.829	0.1652
262.0433	0.1691
262.2577	0.1633
262.472	0.1685
262.6863	0.154
262.9005	0.1655
263.1148	0.1714
263.3291	0.1448
263.5433	0.1737
263.7576	0.1676
263.9718	0.1501
264.186	0.1608
264.4002	0.1607
264.6144	0.1576
264.8286	0.1586
265.0427	0.1618
265.2569	0.1613
265.471	0.15
265.6851	0.1641
265.8993	0.1525
266.1134	0.1635
266.3275	0.163
266.5415	0.1656
266.7556	0.1677
266.9697	0.1669
267.1837	0.1582
267.3978	0.1619
267.6118	0.1667
267.8258	0.1785
268.0398	0.1477
268.2538	0.1671
268.4677	0.1631
268.6817	0.1558
268.8957	0.1643
269.1096	0.1722
269.3235	0.1704
269.5374	0.1583
269.7514	0.1551
269.9652	0.1518
270.1791	0.1592
270.393	0.143
270.6068	0.152
270.8207	0.145
271.0345	0.1369
271.2483	0.1477
271.4622	0.1497
271.676	0.1577
271.8897	0.1432
272.1035	0.1451
272.3173	0.1429
272.531	0.1616
272.7448	0.1341
272.9585	0.1346
273.1722	0.1447
273.3859	0.1497
273.5996	0.1266
273.8133	0.1309
274.0269	0.1465
274.2406	0.1386
274.4542	0.1387
274.6679	0.1343
274.8815	0.1383
275.0951	0.156
275.3087	0.1532
275.5223	0.1511
275.7358	0.1477
275.9494	0.1445
276.1629	0.1364
276.3765	0.1619
276.59	0.1576
276.8035	0.1388
277.017	0.1501
277.2305	0.1399
277.444	0.1479
277.6574	0.143
277.8709	0.1531
278.0843	0.1308
278.2978	0.1359
278.5112	0.1401
278.7246	0.1353
278.938	0.1536
279.1513	0.1449
279.3647	0.1564
279.5781	0.1417
279.7914	0.1417
280.0047	0.1624
280.2181	0.1475
280.4314	0.1606
280.6447	0.1481
280.8579	0.1551
281.0712	0.1551
281.2845	0.1584
281.4977	0.1485
281.711	0.1481
281.9242	0.1564
282.1374	0.1634
282.3506	0.154
282.5638	0.1525
282.7769	0.1531
282.9901	0.1595
283.2033	0.166
283.4164	0.1546
283.6295	0.1445
283.8426	0.1536
284.0557	0.1598
284.2688	0.1671
284.4819	0.1558
284.695	0.157
284.908	0.1628
285.1211	0.1564
285.3341	0.1568
285.5471	0.1675
285.7601	0.1642
285.9731	0.1429
286.1861	0.1585
286.3991	0.1625
286.612	0.1681
286.825	0.1605
287.0379	0.1615
287.2508	0.1602
287.4637	0.1703
287.6766	0.1606
287.8895	0.1732
288.1024	0.1861
288.3152	0.1618
288.5281	0.1605
288.7409	0.1589
288.9538	0.1592
289.1666	0.1689
289.3794	0.1676
289.5922	0.1649
289.8049	0.1622
290.0177	0.1606
290.2304	0.1635
290.4432	0.1784
290.6559	0.166
290.8686	0.166
291.0813	0.1736
291.294	0.1602
291.5067	0.1889
291.7194	0.1509
291.932	0.1752
292.1447	0.168
292.3573	0.1594
292.5699	0.1653
292.7825	0.1782
292.9951	0.1665
293.2077	0.168
293.4203	0.165
293.6328	0.156
293.8454	0.1709
294.0579	0.1718
294.2704	0.1656
294.4829	0.1624
294.6954	0.1664
294.9079	0.1592
295.1204	0.1745
295.3328	0.16
295.5453	0.1734
295.7577	0.1726
295.9701	0.148
296.1825	0.1611
296.3949	0.1698
296.6073	0.1562
296.8197	0.1471
297.0321	0.1645
297.2444	0.1522
297.4567	0.1623
297.6691	0.1682
297.8814	0.1583
298.0937	0.1642
298.306	0.1649
298.5182	0.1662
298.7305	0.1748
298.9428	0.1541
299.155	0.1717
299.3672	0.1599
299.5794	0.1581
299.7916	0.1538
300.0038	0.169
300.216	0.164
300.4282	0.1732
300.6403	0.1679
300.8525	0.1736
301.0646	0.1558
301.2767	0.1585
301.4888	0.1595
301.7009	0.1714
301.913	0.154
302.125	0.173
302.3371	0.1543
302.5491	0.1666
302.7612	0.1603
302.9732	0.1807
303.1852	0.1634
303.3972	0.1719
303.6092	0.1569
303.8211	0.1633
304.0331	0.1591
304.245	0.1572
304.457	0.1489
304.6689	0.1442
304.8808	0.1692
305.0927	0.1547
305.3046	0.1489
305.5164	0.1546
305.7283	0.1363
305.9401	0.1495
306.152	0.148
306.3638	0.1571
306.5756	0.1458
306.7874	0.15
306.9992	0.1523
307.2109	0.1474
307.4227	0.1169
307.6344	0.1441
307.8462	0.1332
308.0579	0.1355
308.2696	0.1338
308.4813	0.1239
308.693	0.1299
308.9046	0.1445
309.1163	0.1324
309.328	0.1188
309.5396	0.121
309.7512	0.1287
309.9628	0.1225
310.1744	0.1235
310.386	0.1195
310.5976	0.1237
310.8091	0.1112
311.0207	0.1141
311.2322	0.1305
311.4437	0.1172
311.6552	0.1141
311.8667	0.1127
312.0782	0.0925
312.2897	0.1072
312.5012	0.0994
312.7126	0.1014
312.924	0.1026
313.1355	0.1187
313.3469	0.1198
313.5583	0.11
313.7696	0.1086
313.981	0.1124
314.1924	0.1014
314.4037	0.0929
314.6151	0.1202
314.8264	0.0975
315.0377	0.1033
315.249	0.1062
315.4603	0.1103
315.6716	0.0976
315.8828	0.0878
316.0941	0.092
316.3053	0.0959
316.5165	0.0894
316.7277	0.0909
316.9389	0.1125
317.1501	0.0908
317.3613	0.0962
317.5724	0.0865
317.7836	0.1051
317.9947	0.0978
318.2058	0.1016
318.417	0.0839
318.6281	0.0872
318.8391	0.0992
319.0502	0.0961
319.2613	0.0952
319.4723	0.106
319.6834	0.1099
319.8944	0.0912
320.1054	0.1021
320.3164	0.0962
320.5274	0.0888
320.7383	0.1104
320.9493	0.1042
321.1602	0.0973
321.3712	0.0925
321.5821	0.0966
321.793	0.0988
322.0039	0.1011
322.2148	0.0933
322.4257	0.1026
322.6365	0.1081
322.8474	0.1002
323.0582	0.103
323.269	0.1082
323.4798	0.1018
323.6906	0.0927
323.9014	0.1134
324.1122	0.0964
324.3229	0.0978
324.5337	0.1004
324.7444	0.0978
324.9551	0.1116
325.1658	0.1013
325.3765	0.1037
325.5872	0.0954
325.7979	0.0953
326.0085	0.1065
326.2192	0.1025
326.4298	0.1158
326.6404	0.0992
326.851	0.0969
327.0616	0.099
327.2722	0.0994
327.4828	0.1014
327.6933	0.0967
327.9039	0.1073
328.1144	0.1169
328.3249	0.1058
328.5354	0.0936
328.7459	0.1062
328.9564	0.096
329.1669	0.1114
329.3773	0.1009
329.5878	0.1031
329.7982	0.1036
330.0086	0.1034
330.219	0.1057
330.4294	0.1028
330.6398	0.1064
330.8502	0.1074
331.0605	0.1141
331.2708	0.109
331.4812	0.115
331.6915	0.1121
331.9018	0.1034
332.1121	0.1052
332.3224	0.1003
332.5326	0.1128
332.7429	0.0961
332.9531	0.1106
333.1633	0.1076
333.3735	0.1056
333.5837	0.1158
333.7939	0.1096
334.0041	0.115
334.2143	0.1084
334.4244	0.1026
334.6346	0.0966
334.8447	0.1217
335.0548	0.096
335.2649	0.0959
335.475	0.118
335.685	0.1072
335.8951	0.1098
336.1051	0.1149
336.3152	0.114
336.5252	0.1027
336.7352	0.1135
336.9452	0.112
337.1552	0.117
337.3652	0.1155
337.5751	0.1079
337.7851	0.1082
337.995	0.1008
338.2049	0.1089
338.4148	0.1176
338.6247	0.1188
338.8346	0.1127
339.0445	0.114
339.2543	0.1129
339.4642	0.1072
339.674	0.1173
339.8838	0.1122
340.0936	0.1177
340.3034	0.1251
340.5132	0.115
340.7229	0.1222
340.9327	0.1123
341.1424	0.1131
341.3522	0.133
341.5619	0.1191
341.7716	0.1228
341.9813	0.1283
342.1909	0.106
342.4006	0.129
342.6102	0.1333
342.8199	0.1107
343.0295	0.1344
343.2391	0.1245
343.4487	0.1322
343.6583	0.1235
343.8679	0.1225
344.0774	0.1211
344.287	0.1366
344.4965	0.1227
344.706	0.1231
344.9155	0.1186
345.125	0.1169
345.3345	0.1197
345.544	0.123
345.7534	0.1266
345.9629	0.125
346.1723	0.1207
346.3817	0.1209
346.5911	0.1152
346.8005	0.1289
347.0099	0.1293
347.2193	0.1242
347.4286	0.1289
347.638	0.1417
347.8473	0.1304
348.0566	0.1353
348.2659	0.1375
348.4752	0.1357
348.6845	0.1195
348.8937	0.1241
349.103	0.1421
349.3122	0.1154
349.5214	0.1157
349.7306	0.1452
349.9398	0.1393
350.149	0.1466
350.3582	0.1236
350.5674	0.1458
350.7765	0.1372
350.9856	0.1411
351.1948	0.1389
351.4039	0.136
351.613	0.1241
351.822	0.144
352.0311	0.152
352.2402	0.1446
352.4492	0.1421
352.6582	0.1487
352.8672	0.1432
353.0762	0.1455
353.2852	0.1453
353.4942	0.1418
353.7032	0.1488
353.9121	0.1438
354.1211	0.1514
354.33	0.1614
354.5389	0.1476
354.7478	0.1491
354.9567	0.1504
355.1655	0.137
355.3744	0.1573
355.5833	0.1456
355.7921	0.1856
356.0009	0.1438
356.2097	0.1559
356.4185	0.1652
356.6273	0.1592
356.8361	0.1536
357.0448	0.1689
357.2536	0.1378
357.4623	0.1537
357.671	0.1734
357.8797	0.1653
358.0884	0.1657
358.2971	0.1653
358.5057	0.1837
358.7144	0.1638
358.923	0.1652
359.1316	0.1776
359.3402	0.1675
359.5488	0.1691
359.7574	0.1525
359.966	0.1671
360.1746	0.1743
360.3831	0.1763
360.5916	0.1475
360.8002	0.1643
361.0087	0.1841
361.2172	0.1765
361.4256	0.1723
361.6341	0.1804
361.8426	0.1945
362.051	0.1761
362.2594	0.1764
362.4678	0.1846
362.6762	0.1911
362.8846	0.1861
363.093	0.183
363.3014	0.1777
363.5097	0.1683
363.718	0.1826
363.9264	0.182
364.1347	0.172
364.343	0.1931
364.5513	0.2
364.7595	0.2059
364.9678	0.1792
365.176	0.1985
365.3842	0.1965
365.5925	0.1874
365.8007	0.1915
366.0089	0.1983
366.217	0.2083
366.4252	0.2229
366.6333	0.2088
366.8415	0.2059
367.0496	0.1902
367.2577	0.2122
367.4658	0.1984
367.6739	0.2174
367.882	0.2146
368.09	0.2034
368.2981	0.2225
368.5061	0.2087
368.7141	0.212
368.9221	0.2164
369.1301	0.2229
369.3381	0.2098
369.5461	0.2236
369.754	0.2122
369.962	0.2303
370.1699	0.2146
370.3778	0.2203
370.5857	0.1982
370.7936	0.2265
371.0015	0.2216
371.2093	0.2276
371.4172	0.222
371.625	0.2159
371.8328	0.2127
372.0406	0.2141
372.2484	0.2188
372.4562	0.2218
372.664	0.2252
372.8717	0.2161
373.0795	0.1981
373.2872	0.2382
373.4949	0.2254
373.7026	0.2243
373.9103	0.2388
374.118	0.217
374.3256	0.2337
374.5333	0.2202
374.7409	0.2177
374.9485	0.2435
375.1561	0.2397
375.3637	0.2302
375.5713	0.2385
375.7789	0.2397
375.9864	0.2243
376.194	0.221
376.4015	0.2443
376.609	0.251
376.8165	0.2372
377.024	0.2239
377.2315	0.2169
377.4389	0.2371
377.6464	0.2379
377.8538	0.2484
378.0612	0.2351
378.2686	0.2388
378.476	0.2602
378.6834	0.2371
378.8908	0.2461
379.0981	0.2547
379.3055	0.2454
379.5128	0.2344
379.7201	0.244
379.9274	0.2369
380.1347	0.253
380.342	0.2557
380.5492	0.2559
380.7565	0.2494
380.9637	0.2574
381.1709	0.251
381.3781	0.2402
381.5853	0.2702
381.7925	0.2644
381.9997	0.2572
382.2068	0.273
382.4139	0.2546
382.6211	0.2212
382.8282	0.2411
383.0353	0.2686
383.2424	0.2513
383.4494	0.2593
383.6565	0.2509
383.8635	0.2577
384.0706	0.2579
384.2776	0.2742
384.4846	0.2363
384.6916	0.2689
384.8986	0.2413
385.1055	0.2636
385.3125	0.2645
385.5194	0.2414
385.7263	0.2717
385.9333	0.2473
386.1402	0.2663
386.347	0.2485
386.5539	0.2564
386.7608	0.2708
386.9676	0.2368
387.1744	0.2532
387.3813	0.2433
387.5881	0.2502
387.7948	0.2437
388.0016	0.2458
388.2084	0.2554
388.4151	0.2295
388.6219	0.2478
388.8286	0.2412
389.0353	0.2606
389.242	0.2634
389.4487	0.2496
389.6553	0.2616
389.862	0.2337
390.0686	0.2297
390.2753	0.2393
390.4819	0.2446
390.6885	0.2387
390.8951	0.2327
391.1016	0.2426
391.3082	0.2209
391.5147	0.2402
391.7213	0.2382
391.9278	0.2251
392.1343	0.2299
392.3408	0.2244
392.5473	0.2452
392.7537	0.2306
392.9602	0.2208
393.1666	0.2223
393.373	0.2444
393.5794	0.235
393.7858	0.2345
393.9922	0.2193
394.1986	0.2347
394.4049	0.2418
394.6113	0.2106
394.8176	0.2091
395.0239	0.2042
395.2302	0.1989
395.4365	0.2208
395.6428	0.2257
395.8491	0.2211
396.0553	0.2177
396.2615	0.2261
396.4678	0.2152
396.674	0.2047
396.8802	0.217
397.0863	0.2278
397.2925	0.2197
397.4987	0.2064
397.7048	0.2193
397.9109	0.2262
398.117	0.2045
398.3231	0.2102
398.5292	0.2064
398.7353	0.217
398.9413	0.2126
399.1474	0.2183
399.3534	0.2154
399.5594	0.2004
399.7654	0.2223
399.9714	0.2227
400.1774	0.2047
400.3833	0.2064
400.5893	0.2223
400.7952	0.212
401.0011	0.2152
401.207	0.2063
401.4129	0.1972
401.6188	0.2136
401.8247	0.2065
402.0305	0.2035
402.2364	0.2137
402.4422	0.2145
402.648	0.2166
402.8538	0.2182
403.0596	0.2108
403.2654	0.2137
403.4711	0.2093
403.6768	0.2094
403.8826	0.2212
404.0883	0.2073
404.294	0.2115
404.4997	0.2082
404.7054	0.2186
404.911	0.1994
405.1167	0.2097
405.3223	0.2257
405.5279	0.2135
405.7335	0.2136
405.9391	0.2318
406.1447	0.2032
406.3502	0.2333
406.5558	0.2141
406.7613	0.2215
406.9668	0.2153
407.1724	0.2064
407.3778	0.2062
407.5833	0.2223
407.7888	0.2146
407.9942	0.2277
408.1997	0.213
408.4051	0.2026
408.6105	0.2174
408.8159	0.1927
409.0213	0.2119
409.2267	0.2294
409.432	0.1956
409.6374	0.2155
409.8427	0.2241
410.048	0.2089
410.2533	0.2068
410.4586	0.2056
410.6639	0.1966
410.8691	0.2043
411.0744	0.2119
411.2796	0.2074
411.4848	0.2074
411.69	0.1989
411.8952	0.2186
412.1004	0.2039
412.3056	0.2132
412.5107	0.2037
412.7158	0.2183
412.921	0.2054
413.1261	0.2068
413.3312	0.2117
413.5362	0.2081
413.7413	0.1877
413.9464	0.215
414.1514	0.2056
414.3564	0.2142
414.5614	0.1896
414.7664	0.2146
414.9714	0.21
415.1764	0.2113
415.3813	0.2182
415.5863	0.1928
415.7912	0.2151
415.9961	0.2152
416.201	0.1936
416.4059	0.2235
416.6108	0.1964
416.8156	0.2078
417.0205	0.1966
417.2253	0.1815
417.4301	0.2026
417.6349	0.1998
417.8397	0.21
418.0445	0.1972
418.2492	0.1852
418.454	0.1853
418.6587	0.1849
418.8634	0.2071
419.0681	0.1879
419.2728	0.2098
419.4775	0.1848
419.6822	0.188
419.8868	0.1714
420.0915	0.1961
420.2961	0.1704
420.5007	0.1769
420.7053	0.1751
420.9099	0.2074
421.1144	0.189
421.319	0.1751
421.5235	0.1943
421.728	0.197
421.9325	0.1901
422.137	0.1743
422.3415	0.1848
422.546	0.1957
422.7504	0.189
422.9549	0.186
423.1593	0.1953
423.3637	0.1935
423.5681	0.1767
423.7725	0.1675
423.9769	0.1763
424.1812	0.1801
424.3856	0.1633
424.5899	0.1727
424.7942	0.1685
424.9985	0.1807
425.2028	0.1691
425.4071	0.1904
425.6113	0.151
425.8156	0.1838
426.0198	0.1626
426.224	0.1653
426.4282	0.1507
426.6324	0.1678
426.8366	0.1797
427.0407	0.1524
427.2449	0.18
427.449	0.1643
427.6531	0.1415
427.8572	0.1633
428.0613	0.1631
428.2654	0.1716
428.4694	0.1519
428.6735	0.1544
428.8775	0.161
429.0815	0.15
429.2855	0.1541
429.4895	0.1521
429.6935	0.1492
429.8975	0.1684
430.1014	0.1387
430.3053	0.1263
430.5093	0.1456
430.7132	0.1323
430.9171	0.1376
431.1209	0.1383
431.3248	0.1393
431.5286	0.1419
431.7325	0.1453
431.9363	0.1347
432.1401	0.1381
432.3439	0.1393
432.5477	0.1044
432.7514	0.1163
432.9552	0.1192
433.1589	0.1314
433.3627	0.1012
433.5664	0.1309
433.7701	0.1211
433.9737	0.1128
434.1774	0.1109
434.3811	0.1109
434.5847	0.123
434.7883	0.097
434.9919	0.1011
435.1955	0.1004
435.3991	0.1131
435.6027	0.1095
435.8062	0.1079
436.0098	0.1109
436.2133	0.1024
436.4168	0.1137
436.6203	0.0948
436.8238	0.0989
437.0272	0.0852
437.2307	0.0837
437.4341	0.1015
437.6375	0.105
437.841	0.0817
438.0443	0.0873
438.2477	0.1086
438.4511	0.0893
438.6545	0.0883
438.8578	0.0961
439.0611	0.0808
439.2644	0.0851
439.4677	0.0855
439.671	0.0768
439.8743	0.0856
440.0775	0.0923
440.2808	0.0786
440.484	0.0823
440.6872	0.0581
440.8904	0.0733
441.0936	0.0759
441.2967	0.0629
441.4999	0.0756
441.703	0.0588
441.9062	0.0668
442.1093	0.0768
442.3124	0.0747
442.5155	0.0475
442.7185	0.0634
442.9216	0.0387
443.1246	0.0801
443.3276	0.0518
443.5307	0.0582
443.7337	0.0565
443.9366	0.0656
444.1396	0.0694
444.3426	0.0468
444.5455	0.0504
444.7484	0.0595
444.9513	0.0464
445.1542	0.0692
445.3571	0.0509
445.56	0.0556
445.7628	0.0408
445.9657	0.0461
446.1685	0.0574
446.3713	0.0493
446.5741	0.0503
446.7769	0.0279
446.9797	0.0484
447.1824	0.0451
447.3852	0.0393
447.5879	0.0541
447.7906	0.0425
447.9933	0.0437
448.196	0.05
448.3986	0.048
448.6013	0.0504
448.8039	0.0314
449.0066	0.0364
449.2092	0.0388
449.4118	0.0374
449.6143	0.0413
449.8169	0.0372
450.0195	0.0234
450.222	0.0132
450.4245	0.0282
450.627	0.0432
450.8295	0.0341
451.032	0.0234
451.2345	0.0315
451.4369	0.0242
451.6394	0.0154
451.8418	0.003
452.0442	0.0256
452.2466	0.0425
452.449	0.0077
452.6513	0.0264
452.8537	0.008
453.056	0.0039
453.2583	0.0104
453.4607	0.0125
453.663	0.0133
453.8652	0.0221
454.0675	0.0198
454.2697	0.0201
454.472	0.0086
454.6742	0.0061
454.8764	0.0222
455.0786	0.0333
455.2808	0.0216
455.4829	0.0094
455.6851	0.0258
455.8872	0.0271
456.0893	0.035
456.2915	0.0009
456.4935	0.0085
456.6956	-0.0036
456.8977	0.0097
457.0997	0.0106
457.3018	-0.0055
457.5038	0.0076
457.7058	0.0028
457.9078	0.0046
458.1098	0.0225
458.3117	0.0275
458.5137	0.013
458.7156	0.0211
458.9175	0.0049
459.1194	0.0071
459.3213	0.0106
459.5232	-0.0092
459.725	-0.0035
459.9269	-0.006
460.1287	-0.0062
460.3305	0.0052
460.5323	0.0174
460.7341	0.0027
460.9359	-0.0003
461.1376	0.0122
461.3394	-0.0063
461.5411	0.0147
461.7428	-0.0008
461.9445	0.0222
462.1462	0.0114
462.3479	0.005
462.5495	0.0087
462.7512	0.0122
462.9528	-0.0029
463.1544	0.0063
463.356	-0.0013
463.5576	0.0039
463.7592	0.0005
463.9607	0.013
464.1623	0.0173
464.3638	0.0164
464.5653	-0.0095
464.7668	0.0073
464.9683	0.0118
465.1697	0.0216
465.3712	0.012
465.5726	0.0005
465.7741	-0.0043
465.9755	-0.0115
466.1769	0.0017
466.3782	0.001
466.5796	0.0056
466.7809	0.0093
466.9823	0.0058
467.1836	0.0145
467.3849	-0.0034
467.5862	0.013
467.7875	0.0084
467.9887	0.0228
468.19	0.0051
468.3912	-0.0001
468.5924	-0.0046
468.7936	-0.004
468.9948	-0.0067
469.196	0.0062
469.3972	-0.0031
469.5983	0.0145
469.7994	-0.009
470.0006	0.0012
470.2017	-0.0129
470.4027	-0.0093
470.6038	0.0051
470.8049	0.0043
471.0059	-0.0121
471.2069	-0.0174
471.408	0.003
471.6089	0.0045
471.8099	-0.0019
472.0109	0.0075
472.2119	-0.0033
472.4128	-0.0129
472.6137	0.0164
472.8146	-0.0211
473.0155	-0.0092
473.2164	-0.0038
473.4173	0.0039
473.6181	0.0002
473.819	0.0103
474.0198	-0.0068
474.2206	0.0063
474.4214	-0.0078
474.6222	0.005
474.8229	-0.008
475.0237	-0.0113
475.2244	0.0091
475.4251	-0.003
475.6258	0.0003
475.8265	-0.0109
476.0272	0.0029
476.2278	0.009
476.4285	-0.0115
476.6291	-0.0015
476.8297	-0.004
477.0303	-0.0055
477.2309	-0.0101
477.4315	-0.0173
477.632	-0.0145
477.8326	-0.002
478.0331	-0.0051
478.2336	0.003
478.4341	0.0012
478.6346	-0.0032
478.8351	-0.0055
479.0355	-0.0068
479.236	-0.0091
479.4364	-0.0025
479.6368	0.0025
479.8372	-0.0001
480.0376	-0.0085
480.2379	-0.0121
480.4383	-0.004
480.6386	-0.0026
480.8389	0.0016
481.0392	-0.0021
481.2395	-0.0112
481.4398	-0.0068
481.6401	0.0027
481.8403	-0.0075
482.0405	-0.0036
482.2408	-0.0006
482.441	0.0103
482.6411	-0.0114
482.8413	-0.0009
483.0415	-0.007
483.2416	-0.0167
483.4417	-0.0011
483.6419	-0.0147
483.8419	-0.008
484.042	0.0056
484.2421	-0.0029
484.4422	-0.0017
484.6422	0.0016
484.8422	0.0027
485.0422	-0.0082
485.2422	0.0105
485.4422	-0.0093
485.6422	-0.0078
485.8421	-0.0014
486.042	0.0017
486.242	0.002
486.4419	-0.006
486.6417	-0.013
486.8416	-0.0074
487.0415	-0.0064
487.2413	-0.0091
487.4411	-0.0099
487.641	-0.0094
487.8408	0.0082
488.0405	-0.0054
488.2403	0.0012
488.4401	0.0007
488.6398	0.0063
488.8395	-0.0091
489.0392	0.0075
489.2389	-0.0036
489.4386	-0.0027
489.6383	-0.005
489.8379	-0.0062
490.0376	-0.0109
490.2372	-0.0137
490.4368	-0.0094
490.6364	0.0008
490.836	-0.0162
491.0355	-0.0083
491.2351	-0.0028
491.4346	-0.0072
491.6341	-0.0086
491.8336	0.0012
492.0331	-0.0169
492.2326	-0.0152
492.432	-0.0073
492.6315	-0.004
492.8309	-0.0247
493.0303	-0.006
493.2297	-0.0004
493.4291	-0.0107
493.6284	-0.0044
493.8278	-0.0005
494.0271	-0.0116
494.2264	0.0074
494.4257	-0.0118
494.625	0.0008
494.8243	-0.0147
495.0236	-0.0117
495.2228	-0.0009
495.422	-0.0054
495.6213	-0.0183
495.8205	-0.0073
496.0196	-0.0027
496.2188	0.0047
496.418	-0.014
496.6171	-0.0061
496.8162	-0.0076
497.0153	0.0018
497.2144	-0.0029
497.4135	0.0007
497.6126	-0.0124
497.8116	-0.0195
498.0107	-0.0021
498.2097	-0.0095
498.4087	-0.0103
498.6077	0.0006
498.8067	-0.0048
499.0056	0.0047
499.2046	-0.0107
499.4035	-0.0217
499.6024	-0.0016
499.8013	0.0047
500.0002	-0.0083
500.199	-0.002
500.3979	-0.0119
500.5967	-0.0228
500.7956	-0.0028
500.9944	-0.0067
501.1932	-0.0132
501.3919	-0.0057
501.5907	-0.0108
501.7895	-0.0055
501.9882	-0.0172
502.1869	-0.0066
502.3856	-0.0104
502.5843	-0.0177
502.783	-0.0149
502.9816	-0.0134
503.1803	-0.0191
503.3789	-0.0092
503.5775	0.0062
503.7761	-0.0068
503.9747	0.0006
504.1732	-0.0074
504.3718	-0.0021
504.5703	-0.0086
504.7689	-0.0134
504.9674	-0.0024
505.1658	-0.0176
505.3643	-0.0048
505.5628	-0.0029
505.7612	-0.0066
505.9597	0.0004
506.1581	-0.02
506.3565	0.0093
506.5549	-0.015
506.7532	-0.0205
506.9516	0.0027
507.1499	-0.0096
507.3482	-0.01
507.5465	-0.0052
507.7448	-0.0036
507.9431	-0.0082
508.1414	-0.0025
508.3396	-0.0053
508.5379	-0.0043
508.7361	-0.0147
508.9343	-0.0036
509.1325	-0.0045
509.3306	-0.0064
509.5288	-0.0028
509.7269	-0.0114
509.9251	0.0042
510.1232	-0.0002
510.3213	-0.0036
510.5193	0.0038
510.7174	-0.0193
510.9154	-0.0172
511.1135	-0.013
511.3115	-0.01
511.5095	0.0015
511.7075	-0.0066
511.9055	0.0012
512.1034	-0.0113
512.3014	0.0056
512.4993	-0.0025
512.6972	-0.0093
512.8951	-0.0115
513.093	0.0008
513.2908	0.009
513.4887	-0.0046
513.6865	0.002
513.8844	-0.0083
514.0822	-0.0101
514.2799	-0.0027
514.4777	-0.0097
514.6755	-0.0122
514.8732	-0.0081
515.0709	-0.0023
515.2687	-0.0058
515.4664	-0.0081
515.664	-0.003
515.8617	-0.0034
516.0594	-0.0102
516.257	-0.0016
516.4546	-0.015
516.6522	0.011
516.8498	-0.0063
517.0474	0.0022
517.2449	0.0007
517.4425	-0.0112
517.64	-0.0039
517.8375	0.001
518.035	-0.016
518.2325	-0.0144
518.43	-0.0122
518.6274	-0.0019
518.8249	-0.0211
519.0223	-0.0068
519.2197	-0.004
519.4171	-0.0003
519.6145	-0.0107
519.8118	0.0017
520.0092	-0.0123
520.2065	-0.0118
520.4038	-0.0237
520.6011	0.0013
520.7984	-0.0092
520.9956	0.007
521.1929	-0.014
521.3901	0.001
521.5874	-0.0098
521.7846	-0.0015
521.9818	-0.0147
522.1789	-0.0022
522.3761	-0.0023
522.5732	-0.01
522.7704	0.0008
522.9675	-0.0106
523.1646	-0.0152
523.3617	0.0073
523.5587	-0.0021
523.7558	-0.0113
523.9528	-0.007
524.1498	-0.0057
524.3468	-0.0049
524.5438	-0.0079
524.7408	-0.0043
524.9378	0.0102
525.1347	-0.0026
525.3316	-0.0102
525.5285	-0.0187
525.7254	-0.0174
525.9223	-0.0048
526.1192	0.0039
526.316	-0.0085
526.5129	0.0009
526.7097	-0.008
526.9065	-0.0138
527.1033	-0.0147
527.3	-0.0037
527.4968	-0.0041
527.6935	0.0002
527.8903	-0.0073
528.087	-0.0065
528.2837	-0.0115
528.4804	0.0028
528.677	-0.0093
528.8737	0.0043
529.0703	0
529.2669	-0.0061
529.4635	-0.0135
529.6601	0.0011
529.8567	-0.0089
530.0532	-0.0104
530.2498	0.0003
530.4463	0.0088
530.6428	-0.0018
530.8393	0.0043
531.0358	-0.0081
531.2322	-0.0105
531.4287	-0.0055
531.6251	-0.0157
531.8215	0.0054
532.0179	0.0001
532.2143	0.0067
532.4107	0.0038
532.607	0.0011
532.8034	-0.0046
532.9997	-0.0007
533.196	-0.0045
533.3923	-0.0144
533.5886	-0.0015
533.7848	-0.0037
533.9811	-0.0089
534.1773	-0.0014
534.3735	0.0062
534.5697	0.0033
534.7659	-0.0006
534.9621	-0.0005
535.1582	-0.0043
535.3544	-0.0103
535.5505	-0.0036
535.7466	-0.0017
535.9427	-0.0138
536.1387	-0.0115
536.3348	-0.0082
536.5308	0.0075
536.7269	-0.005
536.9229	0.0033
537.1189	-0.008
537.3148	-0.0077
537.5108	-0.0105
537.7068	-0.0056
537.9027	0.0021
538.0986	-0.0067
538.2945	-0.0102
538.4904	-0.0046
538.6863	-0.0077
538.8821	-0.0053
539.078	-0.0021
539.2738	0.0021
539.4696	-0.0009
539.6654	0.0049
539.8611	0.0055
540.0569	-0.0105
540.2526	-0.0123
540.4484	-0.0012
540.6441	-0.0056
540.8398	0.0028
541.0355	0.0002
541.2311	-0.0076
541.4268	-0.0055
541.6224	-0.0006
541.818	-0.0071
542.0136	-0.0103
542.2092	0
542.4048	0.0106
542.6003	0.0024
542.7959	-0.0034
542.9914	-0.0048
543.1869	-0.0026
543.3824	-0.0057
543.5779	-0.002
543.7734	-0.0113
543.9688	-0.0084
544.1642	-0.0011
544.3596	0.0046
544.555	-0.0125
544.7504	0.0033
544.9458	-0.0119
545.1411	0.0001
545.3365	-0.0077
545.5318	-0.0054
545.7271	0.0023
545.9224	-0.002
546.1177	-0.0053
546.3129	0.0031
546.5081	0
546.7034	-0.0046
546.8986	-0.0055
547.0938	-0.0018
547.289	-0.0052
547.4841	-0.0048
547.6793	0.0085
547.8744	-0.0071
548.0695	-0.0067
548.2646	-0.0061
548.4597	-0.0006
548.6548	-0.0007
548.8498	-0.006
549.0448	0.0004
549.2399	-0.0002
549.4349	0.0066
549.6298	0.0013
549.8248	-0.0033
550.0198	0.0006
550.2147	-0.0052
550.4096	-0.0042
550.6045	0.0054
550.7994	0.0083
550.9943	0.0055
551.1892	-0.0024
551.384	0.0045
551.5788	-0.0087
551.7737	0.0042
551.9685	-0.0039
552.1632	0.0013
552.358	-0.0057
552.5528	0.0001
552.7475	-0.001
552.9422	-0.0074
553.1369	0.0014
553.3316	-0.002
553.5263	-0.0093
553.7209	0.0021
553.9156	-0.0023
554.1102	-0.0009
554.3048	-0.0082
554.4994	0.0097
554.694	-0.003
554.8885	-0.0005
555.0831	-0.0074
555.2776	-0.0101
555.4721	-0.0086
555.6666	-0.0013
555.8611	0.0085
556.0555	-0.0012
556.25	0.0046
556.4444	-0.0079
556.6388	0.0065
556.8332	-0.0059
557.0276	0.0038
557.222	-0.0014
557.4163	0.0059
557.6107	-0.0104
557.805	0.0129
557.9993	0
558.1936	0.0044
558.3879	0.0018
558.5821	0.0023
558.7764	0.0026
558.9706	0.0005
559.1648	0.0072
559.359	-0.0064
559.5532	-0.0055
559.7473	-0.0003
559.9415	-0.0009
560.1356	0.0035
560.3297	-0.0162
560.5238	-0.007
560.7179	-0.0025
560.9119	-0.0004
561.106	-0.0008
561.3	-0.0091
561.494	-0.0052
561.688	0.0064
561.882	-0.01
562.076	-0.0018
562.2699	-0.0032
562.4639	-0.0036
562.6578	-0.0058
562.8517	-0.0068
563.0456	-0.0005
563.2395	0.005
563.4333	0.0004
563.6272	0.0089
563.821	0.0027
564.0148	-0.0001
564.2086	-0.0028
564.4024	0.0003
564.5961	0.0011
564.7899	0.0039
564.9836	-0.0023
565.1773	0.0025
565.371	0.0119
565.5647	0.0032
565.7584	0.0064
565.952	-0.0032
566.1456	0.0037
566.3393	0.005
566.5329	-0.0111
566.7264	-0.003
566.92	-0.0109
567.1136	-0.0059
567.3071	-0.0017
567.5006	0.0023
567.6941	-0.0011
567.8876	0.0053
568.0811	-0.0095
568.2745	0.0016
568.468	0.0106
568.6614	0.0093
568.8548	0.0007
569.0482	0.0052
569.2416	0.0037
569.4349	0.0036
569.6283	0.0054
569.8216	0.0025
570.0149	-0.002
570.2082	0.0051
570.4015	0.0023
570.5947	0.0081
570.788	0.0034
570.9812	0.0081
571.1744	0.0031
571.3676	-0.0058
571.5608	0.0003
571.754	0.0025
571.9471	0.0056
572.1402	0.0011
572.3333	-0.0021
572.5264	-0.0018
572.7195	0.0017
572.9126	0.0015
573.1057	0.001
573.2987	-0.0039
573.4917	0.0088
573.6847	-0.007
573.8777	0.0008
574.0707	0.0101
574.2636	-0.0003
574.4566	-0.0034
574.6495	0.0013
574.8424	-0.0041
575.0353	0.0059
575.2281	0.0046
575.421	0.003
575.6138	0.0043
575.8067	-0.0038
575.9995	0.0037
576.1923	0.006
576.385	0.0034
576.5778	-0.0015
576.7706	-0.0017
576.9633	-0.0019
577.156	0.0063
577.3487	0.0028
577.5414	0
577.734	-0.0046
577.9267	0.0115
578.1193	-0.0096
578.3119	-0.0055
578.5045	0.0024
578.6971	0.0019
578.8897	0.0065
579.0822	0.0027
579.2747	0.0029
579.4673	-0.0027
579.6598	-0.0042
579.8522	-0.0034
580.0447	-0.0032
580.2372	-0.0061
580.4296	0.0062
580.622	0.005
580.8144	0.0006
581.0068	0.0037
581.1992	-0.0082
581.3915	-0.0043
581.5839	-0.0045
581.7762	-0.0063
581.9685	0.0037
582.1608	0.002
582.353	-0.0007
582.5453	0.0068
582.7375	0.0072
582.9298	0.0021
583.122	0.0029
583.3142	0.0071
583.5063	-0.0018
583.6985	0.0034
583.8906	-0.0021
584.0827	-0.0036
584.2749	0.0039
584.4669	0.009
584.659	0.0043
584.8511	0.0012
585.0431	0.0044
585.2352	0.002
585.4272	0.0018
585.6192	0.0111
585.8111	0.003
586.0031	0.0073
586.195	-0.0037
586.387	0.0026
586.5789	0.0002
586.7708	0.0036
586.9627	0.0033
587.1545	0.0009
587.3464	0.0002
587.5382	0.0008
587.73	0.0039
587.9218	0.0027
588.1136	-0.0024
588.3053	0.0038
588.4971	-0.007
588.6888	0.0015
588.8805	-0.0037
589.0722	0.009
589.2639	0.0075
589.4556	0.0073
589.6472	0.0069
589.8389	-0.0068
590.0305	-0.0091
590.2221	0.0023
590.4137	-0.0048
590.6052	0.0039
590.7968	0.006
590.9883	-0.0003
591.1798	0.0031
591.3713	0.0063
591.5628	0.0117
591.7543	0.0085
591.9458	0.0056
592.1372	0.0137
592.3286	0.0103
592.52	0.0047
592.7114	-0.0026
592.9028	-0.0019
593.0941	0.0008
593.2855	0.0012
593.4768	-0
593.6681	-0.004
593.8594	0.0005
594.0506	0.0042
594.2419	0.0119
594.4331	0.0068
594.6244	0.0073
594.8156	-0.0023
595.0067	0.0078
595.1979	0.0041
595.3891	0.0041
595.5802	-0.0031
595.7713	-0.0089
595.9624	0.0005
596.1535	0.0091
596.3446	0.0026
596.5357	0.0004
596.7267	0.0042
596.9177	-0.0019
597.1087	-0.0042
597.2997	-0.0065
597.4907	0.0072
597.6817	0.0008
597.8726	0.0057
598.0635	-0.0019
598.2544	0.0049
598.4453	-0.0024
598.6362	0.0019
598.827	-0.0027
599.0179	0.0012
599.2087	0.0055
599.3995	0.0008
599.5903	0.0012
599.7811	0.0006
599.9718	-0.0021
600.1626	-0.0037
600.3533	-0.005
600.544	0.0049
600.7347	0.0025
600.9254	0.0044
601.116	-0.0075
601.3067	0.0001
601.4973	0.0044
601.6879	0.0023
601.8785	0.0028
602.0691	0.0058
602.2596	0.0045
602.4502	0.0083
602.6407	0.0069
602.8312	0.0045
603.0217	-0.0048
603.2122	0.0014
603.4027	-0.001
603.5931	-0.0001
603.7835	-0.005
603.9739	-0.0025
604.1643	0.0011
604.3547	-0.0078
604.5451	0.0034
604.7354	0.0095
604.9257	0.0026
605.116	-0.0002
605.3063	0.0069
605.4966	0.0065
605.6869	0.0017
605.8771	0.0076
606.0673	0.0051
606.2575	0.0096
606.4477	0.0034
606.6379	0.0013
606.8281	0.0021
607.0182	0.0035
607.2083	0.0066
607.3985	-0.0015
607.5885	-0.0025
607.7786	0.0071
607.9687	-0.0037
608.1587	0.0053
608.3488	0.002
608.5388	-0.0002
608.7288	0.0003
608.9187	0.0017
609.1087	-0.0069
609.2986	-0.0029
609.4886	0.0042
609.6785	0.0004
609.8684	0.0044
610.0582	0.0067
610.2481	0.0025
610.4379	-0.0006
610.6278	0.0021
610.8176	0.0094
611.0074	-0.0033
611.1971	0.0042
611.3869	0.0055
611.5766	-0.0004
611.7664	0.0104
611.9561	0.0077
612.1458	0.0015
612.3354	-0.0025
612.5251	0.0013
612.7147	0.0073
612.9044	0.0097
613.094	0.0028
613.2836	0.0047
613.4731	0.0076
613.6627	0.0016
613.8522	0.0084
614.0417	0.0062
614.2313	0.0016
614.4207	-0.0012
614.6102	0.0057
614.7997	0.0038
614.9891	-0.0017
615.1785	0.0004
615.3679	0.0013
615.5573	0.0065
615.7467	0.0021
615.9361	-0.004
616.1254	0.0002
616.3147	0.001
616.504	0.0079
616.6933	0
616.8826	0.0073
617.0718	0.0091
617.2611	0.0064
617.4503	0.0006
617.6395	-0.0067
617.8287	0.006
618.0179	-0.0016
618.207	0.0067
618.3961	0.0031
618.5853	0.0004
618.7744	0.008
618.9634	0.0095
619.1525	0.0087
619.3416	0.0051
619.5306	0.0085
619.7196	0.0048
619.9086	0.0037
620.0976	0.011
620.2866	0.0049
620.4755	0.0122
620.6645	0.0055
620.8534	0.0104
621.0423	0.0067
621.2312	0.0108
621.42	0.0064
621.6089	0.0019
621.7977	0.0065
621.9865	-0.0019
622.1753	0.0099
622.3641	0.0018
622.5529	0.0089
622.7416	0.0167
622.9303	0.0017
623.1191	0.0181
623.3078	0.0042
623.4964	0.0088
623.6851	0.0037
623.8737	0.0012
624.0624	0.015
624.251	0.0035
624.4396	0.0001
624.6282	-0.0049
624.8167	0.0009
625.0053	0.0077
625.1938	0.0083
625.3823	-0.0009
625.5708	0.0028
625.7593	-0.0011
625.9477	0.0007
626.1362	0.0017
626.3246	0.0018
626.513	0.0115
626.7014	0.0061
626.8898	0.009
627.0781	0.0074
627.2665	-0.0049
627.4548	0.0056
627.6431	-0.0029
627.8314	0.0035
628.0197	0.0013
628.2079	-0.0099
628.3962	0.0003
628.5844	0.0023
628.7726	0.0092
628.9608	0.0062
629.1489	0.0073
629.3371	0.0071
629.5252	0.0003
629.7134	0.0068
629.9015	-0.0045
630.0895	0.0008
630.2776	0.0014
630.4657	-0.0045
630.6537	-0.0003
630.8417	0.0013
631.0297	-0.0006
631.2177	0.0109
631.4057	-0.0046
631.5936	0.0053
631.7815	0.0063
631.9695	0.0065
632.1574	0.0047
632.3452	0.0189
632.5331	0.0077
632.7209	0.0039
632.9088	0.0045
633.0966	0.0093
633.2844	0.0043
633.4722	0.0043
633.6599	0.0127
633.8477	-0.0004
634.0354	0.0048
634.2231	0.0031
634.4108	0.003
634.5985	0.0115
634.7861	0.0067
634.9738	0.006
635.1614	0.0056
635.349	0.0051
635.5366	-0.0019
635.7242	0.0031
635.9117	0.0066
636.0993	-0.0009
636.2868	0.003
636.4743	0.0035
636.6618	0.0141
636.8492	0.006
637.0367	0.0024
637.2241	0.0015
637.4115	-0.0029
637.5989	0.0026
637.7863	0.0001
637.9737	0
638.161	0.0033
638.3484	0.0027
638.5357	0.0081
638.723	-0.004
638.9103	0.0054
639.0975	0.01
639.2848	0.0076
639.472	0.0074
639.6592	0.0096
639.8464	0.0054
640.0336	0.01
640.2208	-0.0022
640.4079	-0.003
640.595	0.0088
640.7821	0.0082
640.9692	0.0013
641.1563	-0.0023
641.3434	0.0012
641.5304	0.0016
641.7174	0.0027
641.9044	-0.0009
642.0914	0.0052
642.2784	0.005
642.4653	0.0092
642.6523	0.0029
642.8392	0.0032
643.0261	-0.0027
643.213	0.0066
643.3999	-0.0011
643.5867	-0.0034
643.7735	0.0036
643.9604	0
644.1472	0.0008
644.3339	0.0013
644.5207	-0.0023
644.7075	-0.0011
644.8942	0.0075
645.0809	0.0076
645.2676	0.0056
645.4543	0.0089
645.6409	0.005
645.8276	0.0012
646.0142	0.0076
646.2008	-0.0019
646.3874	-0.0026
646.574	0.0045
646.7605	0.0011
646.9471	-0.0068
647.1336	0.0114
647.3201	0.0045
647.5066	-0.0004
647.6931	0.0065
647.8795	0.005
648.0659	0.0085
648.2524	0.0116
648.4388	0.0004
648.6252	0.0073
648.8115	0.0036
648.9979	0.0006
649.1842	0.0018
649.3705	0.0037
649.5568	0.0046
649.7431	0.0133
649.9294	-0.0043
650.1156	0.0073
650.3018	0.0059
650.488	0.0126
650.6742	0.008
650.8604	0.0047
651.0466	0.0016
651.2327	0.0002
651.4188	0.0064
651.6049	0.0008
651.791	-0.0003
651.9771	0.0031
652.1632	0.0087
652.3492	0.0043
652.5352	0.0007
652.7212	-0.0004
652.9072	0.0032
653.0932	0.0007
653.2791	0.0016
653.465	0.0008
653.651	-0.0085
653.8369	-0.0002
654.0227	0.0055
654.2086	0.0065
654.3944	0.0078
654.5803	0.0081
654.7661	-0.0007
654.9519	0.0047
655.1377	-0.003
655.3234	0.0032
655.5092	-0.0033
655.6949	-0.0058
655.8806	-0.0057
656.0663	-0.0016
656.2519	-0.0034
656.4376	-0.0065
656.6232	0.0042
656.8088	0.0007
656.9945	0.0089
657.18	0.0028
657.3656	0.0047
657.5511	-0.0066
657.7367	-0.0006
657.9222	0.0022
658.1077	0.0089
658.2932	0.0043
658.4786	-0.004
658.6641	-0.007
658.8495	-0.0039
659.0349	-0.0016
659.2203	0.0136
659.4057	0.0046
659.591	0.0029
659.7764	-0.0016
659.9617	0.0019
660.147	0.0058
660.3323	0.0084
660.5176	0.0092
660.7028	0.0061
660.888	0.0067
661.0733	0.0033
661.2585	0.0023
661.4436	0.0054
661.6288	0.0014
661.8139	0.0024
661.9991	0.0101
662.1842	-0.0015
662.3693	0.0019
662.5544	-0.0008
662.7394	0.0061
662.9245	0.0037
663.1095	0.0057
663.2945	0.0062
663.4795	0.0093
663.6644	0.0113
663.8494	0.0052
664.0343	0.0033
664.2193	0.0007
664.4042	-0.0015
664.589	0.0028
664.7739	0.0025
664.9587	0.0013
665.1436	0.0034
665.3284	0.0094
665.5132	-0.0019
665.698	0.0039
665.8827	0.0077
666.0675	0.0017
666.2522	0.0016
666.4369	0.0056
666.6216	0.0033
666.8063	0.001
666.9909	0.004
667.1756	-0.001
667.3602	0.0003
667.5448	0.0022
667.7294	0.0108
667.9139	0.0004
668.0985	0.0185
668.283	-0.0021
668.4675	0.0062
668.652	0.0061
668.8365	0.0004
669.0209	0.0157
669.2054	0.0093
669.3898	0.001
669.5742	0.0061
669.7586	0.0057
669.943	0.0123
670.1273	0.01
670.3117	0.0077
670.496	0.0141
670.6803	0.0118
670.8646	0.0175
671.0488	0.0011
671.2331	0.0112
671.4173	0.0143
671.6015	0.0004
671.7857	0.0028
671.9699	0.011
672.1541	0.01
672.3382	0.0052
672.5223	0.0089
672.7064	0.0064
672.8905	0.0129
673.0746	0.0049
673.2587	-0.0009
673.4427	0.0008
673.6267	0.0149
673.8107	0.0134
673.9947	0.0103
674.1787	0.0082
674.3626	-0.0021
674.5465	0.008
674.7304	0.0055
674.9143	0.0082
675.0982	0.0139
675.2821	0.0075
675.4659	0.0078
675.6497	0.0007
675.8335	0.0009
676.0173	0.0004
676.2011	-0.0021
676.3849	0.0031
676.5686	-0.0024
676.7523	0.0054
676.936	-0.0052
677.1197	0.0018
677.3034	-0.0042
677.487	0.0064
677.6706	-0.0015
677.8542	0.0057
678.0378	0.0002
678.2214	0.0055
678.405	0.0003
678.5885	-0.007
678.772	0.0028
678.9555	-0.0096
679.139	-0.0025
679.3225	-0.0005
679.5059	-0.002
679.6894	0.0038
679.8728	-0.0034
680.0562	-0.0008
680.2395	-0.0023
680.4229	-0.0028
680.6062	0.0127
680.7896	0.0016
680.9729	-0.0036
681.1562	0.0034
681.3394	0.0025
681.5227	-0.0054
681.7059	0.0025
681.8891	-0.0035
682.0723	0.0083
682.2555	0.0088
682.4387	0.0008
682.6218	-0.0037
682.805	0.0085
682.9881	0.0116
683.1712	0.0015
683.3542	0.0023
683.5373	0.0056
683.7203	-0.0096
683.9034	-0.002
684.0864	-0.0102
684.2694	-0.0042
684.4523	0.0079
684.6353	0.0031
684.8182	0.0074
685.0011	-0.007
685.184	0.0022
685.3669	0.0014
685.5498	0.0043
685.7326	-0.0023
685.9154	0.0024
686.0982	0.0081
686.281	0.0002
686.4638	0.0029
686.6465	0.0041
686.8293	-0.0017
687.012	0.0039
687.1947	-0.0003
687.3774	0.0032
687.56	0.0065
687.7427	0.0141
687.9253	-0.0025
688.1079	0.0041
688.2905	0.0125
688.4731	-0.002
688.6556	-0.0002
688.8382	0.005
689.0207	0.0028
689.2032	-0.0045
689.3857	0.0022
689.5681	0.0021
689.7506	0.0034
689.933	0.0049
690.1154	-0.0056
690.2978	0.0016
690.4802	0.0058
690.6626	-0.0085
690.8449	-0.0027
691.0272	0.0051
691.2095	-0.0031
691.3918	0.0003
691.5741	0.0089
691.7563	0.0078
691.9386	0.0033
692.1208	0.0068
692.303	0.0046
692.4852	0.0032
692.6673	0.0018
692.8495	-0.0084
693.0316	0.0049
693.2137	-0.0046
693.3958	0.0119
693.5778	0.0014
693.7599	0.003
693.9419	0.0021
694.1239	0.0065
694.3059	-0.0011
694.4879	0.0119
694.6699	0.0088
694.8518	0.0026
695.0337	0.0025
695.2157	0.0037
695.3975	0.0055
695.5794	0.0016
695.7613	0.0068
695.9431	-0.0037
696.1249	0.0006
696.3067	0.0067
696.4885	0.0069
696.6703	-0.0057
696.852	0.0025
697.0337	0.0043
697.2154	0.0067
697.3971	0.0087
697.5788	0.0046
697.7605	0.0008
697.9421	0.0136
698.1237	0.0044
698.3053	0.0056
698.4869	0.0017
698.6685	-0.0068
698.85	0.0001
699.0315	0.0013
699.213	0.0018
699.3945	0.0058
699.576	0.013
699.7575	0.0048
699.9389	0.0138
700.1203	0.0041
700.3017	-0.0025
700.4831	-0.0046
700.6645	0.0083
700.8458	0.0051
701.0271	0.0027
701.2084	0.0079
701.3897	-0.0002
701.571	0.0048
701.7523	0.0042
701.9335	0.0008
702.1147	0.0039
702.2959	0.0038
702.4771	0.001
702.6583	0.0031
702.8394	-0.0016
703.0205	0.0062
703.2016	-0.0019
703.3827	0.0019
703.5638	0.0099
703.7449	0.0026
703.9259	0.0147
704.1069	-0.0054
704.2879	-0.0016
704.4689	-0.0003
704.6499	-0.0014
704.8308	-0.0011
705.0117	0.0012
705.1927	0.0016
705.3735	-0.0059
705.5544	-0.0079
705.7353	-0.0044
705.9161	-0.0001
706.0969	0.0005
706.2777	-0.0039
706.4585	-0.0013
706.6393	0.0017
706.82	-0.0009
707.0007	0.0116
707.1815	0.0064
707.3621	0.0103
707.5428	0.0037
707.7235	0.0057
707.9041	0.0105
708.0847	-0.0066
708.2653	0.0023
708.4459	-0.012
708.6265	0.0036
708.807	0.0012
708.9875	0.0049
709.168	0.0003
709.3485	0.002
709.529	-0.0023
709.7095	-0.0106
709.8899	-0.002
710.0703	0.0007
710.2507	0.0011
710.4311	0.0001
710.6115	-0.0071
710.7918	-0.0009
710.9721	-0.0003
711.1524	-0.002
711.3327	-0.0014
711.513	0.0013
711.6932	-0.0018
711.8735	0.008
712.0537	-0.0012
712.2339	0.0016
712.4141	-0.0041
712.5942	-0
712.7744	-0.0033
712.9545	-0.0083
713.1346	-0.0033
713.3147	-0.0049
713.4947	-0.007
713.6748	0.0039
713.8548	0.0013
714.0348	-0.0024
714.2148	-0.0006
714.3948	0.0096
714.5748	-0.0082
714.7547	0.0032
714.9346	0.0084
715.1145	0.001
715.2944	-0.0134
715.4743	0.0035
715.6541	-0.004
715.834	0.0106
716.0138	-0.0084
716.1936	-0.0112
716.3733	-0.0039
716.5531	0.0131
716.7328	0.0014
716.9126	-0.0058
717.0923	0.0136
717.2719	0.0067
717.4516	0.0033
717.6312	0.0052
717.8109	-0.0007
717.9905	0.011
718.1701	-0.001
718.3496	-0.0031
718.5292	0.0047
718.7087	0.0009
718.8882	0.0075
719.0677	0.0076
719.2472	-0.0038
719.4267	0.002
719.6061	-0.0066
719.7856	0.0043
719.965	0.0063
720.1443	0.0034
720.3237	0.0117
720.5031	0.0052
720.6824	0.0119
720.8617	-0.0056
721.041	0.0008
721.2203	0.0079
721.3995	0.0023
721.5788	0.0084
721.758	0.0073
721.9372	0.0008
722.1164	0.0018
722.2956	0.0011
722.4747	0.0006
722.6538	0.0107
722.8329	0.0135
723.012	0.0121
723.1911	0.0027
723.3702	0.0033
723.5492	0.0112
723.7282	-0.0026
723.9072	0.0095
724.0862	0.0024
724.2652	0.0006
724.4441	0.0006
724.623	0.0023
724.8019	-0.0014
724.9808	-0.0022
725.1597	-0.0102
725.3385	-0.0028
725.5174	0.0059
725.6962	-0.0018
725.875	-0.0028
726.0538	0.0018
726.2325	-0.0025
726.4112	0.005
726.59	-0.0066
726.7687	-0.006
726.9474	0.0058
727.126	-0.0086
727.3047	-0.0016
727.4833	0.002
727.6619	-0.0079
727.8405	-0.0149
728.0191	-0.0048
728.1976	-0.0024
728.3762	-0.0058
728.5547	0.0028
728.7332	-0.0126
728.9116	0.004
729.0901	0.015
729.2686	-0.0093
729.447	0.0002
729.6254	-0.0008
729.8038	0.0048
729.9821	-0.015
730.1605	0.0003
730.3388	-0.0005
730.5171	0.0012
730.6954	-0.011
730.8737	0.0066
731.0519	0.0046
731.2302	0.005
731.4084	0.0184
731.5866	0.0111
731.7648	0.0061
731.9429	0.0053
732.1211	-0.0106
732.2992	0.0038
732.4773	-0.0041
732.6554	-0.0054
732.8335	0.0036
733.0115	0.0056
733.1896	0.0113
733.3676	0.0027
733.5456	0.013
733.7235	0.0045
733.9015	0.0012
734.0794	-0.004
734.2574	0.0009
734.4353	0.0035
734.6131	0.0056
734.791	0.0053
734.9689	0.0074
735.1467	0.0087
735.3245	-0.0009
735.5023	0.0007
735.68	0.0121
735.8578	0.0142
736.0355	-0.0045
736.2132	-0.0071
736.3909	-0.0021
736.5686	-0.007
736.7463	0.0103
736.9239	-0.0004
737.1015	0.0046
737.2791	0.009
737.4567	0.0015
737.6343	-0.0016
737.8118	0.0046
737.9894	0.009
738.1669	-0.0015
738.3444	-0.0087
738.5218	0.0017
738.6993	-0.007
738.8767	-0.0041
739.0541	0.0148
739.2315	-0.0097
739.4089	-0.0019
739.5863	0.0076
739.7636	-0.0065
739.9409	0.0111
740.1182	0.0045
740.2955	0.0013
740.4728	-0.0044
740.65	0
740.8272	-0.0032
741.0044	-0.0143
741.1816	0.0017
741.3588	-0.0018
741.5359	0.0013
741.7131	-0.0081
741.8902	-0.0035
742.0673	0.0016
742.2444	-0.0146
742.4214	-0.0041
742.5985	-0.0001
742.7755	-0.0067
742.9525	-0.0111
743.1295	-0.001
743.3064	-0.008
743.4834	0.0084
743.6603	-0.0028
743.8372	-0.0036
744.0141	0.0032
744.191	0.0072
744.3678	-0.0036
744.5446	0.0032
744.7215	0.0044
744.8982	0.001
745.075	-0.0098
745.2518	-0.0077
745.4285	0.0048
745.6052	-0.0017
745.7819	-0.0083
745.9586	-0.002
746.1353	0.0023
746.3119	-0.0081
746.4885	-0.0058
746.6651	-0.0108
746.8417	-0.0036
747.0183	-0.0049
747.1948	-0.0071
747.3714	-0.0034
747.5479	-0.0015
747.7244	-0.0093
747.9008	0.0051
748.0773	-0.0024
748.2537	-0.0068
748.4301	-0.0032
748.6065	0.0069
748.7829	0.0086
748.9593	-0.0026
749.1356	0.0088
749.3119	0.0107
749.4882	-0.0081
749.6645	0.0009
749.8408	-0.0117
750.017	-0.0009
750.1933	-0.0026
750.3695	-0.0029
750.5457	0.0095
750.7218	-0.0006
750.898	0.0032
751.0741	0.0003
751.2502	0.0014
751.4263	-0.0096
751.6024	-0.0023
751.7784	-0.0102
751.9545	-0.0012
752.1305	-0.0005
752.3065	-0.0013
752.4825	0.0127
752.6584	0.0041
752.8344	-0.0085
753.0103	-0.0071
753.1862	-0.0022
753.3621	-0.0013
753.5379	-0.0127
753.7138	0.0014
753.8896	-0.0009
754.0654	0.0052
754.2412	0.0121
754.417	0.003
754.5927	-0.0077
754.7685	-0.0055
754.9442	-0.0013
755.1199	0.0105
755.2956	0.0001
755.4712	0.0153
755.6469	0.0045
755.8225	-0.005
755.9981	-0.0091
756.1736	-0.0032
756.3492	0.001
756.5248	0.0006
756.7003	-0.0024
756.8758	0.0025
757.0513	-0.0144
757.2267	-0.0075
757.4022	0.0025
757.5776	-0.0117
757.753	0.0066
757.9284	-0.0033
758.1038	0.0104
758.2791	0.0006
758.4545	-0.0073
758.6298	0.0074
758.8051	0.001
758.9803	-0.0023
759.1556	-0.0086
759.3308	-0.0046
759.506	0.0128
759.6812	-0.0018
759.8564	0.0112
760.0316	-0.0025
760.2067	0.0078
760.3819	0.0074
760.557	0.0163
760.732	0.0093
760.9071	-0.0105
761.0821	0.0028
761.2572	0.0136
761.4322	0.0108
761.6072	0.0084
761.7821	-0.0041
761.9571	0.0018
762.132	-0.0079
762.3069	-0.0045
762.4818	-0.005
762.6567	-0.0091
762.8316	-0.0046
763.0064	0.0033
763.1812	-0.0078
763.356	-0.0052
763.5308	0.0052
763.7055	0.0033
763.8803	-0.0074
764.055	-0.0035
764.2297	-0.0006
764.4044	0.0019
764.579	-0.0099
764.7537	-0.0047
764.9283	0.0056
765.1029	-0.0032
765.2775	-0.0061
765.4521	-0.0038
765.6266	-0.0033
765.8011	0.0046
765.9756	0.0062
766.1501	0.0027
766.3246	0.0079
766.4991	-0.0041
766.6735	0.0143
766.8479	-0.003
767.0223	0.0066
767.1967	0.0054
767.371	0.0078
767.5454	0
767.7197	0.0043
767.894	-0.0065
768.0683	-0.0123
768.2425	-0.0032
768.4168	0.0071
768.591	0.0031
768.7652	0.0126
768.9394	0.0024
769.1135	-0.0029
769.2877	0.0064
769.4618	-0.003
769.6359	0.0023
769.81	0.0103
769.984	-0.0012
770.1581	-0.0135
770.3321	0.0014
770.5061	0.0065
770.6801	-0.0022
770.8541	0.0021
771.028	0.0042
771.202	-0.0114
771.3759	0.0013
771.5498	-0.0052
771.7236	-0.0044
771.8975	0.0064
772.0713	0.005
772.2451	0.0031
772.4189	0.0079
772.5927	0.0129
772.7665	-0.0009
772.9402	-0.0109
773.1139	-0.0026
773.2876	0.0019
773.4613	0.0129
773.635	0.0063
773.8086	-0.014
773.9822	-0.0015
774.1558	-0.0014
774.3294	-0.0059
774.503	0.0076
774.6765	0.0055
774.8501	0.0122
775.0236	0.0104
775.1971	0.004
775.3705	0.009
775.544	0.0218
775.7174	0.0035
775.8908	-0.0038
776.0642	0.0068
776.2376	0.0087
776.4109	-0.0006
776.5843	-0.0008
776.7576	0.0095
776.9309	0.0178
777.1041	0.0216
777.2774	0.0172
777.4506	0.0007
777.6238	0.0053
777.797	0.0093
777.9702	0.0038
778.1434	-0.0073
778.3165	-0.0124
778.4896	-0.0004
778.6627	0.0089
778.8358	0.0022
779.0089	-0.0102
779.1819	-0.0073
779.3549	0.0069
779.5279	0.0046
779.7009	0.0011
779.8739	-0.0115
780.0468	0.0093
780.2197	0.0028
780.3926	0.0041
780.5655	-0.0136
780.7384	-0.0002
780.9112	-0.0067
781.0841	-0.0104
781.2569	0.0011
781.4297	0.0123
781.6024	0.0086
781.7752	-0.0098
781.9479	0.0076
782.1206	0.0118
782.2933	-0.0005
782.466	0.0039
782.6386	0.0098
782.8113	-0.0001
782.9839	0.0075
783.1565	0.0133
783.329	0.0091
783.5016	0.0059
783.6741	0.0127
783.8466	0.0069
784.0191	0.0151
784.1916	0.0101
784.3641	0.0094
784.5365	0.016
784.7089	-0.0006
784.8813	0.0018
785.0537	0.0097
785.2261	0.001
785.3984	0.0053
785.5707	0.0101
785.743	0.0107
785.9153	0.0066
786.0876	0.0152
786.2598	0.0042
786.432	-0.0055
786.6042	0.0199
786.7764	-0.0051
786.9486	0.0134
787.1207	-0.0083
787.2928	0.0126
787.4649	0.0013
787.637	0.0093
787.8091	-0.0074
787.9811	-0.005
788.1532	0.0023
788.3252	0.0118
788.4972	0.0022
788.6691	-0.0039
788.8411	0.0183
789.013	0.0112
789.1849	0.0145
789.3568	0.0115
789.5287	-0.0021
789.7005	-0.0119
789.8723	0.0035
790.0442	0.011
790.2159	0.0092
790.3877	0.021
790.5595	-0.0134
790.7312	0.0077
790.9029	0.0042
791.0746	-0.0085
791.2463	0.0038
791.4179	0.0056
791.5896	-0.0017
791.7612	0.0035
791.9328	0.0028
792.1044	-0.0118
792.2759	-0.0227
792.4474	-0.005
792.619	-0.0023
792.7905	0.0125
792.9619	0.0021
793.1334	0.026
793.3048	0.0096
793.4762	-0.0027
793.6476	0.0058
793.819	-0.0044
793.9904	0.0044
794.1617	0
794.333	0.0075
794.5043	-0.0016
794.6756	-0.0109
794.8469	0.0178
795.0181	-0.0055
795.1893	-0.0054
795.3605	-0.0046
795.5317	-0.0003
795.7029	-0.0037
795.874	0.0092
796.0452	0.0018
796.2163	0.0096
796.3873	0.0208
796.5584	0.0204
796.7294	0.0056
796.9005	0.013
797.0715	0.0027
797.2425	-0.0061
797.4134	-0.0012
797.5844	0.0222
797.7553	-0.0031
797.9262	0.0182
798.0971	-0.0122
798.2679	-0.0053
798.4388	-0.0069
798.6096	-0.0079
798.7804	-0.0037
798.9512	0.0066
799.122	-0.0015
799.2927	0.0172
799.4635	0.0193
799.6342	-0.0151
799.8049	-0.0115
799.9755	0.0096
800.1462	0.0039
800.3168	0.0302
800.4874	0.0057
800.658	0.0197
800.8286	0.0143
800.9991	-0.0003
801.1696	0.0095
801.3402	0.0264
801.5106	0.0054
801.6811	-0.0011
801.8516	0.0147
802.022	0.0219
802.1924	0.0027
802.3628	0.0194
802.5332	0.0212
802.7035	0.0219
802.8739	0.0022
803.0442	-0.0051
803.2145	0.0182
803.3847	-0.0047
803.555	-0.0025
803.7252	0.0038
803.8954	-0.0126
804.0656	-0.005
804.2358	0.0203
804.4059	0.0278
804.5761	0.0205
804.7462	-0.0101
804.9163	-0.0077
805.0864	-0.0046
805.2564	0.0055
805.4264	0.0005
805.5965	-0.0158
805.7665	0.0198
805.9364	0.003
806.1064	0.0228
806.2763	0.0011
806.4462	0.0288
806.6161	0.0081
806.786	0.006
806.9559	0.009
807.1257	-0.0082
807.2955	0.0083
807.4653	0.0021
807.6351	0.0039
807.8048	0.0055
807.9746	0.0324
808.1443	0.0155
808.314	0.002
808.4837	0.0034
808.6533	0.0116
808.8229	0.027
808.9926	0.0103
809.1622	0.0063
809.3317	0.0103
809.5013	-0.0044
809.6708	0.0132
809.8403	0.0218
810.0098	0.0044
810.1793	0.0152
810.3488	0.0069
810.5182	0.0022
810.6876	-0.0057
810.857	-0.018
811.0264	0.0273
811.1958	0.0142
811.3651	0.0395
811.5344	0.0009
811.7037	0.0104
811.873	-0.0101
812.0422	0.0159
812.2115	0.0194
812.3807	0.0099
812.5499	0.0149
812.7191	0.0241
812.8882	-0.0016
813.0574	0.0178
813.2265	-0.0167
813.3956	0.0069
813.5646	0.0138
813.7337	-0.0234
813.9027	0.0194
814.0718	0.0534
814.2407	0.023
814.4097	0.0125
814.5787	-0.0051
814.7476	0.0095
814.9165	0.0168
815.0854	0.0173
815.2543	-0.0068
815.4232	0.004
815.592	0.022
815.7608	0.0282
815.9296	0.0289
816.0984	0.0291
816.2671	0.0027
816.4359	0.0133
816.6046	0.0312
816.7733	0.0065
816.942	0.0026
817.1106	0.0138
817.2793	0.0326
817.4479	-0.0054
817.6165	0.0198
817.785	0.0295
817.9536	0.0087
818.1221	0.0125
818.2906	0.0127
818.4591	-0.0032
818.6276	-0.0076
818.7961	0.0125
818.9645	0.0044
819.1329	0.0116
819.3013	0.0328
819.4697	0.05
819.638	0.0197
819.8064	0.0146
819.9747	0.006
820.143	0.017
820.3113	0.0194
820.4795	0.0001
820.6477	0.0074
820.816	0.0096
820.9842	0.0055
821.1523	0.017
821.3205	-0.0013
821.4886	-0.0106
821.6567	-0.0042
821.8248	0.0181
821.9929	0.0245
822.1609	0.0264
822.329	0.0091
822.497	0.0202
822.665	0.0045
822.833	-0.0034
823.0009	0.0312
823.1688	0.0398
823.3367	0.0213
823.5046	0.029
823.6725	0.0231
823.8404	0.0105
824.0082	0.0201
824.176	0.0232
824.3438	-0.0058
824.5116	-0.0094
824.6793	0.0356
824.847	0.008
825.0147	-0.0113
825.1824	0.0595
825.3501	0.0121
825.5177	-0.0065
825.6854	0.0023
825.853	0.0331
826.0206	0.0076
826.1881	0.0031
826.3557	-0.0243
826.5232	-0.0033
826.6907	-0.0017
826.8582	0.033
827.0257	0.0015
827.1931	0.0115
827.3605	0.0138
827.528	0.0309
827.6953	0.0015
827.8627	-0.0128
828.03	0.0377
828.1974	-0.0241
828.3647	-0.0412
828.532	0.0203
828.6992	0.0245
828.8665	0.0227
829.0337	-0.0044
829.2009	0.0154
829.3681	0.0126
829.5352	0.0486
829.7024	-0.0173
829.8695	-0.0249
830.0366	0.0551
830.2037	0.0084
830.3707	0.0377
830.5378	0.0093
830.7048	0.0185
830.8718	0.0128
831.0388	-0.0222
831.2057	0.0115
831.3727	0.0591
831.5396	-0.0033
831.7065	-0.0084
831.8734	0.0144
832.0402	-0.0208
832.2071	0.0052
832.3739	-0.0306
832.5407	0.0185
832.7075	-0.0329
832.8742	-0.0011
833.041	-0.0038
833.2077	-0.0137
833.3744	0.0263
833.541	0.0212
833.7077	0.0279
833.8743	-0.0159
834.0409	0.0247
834.2075	-0.016
834.3741	0.0184
834.5407	-0.0222
834.7072	-0.003
834.8737	-0.0281
835.0402	0.0118
835.2067	0.0379
835.3731	0.0163
835.5395	0.0238
835.706	0.0093
835.8723	0.0031
836.0387	0.0302
836.2051	0.0274
836.3714	0.0373
836.5377	0.025
836.704	-0.0027
836.8703	0.0305
837.0365	0.0024
837.2027	-0.0205
837.3689	0.0111
837.5351	0.017
837.7013	-0.0107
837.8674	-0.047
838.0335	0.0088
838.1997	-0.0243
838.3657	-0.0536
838.5318	0.0311
838.6978	0.0481
838.8639	0.0223
839.0299	0.0437
839.1958	0.0121
839.3618	0.0002
839.5277	-0.0133
839.6937	0.0044
839.8596	0.0039
840.0254	0.024
840.1913	0.0035
840.3571	-0.0119
840.523	0.0399
840.6888	-0.009
840.8545	-0.0331
841.0203	-0.0399
841.186	0.0097
841.3517	-0.0095
841.5174	0.0153
841.6831	-0.0428
841.8488	-0.0087
842.0144	0.0189
842.18	0.0286
842.3456	0.0155
842.5112	0.0084
842.6767	-0.0255
842.8422	-0.0247
843.0077	0.0096
843.1732	-0.0355
843.3387	0.0141
843.5042	-0.0312
843.6696	-0.0455
843.835	0.0145
844.0004	0.0696
844.1657	0.0187
844.3311	-0.0464
844.4964	-0.0916
844.6617	-0.0278
844.827	-0.019
844.9923	0.0084
845.1575	0.0039
845.3227	0.0204
845.4879	0.027
845.6531	0.047
845.8183	-0.0483
845.9834	0.0234
846.1485	-0.0168
846.3136	-0.0315
846.4787	-0.0119
846.6438	0.0549
846.8088	-0.04
846.9738	-0.0593
847.1388	-0.0489
847.3038	0.0656
847.4687	-0.1039
847.6337	0.0585
847.7986	-0.0329
847.9635	-0.0155
848.1284	0.0464
848.2932	0.1636
848.458	-0.0402
848.6228	0.0188
848.7876	0.0821
848.9524	0.0401
849.1172	-0.0851
849.2819	0.0117
849.4466	-0.1087
849.6113	-0.0732
849.7759	-0.0094
849.9406	0.0418
850.1052	-0.0073
850.2698	0.0101
850.4344	-0.0243
850.599	-0.0805
850.7635	0.119
850.928	-0.0297
851.0925	0.0429
851.257	-0.0083
851.4215	0.022
851.5859	-0.0452
851.7503	0.056
851.9147	0.0455
852.0791	0.0354
852.2434	0.0259
852.4078	0.0704
852.5721	0.0722
852.7364	-0.0056
852.9007	-0.096
853.0649	0.0504
853.2291	-0.0213
853.3934	-0.0241
853.5575	0.0403
853.7217	-0.0776
853.8859	-0.144
854.05	-0.0984
854.2141	-0.0343
854.3782	-0.1069
854.5423	-0.0711
854.7063	0.0809
854.8703	0.0323
855.0343	-0.0207
855.1983	-0.1458
855.3623	0.1853
855.5262	-0.1311
855.6901	-0.0368
855.854	0.011
856.0179	0.0701
856.1818	0.0876
856.3456	-0.0443
856.5094	-0.0962
856.6732	-0.1751
856.837	-0.0603
857.0008	0.1713
857.1645	0.0558
857.3282	-0.2916
857.4919	0.0813
857.6556	0.1514
857.8192	0.1003
857.9828	0.0991
858.1465	-0.071
858.31	-0.2004
858.4736	0.0982
858.6372	-0.2337
858.8007	-0.0977
858.9642	0.0295
859.1277	-0.1071
859.2911	0.0348
859.4546	-0.0216
859.618	-0.4408
859.7814	-0.053
859.9448	0.3294
860.1081	-0.0534
860.2715	0.1531
860.4348	0.1834
860.5981	-0.107
860.7614	0.2464
860.9246	-0.2044
861.0879	-0.1334
861.2511	0.0893
861.4143	-0.1911
861.5774	0.1615
861.7406	-0.1373
861.9037	0.1301
862.0668	-0.0886
862.2299	-0.0714
862.393	-0.589
862.556	-0.0721
862.7191	-0.1012
862.8821	0.2032
863.0451	0.0125
863.208	-0.0233
863.371	0.0289
863.5339	-0.158
863.6968	-0.0366
863.8597	-0
864.0225	0.1326
864.1854	0.1653
864.3482	-0.0205
864.511	0.0674
864.6737	0.2305
864.8365	-0.0409
864.9992	-0.4806
865.1619	-0.5709
865.3246	-0.2273
865.4873	0.6685
865.65	-0.1829
865.8126	-0.0286
865.9752	0.0294
866.1378	-0.254
866.3004	-0.0367
866.4629	0.1714
866.6254	-0.2844
866.7879	-0.2532
866.9504	-0
867.1129	-0
867.2753	-0.0121
867.4377	0.2733
867.6001	-0.3057
867.7625	0.1412
867.9249	-0.4481
868.0872	0.1332
868.2495	0.0264
868.4118	-0.2308
868.5741	-0.5672
868.7363	-0.1875
868.8986	-0.2838
869.0608	-0.1489
869.223	0.2168
869.3851	-0
869.5473	-0
869.7094	0.2549
869.8715	-0
870.0336	1.5315
870.1957	0.1673
870.3577	-1.2293
870.5197	-0.1856
870.6817	0.1238
870.8437	0.0153
871.0057	-0.1417
871.1676	1.045
871.3295	-0.4476
871.4914	-0
871.6533	-0.3819
871.8151	-0.3344
871.977	0.293
872.1388	-0
872.3006	1.0736
872.4623	-0
872.6241	-0
872.7858	-0
872.9475	-0.0694
873.1092	0.1335
873.2709	-0
873.4325	-0.3046
873.5941	-0.6503
873.7557	0.5037
873.9173	-0
874.0789	-0.1804
874.2404	0.3904
874.4019	0.5165
874.5634	0.1036
874.7249	-0.3128
874.8863	-0.1053
875.0478	-0.0965
875.2092	-0
875.3706	-0
875.5319	-0.8421
875.6933	-0
875.8546	-0.2215
876.0159	0.6864
876.1772	0.3112
876.3385	-0
876.4997	-0
876.6609	-0.6034
876.8221	0.3286
876.9833	0.4056
877.1445	-0
877.3056	-0.0895
877.4667	0.2845
877.6278	-0
877.7889	-0.5682
877.9499	-0
878.111	-0.9488
878.272	-0
878.433	2.3304
878.5939	-0
878.7549	-0
878.9158	-0.2832
879.0767	0.194
879.2376	0.0532
879.3984	-0
879.5593	-0
879.7201	-0.0205
879.8809	-0.6997
880.0417	-0
880.2024	0.2693
880.3632	-0.6606
880.5239	0.5866
880.6846	-0
880.8452	-2.4306
881.0059	-0.5682
881.1665	0.2102
881.3271	-0.0042
881.4877	-0
881.6483	-0
881.8088	-0.4219
881.9693	0.8177
882.1298	0.8177
882.2903	0.8177
