Data from MonoPyChalIsomerACN10uM360nmA_Absorbance_13-57-27-904.txt Node
Date: Fri Jul 05 13:57:27 BST 2024
User: LASERRRRR
Spectrometer: FLMT03099
Trigger mode: 0
Integration Time (sec): 1.000000E-1
Scans to average: 1
Electric dark correction enabled: true
Nonlinearity correction enabled: false
Boxcar width: 0
XAxis mode: Wavelengths
Number of Pixels in Spectrum: 3648
>>>>>Begin Spectral Data<<<<<
179.3399	-0.2653
179.5586	-0.2653
179.7771	-0.2653
179.9957	-0.0108
180.2143	-0
180.4329	-0.0678
180.6514	0.1067
180.8699	-0
181.0885	-0.3487
181.307	0.0659
181.5255	-0.5569
181.744	-0.2292
181.9625	-0
182.181	-0
182.3994	0.9167
182.6179	-0
182.8363	0.2158
183.0547	-0.0843
183.2732	-0.1008
183.4916	-0.0184
183.71	0.2108
183.9284	0.0743
184.1467	-0.1148
184.3651	0.0036
184.5835	0.1607
184.8018	0.2542
185.0201	0.0187
185.2385	-0.0628
185.4568	0.2886
185.6751	0.2803
185.8934	0.9412
186.1117	0.1652
186.3299	0.0875
186.5482	0.0822
186.7664	0.0133
186.9847	0.0897
187.2029	-0.0041
187.4211	-0.0194
187.6393	-0.0367
187.8575	0.2471
188.0757	0.2877
188.2939	0.1221
188.512	0.1492
188.7302	-0.0714
188.9483	-0.0079
189.1665	0.1553
189.3846	0.065
189.6027	0.1797
189.8208	0.1776
190.0389	0.119
190.257	0.2086
190.475	0.0589
190.6931	0.3465
190.9111	0.4489
191.1292	0.3453
191.3472	0.9922
191.5652	0.3407
191.7832	0.2449
192.0012	0.71
192.2192	0.3587
192.4371	0.4435
192.6551	0.3475
192.873	0.3384
193.091	0.3964
193.3089	0.7711
193.5268	0.6447
193.7447	0.7328
193.9626	0.6903
194.1805	0.7366
194.3984	1.0833
194.6162	0.4291
194.8341	0.6039
195.0519	0.7561
195.2697	0.6263
195.4875	0.6793
195.7054	0.5323
195.9231	0.6046
196.1409	0.5588
196.3587	0.6077
196.5765	0.6344
196.7942	0.6338
197.012	0.6222
197.2297	0.6055
197.4474	0.6991
197.6651	0.5769
197.8828	0.6204
198.1005	0.8267
198.3182	0.7058
198.5358	0.9007
198.7535	0.699
198.9711	0.6191
199.1888	0.6024
199.4064	0.7707
199.624	0.6371
199.8416	0.5897
200.0592	0.6799
200.2767	0.7315
200.4943	0.6262
200.7119	0.7227
200.9294	0.7547
201.1469	0.7078
201.3645	0.7186
201.582	0.5779
201.7995	0.6366
202.017	0.5917
202.2344	0.6548
202.4519	0.7825
202.6694	0.6355
202.8868	0.6318
203.1042	0.6148
203.3217	0.6585
203.5391	0.5503
203.7565	0.5323
203.9739	0.6112
204.1913	0.5942
204.4086	0.6767
204.626	0.7205
204.8433	0.6624
205.0607	0.6312
205.278	0.7
205.4953	0.5845
205.7126	0.7027
205.9299	0.7508
206.1472	0.6635
206.3644	0.6904
206.5817	0.6521
206.7989	0.7087
207.0162	0.5907
207.2334	0.8245
207.4506	0.6622
207.6678	0.6058
207.885	0.7109
208.1022	0.6573
208.3194	0.6706
208.5365	0.6125
208.7537	0.6777
208.9708	0.5811
209.1879	0.6229
209.405	0.7255
209.6222	0.7518
209.8392	0.6194
210.0563	0.6094
210.2734	0.6161
210.4905	0.6176
210.7075	0.6217
210.9245	0.6176
211.1416	0.731
211.3586	0.625
211.5756	0.5904
211.7926	0.5831
212.0096	0.5977
212.2265	0.5428
212.4435	0.6206
212.6604	0.5526
212.8774	0.6339
213.0943	0.5844
213.3112	0.5467
213.5281	0.5364
213.745	0.5163
213.9619	0.4782
214.1788	0.4793
214.3956	0.4982
214.6125	0.5026
214.8293	0.444
215.0461	0.498
215.2629	0.431
215.4798	0.4541
215.6965	0.4525
215.9133	0.4121
216.1301	0.3923
216.3469	0.4364
216.5636	0.3987
216.7803	0.3704
216.9971	0.4154
217.2138	0.4193
217.4305	0.3572
217.6472	0.3359
217.8639	0.409
218.0805	0.3485
218.2972	0.3242
218.5138	0.3113
218.7305	0.3444
218.9471	0.3151
219.1637	0.2787
219.3803	0.302
219.5969	0.2872
219.8135	0.2593
220.0301	0.3009
220.2466	0.2759
220.4632	0.2831
220.6797	0.2215
220.8962	0.2292
221.1127	0.2529
221.3292	0.2703
221.5457	0.2595
221.7622	0.2451
221.9787	0.2728
222.1951	0.2435
222.4116	0.2374
222.628	0.2459
222.8444	0.2684
223.0608	0.2659
223.2772	0.2732
223.4936	0.2606
223.71	0.2544
223.9264	0.2708
224.1427	0.2717
224.3591	0.2606
224.5754	0.2714
224.7917	0.2736
225.008	0.2723
225.2243	0.2687
225.4406	0.2607
225.6569	0.294
225.8732	0.2847
226.0894	0.2824
226.3057	0.2516
226.5219	0.291
226.7381	0.2646
226.9543	0.2767
227.1705	0.2926
227.3867	0.2903
227.6029	0.3009
227.8191	0.3098
228.0352	0.2951
228.2513	0.3292
228.4675	0.3458
228.6836	0.313
228.8997	0.297
229.1158	0.3081
229.3319	0.308
229.548	0.3316
229.764	0.3443
229.9801	0.3449
230.1961	0.3467
230.4121	0.3321
230.6282	0.3206
230.8442	0.3218
231.0602	0.3535
231.2761	0.3536
231.4921	0.3411
231.7081	0.3556
231.924	0.3476
232.14	0.387
232.3559	0.3431
232.5718	0.384
232.7877	0.3738
233.0036	0.3482
233.2195	0.3723
233.4353	0.3484
233.6512	0.3546
233.867	0.3754
234.0829	0.375
234.2987	0.3638
234.5145	0.3794
234.7303	0.3736
234.9461	0.4134
235.1619	0.3779
235.3776	0.405
235.5934	0.3988
235.8091	0.3775
236.0249	0.3895
236.2406	0.392
236.4563	0.388
236.672	0.3764
236.8877	0.3951
237.1034	0.4005
237.319	0.382
237.5347	0.3908
237.7503	0.4073
237.966	0.4242
238.1816	0.4009
238.3972	0.409
238.6128	0.3929
238.8284	0.4249
239.0439	0.4244
239.2595	0.41
239.475	0.3954
239.6906	0.4111
239.9061	0.389
240.1216	0.4036
240.3371	0.4071
240.5526	0.3803
240.7681	0.3926
240.9836	0.3765
241.199	0.4155
241.4145	0.3958
241.6299	0.3849
241.8453	0.373
242.0607	0.3789
242.2761	0.3634
242.4915	0.3549
242.7069	0.3752
242.9223	0.3522
243.1376	0.3589
243.353	0.3503
243.5683	0.3626
243.7836	0.3408
243.9989	0.3382
244.2142	0.314
244.4295	0.3264
244.6448	0.3143
244.86	0.2863
245.0753	0.3069
245.2905	0.2999
245.5057	0.2916
245.721	0.2817
245.9362	0.2638
246.1514	0.2731
246.3665	0.2601
246.5817	0.2533
246.7969	0.2487
247.012	0.2626
247.2271	0.2426
247.4423	0.2513
247.6574	0.2378
247.8725	0.2237
248.0876	0.2168
248.3026	0.2297
248.5177	0.2208
248.7328	0.1996
248.9478	0.1964
249.1628	0.2248
249.3779	0.216
249.5929	0.2024
249.8079	0.2124
250.0228	0.2071
250.2378	0.2071
250.4528	0.2112
250.6677	0.1839
250.8827	0.1941
251.0976	0.1967
251.3125	0.1869
251.5274	0.1874
251.7423	0.1822
251.9572	0.1987
252.172	0.1663
252.3869	0.1876
252.6017	0.1797
252.8166	0.1754
253.0314	0.1668
253.2462	0.1645
253.461	0.1756
253.6758	0.167
253.8906	0.1823
254.1053	0.1628
254.3201	0.1594
254.5348	0.186
254.7496	0.1786
254.9643	0.1693
255.179	0.1676
255.3937	0.1605
255.6083	0.1771
255.823	0.173
256.0377	0.1756
256.2523	0.1654
256.467	0.1585
256.6816	0.1889
256.8962	0.16
257.1108	0.1644
257.3254	0.1801
257.54	0.174
257.7545	0.1576
257.9691	0.1674
258.1836	0.1679
258.3981	0.1765
258.6127	0.1799
258.8272	0.1687
259.0417	0.1719
259.2561	0.1619
259.4706	0.1641
259.6851	0.1711
259.8995	0.1571
260.114	0.1601
260.3284	0.1683
260.5428	0.1573
260.7572	0.1631
260.9716	0.1802
261.186	0.1575
261.4003	0.1684
261.6147	0.159
261.829	0.1606
262.0433	0.1562
262.2577	0.1669
262.472	0.1623
262.6863	0.1523
262.9005	0.155
263.1148	0.1567
263.3291	0.1488
263.5433	0.1723
263.7576	0.148
263.9718	0.1655
264.186	0.1612
264.4002	0.1582
264.6144	0.1615
264.8286	0.1732
265.0427	0.1654
265.2569	0.1633
265.471	0.1699
265.6851	0.1631
265.8993	0.1655
266.1134	0.1602
266.3275	0.1589
266.5415	0.1543
266.7556	0.1675
266.9697	0.1506
267.1837	0.156
267.3978	0.1591
267.6118	0.1656
267.8258	0.1743
268.0398	0.1531
268.2538	0.1759
268.4677	0.1647
268.6817	0.1552
268.8957	0.1633
269.1096	0.1742
269.3235	0.164
269.5374	0.1501
269.7514	0.1464
269.9652	0.1569
270.1791	0.1547
270.393	0.1423
270.6068	0.1495
270.8207	0.1548
271.0345	0.1451
271.2483	0.1537
271.4622	0.1509
271.676	0.1555
271.8897	0.146
272.1035	0.1552
272.3173	0.1345
272.531	0.1519
272.7448	0.1475
272.9585	0.1452
273.1722	0.1512
273.3859	0.1586
273.5996	0.1356
273.8133	0.1569
274.0269	0.1503
274.2406	0.1298
274.4542	0.1481
274.6679	0.1391
274.8815	0.1449
275.0951	0.1504
275.3087	0.156
275.5223	0.1678
275.7358	0.1559
275.9494	0.1425
276.1629	0.1407
276.3765	0.1448
276.59	0.1575
276.8035	0.1498
277.017	0.1532
277.2305	0.1358
277.444	0.1487
277.6574	0.146
277.8709	0.1456
278.0843	0.1425
278.2978	0.1419
278.5112	0.144
278.7246	0.1503
278.938	0.154
279.1513	0.1577
279.3647	0.1524
279.5781	0.1485
279.7914	0.1557
280.0047	0.1586
280.2181	0.1501
280.4314	0.1619
280.6447	0.15
280.8579	0.1579
281.0712	0.1624
281.2845	0.1602
281.4977	0.1576
281.711	0.15
281.9242	0.1615
282.1374	0.1673
282.3506	0.1444
282.5638	0.1658
282.7769	0.1544
282.9901	0.1564
283.2033	0.1626
283.4164	0.1632
283.6295	0.1507
283.8426	0.1499
284.0557	0.1549
284.2688	0.1684
284.4819	0.1585
284.695	0.1571
284.908	0.1582
285.1211	0.1557
285.3341	0.1613
285.5471	0.1701
285.7601	0.154
285.9731	0.1559
286.1861	0.1526
286.3991	0.1687
286.612	0.1716
286.825	0.1614
287.0379	0.1738
287.2508	0.1549
287.4637	0.1714
287.6766	0.1488
287.8895	0.1638
288.1024	0.1874
288.3152	0.174
288.5281	0.1582
288.7409	0.1742
288.9538	0.1678
289.1666	0.1632
289.3794	0.1672
289.5922	0.1578
289.8049	0.1614
290.0177	0.1614
290.2304	0.1682
290.4432	0.166
290.6559	0.17
290.8686	0.1762
291.0813	0.1616
291.294	0.1623
291.5067	0.1643
291.7194	0.164
291.932	0.1834
292.1447	0.1726
292.3573	0.1545
292.5699	0.1667
292.7825	0.1771
292.9951	0.1732
293.2077	0.1615
293.4203	0.1635
293.6328	0.1597
293.8454	0.1743
294.0579	0.1633
294.2704	0.1671
294.4829	0.1664
294.6954	0.1704
294.9079	0.1771
295.1204	0.1637
295.3328	0.1583
295.5453	0.1583
295.7577	0.1714
295.9701	0.1545
296.1825	0.1695
296.3949	0.1669
296.6073	0.1545
296.8197	0.1577
297.0321	0.1709
297.2444	0.1525
297.4567	0.1626
297.6691	0.1696
297.8814	0.1673
298.0937	0.1629
298.306	0.1655
298.5182	0.1656
298.7305	0.169
298.9428	0.1597
299.155	0.1607
299.3672	0.1586
299.5794	0.1486
299.7916	0.1632
300.0038	0.1746
300.216	0.161
300.4282	0.1694
300.6403	0.164
300.8525	0.163
301.0646	0.156
301.2767	0.176
301.4888	0.1592
301.7009	0.1626
301.913	0.1704
302.125	0.1596
302.3371	0.1559
302.5491	0.1646
302.7612	0.1664
302.9732	0.1649
303.1852	0.1712
303.3972	0.1608
303.6092	0.1612
303.8211	0.1571
304.0331	0.1459
304.245	0.1628
304.457	0.1563
304.6689	0.1541
304.8808	0.1685
305.0927	0.1447
305.3046	0.1483
305.5164	0.1576
305.7283	0.1465
305.9401	0.1562
306.152	0.1439
306.3638	0.1559
306.5756	0.149
306.7874	0.1519
306.9992	0.1487
307.2109	0.1467
307.4227	0.1329
307.6344	0.135
307.8462	0.1312
308.0579	0.1386
308.2696	0.1286
308.4813	0.1347
308.693	0.1293
308.9046	0.1353
309.1163	0.1272
309.328	0.128
309.5396	0.133
309.7512	0.1192
309.9628	0.1173
310.1744	0.1203
310.386	0.1157
310.5976	0.1281
310.8091	0.1237
311.0207	0.1252
311.2322	0.1142
311.4437	0.1
311.6552	0.11
311.8667	0.1184
312.0782	0.1041
312.2897	0.1006
312.5012	0.1125
312.7126	0.1108
312.924	0.1016
313.1355	0.1164
313.3469	0.1092
313.5583	0.1029
313.7696	0.1018
313.981	0.1094
314.1924	0.109
314.4037	0.099
314.6151	0.1151
314.8264	0.0963
315.0377	0.1027
315.249	0.1023
315.4603	0.1102
315.6716	0.1067
315.8828	0.0993
316.0941	0.0994
316.3053	0.0879
316.5165	0.1015
316.7277	0.0955
316.9389	0.1041
317.1501	0.0992
317.3613	0.099
317.5724	0.0835
317.7836	0.1017
317.9947	0.0967
318.2058	0.0955
318.417	0.095
318.6281	0.0957
318.8391	0.0988
319.0502	0.0892
319.2613	0.1012
319.4723	0.0999
319.6834	0.0904
319.8944	0.0923
320.1054	0.1055
320.3164	0.0942
320.5274	0.0954
320.7383	0.0992
320.9493	0.1034
321.1602	0.1077
321.3712	0.093
321.5821	0.0988
321.793	0.1007
322.0039	0.0987
322.2148	0.098
322.4257	0.1056
322.6365	0.1168
322.8474	0.105
323.0582	0.1054
323.269	0.0974
323.4798	0.1088
323.6906	0.1008
323.9014	0.1175
324.1122	0.1087
324.3229	0.0916
324.5337	0.098
324.7444	0.0998
324.9551	0.1013
325.1658	0.1102
325.3765	0.107
325.5872	0.1018
325.7979	0.0963
326.0085	0.1034
326.2192	0.1141
326.4298	0.111
326.6404	0.0985
326.851	0.099
327.0616	0.1034
327.2722	0.1146
327.4828	0.1062
327.6933	0.0903
327.9039	0.1054
328.1144	0.1224
328.3249	0.1029
328.5354	0.0972
328.7459	0.1038
328.9564	0.1016
329.1669	0.1093
329.3773	0.1094
329.5878	0.1127
329.7982	0.1113
330.0086	0.1028
330.219	0.1131
330.4294	0.1054
330.6398	0.1026
330.8502	0.1015
331.0605	0.1055
331.2708	0.1019
331.4812	0.1206
331.6915	0.1042
331.9018	0.1023
332.1121	0.1086
332.3224	0.101
332.5326	0.1149
332.7429	0.1164
332.9531	0.115
333.1633	0.1125
333.3735	0.1099
333.5837	0.1139
333.7939	0.1147
334.0041	0.1133
334.2143	0.1231
334.4244	0.1124
334.6346	0.1
334.8447	0.1311
335.0548	0.1043
335.2649	0.0898
335.475	0.1173
335.685	0.103
335.8951	0.116
336.1051	0.1138
336.3152	0.119
336.5252	0.1063
336.7352	0.1221
336.9452	0.1173
337.1552	0.1123
337.3652	0.1129
337.5751	0.1125
337.7851	0.1186
337.995	0.0907
338.2049	0.1165
338.4148	0.1219
338.6247	0.1265
338.8346	0.1112
339.0445	0.0984
339.2543	0.1062
339.4642	0.1031
339.674	0.0993
339.8838	0.1101
340.0936	0.1169
340.3034	0.1223
340.5132	0.1198
340.7229	0.1198
340.9327	0.1156
341.1424	0.1168
341.3522	0.1289
341.5619	0.1135
341.7716	0.1234
341.9813	0.1248
342.1909	0.1169
342.4006	0.132
342.6102	0.126
342.8199	0.1332
343.0295	0.1313
343.2391	0.1277
343.4487	0.1319
343.6583	0.122
343.8679	0.12
344.0774	0.1272
344.287	0.1274
344.4965	0.1294
344.706	0.1272
344.9155	0.1208
345.125	0.1218
345.3345	0.1365
345.544	0.1323
345.7534	0.14
345.9629	0.1354
346.1723	0.1313
346.3817	0.1306
346.5911	0.1371
346.8005	0.1373
347.0099	0.1213
347.2193	0.1336
347.4286	0.1423
347.638	0.1302
347.8473	0.1373
348.0566	0.1381
348.2659	0.1234
348.4752	0.1372
348.6845	0.1322
348.8937	0.1222
349.103	0.1568
349.3122	0.1323
349.5214	0.1394
349.7306	0.1417
349.9398	0.1439
350.149	0.1422
350.3582	0.1375
350.5674	0.1475
350.7765	0.1323
350.9856	0.1443
351.1948	0.1461
351.4039	0.1248
351.613	0.1291
351.822	0.1433
352.0311	0.148
352.2402	0.1392
352.4492	0.1459
352.6582	0.1461
352.8672	0.1547
353.0762	0.1551
353.2852	0.1507
353.4942	0.1447
353.7032	0.1425
353.9121	0.1565
354.1211	0.1483
354.33	0.1512
354.5389	0.1509
354.7478	0.1458
354.9567	0.1423
355.1655	0.1416
355.3744	0.1652
355.5833	0.1579
355.7921	0.1783
356.0009	0.1648
356.2097	0.1704
356.4185	0.1597
356.6273	0.1626
356.8361	0.1656
357.0448	0.1535
357.2536	0.1478
357.4623	0.1581
357.671	0.1556
357.8797	0.1733
358.0884	0.1696
358.2971	0.1634
358.5057	0.1819
358.7144	0.1671
358.923	0.1611
359.1316	0.166
359.3402	0.1788
359.5488	0.1848
359.7574	0.1581
359.966	0.1775
360.1746	0.1649
360.3831	0.1774
360.5916	0.1674
360.8002	0.1517
361.0087	0.1712
361.2172	0.178
361.4256	0.1712
361.6341	0.1851
361.8426	0.1778
362.051	0.1975
362.2594	0.183
362.4678	0.17
362.6762	0.2089
362.8846	0.1872
363.093	0.178
363.3014	0.1795
363.5097	0.1687
363.718	0.1792
363.9264	0.1826
364.1347	0.1641
364.343	0.1942
364.5513	0.2076
364.7595	0.2192
364.9678	0.1966
365.176	0.1907
365.3842	0.1894
365.5925	0.1952
365.8007	0.1991
366.0089	0.189
366.217	0.1777
366.4252	0.2038
366.6333	0.2087
366.8415	0.2033
367.0496	0.1843
367.2577	0.2058
367.4658	0.2047
367.6739	0.2046
367.882	0.2114
368.09	0.1981
368.2981	0.2216
368.5061	0.195
368.7141	0.2074
368.9221	0.222
369.1301	0.2186
369.3381	0.208
369.5461	0.2066
369.754	0.2116
369.962	0.2089
370.1699	0.2086
370.3778	0.2177
370.5857	0.2152
370.7936	0.2189
371.0015	0.2061
371.2093	0.2223
371.4172	0.2246
371.625	0.1966
371.8328	0.2067
372.0406	0.2379
372.2484	0.215
372.4562	0.2134
372.664	0.2147
372.8717	0.2265
373.0795	0.1982
373.2872	0.2315
373.4949	0.2235
373.7026	0.2205
373.9103	0.2257
374.118	0.2235
374.3256	0.2291
374.5333	0.2407
374.7409	0.2213
374.9485	0.2288
375.1561	0.2418
375.3637	0.2241
375.5713	0.2464
375.7789	0.2314
375.9864	0.2314
376.194	0.2395
376.4015	0.2331
376.609	0.2466
376.8165	0.2312
377.024	0.2166
377.2315	0.2286
377.4389	0.2381
377.6464	0.2316
377.8538	0.2445
378.0612	0.2369
378.2686	0.2469
378.476	0.2484
378.6834	0.2411
378.8908	0.2451
379.0981	0.2535
379.3055	0.2432
379.5128	0.2418
379.7201	0.2397
379.9274	0.2417
380.1347	0.2471
380.342	0.2648
380.5492	0.2419
380.7565	0.2379
380.9637	0.2532
381.1709	0.2457
381.3781	0.2439
381.5853	0.2592
381.7925	0.2575
381.9997	0.2651
382.2068	0.259
382.4139	0.2556
382.6211	0.2471
382.8282	0.2672
383.0353	0.2658
383.2424	0.2527
383.4494	0.2589
383.6565	0.2556
383.8635	0.2451
384.0706	0.2672
384.2776	0.253
384.4846	0.2283
384.6916	0.2666
384.8986	0.2576
385.1055	0.2427
385.3125	0.252
385.5194	0.2418
385.7263	0.2585
385.9333	0.2678
386.1402	0.2596
386.347	0.251
386.5539	0.2384
386.7608	0.2714
386.9676	0.2469
387.1744	0.246
387.3813	0.2427
387.5881	0.2428
387.7948	0.2462
388.0016	0.2406
388.2084	0.2438
388.4151	0.2439
388.6219	0.2673
388.8286	0.2479
389.0353	0.2774
389.242	0.2757
389.4487	0.2474
389.6553	0.2387
389.862	0.2177
390.0686	0.2223
390.2753	0.251
390.4819	0.2375
390.6885	0.2379
390.8951	0.256
391.1016	0.2245
391.3082	0.2378
391.5147	0.2329
391.7213	0.242
391.9278	0.2259
392.1343	0.2279
392.3408	0.2487
392.5473	0.23
392.7537	0.2375
392.9602	0.2213
393.1666	0.2291
393.373	0.2255
393.5794	0.2576
393.7858	0.2355
393.9922	0.228
394.1986	0.2288
394.4049	0.2247
394.6113	0.2061
394.8176	0.2228
395.0239	0.2282
395.2302	0.2262
395.4365	0.2272
395.6428	0.2073
395.8491	0.2182
396.0553	0.2332
396.2615	0.2132
396.4678	0.2172
396.674	0.2043
396.8802	0.223
397.0863	0.2304
397.2925	0.2166
397.4987	0.2132
397.7048	0.217
397.9109	0.2148
398.117	0.2147
398.3231	0.2113
398.5292	0.2261
398.7353	0.2094
398.9413	0.2131
399.1474	0.2089
399.3534	0.1894
399.5594	0.1982
399.7654	0.2211
399.9714	0.2336
400.1774	0.215
400.3833	0.2031
400.5893	0.2003
400.7952	0.1998
401.0011	0.2288
401.207	0.2177
401.4129	0.2091
401.6188	0.2126
401.8247	0.2076
402.0305	0.2121
402.2364	0.1972
402.4422	0.238
402.648	0.229
402.8538	0.2119
403.0596	0.1887
403.2654	0.2104
403.4711	0.2115
403.6768	0.2202
403.8826	0.2028
404.0883	0.2076
404.294	0.2378
404.4997	0.2156
404.7054	0.2087
404.911	0.2002
405.1167	0.2006
405.3223	0.2247
405.5279	0.2057
405.7335	0.2258
405.9391	0.2147
406.1447	0.2061
406.3502	0.2092
406.5558	0.1991
406.7613	0.2016
406.9668	0.2091
407.1724	0.2027
407.3778	0.219
407.5833	0.2114
407.7888	0.203
407.9942	0.231
408.1997	0.2066
408.4051	0.2127
408.6105	0.2082
408.8159	0.2112
409.0213	0.2087
409.2267	0.2102
409.432	0.191
409.6374	0.2262
409.8427	0.2077
410.048	0.1968
410.2533	0.2024
410.4586	0.2047
410.6639	0.2079
410.8691	0.203
411.0744	0.1887
411.2796	0.1889
411.4848	0.212
411.69	0.2059
411.8952	0.2156
412.1004	0.2008
412.3056	0.2031
412.5107	0.1998
412.7158	0.2091
412.921	0.2074
413.1261	0.2053
413.3312	0.1908
413.5362	0.2061
413.7413	0.194
413.9464	0.1917
414.1514	0.208
414.3564	0.1937
414.5614	0.2113
414.7664	0.2196
414.9714	0.2051
415.1764	0.2102
415.3813	0.2028
415.5863	0.1908
415.7912	0.2028
415.9961	0.2104
416.201	0.1988
416.4059	0.2106
416.6108	0.1911
416.8156	0.2224
417.0205	0.2022
417.2253	0.2055
417.4301	0.2071
417.6349	0.1863
417.8397	0.1898
418.0445	0.2081
418.2492	0.2062
418.454	0.1915
418.6587	0.1993
418.8634	0.1997
419.0681	0.1938
419.2728	0.1953
419.4775	0.1977
419.6822	0.1824
419.8868	0.1971
420.0915	0.2031
420.2961	0.1816
420.5007	0.177
420.7053	0.2053
420.9099	0.1861
421.1144	0.1909
421.319	0.1805
421.5235	0.1844
421.728	0.1967
421.9325	0.191
422.137	0.2003
422.3415	0.181
422.546	0.1927
422.7504	0.1902
422.9549	0.2023
423.1593	0.1858
423.3637	0.1916
423.5681	0.1709
423.7725	0.1668
423.9769	0.1804
424.1812	0.1648
424.3856	0.1587
424.5899	0.1782
424.7942	0.1792
424.9985	0.1945
425.2028	0.1646
425.4071	0.1963
425.6113	0.1676
425.8156	0.1691
426.0198	0.1815
426.224	0.1666
426.4282	0.1691
426.6324	0.1721
426.8366	0.1611
427.0407	0.1651
427.2449	0.1611
427.449	0.1678
427.6531	0.137
427.8572	0.1575
428.0613	0.1699
428.2654	0.1638
428.4694	0.1527
428.6735	0.1399
428.8775	0.1701
429.0815	0.1687
429.2855	0.1475
429.4895	0.1522
429.6935	0.1508
429.8975	0.1558
430.1014	0.1384
430.3053	0.128
430.5093	0.1533
430.7132	0.1277
430.9171	0.1332
431.1209	0.1404
431.3248	0.1478
431.5286	0.1307
431.7325	0.1308
431.9363	0.1174
432.1401	0.1277
432.3439	0.1379
432.5477	0.1062
432.7514	0.1111
432.9552	0.1324
433.1589	0.1056
433.3627	0.1132
433.5664	0.1219
433.7701	0.1357
433.9737	0.114
434.1774	0.109
434.3811	0.103
434.5847	0.1143
434.7883	0.1195
434.9919	0.0924
435.1955	0.1204
435.3991	0.1179
435.6027	0.1067
435.8062	0.105
436.0098	0.1041
436.2133	0.1028
436.4168	0.1065
436.6203	0.1102
436.8238	0.0874
437.0272	0.1002
437.2307	0.1021
437.4341	0.1142
437.6375	0.1155
437.841	0.0837
438.0443	0.0961
438.2477	0.0828
438.4511	0.0907
438.6545	0.0981
438.8578	0.0956
439.0611	0.095
439.2644	0.0959
439.4677	0.0677
439.671	0.0795
439.8743	0.0865
440.0775	0.071
440.2808	0.0825
440.484	0.0777
440.6872	0.0637
440.8904	0.0733
441.0936	0.071
441.2967	0.0683
441.4999	0.0841
441.703	0.0635
441.9062	0.0733
442.1093	0.0706
442.3124	0.0711
442.5155	0.0638
442.7185	0.066
442.9216	0.0246
443.1246	0.0676
443.3276	0.0624
443.5307	0.0586
443.7337	0.0836
443.9366	0.0573
444.1396	0.0603
444.3426	0.0617
444.5455	0.0493
444.7484	0.0536
444.9513	0.0519
445.1542	0.0611
445.3571	0.0583
445.56	0.0519
445.7628	0.0388
445.9657	0.0421
446.1685	0.045
446.3713	0.0487
446.5741	0.0429
446.7769	0.0386
446.9797	0.0479
447.1824	0.0365
447.3852	0.0324
447.5879	0.0375
447.7906	0.0636
447.9933	0.0495
448.196	0.0271
448.3986	0.0376
448.6013	0.0278
448.8039	0.0246
449.0066	0.0157
449.2092	0.0368
449.4118	0.0306
449.6143	0.0316
449.8169	0.0414
450.0195	0.0177
450.222	0.0088
450.4245	0.0183
450.627	0.0297
450.8295	0.04
451.032	0.0101
451.2345	0.029
451.4369	0.0337
451.6394	0.0316
451.8418	0.0069
452.0442	0.0224
452.2466	0.033
452.449	-0.0007
452.6513	0.0116
452.8537	0.0175
453.056	0.0133
453.2583	0.022
453.4607	0.0038
453.663	0.0229
453.8652	0.0304
454.0675	0.0087
454.2697	0.0243
454.472	0.0083
454.6742	0.0308
454.8764	0.006
455.0786	0.0234
455.2808	0.0147
455.4829	0.0273
455.6851	0.0209
455.8872	0.0344
456.0893	0.0272
456.2915	-0.0059
456.4935	0.0252
456.6956	0.0085
456.8977	0.0273
457.0997	0.0003
457.3018	0.0015
457.5038	0.0047
457.7058	0.0084
457.9078	-0.0025
458.1098	0.0175
458.3117	0.0141
458.5137	-0.0016
458.7156	0.0179
458.9175	-0.007
459.1194	0.0163
459.3213	0.0075
459.5232	0.0016
459.725	0.0045
459.9269	0.0152
460.1287	0.0128
460.3305	0.0039
460.5323	0.0173
460.7341	-0.0053
460.9359	0.0073
461.1376	0.0105
461.3394	0.0001
461.5411	0.0071
461.7428	0.0042
461.9445	0.0127
462.1462	0.0242
462.3479	0.0073
462.5495	0.0082
462.7512	0.0137
462.9528	0.0135
463.1544	-0.0085
463.356	-0.0012
463.5576	0.0208
463.7592	-0.01
463.9607	0.0137
464.1623	0.0203
464.3638	0.0216
464.5653	0.0107
464.7668	0.0126
464.9683	-0.001
465.1697	0.0233
465.3712	0.0109
465.5726	-0.009
465.7741	0.0091
465.9755	-0.0011
466.1769	0.0077
466.3782	0.0017
466.5796	0.0013
466.7809	0.0132
466.9823	0.0065
467.1836	0.0096
467.3849	-0
467.5862	0.0022
467.7875	-0.0033
467.9887	0.01
468.19	0.0046
468.3912	-0.0096
468.5924	0.0071
468.7936	0.0092
468.9948	0.0065
469.196	0.0123
469.3972	-0.0207
469.5983	0.0048
469.7994	-0.0064
470.0006	0.0111
470.2017	-0.009
470.4027	-0.0053
470.6038	0.0087
470.8049	-0.0067
471.0059	-0.0067
471.2069	-0.0327
471.408	-0.0073
471.6089	0.024
471.8099	0.0021
472.0109	-0.001
472.2119	-0.0062
472.4128	-0.0106
472.6137	0.0061
472.8146	-0.0113
473.0155	-0.004
473.2164	0.0015
473.4173	-0.0008
473.6181	0.0224
473.819	0.003
474.0198	-0.0142
474.2206	0.0113
474.4214	-0.0031
474.6222	-0.0034
474.8229	-0.0034
475.0237	-0.0103
475.2244	-0.004
475.4251	-0.0028
475.6258	0.0017
475.8265	-0.0073
476.0272	0.0109
476.2278	-0.0118
476.4285	0.0018
476.6291	0.0051
476.8297	-0.0124
477.0303	0.0006
477.2309	0.0012
477.4315	-0.0041
477.632	-0.0086
477.8326	0.0022
478.0331	0.005
478.2336	0.0077
478.4341	-0.0147
478.6346	0.0069
478.8351	0.0054
479.0355	0.009
479.236	-0.0055
479.4364	-0.0057
479.6368	-0.011
479.8372	-0.0058
480.0376	-0.0036
480.2379	-0.0228
480.4383	-0
480.6386	0.0033
480.8389	0.0071
481.0392	-0.0147
481.2395	-0.0124
481.4398	0.0018
481.6401	0.0024
481.8403	-0.0049
482.0405	-0.0075
482.2408	-0.0031
482.441	0.0092
482.6411	-0.0099
482.8413	-0.0068
483.0415	-0.0097
483.2416	-0.0132
483.4417	-0.0045
483.6419	-0.006
483.8419	-0.0042
484.042	0.004
484.2421	0.0119
484.4422	0.0012
484.6422	-0.0043
484.8422	0.0036
485.0422	-0.0041
485.2422	0.0059
485.4422	-0.0178
485.6422	-0.0058
485.8421	-0.0085
486.042	0.0093
486.242	-0.0024
486.4419	-0.0106
486.6417	-0.0063
486.8416	-0.0031
487.0415	-0.0059
487.2413	-0.0053
487.4411	-0.0062
487.641	-0.006
487.8408	-0.0031
488.0405	-0.0015
488.2403	-0.0063
488.4401	0.0062
488.6398	0.0048
488.8395	-0.0112
489.0392	-0.0017
489.2389	-0.005
489.4386	-0.0014
489.6383	-0.0096
489.8379	0.0012
490.0376	-0.0059
490.2372	-0.0204
490.4368	-0.0168
490.6364	-0.0035
490.836	-0.0157
491.0355	-0.0091
491.2351	-0.0055
491.4346	-0.0055
491.6341	-0.0262
491.8336	-0.0072
492.0331	-0.0195
492.2326	-0.0154
492.432	-0.0007
492.6315	-0.0019
492.8309	-0.0151
493.0303	-0.0065
493.2297	-0.0192
493.4291	-0.0051
493.6284	-0.0033
493.8278	0.0037
494.0271	-0.0015
494.2264	0.0118
494.4257	-0.0137
494.625	-0.0022
494.8243	-0.011
495.0236	-0.0151
495.2228	-0.0029
495.422	0.001
495.6213	-0.0029
495.8205	-0.004
496.0196	-0.0073
496.2188	-0.0024
496.418	-0.0091
496.6171	-0.0088
496.8162	-0.0185
497.0153	0.0029
497.2144	-0.0251
497.4135	-0.0145
497.6126	-0.0153
497.8116	0.0012
498.0107	-0.0081
498.2097	-0.0155
498.4087	-0.0143
498.6077	-0.0016
498.8067	-0.0093
499.0056	0.0068
499.2046	-0.0002
499.4035	-0.0115
499.6024	0.0033
499.8013	0.0028
500.0002	-0.006
500.199	0.0004
500.3979	-0.0011
500.5967	-0.024
500.7956	-0.0066
500.9944	-0.0094
501.1932	-0.0123
501.3919	-0.009
501.5907	-0.0166
501.7895	-0.0107
501.9882	-0.0089
502.1869	-0.0079
502.3856	-0.0048
502.5843	-0.011
502.783	0.0001
502.9816	-0.0017
503.1803	-0.0184
503.3789	-0.0053
503.5775	0.0022
503.7761	-0.0089
503.9747	-0.0083
504.1732	-0.0073
504.3718	-0.001
504.5703	-0.0039
504.7689	-0.0036
504.9674	-0.0022
505.1658	-0.0029
505.3643	-0.0027
505.5628	-0.0016
505.7612	-0.0104
505.9597	0.0052
506.1581	-0.0035
506.3565	0.002
506.5549	-0.0125
506.7532	-0.0111
506.9516	-0.0029
507.1499	-0.009
507.3482	-0.0108
507.5465	-0.0137
507.7448	-0.0054
507.9431	-0.0077
508.1414	-0.0106
508.3396	-0.0039
508.5379	-0.0053
508.7361	-0.0124
508.9343	-0.0046
509.1325	-0.0091
509.3306	-0.0036
509.5288	-0.0082
509.7269	-0.0116
509.9251	-0.002
510.1232	-0.0101
510.3213	-0.0038
510.5193	0.0014
510.7174	-0.0137
510.9154	-0.0128
511.1135	-0.0054
511.3115	-0.0053
511.5095	0.0058
511.7075	-0.0059
511.9055	-0.0009
512.1034	-0.0061
512.3014	0.0016
512.4993	0.0007
512.6972	-0.0176
512.8951	-0.0209
513.093	-0.0024
513.2908	-0.0098
513.4887	0.0016
513.6865	-0.0077
513.8844	-0.001
514.0822	-0.0088
514.2799	-0.0086
514.4777	-0.0101
514.6755	-0.0113
514.8732	-0.0098
515.0709	-0.008
515.2687	-0.0031
515.4664	0.0013
515.664	-0.0009
515.8617	-0.008
516.0594	-0.018
516.257	0.0046
516.4546	-0.0094
516.6522	0.0077
516.8498	0.0015
517.0474	0.005
517.2449	0.0003
517.4425	-0.0056
517.64	-0.005
517.8375	0.0048
518.035	-0.0036
518.2325	-0.0155
518.43	-0.0077
518.6274	-0.0066
518.8249	-0.0194
519.0223	-0.0021
519.2197	-0.0101
519.4171	-0.0135
519.6145	-0.0065
519.8118	-0.0037
520.0092	-0.0009
520.2065	-0.0144
520.4038	-0.0193
520.6011	-0.0015
520.7984	-0.0066
520.9956	-0.0169
521.1929	-0.005
521.3901	-0.0048
521.5874	-0.0055
521.7846	-0.0113
521.9818	-0.0114
522.1789	-0.0145
522.3761	-0.002
522.5732	-0.0068
522.7704	-0.0053
522.9675	-0.0013
523.1646	-0.0039
523.3617	0.006
523.5587	0.005
523.7558	-0.0103
523.9528	-0.01
524.1498	-0.001
524.3468	-0.0096
524.5438	-0.0088
524.7408	-0.0072
524.9378	0.0089
525.1347	-0.0132
525.3316	0.0039
525.5285	-0.0069
525.7254	-0.0131
525.9223	0.0017
526.1192	-0.003
526.316	-0.0143
526.5129	0.0024
526.7097	0.0023
526.9065	0.0022
527.1033	-0.0037
527.3	0.0094
527.4968	-0.0079
527.6935	0.0003
527.8903	-0.0106
528.087	-0.0049
528.2837	-0.0038
528.4804	-0.0077
528.677	-0.006
528.8737	0.0015
529.0703	-0.0104
529.2669	0.0027
529.4635	0.0029
529.6601	0.0043
529.8567	-0.0149
530.0532	-0.0109
530.2498	0.0047
530.4463	0.0041
530.6428	-0.007
530.8393	0.015
531.0358	-0.0081
531.2322	-0.0033
531.4287	-0.0093
531.6251	-0.0135
531.8215	0.0029
532.0179	-0.0055
532.2143	-0.0026
532.4107	0.0017
532.607	-0.0095
532.8034	-0.0023
532.9997	-0.0058
533.196	-0.0025
533.3923	-0.0133
533.5886	-0.0027
533.7848	0.0017
533.9811	0.0055
534.1773	-0.003
534.3735	-0.0037
534.5697	-0.0068
534.7659	0.0049
534.9621	0.0133
535.1582	-0.0059
535.3544	-0.0094
535.5505	-0.0084
535.7466	-0.0125
535.9427	-0.0033
536.1387	-0.0062
536.3348	-0.0005
536.5308	0.011
536.7269	-0.0147
536.9229	-0.0039
537.1189	-0.0081
537.3148	-0.019
537.5108	-0.0065
537.7068	0.0044
537.9027	0.0032
538.0986	-0.0026
538.2945	-0.012
538.4904	-0.0079
538.6863	0.0006
538.8821	-0.0076
539.078	-0.0035
539.2738	0.0032
539.4696	-0.0044
539.6654	0.0061
539.8611	0.0105
540.0569	0.0066
540.2526	-0.0033
540.4484	-0.0006
540.6441	0.0029
540.8398	-0.0003
541.0355	0.0083
541.2311	0.0003
541.4268	-0.0113
541.6224	-0.0007
541.818	0.0059
542.0136	-0.0046
542.2092	-0.0064
542.4048	0.0102
542.6003	-0.0002
542.7959	-0.0035
542.9914	-0.0089
543.1869	0.0016
543.3824	-0.0007
543.5779	-0.0092
543.7734	-0.0019
543.9688	-0.0137
544.1642	-0.0011
544.3596	-0.0009
544.555	-0.0077
544.7504	-0.0011
544.9458	-0.0028
545.1411	-0.0014
545.3365	-0.0066
545.5318	-0.0075
545.7271	-0.0013
545.9224	-0.007
546.1177	0.0008
546.3129	0.0013
546.5081	-0.0006
546.7034	-0.0056
546.8986	0.0007
547.0938	0.0015
547.289	-0.0016
547.4841	0.0009
547.6793	0.0133
547.8744	-0.0066
548.0695	0.0038
548.2646	-0.0084
548.4597	-0.0001
548.6548	-0.0063
548.8498	-0.0011
549.0448	0.0099
549.2399	-0.0024
549.4349	0.0089
549.6298	0.0046
549.8248	-0.0057
550.0198	-0.0041
550.2147	-0.0035
550.4096	-0.0082
550.6045	-0.0035
550.7994	-0.0032
550.9943	-0.0064
551.1892	-0.0088
551.384	0.0046
551.5788	-0.0105
551.7737	0.002
551.9685	-0.0049
552.1632	0.0004
552.358	-0.0063
552.5528	-0.0023
552.7475	0.0086
552.9422	0.0008
553.1369	0.0015
553.3316	0.0159
553.5263	-0.0131
553.7209	0.0118
553.9156	-0.0062
554.1102	-0.0047
554.3048	-0.0002
554.4994	0.0071
554.694	-0.0016
554.8885	0.0063
555.0831	-0.0092
555.2776	-0.0032
555.4721	0.0023
555.6666	0.0036
555.8611	0.0052
556.0555	0.0044
556.25	-0.0002
556.4444	-0.0082
556.6388	0.0048
556.8332	0.0018
557.0276	0.0018
557.222	-0.0097
557.4163	0.0039
557.6107	-0.0032
557.805	0.0059
557.9993	-0.0085
558.1936	-0.0061
558.3879	0.0032
558.5821	-0.0027
558.7764	0.0008
558.9706	0.0013
559.1648	0.0074
559.359	-0.0114
559.5532	-0.0037
559.7473	0.0008
559.9415	-0.001
560.1356	-0.0066
560.3297	-0.0033
560.5238	-0.0047
560.7179	-0.004
560.9119	-0.0003
561.106	-0.0117
561.3	-0.0119
561.494	-0.0046
561.688	-0.0032
561.882	-0.0156
562.076	-0.0018
562.2699	0.0106
562.4639	0.0007
562.6578	0.0067
562.8517	-0.0045
563.0456	0.004
563.2395	-0.0015
563.4333	0.0024
563.6272	0.0089
563.821	-0.006
564.0148	-0.0051
564.2086	-0.005
564.4024	-0.0068
564.5961	-0.0052
564.7899	0.0058
564.9836	0.0061
565.1773	-0.0008
565.371	0.0092
565.5647	0.005
565.7584	0.0114
565.952	-0.0014
566.1456	-0.0002
566.3393	-0.0024
566.5329	-0.0064
566.7264	-0.0067
566.92	-0.0077
567.1136	0.0022
567.3071	-0.0017
567.5006	0.0027
567.6941	-0.0036
567.8876	-0.0081
568.0811	-0.0058
568.2745	0.0039
568.468	0.0057
568.6614	0.0072
568.8548	-0.0024
569.0482	0.0043
569.2416	0.0024
569.4349	-0.0003
569.6283	0.0047
569.8216	0.0025
570.0149	0.0016
570.2082	0.0062
570.4015	0.0115
570.5947	0.0118
570.788	0.0094
570.9812	0.0049
571.1744	0.0014
571.3676	-0.0028
571.5608	0.0002
571.754	0.0049
571.9471	0.0039
572.1402	0.0035
572.3333	0.0003
572.5264	-0.0055
572.7195	-0.0013
572.9126	0.0055
573.1057	0.0043
573.2987	-0.006
573.4917	0.0059
573.6847	-0.0052
573.8777	0.01
574.0707	0.0103
574.2636	0.0042
574.4566	0.0002
574.6495	0.0007
574.8424	-0.0013
575.0353	-0.0028
575.2281	0.0091
575.421	0.0009
575.6138	0.0024
575.8067	0.0049
575.9995	0.0029
576.1923	0.0021
576.385	0.0019
576.5778	0.0003
576.7706	0.0016
576.9633	-0.0052
577.156	0.0044
577.3487	0.0004
577.5414	-0.0005
577.734	0.0022
577.9267	0.0089
578.1193	-0.0052
578.3119	0.0046
578.5045	0.0025
578.6971	0.0023
578.8897	0.0085
579.0822	0.0039
579.2747	0.0018
579.4673	-0.0001
579.6598	-0.0038
579.8522	0.0025
580.0447	-0.0003
580.2372	-0.0021
580.4296	0.0107
580.622	0.003
580.8144	0.0033
581.0068	-0.0013
581.1992	-0.0049
581.3915	-0.0077
581.5839	-0.003
581.7762	-0.0064
581.9685	-0.0003
582.1608	0.0024
582.353	-0.0012
582.5453	-0.0039
582.7375	0.0011
582.9298	0.0042
583.122	0.0021
583.3142	0.0053
583.5063	0.005
583.6985	-0.0059
583.8906	0.0037
584.0827	-0.0067
584.2749	0.0081
584.4669	-0.0027
584.659	0.0016
584.8511	0.0022
585.0431	-0.0018
585.2352	0.0095
585.4272	0.0039
585.6192	0.0044
585.8111	0.0026
586.0031	0.0001
586.195	-0.0038
586.387	0.0134
586.5789	0.0012
586.7708	0.0085
586.9627	-0.0011
587.1545	-0.0024
587.3464	0.0016
587.5382	0.0026
587.73	0.0024
587.9218	0.0144
588.1136	-0.0015
588.3053	0.0103
588.4971	0.0021
588.6888	-0.0095
588.8805	-0.0022
589.0722	0.0069
589.2639	0.0003
589.4556	0.0007
589.6472	0.0023
589.8389	0.0022
590.0305	-0.0069
590.2221	0.0008
590.4137	0.001
590.6052	0.012
590.7968	0.0077
590.9883	0.0002
591.1798	0.0036
591.3713	0.0004
591.5628	0.0101
591.7543	0.0074
591.9458	0.006
592.1372	0.0045
592.3286	0.0054
592.52	0.0087
592.7114	-0.0016
592.9028	0.001
593.0941	0.0055
593.2855	0.0024
593.4768	0.0026
593.6681	-0.0011
593.8594	-0.0061
594.0506	0.0024
594.2419	0.0025
594.4331	0.0024
594.6244	0.0034
594.8156	-0.006
595.0067	0.003
595.1979	0.0055
595.3891	-0
595.5802	-0.0006
595.7713	-0
595.9624	0.0051
596.1535	0.0102
596.3446	0.0013
596.5357	0.0046
596.7267	0.0082
596.9177	0.0033
597.1087	-0.0033
597.2997	-0.0016
597.4907	0.0048
597.6817	0.0013
597.8726	0.0074
598.0635	0.0039
598.2544	0.0054
598.4453	0.0034
598.6362	0.0016
598.827	-0.0016
599.0179	0.015
599.2087	-0.001
599.3995	-0.0004
599.5903	0.0034
599.7811	0.0003
599.9718	0.0071
600.1626	-0.0026
600.3533	-0.0065
600.544	0.002
600.7347	0.0014
600.9254	0.0037
601.116	-0.0062
601.3067	-0.0008
601.4973	0.0028
601.6879	0.0037
601.8785	-0.0035
602.0691	0.0085
602.2596	0.0108
602.4502	0.0078
602.6407	0.0051
602.8312	0.0034
603.0217	-0.0013
603.2122	-0.003
603.4027	-0.0016
603.5931	-0.0026
603.7835	-0.0034
603.9739	0.0018
604.1643	0.0064
604.3547	-0.0024
604.5451	0.0039
604.7354	0.0041
604.9257	0.01
605.116	-0.0017
605.3063	0.0045
605.4966	0.0041
605.6869	0.0014
605.8771	0.0135
606.0673	0.006
606.2575	0.0042
606.4477	0.0043
606.6379	0.0054
606.8281	0.0044
607.0182	-0.001
607.2083	0.0062
607.3985	-0.003
607.5885	0.0009
607.7786	0.0071
607.9687	0.0005
608.1587	0.0107
608.3488	-0.0011
608.5388	-0.005
608.7288	-0.0041
608.9187	0.0047
609.1087	-0.0074
609.2986	-0.0028
609.4886	-0.0019
609.6785	0.0022
609.8684	0.0071
610.0582	-0.0004
610.2481	0.0094
610.4379	0.0034
610.6278	0.0012
610.8176	0.0026
611.0074	-0.0056
611.1971	0.0028
611.3869	-0.0023
611.5766	-0.0011
611.7664	0.0112
611.9561	0.0063
612.1458	0.0074
612.3354	0.0046
612.5251	-0.0001
612.7147	0.0101
612.9044	0.0051
613.094	-0.0028
613.2836	0.0031
613.4731	0.0019
613.6627	-0.0032
613.8522	0.0028
614.0417	0.0044
614.2313	0.0014
614.4207	-0.0037
614.6102	0.0055
614.7997	0.0032
614.9891	-0.0057
615.1785	0.0006
615.3679	-0.0015
615.5573	0.0169
615.7467	0.0036
615.9361	-0.0052
616.1254	0.0008
616.3147	0.0015
616.504	0.0055
616.6933	-0.0006
616.8826	0.0063
617.0718	0.0048
617.2611	-0.0051
617.4503	-0.0071
617.6395	0.0016
617.8287	-0.0002
618.0179	0.0005
618.207	0.0102
618.3961	0.0069
618.5853	-0.0003
618.7744	0.0091
618.9634	0.0123
619.1525	0.008
619.3416	0.0079
619.5306	0.0078
619.7196	0.0001
619.9086	0.0068
620.0976	0.01
620.2866	0.0118
620.4755	0.0071
620.6645	0.0057
620.8534	0.0102
621.0423	0.0087
621.2312	0.0068
621.42	0.0017
621.6089	-0.0067
621.7977	0.0122
621.9865	-0.002
622.1753	0.0022
622.3641	0.0022
622.5529	0.0146
622.7416	0.0112
622.9303	0.0016
623.1191	0.0092
623.3078	0.0011
623.4964	0.0082
623.6851	-0.0031
623.8737	-0.0006
624.0624	0.0055
624.251	-0.0036
624.4396	0.0008
624.6282	0.0006
624.8167	0.0019
625.0053	0.0096
625.1938	0.0067
625.3823	0.0033
625.5708	0.0054
625.7593	-0.0013
625.9477	0.0084
626.1362	0.0054
626.3246	0.0102
626.513	0.0024
626.7014	0.0065
626.8898	0.0014
627.0781	0.0013
627.2665	-0.0038
627.4548	0.0075
627.6431	0.0086
627.8314	0.003
628.0197	0.008
628.2079	-0.0079
628.3962	-0.0019
628.5844	0.0069
628.7726	0.0066
628.9608	0.0052
629.1489	0.0009
629.3371	0.0068
629.5252	-0.0022
629.7134	0.0119
629.9015	0.0053
630.0895	-0.0014
630.2776	-0.0007
630.4657	0.0026
630.6537	0.0031
630.8417	-0.0029
631.0297	0.0026
631.2177	0.0098
631.4057	-0.0011
631.5936	0.0033
631.7815	0.0007
631.9695	0.0004
632.1574	0.0068
632.3452	0.0148
632.5331	0.0081
632.7209	-0.0015
632.9088	0.0095
633.0966	0.012
633.2844	-0.0044
633.4722	-0.0007
633.6599	0.01
633.8477	0.011
634.0354	-0.0006
634.2231	-0.0056
634.4108	0.0033
634.5985	0.0147
634.7861	0.0058
634.9738	0.0035
635.1614	0.0086
635.349	0.0021
635.5366	0.0025
635.7242	0.0022
635.9117	0.0045
636.0993	-0.0049
636.2868	0.0025
636.4743	-0.0013
636.6618	0.0079
636.8492	0.0058
637.0367	0.0046
637.2241	0.006
637.4115	0.0015
637.5989	0.0035
637.7863	0.0049
637.9737	0.002
638.161	0.001
638.3484	0.0012
638.5357	0.0033
638.723	0.0023
638.9103	0.0019
639.0975	0.0071
639.2848	0.0047
639.472	0.0021
639.6592	0.0082
639.8464	0.0176
640.0336	0.0158
640.2208	0.0039
640.4079	0.0015
640.595	0.005
640.7821	0.0023
640.9692	0.0056
641.1563	0.0093
641.3434	0.009
641.5304	0.0011
641.7174	0.0014
641.9044	0.0054
642.0914	0.0091
642.2784	0.002
642.4653	0.0038
642.6523	-0.0014
642.8392	-0.0008
643.0261	0.0018
643.213	0.0049
643.3999	-0.0068
643.5867	-0.0074
643.7735	-0.0026
643.9604	-0.0051
644.1472	0.0004
644.3339	0.0014
644.5207	0.0056
644.7075	-0.0009
644.8942	0.0121
645.0809	0.0012
645.2676	0.0092
645.4543	0.0081
645.6409	0.0046
645.8276	0.0037
646.0142	0.0108
646.2008	-0.0069
646.3874	-0.0002
646.574	0.0012
646.7605	0.0004
646.9471	-0.0067
647.1336	0.0084
647.3201	0.0071
647.5066	-0.0004
647.6931	0.012
647.8795	0.0069
648.0659	0.0072
648.2524	0.0082
648.4388	-0.0042
648.6252	-0.0036
648.8115	0.0014
648.9979	0.0048
649.1842	0.007
649.3705	0.0098
649.5568	0.0067
649.7431	0.0086
649.9294	0.0029
650.1156	0.0082
650.3018	0.0007
650.488	0.0098
650.6742	0.0112
650.8604	0.0069
651.0466	0.005
651.2327	0.003
651.4188	0.0005
651.6049	0.0031
651.791	0.0004
651.9771	0.0047
652.1632	0.0055
652.3492	0.0042
652.5352	-0.0005
652.7212	0.0006
652.9072	0.0121
653.0932	-0.0013
653.2791	-0.0026
653.465	0.0057
653.651	-0.0135
653.8369	-0.0017
654.0227	0.0043
654.2086	0.0038
654.3944	0.0037
654.5803	0.0038
654.7661	-0.0022
654.9519	0.0021
655.1377	-0.0029
655.3234	-0.0026
655.5092	-0.0035
655.6949	-0.0057
655.8806	-0.0004
656.0663	-0.0013
656.2519	0.0004
656.4376	-0.0021
656.6232	0.0027
656.8088	0.0031
656.9945	0.0027
657.18	0.0056
657.3656	0.0102
657.5511	-0.0015
657.7367	-0.009
657.9222	0.0045
658.1077	0.0024
658.2932	0.0081
658.4786	-0.0113
658.6641	-0.0001
658.8495	0.0071
659.0349	0.0024
659.2203	0.0056
659.4057	0.0051
659.591	0.0047
659.7764	0.0038
659.9617	0.0077
660.147	0.0077
660.3323	0.0123
660.5176	0.0076
660.7028	0.0098
660.888	0.0079
661.0733	-0.0042
661.2585	-0.0003
661.4436	0.0048
661.6288	-0.0036
661.8139	0.0027
661.9991	0.0083
662.1842	-0.0012
662.3693	0.0081
662.5544	0.0023
662.7394	0.0095
662.9245	0.0017
663.1095	0.0032
663.2945	0.003
663.4795	0.0135
663.6644	0.008
663.8494	0.0071
664.0343	0.0111
664.2193	-0.006
664.4042	0.007
664.589	-0.0036
664.7739	0.0051
664.9587	-0.0063
665.1436	0.0028
665.3284	0.0053
665.5132	0.0022
665.698	0.0092
665.8827	0.011
666.0675	0.0058
666.2522	-0.0059
666.4369	0.0064
666.6216	0.0091
666.8063	0.0009
666.9909	0.0079
667.1756	0.0028
667.3602	0.0015
667.5448	0.0028
667.7294	0.0042
667.9139	0.0055
668.0985	0.0114
668.283	0.0076
668.4675	0.0053
668.652	0.0032
668.8365	0.0037
669.0209	0.005
669.2054	0.0059
669.3898	0.0068
669.5742	0.0106
669.7586	0.0122
669.943	0.0133
670.1273	0.013
670.3117	0.0098
670.496	0.0108
670.6803	0.0212
670.8646	0.0093
671.0488	0.0049
671.2331	0.0135
671.4173	0.0075
671.6015	0.0072
671.7857	0.01
671.9699	0.008
672.1541	0.0083
672.3382	0.0042
672.5223	0.0102
672.7064	0.0054
672.8905	0.0048
673.0746	0.0072
673.2587	0.01
673.4427	0.0079
673.6267	0.0085
673.8107	0.0119
673.9947	0.0037
674.1787	0.0064
674.3626	-0.0032
674.5465	0.0089
674.7304	0.0064
674.9143	0.0057
675.0982	0.0132
675.2821	-0.0028
675.4659	0.0081
675.6497	-0.0007
675.8335	-0.0012
676.0173	-0.0032
676.2011	0.0071
676.3849	0.0069
676.5686	-0.0051
676.7523	0.0026
676.936	0.005
677.1197	-0.0056
677.3034	0.0028
677.487	0.0006
677.6706	0.0059
677.8542	0.0118
678.0378	0.0036
678.2214	-0.0018
678.405	0.0032
678.5885	-0.0132
678.772	-0.0019
678.9555	-0.0037
679.139	0.0007
679.3225	-0.0001
679.5059	-0.0077
679.6894	0.005
679.8728	0.0044
680.0562	-0.0073
680.2395	-0.0052
680.4229	-0.0013
680.6062	0.0094
680.7896	0.0019
680.9729	-0.0017
681.1562	0.0017
681.3394	0.0019
681.5227	-0.0018
681.7059	0.0018
681.8891	0.0028
682.0723	0.0044
682.2555	0.0065
682.4387	0.0049
682.6218	0.0032
682.805	0.005
682.9881	-0.0027
683.1712	0.0005
683.3542	-0.0022
683.5373	0.0017
683.7203	-0.0104
683.9034	-0.0025
684.0864	-0.0075
684.2694	-0.0013
684.4523	0.0022
684.6353	0.0007
684.8182	-0.0004
685.0011	0.0031
685.184	0.0075
685.3669	-0.0012
685.5498	0.0055
685.7326	0.0007
685.9154	-0.0054
686.0982	0.0153
686.281	0.0033
686.4638	0
686.6465	0.0003
686.8293	-0.0001
687.012	0.0078
687.1947	-0.0027
687.3774	0.0032
687.56	0.0044
687.7427	0.0093
687.9253	-0.0061
688.1079	0.0013
688.2905	0.0065
688.4731	0.0064
688.6556	0.0015
688.8382	0.0005
689.0207	0.0078
689.2032	-0.0033
689.3857	-0.0088
689.5681	0.007
689.7506	-0.001
689.933	0.0036
690.1154	0.0014
690.2978	0.0144
690.4802	0.0042
690.6626	-0.0059
690.8449	0.0031
691.0272	0.0046
691.2095	-0.0002
691.3918	-0.0076
691.5741	0.0061
691.7563	0.0015
691.9386	0.004
692.1208	-0.0011
692.303	0.0085
692.4852	-0.0035
692.6673	0.0021
692.8495	0.0029
693.0316	0.0061
693.2137	0.0068
693.3958	0.0089
693.5778	-0.0003
693.7599	0.0032
693.9419	0.0033
694.1239	0.0032
694.3059	0.0009
694.4879	0.0045
694.6699	0.0082
694.8518	0.0005
695.0337	-0.0009
695.2157	0.0146
695.3975	0.0061
695.5794	0.0053
695.7613	0.0018
695.9431	-0.001
696.1249	0.005
696.3067	0.0046
696.4885	0.0046
696.6703	-0.002
696.852	-0.0022
697.0337	0.0056
697.2154	0.0065
697.3971	0.0091
697.5788	0.0019
697.7605	-0.0011
697.9421	0.0076
698.1237	-0.0035
698.3053	0.0097
698.4869	-0.0001
698.6685	-0.0074
698.85	0.0009
699.0315	0.0071
699.213	-0.0073
699.3945	0.003
699.576	0.0087
699.7575	0.0111
699.9389	0.0067
700.1203	-0.0032
700.3017	-0.009
700.4831	-0.0061
700.6645	0.0071
700.8458	0.0054
701.0271	-0.0002
701.2084	0.0015
701.3897	0.0014
701.571	0.0097
701.7523	-0.0015
701.9335	0.0068
702.1147	-0.0025
702.2959	0.0057
702.4771	0.0005
702.6583	0.0068
702.8394	-0.0053
703.0205	-0.0007
703.2016	0.0026
703.3827	-0.0017
703.5638	0.0028
703.7449	-0.0004
703.9259	0.0064
704.1069	-0.0003
704.2879	0.0014
704.4689	-0.0056
704.6499	0.0002
704.8308	0.0009
705.0117	-0
705.1927	-0.0008
705.3735	-0.0024
705.5544	-0.0083
705.7353	-0.0091
705.9161	-0.0059
706.0969	-0.0093
706.2777	0.0017
706.4585	0.0069
706.6393	0.0012
706.82	-0.0034
707.0007	0.0103
707.1815	0.0087
707.3621	0.0126
707.5428	0.0038
707.7235	0.0102
707.9041	0.0125
708.0847	-0.0067
708.2653	-0.005
708.4459	-0.0026
708.6265	0.0023
708.807	-0.0032
708.9875	-0.0032
709.168	-0.0071
709.3485	-0.0012
709.529	-0.0022
709.7095	-0.0058
709.8899	0.002
710.0703	-0.0013
710.2507	-0.0029
710.4311	-0.0036
710.6115	-0.0098
710.7918	-0.0006
710.9721	0.0015
711.1524	-0.0137
711.3327	-0.0039
711.513	0.0023
711.6932	-0.0034
711.8735	0.0066
712.0537	-0.0012
712.2339	-0.0017
712.4141	-0.0055
712.5942	-0.0063
712.7744	-0.0016
712.9545	-0.0112
713.1346	-0.0108
713.3147	-0.0014
713.4947	-0.0055
713.6748	-0.0014
713.8548	0.0003
714.0348	-0.0015
714.2148	-0.0083
714.3948	0.004
714.5748	0.003
714.7547	-0.0015
714.9346	0.0066
715.1145	-0.0044
715.2944	-0.0054
715.4743	-0.006
715.6541	-0.0038
715.834	0.0103
716.0138	-0.004
716.1936	-0.0082
716.3733	0.0014
716.5531	0.0028
716.7328	-0.0024
716.9126	-0.0004
717.0923	0.003
717.2719	0.0091
717.4516	0.0049
717.6312	0.004
717.8109	0.0004
717.9905	0.0103
718.1701	-0.0029
718.3496	-0.0072
718.5292	0.0025
718.7087	0.0012
718.8882	-0.0032
719.0677	0.0091
719.2472	0.0008
719.4267	0.0021
719.6061	-0.0012
719.7856	0.0035
719.965	0.0063
720.1443	0.0026
720.3237	0.0102
720.5031	0.0014
720.6824	0.0049
720.8617	0.0075
721.041	0.0077
721.2203	0.0058
721.3995	0.0025
721.5788	-0.003
721.758	0.0082
721.9372	0.0019
722.1164	0.0058
722.2956	0.003
722.4747	0.0085
722.6538	-0.0023
722.8329	0.0116
723.012	0.0106
723.1911	0.0039
723.3702	-0.0006
723.5492	0.0136
723.7282	0.0061
723.9072	0.0078
724.0862	0.0059
724.2652	-0.0017
724.4441	-0.0015
724.623	-0.0054
724.8019	0.007
724.9808	0.0095
725.1597	-0.0109
725.3385	0.001
725.5174	-0.0006
725.6962	-0.0019
725.875	-0.0043
726.0538	0.0101
726.2325	0.0032
726.4112	0.0052
726.59	0.0015
726.7687	-0.0045
726.9474	0.0009
727.126	0.0038
727.3047	-0.0096
727.4833	-0.0089
727.6619	-0.0113
727.8405	-0.0069
728.0191	-0.0035
728.1976	0.0096
728.3762	-0.0024
728.5547	0.0035
728.7332	-0.0066
728.9116	0.0014
729.0901	0.0013
729.2686	-0.0005
729.447	-0.0022
729.6254	0.0002
729.8038	0.006
729.9821	-0.0111
730.1605	-0.0002
730.3388	0.0029
730.5171	-0.0012
730.6954	-0.0046
730.8737	0.0045
731.0519	0.0042
731.2302	0.0001
731.4084	0.0119
731.5866	0.0126
731.7648	0.0037
731.9429	-0
732.1211	-0.0066
732.2992	0.009
732.4773	0.0074
732.6554	0.0053
732.8335	-0.0019
733.0115	0.0076
733.1896	0.0112
733.3676	-0.0109
733.5456	0.0019
733.7235	0.0129
733.9015	0.0003
734.0794	0.0065
734.2574	-0.0013
734.4353	0.0009
734.6131	0.0085
734.791	0.0044
734.9689	0.0038
735.1467	0.0112
735.3245	0.0031
735.5023	-0.0004
735.68	0.0057
735.8578	0.0163
736.0355	-0.0102
736.2132	-0.0026
736.3909	0.003
736.5686	-0.0041
736.7463	0.0086
736.9239	0.0057
737.1015	0.0043
737.2791	0.0062
737.4567	0.0013
737.6343	0.0064
737.8118	0.0005
737.9894	0.0072
738.1669	0.0001
738.3444	-0.0057
738.5218	0.0011
738.6993	-0.0075
738.8767	0.0012
739.0541	0.0162
739.2315	-0.0093
739.4089	0.0013
739.5863	0.0052
739.7636	-0.0066
739.9409	0.004
740.1182	0.0093
740.2955	0.0081
740.4728	0.0001
740.65	-0.0025
740.8272	-0.0028
741.0044	0.0003
741.1816	0.0043
741.3588	0.0055
741.5359	-0.0036
741.7131	-0.005
741.8902	-0.0004
742.0673	0.0113
742.2444	-0.0087
742.4214	-0.0117
742.5985	-0.0046
742.7755	-0.0026
742.9525	-0.0103
743.1295	0.0004
743.3064	0.0085
743.4834	-0.0021
743.6603	-0.0027
743.8372	-0.0036
744.0141	0.0137
744.191	0.0098
744.3678	0.0045
744.5446	0.0025
744.7215	0.0021
744.8982	0.0006
745.075	-0.0039
745.2518	-0.0017
745.4285	-0.0005
745.6052	-0.0079
745.7819	0.0018
745.9586	-0.0002
746.1353	0.0015
746.3119	-0.0086
746.4885	-0.0088
746.6651	-0.0001
746.8417	-0.0012
747.0183	-0.0078
747.1948	0.0003
747.3714	-0.0084
747.5479	0.0037
747.7244	-0.0148
747.9008	0.0071
748.0773	-0.0043
748.2537	0.0041
748.4301	-0.0037
748.6065	0.0006
748.7829	0.0032
748.9593	-0.0015
749.1356	0.0026
749.3119	0.0075
749.4882	-0.0048
749.6645	0.0038
749.8408	-0.0018
750.017	-0.0013
750.1933	0.0011
750.3695	-0.0072
750.5457	0.0083
750.7218	-0.0064
750.898	0.0025
751.0741	-0.0008
751.2502	0.0004
751.4263	-0.0027
751.6024	0.0002
751.7784	-0.0117
751.9545	0.0018
752.1305	0.0059
752.3065	-0.0039
752.4825	0.0175
752.6584	-0.0051
752.8344	0.0033
753.0103	-0.0037
753.1862	0.001
753.3621	-0.006
753.5379	-0.0057
753.7138	-0.0026
753.8896	0.0065
754.0654	0.0093
754.2412	0.0081
754.417	-0.0069
754.5927	-0.0032
754.7685	-0.0024
754.9442	0.001
755.1199	0.0058
755.2956	-0.0019
755.4712	0.0137
755.6469	0.0015
755.8225	-0.0009
755.9981	-0.0053
756.1736	0.0057
756.3492	0.0096
756.5248	0.0001
756.7003	-0.0025
756.8758	0.0018
757.0513	-0.0086
757.2267	-0.0055
757.4022	-0.0021
757.5776	-0.0105
757.753	-0.0005
757.9284	0.0017
758.1038	0.0053
758.2791	0.0008
758.4545	-0.0163
758.6298	0.0015
758.8051	0.007
758.9803	-0.0061
759.1556	-0.006
759.3308	-0.0094
759.506	0.0017
759.6812	0.0018
759.8564	0.0087
760.0316	-0.0085
760.2067	0.0025
760.3819	0.0044
760.557	0.0056
760.732	0.002
760.9071	-0.0027
761.0821	0.0068
761.2572	0.0122
761.4322	-0.0096
761.6072	-0.0094
761.7821	-0.002
761.9571	0.0029
762.132	-0.0054
762.3069	-0.0078
762.4818	0.0035
762.6567	-0.0043
762.8316	0.0017
763.0064	0.0018
763.1812	0.0017
763.356	-0.0107
763.5308	-0.0023
763.7055	-0.0059
763.8803	-0.0063
764.055	-0.0001
764.2297	-0.0028
764.4044	0.0011
764.579	-0.0023
764.7537	-0.0063
764.9283	0.0095
765.1029	-0.004
765.2775	-0.001
765.4521	0.0022
765.6266	-0.0092
765.8011	0.0038
765.9756	0.0016
766.1501	0.0083
766.3246	0.0052
766.4991	0.0126
766.6735	0.0077
766.8479	0.002
767.0223	0.0282
767.1967	0.0045
767.371	0.013
767.5454	0.0043
767.7197	0.004
767.894	0.0036
768.0683	-0.0118
768.2425	0.0019
768.4168	0.0047
768.591	0.0058
768.7652	0.0071
768.9394	0.006
769.1135	0.0026
769.2877	0.005
769.4618	-0.0041
769.6359	0.0012
769.81	-0.0043
769.984	0.0025
770.1581	0.0035
770.3321	0.008
770.5061	0.0083
770.6801	0.0031
770.8541	-0.0019
771.028	0.0155
771.202	-0.0003
771.3759	0.0153
771.5498	-0.0037
771.7236	0.0081
771.8975	0.0047
772.0713	-0.0005
772.2451	-0.0007
772.4189	0.0118
772.5927	0.015
772.7665	0.0005
772.9402	0.0068
773.1139	0.0065
773.2876	0.0006
773.4613	0.0075
773.635	0.0195
773.8086	0.001
773.9822	-0.0001
774.1558	0.0111
774.3294	-0.0088
774.503	0.0001
774.6765	0.0036
774.8501	0.0075
775.0236	0.0165
775.1971	0.0128
775.3705	-0.0034
775.544	0.0191
775.7174	-0.0082
775.8908	0.0142
776.0642	0.0144
776.2376	0.011
776.4109	0.0054
776.5843	0.0057
776.7576	0.0232
776.9309	0.0243
777.1041	0.0152
777.2774	0.0212
777.4506	0.0053
777.6238	0.0122
777.797	0.0151
777.9702	0.0007
778.1434	-0.0073
778.3165	-0.0103
778.4896	-0.0019
778.6627	0.0067
778.8358	-0.0035
779.0089	-0.0015
779.1819	-0.0076
779.3549	0.0105
779.5279	0.0082
779.7009	-0.002
779.8739	0.0055
780.0468	0.0072
780.2197	-0.0093
780.3926	-0.0079
780.5655	0.0026
780.7384	-0.0001
780.9112	0.0096
781.0841	-0.002
781.2569	0.0007
781.4297	0.0118
781.6024	0.0058
781.7752	0.0034
781.9479	0.0045
782.1206	-0.0006
782.2933	-0.006
782.466	0.0045
782.6386	0.0077
782.8113	0.009
782.9839	0.0038
783.1565	0.0105
783.329	0.0018
783.5016	0.0087
783.6741	0.0249
783.8466	0.002
784.0191	0.0298
784.1916	0.0113
784.3641	0.0127
784.5365	0.0033
784.7089	0.0144
784.8813	0.0044
785.0537	-0.0006
785.2261	-0.0084
785.3984	0.0081
785.5707	0.0001
785.743	0.0136
785.9153	-0.0089
786.0876	0.0157
786.2598	-0
786.432	-0.0007
786.6042	0.013
786.7764	0.0033
786.9486	-0.003
787.1207	-0.0078
787.2928	0.0122
787.4649	0.0066
787.637	0.0056
787.8091	0.0054
787.9811	0.0132
788.1532	0.0045
788.3252	0.0215
788.4972	0.0042
788.6691	0.0132
788.8411	0.007
789.013	0.001
789.1849	0.0252
789.3568	0.0014
789.5287	-0.0009
789.7005	0.0012
789.8723	-0.0071
790.0442	0.0173
790.2159	0.0208
790.3877	0.0085
790.5595	-0.0109
790.7312	0.0013
790.9029	0.0138
791.0746	-0.0073
791.2463	0.027
791.4179	0.0085
791.5896	0.0033
791.7612	0.0205
791.9328	0.0188
792.1044	-0.0015
792.2759	-0.0138
792.4474	-0.0053
792.619	0.0101
792.7905	0.0142
792.9619	0.0003
793.1334	0.0076
793.3048	0.0111
793.4762	0.0164
793.6476	0.0202
793.819	-0.0011
793.9904	0.0143
794.1617	-0.0031
794.333	0.0152
794.5043	-0.0026
794.6756	-0.012
794.8469	-0.0076
795.0181	-0.0012
795.1893	-0.0057
795.3605	0.0032
795.5317	0.0015
795.7029	-0.0046
795.874	-0.0043
796.0452	-0.0018
796.2163	0.0136
796.3873	0.0222
796.5584	0.0144
796.7294	0.0207
796.9005	0.019
797.0715	0.0036
797.2425	-0.0073
797.4134	0.0138
797.5844	0.0191
797.7553	0.0015
797.9262	0.0086
798.0971	-0.0032
798.2679	-0.0019
798.4388	-0.0158
798.6096	-0.004
798.7804	0.0049
798.9512	-0.0049
799.122	-0.0034
799.2927	0.0189
799.4635	0.0133
799.6342	-0.0071
799.8049	0.0007
799.9755	0.0049
800.1462	-0.0033
800.3168	0.0062
800.4874	-0.0104
800.658	0.0138
800.8286	-0.0045
800.9991	0.0225
801.1696	0.0104
801.3402	0.0101
801.5106	-0.0025
801.6811	0.0001
801.8516	0.031
802.022	0.0097
802.1924	0.0147
802.3628	-0.0071
802.5332	0.0219
802.7035	0.025
802.8739	-0.0013
803.0442	-0.0031
803.2145	0.0196
803.3847	-0.0072
803.555	0.0103
803.7252	0.0004
803.8954	-0.017
804.0656	-0.0043
804.2358	-0.0027
804.4059	0.0086
804.5761	-0.0031
804.7462	0.019
804.9163	0.013
805.0864	-0.0129
805.2564	-0.0003
805.4264	0.0046
805.5965	0.0033
805.7665	0.009
805.9364	-0.003
806.1064	0.024
806.2763	0.0075
806.4462	0.0313
806.6161	0.0047
806.786	0.0137
806.9559	-0.0064
807.1257	-0.0028
807.2955	0.0144
807.4653	-0.0117
807.6351	0.0066
807.8048	0.0037
807.9746	0.0185
808.1443	0.0191
808.314	0.0201
808.4837	-0.0029
808.6533	0.0083
808.8229	0.0297
808.9926	0.0148
809.1622	0.0173
809.3317	0.0024
809.5013	0.005
809.6708	0.0207
809.8403	-0.002
810.0098	0.0081
810.1793	0.0133
810.3488	-0.0008
810.5182	-0.0175
810.6876	0.0398
810.857	-0.0088
811.0264	0.017
811.1958	0.0159
811.3651	0.0124
811.5344	0.009
811.7037	-0.0037
811.873	0.0084
812.0422	0.0034
812.2115	0.0103
812.3807	-0.0201
812.5499	0.0294
812.7191	0.0026
812.8882	0.0014
813.0574	0.0083
813.2265	-0.0028
813.3956	-0.002
813.5646	0.0154
813.7337	-0.0124
813.9027	0.0227
814.0718	0.0238
814.2407	0.0234
814.4097	0.0078
814.5787	-0.0073
814.7476	0.0105
814.9165	-0.0113
815.0854	0.0159
815.2543	-0.0004
815.4232	-0.0031
815.592	0.0388
815.7608	0.0205
815.9296	0.0382
816.0984	0.0385
816.2671	-0.0094
816.4359	0.0181
816.6046	0.0317
816.7733	0.0021
816.942	-0.0041
817.1106	0.0124
817.2793	0.0152
817.4479	0.0297
817.6165	0.0291
817.785	0.0063
817.9536	0.0136
818.1221	0.0146
818.2906	-0.0007
818.4591	0.0055
818.6276	0.0013
818.7961	0.0049
818.9645	-0.0017
819.1329	-0.0034
819.3013	0.0474
819.4697	0.042
819.638	0.0246
819.8064	-0.0135
819.9747	0.008
820.143	0.0247
820.3113	0.0113
820.4795	0.0199
820.6477	0.0185
820.816	0.0177
820.9842	0.0175
821.1523	-0.0094
821.3205	-0.0029
821.4886	0.0263
821.6567	0.0108
821.8248	0.0292
821.9929	0.0288
822.1609	0.0266
822.329	0.0287
822.497	0.0215
822.665	0.0272
822.833	0.0105
823.0009	-0.0049
823.1688	0.0359
823.3367	0.0263
823.5046	0.035
823.6725	0.0233
823.8404	0.0135
824.0082	0.0408
824.176	0.0309
824.3438	0.0308
824.5116	0.0214
824.6793	0.0327
824.847	0.0074
825.0147	0.0204
825.1824	0.0522
825.3501	0.0357
825.5177	-0.0119
825.6854	-0.004
825.853	0.0374
826.0206	-0.0188
826.1881	0.013
826.3557	0.0013
826.5232	0.023
826.6907	-0.001
826.8582	0.0137
827.0257	-0.0124
827.1931	0.0288
827.3605	0.0094
827.528	0.0083
827.6953	-0.0095
827.8627	-0.0098
828.03	0.048
828.1974	0.0127
828.3647	-0.0357
828.532	-0.0089
828.6992	0.0201
828.8665	0.0135
829.0337	-0.0247
829.2009	0.0412
829.3681	-0.0072
829.5352	0.0142
829.7024	-0.0317
829.8695	-0.0134
830.0366	0.0354
830.2037	0.0102
830.3707	0.0279
830.5378	0.0129
830.7048	0.012
830.8718	0.0004
831.0388	0.0045
831.2057	0.0085
831.3727	0.0158
831.5396	0.0016
831.7065	-0.0064
831.8734	0.0341
832.0402	-0.0222
832.2071	0.0357
832.3739	-0.0336
832.5407	0.0405
832.7075	-0.0309
832.8742	-0.0002
833.041	-0.0216
833.2077	-0.0056
833.3744	0.0298
833.541	0.0544
833.7077	0.0183
833.8743	-0.0169
834.0409	0.025
834.2075	0.0173
834.3741	-0.0057
834.5407	-0.0108
834.7072	0.02
834.8737	-0.0061
835.0402	-0.0121
835.2067	-0.0124
835.3731	0.0443
835.5395	-0.0027
835.706	0.0362
835.8723	0.0334
836.0387	0.0192
836.2051	0.0125
836.3714	0.0144
836.5377	0.0117
836.704	0.0195
836.8703	0.0115
837.0365	-0.0103
837.2027	-0.0301
837.3689	0.0114
837.5351	-0.0091
837.7013	-0.0345
837.8674	-0.0182
838.0335	-0.0331
838.1997	0.0063
838.3657	-0.0555
838.5318	-0.0138
838.6978	0.0566
838.8639	0.0211
839.0299	0.0301
839.1958	0.0101
839.3618	0.0345
839.5277	-0.0203
839.6937	0.0279
839.8596	0.0099
840.0254	0.0497
840.1913	-0.0116
840.3571	0.0518
840.523	-0.0207
840.6888	-0.0002
840.8545	-0.0031
841.0203	0.0222
841.186	-0.0162
841.3517	0.047
841.5174	0.0185
841.6831	0.034
841.8488	0.0061
842.0144	-0.0011
842.18	0.0406
842.3456	0.0199
842.5112	0.0038
842.6767	-0.0061
842.8422	0.0216
843.0077	-0.0339
843.1732	-0.0106
843.3387	-0.0298
843.5042	-0.0219
843.6696	-0.0051
843.835	-0.0275
844.0004	0.0404
844.1657	0.0451
844.3311	-0.0143
844.4964	-0.0427
844.6617	-0.0556
844.827	-0.0251
844.9923	0.0089
845.1575	0.0254
845.3227	0.0271
845.4879	0.0088
845.6531	-0.0424
845.8183	-0.0159
845.9834	0.0293
846.1485	-0.0024
846.3136	-0.0672
846.4787	-0.0275
846.6438	0.0383
846.8088	-0.0247
846.9738	-0.0963
847.1388	-0.0276
847.3038	0.0088
847.4687	-0.1496
847.6337	0.0461
847.7986	0.0104
847.9635	0.0238
848.1284	0.0038
848.2932	0.0333
848.458	0.0577
848.6228	0.1041
848.7876	0.1202
848.9524	-0.1147
849.1172	-0.0844
849.2819	0.0578
849.4466	-0.0665
849.6113	-0.1007
849.7759	-0.0084
849.9406	0.0466
850.1052	0.0233
850.2698	-0.0298
850.4344	-0.0121
850.599	-0.0564
850.7635	0.0937
850.928	-0.0854
851.0925	0.046
851.257	0.0875
851.4215	0.0197
851.5859	0.048
851.7503	0.0058
851.9147	0.0302
852.0791	-0.0768
852.2434	-0.0621
852.4078	-0.0086
852.5721	0.1153
852.7364	-0.0869
852.9007	-0.2433
853.0649	0.0175
853.2291	0.0198
853.3934	-0.0444
853.5575	0.0445
853.7217	-0.1099
853.8859	-0.0131
854.05	-0.0238
854.2141	-0.045
854.3782	-0.0614
854.5423	-0.0937
854.7063	0.1523
854.8703	-0.0007
855.0343	-0.0729
855.1983	-0.0932
855.3623	0.181
855.5262	0.0456
855.6901	0.0018
855.854	0.0078
856.0179	0.0175
856.1818	0.0719
856.3456	-0.0608
856.5094	-0.1093
856.6732	-0.0851
856.837	-0.0222
857.0008	0.0468
857.1645	0.0405
857.3282	-0.1076
857.4919	0.099
857.6556	0.2521
857.8192	-0.0008
857.9828	0.2587
858.1465	0.1922
858.31	-0.0775
858.4736	-0.0291
858.6372	-0.1536
858.8007	-0.2936
858.9642	-0.0645
859.1277	-0.1728
859.2911	-0.0236
859.4546	0.1053
859.618	-0.228
859.7814	0.0233
859.9448	0.1063
860.1081	0.1335
860.2715	0.2818
860.4348	0.4856
860.5981	0.0486
860.7614	0.0927
860.9246	0.0923
861.0879	-0.1114
861.2511	0.0344
861.4143	-0.1369
861.5774	0.3315
861.7406	-0.0549
861.9037	0.3531
862.0668	-0.1746
862.2299	-0.1206
862.393	-0.3788
862.556	0.0866
862.7191	-0.5033
862.8821	-0.1644
863.0451	0.0763
863.208	0.1124
863.371	-0.0476
863.5339	0.1598
863.6968	-0.0478
863.8597	-0.162
864.0225	-0.0822
864.1854	-0.146
864.3482	-0.23
864.511	0.0353
864.6737	-0.1259
864.8365	-0.0768
864.9992	-0.0305
865.1619	-0
865.3246	-0
865.4873	0.0915
865.65	-0
865.8126	0.104
865.9752	0.1845
866.1378	-0.0793
866.3004	-0
866.4629	0.2045
866.6254	-0.3016
866.7879	0.5272
866.9504	-0.4679
867.1129	0.0401
867.2753	0.3555
867.4377	0.3384
867.6001	-0.4074
867.7625	0.2323
867.9249	-0
868.0872	-0.2049
868.2495	0.0361
868.4118	-0.2441
868.5741	-0.2654
868.7363	-0.1626
868.8986	-0.3252
869.0608	-0.2847
869.223	0.1116
869.3851	-0.0456
869.5473	0.7848
869.7094	0.8778
869.8715	-0
870.0336	-0
870.1957	-0.4759
870.3577	-1.4321
870.5197	0.0529
870.6817	-0.2809
870.8437	-0.1276
871.0057	-0
871.1676	-0
871.3295	-0.2775
871.4914	0.13
871.6533	-0.3737
871.8151	-0.0323
871.977	-0
872.1388	-0
872.3006	0.0837
872.4623	0.3197
872.6241	0.1359
872.7858	0.1974
872.9475	0.1512
873.1092	-0.2002
873.2709	-0.186
873.4325	-0.0269
873.5941	-0.3216
873.7557	-0
873.9173	-0.2058
874.0789	-0.0096
874.2404	-0.9186
874.4019	0.3888
874.5634	-0.2476
874.7249	-0.0621
874.8863	0.0084
875.0478	0.0821
875.2092	-0
875.3706	1
875.5319	-0.5021
875.6933	-0
875.8546	-0.4765
876.0159	-0
876.1772	1.0477
876.3385	-0
876.4997	0.4304
876.6609	-0.423
876.8221	0.4805
876.9833	-0
877.1445	-0
877.3056	0.2168
877.4667	-0.2033
877.6278	-0
877.7889	-0.8331
877.9499	-0.9203
878.111	-0
878.272	-0
878.433	0.4328
878.5939	-0.1975
878.7549	0.0343
878.9158	-0.157
879.0767	0.255
879.2376	-0
879.3984	0.0604
879.5593	-0.1291
879.7201	0.0215
879.8809	-0.5296
880.0417	-0
880.2024	-0
880.3632	-0
880.5239	0.4522
880.6846	-0
880.8452	-2.6069
881.0059	-1.3483
881.1665	0.1636
881.3271	0.0987
881.4877	-0.7594
881.6483	0.7363
881.8088	-0.3316
881.9693	0.5488
882.1298	0.5488
882.2903	0.5488
