Data from MonoPyChalIsomerACN10uM360nmA_Absorbance_13-57-30-606.txt Node
Date: Fri Jul 05 13:57:30 BST 2024
User: LASERRRRR
Spectrometer: FLMT03099
Trigger mode: 0
Integration Time (sec): 1.000000E-1
Scans to average: 1
Electric dark correction enabled: true
Nonlinearity correction enabled: false
Boxcar width: 0
XAxis mode: Wavelengths
Number of Pixels in Spectrum: 3648
>>>>>Begin Spectral Data<<<<<
179.3399	0.1589
179.5586	0.1589
179.7771	0.1589
179.9957	0.2728
180.2143	-0
180.4329	0.7898
180.6514	-0
180.8699	-0
181.0885	-0.1966
181.307	0.0221
181.5255	-0.4576
181.744	-0.2415
181.9625	-0.0523
182.181	1.415
182.3994	0.8862
182.6179	0.056
182.8363	-0
183.0547	0.2076
183.2732	-0.0154
183.4916	0.1526
183.71	-0.0716
183.9284	0.2442
184.1467	-0.1417
184.3651	-0.0534
184.5835	-0.2425
184.8018	-0.0272
185.0201	-0.0672
185.2385	-0.1456
185.4568	0.0776
185.6751	-0.0109
185.8934	0.3691
186.1117	0.0824
186.3299	0.2006
186.5482	-0.0041
186.7664	-0.0228
186.9847	-0.1424
187.2029	-0.1011
187.4211	0.0688
187.6393	0.2607
187.8575	0.0187
188.0757	0.1806
188.2939	0.0454
188.512	-0.1476
188.7302	-0.1554
188.9483	0.0476
189.1665	0.3529
189.3846	0.7495
189.6027	0.1711
189.8208	0.1623
190.0389	0.1164
190.257	0.1867
190.475	0.0639
190.6931	0.2464
190.9111	0.6703
191.1292	0.1306
191.3472	0.3381
191.5652	0.2775
191.7832	0.3117
192.0012	0.4922
192.2192	0.376
192.4371	0.4938
192.6551	0.3927
192.873	0.4485
193.091	0.2581
193.3089	0.4812
193.5268	0.6118
193.7447	0.6962
193.9626	0.5461
194.1805	0.5822
194.3984	0.7803
194.6162	0.6097
194.8341	0.4722
195.0519	0.6823
195.2697	0.6228
195.4875	0.5936
195.7054	0.5956
195.9231	0.5481
196.1409	0.6943
196.3587	0.6623
196.5765	0.6242
196.7942	0.5746
197.012	0.5005
197.2297	0.6399
197.4474	0.6123
197.6651	0.5261
197.8828	0.5936
198.1005	0.5833
198.3182	0.6325
198.5358	0.7705
198.7535	0.5814
198.9711	0.5692
199.1888	0.5816
199.4064	0.7553
199.624	0.4427
199.8416	0.4983
200.0592	0.5476
200.2767	0.9294
200.4943	0.6524
200.7119	0.814
200.9294	0.688
201.1469	0.5646
201.3645	0.6522
201.582	0.5249
201.7995	0.6641
202.017	0.4815
202.2344	0.5709
202.4519	0.7602
202.6694	0.6237
202.8868	0.6491
203.1042	0.8366
203.3217	0.6672
203.5391	0.6966
203.7565	0.5995
203.9739	0.6911
204.1913	0.5783
204.4086	0.6303
204.626	0.7045
204.8433	0.6246
205.0607	0.6101
205.278	0.6497
205.4953	0.5869
205.7126	0.6144
205.9299	0.7439
206.1472	0.6306
206.3644	0.6464
206.5817	0.7388
206.7989	0.7033
207.0162	0.6393
207.2334	0.7324
207.4506	0.6843
207.6678	0.6441
207.885	0.7242
208.1022	0.6718
208.3194	0.7056
208.5365	0.6367
208.7537	0.6174
208.9708	0.6086
209.1879	0.6341
209.405	0.6786
209.6222	0.6485
209.8392	0.6257
210.0563	0.6322
210.2734	0.5512
210.4905	0.602
210.7075	0.6324
210.9245	0.6167
211.1416	0.67
211.3586	0.6309
211.5756	0.5529
211.7926	0.6347
212.0096	0.5946
212.2265	0.619
212.4435	0.5353
212.6604	0.5887
212.8774	0.572
213.0943	0.5473
213.3112	0.5677
213.5281	0.5377
213.745	0.4942
213.9619	0.4634
214.1788	0.5224
214.3956	0.4425
214.6125	0.4648
214.8293	0.3898
215.0461	0.5083
215.2629	0.4686
215.4798	0.4544
215.6965	0.4334
215.9133	0.4435
216.1301	0.4065
216.3469	0.4238
216.5636	0.4336
216.7803	0.3735
216.9971	0.4132
217.2138	0.3484
217.4305	0.3527
217.6472	0.3602
217.8639	0.3868
218.0805	0.3524
218.2972	0.3446
218.5138	0.3402
218.7305	0.3266
218.9471	0.3043
219.1637	0.3126
219.3803	0.2713
219.5969	0.2781
219.8135	0.2505
220.0301	0.2823
220.2466	0.2545
220.4632	0.254
220.6797	0.2465
220.8962	0.2303
221.1127	0.2527
221.3292	0.2719
221.5457	0.2527
221.7622	0.2459
221.9787	0.2297
222.1951	0.2386
222.4116	0.2834
222.628	0.2331
222.8444	0.2594
223.0608	0.2553
223.2772	0.254
223.4936	0.2431
223.71	0.2625
223.9264	0.2928
224.1427	0.2484
224.3591	0.2536
224.5754	0.2801
224.7917	0.2916
225.008	0.2748
225.2243	0.2531
225.4406	0.2838
225.6569	0.2699
225.8732	0.2715
226.0894	0.2599
226.3057	0.2646
226.5219	0.2862
226.7381	0.2537
226.9543	0.3084
227.1705	0.2942
227.3867	0.278
227.6029	0.3005
227.8191	0.2907
228.0352	0.3121
228.2513	0.3038
228.4675	0.3116
228.6836	0.3131
228.8997	0.3118
229.1158	0.3006
229.3319	0.3067
229.548	0.3249
229.764	0.3244
229.9801	0.3353
230.1961	0.3205
230.4121	0.3459
230.6282	0.3454
230.8442	0.3061
231.0602	0.3363
231.2761	0.3494
231.4921	0.3382
231.7081	0.3571
231.924	0.3383
232.14	0.3522
232.3559	0.3393
232.5718	0.3527
232.7877	0.3647
233.0036	0.344
233.2195	0.3693
233.4353	0.3458
233.6512	0.3878
233.867	0.3796
234.0829	0.3503
234.2987	0.3763
234.5145	0.3885
234.7303	0.3748
234.9461	0.3992
235.1619	0.3851
235.3776	0.3983
235.5934	0.3866
235.8091	0.3666
236.0249	0.3841
236.2406	0.379
236.4563	0.4021
236.672	0.39
236.8877	0.3898
237.1034	0.3992
237.319	0.4071
237.5347	0.3935
237.7503	0.3976
237.966	0.3829
238.1816	0.4192
238.3972	0.3975
238.6128	0.3924
238.8284	0.4047
239.0439	0.4079
239.2595	0.4114
239.475	0.4248
239.6906	0.4036
239.9061	0.406
240.1216	0.4031
240.3371	0.4154
240.5526	0.3968
240.7681	0.4176
240.9836	0.3739
241.199	0.4172
241.4145	0.3901
241.6299	0.3972
241.8453	0.3787
242.0607	0.3983
242.2761	0.3671
242.4915	0.3671
242.7069	0.388
242.9223	0.3649
243.1376	0.3613
243.353	0.334
243.5683	0.3591
243.7836	0.3357
243.9989	0.3339
244.2142	0.3199
244.4295	0.3366
244.6448	0.3154
244.86	0.2955
245.0753	0.3104
245.2905	0.2853
245.5057	0.2846
245.721	0.2749
245.9362	0.2823
246.1514	0.2835
246.3665	0.2538
246.5817	0.2665
246.7969	0.2501
247.012	0.2479
247.2271	0.2442
247.4423	0.2618
247.6574	0.2387
247.8725	0.228
248.0876	0.2387
248.3026	0.2178
248.5177	0.219
248.7328	0.2038
248.9478	0.2064
249.1628	0.2126
249.3779	0.2142
249.5929	0.2069
249.8079	0.2266
250.0228	0.2042
250.2378	0.2088
250.4528	0.1996
250.6677	0.1875
250.8827	0.2108
251.0976	0.193
251.3125	0.1941
251.5274	0.1982
251.7423	0.1895
251.9572	0.1851
252.172	0.1731
252.3869	0.1803
252.6017	0.1854
252.8166	0.1657
253.0314	0.1739
253.2462	0.1652
253.461	0.1767
253.6758	0.1648
253.8906	0.1805
254.1053	0.168
254.3201	0.1599
254.5348	0.1778
254.7496	0.173
254.9643	0.184
255.179	0.1744
255.3937	0.1662
255.6083	0.1741
255.823	0.1708
256.0377	0.157
256.2523	0.1692
256.467	0.1544
256.6816	0.1805
256.8962	0.1685
257.1108	0.1615
257.3254	0.1664
257.54	0.1636
257.7545	0.1737
257.9691	0.175
258.1836	0.174
258.3981	0.1742
258.6127	0.173
258.8272	0.1688
259.0417	0.1537
259.2561	0.1605
259.4706	0.1582
259.6851	0.1676
259.8995	0.152
260.114	0.1651
260.3284	0.1588
260.5428	0.1509
260.7572	0.1601
260.9716	0.1601
261.186	0.1576
261.4003	0.1596
261.6147	0.162
261.829	0.1675
262.0433	0.1609
262.2577	0.1723
262.472	0.1686
262.6863	0.1614
262.9005	0.1693
263.1148	0.1623
263.3291	0.1488
263.5433	0.1634
263.7576	0.1584
263.9718	0.164
264.186	0.1656
264.4002	0.1562
264.6144	0.1695
264.8286	0.1713
265.0427	0.1553
265.2569	0.1626
265.471	0.1527
265.6851	0.1645
265.8993	0.1636
266.1134	0.1444
266.3275	0.1547
266.5415	0.1602
266.7556	0.1735
266.9697	0.1623
267.1837	0.176
267.3978	0.1639
267.6118	0.1684
267.8258	0.1822
268.0398	0.1518
268.2538	0.1594
268.4677	0.1687
268.6817	0.1571
268.8957	0.1522
269.1096	0.1671
269.3235	0.1546
269.5374	0.1516
269.7514	0.1454
269.9652	0.1573
270.1791	0.1552
270.393	0.1458
270.6068	0.1579
270.8207	0.1548
271.0345	0.1408
271.2483	0.1497
271.4622	0.1338
271.676	0.1633
271.8897	0.1393
272.1035	0.1419
272.3173	0.1423
272.531	0.1487
272.7448	0.1513
272.9585	0.1337
273.1722	0.1547
273.3859	0.1487
273.5996	0.1352
273.8133	0.1506
274.0269	0.1483
274.2406	0.1331
274.4542	0.1449
274.6679	0.1456
274.8815	0.1465
275.0951	0.163
275.3087	0.1588
275.5223	0.1632
275.7358	0.1565
275.9494	0.1524
276.1629	0.1424
276.3765	0.1542
276.59	0.1541
276.8035	0.1558
277.017	0.1467
277.2305	0.1419
277.444	0.1478
277.6574	0.1509
277.8709	0.1527
278.0843	0.15
278.2978	0.1454
278.5112	0.1474
278.7246	0.1558
278.938	0.1565
279.1513	0.1533
279.3647	0.1546
279.5781	0.1544
279.7914	0.1501
280.0047	0.1641
280.2181	0.1612
280.4314	0.1715
280.6447	0.1663
280.8579	0.1546
281.0712	0.1561
281.2845	0.1698
281.4977	0.1514
281.711	0.1525
281.9242	0.1611
282.1374	0.1597
282.3506	0.1493
282.5638	0.1487
282.7769	0.1502
282.9901	0.1575
283.2033	0.1584
283.4164	0.1738
283.6295	0.156
283.8426	0.1551
284.0557	0.1611
284.2688	0.1721
284.4819	0.1587
284.695	0.1616
284.908	0.1622
285.1211	0.1481
285.3341	0.1714
285.5471	0.167
285.7601	0.1613
285.9731	0.1478
286.1861	0.1535
286.3991	0.1637
286.612	0.1721
286.825	0.1615
287.0379	0.1736
287.2508	0.1515
287.4637	0.168
287.6766	0.1669
287.8895	0.1631
288.1024	0.1867
288.3152	0.1693
288.5281	0.1516
288.7409	0.1562
288.9538	0.1724
289.1666	0.1556
289.3794	0.156
289.5922	0.1596
289.8049	0.1564
290.0177	0.1489
290.2304	0.171
290.4432	0.1683
290.6559	0.1551
290.8686	0.1669
291.0813	0.1594
291.294	0.1634
291.5067	0.178
291.7194	0.1643
291.932	0.1761
292.1447	0.1651
292.3573	0.1558
292.5699	0.1569
292.7825	0.1663
292.9951	0.17
293.2077	0.1658
293.4203	0.1666
293.6328	0.162
293.8454	0.1749
294.0579	0.1646
294.2704	0.1541
294.4829	0.1584
294.6954	0.174
294.9079	0.1613
295.1204	0.1629
295.3328	0.1622
295.5453	0.158
295.7577	0.1674
295.9701	0.1524
296.1825	0.1617
296.3949	0.154
296.6073	0.1661
296.8197	0.1498
297.0321	0.1711
297.2444	0.1565
297.4567	0.1549
297.6691	0.1656
297.8814	0.1568
298.0937	0.1506
298.306	0.1675
298.5182	0.1654
298.7305	0.1704
298.9428	0.1594
299.155	0.1672
299.3672	0.163
299.5794	0.1578
299.7916	0.1551
300.0038	0.1607
300.216	0.1617
300.4282	0.1566
300.6403	0.1611
300.8525	0.1633
301.0646	0.1505
301.2767	0.1629
301.4888	0.1603
301.7009	0.1626
301.913	0.1521
302.125	0.166
302.3371	0.1444
302.5491	0.1662
302.7612	0.1657
302.9732	0.1702
303.1852	0.1775
303.3972	0.151
303.6092	0.1554
303.8211	0.1462
304.0331	0.1486
304.245	0.15
304.457	0.148
304.6689	0.1543
304.8808	0.1522
305.0927	0.1493
305.3046	0.1591
305.5164	0.1492
305.7283	0.1338
305.9401	0.153
306.152	0.156
306.3638	0.1422
306.5756	0.145
306.7874	0.144
306.9992	0.1453
307.2109	0.1455
307.4227	0.1312
307.6344	0.147
307.8462	0.1225
308.0579	0.1374
308.2696	0.1238
308.4813	0.137
308.693	0.14
308.9046	0.1408
309.1163	0.1245
309.328	0.1211
309.5396	0.1336
309.7512	0.1273
309.9628	0.1228
310.1744	0.1175
310.386	0.1176
310.5976	0.1125
310.8091	0.1231
311.0207	0.1116
311.2322	0.1139
311.4437	0.1026
311.6552	0.1052
311.8667	0.1216
312.0782	0.1046
312.2897	0.1089
312.5012	0.1165
312.7126	0.1013
312.924	0.1019
313.1355	0.1178
313.3469	0.1064
313.5583	0.1056
313.7696	0.1091
313.981	0.1176
314.1924	0.1057
314.4037	0.1058
314.6151	0.1085
314.8264	0.1042
315.0377	0.1041
315.249	0.1067
315.4603	0.1107
315.6716	0.1031
315.8828	0.1043
316.0941	0.1018
316.3053	0.0941
316.5165	0.1065
316.7277	0.0967
316.9389	0.1084
317.1501	0.1
317.3613	0.1061
317.5724	0.0852
317.7836	0.1035
317.9947	0.0988
318.2058	0.0935
318.417	0.0943
318.6281	0.0978
318.8391	0.0938
319.0502	0.0925
319.2613	0.1015
319.4723	0.1066
319.6834	0.1018
319.8944	0.0985
320.1054	0.0917
320.3164	0.1026
320.5274	0.0999
320.7383	0.0949
320.9493	0.1035
321.1602	0.106
321.3712	0.0927
321.5821	0.0993
321.793	0.1021
322.0039	0.1031
322.2148	0.0871
322.4257	0.0997
322.6365	0.1147
322.8474	0.1041
323.0582	0.1037
323.269	0.1098
323.4798	0.1166
323.6906	0.1145
323.9014	0.0997
324.1122	0.0924
324.3229	0.0988
324.5337	0.1023
324.7444	0.094
324.9551	0.1075
325.1658	0.1083
325.3765	0.1008
325.5872	0.1102
325.7979	0.1134
326.0085	0.1052
326.2192	0.1201
326.4298	0.1125
326.6404	0.0981
326.851	0.1004
327.0616	0.0976
327.2722	0.1029
327.4828	0.1139
327.6933	0.0983
327.9039	0.1159
328.1144	0.1194
328.3249	0.1048
328.5354	0.1019
328.7459	0.1185
328.9564	0.1011
329.1669	0.1107
329.3773	0.1063
329.5878	0.1074
329.7982	0.1003
330.0086	0.0979
330.219	0.1066
330.4294	0.1022
330.6398	0.1138
330.8502	0.1101
331.0605	0.1038
331.2708	0.1081
331.4812	0.1107
331.6915	0.1186
331.9018	0.1122
332.1121	0.097
332.3224	0.1063
332.5326	0.1108
332.7429	0.1056
332.9531	0.1216
333.1633	0.1016
333.3735	0.11
333.5837	0.1031
333.7939	0.1062
334.0041	0.1255
334.2143	0.1143
334.4244	0.1099
334.6346	0.0891
334.8447	0.1219
335.0548	0.1075
335.2649	0.1093
335.475	0.1289
335.685	0.1096
335.8951	0.1212
336.1051	0.1113
336.3152	0.1129
336.5252	0.1153
336.7352	0.1096
336.9452	0.1249
337.1552	0.1209
337.3652	0.0985
337.5751	0.1115
337.7851	0.1129
337.995	0.1108
338.2049	0.1054
338.4148	0.116
338.6247	0.1152
338.8346	0.1047
339.0445	0.1037
339.2543	0.1051
339.4642	0.1226
339.674	0.1154
339.8838	0.1203
340.0936	0.1043
340.3034	0.1215
340.5132	0.1196
340.7229	0.1211
340.9327	0.1188
341.1424	0.1215
341.3522	0.1252
341.5619	0.1329
341.7716	0.1072
341.9813	0.1321
342.1909	0.1127
342.4006	0.1306
342.6102	0.1308
342.8199	0.117
343.0295	0.1323
343.2391	0.1273
343.4487	0.1331
343.6583	0.1312
343.8679	0.1405
344.0774	0.1173
344.287	0.1285
344.4965	0.1181
344.706	0.1168
344.9155	0.1243
345.125	0.1237
345.3345	0.1338
345.544	0.1223
345.7534	0.1264
345.9629	0.1308
346.1723	0.1255
346.3817	0.1211
346.5911	0.1333
346.8005	0.1325
347.0099	0.1204
347.2193	0.1314
347.4286	0.1286
347.638	0.1431
347.8473	0.1371
348.0566	0.1304
348.2659	0.1444
348.4752	0.1323
348.6845	0.1224
348.8937	0.133
349.103	0.1415
349.3122	0.1308
349.5214	0.1341
349.7306	0.1475
349.9398	0.1403
350.149	0.141
350.3582	0.1417
350.5674	0.1451
350.7765	0.1394
350.9856	0.1346
351.1948	0.1479
351.4039	0.1228
351.613	0.1287
351.822	0.1462
352.0311	0.1455
352.2402	0.1456
352.4492	0.1477
352.6582	0.1546
352.8672	0.1436
353.0762	0.1412
353.2852	0.1427
353.4942	0.1368
353.7032	0.1544
353.9121	0.1458
354.1211	0.1594
354.33	0.1409
354.5389	0.1566
354.7478	0.1449
354.9567	0.1383
355.1655	0.1484
355.3744	0.1661
355.5833	0.1506
355.7921	0.176
356.0009	0.1597
356.2097	0.1593
356.4185	0.1619
356.6273	0.1589
356.8361	0.1656
357.0448	0.1413
357.2536	0.1399
357.4623	0.1483
357.671	0.1575
357.8797	0.1711
358.0884	0.1696
358.2971	0.1614
358.5057	0.1642
358.7144	0.1766
358.923	0.1663
359.1316	0.1703
359.3402	0.1627
359.5488	0.1656
359.7574	0.1584
359.966	0.1709
360.1746	0.1675
360.3831	0.1679
360.5916	0.1609
360.8002	0.1544
361.0087	0.177
361.2172	0.1712
361.4256	0.1779
361.6341	0.2016
361.8426	0.1816
362.051	0.1879
362.2594	0.1938
362.4678	0.1658
362.6762	0.197
362.8846	0.1942
363.093	0.1751
363.3014	0.1874
363.5097	0.1655
363.718	0.1724
363.9264	0.1917
364.1347	0.1776
364.343	0.1918
364.5513	0.1979
364.7595	0.1929
364.9678	0.1817
365.176	0.1893
365.3842	0.1855
365.5925	0.1901
365.8007	0.1909
366.0089	0.197
366.217	0.1939
366.4252	0.2054
366.6333	0.1992
366.8415	0.21
367.0496	0.196
367.2577	0.2062
367.4658	0.206
367.6739	0.2015
367.882	0.2234
368.09	0.214
368.2981	0.1974
368.5061	0.1938
368.7141	0.2073
368.9221	0.2137
369.1301	0.205
369.3381	0.2013
369.5461	0.1968
369.754	0.2093
369.962	0.2176
370.1699	0.2106
370.3778	0.2206
370.5857	0.205
370.7936	0.2179
371.0015	0.213
371.2093	0.2299
371.4172	0.2159
371.625	0.2018
371.8328	0.2127
372.0406	0.2176
372.2484	0.2218
372.4562	0.2274
372.664	0.2093
372.8717	0.2259
373.0795	0.2073
373.2872	0.2215
373.4949	0.2139
373.7026	0.2133
373.9103	0.2347
374.118	0.2236
374.3256	0.211
374.5333	0.2173
374.7409	0.2091
374.9485	0.2181
375.1561	0.2184
375.3637	0.2329
375.5713	0.2374
375.7789	0.2375
375.9864	0.2278
376.194	0.2076
376.4015	0.2373
376.609	0.2316
376.8165	0.2311
377.024	0.2289
377.2315	0.2175
377.4389	0.2343
377.6464	0.2379
377.8538	0.2265
378.0612	0.2522
378.2686	0.2489
378.476	0.2429
378.6834	0.2344
378.8908	0.2321
379.0981	0.2455
379.3055	0.2284
379.5128	0.2443
379.7201	0.2537
379.9274	0.2341
380.1347	0.2318
380.342	0.2652
380.5492	0.2329
380.7565	0.2287
380.9637	0.2242
381.1709	0.2473
381.3781	0.2469
381.5853	0.2488
381.7925	0.259
381.9997	0.2395
382.2068	0.2475
382.4139	0.2377
382.6211	0.235
382.8282	0.2423
383.0353	0.2468
383.2424	0.2361
383.4494	0.2403
383.6565	0.2347
383.8635	0.2374
384.0706	0.2422
384.2776	0.2506
384.4846	0.2356
384.6916	0.2584
384.8986	0.2521
385.1055	0.2635
385.3125	0.2388
385.5194	0.2385
385.7263	0.257
385.9333	0.2548
386.1402	0.2386
386.347	0.2476
386.5539	0.2268
386.7608	0.2501
386.9676	0.2333
387.1744	0.2472
387.3813	0.2362
387.5881	0.2528
387.7948	0.2461
388.0016	0.2443
388.2084	0.235
388.4151	0.2315
388.6219	0.2444
388.8286	0.2405
389.0353	0.249
389.242	0.2481
389.4487	0.2244
389.6553	0.2191
389.862	0.2235
390.0686	0.2205
390.2753	0.2457
390.4819	0.2382
390.6885	0.2206
390.8951	0.2309
391.1016	0.2347
391.3082	0.2376
391.5147	0.2351
391.7213	0.2184
391.9278	0.2343
392.1343	0.218
392.3408	0.2233
392.5473	0.2132
392.7537	0.2217
392.9602	0.2202
393.1666	0.2125
393.373	0.2327
393.5794	0.2308
393.7858	0.2318
393.9922	0.2092
394.1986	0.236
394.4049	0.2292
394.6113	0.2106
394.8176	0.213
395.0239	0.202
395.2302	0.2085
395.4365	0.2048
395.6428	0.2151
395.8491	0.209
396.0553	0.2028
396.2615	0.2047
396.4678	0.2116
396.674	0.1912
396.8802	0.1995
397.0863	0.2161
397.2925	0.1879
397.4987	0.2074
397.7048	0.1998
397.9109	0.2033
398.117	0.1886
398.3231	0.1864
398.5292	0.2175
398.7353	0.1936
398.9413	0.208
399.1474	0.214
399.3534	0.2094
399.5594	0.1886
399.7654	0.2098
399.9714	0.2113
400.1774	0.1987
400.3833	0.2057
400.5893	0.203
400.7952	0.2017
401.0011	0.2029
401.207	0.2118
401.4129	0.2137
401.6188	0.217
401.8247	0.2148
402.0305	0.2034
402.2364	0.2031
402.4422	0.2138
402.648	0.1905
402.8538	0.2209
403.0596	0.2008
403.2654	0.2188
403.4711	0.1967
403.6768	0.2324
403.8826	0.2038
404.0883	0.2254
404.294	0.2126
404.4997	0.204
404.7054	0.1987
404.911	0.1901
405.1167	0.206
405.3223	0.2193
405.5279	0.2141
405.7335	0.2068
405.9391	0.2209
406.1447	0.1996
406.3502	0.2209
406.5558	0.1919
406.7613	0.2119
406.9668	0.2173
407.1724	0.1987
407.3778	0.2117
407.5833	0.1952
407.7888	0.183
407.9942	0.2117
408.1997	0.1966
408.4051	0.2016
408.6105	0.1961
408.8159	0.2022
409.0213	0.1859
409.2267	0.21
409.432	0.1902
409.6374	0.2209
409.8427	0.1892
410.048	0.199
410.2533	0.2083
410.4586	0.2026
410.6639	0.1829
410.8691	0.1801
411.0744	0.2056
411.2796	0.1873
411.4848	0.1994
411.69	0.2013
411.8952	0.2211
412.1004	0.1842
412.3056	0.2011
412.5107	0.1923
412.7158	0.2108
412.921	0.1907
413.1261	0.1969
413.3312	0.1972
413.5362	0.1992
413.7413	0.1902
413.9464	0.1915
414.1514	0.1973
414.3564	0.1911
414.5614	0.1879
414.7664	0.2013
414.9714	0.1945
415.1764	0.2016
415.3813	0.1989
415.5863	0.1865
415.7912	0.2195
415.9961	0.1963
416.201	0.1927
416.4059	0.1948
416.6108	0.1727
416.8156	0.1902
417.0205	0.1827
417.2253	0.1838
417.4301	0.2034
417.6349	0.2086
417.8397	0.1677
418.0445	0.1868
418.2492	0.1916
418.454	0.1952
418.6587	0.1999
418.8634	0.1975
419.0681	0.1721
419.2728	0.1918
419.4775	0.174
419.6822	0.1678
419.8868	0.1567
420.0915	0.1982
420.2961	0.1729
420.5007	0.1607
420.7053	0.1817
420.9099	0.1904
421.1144	0.1701
421.319	0.1745
421.5235	0.1733
421.728	0.1831
421.9325	0.1794
422.137	0.1917
422.3415	0.1712
422.546	0.1741
422.7504	0.1622
422.9549	0.1762
423.1593	0.1812
423.3637	0.181
423.5681	0.1663
423.7725	0.163
423.9769	0.1749
424.1812	0.1607
424.3856	0.1662
424.5899	0.1587
424.7942	0.1717
424.9985	0.1675
425.2028	0.1783
425.4071	0.1816
425.6113	0.147
425.8156	0.1541
426.0198	0.1726
426.224	0.1459
426.4282	0.1524
426.6324	0.1655
426.8366	0.1753
427.0407	0.1482
427.2449	0.1612
427.449	0.1513
427.6531	0.1273
427.8572	0.1428
428.0613	0.164
428.2654	0.1513
428.4694	0.1515
428.6735	0.1372
428.8775	0.1679
429.0815	0.1696
429.2855	0.1443
429.4895	0.156
429.6935	0.1527
429.8975	0.1522
430.1014	0.1329
430.3053	0.1261
430.5093	0.1281
430.7132	0.1299
430.9171	0.1372
431.1209	0.1311
431.3248	0.1251
431.5286	0.1417
431.7325	0.1274
431.9363	0.1319
432.1401	0.1257
432.3439	0.1296
432.5477	0.1212
432.7514	0.123
432.9552	0.1241
433.1589	0.1157
433.3627	0.1052
433.5664	0.1212
433.7701	0.11
433.9737	0.1091
434.1774	0.1065
434.3811	0.0904
434.5847	0.1187
434.7883	0.1136
434.9919	0.0988
435.1955	0.1089
435.3991	0.095
435.6027	0.112
435.8062	0.1032
436.0098	0.0979
436.2133	0.0936
436.4168	0.0983
436.6203	0.0935
436.8238	0.1089
437.0272	0.0937
437.2307	0.1026
437.4341	0.1096
437.6375	0.1057
437.841	0.0827
438.0443	0.0875
438.2477	0.0908
438.4511	0.0822
438.6545	0.0934
438.8578	0.0865
439.0611	0.0856
439.2644	0.0931
439.4677	0.0776
439.671	0.0869
439.8743	0.0674
440.0775	0.0898
440.2808	0.0805
440.484	0.0621
440.6872	0.0558
440.8904	0.0759
441.0936	0.0902
441.2967	0.0611
441.4999	0.074
441.703	0.0617
441.9062	0.0673
442.1093	0.0594
442.3124	0.0814
442.5155	0.0526
442.7185	0.062
442.9216	0.0369
443.1246	0.0668
443.3276	0.0443
443.5307	0.0377
443.7337	0.0514
443.9366	0.0635
444.1396	0.0527
444.3426	0.0358
444.5455	0.0593
444.7484	0.0567
444.9513	0.0467
445.1542	0.0564
445.3571	0.0496
445.56	0.0497
445.7628	0.0377
445.9657	0.0327
446.1685	0.0559
446.3713	0.0416
446.5741	0.0381
446.7769	0.041
446.9797	0.0472
447.1824	0.0357
447.3852	0.0423
447.5879	0.0476
447.7906	0.0391
447.9933	0.0376
448.196	0.0239
448.3986	0.0298
448.6013	0.0387
448.8039	0.0185
449.0066	0.0343
449.2092	0.0292
449.4118	0.034
449.6143	0.0184
449.8169	0.0323
450.0195	0.0399
450.222	0.0164
450.4245	0.0119
450.627	0.0373
450.8295	0.0321
451.032	0.0227
451.2345	0.0322
451.4369	0.0344
451.6394	0.0268
451.8418	0.0068
452.0442	0.0278
452.2466	0.029
452.449	0.0137
452.6513	0.0214
452.8537	0.0122
453.056	0.0156
453.2583	0.0323
453.4607	0.0067
453.663	0.0131
453.8652	0.0173
454.0675	0.0192
454.2697	0.0052
454.472	0.0054
454.6742	0.0305
454.8764	0.0111
455.0786	0.0177
455.2808	0.0047
455.4829	0.0209
455.6851	0.0192
455.8872	0.022
456.0893	0.0168
456.2915	-0.0137
456.4935	0.0314
456.6956	0.0031
456.8977	0.0319
457.0997	0.0057
457.3018	0.0176
457.5038	0.012
457.7058	0.0102
457.9078	-0.0031
458.1098	0.0221
458.3117	0.0113
458.5137	0.0129
458.7156	0.0141
458.9175	0.0039
459.1194	0.0102
459.3213	-0.0018
459.5232	0.0067
459.725	-0.018
459.9269	-0.0099
460.1287	0.0021
460.3305	-0.0015
460.5323	-0.0082
460.7341	-0.0047
460.9359	0.0062
461.1376	0.009
461.3394	-0.0005
461.5411	0.0119
461.7428	0.0041
461.9445	0.0124
462.1462	0.0239
462.3479	0.009
462.5495	0.0081
462.7512	0.004
462.9528	0.0004
463.1544	-0.0041
463.356	0.001
463.5576	0.0039
463.7592	-0.0022
463.9607	0.0041
464.1623	0.0262
464.3638	0.0213
464.5653	-0.0181
464.7668	-0.0052
464.9683	0.0092
465.1697	0.0317
465.3712	-0.0099
465.5726	0.0084
465.7741	0.0083
465.9755	-0.0136
466.1769	-0.0012
466.3782	0.0094
466.5796	0
466.7809	0.0097
466.9823	-0.0079
467.1836	0.006
467.3849	0.0018
467.5862	0.0081
467.7875	-0.0083
467.9887	0.0224
468.19	-0.0048
468.3912	-0.0075
468.5924	0.0008
468.7936	-0.0024
468.9948	-0.0055
469.196	0.007
469.3972	-0.0066
469.5983	0.0101
469.7994	-0.0046
470.0006	-0.0056
470.2017	-0.0009
470.4027	-0.0051
470.6038	0
470.8049	0.0018
471.0059	-0.0031
471.2069	-0.02
471.408	0.0013
471.6089	0.0046
471.8099	-0.0082
472.0109	-0.0033
472.2119	-0.0105
472.4128	-0.008
472.6137	0.0018
472.8146	-0.0142
473.0155	-0.0009
473.2164	-0.0047
473.4173	0.0016
473.6181	-0.0051
473.819	-0.0024
474.0198	-0.0097
474.2206	-0.006
474.4214	-0.0068
474.6222	-0.0039
474.8229	-0.0088
475.0237	-0.0105
475.2244	-0.0116
475.4251	0.0004
475.6258	-0.011
475.8265	0.0026
476.0272	0.0003
476.2278	0.0045
476.4285	0.0031
476.6291	-0.0138
476.8297	-0.0095
477.0303	-0.0079
477.2309	0.0046
477.4315	-0.0164
477.632	0.0029
477.8326	-0.0041
478.0331	0.0041
478.2336	0.002
478.4341	-0.0053
478.6346	0.003
478.8351	-0.0021
479.0355	0.0029
479.236	-0.0092
479.4364	0.0074
479.6368	0.0038
479.8372	-0.0127
480.0376	-0.001
480.2379	-0.0178
480.4383	-0.0167
480.6386	0.0075
480.8389	-0.0011
481.0392	-0.0041
481.2395	-0.0188
481.4398	0.0066
481.6401	-0.0019
481.8403	-0.0027
482.0405	-0.0001
482.2408	0.0048
482.441	0.0054
482.6411	0.0077
482.8413	-0.0115
483.0415	-0.0072
483.2416	-0.0073
483.4417	-0.0071
483.6419	-0.0161
483.8419	-0.0106
484.042	0.0046
484.2421	-0.0004
484.4422	0.0006
484.6422	0.0036
484.8422	-0.0017
485.0422	-0.0101
485.2422	0.0075
485.4422	-0.0191
485.6422	-0.0002
485.8421	-0.0117
486.042	-0.0114
486.242	-0.0036
486.4419	-0.0112
486.6417	-0.007
486.8416	-0.0027
487.0415	-0.0043
487.2413	-0.0015
487.4411	-0.0002
487.641	-0.0148
487.8408	0.0088
488.0405	-0.001
488.2403	-0.0007
488.4401	0.0022
488.6398	-0.0009
488.8395	-0.0116
489.0392	0.0044
489.2389	-0.017
489.4386	-0.0098
489.6383	-0.0017
489.8379	-0.0017
490.0376	-0.0061
490.2372	-0.0173
490.4368	-0.0147
490.6364	-0.0126
490.836	-0.0077
491.0355	-0.0058
491.2351	-0.0038
491.4346	-0.0126
491.6341	-0.0219
491.8336	0.0003
492.0331	-0.0094
492.2326	0.002
492.432	0.009
492.6315	-0.0121
492.8309	-0.0161
493.0303	-0.0108
493.2297	-0.0116
493.4291	-0.0048
493.6284	0.0002
493.8278	-0.0051
494.0271	0.0051
494.2264	-0.0033
494.4257	-0.019
494.625	-0.0084
494.8243	-0.0152
495.0236	-0.0117
495.2228	-0.0101
495.422	0.0062
495.6213	-0.0062
495.8205	-0.0015
496.0196	0.0006
496.2188	0.0003
496.418	-0.0113
496.6171	-0.0054
496.8162	-0.0179
497.0153	0.008
497.2144	-0.0134
497.4135	-0.0042
497.6126	-0.0167
497.8116	-0.0145
498.0107	-0.0057
498.2097	-0.0084
498.4087	0.0002
498.6077	-0.0092
498.8067	-0.0131
499.0056	0.0013
499.2046	-0.0095
499.4035	-0.0124
499.6024	-0.0024
499.8013	0.0018
500.0002	-0.0027
500.199	-0.0051
500.3979	-0.0034
500.5967	-0.0223
500.7956	0.0021
500.9944	-0.0004
501.1932	-0.0066
501.3919	-0.0116
501.5907	-0.0082
501.7895	-0.0082
501.9882	-0.0178
502.1869	-0.01
502.3856	-0.0064
502.5843	-0.0111
502.783	-0.0168
502.9816	-0.0116
503.1803	-0.0119
503.3789	-0.0118
503.5775	0.0008
503.7761	-0.0082
503.9747	-0.0075
504.1732	-0.0041
504.3718	-0.009
504.5703	-0.0045
504.7689	-0.0076
504.9674	-0.0069
505.1658	-0.0103
505.3643	-0.0087
505.5628	-0.014
505.7612	-0.0053
505.9597	0.0072
506.1581	-0.0136
506.3565	-0.0045
506.5549	-0.0051
506.7532	-0.0043
506.9516	-0.0042
507.1499	0.0034
507.3482	-0.0163
507.5465	-0.0088
507.7448	-0.007
507.9431	-0.0023
508.1414	-0.0012
508.3396	-0.0158
508.5379	0.0048
508.7361	-0.0073
508.9343	-0.0005
509.1325	-0.0008
509.3306	-0.0063
509.5288	-0.0084
509.7269	0.0048
509.9251	-0.0128
510.1232	-0.0076
510.3213	0.0013
510.5193	0.002
510.7174	-0.0088
510.9154	-0.0036
511.1135	-0.0091
511.3115	-0.0133
511.5095	0.0045
511.7075	-0.0069
511.9055	-0.0037
512.1034	-0.0059
512.3014	-0.0013
512.4993	-0.0044
512.6972	-0.0146
512.8951	-0.0123
513.093	-0.0005
513.2908	0.0028
513.4887	-0.0007
513.6865	-0.0072
513.8844	-0.0062
514.0822	-0.0061
514.2799	-0.0178
514.4777	-0.0162
514.6755	-0.0107
514.8732	-0.001
515.0709	-0.0001
515.2687	-0.0098
515.4664	-0.0147
515.664	0.0003
515.8617	-0.0072
516.0594	-0.0189
516.257	-0.0015
516.4546	-0.0188
516.6522	0.0059
516.8498	-0.0049
517.0474	0.0033
517.2449	0.0117
517.4425	-0.0098
517.64	-0.0087
517.8375	-0.0023
518.035	-0.013
518.2325	-0.0117
518.43	-0.0007
518.6274	-0.0121
518.8249	-0.014
519.0223	-0.0047
519.2197	-0.0082
519.4171	-0.0034
519.6145	-0.0074
519.8118	-0.0037
520.0092	-0.0106
520.2065	-0.011
520.4038	-0.0145
520.6011	0.0015
520.7984	-0.0053
520.9956	-0.0042
521.1929	-0.0105
521.3901	-0.0051
521.5874	-0.0035
521.7846	-0.0028
521.9818	-0.0133
522.1789	-0.0138
522.3761	-0.0121
522.5732	0.0001
522.7704	-0.0033
522.9675	-0.008
523.1646	-0.0073
523.3617	-0.0014
523.5587	0.0026
523.7558	-0.0015
523.9528	-0.013
524.1498	-0.0025
524.3468	-0.0065
524.5438	-0.0077
524.7408	-0.0015
524.9378	0.0046
525.1347	-0.0075
525.3316	0.0058
525.5285	-0.0034
525.7254	-0.0109
525.9223	-0.0012
526.1192	-0.0065
526.316	0.0031
526.5129	-0.0026
526.7097	-0.0032
526.9065	-0.0073
527.1033	-0.0123
527.3	0.0092
527.4968	-0.0101
527.6935	-0.0029
527.8903	-0.0174
528.087	-0.0014
528.2837	-0.0077
528.4804	0.0002
528.677	-0.0192
528.8737	0.0052
529.0703	-0.0062
529.2669	-0.0114
529.4635	-0.0034
529.6601	-0.0071
529.8567	-0.0086
530.0532	-0.0148
530.2498	-0.0065
530.4463	0.0033
530.6428	-0.0055
530.8393	0.0027
531.0358	-0.0004
531.2322	-0.005
531.4287	-0.0117
531.6251	-0.0108
531.8215	0.0099
532.0179	0.0087
532.2143	0.0003
532.4107	0.0009
532.607	-0.0066
532.8034	0.0072
532.9997	-0.0052
533.196	0.0062
533.3923	-0.0086
533.5886	0.0008
533.7848	-0.0029
533.9811	-0.0019
534.1773	-0.0067
534.3735	0.0046
534.5697	-0.002
534.7659	-0.0026
534.9621	0.002
535.1582	-0.0155
535.3544	-0.015
535.5505	-0.005
535.7466	-0.0065
535.9427	-0.0079
536.1387	-0.0055
536.3348	-0.0014
536.5308	-0.0025
536.7269	-0.0048
536.9229	-0.0002
537.1189	0.0059
537.3148	-0.005
537.5108	-0.0106
537.7068	0.0011
537.9027	-0.0016
538.0986	-0.0071
538.2945	-0.0071
538.4904	-0.0131
538.6863	-0.0066
538.8821	-0.0117
539.078	-0.0069
539.2738	-0.004
539.4696	-0.0158
539.6654	0.0038
539.8611	0.0069
540.0569	0.001
540.2526	-0.0066
540.4484	-0.0056
540.6441	0.0157
540.8398	-0.0001
541.0355	-0.0028
541.2311	-0.0016
541.4268	-0.0076
541.6224	0.0056
541.818	-0.0073
542.0136	-0.0105
542.2092	-0.0063
542.4048	0.0004
542.6003	0.0055
542.7959	-0.0042
542.9914	-0.006
543.1869	0.0032
543.3824	-0.0023
543.5779	-0.0112
543.7734	-0.0088
543.9688	-0.0086
544.1642	0.0022
544.3596	0.0049
544.555	-0.0081
544.7504	-0.0015
544.9458	-0.0072
545.1411	-0.0079
545.3365	-0.0069
545.5318	-0.0086
545.7271	-0.0041
545.9224	0.0006
546.1177	0.0014
546.3129	-0.0017
546.5081	0.001
546.7034	-0.0002
546.8986	0.0018
547.0938	-0.0068
547.289	-0.0019
547.4841	-0.0037
547.6793	0.0036
547.8744	-0.0081
548.0695	-0.0019
548.2646	-0.0038
548.4597	-0.0035
548.6548	-0.0059
548.8498	-0.0009
549.0448	0.0101
549.2399	-0.0022
549.4349	0.0077
549.6298	-0.0034
549.8248	0.0045
550.0198	0.0007
550.2147	-0.0018
550.4096	-0.0043
550.6045	-0.0024
550.7994	-0.0024
550.9943	-0.0023
551.1892	-0.0084
551.384	0.0033
551.5788	-0.007
551.7737	0.001
551.9685	-0.0025
552.1632	0.0057
552.358	0.0005
552.5528	0.0028
552.7475	-0.0017
552.9422	-0.0004
553.1369	0
553.3316	0.0058
553.5263	-0.0093
553.7209	0.0057
553.9156	-0.0036
554.1102	0.0033
554.3048	-0.0001
554.4994	0.0109
554.694	0.0027
554.8885	0.0041
555.0831	-0.0034
555.2776	-0.001
555.4721	-0.0054
555.6666	-0.0048
555.8611	0.0075
556.0555	0.0025
556.25	0.0013
556.4444	-0.0095
556.6388	0.0029
556.8332	0.0027
557.0276	0.0062
557.222	-0.0026
557.4163	-0.0059
557.6107	-0.0122
557.805	0.0053
557.9993	-0.0039
558.1936	0.0078
558.3879	0.0034
558.5821	0.005
558.7764	0.0012
558.9706	0.0065
559.1648	0.0084
559.359	-0.0077
559.5532	-0.007
559.7473	-0.003
559.9415	0.0037
560.1356	-0.0004
560.3297	-0.0124
560.5238	-0.0087
560.7179	-0.0026
560.9119	0.0037
561.106	-0.0037
561.3	-0.0077
561.494	-0.0082
561.688	-0.0004
561.882	-0.0067
562.076	-0.0051
562.2699	0.0091
562.4639	0.0011
562.6578	-0.0081
562.8517	-0.0011
563.0456	0.0035
563.2395	0
563.4333	-0.0075
563.6272	0.0075
563.821	-0.0101
564.0148	0.008
564.2086	-0.006
564.4024	0.0013
564.5961	0.0027
564.7899	0.0064
564.9836	0.0001
565.1773	0.0029
565.371	0.0058
565.5647	0.0005
565.7584	-0.0004
565.952	0.0067
566.1456	0.0061
566.3393	-0.0048
566.5329	-0.004
566.7264	-0.01
566.92	-0.0056
567.1136	0.0066
567.3071	-0.0048
567.5006	-0.0017
567.6941	0.0046
567.8876	0.0052
568.0811	-0.0032
568.2745	-0.0009
568.468	0.0058
568.6614	0.0023
568.8548	0.0013
569.0482	-0.002
569.2416	-0.0029
569.4349	0.0043
569.6283	0.0045
569.8216	0.0065
570.0149	-0.003
570.2082	0.0104
570.4015	0.0065
570.5947	0.0021
570.788	0.0051
570.9812	0.0072
571.1744	0.0052
571.3676	-0.0025
571.5608	0.002
571.754	-0.0012
571.9471	0.0018
572.1402	0.0015
572.3333	-0.0065
572.5264	-0.0059
572.7195	0.0043
572.9126	0.0107
573.1057	0.0028
573.2987	0.0003
573.4917	0.0027
573.6847	-0.0058
573.8777	0.0061
574.0707	0.0079
574.2636	0.003
574.4566	-0.0034
574.6495	0.0087
574.8424	-0.0008
575.0353	-0.0031
575.2281	0.0102
575.421	0.0034
575.6138	0.003
575.8067	-0.001
575.9995	-0.0029
576.1923	0.0035
576.385	0.0055
576.5778	0.0013
576.7706	-0.0002
576.9633	-0.0002
577.156	0.005
577.3487	0.0058
577.5414	-0.0001
577.734	0.0001
577.9267	0.0042
578.1193	-0.0043
578.3119	0.0034
578.5045	0.0061
578.6971	0.0056
578.8897	0.0082
579.0822	0.0059
579.2747	0.0014
579.4673	0.0011
579.6598	-0.0038
579.8522	0.0032
580.0447	0.0027
580.2372	-0.0037
580.4296	0.0032
580.622	0.0017
580.8144	0.0075
581.0068	0.0054
581.1992	-0.0027
581.3915	-0.0049
581.5839	-0.0044
581.7762	-0.0079
581.9685	-0.0062
582.1608	0.001
582.353	0
582.5453	0.004
582.7375	0.0081
582.9298	0.0071
583.122	0.0005
583.3142	-0.0038
583.5063	0.0018
583.6985	0.0019
583.8906	-0.0033
584.0827	0.0052
584.2749	0.0036
584.4669	0.011
584.659	-0.001
584.8511	-0.0014
585.0431	0.0019
585.2352	0.0051
585.4272	0
585.6192	0.006
585.8111	0.0015
586.0031	0.007
586.195	-0.0002
586.387	0.0092
586.5789	0.0052
586.7708	0.0054
586.9627	0.0033
587.1545	-0.0054
587.3464	0.0044
587.5382	0.0002
587.73	0.0002
587.9218	0.0046
588.1136	-0.002
588.3053	0.0104
588.4971	-0.0038
588.6888	-0.0032
588.8805	0.0012
589.0722	0.0077
589.2639	0.004
589.4556	-0.0029
589.6472	-0.0013
589.8389	-0.0047
590.0305	-0.0105
590.2221	0.009
590.4137	-0.0012
590.6052	0.0016
590.7968	-0.001
590.9883	0.0045
591.1798	0.0056
591.3713	0.0005
591.5628	0.0027
591.7543	0.0034
591.9458	0.0017
592.1372	0.0121
592.3286	0.0081
592.52	0.0072
592.7114	-0.0001
592.9028	0.0053
593.0941	0.0017
593.2855	0.0028
593.4768	-0.0048
593.6681	0.0014
593.8594	0.0001
594.0506	0.0036
594.2419	0.0113
594.4331	0.006
594.6244	0.0089
594.8156	-0.0012
595.0067	0.0084
595.1979	0.0022
595.3891	0.0008
595.5802	0.0042
595.7713	-0.0037
595.9624	-0.001
596.1535	0.0048
596.3446	-0.0005
596.5357	-0.0023
596.7267	0.0072
596.9177	0.0019
597.1087	-0.003
597.2997	0.0014
597.4907	0.0115
597.6817	-0.0019
597.8726	0.0036
598.0635	-0.0015
598.2544	0.0075
598.4453	0.0013
598.6362	0.0053
598.827	0.0013
599.0179	0.009
599.2087	0.0061
599.3995	0.0027
599.5903	-0.0018
599.7811	0.0048
599.9718	0.0039
600.1626	-0.0062
600.3533	0.0026
600.544	0.0025
600.7347	-0.0002
600.9254	-0.0023
601.116	-0.0067
601.3067	0.0021
601.4973	0.0003
601.6879	0.0011
601.8785	-0.0021
602.0691	0.0126
602.2596	0.0058
602.4502	0.0062
602.6407	0.0056
602.8312	0.0012
603.0217	-0.0049
603.2122	0.0027
603.4027	0.0004
603.5931	-0.0054
603.7835	-0.0041
603.9739	0.0012
604.1643	0.0015
604.3547	-0.0067
604.5451	0.008
604.7354	0.0023
604.9257	0.0038
605.116	-0.0038
605.3063	0.0031
605.4966	0.0073
605.6869	0.0101
605.8771	0.0122
606.0673	0.0038
606.2575	0.003
606.4477	0.0037
606.6379	0.0014
606.8281	0.0059
607.0182	0.0046
607.2083	0.0118
607.3985	-0.0038
607.5885	0.0021
607.7786	-0.0019
607.9687	-0.0063
608.1587	0.004
608.3488	0.0016
608.5388	-0.0007
608.7288	-0.0039
608.9187	-0.0035
609.1087	-0.0032
609.2986	-0.0028
609.4886	0.0018
609.6785	0.0031
609.8684	0.0035
610.0582	0.0017
610.2481	0.0021
610.4379	0.0045
610.6278	-0.0007
610.8176	-0.0018
611.0074	0.0002
611.1971	-0.0066
611.3869	0.0093
611.5766	-0.0025
611.7664	0.0132
611.9561	0.0081
612.1458	0.0045
612.3354	-0.0005
612.5251	0.0038
612.7147	0.0067
612.9044	0.0146
613.094	0.0009
613.2836	0.0047
613.4731	0.0007
613.6627	-0.0031
613.8522	0.0032
614.0417	0.0024
614.2313	-0.0075
614.4207	-0.0032
614.6102	0.005
614.7997	-0.0007
614.9891	-0.0036
615.1785	0.0027
615.3679	-0.0027
615.5573	0.0087
615.7467	-0.005
615.9361	-0.0048
616.1254	-0.0003
616.3147	0.0005
616.504	-0.0021
616.6933	0.0016
616.8826	0.0042
617.0718	0.0009
617.2611	0.0045
617.4503	0.0047
617.6395	0.001
617.8287	-0.0044
618.0179	0.0002
618.207	0.0089
618.3961	0.0029
618.5853	0.0024
618.7744	0.0065
618.9634	0.0084
619.1525	0.0071
619.3416	0.0039
619.5306	0.0089
619.7196	0.0081
619.9086	0.0036
620.0976	0.0054
620.2866	0.011
620.4755	0.0055
620.6645	0.0055
620.8534	0.0144
621.0423	0.0021
621.2312	0.0118
621.42	0.0041
621.6089	0.0077
621.7977	0.0022
621.9865	-0.0039
622.1753	0.0124
622.3641	0.0001
622.5529	0.009
622.7416	0.0091
622.9303	0.007
623.1191	0.0111
623.3078	-0.0017
623.4964	0.0029
623.6851	-0.0016
623.8737	0.0012
624.0624	0.0084
624.251	0.006
624.4396	0.0033
624.6282	0.0029
624.8167	0.0064
625.0053	0.0041
625.1938	0.0028
625.3823	0.0121
625.5708	0.0004
625.7593	0.0031
625.9477	-0.0004
626.1362	0.0015
626.3246	0.0038
626.513	0.0112
626.7014	0.0045
626.8898	0.0017
627.0781	-0.0023
627.2665	-0.0019
627.4548	0.0092
627.6431	0.0008
627.8314	0.0057
628.0197	0.0047
628.2079	0.0004
628.3962	-0.0083
628.5844	0.005
628.7726	0.0045
628.9608	0.0064
629.1489	0.0028
629.3371	0.0092
629.5252	0.006
629.7134	0.0065
629.9015	-0.0044
630.0895	0.0052
630.2776	0.0016
630.4657	-0.0008
630.6537	0.0072
630.8417	0.0042
631.0297	-0.003
631.2177	-0.0023
631.4057	-0.0116
631.5936	-0.0003
631.7815	0.0006
631.9695	0.0021
632.1574	0.0041
632.3452	0.017
632.5331	0.0094
632.7209	0.0056
632.9088	0.0105
633.0966	0.0089
633.2844	-0.0012
633.4722	0.006
633.6599	0.005
633.8477	0.0052
634.0354	0.0012
634.2231	-0.0019
634.4108	0.0024
634.5985	0.0091
634.7861	0.0058
634.9738	0.0017
635.1614	0.0054
635.349	0.0044
635.5366	-0.0019
635.7242	0.0029
635.9117	0.0055
636.0993	-0.0062
636.2868	0.0025
636.4743	0.0009
636.6618	0.0129
636.8492	0.0017
637.0367	0.0055
637.2241	0.0051
637.4115	0.0042
637.5989	0.0033
637.7863	0.0018
637.9737	0.0053
638.161	0.0006
638.3484	-0.0021
638.5357	0.0094
638.723	-0.0011
638.9103	0.0094
639.0975	0.0025
639.2848	0.0044
639.472	0.0019
639.6592	-0.0026
639.8464	0.0101
640.0336	0.0078
640.2208	-0.0035
640.4079	-0.0032
640.595	-0.0078
640.7821	0.009
640.9692	0.0002
641.1563	0.0036
641.3434	0.01
641.5304	0.0053
641.7174	0.0005
641.9044	0.0027
642.0914	0.0038
642.2784	0.0019
642.4653	0.0119
642.6523	0.0014
642.8392	-0
643.0261	0.0031
643.213	0.0066
643.3999	-0.0048
643.5867	-0.0018
643.7735	0.0053
643.9604	-0.0024
644.1472	-0.0007
644.3339	0.0032
644.5207	0.009
644.7075	-0.0029
644.8942	0.0059
645.0809	0.0139
645.2676	0.0101
645.4543	0.0072
645.6409	0.0083
645.8276	0.0069
646.0142	0.0088
646.2008	-0.0003
646.3874	0.0023
646.574	0.0032
646.7605	-0.0032
646.9471	-0.0066
647.1336	0.0036
647.3201	0.0103
647.5066	-0.002
647.6931	0.0029
647.8795	0.0018
648.0659	0.0092
648.2524	0.0071
648.4388	-0.009
648.6252	0.0001
648.8115	0.001
648.9979	0.0007
649.1842	0.0047
649.3705	0.0044
649.5568	-0.0022
649.7431	0.0081
649.9294	0.0069
650.1156	0.0117
650.3018	0.0025
650.488	0.0083
650.6742	0.0155
650.8604	0.0051
651.0466	-0.0022
651.2327	0.0085
651.4188	0.0077
651.6049	-0.0025
651.791	0.0038
651.9771	0.0126
652.1632	0.0059
652.3492	0.0088
652.5352	0.0014
652.7212	0.0007
652.9072	0.0131
653.0932	0.0011
653.2791	0.0015
653.465	0.0029
653.651	-0.0054
653.8369	-0.0041
654.0227	0.0035
654.2086	0.0049
654.3944	0.0066
654.5803	0.0079
654.7661	0.0062
654.9519	0.0023
655.1377	-0.0017
655.3234	0.0028
655.5092	-0.0041
655.6949	-0.0038
655.8806	-0.0008
656.0663	-0.0029
656.2519	0.0008
656.4376	0.0013
656.6232	0.0038
656.8088	0.0003
656.9945	-0.0027
657.18	0.0011
657.3656	0.0045
657.5511	0.0055
657.7367	-0.002
657.9222	0.0056
658.1077	-0.0029
658.2932	-0.0004
658.4786	-0.0111
658.6641	0.0011
658.8495	0.008
659.0349	0.001
659.2203	0.0083
659.4057	0.0037
659.591	0.0076
659.7764	-0.0004
659.9617	0.0104
660.147	-0.0014
660.3323	0.0085
660.5176	0.006
660.7028	0.0028
660.888	0.0105
661.0733	-0.0034
661.2585	0.0031
661.4436	0.0019
661.6288	-0.0001
661.8139	0.0019
661.9991	0.0041
662.1842	0.0022
662.3693	0.0049
662.5544	0.0017
662.7394	0.0048
662.9245	0.0029
663.1095	0.0033
663.2945	0.0096
663.4795	0.0026
663.6644	0.0069
663.8494	0.0023
664.0343	-0.0013
664.2193	-0.0003
664.4042	0.0043
664.589	0.0023
664.7739	0.0031
664.9587	-0.011
665.1436	-0.0026
665.3284	0.005
665.5132	0.0039
665.698	0.0072
665.8827	0.005
666.0675	0.0113
666.2522	-0.0036
666.4369	0.0078
666.6216	0.0105
666.8063	0.0098
666.9909	0.0057
667.1756	0.0016
667.3602	0.0051
667.5448	0.0076
667.7294	0.0046
667.9139	0.0084
668.0985	0.0182
668.283	-0.0024
668.4675	0.0049
668.652	0.0035
668.8365	0.0021
669.0209	0.011
669.2054	0.0137
669.3898	0.0057
669.5742	0.009
669.7586	0.0064
669.943	0.0119
670.1273	0.0098
670.3117	0.0066
670.496	0.0111
670.6803	0.0125
670.8646	0.0044
671.0488	0.0103
671.2331	0.0133
671.4173	0.0041
671.6015	-0.0002
671.7857	0.0049
671.9699	0.0112
672.1541	0.0049
672.3382	0.0062
672.5223	0.0064
672.7064	0.0045
672.8905	0.0163
673.0746	0.0099
673.2587	0.0019
673.4427	0.0062
673.6267	0.0095
673.8107	0.0096
673.9947	0.0101
674.1787	0.0053
674.3626	-0.0023
674.5465	0.0095
674.7304	0.0067
674.9143	0.0081
675.0982	0.0135
675.2821	-0.0052
675.4659	0.0064
675.6497	0.0041
675.8335	0.0029
676.0173	0.0058
676.2011	0.0074
676.3849	0.0003
676.5686	-0.0001
676.7523	0.0049
676.936	-0.003
677.1197	0.0005
677.3034	0.0033
677.487	0.0035
677.6706	0.0013
677.8542	-0.0027
678.0378	0.0011
678.2214	-0.0014
678.405	-0.0004
678.5885	-0.0123
678.772	0.0013
678.9555	-0.0093
679.139	-0.0078
679.3225	0.0027
679.5059	-0.0051
679.6894	0.0008
679.8728	0.0035
680.0562	-0.0083
680.2395	-0.0055
680.4229	-0.0014
680.6062	0.0062
680.7896	0.0016
680.9729	-0.0051
681.1562	0.0046
681.3394	0.0112
681.5227	-0.0038
681.7059	0.0008
681.8891	-0.0015
682.0723	0.011
682.2555	0.0066
682.4387	0.0012
682.6218	-0.0033
682.805	0.0034
682.9881	0.0048
683.1712	-0.0037
683.3542	-0.0065
683.5373	0.0002
683.7203	-0.0076
683.9034	-0.0023
684.0864	-0.0094
684.2694	-0.0054
684.4523	0.0099
684.6353	-0.0093
684.8182	0.0039
685.0011	-0.0058
685.184	0.0051
685.3669	-0.0029
685.5498	0.0064
685.7326	0.0018
685.9154	-0.011
686.0982	0.0035
686.281	0.0145
686.4638	0.0037
686.6465	0.0034
686.8293	0.0038
687.012	0.0037
687.1947	-0.0066
687.3774	0.0025
687.56	0.0061
687.7427	0.0076
687.9253	0.002
688.1079	-0.0029
688.2905	0.016
688.4731	0.0043
688.6556	-0.0027
688.8382	-0.0009
689.0207	0.0087
689.2032	-0.0055
689.3857	0.004
689.5681	0.0013
689.7506	-0.0025
689.933	0.0061
690.1154	0.0007
690.2978	0.0031
690.4802	0.0035
690.6626	-0.009
690.8449	-0.0013
691.0272	0.0109
691.2095	-0.003
691.3918	-0.0015
691.5741	0.0094
691.7563	0.005
691.9386	0.0027
692.1208	0.0052
692.303	-0.0017
692.4852	-0.0058
692.6673	0.0029
692.8495	0.0006
693.0316	-0.0032
693.2137	0.003
693.3958	0.0045
693.5778	0.0072
693.7599	0.0075
693.9419	0.0032
694.1239	0.006
694.3059	-0.0047
694.4879	0.0033
694.6699	0.0063
694.8518	0.0055
695.0337	0.0037
695.2157	0.0134
695.3975	0.0001
695.5794	0.0103
695.7613	0.0031
695.9431	-0.0014
696.1249	0.0033
696.3067	0.0024
696.4885	0.0146
696.6703	-0.0033
696.852	-0.0021
697.0337	0.0026
697.2154	0.0042
697.3971	-0.0045
697.5788	0.0091
697.7605	-0.0016
697.9421	0.0107
698.1237	0.0016
698.3053	0.0081
698.4869	-0.0003
698.6685	0.002
698.85	0.0038
699.0315	0.0124
699.213	0.0066
699.3945	0.0117
699.576	0.0047
699.7575	0.0024
699.9389	0.0073
700.1203	0.0042
700.3017	0.0014
700.4831	-0.0058
700.6645	0.0018
700.8458	0.0137
701.0271	0.0022
701.2084	0.0048
701.3897	0.007
701.571	0.0017
701.7523	0.0025
701.9335	0.0055
702.1147	0.0068
702.2959	0.0017
702.4771	0.0091
702.6583	0.0001
702.8394	-0.0005
703.0205	0.0032
703.2016	-0.006
703.3827	0.0007
703.5638	0.0092
703.7449	-0.0003
703.9259	0.01
704.1069	-0.005
704.2879	0.0026
704.4689	0.0076
704.6499	-0.0018
704.8308	-0.0026
705.0117	-0.0001
705.1927	-0.01
705.3735	-0.0031
705.5544	-0.0055
705.7353	-0.0002
705.9161	-0.0031
706.0969	-0.0022
706.2777	0.0015
706.4585	0.0022
706.6393	0.0045
706.82	0.0043
707.0007	0.0054
707.1815	0.0053
707.3621	0.0191
707.5428	0.0035
707.7235	0.0075
707.9041	0.0121
708.0847	-0.004
708.2653	-0.0007
708.4459	-0.0094
708.6265	-0.0001
708.807	0.0044
708.9875	-0.0008
709.168	-0.0025
709.3485	-0.004
709.529	-0.005
709.7095	-0.0098
709.8899	0.0077
710.0703	-0.015
710.2507	0.0069
710.4311	0.0024
710.6115	-0.0077
710.7918	-0.0132
710.9721	0.0024
711.1524	-0.0129
711.3327	-0.0036
711.513	-0.0026
711.6932	-0.001
711.8735	0.0098
712.0537	0.0071
712.2339	-0.0018
712.4141	-0.0059
712.5942	0.0012
712.7744	0.0084
712.9545	-0.0126
713.1346	-0.0049
713.3147	0.0003
713.4947	-0.0023
713.6748	0.0044
713.8548	0.0013
714.0348	-0.0069
714.2148	-0.0055
714.3948	0.0075
714.5748	-0.0015
714.7547	0.0025
714.9346	0.0073
715.1145	-0.0003
715.2944	-0.0049
715.4743	-0.0008
715.6541	0.0004
715.834	0.0032
716.0138	0.0022
716.1936	-0.0073
716.3733	-0.0013
716.5531	0.0059
716.7328	-0.0041
716.9126	-0.0022
717.0923	0.0017
717.2719	-0.0015
717.4516	0.0125
717.6312	0.0034
717.8109	-0.0043
717.9905	0.0018
718.1701	0.0078
718.3496	-0.0108
718.5292	-0.0014
718.7087	0.0015
718.8882	-0.0035
719.0677	0.0034
719.2472	-0.0063
719.4267	0.0006
719.6061	0.0078
719.7856	0.0074
719.965	0.0068
720.1443	0.0015
720.3237	0.0125
720.5031	0.0058
720.6824	0.0107
720.8617	-0.0048
721.041	0.0048
721.2203	0.0058
721.3995	0.0059
721.5788	-0.0008
721.758	0.0114
721.9372	-0.007
722.1164	-0.0004
722.2956	0.0087
722.4747	-0.0019
722.6538	0.0038
722.8329	0.018
723.012	0.0134
723.1911	0.0088
723.3702	0.0095
723.5492	0.0086
723.7282	0.0033
723.9072	0.0041
724.0862	-0.0043
724.2652	0.0065
724.4441	0.0069
724.623	0.0058
724.8019	0.0001
724.9808	0.0007
725.1597	-0.0073
725.3385	-0.0002
725.5174	0.002
725.6962	0.0013
725.875	0.0042
726.0538	-0.0007
726.2325	-0.0015
726.4112	0.0021
726.59	-0.0025
726.7687	-0.0021
726.9474	-0.0003
727.126	-0.0066
727.3047	-0.0044
727.4833	-0.0021
727.6619	-0.0065
727.8405	-0.0108
728.0191	-0.0099
728.1976	-0.0011
728.3762	-0.0004
728.5547	0.0005
728.7332	-0.0026
728.9116	-0.0014
729.0901	0.001
729.2686	0.0024
729.447	0.0065
729.6254	0.0017
729.8038	0.0025
729.9821	-0.0059
730.1605	-0.013
730.3388	-0.0003
730.5171	0.0066
730.6954	-0.0017
730.8737	0.0064
731.0519	0.0053
731.2302	0.0025
731.4084	0.0134
731.5866	0.0083
731.7648	-0.0012
731.9429	0.0042
732.1211	-0.0035
732.2992	-0.0014
732.4773	-0.0011
732.6554	-0.0031
732.8335	0.0098
733.0115	0.0032
733.1896	0.0115
733.3676	-0.0067
733.5456	0.0057
733.7235	0.0143
733.9015	0.002
734.0794	0.011
734.2574	-0.0038
734.4353	0.0075
734.6131	0.0111
734.791	0.0128
734.9689	0.0005
735.1467	0.0101
735.3245	-0.0004
735.5023	0.0054
735.68	0.0101
735.8578	0.0104
736.0355	-0.0103
736.2132	-0.0029
736.3909	0.0018
736.5686	-0.0061
736.7463	0.0078
736.9239	-0.0026
737.1015	0.0045
737.2791	0.0126
737.4567	-0.0011
737.6343	0.0009
737.8118	0.0021
737.9894	0.0048
738.1669	-0.0049
738.3444	0.0007
738.5218	0.008
738.6993	0.0034
738.8767	-0.0106
739.0541	0.0097
739.2315	-0.0071
739.4089	0.01
739.5863	0.0048
739.7636	-0.0003
739.9409	0.0036
740.1182	0.0052
740.2955	0.0043
740.4728	0.0064
740.65	0.0005
740.8272	0.0004
741.0044	-0.0012
741.1816	-0.0049
741.3588	-0.0046
741.5359	-0.0067
741.7131	-0.0107
741.8902	0.0034
742.0673	-0.0044
742.2444	-0.0088
742.4214	-0.0043
742.5985	-0.0062
742.7755	-0.0074
742.9525	-0.0116
743.1295	-0.0012
743.3064	0.0054
743.4834	0.003
743.6603	-0.0004
743.8372	-0.0011
744.0141	0.0077
744.191	-0.0018
744.3678	-0.0052
744.5446	0.0077
744.7215	0.0016
744.8982	-0.0011
745.075	-0.0124
745.2518	-0.0007
745.4285	0.0023
745.6052	-0.0068
745.7819	-0.0055
745.9586	-0.0059
746.1353	-0.0015
746.3119	-0.0012
746.4885	-0.0041
746.6651	-0.0003
746.8417	0.0018
747.0183	0.0035
747.1948	-0.0049
747.3714	-0.0072
747.5479	-0.0001
747.7244	-0.0088
747.9008	-0.0011
748.0773	0.0085
748.2537	-0.0007
748.4301	-0.0049
748.6065	0.0072
748.7829	0.0125
748.9593	-0.0028
749.1356	0.0085
749.3119	0.006
749.4882	-0.0075
749.6645	0.0134
749.8408	-0.0065
750.017	-0.0058
750.1933	0.0073
750.3695	-0.0051
750.5457	0.0065
750.7218	0.0007
750.898	0.0081
751.0741	-0.0041
751.2502	-0.0019
751.4263	-0.0033
751.6024	-0.0063
751.7784	0.0026
751.9545	-0.0036
752.1305	0.0013
752.3065	-0.0004
752.4825	0.0075
752.6584	-0.0015
752.8344	-0.0019
753.0103	-0.0061
753.1862	0.0017
753.3621	0.0017
753.5379	0.0048
753.7138	0.0068
753.8896	-0.0055
754.0654	0.0061
754.2412	0.0072
754.417	-0.0002
754.5927	0.0023
754.7685	-0.0089
754.9442	0.0051
755.1199	0.0114
755.2956	-0.0089
755.4712	0.0153
755.6469	0.0062
755.8225	-0.0054
755.9981	-0.0014
756.1736	0
756.3492	-0.0018
756.5248	-0.0117
756.7003	-0.0061
756.8758	0.0016
757.0513	-0.008
757.2267	-0.0047
757.4022	0.0029
757.5776	-0.0058
757.753	0.0017
757.9284	-0.0014
758.1038	0.004
758.2791	0.0111
758.4545	-0.0089
758.6298	0.0018
758.8051	-0.0028
758.9803	-0.0005
759.1556	-0.0079
759.3308	-0.0096
759.506	0.0084
759.6812	0.002
759.8564	0.0037
760.0316	-0.0034
760.2067	0.005
760.3819	0.0102
760.557	0.0158
760.732	0.0063
760.9071	-0.0035
761.0821	0.0045
761.2572	0.0164
761.4322	-0.0045
761.6072	-0.0089
761.7821	-0.0037
761.9571	0.0103
762.132	0.002
762.3069	-0.0184
762.4818	-0.0009
762.6567	-0.0002
762.8316	-0.0026
763.0064	-0.0056
763.1812	0.0058
763.356	-0.0141
763.5308	-0.0067
763.7055	0.0041
763.8803	-0.0119
764.055	-0.0063
764.2297	-0.0021
764.4044	0.0019
764.579	-0.002
764.7537	-0.0149
764.9283	0.0037
765.1029	-0.0017
765.2775	0.0003
765.4521	-0.007
765.6266	-0.0031
765.8011	0.0005
765.9756	0.0069
766.1501	0.0067
766.3246	-0.0025
766.4991	0.0048
766.6735	0.0032
766.8479	0.0063
767.0223	0.0093
767.1967	0.0069
767.371	0.0177
767.5454	-0.0043
767.7197	0.0077
767.894	0.004
768.0683	-0.009
768.2425	0.0094
768.4168	0.0076
768.591	0.0069
768.7652	0.0037
768.9394	0.0061
769.1135	0.0013
769.2877	0.006
769.4618	0.0006
769.6359	0.0048
769.81	-0.0034
769.984	-0.0094
770.1581	-0.0049
770.3321	-0.0082
770.5061	-0.0014
770.6801	-0.001
770.8541	-0.0034
771.028	0.0046
771.202	-0.0043
771.3759	0.0009
771.5498	-0.0027
771.7236	0.0062
771.8975	0.0016
772.0713	0.0159
772.2451	0.0019
772.4189	0.0016
772.5927	0.0071
772.7665	-0.0024
772.9402	-0.0018
773.1139	0.0023
773.2876	-0.0034
773.4613	0.0136
773.635	0.0139
773.8086	-0.0019
773.9822	-0.005
774.1558	0.014
774.3294	-0.0125
774.503	-0.0013
774.6765	0.0044
774.8501	0.0098
775.0236	0.0124
775.1971	0.0058
775.3705	-0.0046
775.544	0.0071
775.7174	-0.0044
775.8908	0.0047
776.0642	0.0154
776.2376	0.0076
776.4109	-0.0071
776.5843	0.0047
776.7576	0.0236
776.9309	0.0161
777.1041	0.0152
777.2774	0.0171
777.4506	0.0125
777.6238	-0.0019
777.797	0.0122
777.9702	0.0072
778.1434	0.0068
778.3165	-0.0149
778.4896	-0.0045
778.6627	0.0066
778.8358	-0.0028
779.0089	-0.0134
779.1819	-0.0131
779.3549	0.0146
779.5279	0.0077
779.7009	0.001
779.8739	0.0093
780.0468	0.0003
780.2197	0.0109
780.3926	-0.0051
780.5655	0.0033
780.7384	-0.0001
780.9112	0.0043
781.0841	-0.0088
781.2569	-0.0046
781.4297	0.0089
781.6024	-0.0061
781.7752	0.0102
781.9479	0.0108
782.1206	0.0095
782.2933	-0.0106
782.466	0.0112
782.6386	0.0047
782.8113	0.0077
782.9839	-0.0075
783.1565	0.0193
783.329	-0.0014
783.5016	0.0233
783.6741	0.0124
783.8466	-0.002
784.0191	0.0254
784.1916	0.003
784.3641	0.015
784.5365	0.011
784.7089	0.0038
784.8813	0.0054
785.0537	0.0072
785.2261	0.0129
785.3984	-0.0111
785.5707	0.0012
785.743	0.01
785.9153	0.0008
786.0876	-0.0003
786.2598	-0.0074
786.432	-0.0067
786.6042	0.0118
786.7764	0.0033
786.9486	0.0031
787.1207	-0.0079
787.2928	0.0098
787.4649	0.0091
787.637	0.001
787.8091	-0.0001
787.9811	0.0064
788.1532	-0.0051
788.3252	0.0131
788.4972	-0.0035
788.6691	0.0105
788.8411	0.0087
789.013	-0.0059
789.1849	0.0037
789.3568	-0.0037
789.5287	0.0088
789.7005	0.0023
789.8723	0.0027
790.0442	0.0213
790.2159	0.0041
790.3877	0.0122
790.5595	0.0049
790.7312	0.0047
790.9029	-0.0003
791.0746	0.0045
791.2463	-0.0084
791.4179	0.002
791.5896	-0.024
791.7612	0.0134
791.9328	0.0126
792.1044	-0.0087
792.2759	-0.0192
792.4474	-0.0016
792.619	0
792.7905	0.0085
792.9619	-0.0027
793.1334	-0.0001
793.3048	0.0234
793.4762	0.0044
793.6476	0.0191
793.819	0.0014
793.9904	0.0072
794.1617	-0.0146
794.333	-0.0028
794.5043	-0.0014
794.6756	0.0013
794.8469	0.0107
795.0181	0.0028
795.1893	0.0087
795.3605	0.0057
795.5317	0.006
795.7029	-0.0003
795.874	0.0111
796.0452	0.0123
796.2163	-0.0054
796.3873	0.0125
796.5584	0.0044
796.7294	0.0075
796.9005	0.0145
797.0715	0.0078
797.2425	-0.0072
797.4134	0.019
797.5844	0.0145
797.7553	-0.0139
797.9262	0.008
798.0971	0.0064
798.2679	-0.0009
798.4388	-0.0086
798.6096	0.0191
798.7804	0.007
798.9512	0.0032
799.122	0.0055
799.2927	-0.0036
799.4635	0.0173
799.6342	-0.0121
799.8049	0.0024
799.9755	-0.0055
800.1462	-0.0042
800.3168	0.0153
800.4874	0.0031
800.658	0.0133
800.8286	0.0135
800.9991	0.0078
801.1696	0.0053
801.3402	0.0137
801.5106	0.0215
801.6811	0.0199
801.8516	0.0082
802.022	0.0169
802.1924	0.0089
802.3628	0.0189
802.5332	0.0085
802.7035	0.0317
802.8739	0.0103
803.0442	0.0076
803.2145	0.0183
803.3847	0.0026
803.555	0.0223
803.7252	-0.0022
803.8954	-0.0227
804.0656	-0.0129
804.2358	0.0077
804.4059	0.0165
804.5761	0.002
804.7462	0.0113
804.9163	0.0009
805.0864	-0.0157
805.2564	-0.0257
805.4264	0.0005
805.5965	0.0007
805.7665	0.0063
805.9364	-0.0022
806.1064	0.0321
806.2763	-0.001
806.4462	0.0245
806.6161	0.0141
806.786	0.0099
806.9559	0.0021
807.1257	-0.0197
807.2955	0.0046
807.4653	-0.0099
807.6351	-0.0131
807.8048	0.0066
807.9746	0.0081
808.1443	-0.0025
808.314	0.0056
808.4837	0.0122
808.6533	0.016
808.8229	0.0202
808.9926	0.0025
809.1622	0.0378
809.3317	0.0143
809.5013	0.0025
809.6708	0.0017
809.8403	0.0025
810.0098	-0.0038
810.1793	0.017
810.3488	0.0135
810.5182	-0.0162
810.6876	0.0008
810.857	-0.001
811.0264	0.0338
811.1958	0.0162
811.3651	0.0193
811.5344	0.0045
811.7037	0.0212
811.873	-0.007
812.0422	0.015
812.2115	0.0093
812.3807	-0.0101
812.5499	0.014
812.7191	0.0038
812.8882	-0.0156
813.0574	-0.0052
813.2265	-0.0062
813.3956	0.0253
813.5646	0.0028
813.7337	-0.0109
813.9027	0.0262
814.0718	0.045
814.2407	0.0426
814.4097	0.0045
814.5787	0.0024
814.7476	0.0057
814.9165	-0.0055
815.0854	-0.002
815.2543	0.0249
815.4232	0.0073
815.592	0.0259
815.7608	0.0072
815.9296	0.0329
816.0984	0.0319
816.2671	0.0024
816.4359	0.0163
816.6046	0.0274
816.7733	-0.0093
816.942	-0.0068
817.1106	-0.0006
817.2793	0.0186
817.4479	0.0106
817.6165	0.0099
817.785	0.0112
817.9536	0.0033
818.1221	0.0114
818.2906	0.014
818.4591	-0.0065
818.6276	0.0024
818.7961	0.0121
818.9645	0.0228
819.1329	-0.0121
819.3013	0.0312
819.4697	0.0328
819.638	0.0272
819.8064	0.0114
819.9747	0.0336
820.143	-0.0014
820.3113	-0.0018
820.4795	-0.0083
820.6477	0.0147
820.816	-0.009
820.9842	0.0199
821.1523	-0.006
821.3205	-0.0101
821.4886	-0.0078
821.6567	0.0224
821.8248	0.0191
821.9929	0.0492
822.1609	0.0157
822.329	0.0217
822.497	0.0179
822.665	0.0178
822.833	0.035
823.0009	0.0467
823.1688	0.0212
823.3367	0.0306
823.5046	0.0232
823.6725	0.0262
823.8404	0.0161
824.0082	0.002
824.176	0.0294
824.3438	0.0158
824.5116	0
824.6793	0.0206
824.847	0.0126
825.0147	0.0246
825.1824	0.0329
825.3501	0.0215
825.5177	0.02
825.6854	-0.0102
825.853	0.0272
826.0206	-0.0164
826.1881	0.0359
826.3557	-0.0301
826.5232	0.032
826.6907	-0.0084
826.8582	0.0319
827.0257	-0.0032
827.1931	0.0397
827.3605	0.0023
827.528	0
827.6953	-0.0207
827.8627	-0.0128
828.03	0.039
828.1974	0.0067
828.3647	-0.025
828.532	-0.0078
828.6992	0.0055
828.8665	0.0053
829.0337	-0.001
829.2009	0.0025
829.3681	0.0062
829.5352	0.0236
829.7024	-0.0111
829.8695	-0.037
830.0366	0.0234
830.2037	-0.005
830.3707	0.0328
830.5378	0.007
830.7048	0.005
830.8718	0.0133
831.0388	-0.0201
831.2057	0.0087
831.3727	-0.002
831.5396	-0.009
831.7065	0.0029
831.8734	0.0326
832.0402	-0.0237
832.2071	0.0167
832.3739	-0.013
832.5407	-0.0023
832.7075	-0.0189
832.8742	0.0081
833.041	-0.0345
833.2077	0.0278
833.3744	0.0376
833.541	0.0025
833.7077	-0.0086
833.8743	-0.0141
834.0409	0.033
834.2075	0.0039
834.3741	-0.0048
834.5407	0.011
834.7072	-0.0112
834.8737	0.0122
835.0402	-0.0006
835.2067	0.0095
835.3731	0.0176
835.5395	0.0367
835.706	0.0536
835.8723	0.029
836.0387	-0.002
836.2051	0.0243
836.3714	0.0049
836.5377	0.0098
836.704	-0.0049
836.8703	0.0142
837.0365	0.0082
837.2027	-0.0126
837.3689	0.0529
837.5351	-0.0132
837.7013	-0.0549
837.8674	-0.0626
838.0335	-0.0192
838.1997	-0.0032
838.3657	-0.0043
838.5318	0.0248
838.6978	0.0337
838.8639	0.0167
839.0299	-0.0143
839.1958	-0.0191
839.3618	0.0414
839.5277	0.0452
839.6937	0.0009
839.8596	0.001
840.0254	-0.0106
840.1913	0.0084
840.3571	0.0521
840.523	-0.0059
840.6888	-0.0092
840.8545	-0.0141
841.0203	0.0366
841.186	0.0158
841.3517	0.0212
841.5174	0.0045
841.6831	-0.0694
841.8488	0.0376
842.0144	-0.0291
842.18	0.0598
842.3456	0.0476
842.5112	-0.0217
842.6767	-0.0508
842.8422	-0.0513
843.0077	-0.003
843.1732	0.0024
843.3387	0.0246
843.5042	-0.0249
843.6696	-0.0347
843.835	-0.0291
844.0004	0.081
844.1657	-0.0176
844.3311	-0.0335
844.4964	-0.0587
844.6617	-0.012
844.827	0.0036
844.9923	0.0152
845.1575	0.0373
845.3227	0.0349
845.4879	-0.0197
845.6531	-0.0346
845.8183	-0.0544
845.9834	-0.023
846.1485	-0.0232
846.3136	-0.0282
846.4787	-0.0608
846.6438	0.1363
846.8088	-0.0183
846.9738	-0.0239
847.1388	-0.0083
847.3038	-0.0361
847.4687	-0.1163
847.6337	0.031
847.7986	-0.0488
847.9635	-0.0115
848.1284	0.0446
848.2932	0.0966
848.458	-0.0247
848.6228	0.1029
848.7876	0.0869
848.9524	-0.0378
849.1172	-0.04
849.2819	0.0172
849.4466	-0.1317
849.6113	-0.0897
849.7759	-0.0307
849.9406	-0.0232
850.1052	0.0238
850.2698	0.0767
850.4344	-0.0481
850.599	-0.0453
850.7635	0.0632
850.928	0.0172
851.0925	0.0446
851.257	-0.0531
851.4215	-0.0103
851.5859	-0.1097
851.7503	0.1338
851.9147	0.0135
852.0791	0.0002
852.2434	-0.0256
852.4078	0.1024
852.5721	0.0758
852.7364	-0.0624
852.9007	-0.2383
853.0649	-0.0076
853.2291	0.0078
853.3934	-0.0458
853.5575	0.0865
853.7217	-0.1655
853.8859	-0.1014
854.05	0.0029
854.2141	-0.0558
854.3782	-0.0082
854.5423	-0.1953
854.7063	0.1305
854.8703	-0.0419
855.0343	-0.0242
855.1983	-0.2143
855.3623	0.1076
855.5262	0.1125
855.6901	-0.0632
855.854	0.0085
856.0179	-0.042
856.1818	-0.0055
856.3456	-0.0966
856.5094	-0.0794
856.6732	-0.2014
856.837	-0.0176
857.0008	0.0324
857.1645	0.0003
857.3282	-0.1352
857.4919	0.1337
857.6556	-0.1235
857.8192	0.1251
857.9828	0.0482
858.1465	-0.0749
858.31	-0.0048
858.4736	-0.1592
858.6372	-0.256
858.8007	-0.192
858.9642	-0.0711
859.1277	-0.0697
859.2911	0.1345
859.4546	0.0714
859.618	-0.3133
859.7814	-0.0652
859.9448	-0.0208
860.1081	-0.186
860.2715	0.0578
860.4348	0.1811
860.5981	-0.0732
860.7614	0.0227
860.9246	0.0245
861.0879	-0.2073
861.2511	-0.068
861.4143	-0.1922
861.5774	0.117
861.7406	-0.1584
861.9037	0.0043
862.0668	-0.1309
862.2299	0.0974
862.393	-0.6808
862.556	-0.0974
862.7191	0.2895
862.8821	-0.0845
863.0451	-0.005
863.208	-0.0433
863.371	-0.0299
863.5339	-0.1898
863.6968	-0.1755
863.8597	-0.2577
864.0225	-0.0226
864.1854	-0.124
864.3482	0.1256
864.511	0.1094
864.6737	0.2399
864.8365	-0.1389
864.9992	-0.2716
865.1619	0.2764
865.3246	-0.2693
865.4873	-0.0418
865.65	-0.5374
865.8126	-0.0148
865.9752	0.1399
866.1378	-0.2618
866.3004	-0
866.4629	0.037
866.6254	-0.1167
866.7879	0.0628
866.9504	0.0562
867.1129	-0
867.2753	-0.0762
867.4377	0.0504
867.6001	-0.3519
867.7625	-0
867.9249	-0
868.0872	-0.1977
868.2495	-0.0915
868.4118	-0.329
868.5741	-0.6637
868.7363	-0.1794
868.8986	-0
869.0608	-0.3239
869.223	0.1993
869.3851	-0
869.5473	-0
869.7094	0.0318
869.8715	-0.5591
870.0336	-0.8245
870.1957	-0.4565
870.3577	-1.0775
870.5197	-0.1197
870.6817	0.0931
870.8437	-0.2197
871.0057	-0.4873
871.1676	-0.2501
871.3295	-0.5608
871.4914	-0
871.6533	-0.2043
871.8151	-0.5913
871.977	-0
872.1388	-0
872.3006	-0
872.4623	-0
872.6241	0.117
872.7858	0.4252
872.9475	0.139
873.1092	-0.0983
873.2709	0.375
873.4325	-0.1621
873.5941	0.2638
873.7557	-0
873.9173	-0
874.0789	-0.4846
874.2404	0.3663
874.4019	0.6848
874.5634	-0.1914
874.7249	-0.1465
874.8863	-0.2709
875.0478	0.0237
875.2092	-0
875.3706	1.0341
875.5319	-0.4653
875.6933	-0
875.8546	-0.0203
876.0159	0.0691
876.1772	0.2066
876.3385	-0
876.4997	0.1113
876.6609	-0.4036
876.8221	-0.6547
876.9833	0.6557
877.1445	-0
877.3056	-0.0446
877.4667	0.2764
877.6278	-0
877.7889	-0.5951
877.9499	-0
878.111	-0
878.272	-0
878.433	0.301
878.5939	0.7973
878.7549	-0.2416
878.9158	-0.2904
879.0767	0.1979
879.2376	-0
879.3984	0.0931
879.5593	-0
879.7201	-0
879.8809	-0.6169
880.0417	-0.4534
880.2024	0.3398
880.3632	0.301
880.5239	0.2826
880.6846	-0
880.8452	-1.7364
881.0059	-1.0755
881.1665	0.1756
881.3271	0.2103
881.4877	-0
881.6483	-0.3589
881.8088	-0.2663
881.9693	-0
882.1298	-0
882.2903	-0
