Data from MonoPyChalIsomerACN10uM360nmA_Absorbance_13-57-25-504.txt Node
Date: Fri Jul 05 13:57:25 BST 2024
User: LASERRRRR
Spectrometer: FLMT03099
Trigger mode: 0
Integration Time (sec): 1.000000E-1
Scans to average: 1
Electric dark correction enabled: true
Nonlinearity correction enabled: false
Boxcar width: 0
XAxis mode: Wavelengths
Number of Pixels in Spectrum: 3648
>>>>>Begin Spectral Data<<<<<
179.3399	1.45
179.5586	1.45
179.7771	1.45
179.9957	0.2464
180.2143	-0
180.4329	-0.1565
180.6514	-0
180.8699	-0
181.0885	0.3636
181.307	1.3045
181.5255	1.5798
181.744	-0.2035
181.9625	-0
182.181	-0.2752
182.3994	0.5815
182.6179	-0
182.8363	-0
183.0547	-0.2992
183.2732	-0.0801
183.4916	0.052
183.71	0.0962
183.9284	0.0047
184.1467	-0.1257
184.3651	-0.0936
184.5835	-0.0086
184.8018	0.5377
185.0201	0.0255
185.2385	-0.0744
185.4568	0.0833
185.6751	-0.1455
185.8934	0.3438
186.1117	-0.0875
186.3299	0.0114
186.5482	0.0733
186.7664	-0.0858
186.9847	-0.129
187.2029	-0.0432
187.4211	0.1637
187.6393	0.0629
187.8575	-0.0806
188.0757	0.3187
188.2939	0.0957
188.512	0.1886
188.7302	-0.0892
188.9483	-0.0807
189.1665	0.2079
189.3846	-0.1007
189.6027	0.1228
189.8208	0.2008
190.0389	0.1521
190.257	0.2723
190.475	0.0239
190.6931	0.1635
190.9111	0.284
191.1292	0.2493
191.3472	0.7084
191.5652	0.3143
191.7832	0.334
192.0012	0.5198
192.2192	0.2522
192.4371	0.4062
192.6551	0.2928
192.873	0.3834
193.091	0.3224
193.3089	0.4812
193.5268	0.6621
193.7447	0.508
193.9626	0.5055
194.1805	0.7015
194.3984	0.8485
194.6162	0.7105
194.8341	0.5726
195.0519	0.5379
195.2697	0.7116
195.4875	0.7231
195.7054	0.4196
195.9231	0.4812
196.1409	0.5522
196.3587	0.5434
196.5765	0.4798
196.7942	0.5562
197.012	0.4948
197.2297	0.5544
197.4474	0.7112
197.6651	0.5956
197.8828	0.6151
198.1005	0.6388
198.3182	0.5503
198.5358	0.6907
198.7535	0.6251
198.9711	0.4683
199.1888	0.5951
199.4064	0.7046
199.624	0.5241
199.8416	0.6765
200.0592	0.5204
200.2767	0.6743
200.4943	0.6058
200.7119	0.704
200.9294	0.7073
201.1469	0.4673
201.3645	0.559
201.582	0.5716
201.7995	0.7366
202.017	0.7283
202.2344	0.5906
202.4519	0.7871
202.6694	0.6389
202.8868	0.6712
203.1042	0.6856
203.3217	0.5902
203.5391	0.5987
203.7565	0.545
203.9739	0.5772
204.1913	0.5271
204.4086	0.7385
204.626	0.7213
204.8433	0.5616
205.0607	0.4955
205.278	0.6887
205.4953	0.5549
205.7126	0.5768
205.9299	0.5979
206.1472	0.674
206.3644	0.6826
206.5817	0.6682
206.7989	0.6381
207.0162	0.6656
207.2334	0.6844
207.4506	0.7288
207.6678	0.5448
207.885	0.6151
208.1022	0.6494
208.3194	0.6517
208.5365	0.6069
208.7537	0.6188
208.9708	0.5699
209.1879	0.5615
209.405	0.7084
209.6222	0.8107
209.8392	0.6347
210.0563	0.6216
210.2734	0.6457
210.4905	0.5691
210.7075	0.5615
210.9245	0.565
211.1416	0.6459
211.3586	0.6447
211.5756	0.5956
211.7926	0.5975
212.0096	0.5773
212.2265	0.5868
212.4435	0.5592
212.6604	0.5988
212.8774	0.5541
213.0943	0.5591
213.3112	0.5738
213.5281	0.5236
213.745	0.5096
213.9619	0.4933
214.1788	0.4667
214.3956	0.5106
214.6125	0.472
214.8293	0.4428
215.0461	0.4477
215.2629	0.4636
215.4798	0.5027
215.6965	0.4161
215.9133	0.4456
216.1301	0.4121
216.3469	0.4524
216.5636	0.3828
216.7803	0.3746
216.9971	0.4175
217.2138	0.3921
217.4305	0.3896
217.6472	0.3527
217.8639	0.3934
218.0805	0.3275
218.2972	0.3134
218.5138	0.3231
218.7305	0.3311
218.9471	0.3104
219.1637	0.3157
219.3803	0.2658
219.5969	0.287
219.8135	0.255
220.0301	0.2756
220.2466	0.2644
220.4632	0.2645
220.6797	0.2399
220.8962	0.2424
221.1127	0.2575
221.3292	0.2366
221.5457	0.2724
221.7622	0.2452
221.9787	0.2485
222.1951	0.2464
222.4116	0.2693
222.628	0.2639
222.8444	0.2691
223.0608	0.2368
223.2772	0.2401
223.4936	0.2601
223.71	0.2588
223.9264	0.2746
224.1427	0.2428
224.3591	0.2591
224.5754	0.2553
224.7917	0.265
225.008	0.2757
225.2243	0.2791
225.4406	0.2815
225.6569	0.2653
225.8732	0.2636
226.0894	0.273
226.3057	0.2707
226.5219	0.3133
226.7381	0.2726
226.9543	0.2835
227.1705	0.318
227.3867	0.2924
227.6029	0.3254
227.8191	0.3122
228.0352	0.3098
228.2513	0.3106
228.4675	0.3363
228.6836	0.3059
228.8997	0.3107
229.1158	0.3296
229.3319	0.305
229.548	0.328
229.764	0.3296
229.9801	0.3403
230.1961	0.3352
230.4121	0.3313
230.6282	0.3285
230.8442	0.3184
231.0602	0.3715
231.2761	0.3394
231.4921	0.3592
231.7081	0.3588
231.924	0.3688
232.14	0.3666
232.3559	0.3379
232.5718	0.3719
232.7877	0.3552
233.0036	0.3393
233.2195	0.3524
233.4353	0.3503
233.6512	0.3679
233.867	0.3653
234.0829	0.3684
234.2987	0.3559
234.5145	0.3851
234.7303	0.3614
234.9461	0.3881
235.1619	0.3772
235.3776	0.3815
235.5934	0.4071
235.8091	0.3875
236.0249	0.3869
236.2406	0.3945
236.4563	0.3897
236.672	0.4035
236.8877	0.3995
237.1034	0.4025
237.319	0.4057
237.5347	0.4038
237.7503	0.4074
237.966	0.4064
238.1816	0.4036
238.3972	0.4104
238.6128	0.3984
238.8284	0.4357
239.0439	0.4156
239.2595	0.4053
239.475	0.4199
239.6906	0.4243
239.9061	0.3994
240.1216	0.393
240.3371	0.3961
240.5526	0.3992
240.7681	0.4063
240.9836	0.3923
241.199	0.4111
241.4145	0.409
241.6299	0.3791
241.8453	0.382
242.0607	0.3732
242.2761	0.3745
242.4915	0.3505
242.7069	0.3667
242.9223	0.3501
243.1376	0.355
243.353	0.3621
243.5683	0.3436
243.7836	0.3246
243.9989	0.3299
244.2142	0.3058
244.4295	0.3133
244.6448	0.2969
244.86	0.2849
245.0753	0.2903
245.2905	0.2897
245.5057	0.2819
245.721	0.2931
245.9362	0.2532
246.1514	0.2635
246.3665	0.2603
246.5817	0.2519
246.7969	0.2464
247.012	0.2525
247.2271	0.2419
247.4423	0.2552
247.6574	0.2341
247.8725	0.2267
248.0876	0.2189
248.3026	0.2258
248.5177	0.2236
248.7328	0.2126
248.9478	0.1994
249.1628	0.207
249.3779	0.238
249.5929	0.1891
249.8079	0.229
250.0228	0.2095
250.2378	0.2025
250.4528	0.202
250.6677	0.1839
250.8827	0.2023
251.0976	0.1965
251.3125	0.1848
251.5274	0.1853
251.7423	0.1858
251.9572	0.195
252.172	0.1833
252.3869	0.1843
252.6017	0.1827
252.8166	0.1703
253.0314	0.1725
253.2462	0.1723
253.461	0.186
253.6758	0.1708
253.8906	0.1813
254.1053	0.1722
254.3201	0.1805
254.5348	0.1773
254.7496	0.1775
254.9643	0.1643
255.179	0.1666
255.3937	0.1659
255.6083	0.1704
255.823	0.1718
256.0377	0.1681
256.2523	0.1743
256.467	0.1464
256.6816	0.1645
256.8962	0.1635
257.1108	0.1565
257.3254	0.1776
257.54	0.1663
257.7545	0.1658
257.9691	0.1718
258.1836	0.1571
258.3981	0.1651
258.6127	0.1708
258.8272	0.1562
259.0417	0.1656
259.2561	0.1601
259.4706	0.1671
259.6851	0.1644
259.8995	0.1664
260.114	0.1579
260.3284	0.1541
260.5428	0.1522
260.7572	0.1742
260.9716	0.1817
261.186	0.1484
261.4003	0.1594
261.6147	0.1676
261.829	0.1761
262.0433	0.1661
262.2577	0.1571
262.472	0.1634
262.6863	0.1605
262.9005	0.1579
263.1148	0.1535
263.3291	0.1413
263.5433	0.1658
263.7576	0.1661
263.9718	0.161
264.186	0.1653
264.4002	0.1678
264.6144	0.1595
264.8286	0.1631
265.0427	0.1568
265.2569	0.1583
265.471	0.1604
265.6851	0.1622
265.8993	0.1624
266.1134	0.1519
266.3275	0.1437
266.5415	0.1563
266.7556	0.1745
266.9697	0.1705
267.1837	0.1583
267.3978	0.1582
267.6118	0.1715
267.8258	0.1726
268.0398	0.1631
268.2538	0.1703
268.4677	0.1695
268.6817	0.1526
268.8957	0.1492
269.1096	0.1647
269.3235	0.1654
269.5374	0.1504
269.7514	0.1565
269.9652	0.1432
270.1791	0.1539
270.393	0.1582
270.6068	0.1566
270.8207	0.1478
271.0345	0.1482
271.2483	0.1485
271.4622	0.1448
271.676	0.1484
271.8897	0.1398
272.1035	0.1411
272.3173	0.1293
272.531	0.1439
272.7448	0.1359
272.9585	0.1369
273.1722	0.14
273.3859	0.142
273.5996	0.136
273.8133	0.1479
274.0269	0.1371
274.2406	0.1324
274.4542	0.1362
274.6679	0.1314
274.8815	0.1442
275.0951	0.1425
275.3087	0.1478
275.5223	0.1482
275.7358	0.1475
275.9494	0.1446
276.1629	0.1314
276.3765	0.1458
276.59	0.1446
276.8035	0.1495
277.017	0.1439
277.2305	0.1334
277.444	0.14
277.6574	0.1482
277.8709	0.1494
278.0843	0.1358
278.2978	0.1426
278.5112	0.1353
278.7246	0.1436
278.938	0.1458
279.1513	0.1393
279.3647	0.1598
279.5781	0.1443
279.7914	0.1491
280.0047	0.1596
280.2181	0.1424
280.4314	0.1503
280.6447	0.1414
280.8579	0.1446
281.0712	0.1522
281.2845	0.146
281.4977	0.1484
281.711	0.1394
281.9242	0.1383
282.1374	0.1678
282.3506	0.1569
282.5638	0.155
282.7769	0.1501
282.9901	0.1493
283.2033	0.1659
283.4164	0.1507
283.6295	0.155
283.8426	0.1537
284.0557	0.1548
284.2688	0.1778
284.4819	0.1499
284.695	0.1584
284.908	0.16
285.1211	0.1479
285.3341	0.1699
285.5471	0.1563
285.7601	0.156
285.9731	0.1541
286.1861	0.1586
286.3991	0.1683
286.612	0.1673
286.825	0.164
287.0379	0.1661
287.2508	0.1515
287.4637	0.1554
287.6766	0.1526
287.8895	0.18
288.1024	0.1798
288.3152	0.1646
288.5281	0.1463
288.7409	0.1688
288.9538	0.1683
289.1666	0.1695
289.3794	0.1705
289.5922	0.1693
289.8049	0.1623
290.0177	0.1714
290.2304	0.1709
290.4432	0.1759
290.6559	0.161
290.8686	0.1714
291.0813	0.1649
291.294	0.172
291.5067	0.1676
291.7194	0.1602
291.932	0.179
292.1447	0.1719
292.3573	0.1695
292.5699	0.1672
292.7825	0.1717
292.9951	0.165
293.2077	0.1535
293.4203	0.1666
293.6328	0.1596
293.8454	0.1786
294.0579	0.1654
294.2704	0.1584
294.4829	0.1653
294.6954	0.1723
294.9079	0.1723
295.1204	0.1689
295.3328	0.1725
295.5453	0.1632
295.7577	0.1698
295.9701	0.169
296.1825	0.1501
296.3949	0.1554
296.6073	0.1711
296.8197	0.1618
297.0321	0.179
297.2444	0.1666
297.4567	0.1775
297.6691	0.1723
297.8814	0.1717
298.0937	0.1556
298.306	0.1809
298.5182	0.1678
298.7305	0.1687
298.9428	0.1693
299.155	0.1738
299.3672	0.1618
299.5794	0.1523
299.7916	0.164
300.0038	0.1738
300.216	0.1736
300.4282	0.1757
300.6403	0.1605
300.8525	0.1739
301.0646	0.1609
301.2767	0.1673
301.4888	0.1686
301.7009	0.1729
301.913	0.1533
302.125	0.1608
302.3371	0.1658
302.5491	0.1641
302.7612	0.1701
302.9732	0.1743
303.1852	0.1712
303.3972	0.1603
303.6092	0.1612
303.8211	0.1611
304.0331	0.1512
304.245	0.1553
304.457	0.1591
304.6689	0.1473
304.8808	0.1564
305.0927	0.1417
305.3046	0.1536
305.5164	0.163
305.7283	0.1551
305.9401	0.1549
306.152	0.1463
306.3638	0.1653
306.5756	0.149
306.7874	0.1609
306.9992	0.1527
307.2109	0.143
307.4227	0.1296
307.6344	0.1392
307.8462	0.1269
308.0579	0.1386
308.2696	0.134
308.4813	0.1228
308.693	0.1293
308.9046	0.1339
309.1163	0.1219
309.328	0.1333
309.5396	0.1244
309.7512	0.1285
309.9628	0.1143
310.1744	0.1114
310.386	0.1234
310.5976	0.1172
310.8091	0.119
311.0207	0.1077
311.2322	0.115
311.4437	0.1178
311.6552	0.1093
311.8667	0.1167
312.0782	0.0956
312.2897	0.1072
312.5012	0.1109
312.7126	0.1067
312.924	0.0992
313.1355	0.1074
313.3469	0.098
313.5583	0.1064
313.7696	0.1145
313.981	0.1061
314.1924	0.1074
314.4037	0.0986
314.6151	0.1093
314.8264	0.0983
315.0377	0.1015
315.249	0.0974
315.4603	0.1047
315.6716	0.0942
315.8828	0.0905
316.0941	0.1094
316.3053	0.0941
316.5165	0.0908
316.7277	0.0962
316.9389	0.101
317.1501	0.0929
317.3613	0.1037
317.5724	0.0869
317.7836	0.1082
317.9947	0.096
318.2058	0.0983
318.417	0.0941
318.6281	0.0892
318.8391	0.1033
319.0502	0.0909
319.2613	0.0924
319.4723	0.1031
319.6834	0.0969
319.8944	0.0916
320.1054	0.0941
320.3164	0.102
320.5274	0.0936
320.7383	0.0887
320.9493	0.0921
321.1602	0.1012
321.3712	0.0794
321.5821	0.095
321.793	0.0978
322.0039	0.0913
322.2148	0.0995
322.4257	0.0964
322.6365	0.1033
322.8474	0.1014
323.0582	0.0898
323.269	0.1027
323.4798	0.1096
323.6906	0.105
323.9014	0.1093
324.1122	0.0958
324.3229	0.1019
324.5337	0.104
324.7444	0.0874
324.9551	0.1028
325.1658	0.0929
325.3765	0.1072
325.5872	0.1063
325.7979	0.1025
326.0085	0.1027
326.2192	0.1057
326.4298	0.1008
326.6404	0.0925
326.851	0.1053
327.0616	0.0886
327.2722	0.0957
327.4828	0.1039
327.6933	0.0984
327.9039	0.0958
328.1144	0.1168
328.3249	0.1016
328.5354	0.097
328.7459	0.1006
328.9564	0.1011
329.1669	0.1031
329.3773	0.1073
329.5878	0.1046
329.7982	0.1018
330.0086	0.1021
330.219	0.1086
330.4294	0.1017
330.6398	0.1051
330.8502	0.0924
331.0605	0.1176
331.2708	0.1
331.4812	0.1023
331.6915	0.109
331.9018	0.1088
332.1121	0.1052
332.3224	0.1173
332.5326	0.1093
332.7429	0.0993
332.9531	0.1039
333.1633	0.094
333.3735	0.0936
333.5837	0.1023
333.7939	0.0957
334.0041	0.1046
334.2143	0.1048
334.4244	0.0987
334.6346	0.0851
334.8447	0.1209
335.0548	0.0929
335.2649	0.0905
335.475	0.1144
335.685	0.0964
335.8951	0.1076
336.1051	0.1082
336.3152	0.105
336.5252	0.0994
336.7352	0.114
336.9452	0.1179
337.1552	0.1076
337.3652	0.1035
337.5751	0.1056
337.7851	0.1083
337.995	0.1033
338.2049	0.1169
338.4148	0.1074
338.6247	0.1132
338.8346	0.1132
339.0445	0.104
339.2543	0.1099
339.4642	0.1116
339.674	0.1031
339.8838	0.1223
340.0936	0.1065
340.3034	0.1344
340.5132	0.1165
340.7229	0.1134
340.9327	0.1163
341.1424	0.1
341.3522	0.1174
341.5619	0.1229
341.7716	0.1147
341.9813	0.1147
342.1909	0.1083
342.4006	0.1117
342.6102	0.1273
342.8199	0.1229
343.0295	0.1188
343.2391	0.1142
343.4487	0.1158
343.6583	0.1122
343.8679	0.1183
344.0774	0.1227
344.287	0.1323
344.4965	0.1215
344.706	0.1286
344.9155	0.1272
345.125	0.1361
345.3345	0.1291
345.544	0.124
345.7534	0.1288
345.9629	0.1173
346.1723	0.1266
346.3817	0.1171
346.5911	0.1291
346.8005	0.1279
347.0099	0.1244
347.2193	0.1294
347.4286	0.1234
347.638	0.1316
347.8473	0.1323
348.0566	0.1336
348.2659	0.1291
348.4752	0.1244
348.6845	0.1321
348.8937	0.1343
349.103	0.149
349.3122	0.1338
349.5214	0.1263
349.7306	0.1414
349.9398	0.1258
350.149	0.1436
350.3582	0.1252
350.5674	0.1522
350.7765	0.1287
350.9856	0.1358
351.1948	0.1297
351.4039	0.1265
351.613	0.1378
351.822	0.1476
352.0311	0.1434
352.2402	0.1387
352.4492	0.1435
352.6582	0.143
352.8672	0.1442
353.0762	0.1574
353.2852	0.1529
353.4942	0.1502
353.7032	0.1503
353.9121	0.1466
354.1211	0.1511
354.33	0.1478
354.5389	0.1478
354.7478	0.15
354.9567	0.1513
355.1655	0.1624
355.3744	0.1625
355.5833	0.1626
355.7921	0.162
356.0009	0.1503
356.2097	0.1626
356.4185	0.1729
356.6273	0.1672
356.8361	0.1558
357.0448	0.1583
357.2536	0.1574
357.4623	0.1676
357.671	0.1537
357.8797	0.1597
358.0884	0.1547
358.2971	0.1614
358.5057	0.1658
358.7144	0.1795
358.923	0.1668
359.1316	0.1717
359.3402	0.1685
359.5488	0.1571
359.7574	0.1605
359.966	0.165
360.1746	0.1787
360.3831	0.1701
360.5916	0.1694
360.8002	0.1558
361.0087	0.178
361.2172	0.1744
361.4256	0.1704
361.6341	0.1996
361.8426	0.1816
362.051	0.1815
362.2594	0.1882
362.4678	0.1969
362.6762	0.2017
362.8846	0.1957
363.093	0.1788
363.3014	0.1842
363.5097	0.1772
363.718	0.1853
363.9264	0.1816
364.1347	0.1933
364.343	0.1946
364.5513	0.2029
364.7595	0.2002
364.9678	0.1929
365.176	0.2055
365.3842	0.2106
365.5925	0.1912
365.8007	0.1955
366.0089	0.2032
366.217	0.1957
366.4252	0.203
366.6333	0.2099
366.8415	0.2187
367.0496	0.1946
367.2577	0.2177
367.4658	0.2076
367.6739	0.1942
367.882	0.2144
368.09	0.204
368.2981	0.2228
368.5061	0.2005
368.7141	0.2189
368.9221	0.2245
369.1301	0.2016
369.3381	0.2149
369.5461	0.2108
369.754	0.2122
369.962	0.2363
370.1699	0.2159
370.3778	0.2376
370.5857	0.2028
370.7936	0.2279
371.0015	0.2149
371.2093	0.2263
371.4172	0.2446
371.625	0.2185
371.8328	0.2174
372.0406	0.2328
372.2484	0.2266
372.4562	0.2411
372.664	0.2133
372.8717	0.227
373.0795	0.2203
373.2872	0.2259
373.4949	0.2208
373.7026	0.2391
373.9103	0.2245
374.118	0.257
374.3256	0.2375
374.5333	0.2421
374.7409	0.2441
374.9485	0.2434
375.1561	0.241
375.3637	0.2529
375.5713	0.2456
375.7789	0.2385
375.9864	0.225
376.194	0.2235
376.4015	0.2432
376.609	0.2458
376.8165	0.2503
377.024	0.23
377.2315	0.2265
377.4389	0.2397
377.6464	0.2542
377.8538	0.2519
378.0612	0.2344
378.2686	0.2467
378.476	0.2645
378.6834	0.2495
378.8908	0.2533
379.0981	0.2453
379.3055	0.2504
379.5128	0.245
379.7201	0.2485
379.9274	0.2443
380.1347	0.254
380.342	0.2604
380.5492	0.2484
380.7565	0.2491
380.9637	0.2565
381.1709	0.262
381.3781	0.259
381.5853	0.2599
381.7925	0.2709
381.9997	0.2779
382.2068	0.2704
382.4139	0.2565
382.6211	0.2514
382.8282	0.251
383.0353	0.2527
383.2424	0.2597
383.4494	0.2825
383.6565	0.2743
383.8635	0.2668
384.0706	0.2663
384.2776	0.2778
384.4846	0.2697
384.6916	0.2596
384.8986	0.2562
385.1055	0.2573
385.3125	0.2466
385.5194	0.2416
385.7263	0.2748
385.9333	0.2589
386.1402	0.2567
386.347	0.2546
386.5539	0.2452
386.7608	0.2796
386.9676	0.2484
387.1744	0.2634
387.3813	0.249
387.5881	0.2598
387.7948	0.2432
388.0016	0.269
388.2084	0.2531
388.4151	0.2521
388.6219	0.2693
388.8286	0.2669
389.0353	0.2684
389.242	0.2664
389.4487	0.2465
389.6553	0.2567
389.862	0.2468
390.0686	0.2483
390.2753	0.2535
390.4819	0.2474
390.6885	0.2587
390.8951	0.2316
391.1016	0.2315
391.3082	0.2439
391.5147	0.2493
391.7213	0.2377
391.9278	0.2389
392.1343	0.2319
392.3408	0.2452
392.5473	0.2415
392.7537	0.2451
392.9602	0.2396
393.1666	0.241
393.373	0.248
393.5794	0.2327
393.7858	0.2442
393.9922	0.2311
394.1986	0.236
394.4049	0.2287
394.6113	0.2102
394.8176	0.2226
395.0239	0.2318
395.2302	0.2256
395.4365	0.2185
395.6428	0.2199
395.8491	0.2197
396.0553	0.2319
396.2615	0.2149
396.4678	0.229
396.674	0.2278
396.8802	0.2265
397.0863	0.2477
397.2925	0.2176
397.4987	0.2037
397.7048	0.2042
397.9109	0.219
398.117	0.2054
398.3231	0.2143
398.5292	0.2274
398.7353	0.2371
398.9413	0.2188
399.1474	0.2202
399.3534	0.2271
399.5594	0.2172
399.7654	0.2367
399.9714	0.2257
400.1774	0.2206
400.3833	0.2177
400.5893	0.2165
400.7952	0.2102
401.0011	0.2234
401.207	0.2249
401.4129	0.2161
401.6188	0.2205
401.8247	0.2255
402.0305	0.2232
402.2364	0.1995
402.4422	0.2308
402.648	0.2349
402.8538	0.2327
403.0596	0.2197
403.2654	0.2399
403.4711	0.2081
403.6768	0.2084
403.8826	0.2197
404.0883	0.2233
404.294	0.2233
404.4997	0.2225
404.7054	0.2229
404.911	0.211
405.1167	0.2262
405.3223	0.2286
405.5279	0.227
405.7335	0.2395
405.9391	0.2332
406.1447	0.2245
406.3502	0.2441
406.5558	0.209
406.7613	0.2362
406.9668	0.2276
407.1724	0.2066
407.3778	0.2034
407.5833	0.2212
407.7888	0.2138
407.9942	0.2131
408.1997	0.2132
408.4051	0.2086
408.6105	0.2287
408.8159	0.2132
409.0213	0.222
409.2267	0.2396
409.432	0.2075
409.6374	0.2179
409.8427	0.2085
410.048	0.204
410.2533	0.2098
410.4586	0.2102
410.6639	0.2166
410.8691	0.2089
411.0744	0.2081
411.2796	0.2263
411.4848	0.2056
411.69	0.2098
411.8952	0.226
412.1004	0.2106
412.3056	0.2253
412.5107	0.2085
412.7158	0.2285
412.921	0.1992
413.1261	0.2035
413.3312	0.2246
413.5362	0.2161
413.7413	0.2123
413.9464	0.207
414.1514	0.2183
414.3564	0.2149
414.5614	0.1879
414.7664	0.2156
414.9714	0.2185
415.1764	0.2053
415.3813	0.2137
415.5863	0.2277
415.7912	0.2169
415.9961	0.2167
416.201	0.2107
416.4059	0.219
416.6108	0.1997
416.8156	0.2189
417.0205	0.2086
417.2253	0.1936
417.4301	0.2209
417.6349	0.1978
417.8397	0.2107
418.0445	0.2104
418.2492	0.2068
418.454	0.2117
418.6587	0.1999
418.8634	0.2008
419.0681	0.1972
419.2728	0.1961
419.4775	0.2046
419.6822	0.1897
419.8868	0.1939
420.0915	0.1959
420.2961	0.1844
420.5007	0.1754
420.7053	0.2119
420.9099	0.2096
421.1144	0.1936
421.319	0.1925
421.5235	0.1941
421.728	0.1941
421.9325	0.2044
422.137	0.2198
422.3415	0.1923
422.546	0.1994
422.7504	0.1881
422.9549	0.195
423.1593	0.1788
423.3637	0.1972
423.5681	0.1875
423.7725	0.1656
423.9769	0.1809
424.1812	0.1709
424.3856	0.1991
424.5899	0.1929
424.7942	0.1932
424.9985	0.1834
425.2028	0.1744
425.4071	0.2008
425.6113	0.17
425.8156	0.1842
426.0198	0.1813
426.224	0.1702
426.4282	0.1774
426.6324	0.163
426.8366	0.1816
427.0407	0.1576
427.2449	0.1548
427.449	0.1686
427.6531	0.1546
427.8572	0.1667
428.0613	0.1804
428.2654	0.161
428.4694	0.1623
428.6735	0.1436
428.8775	0.177
429.0815	0.1662
429.2855	0.1553
429.4895	0.1706
429.6935	0.1702
429.8975	0.1586
430.1014	0.1487
430.3053	0.15
430.5093	0.1437
430.7132	0.1502
430.9171	0.151
431.1209	0.1525
431.3248	0.1528
431.5286	0.1587
431.7325	0.1507
431.9363	0.1289
432.1401	0.144
432.3439	0.1334
432.5477	0.1225
432.7514	0.1228
432.9552	0.1319
433.1589	0.1307
433.3627	0.1242
433.5664	0.1384
433.7701	0.12
433.9737	0.1161
434.1774	0.1037
434.3811	0.1315
434.5847	0.127
434.7883	0.1265
434.9919	0.1222
435.1955	0.1239
435.3991	0.11
435.6027	0.1161
435.8062	0.1037
436.0098	0.1076
436.2133	0.1129
436.4168	0.106
436.6203	0.1016
436.8238	0.1155
437.0272	0.1034
437.2307	0.1066
437.4341	0.1026
437.6375	0.1144
437.841	0.0895
438.0443	0.1067
438.2477	0.0917
438.4511	0.092
438.6545	0.0917
438.8578	0.1065
439.0611	0.0837
439.2644	0.085
439.4677	0.0759
439.671	0.0752
439.8743	0.0775
440.0775	0.0725
440.2808	0.078
440.484	0.0789
440.6872	0.0716
440.8904	0.0666
441.0936	0.0884
441.2967	0.0752
441.4999	0.0699
441.703	0.064
441.9062	0.0712
442.1093	0.0728
442.3124	0.071
442.5155	0.0597
442.7185	0.0688
442.9216	0.0453
443.1246	0.0715
443.3276	0.0502
443.5307	0.0676
443.7337	0.0607
443.9366	0.0687
444.1396	0.0544
444.3426	0.0488
444.5455	0.0716
444.7484	0.0447
444.9513	0.0588
445.1542	0.0622
445.3571	0.0507
445.56	0.051
445.7628	0.0269
445.9657	0.0526
446.1685	0.053
446.3713	0.0424
446.5741	0.0509
446.7769	0.0513
446.9797	0.0356
447.1824	0.0438
447.3852	0.0376
447.5879	0.0488
447.7906	0.0504
447.9933	0.0317
448.196	0.0366
448.3986	0.0313
448.6013	0.0244
448.8039	0.0274
449.0066	0.0289
449.2092	0.0416
449.4118	0.0442
449.6143	0.0267
449.8169	0.0447
450.0195	0.0239
450.222	0.0128
450.4245	0.0228
450.627	0.0314
450.8295	0.0297
451.032	0.0243
451.2345	0.0265
451.4369	0.0402
451.6394	0.0356
451.8418	0.0203
452.0442	0.0146
452.2466	0.0265
452.449	-0.0033
452.6513	0.0182
452.8537	0.0197
453.056	0.0182
453.2583	0.0173
453.4607	0.0172
453.663	0.0103
453.8652	0.0192
454.0675	0.0056
454.2697	0.0195
454.472	0.0076
454.6742	0.02
454.8764	0.0199
455.0786	0.0127
455.2808	0.02
455.4829	0.0252
455.6851	0.0339
455.8872	0.0133
456.0893	0.0274
456.2915	-0.0013
456.4935	0.028
456.6956	-0.006
456.8977	0.0206
457.0997	0.0172
457.3018	-0.0002
457.5038	0.0164
457.7058	-0.0014
457.9078	0.0003
458.1098	0.0218
458.3117	0.021
458.5137	0.0011
458.7156	0.0214
458.9175	-0.0019
459.1194	0.0052
459.3213	0.011
459.5232	0.0025
459.725	-0.0074
459.9269	-0.0092
460.1287	0.0049
460.3305	0.0008
460.5323	-0.0021
460.7341	-0.0093
460.9359	0.0072
461.1376	0.0158
461.3394	0.004
461.5411	0.0123
461.7428	0.0069
461.9445	0.0297
462.1462	0.003
462.3479	-0.0055
462.5495	0.0026
462.7512	0.0206
462.9528	-0.0026
463.1544	-0.0081
463.356	0.0036
463.5576	0.0025
463.7592	-0.0098
463.9607	0.0149
464.1623	0.0136
464.3638	0.0183
464.5653	-0.0152
464.7668	0.0064
464.9683	0.0057
465.1697	0.0255
465.3712	-0.0011
465.5726	-0.0038
465.7741	0.0086
465.9755	-0.0075
466.1769	-0.0031
466.3782	0.0097
466.5796	-0.0109
466.7809	0.0132
466.9823	-0.0022
467.1836	-0.0006
467.3849	-0.0081
467.5862	-0.0005
467.7875	0.0002
467.9887	0.0181
468.19	-0.0014
468.3912	-0.0058
468.5924	-0.0013
468.7936	0.0091
468.9948	-0.0005
469.196	0.0047
469.3972	-0.005
469.5983	-0.0023
469.7994	-0.0092
470.0006	0.0039
470.2017	-0.0143
470.4027	0.0039
470.6038	-0.0005
470.8049	-0.0182
471.0059	-0.011
471.2069	-0.0083
471.408	0.0141
471.6089	0.0003
471.8099	-0.0046
472.0109	0.0123
472.2119	-0.0077
472.4128	-0.0058
472.6137	0.0018
472.8146	-0.0122
473.0155	-0.0112
473.2164	-0.0036
473.4173	0.0064
473.6181	0.0132
473.819	-0.0006
474.0198	-0.0098
474.2206	-0.0064
474.4214	-0.0129
474.6222	-0.007
474.8229	-0.0073
475.0237	-0.0145
475.2244	-0.0055
475.4251	0.0056
475.6258	-0.0038
475.8265	-0.0104
476.0272	0.002
476.2278	0.0054
476.4285	0.0089
476.6291	-0.0176
476.8297	-0.0134
477.0303	0.0048
477.2309	-0.0044
477.4315	-0.0056
477.632	-0.0078
477.8326	-0.0081
478.0331	-0.0001
478.2336	0.0071
478.4341	0.0058
478.6346	-0.0161
478.8351	-0.0109
479.0355	0.0092
479.236	-0.0008
479.4364	0.0057
479.6368	0.002
479.8372	-0.0075
480.0376	-0.0067
480.2379	-0.0143
480.4383	-0.0073
480.6386	0.0046
480.8389	-0.0045
481.0392	-0.0076
481.2395	-0.0103
481.4398	0.0013
481.6401	0.0004
481.8403	-0.0064
482.0405	-0.0065
482.2408	-0.0021
482.441	0.0111
482.6411	-0.0099
482.8413	-0.01
483.0415	-0.0076
483.2416	-0.0077
483.4417	-0.0082
483.6419	-0.0002
483.8419	-0.0149
484.042	0.0157
484.2421	0.0009
484.4422	-0.0012
484.6422	0.0069
484.8422	-0.0067
485.0422	0.0016
485.2422	0.0084
485.4422	-0.017
485.6422	-0.0055
485.8421	-0.0107
486.042	-0.0033
486.242	-0.0008
486.4419	-0.0108
486.6417	-0.0187
486.8416	0.0003
487.0415	-0.007
487.2413	-0.0035
487.4411	-0.0067
487.641	-0.0152
487.8408	-0.0057
488.0405	-0.0153
488.2403	-0.0085
488.4401	0.0114
488.6398	-0.01
488.8395	-0.0082
489.0392	0.0045
489.2389	-0.0093
489.4386	-0.017
489.6383	0.0042
489.8379	-0.0017
490.0376	0.001
490.2372	-0.0047
490.4368	-0.0106
490.6364	-0.0124
490.836	-0.0128
491.0355	0.0013
491.2351	-0.0099
491.4346	-0.0033
491.6341	-0.0145
491.8336	0.0014
492.0331	-0.0185
492.2326	-0.013
492.432	-0.0063
492.6315	-0.0039
492.8309	-0.0181
493.0303	-0.0114
493.2297	-0.0022
493.4291	0.0048
493.6284	-0.0036
493.8278	0.0015
494.0271	-0.001
494.2264	-0.0014
494.4257	-0.008
494.625	0.0046
494.8243	-0.0177
495.0236	-0.0126
495.2228	-0.0147
495.422	-0.0129
495.6213	-0.0108
495.8205	-0.0002
496.0196	-0.0047
496.2188	-0.0035
496.418	-0.0091
496.6171	-0.0097
496.8162	-0.0006
497.0153	-0.006
497.2144	-0.0134
497.4135	-0.007
497.6126	-0.0049
497.8116	-0.0074
498.0107	-0.0042
498.2097	-0.0131
498.4087	-0.0157
498.6077	-0.0019
498.8067	-0.0125
499.0056	0.0037
499.2046	-0.0069
499.4035	-0.0078
499.6024	-0.0042
499.8013	-0.0009
500.0002	-0.0055
500.199	-0.0039
500.3979	-0.0157
500.5967	-0.019
500.7956	-0.003
500.9944	-0.0123
501.1932	-0.0089
501.3919	-0.0131
501.5907	-0.0042
501.7895	-0.004
501.9882	-0.0164
502.1869	0.0013
502.3856	-0.0125
502.5843	-0.0154
502.783	-0.0117
502.9816	-0.0066
503.1803	-0.0111
503.3789	-0.0128
503.5775	0.0017
503.7761	-0.0089
503.9747	0.0022
504.1732	-0.0066
504.3718	0.0024
504.5703	-0.0125
504.7689	-0.0072
504.9674	0.0036
505.1658	-0.0095
505.3643	0.0016
505.5628	-0.0014
505.7612	-0.0166
505.9597	0.0086
506.1581	-0.0033
506.3565	0.0065
506.5549	-0.0034
506.7532	-0.0126
506.9516	-0.0111
507.1499	0.0038
507.3482	-0.0166
507.5465	-0.0118
507.7448	-0.0041
507.9431	0.0063
508.1414	-0.0065
508.3396	-0.0124
508.5379	-0.0118
508.7361	-0.0006
508.9343	-0.008
509.1325	-0.0023
509.3306	-0.0022
509.5288	-0.0027
509.7269	-0.01
509.9251	-0.0037
510.1232	-0.0092
510.3213	0.0019
510.5193	-0.0001
510.7174	-0.0064
510.9154	-0.0067
511.1135	-0.0035
511.3115	-0.0049
511.5095	0.0062
511.7075	-0.0066
511.9055	-0.0033
512.1034	-0.0114
512.3014	-0.0058
512.4993	0.0002
512.6972	-0.0082
512.8951	-0.0047
513.093	-0.0015
513.2908	-0.0032
513.4887	0.0002
513.6865	-0.0109
513.8844	-0.0049
514.0822	-0.0124
514.2799	-0.0048
514.4777	-0.0123
514.6755	0.002
514.8732	-0.0069
515.0709	0
515.2687	-0.0023
515.4664	0.0005
515.664	-0.0022
515.8617	-0.0029
516.0594	-0.0135
516.257	-0.0023
516.4546	-0.0157
516.6522	0.0007
516.8498	-0.0045
517.0474	0.0039
517.2449	-0.003
517.4425	-0.0137
517.64	-0.0051
517.8375	0.0069
518.035	-0.0028
518.2325	-0.0094
518.43	-0.0029
518.6274	-0.0106
518.8249	-0.0051
519.0223	-0.0018
519.2197	-0.007
519.4171	-0.0084
519.6145	-0.0101
519.8118	0.0056
520.0092	-0.0055
520.2065	-0.0175
520.4038	-0.0042
520.6011	-0.0007
520.7984	-0.001
520.9956	-0.0048
521.1929	-0.0133
521.3901	-0.001
521.5874	-0.0106
521.7846	-0.0007
521.9818	-0.0181
522.1789	-0.0092
522.3761	-0.0075
522.5732	0.0028
522.7704	-0.0088
522.9675	0.0008
523.1646	-0.0116
523.3617	0.0003
523.5587	-0.0041
523.7558	-0.0108
523.9528	-0.0083
524.1498	0.0003
524.3468	-0.0047
524.5438	-0.0036
524.7408	-0.0073
524.9378	0.0051
525.1347	-0.0002
525.3316	-0.0042
525.5285	-0.0155
525.7254	-0.0115
525.9223	0.0018
526.1192	-0.0029
526.316	-0.011
526.5129	-0.0004
526.7097	-0.0013
526.9065	-0.0112
527.1033	-0.0157
527.3	-0.001
527.4968	-0.0024
527.6935	-0.0055
527.8903	-0.0011
528.087	-0.0094
528.2837	-0.002
528.4804	-0.0002
528.677	-0.013
528.8737	-0.0114
529.0703	0.0019
529.2669	-0.0095
529.4635	-0.0041
529.6601	0.0055
529.8567	0.0029
530.0532	-0.0132
530.2498	0.0069
530.4463	0.0044
530.6428	-0.005
530.8393	0.0016
531.0358	-0.0085
531.2322	-0.0025
531.4287	-0.0039
531.6251	-0.0154
531.8215	0.0062
532.0179	-0.0046
532.2143	0.0073
532.4107	-0.0022
532.607	-0.0038
532.8034	0.0028
532.9997	0.0003
533.196	0.002
533.3923	-0.0093
533.5886	-0.0026
533.7848	0.0036
533.9811	-0.0039
534.1773	-0.0027
534.3735	0.009
534.5697	-0.0058
534.7659	-0.0016
534.9621	-0.002
535.1582	-0.0111
535.3544	-0.0167
535.5505	-0.0101
535.7466	-0.008
535.9427	-0.0061
536.1387	-0.0122
536.3348	-0.0047
536.5308	0.0017
536.7269	-0.029
536.9229	0.0029
537.1189	-0.0009
537.3148	-0.0014
537.5108	-0.0059
537.7068	0.0092
537.9027	0.0083
538.0986	-0.0072
538.2945	-0.0122
538.4904	-0.0014
538.6863	-0.0095
538.8821	-0.0068
539.078	-0.0051
539.2738	-0.0006
539.4696	-0.0043
539.6654	0.0023
539.8611	0.0124
540.0569	-0.0085
540.2526	0.0051
540.4484	-0.0037
540.6441	-0.0013
540.8398	-0.0001
541.0355	0.0044
541.2311	-0.009
541.4268	-0.0122
541.6224	0.0053
541.818	0.0089
542.0136	-0.0019
542.2092	0.0021
542.4048	0.0021
542.6003	-0.0035
542.7959	-0.0036
542.9914	-0.0004
543.1869	0.0107
543.3824	-0.0034
543.5779	-0.0017
543.7734	-0.0017
543.9688	-0.0079
544.1642	0.0038
544.3596	-0.0059
544.555	-0.0076
544.7504	-0.0011
544.9458	-0.0012
545.1411	-0.0051
545.3365	-0.0028
545.5318	-0.0102
545.7271	-0.0075
545.9224	-0.0034
546.1177	0.0031
546.3129	0.0036
546.5081	-0.0018
546.7034	-0.0013
546.8986	-0.0023
547.0938	-0.0005
547.289	-0.0098
547.4841	0.0014
547.6793	0.008
547.8744	-0.0113
548.0695	-0.0064
548.2646	-0.0075
548.4597	-0.0026
548.6548	-0.0016
548.8498	0.0043
549.0448	-0.0008
549.2399	-0.0081
549.4349	0.007
549.6298	-0.0109
549.8248	-0.003
550.0198	0.0065
550.2147	-0.002
550.4096	-0.005
550.6045	-0.0046
550.7994	0.0013
550.9943	-0.0042
551.1892	0.0026
551.384	0.012
551.5788	-0.0107
551.7737	0.0015
551.9685	-0.0043
552.1632	0.0019
552.358	-0.0062
552.5528	0.0075
552.7475	0.0024
552.9422	0.0017
553.1369	-0.0004
553.3316	-0.0008
553.5263	-0.0009
553.7209	0.0028
553.9156	-0.0026
554.1102	-0.0082
554.3048	0.0022
554.4994	-0.0032
554.694	-0.0027
554.8885	0.0005
555.0831	-0.0062
555.2776	-0.0003
555.4721	0.0039
555.6666	-0.0045
555.8611	0.0053
556.0555	-0.0046
556.25	-0.0027
556.4444	-0.0021
556.6388	0.0068
556.8332	-0.0038
557.0276	-0.0054
557.222	0.0002
557.4163	-0.0054
557.6107	-0.0116
557.805	0.0046
557.9993	-0.0014
558.1936	0.0015
558.3879	0.0017
558.5821	0.0096
558.7764	-0.001
558.9706	-0.0023
559.1648	0.0058
559.359	-0.0034
559.5532	-0.0034
559.7473	-0.0076
559.9415	-0.0006
560.1356	-0.0049
560.3297	-0.0062
560.5238	-0.0074
560.7179	0.0033
560.9119	-0.001
561.106	-0.0013
561.3	-0.0056
561.494	0.0006
561.688	-0.0071
561.882	-0.0073
562.076	-0.0012
562.2699	0.0013
562.4639	-0.0029
562.6578	-0.0053
562.8517	-0.0046
563.0456	0.0005
563.2395	0.004
563.4333	-0.0052
563.6272	0.006
563.821	-0.0036
564.0148	0.0045
564.2086	-0.0057
564.4024	-0.0061
564.5961	-0.0034
564.7899	0.005
564.9836	0.0006
565.1773	0.0008
565.371	0.0065
565.5647	-0.0017
565.7584	0.0121
565.952	0.0028
566.1456	0.0069
566.3393	-0.0054
566.5329	-0.0039
566.7264	0.0022
566.92	0.0004
567.1136	-0.0065
567.3071	0.0016
567.5006	-0.0047
567.6941	-0.0027
567.8876	-0.0009
568.0811	-0.0035
568.2745	-0.0011
568.468	0.0057
568.6614	0.0113
568.8548	0.0033
569.0482	0.0004
569.2416	0.0074
569.4349	0.0052
569.6283	0.0049
569.8216	0.002
570.0149	-0.0028
570.2082	0.0101
570.4015	0.0136
570.5947	0.0073
570.788	0.0055
570.9812	0.009
571.1744	0.0013
571.3676	-0.0039
571.5608	-0.0023
571.754	0.0038
571.9471	0.0044
572.1402	-0.0053
572.3333	-0.0021
572.5264	0.0051
572.7195	0.0001
572.9126	0.0046
573.1057	0.0038
573.2987	-0.0002
573.4917	0.0053
573.6847	-0.0019
573.8777	0.0101
574.0707	0.0088
574.2636	0.0017
574.4566	0.0008
574.6495	0.0115
574.8424	0.0027
575.0353	0.0094
575.2281	0.0051
575.421	0.0012
575.6138	0.0055
575.8067	0.0016
575.9995	0.0012
576.1923	0.0044
576.385	0.0004
576.5778	0.0056
576.7706	-0.0006
576.9633	0.0043
577.156	0.01
577.3487	-0.0004
577.5414	0.0014
577.734	-0.0009
577.9267	0.0078
578.1193	-0.0095
578.3119	-0.0046
578.5045	0.0115
578.6971	-0.001
578.8897	0.0035
579.0822	0.0047
579.2747	0.0026
579.4673	-0.0015
579.6598	0.0018
579.8522	0.002
580.0447	-0.0069
580.2372	-0.0014
580.4296	0.003
580.622	-0.0057
580.8144	0
581.0068	0.0018
581.1992	-0.0055
581.3915	0.0013
581.5839	-0.0016
581.7762	-0.0031
581.9685	-0.0027
582.1608	0.0033
582.353	0.0022
582.5453	0.0032
582.7375	0.0038
582.9298	0.0065
583.122	0.0025
583.3142	0.007
583.5063	-0.0024
583.6985	0.0026
583.8906	-0.0032
584.0827	-0.0033
584.2749	0.0066
584.4669	0.0058
584.659	0.0061
584.8511	0.001
585.0431	0.0042
585.2352	0.0093
585.4272	0.0025
585.6192	0.007
585.8111	0.001
586.0031	0.0037
586.195	0.0036
586.387	0.0117
586.5789	0.0058
586.7708	0.0079
586.9627	0.0008
587.1545	-0.0024
587.3464	0.0044
587.5382	0.0036
587.73	0.008
587.9218	0.0043
588.1136	0.0003
588.3053	0.0098
588.4971	-0.0058
588.6888	-0.0104
588.8805	0.0034
589.0722	0.0053
589.2639	0.0039
589.4556	0.0038
589.6472	0.0016
589.8389	-0.0013
590.0305	-0.0049
590.2221	0.0062
590.4137	-0.0029
590.6052	0.011
590.7968	0.0035
590.9883	0.0069
591.1798	-0.0029
591.3713	0.0026
591.5628	0.0054
591.7543	0.0063
591.9458	0.009
592.1372	0.0156
592.3286	0.0072
592.52	0.0068
592.7114	0.0031
592.9028	0.0057
593.0941	0.0034
593.2855	0.003
593.4768	0.0011
593.6681	0.0039
593.8594	-0.0013
594.0506	0.0109
594.2419	0.0104
594.4331	0.009
594.6244	0.0057
594.8156	0.0006
595.0067	0.0041
595.1979	0.0038
595.3891	-0
595.5802	-0.0031
595.7713	-0.0038
595.9624	-0.0055
596.1535	0.0074
596.3446	0.0026
596.5357	0.0017
596.7267	0.0107
596.9177	-0.0046
597.1087	-0.003
597.2997	0.004
597.4907	0.0037
597.6817	0.0044
597.8726	0.0037
598.0635	-0.0056
598.2544	0.0077
598.4453	-0.0001
598.6362	0.0022
598.827	-0.005
599.0179	-0.001
599.2087	0.0059
599.3995	-0.0029
599.5903	0.0061
599.7811	0.0028
599.9718	-0.0012
600.1626	0.0017
600.3533	-0.004
600.544	0.0022
600.7347	-0.0008
600.9254	0.0043
601.116	-0.0038
601.3067	0.0008
601.4973	0.0021
601.6879	0.0052
601.8785	-0.0016
602.0691	0.0026
602.2596	0.0114
602.4502	0.0066
602.6407	0.0044
602.8312	0.0018
603.0217	0.0003
603.2122	0.0101
603.4027	0.0064
603.5931	-0.0013
603.7835	-0.0023
603.9739	-0.0002
604.1643	-0.0035
604.3547	-0.0006
604.5451	0.0067
604.7354	0.003
604.9257	0.0076
605.116	0.0008
605.3063	0.0015
605.4966	0.007
605.6869	0.0074
605.8771	0.0154
606.0673	0.0044
606.2575	0.0112
606.4477	0.0073
606.6379	0.0042
606.8281	0.0013
607.0182	0.0003
607.2083	0.0119
607.3985	0.0033
607.5885	0.0052
607.7786	0.0058
607.9687	-0.0011
608.1587	0.0047
608.3488	0.0048
608.5388	-0.0021
608.7288	-0.005
608.9187	-0.0038
609.1087	0.0063
609.2986	-0.0036
609.4886	0.0048
609.6785	0.0005
609.8684	0.0064
610.0582	0.0058
610.2481	0.0035
610.4379	0.0078
610.6278	-0.0059
610.8176	0.0011
611.0074	-0.0036
611.1971	0.0026
611.3869	-0.0004
611.5766	-0.0019
611.7664	0.0063
611.9561	0.0085
612.1458	0.0046
612.3354	-0.0028
612.5251	0.0015
612.7147	0.0121
612.9044	0.0106
613.094	-0.0012
613.2836	0.0067
613.4731	-0.0004
613.6627	0.0033
613.8522	0.0035
614.0417	0.0089
614.2313	0.0033
614.4207	0.0009
614.6102	-0.0004
614.7997	-0.0002
614.9891	-0.0097
615.1785	0.0044
615.3679	-0.0028
615.5573	0.01
615.7467	-0.002
615.9361	-0.0041
616.1254	-0.0037
616.3147	-0.0006
616.504	0.0016
616.6933	0.0013
616.8826	0.0057
617.0718	0.0068
617.2611	0.0053
617.4503	-0.0005
617.6395	0.0023
617.8287	0.0041
618.0179	-0.0004
618.207	0.0142
618.3961	0.0035
618.5853	0.0072
618.7744	0.0111
618.9634	0.0163
619.1525	0.0109
619.3416	0.0049
619.5306	0.0027
619.7196	0.0079
619.9086	0.0001
620.0976	0.0072
620.2866	0.0068
620.4755	0.0085
620.6645	0.0107
620.8534	0.0103
621.0423	0.0103
621.2312	0.0098
621.42	0.0018
621.6089	0.0038
621.7977	0.004
621.9865	-0.0039
622.1753	0.004
622.3641	0.0053
622.5529	0.0139
622.7416	0.0079
622.9303	0.0072
623.1191	0.0056
623.3078	0.0002
623.4964	0.0098
623.6851	0.0001
623.8737	0.0055
624.0624	0.0107
624.251	-0.001
624.4396	0.005
624.6282	0.0085
624.8167	0.0086
625.0053	0.0061
625.1938	0.0138
625.3823	-0.0004
625.5708	0.0023
625.7593	-0.0053
625.9477	-0.0024
626.1362	-0.0029
626.3246	0.006
626.513	0.0046
626.7014	0.0067
626.8898	0.0049
627.0781	0.0029
627.2665	-0.0025
627.4548	0.0069
627.6431	0.0046
627.8314	0.0077
628.0197	0.0049
628.2079	-0.0111
628.3962	0.0045
628.5844	0.0033
628.7726	0.0084
628.9608	0.0098
629.1489	0.0022
629.3371	0.0048
629.5252	0.0016
629.7134	0.011
629.9015	0.005
630.0895	0.0082
630.2776	0.006
630.4657	-0.0021
630.6537	0.0012
630.8417	-0.001
631.0297	0.0022
631.2177	-0.0012
631.4057	-0.0051
631.5936	0.0073
631.7815	0.0098
631.9695	0.0039
632.1574	0.0096
632.3452	0.0215
632.5331	0.0119
632.7209	0.0023
632.9088	0.0106
633.0966	0.0086
633.2844	0.0054
633.4722	0.0004
633.6599	0.0113
633.8477	0.0002
634.0354	0.0053
634.2231	-0.004
634.4108	0.0077
634.5985	0.0152
634.7861	0.0011
634.9738	0.0053
635.1614	0.0024
635.349	0.0013
635.5366	-0.001
635.7242	0.0008
635.9117	0.0061
636.0993	0.0009
636.2868	0.0067
636.4743	-0.0021
636.6618	0.012
636.8492	0.0066
637.0367	0.0092
637.2241	0.0042
637.4115	-0.0007
637.5989	-0.0011
637.7863	0.0023
637.9737	0.007
638.161	0.0094
638.3484	0.0041
638.5357	0.0124
638.723	0.0017
638.9103	0.0078
639.0975	0.0095
639.2848	0.0076
639.472	0.0018
639.6592	0.0128
639.8464	0.0098
640.0336	0.0151
640.2208	0.0075
640.4079	-0.0038
640.595	0.0096
640.7821	-0.0012
640.9692	0.0079
641.1563	0.004
641.3434	0.0038
641.5304	-0.0007
641.7174	0.0068
641.9044	0.0047
642.0914	0.0064
642.2784	0.0073
642.4653	0.0131
642.6523	0.0032
642.8392	0.0008
643.0261	0.0067
643.213	0.0081
643.3999	-0.0078
643.5867	-0.0061
643.7735	-0.0003
643.9604	-0.0085
644.1472	0.0046
644.3339	0.006
644.5207	0.0084
644.7075	-0.0006
644.8942	0.0063
645.0809	0.0137
645.2676	0.0098
645.4543	0.0018
645.6409	0.0116
645.8276	0.0059
646.0142	0.0089
646.2008	0.0016
646.3874	0.0003
646.574	-0.0029
646.7605	0.0011
646.9471	-0.0168
647.1336	0.008
647.3201	0.003
647.5066	0.005
647.6931	0.011
647.8795	0.0047
648.0659	0.0082
648.2524	0.0087
648.4388	-0.0025
648.6252	0.0055
648.8115	0.0032
648.9979	-0.001
649.1842	0.0061
649.3705	0.001
649.5568	0.0039
649.7431	0.0092
649.9294	0.005
650.1156	0.0097
650.3018	-0.0015
650.488	0.0071
650.6742	0.0108
650.8604	0.0108
651.0466	0.0034
651.2327	0.0078
651.4188	0.0029
651.6049	-0.0045
651.791	0.0068
651.9771	0.0137
652.1632	0.009
652.3492	0.0094
652.5352	0.0101
652.7212	0.0057
652.9072	0.0072
653.0932	0.002
653.2791	-0.0067
653.465	0.0053
653.651	-0.0065
653.8369	0.0057
654.0227	-0.0046
654.2086	0.0112
654.3944	0.0079
654.5803	0.0042
654.7661	0.003
654.9519	0.0047
655.1377	-0.0042
655.3234	-0.0019
655.5092	0.0006
655.6949	-0.0042
655.8806	-0.0048
656.0663	0.0006
656.2519	0.0003
656.4376	0.001
656.6232	0.003
656.8088	-0.0011
656.9945	0.0044
657.18	0.008
657.3656	0.0084
657.5511	-0.0002
657.7367	0.0018
657.9222	0.0081
658.1077	0.0034
658.2932	0.0027
658.4786	-0.0098
658.6641	0.0028
658.8495	0.0043
659.0349	0.0044
659.2203	0.0125
659.4057	0.0121
659.591	0.0136
659.7764	0.0097
659.9617	0.0012
660.147	0.0058
660.3323	0.0086
660.5176	0.0087
660.7028	0.0075
660.888	0.005
661.0733	0.012
661.2585	-0.0014
661.4436	0.0005
661.6288	0.0032
661.8139	0.0009
661.9991	0.0023
662.1842	0.0019
662.3693	0.0075
662.5544	0.0069
662.7394	0.0045
662.9245	0.0054
663.1095	0.0115
663.2945	0.0105
663.4795	0.0009
663.6644	0.0086
663.8494	0.0114
664.0343	0.0132
664.2193	0.0004
664.4042	0.0035
664.589	-0.0017
664.7739	0.0099
664.9587	-0.0007
665.1436	0.0097
665.3284	0.0112
665.5132	-0.0005
665.698	0.0047
665.8827	0.0072
666.0675	0.0092
666.2522	-0.001
666.4369	0.0106
666.6216	0.0107
666.8063	0.0093
666.9909	0.0028
667.1756	0.0058
667.3602	0.0083
667.5448	0.0011
667.7294	0.0122
667.9139	0.004
668.0985	0.0159
668.283	0.004
668.4675	0.0063
668.652	0.0039
668.8365	0.0068
669.0209	0.0106
669.2054	0.0122
669.3898	0.0052
669.5742	0.0058
669.7586	0.0127
669.943	0.0097
670.1273	0.0038
670.3117	0.0038
670.496	0.0121
670.6803	0.0131
670.8646	0.0091
671.0488	0.0082
671.2331	0.0101
671.4173	0.0089
671.6015	0.0078
671.7857	0.0054
671.9699	0.0129
672.1541	0.0068
672.3382	0.0026
672.5223	0.0014
672.7064	0.0043
672.8905	0.01
673.0746	0.011
673.2587	0.0058
673.4427	0.0155
673.6267	0.0107
673.8107	0.0156
673.9947	0.0154
674.1787	0.0074
674.3626	0.0021
674.5465	0.0138
674.7304	0.0092
674.9143	0.0087
675.0982	0.0054
675.2821	-0.0053
675.4659	0.0084
675.6497	0.0036
675.8335	-0.0054
676.0173	0.005
676.2011	0.0025
676.3849	0.0006
676.5686	-0.0014
676.7523	0.0075
676.936	0.006
677.1197	0.0054
677.3034	-0.0039
677.487	0.0067
677.6706	0.0029
677.8542	0.0056
678.0378	-0.0035
678.2214	-0.0003
678.405	-0.0011
678.5885	-0.002
678.772	0.0012
678.9555	0.0036
679.139	-0.0052
679.3225	0.0009
679.5059	-0.0005
679.6894	0.0032
679.8728	0.0053
680.0562	-0.0014
680.2395	0.0046
680.4229	0.0018
680.6062	0.0064
680.7896	0.0077
680.9729	-0.004
681.1562	0.0003
681.3394	0.0039
681.5227	-0.0012
681.7059	-0.0045
681.8891	0.0029
682.0723	0.0091
682.2555	0.0042
682.4387	-0.002
682.6218	-0.0037
682.805	0.0072
682.9881	0.0045
683.1712	-0.0028
683.3542	-0.0029
683.5373	0.0018
683.7203	-0.0017
683.9034	0.0057
684.0864	-0.0058
684.2694	0.0077
684.4523	0.0094
684.6353	-0.0034
684.8182	0.0009
685.0011	-0.0067
685.184	0.0036
685.3669	0.0015
685.5498	0.0048
685.7326	0.0055
685.9154	-0.0003
686.0982	0.0104
686.281	0.0083
686.4638	0.0059
686.6465	-0.0005
686.8293	0.0021
687.012	0.0028
687.1947	-0.0075
687.3774	0.0078
687.56	0.0043
687.7427	0.0092
687.9253	0.0007
688.1079	0.0059
688.2905	0.0106
688.4731	0.0045
688.6556	0.0073
688.8382	-0.0007
689.0207	0.0056
689.2032	-0.0004
689.3857	-0.0054
689.5681	0.0088
689.7506	-0.0068
689.933	0.0027
690.1154	-0.0029
690.2978	0.0028
690.4802	0.0108
690.6626	-0.0033
690.8449	0.0021
691.0272	0.0044
691.2095	-0.0018
691.3918	-0.0033
691.5741	0.0109
691.7563	0.0036
691.9386	0.0081
692.1208	-0.0005
692.303	0.0036
692.4852	-0.0023
692.6673	0.0024
692.8495	0.0001
693.0316	0.0042
693.2137	0.0045
693.3958	0.0049
693.5778	0.0042
693.7599	0.0071
693.9419	0.0034
694.1239	0.0046
694.3059	0.0023
694.4879	0.0099
694.6699	0.0127
694.8518	0.0058
695.0337	-0.0001
695.2157	0.0086
695.3975	0.0102
695.5794	0.008
695.7613	0.0032
695.9431	0.0041
696.1249	0.011
696.3067	0.0011
696.4885	-0.0017
696.6703	-0.007
696.852	0.0096
697.0337	0.0068
697.2154	0.0106
697.3971	0.0085
697.5788	0.0013
697.7605	0.0026
697.9421	0.004
698.1237	-0.0013
698.3053	-0.0014
698.4869	-0.0033
698.6685	-0.008
698.85	-0.0046
699.0315	0.0118
699.213	0.0017
699.3945	0.0053
699.576	0.0037
699.7575	0.0037
699.9389	0.0052
700.1203	-0.0049
700.3017	-0.0068
700.4831	-0.0036
700.6645	0.0044
700.8458	0.0047
701.0271	-0.0057
701.2084	0.0127
701.3897	-0.0008
701.571	0.0024
701.7523	0.0013
701.9335	0.0087
702.1147	0.006
702.2959	0.0038
702.4771	0.0093
702.6583	0.0055
702.8394	0.0012
703.0205	-0.004
703.2016	-0.0026
703.3827	-0.0024
703.5638	0.0118
703.7449	0.0081
703.9259	0.0137
704.1069	-0.0038
704.2879	-0.0042
704.4689	0.0013
704.6499	0.0007
704.8308	0.0015
705.0117	-0.0056
705.1927	-0.0032
705.3735	0.0022
705.5544	-0.0022
705.7353	0.0033
705.9161	-0.003
706.0969	-0.0001
706.2777	0.0077
706.4585	0.0057
706.6393	0.0015
706.82	0.0004
707.0007	0.0071
707.1815	0.0029
707.3621	0.0144
707.5428	0.0042
707.7235	0.0115
707.9041	0.0048
708.0847	-0.0034
708.2653	0.0022
708.4459	-0.0016
708.6265	-0.0048
708.807	0.0008
708.9875	0.0037
709.168	0.0015
709.3485	-0.0004
709.529	0.0033
709.7095	-0.0084
709.8899	0.0026
710.0703	-0.0026
710.2507	0.0005
710.4311	-0.0034
710.6115	-0.0096
710.7918	-0.0035
710.9721	-0.001
711.1524	-0.0118
711.3327	0.0005
711.513	0.0028
711.6932	-0.0048
711.8735	0.0074
712.0537	0.0049
712.2339	-0.0045
712.4141	-0.0062
712.5942	-0.0023
712.7744	0.0025
712.9545	-0.0033
713.1346	-0.0007
713.3147	0.0047
713.4947	-0.0081
713.6748	-0.0053
713.8548	0.0023
714.0348	-0.001
714.2148	-0.0077
714.3948	0.0076
714.5748	-0.0033
714.7547	-0.001
714.9346	0.0088
715.1145	0.0061
715.2944	-0.0091
715.4743	0.0058
715.6541	-0.006
715.834	0.0011
716.0138	0.0026
716.1936	-0.0137
716.3733	-0.0069
716.5531	0.0105
716.7328	0.0016
716.9126	0.0064
717.0923	0.0035
717.2719	0.0021
717.4516	0.0086
717.6312	-0.0013
717.8109	-0.0016
717.9905	0.01
718.1701	-0.0044
718.3496	-0.0127
718.5292	0.006
718.7087	0.0014
718.8882	-0.0052
719.0677	0.0059
719.2472	0.0006
719.4267	-0.0003
719.6061	0.0041
719.7856	0.0065
719.965	0.0077
720.1443	-0.0062
720.3237	0.0165
720.5031	0.0003
720.6824	0.0079
720.8617	-0.002
721.041	0.0018
721.2203	0.0161
721.3995	0.001
721.5788	0.0005
721.758	0.0031
721.9372	-0.0023
722.1164	0.0016
722.2956	-0.0034
722.4747	-0.0017
722.6538	-0.0007
722.8329	0.0187
723.012	0.0074
723.1911	0.0028
723.3702	0.0085
723.5492	0.0157
723.7282	0.0042
723.9072	0.0095
724.0862	-0.0039
724.2652	0.0048
724.4441	0.0037
724.623	0.0013
724.8019	-0.0001
724.9808	0.003
725.1597	0.0021
725.3385	0.0007
725.5174	-0.002
725.6962	0.0016
725.875	0.0038
726.0538	0.0047
726.2325	-0.0012
726.4112	0.0021
726.59	0.0025
726.7687	-0.0158
726.9474	-0.0047
727.126	0.003
727.3047	-0.0122
727.4833	-0.0033
727.6619	-0.0104
727.8405	-0.0183
728.0191	-0.0063
728.1976	0.0009
728.3762	-0.005
728.5547	-0.0025
728.7332	-0.0108
728.9116	0.0035
729.0901	0.0033
729.2686	-0.0015
729.447	0.0044
729.6254	-0.006
729.8038	0.0016
729.9821	-0.0157
730.1605	0.0005
730.3388	0.0065
730.5171	0.0087
730.6954	-0.0041
730.8737	0.007
731.0519	0.0064
731.2302	0.0034
731.4084	0.0151
731.5866	0.0117
731.7648	-0.0018
731.9429	0.0071
732.1211	-0.0072
732.2992	-0.0025
732.4773	0.0063
732.6554	0.0043
732.8335	0.0012
733.0115	0.0109
733.1896	0.019
733.3676	-0.004
733.5456	0.005
733.7235	0.0073
733.9015	0.0021
734.0794	0.0034
734.2574	0.0008
734.4353	0.0073
734.6131	0.0139
734.791	0.0062
734.9689	0.0104
735.1467	0.0074
735.3245	0.0025
735.5023	0.0026
735.68	0.0027
735.8578	0.0122
736.0355	0.0028
736.2132	-0.0011
736.3909	0.0018
736.5686	-0.001
736.7463	0.0074
736.9239	-0.0006
737.1015	-0.0009
737.2791	0.0096
737.4567	-0.0034
737.6343	0.0014
737.8118	0.0023
737.9894	-0.0001
738.1669	0.0001
738.3444	-0.0023
738.5218	0.0058
738.6993	0.0033
738.8767	0.0009
739.0541	0.0024
739.2315	-0.0047
739.4089	0.006
739.5863	0.0069
739.7636	-0.0081
739.9409	0.0125
740.1182	0.0129
740.2955	0.0039
740.4728	0.0088
740.65	0.0034
740.8272	0.002
741.0044	-0.002
741.1816	0.0098
741.3588	-0.0033
741.5359	0.0034
741.7131	-0.0134
741.8902	-0.004
742.0673	-0.002
742.2444	-0.0089
742.4214	0.0044
742.5985	0.0003
742.7755	-0.0083
742.9525	-0.0081
743.1295	0.0033
743.3064	-0.0026
743.4834	0.0148
743.6603	-0.0011
743.8372	-0.0035
744.0141	0.004
744.191	0.0116
744.3678	0.001
744.5446	0
744.7215	0.0082
744.8982	0.0018
745.075	-0.0088
745.2518	0.0017
745.4285	-0.0005
745.6052	-0.0031
745.7819	0.0007
745.9586	-0.0119
746.1353	0.0026
746.3119	-0.006
746.4885	-0.0088
746.6651	-0.0106
746.8417	-0.0006
747.0183	-0.0031
747.1948	-0.0019
747.3714	-0.006
747.5479	0.0015
747.7244	-0.004
747.9008	0.0118
748.0773	0.0031
748.2537	-0.0041
748.4301	-0.0097
748.6065	0.0067
748.7829	0.0009
748.9593	0.0007
749.1356	0.0079
749.3119	0.0084
749.4882	-0.0011
749.6645	0.0049
749.8408	-0.0023
750.017	-0.0119
750.1933	0.0043
750.3695	-0.008
750.5457	0.0017
750.7218	0.0007
750.898	0.0012
751.0741	-0.0034
751.2502	0.0013
751.4263	-0.0035
751.6024	0.0016
751.7784	-0.0047
751.9545	0.0018
752.1305	0.0114
752.3065	-0.0046
752.4825	0.0015
752.6584	0.0037
752.8344	0.0014
753.0103	0.0017
753.1862	0.0008
753.3621	-0.0017
753.5379	-0.0042
753.7138	0.0042
753.8896	-0.0019
754.0654	0.0015
754.2412	0.0166
754.417	0.0099
754.5927	0.0039
754.7685	0.004
754.9442	0.0127
755.1199	0.0114
755.2956	-0.001
755.4712	0.0167
755.6469	0.012
755.8225	0.0027
755.9981	-0.005
756.1736	0.0006
756.3492	0.0025
756.5248	-0.0087
756.7003	-0.0007
756.8758	-0.0004
757.0513	-0.0111
757.2267	-0.0101
757.4022	-0.0012
757.5776	-0.009
757.753	-0.004
757.9284	-0.0032
758.1038	0.0095
758.2791	0.0059
758.4545	-0.0138
758.6298	0.0011
758.8051	0.0014
758.9803	-0.008
759.1556	0.0077
759.3308	-0.0132
759.506	0.007
759.6812	0.0083
759.8564	0.0078
760.0316	-0.0027
760.2067	0.01
760.3819	0.0108
760.557	0.0174
760.732	0.0058
760.9071	-0.0006
761.0821	0.0013
761.2572	0.0158
761.4322	0.0061
761.6072	-0.0007
761.7821	0.0062
761.9571	-0.0002
762.132	-0.0027
762.3069	-0.0064
762.4818	-0.003
762.6567	0.001
762.8316	-0.0057
763.0064	-0.0023
763.1812	0.0062
763.356	-0.0064
763.5308	-0.0016
763.7055	-0.0028
763.8803	0.0106
764.055	0.0001
764.2297	-0.0023
764.4044	-0.007
764.579	-0.0039
764.7537	-0.0174
764.9283	0.0026
765.1029	0.0055
765.2775	-0.007
765.4521	0.0034
765.6266	-0.001
765.8011	-0.0004
765.9756	0.0017
766.1501	0.0017
766.3246	0.001
766.4991	0.0006
766.6735	0.0045
766.8479	-0.0021
767.0223	0.0147
767.1967	0.0034
767.371	0.0017
767.5454	-0.0023
767.7197	0.0052
767.894	-0.0033
768.0683	-0.0033
768.2425	-0.0107
768.4168	-0.0032
768.591	0.0031
768.7652	0.0003
768.9394	-0.0003
769.1135	0.003
769.2877	0.0119
769.4618	-0.0014
769.6359	0.001
769.81	-0.0084
769.984	0.0012
770.1581	-0.0024
770.3321	0.0058
770.5061	-0.0039
770.6801	-0.0057
770.8541	-0.0021
771.028	0.0126
771.202	-0.01
771.3759	0.0058
771.5498	-0.0006
771.7236	0.0112
771.8975	0.0076
772.0713	0.0125
772.2451	-0.004
772.4189	0.0129
772.5927	0.0077
772.7665	0.0027
772.9402	0.004
773.1139	0.0126
773.2876	-0.0067
773.4613	0.0058
773.635	0.0148
773.8086	0.0058
773.9822	0.0004
774.1558	0.0134
774.3294	-0.0079
774.503	0.008
774.6765	0.0073
774.8501	0.0314
775.0236	0.015
775.1971	0.0112
775.3705	0.0027
775.544	0.0128
775.7174	-0.0018
775.8908	-0.0007
776.0642	0.0052
776.2376	0.0029
776.4109	0.0018
776.5843	0.0143
776.7576	0.007
776.9309	0.0243
777.1041	0.0104
777.2774	0.0084
777.4506	0.0125
777.6238	0.0037
777.797	0.0071
777.9702	0.0165
778.1434	0.0024
778.3165	-0.0061
778.4896	-0.0032
778.6627	-0.005
778.8358	0.001
779.0089	-0.0067
779.1819	-0.0071
779.3549	0.0014
779.5279	0.006
779.7009	-0.0033
779.8739	0.0051
780.0468	-0.0023
780.2197	0.0045
780.3926	0.0034
780.5655	0.0004
780.7384	-0.0049
780.9112	0.0015
781.0841	-0.0065
781.2569	0.0059
781.4297	0.0068
781.6024	0.0197
781.7752	0.0026
781.9479	0.0023
782.1206	-0.0001
782.2933	0.0074
782.466	0.0128
782.6386	0.0153
782.8113	-0.0092
782.9839	0.0181
783.1565	0.0156
783.329	0.0128
783.5016	0.0079
783.6741	0.0148
783.8466	0.0113
784.0191	0.0145
784.1916	0.011
784.3641	0.0073
784.5365	0.0187
784.7089	0.0084
784.8813	0
785.0537	0.0109
785.2261	0.0019
785.3984	-0.0004
785.5707	0.0105
785.743	0.0017
785.9153	-0.0015
786.0876	0.0035
786.2598	0.0034
786.432	-0.008
786.6042	0.011
786.7764	-0.0014
786.9486	0.0115
787.1207	-0.0059
787.2928	0.019
787.4649	0.0052
787.637	0.0118
787.8091	0.0041
787.9811	0.0061
788.1532	0.0047
788.3252	0.0142
788.4972	-0.0066
788.6691	0.0028
788.8411	0.0056
789.013	-0.0009
789.1849	0.0139
789.3568	0.0033
789.5287	0.0072
789.7005	-0.0027
789.8723	0.0042
790.0442	0.0196
790.2159	-0.0021
790.3877	0.0153
790.5595	-0.005
790.7312	0.0121
790.9029	0.0145
791.0746	0.0031
791.2463	0.002
791.4179	-0.0004
791.5896	-0.0062
791.7612	-0.0091
791.9328	0.0131
792.1044	-0.0079
792.2759	-0.0104
792.4474	-0.0014
792.619	-0.0107
792.7905	-0.0014
792.9619	0.0076
793.1334	0.0155
793.3048	0.0116
793.4762	0.0112
793.6476	0.0019
793.819	-0.0088
793.9904	0.0076
794.1617	-0.0116
794.333	0.0059
794.5043	-0.0037
794.6756	0.0084
794.8469	0.0122
795.0181	0.001
795.1893	-0.0123
795.3605	0.0106
795.5317	-0.01
795.7029	0.0038
795.874	0.0045
796.0452	0.0024
796.2163	-0.0045
796.3873	0.0267
796.5584	-0.0045
796.7294	0.005
796.9005	0.0273
797.0715	0.0135
797.2425	0
797.4134	-0.0101
797.5844	0.006
797.7553	0.0051
797.9262	0.0083
798.0971	-0.0064
798.2679	-0.0002
798.4388	-0.0222
798.6096	0.0037
798.7804	-0.0047
798.9512	0.0125
799.122	-0.0024
799.2927	0.0062
799.4635	0.0239
799.6342	-0.024
799.8049	-0.013
799.9755	-0.0074
800.1462	0.01
800.3168	0.0145
800.4874	-0.0031
800.658	0.0095
800.8286	0.0103
800.9991	0.0082
801.1696	0.0131
801.3402	0.0203
801.5106	0.0002
801.6811	0.0131
801.8516	0.0212
802.022	0.0045
802.1924	0.0194
802.3628	0.0082
802.5332	0.0214
802.7035	0.031
802.8739	-0.0075
803.0442	0.002
803.2145	0.024
803.3847	-0.0107
803.555	0.0108
803.7252	0.0136
803.8954	-0.0083
804.0656	-0.0062
804.2358	0.0062
804.4059	0.018
804.5761	0.0105
804.7462	-0.0017
804.9163	0.0029
805.0864	-0.0038
805.2564	-0.0073
805.4264	-0.0093
805.5965	-0.0047
805.7665	0.0045
805.9364	0.0018
806.1064	0.0267
806.2763	0.0022
806.4462	0.0231
806.6161	0.0092
806.786	0.0081
806.9559	-0.002
807.1257	0.0075
807.2955	0.0135
807.4653	0.0014
807.6351	0.0024
807.8048	0.0047
807.9746	0.0093
808.1443	0.0083
808.314	-0.0071
808.4837	0.0062
808.6533	0.0123
808.8229	0.0359
808.9926	0.0289
809.1622	0.0176
809.3317	-0.0039
809.5013	0.0127
809.6708	0.0162
809.8403	0.0003
810.0098	0.0003
810.1793	0.0008
810.3488	-0.0089
810.5182	-0.0182
810.6876	0.0123
810.857	-0.0167
811.0264	0.027
811.1958	-0.0094
811.3651	-0.0041
811.5344	0.0019
811.7037	-0.0147
811.873	-0.0032
812.0422	0.0053
812.2115	-0.0182
812.3807	-0.0241
812.5499	0.0079
812.7191	0.0068
812.8882	-0.0159
813.0574	-0.003
813.2265	0.0074
813.3956	-0.0114
813.5646	-0.0202
813.7337	-0.0083
813.9027	0.0044
814.0718	0.0097
814.2407	0.0329
814.4097	-0.0014
814.5787	-0.0154
814.7476	0.0077
814.9165	0.0076
815.0854	-0.0064
815.2543	0.0038
815.4232	0.0061
815.592	0.0256
815.7608	-0.0015
815.9296	-0.0006
816.0984	0.0189
816.2671	0.0185
816.4359	-0.0042
816.6046	0.0095
816.7733	-0.0012
816.942	-0.0321
817.1106	0.0135
817.2793	0.0179
817.4479	0.0252
817.6165	0.0341
817.785	-0.0106
817.9536	-0.0042
818.1221	-0.006
818.2906	0.0061
818.4591	0.0157
818.6276	0.0159
818.7961	0.0114
818.9645	0.0108
819.1329	0.0215
819.3013	0.0244
819.4697	0.0443
819.638	0.0028
819.8064	0.0199
819.9747	0.0295
820.143	0.0321
820.3113	-0.0223
820.4795	0.0103
820.6477	-0.0048
820.816	0.0142
820.9842	-0.0021
821.1523	-0.0014
821.3205	-0.0191
821.4886	0.0058
821.6567	0.004
821.8248	0.0346
821.9929	0.0401
822.1609	0.0008
822.329	0.0194
822.497	0.0183
822.665	0.002
822.833	0.0043
823.0009	-0.0022
823.1688	0.0288
823.3367	0.0136
823.5046	0.0507
823.6725	0.0433
823.8404	0.0177
824.0082	0.0401
824.176	0.0409
824.3438	0.0288
824.5116	0.0038
824.6793	0.0104
824.847	0.0204
825.0147	0.0126
825.1824	0.0342
825.3501	0.0384
825.5177	-0.0092
825.6854	-0.0173
825.853	-0.007
826.0206	-0.031
826.1881	0.0387
826.3557	-0.0323
826.5232	0.0097
826.6907	-0.0266
826.8582	-0.0102
827.0257	-0.0233
827.1931	0.0115
827.3605	0.0337
827.528	0.0137
827.6953	-0.0031
827.8627	-0.0205
828.03	0.0221
828.1974	0.0158
828.3647	-0.027
828.532	0.006
828.6992	-0.0295
828.8665	0.0044
829.0337	-0.0221
829.2009	0.0194
829.3681	0.0204
829.5352	0.0153
829.7024	-0.0321
829.8695	-0.0349
830.0366	0.0599
830.2037	-0.0055
830.3707	0.0302
830.5378	-0.0157
830.7048	0
830.8718	0.0044
831.0388	0.0076
831.2057	0.018
831.3727	0.0074
831.5396	-0.0139
831.7065	0.0316
831.8734	0.0132
832.0402	-0.0203
832.2071	-0.0187
832.3739	-0.0089
832.5407	-0.0029
832.7075	-0.0225
832.8742	-0.0227
833.041	-0.0308
833.2077	0.0031
833.3744	0.0256
833.541	-0.0071
833.7077	-0.0098
833.8743	-0.0198
834.0409	0.0099
834.2075	-0.0161
834.3741	-0.003
834.5407	0.0216
834.7072	0.0162
834.8737	-0.0059
835.0402	-0.0132
835.2067	0.0127
835.3731	0.0014
835.5395	0.0157
835.706	0.0322
835.8723	-0.0217
836.0387	0.0117
836.2051	-0.0013
836.3714	-0.0167
836.5377	0.0162
836.704	-0.0215
836.8703	-0.0106
837.0365	0.0195
837.2027	-0.0163
837.3689	0.0165
837.5351	0.0177
837.7013	0.0018
837.8674	-0.0103
838.0335	-0.0328
838.1997	0.0042
838.3657	-0.0568
838.5318	-0.0185
838.6978	0.0545
838.8639	-0.0066
839.0299	-0.0307
839.1958	0.008
839.3618	-0.0184
839.5277	-0.0415
839.6937	0.0109
839.8596	0.0262
840.0254	0.0309
840.1913	0.0489
840.3571	0.0098
840.523	0.0343
840.6888	-0.0731
840.8545	-0.0412
841.0203	-0.0279
841.186	-0.0076
841.3517	0.0202
841.5174	0.0356
841.6831	-0.0352
841.8488	-0.0269
842.0144	0.0236
842.18	-0.0104
842.3456	0.0332
842.5112	0.0042
842.6767	-0.0275
842.8422	0.0098
843.0077	0.0158
843.1732	-0.0226
843.3387	-0.0441
843.5042	-0.0357
843.6696	0.0086
843.835	0.0033
844.0004	0.0271
844.1657	-0.0009
844.3311	-0.0659
844.4964	-0.0744
844.6617	-0.0382
844.827	-0.0022
844.9923	-0.0211
845.1575	0.0097
845.3227	0.0001
845.4879	0.0035
845.6531	-0.0408
845.8183	-0.0647
845.9834	0.0406
846.1485	-0.0283
846.3136	-0.0234
846.4787	-0.1105
846.6438	0.0184
846.8088	-0.0345
846.9738	-0.0518
847.1388	-0.0285
847.3038	-0.0389
847.4687	-0.1736
847.6337	-0.0311
847.7986	-0.0452
847.9635	-0.02
848.1284	-0.012
848.2932	0.1225
848.458	-0.0247
848.6228	0.0244
848.7876	0.1044
848.9524	-0.0756
849.1172	-0.0556
849.2819	0.026
849.4466	-0.0865
849.6113	-0.149
849.7759	-0.0472
849.9406	-0.01
850.1052	0.0292
850.2698	-0.073
850.4344	-0.019
850.599	-0.0736
850.7635	0.0809
850.928	0.0304
851.0925	0.0158
851.257	0.0371
851.4215	0.0265
851.5859	-0.0085
851.7503	0.0001
851.9147	0.0433
852.0791	-0.0472
852.2434	-0.0362
852.4078	-0.0015
852.5721	0.0914
852.7364	-0.0178
852.9007	-0.1757
853.0649	-0.032
853.2291	-0.024
853.3934	0.0313
853.5575	-0.139
853.7217	-0.1965
853.8859	-0.2021
854.05	-0.0353
854.2141	-0.0648
854.3782	-0.1393
854.5423	-0.0347
854.7063	0.1349
854.8703	-0.0518
855.0343	-0.1453
855.1983	-0.1281
855.3623	0.1937
855.5262	0.0717
855.6901	-0.1015
855.854	0.0575
856.0179	0.0469
856.1818	0.0628
856.3456	-0.0714
856.5094	-0.1531
856.6732	-0.1017
856.837	-0.0245
857.0008	-0.0081
857.1645	-0.1432
857.3282	-0.0104
857.4919	-0.0757
857.6556	0.0571
857.8192	-0.0581
857.9828	-0.0751
858.1465	0.0244
858.31	-0.1702
858.4736	-0.0867
858.6372	-0.1878
858.8007	-0.0046
858.9642	-0.0825
859.1277	-0.0596
859.2911	-0.1233
859.4546	-0.0166
859.618	-0.4315
859.7814	0.147
859.9448	-0.2274
860.1081	-0.1068
860.2715	0.1042
860.4348	0.4951
860.5981	-0.0692
860.7614	0.224
860.9246	-0.2552
861.0879	-0.0825
861.2511	0.056
861.4143	-0.3204
861.5774	0.2092
861.7406	-0.106
861.9037	0.1238
862.0668	-0.1502
862.2299	-0.1505
862.393	-0.4281
862.556	-0.1966
862.7191	0.1065
862.8821	-0.2903
863.0451	0.0468
863.208	0.2043
863.371	-0.0502
863.5339	-0.2577
863.6968	-0.0236
863.8597	0.0125
864.0225	0.0442
864.1854	-0.1032
864.3482	0.2142
864.511	0.1633
864.6737	-0.0774
864.8365	0.0082
864.9992	-0.6409
865.1619	-0.198
865.3246	-0.2845
865.4873	0.064
865.65	0.3675
865.8126	-0.0718
865.9752	0.301
866.1378	-0.0554
866.3004	-0.1093
866.4629	0.0286
866.6254	2.5866
866.7879	-0.0449
866.9504	-0.046
867.1129	-0
867.2753	-0.0877
867.4377	0.1015
867.6001	-0.3926
867.7625	-0.0762
867.9249	-0
868.0872	-0.0926
868.2495	-0.2139
868.4118	-0.3502
868.5741	-0.1474
868.7363	-0.2518
868.8986	-0.375
869.0608	-0.1382
869.223	0.3952
869.3851	1.4328
869.5473	-0
869.7094	0.0055
869.8715	-0.1474
870.0336	-0
870.1957	-0.5379
870.3577	-0
870.5197	-0.2085
870.6817	-0.2985
870.8437	-0.1776
871.0057	-0.5546
871.1676	-0
871.3295	-0
871.4914	-0.0074
871.6533	-0.4574
871.8151	0.1264
871.977	-0
872.1388	-0
872.3006	-0.3676
872.4623	-0
872.6241	-0
872.7858	-0.1655
872.9475	-0.196
873.1092	-0.2778
873.2709	0.0253
873.4325	-0.2995
873.5941	-0.4584
873.7557	-0
873.9173	-0.5361
874.0789	-0.2327
874.2404	-0.7367
874.4019	0.2189
874.5634	-0.2731
874.7249	-0.2133
874.8863	0.2901
875.0478	-0.1858
875.2092	-0
875.3706	0.1126
875.5319	-0.8319
875.6933	-0.2426
875.8546	0.4984
876.0159	-0
876.1772	-0
876.3385	-0
876.4997	0.0455
876.6609	-0.522
876.8221	-0.5083
876.9833	0.1407
877.1445	-0
877.3056	0.1003
877.4667	0.0562
877.6278	-0
877.7889	-0.4372
877.9499	-0
878.111	-0
878.272	-0
878.433	-0
878.5939	-0
878.7549	0.7081
878.9158	-0.8193
879.0767	-0.1372
879.2376	0.5421
879.3984	0.2435
879.5593	-0
879.7201	-0.2935
879.8809	-0.7787
880.0417	-0.0764
880.2024	-0.1174
880.3632	1.415
880.5239	0.0758
880.6846	0.1519
880.8452	-2.6871
881.0059	-0
881.1665	-0.0681
881.3271	-0
881.4877	0.6884
881.6483	-0.6593
881.8088	-0.4458
881.9693	-0
882.1298	-0
882.2903	-0
