Data from MonoPyChalIsomerACN10uM360nmA_Absorbance_13-57-24-504.txt Node
Date: Fri Jul 05 13:57:24 BST 2024
User: LASERRRRR
Spectrometer: FLMT03099
Trigger mode: 0
Integration Time (sec): 1.000000E-1
Scans to average: 1
Electric dark correction enabled: true
Nonlinearity correction enabled: false
Boxcar width: 0
XAxis mode: Wavelengths
Number of Pixels in Spectrum: 3648
>>>>>Begin Spectral Data<<<<<
179.3399	0.0275
179.5586	0.0275
179.7771	0.0275
179.9957	-0
180.2143	1.0114
180.4329	-0.1525
180.6514	-0
180.8699	-0
181.0885	0.09
181.307	0.0632
181.5255	0.2576
181.744	-0.4718
181.9625	-0
182.181	-0
182.3994	-0
182.6179	-0
182.8363	0.1271
183.0547	-0.166
183.2732	0.1783
183.4916	-0.0405
183.71	0.0176
183.9284	0.133
184.1467	0.0861
184.3651	-0.0303
184.5835	-0.113
184.8018	-0
185.0201	0.1067
185.2385	0.1327
185.4568	0.1273
185.6751	0.4174
185.8934	0.4379
186.1117	0.0662
186.3299	-0.0234
186.5482	0.0804
186.7664	-0.1431
186.9847	-0.0375
187.2029	0.1478
187.4211	0.0447
187.6393	0.1311
187.8575	0.0598
188.0757	0.2748
188.2939	0.0902
188.512	-0.0202
188.7302	-0.0369
188.9483	0.1113
189.1665	0.0968
189.3846	-0.1803
189.6027	0.0488
189.8208	0.0715
190.0389	0.1453
190.257	0.2631
190.475	0.2534
190.6931	0.2426
190.9111	0.5162
191.1292	0.2659
191.3472	0.4465
191.5652	0.3117
191.7832	0.4613
192.0012	0.4813
192.2192	0.4297
192.4371	0.3675
192.6551	0.4101
192.873	0.4417
193.091	0.4263
193.3089	0.5172
193.5268	0.4853
193.7447	0.9211
193.9626	0.5174
194.1805	0.5678
194.3984	0.9112
194.6162	0.5338
194.8341	0.6023
195.0519	0.648
195.2697	0.8713
195.4875	0.5341
195.7054	0.5169
195.9231	0.5178
196.1409	0.7016
196.3587	0.7529
196.5765	0.4267
196.7942	0.6324
197.012	0.5044
197.2297	0.7216
197.4474	0.7946
197.6651	0.4192
197.8828	0.5713
198.1005	0.5915
198.3182	0.6265
198.5358	0.8184
198.7535	0.6862
198.9711	0.5777
199.1888	0.8156
199.4064	0.8002
199.624	0.5502
199.8416	0.6325
200.0592	0.6685
200.2767	0.5803
200.4943	0.6093
200.7119	0.7459
200.9294	0.6675
201.1469	0.6238
201.3645	0.5027
201.582	0.6493
201.7995	0.6414
202.017	0.6296
202.2344	0.6097
202.4519	0.7328
202.6694	0.7342
202.8868	0.5345
203.1042	0.8081
203.3217	0.6576
203.5391	0.5596
203.7565	0.5981
203.9739	0.646
204.1913	0.556
204.4086	0.7286
204.626	0.7271
204.8433	0.6351
205.0607	0.5095
205.278	0.6895
205.4953	0.7084
205.7126	0.7303
205.9299	0.7297
206.1472	0.6908
206.3644	0.6282
206.5817	0.6912
206.7989	0.7039
207.0162	0.6753
207.2334	0.6658
207.4506	0.5983
207.6678	0.6212
207.885	0.6939
208.1022	0.6334
208.3194	0.6523
208.5365	0.68
208.7537	0.5762
208.9708	0.5742
209.1879	0.558
209.405	0.692
209.6222	0.6907
209.8392	0.6352
210.0563	0.6357
210.2734	0.6711
210.4905	0.6118
210.7075	0.6344
210.9245	0.5976
211.1416	0.6263
211.3586	0.6682
211.5756	0.6058
211.7926	0.5956
212.0096	0.6106
212.2265	0.5747
212.4435	0.5736
212.6604	0.5917
212.8774	0.5756
213.0943	0.6147
213.3112	0.5503
213.5281	0.5314
213.745	0.5081
213.9619	0.5502
214.1788	0.4583
214.3956	0.4706
214.6125	0.487
214.8293	0.438
215.0461	0.4792
215.2629	0.4511
215.4798	0.4363
215.6965	0.4107
215.9133	0.4656
216.1301	0.4085
216.3469	0.4159
216.5636	0.4313
216.7803	0.3968
216.9971	0.3925
217.2138	0.39
217.4305	0.4101
217.6472	0.366
217.8639	0.3815
218.0805	0.3432
218.2972	0.3113
218.5138	0.3265
218.7305	0.312
218.9471	0.2992
219.1637	0.284
219.3803	0.3152
219.5969	0.3058
219.8135	0.2455
220.0301	0.2843
220.2466	0.2679
220.4632	0.2769
220.6797	0.2459
220.8962	0.2555
221.1127	0.2643
221.3292	0.2849
221.5457	0.2281
221.7622	0.25
221.9787	0.2461
222.1951	0.2494
222.4116	0.2476
222.628	0.2386
222.8444	0.2755
223.0608	0.2558
223.2772	0.2585
223.4936	0.2782
223.71	0.2595
223.9264	0.282
224.1427	0.2552
224.3591	0.2611
224.5754	0.2808
224.7917	0.2842
225.008	0.2677
225.2243	0.256
225.4406	0.2866
225.6569	0.2735
225.8732	0.273
226.0894	0.2701
226.3057	0.2758
226.5219	0.2815
226.7381	0.2764
226.9543	0.2927
227.1705	0.2856
227.3867	0.2747
227.6029	0.3222
227.8191	0.3329
228.0352	0.3082
228.2513	0.321
228.4675	0.3065
228.6836	0.3127
228.8997	0.2881
229.1158	0.3119
229.3319	0.3129
229.548	0.325
229.764	0.3343
229.9801	0.3465
230.1961	0.322
230.4121	0.3524
230.6282	0.3383
230.8442	0.3366
231.0602	0.3659
231.2761	0.3462
231.4921	0.3564
231.7081	0.3411
231.924	0.3414
232.14	0.382
232.3559	0.3601
232.5718	0.3581
232.7877	0.3726
233.0036	0.3391
233.2195	0.3617
233.4353	0.3867
233.6512	0.3683
233.867	0.3717
234.0829	0.3639
234.2987	0.3702
234.5145	0.3875
234.7303	0.3765
234.9461	0.4047
235.1619	0.3992
235.3776	0.3953
235.5934	0.3898
235.8091	0.384
236.0249	0.3791
236.2406	0.4019
236.4563	0.371
236.672	0.4058
236.8877	0.3999
237.1034	0.3914
237.319	0.398
237.5347	0.4197
237.7503	0.3982
237.966	0.4038
238.1816	0.3861
238.3972	0.4172
238.6128	0.3928
238.8284	0.415
239.0439	0.4154
239.2595	0.3982
239.475	0.4123
239.6906	0.4215
239.9061	0.4216
240.1216	0.424
240.3371	0.417
240.5526	0.4095
240.7681	0.4326
240.9836	0.3864
241.199	0.396
241.4145	0.3803
241.6299	0.3774
241.8453	0.3889
242.0607	0.3877
242.2761	0.3722
242.4915	0.3614
242.7069	0.361
242.9223	0.3483
243.1376	0.3528
243.353	0.3371
243.5683	0.3565
243.7836	0.3273
243.9989	0.3153
244.2142	0.3038
244.4295	0.3198
244.6448	0.2929
244.86	0.2965
245.0753	0.2791
245.2905	0.2821
245.5057	0.2809
245.721	0.2678
245.9362	0.2541
246.1514	0.2706
246.3665	0.2604
246.5817	0.2532
246.7969	0.2537
247.012	0.2407
247.2271	0.2256
247.4423	0.2474
247.6574	0.2334
247.8725	0.2288
248.0876	0.2261
248.3026	0.2314
248.5177	0.2191
248.7328	0.2134
248.9478	0.204
249.1628	0.2142
249.3779	0.2096
249.5929	0.2086
249.8079	0.2165
250.0228	0.1945
250.2378	0.2082
250.4528	0.1992
250.6677	0.1782
250.8827	0.1895
251.0976	0.2017
251.3125	0.1838
251.5274	0.1792
251.7423	0.1854
251.9572	0.1817
252.172	0.1876
252.3869	0.1776
252.6017	0.1743
252.8166	0.1782
253.0314	0.1694
253.2462	0.164
253.461	0.1769
253.6758	0.1726
253.8906	0.1747
254.1053	0.1732
254.3201	0.1619
254.5348	0.179
254.7496	0.1685
254.9643	0.17
255.179	0.1694
255.3937	0.1678
255.6083	0.1782
255.823	0.1667
256.0377	0.1641
256.2523	0.1615
256.467	0.1569
256.6816	0.1743
256.8962	0.1661
257.1108	0.1498
257.3254	0.1762
257.54	0.1775
257.7545	0.1676
257.9691	0.1638
258.1836	0.1645
258.3981	0.1806
258.6127	0.1759
258.8272	0.1586
259.0417	0.1624
259.2561	0.1695
259.4706	0.1753
259.6851	0.1668
259.8995	0.1632
260.114	0.1643
260.3284	0.1599
260.5428	0.1632
260.7572	0.1623
260.9716	0.1708
261.186	0.1552
261.4003	0.154
261.6147	0.1693
261.829	0.1528
262.0433	0.1686
262.2577	0.1658
262.472	0.164
262.6863	0.1551
262.9005	0.1628
263.1148	0.1596
263.3291	0.1396
263.5433	0.1678
263.7576	0.1715
263.9718	0.1593
264.186	0.1623
264.4002	0.1672
264.6144	0.1625
264.8286	0.1768
265.0427	0.1554
265.2569	0.1568
265.471	0.1521
265.6851	0.1515
265.8993	0.1559
266.1134	0.1583
266.3275	0.1603
266.5415	0.1577
266.7556	0.174
266.9697	0.1603
267.1837	0.1616
267.3978	0.1588
267.6118	0.1624
267.8258	0.1784
268.0398	0.1571
268.2538	0.1498
268.4677	0.1595
268.6817	0.1619
268.8957	0.1506
269.1096	0.1652
269.3235	0.1599
269.5374	0.1548
269.7514	0.1615
269.9652	0.1551
270.1791	0.1435
270.393	0.1585
270.6068	0.1584
270.8207	0.1517
271.0345	0.144
271.2483	0.149
271.4622	0.1525
271.676	0.1591
271.8897	0.1387
272.1035	0.1312
272.3173	0.1408
272.531	0.1373
272.7448	0.1492
272.9585	0.1345
273.1722	0.1431
273.3859	0.1444
273.5996	0.1291
273.8133	0.1364
274.0269	0.1307
274.2406	0.1299
274.4542	0.1463
274.6679	0.1265
274.8815	0.1335
275.0951	0.1443
275.3087	0.1539
275.5223	0.1306
275.7358	0.1478
275.9494	0.1354
276.1629	0.1288
276.3765	0.1468
276.59	0.1445
276.8035	0.134
277.017	0.1375
277.2305	0.1403
277.444	0.142
277.6574	0.1422
277.8709	0.1522
278.0843	0.1327
278.2978	0.1328
278.5112	0.1369
278.7246	0.141
278.938	0.144
279.1513	0.1614
279.3647	0.1518
279.5781	0.145
279.7914	0.1312
280.0047	0.1548
280.2181	0.1551
280.4314	0.1495
280.6447	0.1477
280.8579	0.1491
281.0712	0.1572
281.2845	0.1538
281.4977	0.151
281.711	0.144
281.9242	0.1538
282.1374	0.1476
282.3506	0.1463
282.5638	0.1457
282.7769	0.1522
282.9901	0.1552
283.2033	0.1521
283.4164	0.1543
283.6295	0.1543
283.8426	0.154
284.0557	0.1604
284.2688	0.1695
284.4819	0.159
284.695	0.1432
284.908	0.1609
285.1211	0.158
285.3341	0.159
285.5471	0.1615
285.7601	0.1578
285.9731	0.1468
286.1861	0.1531
286.3991	0.1709
286.612	0.1587
286.825	0.1575
287.0379	0.1697
287.2508	0.1639
287.4637	0.1617
287.6766	0.1551
287.8895	0.1665
288.1024	0.1776
288.3152	0.1646
288.5281	0.1519
288.7409	0.171
288.9538	0.1649
289.1666	0.1667
289.3794	0.1655
289.5922	0.1717
289.8049	0.169
290.0177	0.165
290.2304	0.1684
290.4432	0.1643
290.6559	0.1601
290.8686	0.1879
291.0813	0.1664
291.294	0.1669
291.5067	0.1828
291.7194	0.1705
291.932	0.1867
292.1447	0.1668
292.3573	0.1522
292.5699	0.1723
292.7825	0.1777
292.9951	0.1769
293.2077	0.1626
293.4203	0.1746
293.6328	0.1536
293.8454	0.1753
294.0579	0.1833
294.2704	0.1681
294.4829	0.1623
294.6954	0.1785
294.9079	0.1669
295.1204	0.1754
295.3328	0.1691
295.5453	0.1769
295.7577	0.1737
295.9701	0.1672
296.1825	0.178
296.3949	0.1733
296.6073	0.1568
296.8197	0.1533
297.0321	0.1758
297.2444	0.1629
297.4567	0.1787
297.6691	0.1674
297.8814	0.1735
298.0937	0.1666
298.306	0.1784
298.5182	0.175
298.7305	0.1699
298.9428	0.1696
299.155	0.1674
299.3672	0.1702
299.5794	0.1755
299.7916	0.178
300.0038	0.1715
300.216	0.1739
300.4282	0.1897
300.6403	0.1638
300.8525	0.186
301.0646	0.1675
301.2767	0.171
301.4888	0.1738
301.7009	0.1752
301.913	0.1655
302.125	0.172
302.3371	0.1645
302.5491	0.1798
302.7612	0.1767
302.9732	0.1595
303.1852	0.1695
303.3972	0.1615
303.6092	0.1552
303.8211	0.1658
304.0331	0.1608
304.245	0.1661
304.457	0.1653
304.6689	0.1453
304.8808	0.1621
305.0927	0.1573
305.3046	0.1589
305.5164	0.1702
305.7283	0.1591
305.9401	0.1656
306.152	0.1543
306.3638	0.1577
306.5756	0.145
306.7874	0.1529
306.9992	0.1596
307.2109	0.1407
307.4227	0.133
307.6344	0.1465
307.8462	0.1345
308.0579	0.1419
308.2696	0.1317
308.4813	0.1326
308.693	0.1388
308.9046	0.1446
309.1163	0.1307
309.328	0.1374
309.5396	0.1188
309.7512	0.1265
309.9628	0.1249
310.1744	0.1305
310.386	0.1262
310.5976	0.1258
310.8091	0.117
311.0207	0.1206
311.2322	0.1239
311.4437	0.108
311.6552	0.104
311.8667	0.1207
312.0782	0.1082
312.2897	0.1028
312.5012	0.1265
312.7126	0.0994
312.924	0.1083
313.1355	0.1127
313.3469	0.1
313.5583	0.1108
313.7696	0.104
313.981	0.0946
314.1924	0.1054
314.4037	0.1028
314.6151	0.1068
314.8264	0.0995
315.0377	0.0937
315.249	0.1209
315.4603	0.1047
315.6716	0.0911
315.8828	0.0902
316.0941	0.1018
316.3053	0.0949
316.5165	0.0966
316.7277	0.0896
316.9389	0.1065
317.1501	0.0943
317.3613	0.1002
317.5724	0.0933
317.7836	0.0986
317.9947	0.0972
318.2058	0.0969
318.417	0.0833
318.6281	0.0811
318.8391	0.0947
319.0502	0.0837
319.2613	0.0971
319.4723	0.1054
319.6834	0.1064
319.8944	0.0863
320.1054	0.0995
320.3164	0.1001
320.5274	0.0945
320.7383	0.0911
320.9493	0.0967
321.1602	0.1026
321.3712	0.0822
321.5821	0.0941
321.793	0.0954
322.0039	0.0991
322.2148	0.0959
322.4257	0.0979
322.6365	0.1015
322.8474	0.0988
323.0582	0.091
323.269	0.0941
323.4798	0.1021
323.6906	0.0972
323.9014	0.0935
324.1122	0.0917
324.3229	0.1006
324.5337	0.0936
324.7444	0.0889
324.9551	0.1076
325.1658	0.1008
325.3765	0.1084
325.5872	0.099
325.7979	0.0946
326.0085	0.0994
326.2192	0.1018
326.4298	0.1108
326.6404	0.0912
326.851	0.0847
327.0616	0.0941
327.2722	0.1037
327.4828	0.1052
327.6933	0.0966
327.9039	0.1052
328.1144	0.1043
328.3249	0.102
328.5354	0.1035
328.7459	0.0954
328.9564	0.108
329.1669	0.0995
329.3773	0.1017
329.5878	0.0923
329.7982	0.0904
330.0086	0.108
330.219	0.1082
330.4294	0.0949
330.6398	0.0953
330.8502	0.1003
331.0605	0.1001
331.2708	0.1
331.4812	0.1087
331.6915	0.1103
331.9018	0.1042
332.1121	0.097
332.3224	0.1193
332.5326	0.1028
332.7429	0.103
332.9531	0.1131
333.1633	0.1031
333.3735	0.0981
333.5837	0.0945
333.7939	0.1048
334.0041	0.1138
334.2143	0.1099
334.4244	0.1108
334.6346	0.0901
334.8447	0.1157
335.0548	0.1016
335.2649	0.1099
335.475	0.1163
335.685	0.1061
335.8951	0.1183
336.1051	0.106
336.3152	0.1159
336.5252	0.1008
336.7352	0.112
336.9452	0.116
337.1552	0.1184
337.3652	0.1048
337.5751	0.1117
337.7851	0.0958
337.995	0.0998
338.2049	0.1168
338.4148	0.1106
338.6247	0.1062
338.8346	0.113
339.0445	0.107
339.2543	0.1054
339.4642	0.1067
339.674	0.0952
339.8838	0.1102
340.0936	0.1153
340.3034	0.1205
340.5132	0.1257
340.7229	0.1218
340.9327	0.1083
341.1424	0.1264
341.3522	0.1129
341.5619	0.1277
341.7716	0.1111
341.9813	0.1123
342.1909	0.1144
342.4006	0.1234
342.6102	0.1237
342.8199	0.1239
343.0295	0.1229
343.2391	0.1113
343.4487	0.1349
343.6583	0.1133
343.8679	0.1113
344.0774	0.129
344.287	0.1293
344.4965	0.1145
344.706	0.1126
344.9155	0.1197
345.125	0.1286
345.3345	0.1189
345.544	0.1254
345.7534	0.1208
345.9629	0.1144
346.1723	0.1269
346.3817	0.1275
346.5911	0.1151
346.8005	0.1398
347.0099	0.1257
347.2193	0.1337
347.4286	0.1247
347.638	0.1212
347.8473	0.1419
348.0566	0.1265
348.2659	0.1311
348.4752	0.1239
348.6845	0.1223
348.8937	0.147
349.103	0.1353
349.3122	0.119
349.5214	0.1292
349.7306	0.1361
349.9398	0.1416
350.149	0.1466
350.3582	0.121
350.5674	0.1406
350.7765	0.1258
350.9856	0.1416
351.1948	0.1439
351.4039	0.1195
351.613	0.1349
351.822	0.1499
352.0311	0.1413
352.2402	0.145
352.4492	0.1424
352.6582	0.1488
352.8672	0.1292
353.0762	0.1485
353.2852	0.145
353.4942	0.1392
353.7032	0.1624
353.9121	0.1493
354.1211	0.1515
354.33	0.1504
354.5389	0.152
354.7478	0.1547
354.9567	0.1443
355.1655	0.1503
355.3744	0.1574
355.5833	0.1597
355.7921	0.1735
356.0009	0.1692
356.2097	0.1711
356.4185	0.1682
356.6273	0.1602
356.8361	0.1684
357.0448	0.1499
357.2536	0.1368
357.4623	0.1521
357.671	0.1691
357.8797	0.173
358.0884	0.1608
358.2971	0.165
358.5057	0.1799
358.7144	0.1652
358.923	0.1731
359.1316	0.1579
359.3402	0.1689
359.5488	0.1739
359.7574	0.1612
359.966	0.1725
360.1746	0.1692
360.3831	0.1702
360.5916	0.1749
360.8002	0.1714
361.0087	0.1789
361.2172	0.1798
361.4256	0.1705
361.6341	0.1929
361.8426	0.182
362.051	0.1826
362.2594	0.1718
362.4678	0.1763
362.6762	0.1998
362.8846	0.1861
363.093	0.185
363.3014	0.1737
363.5097	0.1802
363.718	0.1832
363.9264	0.1844
364.1347	0.1713
364.343	0.197
364.5513	0.2097
364.7595	0.2125
364.9678	0.2045
365.176	0.2002
365.3842	0.1978
365.5925	0.2025
365.8007	0.2007
366.0089	0.1954
366.217	0.2092
366.4252	0.2186
366.6333	0.2173
366.8415	0.2083
367.0496	0.2056
367.2577	0.2185
367.4658	0.2125
367.6739	0.2066
367.882	0.2141
368.09	0.207
368.2981	0.2134
368.5061	0.2151
368.7141	0.2228
368.9221	0.2147
369.1301	0.2112
369.3381	0.2172
369.5461	0.23
369.754	0.2291
369.962	0.2148
370.1699	0.2176
370.3778	0.2264
370.5857	0.2051
370.7936	0.2363
371.0015	0.2135
371.2093	0.2383
371.4172	0.2427
371.625	0.213
371.8328	0.2305
372.0406	0.2329
372.2484	0.2289
372.4562	0.2337
372.664	0.2418
372.8717	0.2485
373.0795	0.1908
373.2872	0.2427
373.4949	0.2287
373.7026	0.2388
373.9103	0.2345
374.118	0.2389
374.3256	0.2288
374.5333	0.2312
374.7409	0.2277
374.9485	0.2525
375.1561	0.2417
375.3637	0.2386
375.5713	0.2381
375.7789	0.2491
375.9864	0.2578
376.194	0.2302
376.4015	0.2528
376.609	0.2558
376.8165	0.2368
377.024	0.2473
377.2315	0.226
377.4389	0.2609
377.6464	0.2549
377.8538	0.274
378.0612	0.2545
378.2686	0.2565
378.476	0.252
378.6834	0.2477
378.8908	0.2597
379.0981	0.2597
379.3055	0.2741
379.5128	0.2608
379.7201	0.2732
379.9274	0.2513
380.1347	0.2547
380.342	0.2701
380.5492	0.2557
380.7565	0.2522
380.9637	0.2636
381.1709	0.2814
381.3781	0.2502
381.5853	0.2605
381.7925	0.2588
381.9997	0.2819
382.2068	0.2826
382.4139	0.2584
382.6211	0.2552
382.8282	0.2676
383.0353	0.2538
383.2424	0.2707
383.4494	0.2678
383.6565	0.2626
383.8635	0.279
384.0706	0.2747
384.2776	0.2815
384.4846	0.2617
384.6916	0.29
384.8986	0.2771
385.1055	0.2697
385.3125	0.2614
385.5194	0.2649
385.7263	0.2926
385.9333	0.2568
386.1402	0.2531
386.347	0.2646
386.5539	0.2687
386.7608	0.2784
386.9676	0.2595
387.1744	0.27
387.3813	0.2639
387.5881	0.274
387.7948	0.253
388.0016	0.2667
388.2084	0.2596
388.4151	0.2489
388.6219	0.2665
388.8286	0.2708
389.0353	0.2753
389.242	0.2803
389.4487	0.2596
389.6553	0.2686
389.862	0.2418
390.0686	0.2493
390.2753	0.2617
390.4819	0.2661
390.6885	0.2532
390.8951	0.2599
391.1016	0.2615
391.3082	0.2542
391.5147	0.2527
391.7213	0.2551
391.9278	0.2446
392.1343	0.2433
392.3408	0.2533
392.5473	0.2499
392.7537	0.2469
392.9602	0.2486
393.1666	0.2681
393.373	0.2485
393.5794	0.2587
393.7858	0.2477
393.9922	0.2379
394.1986	0.2435
394.4049	0.247
394.6113	0.2411
394.8176	0.2206
395.0239	0.2359
395.2302	0.2189
395.4365	0.2425
395.6428	0.2229
395.8491	0.228
396.0553	0.2409
396.2615	0.2356
396.4678	0.2242
396.674	0.2099
396.8802	0.2431
397.0863	0.2441
397.2925	0.2305
397.4987	0.2291
397.7048	0.2346
397.9109	0.2261
398.117	0.2285
398.3231	0.2415
398.5292	0.2277
398.7353	0.2526
398.9413	0.224
399.1474	0.2198
399.3534	0.2247
399.5594	0.219
399.7654	0.2573
399.9714	0.245
400.1774	0.2177
400.3833	0.2257
400.5893	0.2411
400.7952	0.2268
401.0011	0.2306
401.207	0.2392
401.4129	0.2513
401.6188	0.2339
401.8247	0.2525
402.0305	0.2102
402.2364	0.2291
402.4422	0.2361
402.648	0.227
402.8538	0.2196
403.0596	0.2117
403.2654	0.2332
403.4711	0.2254
403.6768	0.2276
403.8826	0.2364
404.0883	0.235
404.294	0.2237
404.4997	0.2292
404.7054	0.2345
404.911	0.2184
405.1167	0.2222
405.3223	0.2365
405.5279	0.2458
405.7335	0.2239
405.9391	0.2345
406.1447	0.2181
406.3502	0.2485
406.5558	0.2226
406.7613	0.2445
406.9668	0.258
407.1724	0.2204
407.3778	0.2238
407.5833	0.2249
407.7888	0.2161
407.9942	0.2268
408.1997	0.2218
408.4051	0.2417
408.6105	0.2298
408.8159	0.219
409.0213	0.2062
409.2267	0.2422
409.432	0.1905
409.6374	0.2439
409.8427	0.2219
410.048	0.2352
410.2533	0.2356
410.4586	0.2332
410.6639	0.2249
410.8691	0.2157
411.0744	0.2308
411.2796	0.2121
411.4848	0.2234
411.69	0.2249
411.8952	0.2334
412.1004	0.2214
412.3056	0.2415
412.5107	0.2255
412.7158	0.2371
412.921	0.2316
413.1261	0.2112
413.3312	0.213
413.5362	0.2165
413.7413	0.2137
413.9464	0.213
414.1514	0.2163
414.3564	0.2165
414.5614	0.2142
414.7664	0.2229
414.9714	0.217
415.1764	0.2282
415.3813	0.2394
415.5863	0.2209
415.7912	0.232
415.9961	0.2208
416.201	0.2187
416.4059	0.2283
416.6108	0.2135
416.8156	0.22
417.0205	0.2107
417.2253	0.2249
417.4301	0.2181
417.6349	0.2289
417.8397	0.2173
418.0445	0.2213
418.2492	0.2253
418.454	0.2304
418.6587	0.2063
418.8634	0.2245
419.0681	0.1975
419.2728	0.1955
419.4775	0.1944
419.6822	0.2039
419.8868	0.1947
420.0915	0.2093
420.2961	0.2032
420.5007	0.1972
420.7053	0.2096
420.9099	0.202
421.1144	0.2038
421.319	0.1975
421.5235	0.2065
421.728	0.2139
421.9325	0.2119
422.137	0.2153
422.3415	0.2042
422.546	0.2123
422.7504	0.1966
422.9549	0.2059
423.1593	0.218
423.3637	0.2061
423.5681	0.2005
423.7725	0.1856
423.9769	0.1892
424.1812	0.1848
424.3856	0.1888
424.5899	0.1965
424.7942	0.1896
424.9985	0.1836
425.2028	0.1997
425.4071	0.1962
425.6113	0.1745
425.8156	0.1884
426.0198	0.2002
426.224	0.1627
426.4282	0.1854
426.6324	0.1715
426.8366	0.1641
427.0407	0.1726
427.2449	0.1919
427.449	0.1798
427.6531	0.1662
427.8572	0.1788
428.0613	0.1698
428.2654	0.151
428.4694	0.1672
428.6735	0.1864
428.8775	0.1867
429.0815	0.1703
429.2855	0.1615
429.4895	0.1814
429.6935	0.1761
429.8975	0.1711
430.1014	0.1497
430.3053	0.1418
430.5093	0.1601
430.7132	0.1643
430.9171	0.1525
431.1209	0.1609
431.3248	0.1425
431.5286	0.1639
431.7325	0.1576
431.9363	0.1408
432.1401	0.15
432.3439	0.1632
432.5477	0.123
432.7514	0.1501
432.9552	0.127
433.1589	0.1208
433.3627	0.1281
433.5664	0.128
433.7701	0.1282
433.9737	0.1241
434.1774	0.1172
434.3811	0.1206
434.5847	0.1247
434.7883	0.1176
434.9919	0.126
435.1955	0.1231
435.3991	0.1267
435.6027	0.1198
435.8062	0.1118
436.0098	0.1092
436.2133	0.1194
436.4168	0.1039
436.6203	0.1081
436.8238	0.1127
437.0272	0.1042
437.2307	0.1114
437.4341	0.1072
437.6375	0.1223
437.841	0.1031
438.0443	0.1029
438.2477	0.0962
438.4511	0.0987
438.6545	0.0927
438.8578	0.1223
439.0611	0.1037
439.2644	0.1076
439.4677	0.084
439.671	0.0738
439.8743	0.1062
440.0775	0.0902
440.2808	0.0902
440.484	0.0784
440.6872	0.0507
440.8904	0.0825
441.0936	0.1068
441.2967	0.0711
441.4999	0.0735
441.703	0.0712
441.9062	0.073
442.1093	0.0798
442.3124	0.0707
442.5155	0.0539
442.7185	0.0685
442.9216	0.05
443.1246	0.0723
443.3276	0.058
443.5307	0.0614
443.7337	0.0574
443.9366	0.058
444.1396	0.0693
444.3426	0.0625
444.5455	0.0592
444.7484	0.0464
444.9513	0.0457
445.1542	0.0796
445.3571	0.0641
445.56	0.0599
445.7628	0.0471
445.9657	0.0518
446.1685	0.0594
446.3713	0.0538
446.5741	0.0432
446.7769	0.045
446.9797	0.069
447.1824	0.0567
447.3852	0.0368
447.5879	0.0592
447.7906	0.0571
447.9933	0.0378
448.196	0.0309
448.3986	0.0383
448.6013	0.0413
448.8039	0.0375
449.0066	0.0288
449.2092	0.0514
449.4118	0.0415
449.6143	0.0317
449.8169	0.0543
450.0195	0.0187
450.222	0.0203
450.4245	0.0356
450.627	0.0275
450.8295	0.0328
451.032	0.0194
451.2345	0.0341
451.4369	0.0384
451.6394	0.0287
451.8418	0.0158
452.0442	0.0259
452.2466	0.0313
452.449	0.0063
452.6513	0.0278
452.8537	0.0293
453.056	0.0079
453.2583	0.0122
453.4607	0.0216
453.663	0.0241
453.8652	0.0256
454.0675	0.0095
454.2697	0.0282
454.472	0.0088
454.6742	0.0217
454.8764	0.025
455.0786	0.0193
455.2808	0.0086
455.4829	0.0229
455.6851	0.0155
455.8872	0.0232
456.0893	0.0238
456.2915	-0.0021
456.4935	0.0187
456.6956	0.0113
456.8977	0.0227
457.0997	0.008
457.3018	-0.0006
457.5038	0.0276
457.7058	0.0127
457.9078	0.0011
458.1098	0.0125
458.3117	0.0218
458.5137	0.0157
458.7156	0.0108
458.9175	0.0033
459.1194	0.0156
459.3213	0.0139
459.5232	0.0066
459.725	-0.0081
459.9269	0.0034
460.1287	0.009
460.3305	0.0068
460.5323	0.0124
460.7341	0.007
460.9359	0.0059
461.1376	0.0165
461.3394	0.0037
461.5411	0.0048
461.7428	0.0034
461.9445	0.0191
462.1462	0.0254
462.3479	-0.0008
462.5495	0.0089
462.7512	0.0074
462.9528	0.0018
463.1544	-0.0156
463.356	-0.0006
463.5576	0.023
463.7592	0.0103
463.9607	0.004
464.1623	0.0209
464.3638	0.0246
464.5653	-0.0048
464.7668	0.0118
464.9683	0.01
465.1697	0.0143
465.3712	0.0074
465.5726	0.0011
465.7741	0.0061
465.9755	-0.0127
466.1769	-0.0029
466.3782	0.0054
466.5796	0.0027
466.7809	0.0122
466.9823	-0.0153
467.1836	0.0036
467.3849	0.002
467.5862	0.0129
467.7875	-0.0072
467.9887	0.0066
468.19	-0.0041
468.3912	-0.0006
468.5924	-0.0106
468.7936	-0.0022
468.9948	0.0028
469.196	0.0017
469.3972	-0.0139
469.5983	0.0027
469.7994	-0.0051
470.0006	-0.0037
470.2017	-0.0139
470.4027	-0.0065
470.6038	0.0048
470.8049	-0.0261
471.0059	-0.0051
471.2069	-0.0309
471.408	0.0084
471.6089	-0.003
471.8099	-0.0045
472.0109	-0.0024
472.2119	-0.0065
472.4128	-0.0083
472.6137	-0.0073
472.8146	-0.0102
473.0155	-0.0047
473.2164	0.0047
473.4173	0.0138
473.6181	0.0083
473.819	0.0065
474.0198	-0.016
474.2206	-0.0062
474.4214	0.0033
474.6222	-0.0015
474.8229	-0.0109
475.0237	-0.0136
475.2244	-0.0057
475.4251	-0.0079
475.6258	-0.0028
475.8265	-0.0005
476.0272	0.0067
476.2278	-0.0037
476.4285	-0.0027
476.6291	-0.003
476.8297	-0.007
477.0303	-0.0102
477.2309	-0.0001
477.4315	-0.0152
477.632	-0.0036
477.8326	-0.0085
478.0331	0.0232
478.2336	-0.0007
478.4341	-0.0058
478.6346	0.0026
478.8351	0.0027
479.0355	0.002
479.236	-0.0009
479.4364	0.0016
479.6368	-0.0048
479.8372	-0.0055
480.0376	-0.0027
480.2379	-0.0196
480.4383	-0.0042
480.6386	0.0052
480.8389	0.0032
481.0392	-0.0062
481.2395	-0.0003
481.4398	0.0043
481.6401	0.0014
481.8403	-0.002
482.0405	-0.0048
482.2408	-0.0131
482.441	0.0145
482.6411	-0.0097
482.8413	-0.0052
483.0415	0.0003
483.2416	-0.0076
483.4417	-0.0114
483.6419	-0.0023
483.8419	0.0008
484.042	0.0095
484.2421	0.0004
484.4422	0.0111
484.6422	0.0086
484.8422	0.0016
485.0422	-0.0122
485.2422	0.0021
485.4422	-0.0077
485.6422	-0.01
485.8421	-0.0067
486.042	0.0042
486.242	-0.0041
486.4419	-0.0132
486.6417	-0.0039
486.8416	-0.0087
487.0415	-0.0063
487.2413	-0.0054
487.4411	-0.0025
487.641	-0.0134
487.8408	-0.0022
488.0405	-0.0061
488.2403	-0.0054
488.4401	-0.0013
488.6398	0.0043
488.8395	-0.0062
489.0392	0.0061
489.2389	-0.0054
489.4386	0
489.6383	0.0024
489.8379	0.0082
490.0376	-0.0027
490.2372	-0.0069
490.4368	-0.0119
490.6364	0.0019
490.836	-0.0097
491.0355	0.0013
491.2351	-0.0046
491.4346	-0.0048
491.6341	-0.0136
491.8336	0.0022
492.0331	-0.0174
492.2326	-0.0167
492.432	-0.0032
492.6315	0.0042
492.8309	-0.0116
493.0303	-0.0014
493.2297	-0.0087
493.4291	-0.0067
493.6284	-0.0034
493.8278	-0.0081
494.0271	-0.0046
494.2264	0.0011
494.4257	-0.0046
494.625	-0.0017
494.8243	-0.021
495.0236	-0.0041
495.2228	-0.0103
495.422	-0.002
495.6213	-0.0028
495.8205	-0.0017
496.0196	0.0009
496.2188	0.0017
496.418	-0.0132
496.6171	-0.0037
496.8162	-0.0161
497.0153	-0.0022
497.2144	-0.0112
497.4135	-0.0072
497.6126	-0.0102
497.8116	-0.0059
498.0107	-0.0049
498.2097	-0.0238
498.4087	-0.0061
498.6077	-0.0019
498.8067	-0.0066
499.0056	0.0045
499.2046	-0.0005
499.4035	-0.0253
499.6024	-0.0029
499.8013	-0.002
500.0002	-0.0054
500.199	-0.0072
500.3979	0.0017
500.5967	-0.018
500.7956	0.0023
500.9944	-0.0091
501.1932	-0.0118
501.3919	-0.006
501.5907	-0.0162
501.7895	-0.0072
501.9882	-0.0089
502.1869	-0.0035
502.3856	-0.0186
502.5843	-0.0061
502.783	-0.0111
502.9816	0.0026
503.1803	-0.0142
503.3789	-0.0058
503.5775	0.0026
503.7761	-0.0063
503.9747	-0.0076
504.1732	-0.0018
504.3718	-0.0028
504.5703	0.0017
504.7689	-0.0077
504.9674	0.0009
505.1658	-0.013
505.3643	-0.0058
505.5628	-0.0051
505.7612	-0.0005
505.9597	0.0034
506.1581	-0.0025
506.3565	0.003
506.5549	-0.0041
506.7532	-0.009
506.9516	-0.0046
507.1499	-0.0073
507.3482	-0.0142
507.5465	-0.0023
507.7448	-0.0057
507.9431	-0.009
508.1414	0.0011
508.3396	-0.0059
508.5379	0.0044
508.7361	-0.0071
508.9343	-0.0075
509.1325	0.0055
509.3306	-0.0056
509.5288	-0.0083
509.7269	-0.0078
509.9251	-0.0011
510.1232	-0.0044
510.3213	0.0067
510.5193	0.0045
510.7174	-0.0052
510.9154	-0.0203
511.1135	-0.0001
511.3115	-0.0052
511.5095	0.0007
511.7075	-0.003
511.9055	-0.001
512.1034	-0.0007
512.3014	0.0035
512.4993	-0.0018
512.6972	-0.0051
512.8951	-0.0156
513.093	0.0035
513.2908	-0.0057
513.4887	-0.0015
513.6865	-0.0071
513.8844	-0.0094
514.0822	0.0021
514.2799	-0.0135
514.4777	-0.0102
514.6755	-0.0104
514.8732	-0.0127
515.0709	-0.002
515.2687	-0.0124
515.4664	-0.0054
515.664	-0.0007
515.8617	-0.003
516.0594	-0.0148
516.257	-0.0066
516.4546	-0.0041
516.6522	-0.0088
516.8498	-0.0042
517.0474	0.0024
517.2449	-0.0001
517.4425	-0.0192
517.64	-0.0013
517.8375	0.0035
518.035	-0.0001
518.2325	-0.016
518.43	-0.0016
518.6274	-0.0075
518.8249	-0.0184
519.0223	-0.0054
519.2197	-0.0072
519.4171	-0.0117
519.6145	-0.0162
519.8118	-0.0073
520.0092	-0.0007
520.2065	-0.0134
520.4038	-0.0175
520.6011	0.0047
520.7984	-0.0016
520.9956	-0.0027
521.1929	-0.0135
521.3901	-0.0037
521.5874	-0.0051
521.7846	0.0065
521.9818	-0.0051
522.1789	-0.0116
522.3761	-0.0006
522.5732	-0.0048
522.7704	-0.0024
522.9675	-0.009
523.1646	-0.0064
523.3617	0.0016
523.5587	-0.0012
523.7558	-0.0007
523.9528	-0.0054
524.1498	-0.0083
524.3468	-0.0066
524.5438	-0.0137
524.7408	-0.0068
524.9378	0.002
525.1347	0.0031
525.3316	0.0012
525.5285	-0.0133
525.7254	-0.0055
525.9223	-0.0033
526.1192	-0.0013
526.316	-0.0125
526.5129	0.0004
526.7097	0.0042
526.9065	-0.0097
527.1033	-0.0087
527.3	-0.0054
527.4968	-0.0116
527.6935	-0.0025
527.8903	-0.0059
528.087	-0.0047
528.2837	0.0016
528.4804	0.0057
528.677	-0.0127
528.8737	0.0052
529.0703	-0.0061
529.2669	-0.0045
529.4635	-0.0028
529.6601	-0.0008
529.8567	0.0014
530.0532	-0.0072
530.2498	-0.0036
530.4463	0.0092
530.6428	-0.0065
530.8393	0.0155
531.0358	-0.008
531.2322	0.0022
531.4287	-0.0098
531.6251	-0.0151
531.8215	0.0008
532.0179	-0.0003
532.2143	0.0084
532.4107	-0.0063
532.607	-0.0019
532.8034	0.007
532.9997	0.0009
533.196	-0.009
533.3923	-0.0082
533.5886	0.005
533.7848	-0.0006
533.9811	0.0034
534.1773	-0.0017
534.3735	0.0072
534.5697	0.0011
534.7659	-0.0019
534.9621	0.0112
535.1582	-0.0087
535.3544	-0.0066
535.5505	-0.0055
535.7466	-0.0044
535.9427	-0.006
536.1387	-0.0103
536.3348	-0.0013
536.5308	0.0062
536.7269	-0.0114
536.9229	-0.0002
537.1189	0.0026
537.3148	-0.0056
537.5108	-0.0146
537.7068	-0.008
537.9027	-0.0017
538.0986	-0.0052
538.2945	-0.0052
538.4904	0.0053
538.6863	-0.0058
538.8821	0.0008
539.078	-0.0055
539.2738	-0.0061
539.4696	-0.0009
539.6654	0.0047
539.8611	0.0104
540.0569	-0.0074
540.2526	-0.0114
540.4484	0.0054
540.6441	0.0037
540.8398	-0.0052
541.0355	0.0103
541.2311	0.0036
541.4268	-0.0127
541.6224	0.0073
541.818	0.0031
542.0136	-0.0013
542.2092	-0.0034
542.4048	-0.0043
542.6003	0.0038
542.7959	-0.0033
542.9914	0.0008
543.1869	-0.0037
543.3824	-0.0031
543.5779	-0.0023
543.7734	0.0046
543.9688	-0.0093
544.1642	-0.0007
544.3596	-0.0022
544.555	-0.0047
544.7504	-0.0072
544.9458	-0.0057
545.1411	-0.0017
545.3365	0.0056
545.5318	-0.0044
545.7271	-0.0022
545.9224	0.0007
546.1177	0.0133
546.3129	0.0125
546.5081	-0.0001
546.7034	-0.0039
546.8986	-0.005
547.0938	-0.0103
547.289	0.0001
547.4841	-0.0031
547.6793	0.0093
547.8744	-0.0104
548.0695	0.0005
548.2646	0.0021
548.4597	0.0042
548.6548	-0.0017
548.8498	0.0051
549.0448	0.0041
549.2399	-0.0007
549.4349	0.0041
549.6298	0.0006
549.8248	0.0039
550.0198	-0.0016
550.2147	-0.0047
550.4096	-0.0005
550.6045	-0.0006
550.7994	0.0088
550.9943	-0.0041
551.1892	-0.0064
551.384	0.0101
551.5788	-0.0131
551.7737	0.0073
551.9685	0.0048
552.1632	-0.003
552.358	0.0019
552.5528	-0.0006
552.7475	0.0013
552.9422	0.0029
553.1369	-0.0056
553.3316	-0.0022
553.5263	0.0012
553.7209	0.006
553.9156	-0.0009
554.1102	-0.0037
554.3048	-0.0076
554.4994	0.0107
554.694	-0.0005
554.8885	-0.0018
555.0831	-0.0023
555.2776	-0.0064
555.4721	-0.0069
555.6666	-0.0043
555.8611	0.0121
556.0555	0.0032
556.25	0.0029
556.4444	-0.0043
556.6388	0.0021
556.8332	0.0009
557.0276	0.0081
557.222	-0.0004
557.4163	-0.0044
557.6107	-0.0071
557.805	0.0065
557.9993	-0.0043
558.1936	0.0032
558.3879	0.0058
558.5821	0.0046
558.7764	-0.0099
558.9706	0.0071
559.1648	0.0062
559.359	0.0023
559.5532	-0.0142
559.7473	-0.0025
559.9415	-0.0019
560.1356	-0.0135
560.3297	-0.0117
560.5238	-0.0011
560.7179	0.0013
560.9119	-0.004
561.106	-0.0088
561.3	-0.0018
561.494	-0.0018
561.688	-0.006
561.882	-0.0111
562.076	0.0011
562.2699	-0.0004
562.4639	0.0027
562.6578	0.0013
562.8517	0.0045
563.0456	0.0072
563.2395	0.0084
563.4333	-0.0048
563.6272	0.001
563.821	-0.0072
564.0148	-0.0027
564.2086	-0.0073
564.4024	-0.003
564.5961	-0.0021
564.7899	0.0042
564.9836	0.0042
565.1773	0.0018
565.371	0.0108
565.5647	0.0085
565.7584	-0.0035
565.952	-0.0013
566.1456	0.0042
566.3393	0.0016
566.5329	-0.0044
566.7264	-0.0009
566.92	-0.0071
567.1136	0.0074
567.3071	-0.0016
567.5006	0.0047
567.6941	0.0044
567.8876	0.0071
568.0811	-0.0012
568.2745	0.0068
568.468	0.0064
568.6614	0.0023
568.8548	0.0056
569.0482	-0.0007
569.2416	0.0027
569.4349	0.0021
569.6283	0.0074
569.8216	0.0003
570.0149	0.0012
570.2082	0.0089
570.4015	0.0072
570.5947	0.0039
570.788	0.0035
570.9812	0.0092
571.1744	0.0045
571.3676	-0.0004
571.5608	-0.0016
571.754	0.0047
571.9471	-0.0019
572.1402	0.0024
572.3333	0.0067
572.5264	-0.0045
572.7195	0.0027
572.9126	0.0062
573.1057	-0.0031
573.2987	0.0015
573.4917	0.0061
573.6847	-0.0021
573.8777	0.0115
574.0707	0.0108
574.2636	0.0016
574.4566	0.0023
574.6495	0.0089
574.8424	0.0051
575.0353	-0.0007
575.2281	0.0059
575.421	0.0079
575.6138	0.0023
575.8067	-0.0024
575.9995	0.0085
576.1923	0.0083
576.385	0.0021
576.5778	0.0052
576.7706	0.001
576.9633	0.003
577.156	0.0079
577.3487	0.0045
577.5414	0.0052
577.734	0.0031
577.9267	0.0033
578.1193	-0.0093
578.3119	-0.0018
578.5045	0.0109
578.6971	0.0063
578.8897	0.0097
579.0822	0.0016
579.2747	0.005
579.4673	-0.0088
579.6598	-0.0031
579.8522	-0.0019
580.0447	-0.0018
580.2372	0.0003
580.4296	0.0069
580.622	0.0014
580.8144	0.0049
581.0068	0.002
581.1992	-0.0075
581.3915	-0.0004
581.5839	0.0001
581.7762	0.0008
581.9685	0.001
582.1608	0.0044
582.353	0.0023
582.5453	0.0075
582.7375	0.0044
582.9298	0.0081
583.122	0.0007
583.3142	0.0022
583.5063	0.0057
583.6985	0.0062
583.8906	0.0014
584.0827	0.0031
584.2749	0.0082
584.4669	0.0095
584.659	0.0032
584.8511	0.0028
585.0431	0.0044
585.2352	0.0068
585.4272	0.0061
585.6192	0.0108
585.8111	0.0068
586.0031	0.0013
586.195	0.0035
586.387	0.0082
586.5789	0.0074
586.7708	0.0023
586.9627	0.0022
587.1545	-0.0031
587.3464	0.0027
587.5382	0.0044
587.73	0.0094
587.9218	0.0066
588.1136	-0.0043
588.3053	0.0069
588.4971	-0.0007
588.6888	0.0003
588.8805	0.0001
589.0722	0.0114
589.2639	0.005
589.4556	0.006
589.6472	0.0089
589.8389	0.0034
590.0305	-0.0065
590.2221	0.0047
590.4137	-0
590.6052	0.0084
590.7968	0.006
590.9883	0.0042
591.1798	-0.003
591.3713	0.0024
591.5628	0.0096
591.7543	0.0159
591.9458	0.0099
592.1372	0.0053
592.3286	0.014
592.52	0.0139
592.7114	-0.0006
592.9028	0.0015
593.0941	0.0023
593.2855	0.0011
593.4768	-0.0046
593.6681	0.0042
593.8594	0.0016
594.0506	0.0058
594.2419	0.01
594.4331	0.0084
594.6244	0.0049
594.8156	-0.0054
595.0067	0.0036
595.1979	0.005
595.3891	0.0049
595.5802	-0.003
595.7713	0.0031
595.9624	0.0038
596.1535	0.0065
596.3446	0.0031
596.5357	0.0059
596.7267	0.0037
596.9177	-0.0015
597.1087	-0.0024
597.2997	0.0014
597.4907	0.0044
597.6817	-0.0005
597.8726	-0.0018
598.0635	0.0028
598.2544	0.0081
598.4453	0.0013
598.6362	0.0004
598.827	0.0034
599.0179	0.0044
599.2087	0.0048
599.3995	0.0042
599.5903	0.0031
599.7811	0.004
599.9718	0.0057
600.1626	-0.0045
600.3533	0.0042
600.544	0.0009
600.7347	-0.0001
600.9254	0.0047
601.116	-0.0044
601.3067	-0.0009
601.4973	0.0031
601.6879	0.0103
601.8785	-0.0054
602.0691	0.0104
602.2596	0.0046
602.4502	0.0091
602.6407	0.0031
602.8312	0.0029
603.0217	-0.0026
603.2122	0.0014
603.4027	0.0051
603.5931	0.0026
603.7835	-0.0023
603.9739	-0.001
604.1643	-0.0024
604.3547	0.0011
604.5451	0.0065
604.7354	-0.0025
604.9257	0.0054
605.116	0.0009
605.3063	0.0053
605.4966	0.0096
605.6869	0.0106
605.8771	0.0092
606.0673	0.0106
606.2575	0.0091
606.4477	0.0091
606.6379	-0.0012
606.8281	0.0032
607.0182	0.0054
607.2083	0.0103
607.3985	-0.0055
607.5885	0.0001
607.7786	0.0126
607.9687	-0.0058
608.1587	0.0016
608.3488	0.0034
608.5388	0.0038
608.7288	-0.0035
608.9187	0.0009
609.1087	-0.0047
609.2986	-0.0012
609.4886	-0.0034
609.6785	0.0031
609.8684	0.0067
610.0582	0.002
610.2481	0.0095
610.4379	0.0054
610.6278	0.0034
610.8176	0.0066
611.0074	0.0024
611.1971	-0.0015
611.3869	0.0055
611.5766	0.0027
611.7664	0.0114
611.9561	0.0081
612.1458	0.0068
612.3354	-0.0002
612.5251	0.0007
612.7147	0.0162
612.9044	0.0131
613.094	-0.0022
613.2836	0.0086
613.4731	0.0014
613.6627	0.0058
613.8522	0.006
614.0417	0.0106
614.2313	0.0019
614.4207	0.0024
614.6102	0.0084
614.7997	-0.0013
614.9891	0.0007
615.1785	0.0076
615.3679	0.0057
615.5573	0.0075
615.7467	0.0057
615.9361	0.0026
616.1254	-0.0021
616.3147	0.0058
616.504	0.0023
616.6933	0.0017
616.8826	0.0094
617.0718	0.0063
617.2611	0.0097
617.4503	-0.0007
617.6395	0.0083
617.8287	-0.0011
618.0179	0.0064
618.207	0.0132
618.3961	0.0055
618.5853	0.0094
618.7744	0.0063
618.9634	0.007
619.1525	0.0098
619.3416	0.0068
619.5306	0.0092
619.7196	0.0074
619.9086	0.0036
620.0976	0.0108
620.2866	0.0045
620.4755	0.0127
620.6645	0.0075
620.8534	0.0136
621.0423	0.0061
621.2312	0.0096
621.42	0.0073
621.6089	0.0042
621.7977	0.0132
621.9865	-0.0006
622.1753	0.0091
622.3641	-0.0029
622.5529	0.0109
622.7416	0.0129
622.9303	0.0018
623.1191	0.0105
623.3078	0.005
623.4964	0.0061
623.6851	0.0029
623.8737	0.0081
624.0624	0.0105
624.251	0.0022
624.4396	0.0056
624.6282	0.0028
624.8167	0.0042
625.0053	0.0101
625.1938	0.01
625.3823	-0.001
625.5708	-0.0003
625.7593	0.0022
625.9477	0.0005
626.1362	0.0055
626.3246	0.0038
626.513	0.0068
626.7014	0.0067
626.8898	0.0003
627.0781	0.0051
627.2665	-0.0015
627.4548	0.0067
627.6431	0.0128
627.8314	0.0039
628.0197	0.0098
628.2079	-0.0067
628.3962	0.001
628.5844	0.0064
628.7726	0.0137
628.9608	0.0112
629.1489	0.0008
629.3371	0.0069
629.5252	0.0004
629.7134	0.0111
629.9015	0.0055
630.0895	0.0002
630.2776	0.0082
630.4657	0.0012
630.6537	0.0012
630.8417	0.0014
631.0297	-0.0054
631.2177	0.0021
631.4057	0.0007
631.5936	0.0072
631.7815	0.0092
631.9695	0.0091
632.1574	0.0131
632.3452	0.0159
632.5331	0.0088
632.7209	0.0046
632.9088	0.0124
633.0966	0.0126
633.2844	0.0036
633.4722	0.0084
633.6599	0.009
633.8477	0.012
634.0354	0.0046
634.2231	-0.0022
634.4108	0.0047
634.5985	0.0064
634.7861	0.0019
634.9738	-0.0016
635.1614	0.0069
635.349	0.0093
635.5366	0.0039
635.7242	0.0037
635.9117	0.0024
636.0993	0.0017
636.2868	0.0084
636.4743	-0.0019
636.6618	0.0132
636.8492	0.0009
637.0367	0.0105
637.2241	0.0005
637.4115	-0.0016
637.5989	-0.0004
637.7863	0.0047
637.9737	0.0015
638.161	-0.0004
638.3484	0.0011
638.5357	0.007
638.723	0.0001
638.9103	0.0098
639.0975	0.0075
639.2848	0.0075
639.472	0.0039
639.6592	0.0073
639.8464	0.0212
640.0336	0.0086
640.2208	0.0014
640.4079	-0.0018
640.595	0.0118
640.7821	0.009
640.9692	0.0027
641.1563	0.0078
641.3434	0.0065
641.5304	0.0095
641.7174	0.0069
641.9044	0.0031
642.0914	0.008
642.2784	0.01
642.4653	0.0052
642.6523	0.0024
642.8392	0.0016
643.0261	0.0114
643.213	0.0113
643.3999	0.0095
643.5867	0.002
643.7735	0.0038
643.9604	0.0045
644.1472	0.0025
644.3339	0.0042
644.5207	0.0081
644.7075	0.0027
644.8942	0.004
645.0809	0.0025
645.2676	0.0087
645.4543	0.005
645.6409	0.0072
645.8276	0.0066
646.0142	0.0096
646.2008	-0.0019
646.3874	0.0008
646.574	-0.0001
646.7605	-0.0037
646.9471	-0.0044
647.1336	-0.0011
647.3201	0.0004
647.5066	-0.0088
647.6931	0.0058
647.8795	0.0012
648.0659	0.0099
648.2524	0.0049
648.4388	-0.0002
648.6252	0.0013
648.8115	0.0031
648.9979	0.0012
649.1842	0.01
649.3705	0.0024
649.5568	0.0083
649.7431	0.0142
649.9294	0.0024
650.1156	0.0102
650.3018	0.0021
650.488	0.0121
650.6742	0.005
650.8604	0.0036
651.0466	-0.0007
651.2327	0.0056
651.4188	0.0044
651.6049	-0.0027
651.791	0.0077
651.9771	0.0135
652.1632	0.0058
652.3492	0.0064
652.5352	0.0057
652.7212	0.0016
652.9072	0.0089
653.0932	0.0032
653.2791	0.0011
653.465	0.006
653.651	0.0039
653.8369	0.0016
654.0227	0.0032
654.2086	0.0078
654.3944	0.0057
654.5803	0.0029
654.7661	0.0017
654.9519	0.0132
655.1377	-0.0034
655.3234	0.0007
655.5092	-0.0057
655.6949	-0.0031
655.8806	0.0012
656.0663	0.0013
656.2519	-0.0008
656.4376	-0.0023
656.6232	0.0073
656.8088	-0.0002
656.9945	-0.0029
657.18	0.0024
657.3656	0.0037
657.5511	0.0035
657.7367	-0.0003
657.9222	0.0072
658.1077	0.002
658.2932	0.0102
658.4786	-0.0051
658.6641	0.0009
658.8495	0.0076
659.0349	0.0045
659.2203	0.014
659.4057	0.0118
659.591	0.011
659.7764	0.0018
659.9617	0.005
660.147	0.0007
660.3323	0.0087
660.5176	0.0118
660.7028	0.0158
660.888	0.0072
661.0733	0.0047
661.2585	0.0022
661.4436	0.0015
661.6288	0.0059
661.8139	0.0037
661.9991	0.0079
662.1842	-0.0011
662.3693	0.0105
662.5544	0.0007
662.7394	0.0056
662.9245	0.0036
663.1095	0.0063
663.2945	0.0061
663.4795	0.0009
663.6644	0.0077
663.8494	0.0067
664.0343	0.0066
664.2193	-0.0002
664.4042	0.0037
664.589	0.0027
664.7739	0.0058
664.9587	0.0025
665.1436	0.0043
665.3284	0.0048
665.5132	0.0011
665.698	0.0051
665.8827	0.0108
666.0675	0.0024
666.2522	0.0076
666.4369	0.0109
666.6216	0.0157
666.8063	0.0066
666.9909	0.0089
667.1756	-0.0006
667.3602	0.0114
667.5448	0.0004
667.7294	0.0144
667.9139	0.0026
668.0985	0.0179
668.283	0.0032
668.4675	0.0132
668.652	0.0022
668.8365	0.0048
669.0209	0.0115
669.2054	0.0165
669.3898	0.0021
669.5742	0.0098
669.7586	0.0142
669.943	0.0177
670.1273	0.0135
670.3117	0.0057
670.496	0.0176
670.6803	0.0165
670.8646	0.0096
671.0488	0.0023
671.2331	0.0116
671.4173	0.0137
671.6015	0.0038
671.7857	0.0014
671.9699	0.0104
672.1541	0.0058
672.3382	0.0094
672.5223	0.0128
672.7064	0.0085
672.8905	0.0031
673.0746	0.0051
673.2587	0.0004
673.4427	0.0069
673.6267	0.0111
673.8107	0.0104
673.9947	0.0099
674.1787	0.008
674.3626	0.0014
674.5465	0.0083
674.7304	0.0107
674.9143	0.0073
675.0982	0.0096
675.2821	-0.0028
675.4659	0.0079
675.6497	0.0065
675.8335	0.0019
676.0173	0.0071
676.2011	0.0064
676.3849	0.0036
676.5686	0.0018
676.7523	0.0057
676.936	0.0109
677.1197	0.0046
677.3034	0.0006
677.487	0.0174
677.6706	0.0072
677.8542	0.0098
678.0378	0.0086
678.2214	0.0074
678.405	0.0038
678.5885	-0.0039
678.772	0.0008
678.9555	-0.0045
679.139	-0.0015
679.3225	0.0049
679.5059	0.0018
679.6894	-0.0022
679.8728	-0.002
680.0562	-0.0036
680.2395	0.0027
680.4229	-0.0007
680.6062	0.0096
680.7896	-0.0026
680.9729	-0.0059
681.1562	0.0047
681.3394	0.0049
681.5227	-0.0078
681.7059	-0.0013
681.8891	0.0035
682.0723	0.0042
682.2555	0.0035
682.4387	0.0015
682.6218	-0.0016
682.805	0.0101
682.9881	0.0021
683.1712	0.0027
683.3542	0.0007
683.5373	0.0057
683.7203	-0.0061
683.9034	0.0022
684.0864	0.0003
684.2694	-0.0017
684.4523	0.0114
684.6353	-0.0017
684.8182	0.0059
685.0011	0.0003
685.184	0.003
685.3669	0.0038
685.5498	0.0067
685.7326	0.0058
685.9154	0.0013
686.0982	0.0113
686.281	0.0096
686.4638	0.0047
686.6465	0.0003
686.8293	0.0054
687.012	0.0002
687.1947	-0.0017
687.3774	0.0048
687.56	0.0043
687.7427	0.0131
687.9253	0.0067
688.1079	0.002
688.2905	0.0172
688.4731	0.0068
688.6556	0.0033
688.8382	0.0014
689.0207	0.0106
689.2032	-0.0001
689.3857	0.0002
689.5681	0.0053
689.7506	-0.0035
689.933	0.005
690.1154	0.0052
690.2978	0.0024
690.4802	0.0069
690.6626	-0.0038
690.8449	0.0021
691.0272	0.0124
691.2095	0.0008
691.3918	0.0025
691.5741	0.0074
691.7563	0.0081
691.9386	0.0095
692.1208	0.005
692.303	0.0028
692.4852	0.0041
692.6673	0.0068
692.8495	-0.0039
693.0316	0.0078
693.2137	0.0077
693.3958	0.0001
693.5778	0.0068
693.7599	0.0018
693.9419	0.0045
694.1239	0.0022
694.3059	0.0025
694.4879	0.0131
694.6699	0.0049
694.8518	0.0106
695.0337	0.0011
695.2157	0.0123
695.3975	0.0008
695.5794	0.0065
695.7613	0.0117
695.9431	0.0075
696.1249	0.005
696.3067	0.0056
696.4885	0.0083
696.6703	0.0001
696.852	0.0057
697.0337	0.0129
697.2154	0.0034
697.3971	0.0058
697.5788	0.0071
697.7605	0.0087
697.9421	0.0102
698.1237	0.001
698.3053	0.0089
698.4869	0.0022
698.6685	-0.0095
698.85	0.0021
699.0315	0.0078
699.213	0.0054
699.3945	0.0054
699.576	0.0109
699.7575	0.0055
699.9389	0.0128
700.1203	0
700.3017	-0.0036
700.4831	-0.0021
700.6645	0.0092
700.8458	0.0136
701.0271	-0.001
701.2084	0.0025
701.3897	-0.0005
701.571	0.0098
701.7523	0.0011
701.9335	0.0051
702.1147	0.0114
702.2959	0.0061
702.4771	0.0054
702.6583	0.0058
702.8394	-0.0009
703.0205	0.0035
703.2016	-0.0046
703.3827	0.0056
703.5638	0.0127
703.7449	-0.0012
703.9259	0.0137
704.1069	-0.005
704.2879	0.0053
704.4689	0.0056
704.6499	0.0048
704.8308	0
705.0117	-0.0032
705.1927	0.0022
705.3735	-0.0048
705.5544	-0.0046
705.7353	-0.0008
705.9161	-0.0007
706.0969	-0.0025
706.2777	-0.0025
706.4585	0.0027
706.6393	0.0053
706.82	0.0032
707.0007	0.0124
707.1815	0.016
707.3621	0.0199
707.5428	0.0095
707.7235	0.0161
707.9041	0.0135
708.0847	-0.0044
708.2653	0.003
708.4459	-0.0044
708.6265	0.0029
708.807	0.0022
708.9875	-0.0024
709.168	0.002
709.3485	-0.0017
709.529	-0.0083
709.7095	-0.0125
709.8899	-0.003
710.0703	-0.0045
710.2507	0.0014
710.4311	0.0044
710.6115	-0.0116
710.7918	-0.0098
710.9721	0.0032
711.1524	0.003
711.3327	0.0029
711.513	0.0065
711.6932	0.0001
711.8735	0.0091
712.0537	0.0032
712.2339	0.0047
712.4141	0.0018
712.5942	0.0011
712.7744	0.0024
712.9545	-0.0024
713.1346	-0.0005
713.3147	0.0002
713.4947	-0.0018
713.6748	0.0034
713.8548	-0.0009
714.0348	0.0028
714.2148	-0.0043
714.3948	0.0094
714.5748	-0.0016
714.7547	0.0093
714.9346	0.0089
715.1145	-0.004
715.2944	0.0031
715.4743	0.0042
715.6541	-0.0031
715.834	0.0066
716.0138	-0.0038
716.1936	-0.0132
716.3733	0.001
716.5531	0.0048
716.7328	0.0006
716.9126	0.0008
717.0923	0.0049
717.2719	0.002
717.4516	0.0081
717.6312	-0.0008
717.8109	0
717.9905	0.0087
718.1701	0.0008
718.3496	-0.0094
718.5292	0.009
718.7087	0.0021
718.8882	0.0011
719.0677	0.0083
719.2472	0.0039
719.4267	0.007
719.6061	0.0044
719.7856	0.007
719.965	0.0072
720.1443	0.0064
720.3237	0.0118
720.5031	0.0012
720.6824	0.0148
720.8617	-0.004
721.041	0.0027
721.2203	0.0094
721.3995	0.0004
721.5788	-0.0057
721.758	0.0065
721.9372	0.0011
722.1164	-0.0026
722.2956	0.0096
722.4747	0.0143
722.6538	0.0082
722.8329	0.0202
723.012	0.0099
723.1911	-0.0012
723.3702	0.0058
723.5492	0.0104
723.7282	0.0036
723.9072	0.0106
724.0862	0.0066
724.2652	0.0039
724.4441	-0.0022
724.623	0.0075
724.8019	-0.0013
724.9808	-0.0002
725.1597	-0.0058
725.3385	0.0036
725.5174	-0.0058
725.6962	-0.004
725.875	-0.0047
726.0538	0.0058
726.2325	-0.0036
726.4112	0.0055
726.59	-0.0073
726.7687	-0.0052
726.9474	0.0027
727.126	0.0059
727.3047	-0.0013
727.4833	0.0021
727.6619	0
727.8405	-0.0031
728.0191	-0.0088
728.1976	0.0046
728.3762	0.0038
728.5547	-0.0025
728.7332	-0.0079
728.9116	0.0042
729.0901	0.0073
729.2686	-0.0042
729.447	-0.0027
729.6254	-0.0011
729.8038	0.0047
729.9821	-0.0104
730.1605	0.0001
730.3388	0.0051
730.5171	0
730.6954	-0.0057
730.8737	-0
731.0519	0.0151
731.2302	0.0126
731.4084	0.0119
731.5866	0.0012
731.7648	0.0116
731.9429	0.0018
732.1211	0.0034
732.2992	0.009
732.4773	0.0023
732.6554	-0.0039
732.8335	0.0073
733.0115	0.0048
733.1896	0.0097
733.3676	-0.0035
733.5456	0.001
733.7235	0.011
733.9015	0.0043
734.0794	0.0008
734.2574	-0.0021
734.4353	0.0114
734.6131	0.0129
734.791	0.0125
734.9689	0.0082
735.1467	0.0139
735.3245	-0.0029
735.5023	-0.0031
735.68	0.0063
735.8578	0.0083
736.0355	-0.0054
736.2132	0.0016
736.3909	0.0033
736.5686	-0.0063
736.7463	0.0148
736.9239	-0.0029
737.1015	0.007
737.2791	0.0086
737.4567	0.0093
737.6343	0.0015
737.8118	0.0074
737.9894	0.0045
738.1669	-0.0047
738.3444	0.0039
738.5218	0.0002
738.6993	0.0065
738.8767	-0.0031
739.0541	0.0113
739.2315	-0.0133
739.4089	0.0102
739.5863	-0.0018
739.7636	-0.0014
739.9409	-0.0034
740.1182	0.0069
740.2955	0.0066
740.4728	0.0063
740.65	0.0006
740.8272	0.0006
741.0044	-0.0002
741.1816	0.0081
741.3588	0.0025
741.5359	-0.0007
741.7131	-0.0072
741.8902	0.0058
742.0673	-0.0022
742.2444	-0.0014
742.4214	0.0016
742.5985	-0.0041
742.7755	-0.0068
742.9525	-0.0187
743.1295	0.0051
743.3064	0.0012
743.4834	0.0093
743.6603	-0.0028
743.8372	-0.0004
744.0141	-0.0026
744.191	0.0065
744.3678	0.0039
744.5446	0.0052
744.7215	0.003
744.8982	0.0019
745.075	-0.0065
745.2518	0.0052
745.4285	-0.0013
745.6052	-0.0014
745.7819	-0.0062
745.9586	-0.0022
746.1353	0.0008
746.3119	-0.0054
746.4885	-0.0082
746.6651	-0.0011
746.8417	-0.0016
747.0183	-0.003
747.1948	-0.0023
747.3714	0.0029
747.5479	-0.0003
747.7244	-0.0078
747.9008	0.0045
748.0773	-0.0098
748.2537	0.0037
748.4301	-0.0064
748.6065	0.0053
748.7829	0.0087
748.9593	-0.0008
749.1356	0.0015
749.3119	0.0091
749.4882	-0.0032
749.6645	0.0092
749.8408	-0.0011
750.017	0.0061
750.1933	-0.0016
750.3695	-0.0089
750.5457	0.0035
750.7218	0.0002
750.898	0.0129
751.0741	-0.0024
751.2502	0.0013
751.4263	0.0032
751.6024	-0.0043
751.7784	-0.002
751.9545	0.0032
752.1305	0.0001
752.3065	0.0043
752.4825	0.0117
752.6584	0.0003
752.8344	-0.0011
753.0103	0.0007
753.1862	-0.0043
753.3621	0.0078
753.5379	-0.0016
753.7138	-0.0041
753.8896	-0.0008
754.0654	0.01
754.2412	0.0146
754.417	0.0077
754.5927	0.0037
754.7685	0.0079
754.9442	0.0025
755.1199	0.012
755.2956	-0.006
755.4712	0.0105
755.6469	-0.002
755.8225	-0.0009
755.9981	0.0008
756.1736	0.0108
756.3492	0.0033
756.5248	-0.0081
756.7003	-0.001
756.8758	0.0064
757.0513	-0.0116
757.2267	-0.0082
757.4022	0.0099
757.5776	-0.0127
757.753	0.002
757.9284	-0.0002
758.1038	0.0072
758.2791	0.0085
758.4545	-0.0154
758.6298	-0.0004
758.8051	0.0029
758.9803	-0.0024
759.1556	0.0022
759.3308	-0.004
759.506	0.0059
759.6812	0.0064
759.8564	0.0078
760.0316	0.0075
760.2067	0.0043
760.3819	0.0083
760.557	0.0096
760.732	0.0119
760.9071	-0.0123
761.0821	0.0113
761.2572	0.0123
761.4322	-0.0037
761.6072	0.0085
761.7821	0.0026
761.9571	0.0037
762.132	-0.0006
762.3069	0.0005
762.4818	0.0008
762.6567	-0.0043
762.8316	-0.0049
763.0064	-0.0038
763.1812	-0.0047
763.356	-0.0004
763.5308	0.0059
763.7055	0.002
763.8803	-0.0083
764.055	-0.0004
764.2297	-0.0041
764.4044	-0.0071
764.579	-0.0044
764.7537	-0.0024
764.9283	0.0042
765.1029	-0.0099
765.2775	0.0001
765.4521	-0.003
765.6266	-0.0085
765.8011	0.0004
765.9756	0.0017
766.1501	0.0128
766.3246	0.0096
766.4991	-0.0038
766.6735	0.0112
766.8479	0.0019
767.0223	0.013
767.1967	0.0086
767.371	0.0051
767.5454	0.0007
767.7197	0.0105
767.894	0.0064
768.0683	-0.0115
768.2425	0.0079
768.4168	0.0102
768.591	0.0042
768.7652	0.0057
768.9394	0.0078
769.1135	0.001
769.2877	0.0071
769.4618	0.0011
769.6359	-0.0017
769.81	0.0075
769.984	0.0039
770.1581	-0.0041
770.3321	-0.0013
770.5061	-0.0072
770.6801	0.0042
770.8541	0.008
771.028	0.0182
771.202	-0.0089
771.3759	0.0014
771.5498	-0.0034
771.7236	0.0071
771.8975	0.003
772.0713	0.0039
772.2451	0.0039
772.4189	-0.0006
772.5927	0.0158
772.7665	0.0064
772.9402	0.003
773.1139	0.0012
773.2876	0.0011
773.4613	0.0104
773.635	0.0063
773.8086	-0.006
773.9822	0.0086
774.1558	0.0103
774.3294	0.0002
774.503	0.0087
774.6765	0.0157
774.8501	0.011
775.0236	0.0097
775.1971	0.0146
775.3705	0.0052
775.544	0.0084
775.7174	-0.0035
775.8908	0.0037
776.0642	0.0095
776.2376	0.0157
776.4109	0.0026
776.5843	-0.0049
776.7576	0.0136
776.9309	0.0119
777.1041	0.0119
777.2774	0.0225
777.4506	0.0092
777.6238	-0.0007
777.797	0.0051
777.9702	0.0038
778.1434	-0.0032
778.3165	-0.0147
778.4896	-0.0026
778.6627	-0.0046
778.8358	0
779.0089	0.0018
779.1819	0.0026
779.3549	0.0138
779.5279	0.0078
779.7009	0.0002
779.8739	-0.0068
780.0468	0.0029
780.2197	0.0073
780.3926	0.0046
780.5655	0.0011
780.7384	-0.0054
780.9112	0.0027
781.0841	-0.011
781.2569	-0.0058
781.4297	0.0055
781.6024	0.0023
781.7752	0.0037
781.9479	0.0025
782.1206	-0.0036
782.2933	-0.0099
782.466	0.0038
782.6386	0.0071
782.8113	0.0092
782.9839	0.01
783.1565	0.025
783.329	0.0185
783.5016	0.0143
783.6741	0.0209
783.8466	-0.0011
784.0191	0.0207
784.1916	0.0047
784.3641	-0.0011
784.5365	0.0159
784.7089	0.0115
784.8813	0.0063
785.0537	0.012
785.2261	0.0086
785.3984	-0.0092
785.5707	0.0072
785.743	0.0136
785.9153	0.0006
786.0876	0.0083
786.2598	-0.0006
786.432	-0.0129
786.6042	0.0095
786.7764	0.0036
786.9486	-0.0022
787.1207	-0.0051
787.2928	0.0144
787.4649	0.0165
787.637	0.0115
787.8091	0.0142
787.9811	0.0061
788.1532	-0.0049
788.3252	0.0043
788.4972	0.0082
788.6691	0.0112
788.8411	0.0139
789.013	-0.0004
789.1849	0.0185
789.3568	-0.0066
789.5287	0.0118
789.7005	-0.0028
789.8723	0.0059
790.0442	0.0319
790.2159	0.0022
790.3877	-0.0025
790.5595	-0.0051
790.7312	0.004
790.9029	-0.0013
791.0746	0.0019
791.2463	0.0019
791.4179	0.0044
791.5896	-0.0044
791.7612	0.006
791.9328	0.0147
792.1044	-0.0092
792.2759	-0.0208
792.4474	-0.01
792.619	-0.0072
792.7905	0.0071
792.9619	0.0026
793.1334	0.0081
793.3048	0.0202
793.4762	0.0023
793.6476	0.0103
793.819	-0.0025
793.9904	-0.0002
794.1617	-0.0004
794.333	0.0001
794.5043	0.0106
794.6756	-0.0004
794.8469	0.0043
795.0181	0.0075
795.1893	-0.0013
795.3605	0.0097
795.5317	0.0002
795.7029	0.0087
795.874	0.0064
796.0452	-0.0022
796.2163	0.0089
796.3873	0.0111
796.5584	0.021
796.7294	-0.0001
796.9005	0.0182
797.0715	0.0137
797.2425	-0.0077
797.4134	0.0095
797.5844	0.0103
797.7553	-0.0111
797.9262	-0.0005
798.0971	-0.0118
798.2679	-0.0062
798.4388	-0.015
798.6096	0.0018
798.7804	0.0132
798.9512	0.0016
799.122	0.012
799.2927	0.0049
799.4635	0.0178
799.6342	-0.011
799.8049	0.0046
799.9755	-0.0001
800.1462	-0.0108
800.3168	0.0227
800.4874	-0.0011
800.658	0.0274
800.8286	0.004
800.9991	0.0044
801.1696	0.01
801.3402	0.0149
801.5106	0.0127
801.6811	0.0055
801.8516	0.0251
802.022	0.0073
802.1924	0.0187
802.3628	0.0215
802.5332	-0.0007
802.7035	0.0247
802.8739	0.0174
803.0442	0.0055
803.2145	0.0165
803.3847	-0.0111
803.555	0.0085
803.7252	0.0119
803.8954	-0.0102
804.0656	0.005
804.2358	0.0093
804.4059	0.0111
804.5761	0.0165
804.7462	-0.0058
804.9163	0.0038
805.0864	-0.0077
805.2564	-0.0175
805.4264	0.0094
805.5965	0.0008
805.7665	0.0165
805.9364	-0.0133
806.1064	0.0353
806.2763	0.0144
806.4462	0.0086
806.6161	0.0031
806.786	0.0102
806.9559	0.0035
807.1257	-0.0001
807.2955	0.0017
807.4653	0.001
807.6351	0.0001
807.8048	0.0006
807.9746	0.0165
808.1443	-0.0063
808.314	0.0157
808.4837	0.0006
808.6533	0.0011
808.8229	0.0273
808.9926	0.0173
809.1622	0.0142
809.3317	-0.0089
809.5013	0.0143
809.6708	0.0105
809.8403	0.0106
810.0098	0.0068
810.1793	0.0155
810.3488	0.0069
810.5182	-0.0186
810.6876	0.0067
810.857	-0.0243
811.0264	0.0265
811.1958	0.0079
811.3651	0.0227
811.5344	0.0065
811.7037	-0.0033
811.873	-0.0124
812.0422	0.0035
812.2115	0.008
812.3807	0.0061
812.5499	0.0061
812.7191	0.0031
812.8882	-0.0019
813.0574	-0.0073
813.2265	0.0187
813.3956	0.0097
813.5646	0.0074
813.7337	0.0092
813.9027	0.0175
814.0718	0.025
814.2407	0.016
814.4097	0.0004
814.5787	-0.0231
814.7476	0.0035
814.9165	-0.0002
815.0854	-0.0043
815.2543	-0.0007
815.4232	-0.01
815.592	0.019
815.7608	0.0339
815.9296	0.0264
816.0984	0.0063
816.2671	0.0049
816.4359	0.0084
816.6046	0.0144
816.7733	0.0063
816.942	-0.0021
817.1106	0.0108
817.2793	0.0233
817.4479	0.0192
817.6165	0.0205
817.785	0.0172
817.9536	-0.0012
818.1221	0.0011
818.2906	0.0128
818.4591	0.0091
818.6276	0.0052
818.7961	0.0028
818.9645	0.0109
819.1329	0.0102
819.3013	0.0188
819.4697	0.023
819.638	0.0314
819.8064	0.021
819.9747	0.0204
820.143	0.0034
820.3113	-0.0096
820.4795	0.025
820.6477	0.0081
820.816	0.0213
820.9842	0.0107
821.1523	-0.0109
821.3205	-0.0002
821.4886	0.0194
821.6567	0.0214
821.8248	0.021
821.9929	0.0327
822.1609	0.0194
822.329	0.0474
822.497	0.0337
822.665	0.0025
822.833	-0.0014
823.0009	0.0276
823.1688	0.0229
823.3367	0.0373
823.5046	0.0162
823.6725	0.0386
823.8404	0.0041
824.0082	0.0235
824.176	0.0199
824.3438	0.003
824.5116	-0.0102
824.6793	0.0312
824.847	-0.0084
825.0147	0.0006
825.1824	0.0308
825.3501	0.0204
825.5177	-0.0099
825.6854	0.0002
825.853	0.0309
826.0206	0.0054
826.1881	0.0195
826.3557	0.0064
826.5232	0.0392
826.6907	-0.0319
826.8582	0.0112
827.0257	-0.0223
827.1931	0.0239
827.3605	0.0214
827.528	0.035
827.6953	0.0038
827.8627	0.0049
828.03	0.0356
828.1974	0.0059
828.3647	-0.0253
828.532	-0.0032
828.6992	-0.0081
828.8665	0.0002
829.0337	0.0063
829.2009	0.0191
829.3681	-0.0124
829.5352	0.0363
829.7024	-0.0151
829.8695	-0.052
830.0366	0.0415
830.2037	0.033
830.3707	0.0067
830.5378	0.0002
830.7048	0.0074
830.8718	-0.0009
831.0388	-0.0083
831.2057	0.0171
831.3727	0.0304
831.5396	0.0065
831.7065	-0.0049
831.8734	0.0264
832.0402	-0.0184
832.2071	0.0234
832.3739	-0.0081
832.5407	-0.008
832.7075	0.0327
832.8742	-0.0195
833.041	-0.0331
833.2077	0.0033
833.3744	0.0289
833.541	-0.0261
833.7077	-0.0322
833.8743	0.0029
834.0409	0.0158
834.2075	-0.0073
834.3741	0.0065
834.5407	0.0238
834.7072	0.0251
834.8737	-0.0261
835.0402	0.0216
835.2067	0.0306
835.3731	0.0144
835.5395	0.0159
835.706	0.0409
835.8723	0.067
836.0387	0.0154
836.2051	0.0268
836.3714	0.0396
836.5377	-0.0011
836.704	-0.0386
836.8703	0.0192
837.0365	0.0159
837.2027	0.0157
837.3689	0.0065
837.5351	-0.0287
837.7013	-0.0139
837.8674	-0.0309
838.0335	-0.0205
838.1997	-0.0203
838.3657	-0.0503
838.5318	-0.014
838.6978	0.0194
838.8639	0.0408
839.0299	-0.0073
839.1958	0.0019
839.3618	-0.0115
839.5277	0.0125
839.6937	0.0338
839.8596	-0.0328
840.0254	0.0207
840.1913	0.0285
840.3571	0.0322
840.523	-0.0016
840.6888	0.0215
840.8545	-0.0276
841.0203	0.003
841.186	0.0004
841.3517	0.0723
841.5174	0.0312
841.6831	-0.0375
841.8488	0.0225
842.0144	0.0317
842.18	0.0203
842.3456	0.0386
842.5112	0.0277
842.6767	-0.0318
842.8422	0.0563
843.0077	0.0098
843.1732	-0.0133
843.3387	0.005
843.5042	-0.0364
843.6696	0.0344
843.835	-0.0134
844.0004	0.0744
844.1657	0.0618
844.3311	-0.0776
844.4964	-0.0514
844.6617	0.0072
844.827	-0.0188
844.9923	-0.0543
845.1575	0.0378
845.3227	-0.0275
845.4879	-0.0372
845.6531	0.0142
845.8183	-0.0644
845.9834	-0.0142
846.1485	-0.0145
846.3136	-0.023
846.4787	-0.0132
846.6438	0.1023
846.8088	-0.0859
846.9738	-0.0221
847.1388	-0.0385
847.3038	-0.0084
847.4687	-0.1324
847.6337	0.0301
847.7986	-0.0164
847.9635	-0.0649
848.1284	0.0244
848.2932	0.0674
848.458	0.0437
848.6228	0.0205
848.7876	0.079
848.9524	-0.0179
849.1172	-0.1248
849.2819	0.099
849.4466	-0.1382
849.6113	-0.0961
849.7759	0.0235
849.9406	-0.0211
850.1052	0.061
850.2698	-0.0676
850.4344	0.0665
850.599	-0.0194
850.7635	0.2022
850.928	-0.0074
851.0925	0.074
851.257	0.0378
851.4215	-0.0479
851.5859	-0.0184
851.7503	0.0358
851.9147	0.0141
852.0791	-0.0912
852.2434	0.0364
852.4078	0.1225
852.5721	0.0273
852.7364	-0.0456
852.9007	-0.2154
853.0649	-0.005
853.2291	-0.0372
853.3934	0.0223
853.5575	0.052
853.7217	-0.0631
853.8859	-0.1406
854.05	-0.0466
854.2141	0.0716
854.3782	-0.0719
854.5423	-0.0339
854.7063	0.0832
854.8703	-0.0178
855.0343	-0.0764
855.1983	-0.1083
855.3623	0.0917
855.5262	0.0039
855.6901	-0.0296
855.854	0.156
856.0179	-0.0143
856.1818	0.0918
856.3456	-0.1037
856.5094	-0.1054
856.6732	0.1126
856.837	-0.1327
857.0008	-0.0288
857.1645	0.0361
857.3282	-0.2112
857.4919	0.038
857.6556	-0.0338
857.8192	-0.1061
857.9828	-0.0045
858.1465	-0.1086
858.31	0.0349
858.4736	-0.0076
858.6372	-0.3788
858.8007	-0.1429
858.9642	-0.0204
859.1277	0.0084
859.2911	0.1763
859.4546	0.0277
859.618	-0.3118
859.7814	-0.1109
859.9448	-0.0357
860.1081	-0.1257
860.2715	0.0588
860.4348	-0
860.5981	0.0416
860.7614	0.0763
860.9246	-0.2036
861.0879	-0.0938
861.2511	0.1173
861.4143	-0.2473
861.5774	0.1522
861.7406	-0.1416
861.9037	-0.0438
862.0668	-0.0039
862.2299	-0.1785
862.393	-0.453
862.556	-0.0798
862.7191	-0.337
862.8821	-0.1792
863.0451	0.0427
863.208	0.1
863.371	0.0019
863.5339	-0.3146
863.6968	0.0328
863.8597	0.0048
864.0225	-0.1258
864.1854	0.4097
864.3482	-0.1879
864.511	0.0018
864.6737	0.0443
864.8365	-0.0911
864.9992	-0.4257
865.1619	0.4054
865.3246	0.2303
865.4873	-0.1507
865.65	0.0065
865.8126	-0.2701
865.9752	0.1577
866.1378	-0.2323
866.3004	-0.2117
866.4629	0.2484
866.6254	-0.372
866.7879	-0.0506
866.9504	-0.386
867.1129	-0
867.2753	0.2166
867.4377	0.2144
867.6001	-0.2264
867.7625	0.1146
867.9249	-0.6762
868.0872	-0.2716
868.2495	0.128
868.4118	-0.1385
868.5741	-0.6764
868.7363	-0.1558
868.8986	-0.306
869.0608	-0.1537
869.223	0.1497
869.3851	0.5992
869.5473	-0
869.7094	0.1109
869.8715	-0.6688
870.0336	1.0544
870.1957	-0.715
870.3577	-0.5971
870.5197	-0.03
870.6817	0.1569
870.8437	-0.1192
871.0057	-0
871.1676	-0.4515
871.3295	-0.6258
871.4914	0.0559
871.6533	-0.3166
871.8151	-0.3566
871.977	-0
872.1388	-0
872.3006	-0.2581
872.4623	-0
872.6241	0.2817
872.7858	1.6323
872.9475	-0.2255
873.1092	-0.1943
873.2709	0.2125
873.4325	0.0444
873.5941	-0.2251
873.7557	-0
873.9173	-0
874.0789	0.6086
874.2404	-0
874.4019	0.1181
874.5634	1.2906
874.7249	-0.1761
874.8863	0.2173
875.0478	0.2173
875.2092	-0
875.3706	-0.1089
875.5319	-0.9074
875.6933	-0
875.8546	-0.2827
876.0159	-0.1687
876.1772	-0
876.3385	-0.3486
876.4997	0.4415
876.6609	-0.5451
876.8221	-0
876.9833	-0
877.1445	-0
877.3056	0.0598
877.4667	-0
877.6278	-0
877.7889	-0.603
877.9499	-0.1761
878.111	-0
878.272	-0.7879
878.433	0.3909
878.5939	-0
878.7549	0.2853
878.9158	-0
879.0767	-0
879.2376	0.0224
879.3984	-0.0679
879.5593	-0
879.7201	0.3895
879.8809	-0.6808
880.0417	0.4212
880.2024	0.1188
880.3632	-0.8615
880.5239	0.263
880.6846	0.2166
880.8452	-2.3664
881.0059	-1.1673
881.1665	-0.1381
881.3271	-0
881.4877	-0.508
881.6483	-0.5215
881.8088	-0.66
881.9693	-0
882.1298	-0
882.2903	-0
