Data from MonoPyChalIsomerACN10uM360nmA_Absorbance_13-57-29-004.txt Node
Date: Fri Jul 05 13:57:29 BST 2024
User: LASERRRRR
Spectrometer: FLMT03099
Trigger mode: 0
Integration Time (sec): 1.000000E-1
Scans to average: 1
Electric dark correction enabled: true
Nonlinearity correction enabled: false
Boxcar width: 0
XAxis mode: Wavelengths
Number of Pixels in Spectrum: 3648
>>>>>Begin Spectral Data<<<<<
179.3399	-0.4781
179.5586	-0.4781
179.7771	-0.4781
179.9957	0.0327
180.2143	-0.1627
180.4329	0.1878
180.6514	-0
180.8699	-0
181.0885	0.2797
181.307	-0.0216
181.5255	-0
181.744	-0.7527
181.9625	-0.1589
182.181	-0.8498
182.3994	-0
182.6179	-0
182.8363	-0.2084
183.0547	1.942
183.2732	0.0241
183.4916	0.1267
183.71	-0.059
183.9284	0.0696
184.1467	0.2109
184.3651	0.1447
184.5835	0.2726
184.8018	-0.1609
185.0201	0.275
185.2385	0.1151
185.4568	0.1113
185.6751	0.6128
185.8934	0.3936
186.1117	-0.1177
186.3299	-0.1369
186.5482	0.5352
186.7664	-0.0502
186.9847	0.0324
187.2029	0.2141
187.4211	0.0497
187.6393	0.478
187.8575	0.005
188.0757	0.089
188.2939	0.085
188.512	0.1281
188.7302	-0.1045
188.9483	0.3662
189.1665	0.076
189.3846	-0
189.6027	0.4542
189.8208	0.3598
190.0389	0.3454
190.257	0.0773
190.475	0.1373
190.6931	0.1865
190.9111	0.4578
191.1292	0.4186
191.3472	0.4168
191.5652	0.3057
191.7832	0.1886
192.0012	0.6215
192.2192	0.5133
192.4371	0.5157
192.6551	0.5141
192.873	0.7271
193.091	0.457
193.3089	0.5062
193.5268	0.5083
193.7447	0.8148
193.9626	0.569
194.1805	0.7452
194.3984	0.9856
194.6162	0.8675
194.8341	0.5327
195.0519	0.4472
195.2697	0.6971
195.4875	0.5742
195.7054	0.488
195.9231	0.5732
196.1409	0.6617
196.3587	0.6903
196.5765	0.5974
196.7942	0.7587
197.012	0.5719
197.2297	0.8037
197.4474	1.1581
197.6651	0.5473
197.8828	0.504
198.1005	0.7756
198.3182	0.7911
198.5358	0.9383
198.7535	0.6584
198.9711	0.5636
199.1888	0.6816
199.4064	0.9422
199.624	0.6628
199.8416	0.6012
200.0592	0.6373
200.2767	0.721
200.4943	0.6724
200.7119	0.723
200.9294	0.8919
201.1469	0.6197
201.3645	0.6464
201.582	0.6394
201.7995	0.7393
202.017	0.6281
202.2344	0.6348
202.4519	0.6987
202.6694	0.7198
202.8868	0.5966
203.1042	0.7782
203.3217	0.6386
203.5391	0.6092
203.7565	0.6947
203.9739	0.6195
204.1913	0.6337
204.4086	0.7545
204.626	0.7564
204.8433	0.6339
205.0607	0.6651
205.278	0.7002
205.4953	0.6291
205.7126	0.6215
205.9299	0.7805
206.1472	0.7172
206.3644	0.6271
206.5817	0.7112
206.7989	0.6851
207.0162	0.6779
207.2334	0.7567
207.4506	0.6352
207.6678	0.6665
207.885	0.711
208.1022	0.615
208.3194	0.6513
208.5365	0.638
208.7537	0.5985
208.9708	0.5508
209.1879	0.6864
209.405	0.6289
209.6222	0.6718
209.8392	0.6166
210.0563	0.6364
210.2734	0.6468
210.4905	0.6562
210.7075	0.6118
210.9245	0.5969
211.1416	0.6822
211.3586	0.5992
211.5756	0.6386
211.7926	0.6216
212.0096	0.6026
212.2265	0.5865
212.4435	0.6062
212.6604	0.6207
212.8774	0.5717
213.0943	0.6017
213.3112	0.5828
213.5281	0.5785
213.745	0.4823
213.9619	0.5204
214.1788	0.4713
214.3956	0.5
214.6125	0.5098
214.8293	0.4412
215.0461	0.4907
215.2629	0.4425
215.4798	0.4661
215.6965	0.4392
215.9133	0.4173
216.1301	0.399
216.3469	0.4268
216.5636	0.4112
216.7803	0.4138
216.9971	0.4242
217.2138	0.4094
217.4305	0.3739
217.6472	0.3667
217.8639	0.3823
218.0805	0.3329
218.2972	0.3667
218.5138	0.335
218.7305	0.3393
218.9471	0.3098
219.1637	0.2863
219.3803	0.2944
219.5969	0.2637
219.8135	0.2575
220.0301	0.2571
220.2466	0.2927
220.4632	0.2729
220.6797	0.2299
220.8962	0.2515
221.1127	0.2708
221.3292	0.2663
221.5457	0.2341
221.7622	0.2297
221.9787	0.2827
222.1951	0.2514
222.4116	0.2884
222.628	0.267
222.8444	0.2684
223.0608	0.2565
223.2772	0.253
223.4936	0.2527
223.71	0.2544
223.9264	0.2715
224.1427	0.2739
224.3591	0.2526
224.5754	0.2723
224.7917	0.2773
225.008	0.2774
225.2243	0.2739
225.4406	0.2912
225.6569	0.2943
225.8732	0.272
226.0894	0.2607
226.3057	0.2651
226.5219	0.2996
226.7381	0.2548
226.9543	0.2647
227.1705	0.2993
227.3867	0.2935
227.6029	0.322
227.8191	0.3003
228.0352	0.3155
228.2513	0.3054
228.4675	0.3206
228.6836	0.308
228.8997	0.3196
229.1158	0.3064
229.3319	0.3088
229.548	0.3063
229.764	0.3341
229.9801	0.337
230.1961	0.3168
230.4121	0.3548
230.6282	0.3486
230.8442	0.3365
231.0602	0.3629
231.2761	0.3576
231.4921	0.3589
231.7081	0.342
231.924	0.3535
232.14	0.3891
232.3559	0.334
232.5718	0.3727
232.7877	0.3592
233.0036	0.3582
233.2195	0.358
233.4353	0.3676
233.6512	0.384
233.867	0.3569
234.0829	0.3643
234.2987	0.3676
234.5145	0.3876
234.7303	0.378
234.9461	0.3908
235.1619	0.375
235.3776	0.3852
235.5934	0.3868
235.8091	0.3476
236.0249	0.3851
236.2406	0.3798
236.4563	0.3756
236.672	0.4231
236.8877	0.3874
237.1034	0.3945
237.319	0.3851
237.5347	0.4132
237.7503	0.3991
237.966	0.3971
238.1816	0.4164
238.3972	0.416
238.6128	0.397
238.8284	0.3988
239.0439	0.433
239.2595	0.404
239.475	0.4068
239.6906	0.4096
239.9061	0.4116
240.1216	0.4116
240.3371	0.4247
240.5526	0.4046
240.7681	0.4131
240.9836	0.388
241.199	0.4048
241.4145	0.391
241.6299	0.3956
241.8453	0.3798
242.0607	0.3977
242.2761	0.3632
242.4915	0.3791
242.7069	0.3668
242.9223	0.3653
243.1376	0.3563
243.353	0.3515
243.5683	0.3595
243.7836	0.3432
243.9989	0.3296
244.2142	0.3111
244.4295	0.316
244.6448	0.3293
244.86	0.3028
245.0753	0.3022
245.2905	0.296
245.5057	0.2894
245.721	0.2844
245.9362	0.2743
246.1514	0.2776
246.3665	0.2568
246.5817	0.2526
246.7969	0.2562
247.012	0.2463
247.2271	0.2507
247.4423	0.2597
247.6574	0.249
247.8725	0.2454
248.0876	0.2345
248.3026	0.2314
248.5177	0.2277
248.7328	0.2259
248.9478	0.2128
249.1628	0.2084
249.3779	0.2312
249.5929	0.2138
249.8079	0.2327
250.0228	0.2277
250.2378	0.2083
250.4528	0.2018
250.6677	0.2072
250.8827	0.1938
251.0976	0.1894
251.3125	0.1996
251.5274	0.1678
251.7423	0.1799
251.9572	0.1874
252.172	0.1796
252.3869	0.1794
252.6017	0.1869
252.8166	0.1752
253.0314	0.1726
253.2462	0.1798
253.461	0.1748
253.6758	0.171
253.8906	0.1982
254.1053	0.1805
254.3201	0.1608
254.5348	0.1759
254.7496	0.1778
254.9643	0.158
255.179	0.1757
255.3937	0.1715
255.6083	0.1719
255.823	0.1698
256.0377	0.1709
256.2523	0.1729
256.467	0.153
256.6816	0.1754
256.8962	0.1686
257.1108	0.1816
257.3254	0.1649
257.54	0.1614
257.7545	0.1671
257.9691	0.1623
258.1836	0.1647
258.3981	0.1765
258.6127	0.1766
258.8272	0.1679
259.0417	0.1635
259.2561	0.1609
259.4706	0.1612
259.6851	0.1706
259.8995	0.1633
260.114	0.1613
260.3284	0.1651
260.5428	0.1526
260.7572	0.1746
260.9716	0.1783
261.186	0.1613
261.4003	0.1693
261.6147	0.159
261.829	0.1629
262.0433	0.1709
262.2577	0.1551
262.472	0.1641
262.6863	0.1606
262.9005	0.1733
263.1148	0.1631
263.3291	0.1529
263.5433	0.1623
263.7576	0.1685
263.9718	0.1602
264.186	0.1645
264.4002	0.1641
264.6144	0.1633
264.8286	0.1777
265.0427	0.172
265.2569	0.159
265.471	0.1716
265.6851	0.1537
265.8993	0.1601
266.1134	0.1634
266.3275	0.1641
266.5415	0.1501
266.7556	0.1552
266.9697	0.1695
267.1837	0.1722
267.3978	0.1566
267.6118	0.1822
267.8258	0.1797
268.0398	0.1536
268.2538	0.1812
268.4677	0.1621
268.6817	0.1671
268.8957	0.162
269.1096	0.1655
269.3235	0.1649
269.5374	0.1532
269.7514	0.1455
269.9652	0.1546
270.1791	0.1521
270.393	0.1406
270.6068	0.1541
270.8207	0.1445
271.0345	0.1508
271.2483	0.163
271.4622	0.15
271.676	0.1629
271.8897	0.143
272.1035	0.1407
272.3173	0.1468
272.531	0.1388
272.7448	0.1377
272.9585	0.1481
273.1722	0.1479
273.3859	0.1522
273.5996	0.1407
273.8133	0.1514
274.0269	0.1435
274.2406	0.144
274.4542	0.1488
274.6679	0.1421
274.8815	0.159
275.0951	0.1558
275.3087	0.15
275.5223	0.1455
275.7358	0.1639
275.9494	0.1484
276.1629	0.1525
276.3765	0.1501
276.59	0.1565
276.8035	0.1553
277.017	0.152
277.2305	0.1483
277.444	0.1464
277.6574	0.1417
277.8709	0.1462
278.0843	0.15
278.2978	0.1455
278.5112	0.1484
278.7246	0.1544
278.938	0.1389
279.1513	0.1507
279.3647	0.1602
279.5781	0.1478
279.7914	0.157
280.0047	0.1708
280.2181	0.1491
280.4314	0.1613
280.6447	0.1549
280.8579	0.1595
281.0712	0.1729
281.2845	0.1501
281.4977	0.1666
281.711	0.152
281.9242	0.1464
282.1374	0.1703
282.3506	0.1464
282.5638	0.1572
282.7769	0.157
282.9901	0.1525
283.2033	0.158
283.4164	0.1709
283.6295	0.1557
283.8426	0.1571
284.0557	0.1649
284.2688	0.1673
284.4819	0.1678
284.695	0.1535
284.908	0.1604
285.1211	0.1492
285.3341	0.1701
285.5471	0.1642
285.7601	0.1629
285.9731	0.1661
286.1861	0.1568
286.3991	0.1682
286.612	0.1585
286.825	0.1641
287.0379	0.1672
287.2508	0.1669
287.4637	0.1702
287.6766	0.1549
287.8895	0.1681
288.1024	0.1753
288.3152	0.1704
288.5281	0.156
288.7409	0.1691
288.9538	0.164
289.1666	0.1728
289.3794	0.1672
289.5922	0.1622
289.8049	0.1613
290.0177	0.1602
290.2304	0.1735
290.4432	0.1677
290.6559	0.1702
290.8686	0.1575
291.0813	0.1569
291.294	0.166
291.5067	0.1698
291.7194	0.164
291.932	0.1726
292.1447	0.1657
292.3573	0.161
292.5699	0.1668
292.7825	0.1735
292.9951	0.1695
293.2077	0.1583
293.4203	0.1617
293.6328	0.1619
293.8454	0.1752
294.0579	0.1663
294.2704	0.1651
294.4829	0.1544
294.6954	0.1716
294.9079	0.1614
295.1204	0.158
295.3328	0.1505
295.5453	0.1677
295.7577	0.1688
295.9701	0.1581
296.1825	0.1627
296.3949	0.1564
296.6073	0.1639
296.8197	0.1522
297.0321	0.1709
297.2444	0.1502
297.4567	0.1634
297.6691	0.1628
297.8814	0.1541
298.0937	0.1586
298.306	0.1638
298.5182	0.1659
298.7305	0.1653
298.9428	0.1548
299.155	0.1603
299.3672	0.1608
299.5794	0.1621
299.7916	0.1622
300.0038	0.1618
300.216	0.1643
300.4282	0.1725
300.6403	0.1546
300.8525	0.1703
301.0646	0.1571
301.2767	0.1554
301.4888	0.1674
301.7009	0.1599
301.913	0.1593
302.125	0.161
302.3371	0.1662
302.5491	0.1647
302.7612	0.165
302.9732	0.167
303.1852	0.1678
303.3972	0.1606
303.6092	0.1549
303.8211	0.1461
304.0331	0.1543
304.245	0.1442
304.457	0.1581
304.6689	0.1529
304.8808	0.1574
305.0927	0.164
305.3046	0.1533
305.5164	0.1593
305.7283	0.1472
305.9401	0.1596
306.152	0.1461
306.3638	0.1507
306.5756	0.1482
306.7874	0.1415
306.9992	0.1533
307.2109	0.1465
307.4227	0.1371
307.6344	0.1363
307.8462	0.1322
308.0579	0.14
308.2696	0.1293
308.4813	0.1347
308.693	0.1261
308.9046	0.1327
309.1163	0.1287
309.328	0.1239
309.5396	0.1198
309.7512	0.1241
309.9628	0.12
310.1744	0.1228
310.386	0.1246
310.5976	0.1283
310.8091	0.1249
311.0207	0.119
311.2322	0.1212
311.4437	0.1092
311.6552	0.1101
311.8667	0.1178
312.0782	0.1038
312.2897	0.1012
312.5012	0.1125
312.7126	0.1056
312.924	0.1032
313.1355	0.1085
313.3469	0.1194
313.5583	0.1109
313.7696	0.1013
313.981	0.1056
314.1924	0.0969
314.4037	0.0941
314.6151	0.1059
314.8264	0.108
315.0377	0.0995
315.249	0.1006
315.4603	0.12
315.6716	0.1097
315.8828	0.0932
316.0941	0.1035
316.3053	0.0907
316.5165	0.0988
316.7277	0.0889
316.9389	0.1084
317.1501	0.1014
317.3613	0.1027
317.5724	0.0902
317.7836	0.1027
317.9947	0.1024
318.2058	0.1002
318.417	0.0879
318.6281	0.0916
318.8391	0.0972
319.0502	0.0986
319.2613	0.1031
319.4723	0.098
319.6834	0.1059
319.8944	0.0962
320.1054	0.1107
320.3164	0.1083
320.5274	0.1047
320.7383	0.0985
320.9493	0.1043
321.1602	0.1116
321.3712	0.0905
321.5821	0.0924
321.793	0.1003
322.0039	0.1059
322.2148	0.0915
322.4257	0.0976
322.6365	0.1132
322.8474	0.0963
323.0582	0.1052
323.269	0.0972
323.4798	0.1108
323.6906	0.1008
323.9014	0.104
324.1122	0.1052
324.3229	0.1041
324.5337	0.1019
324.7444	0.0954
324.9551	0.1213
325.1658	0.1081
325.3765	0.1139
325.5872	0.1017
325.7979	0.1011
326.0085	0.0956
326.2192	0.1162
326.4298	0.0989
326.6404	0.1005
326.851	0.0961
327.0616	0.1086
327.2722	0.099
327.4828	0.1076
327.6933	0.1175
327.9039	0.107
328.1144	0.1136
328.3249	0.1086
328.5354	0.1029
328.7459	0.0987
328.9564	0.0986
329.1669	0.1066
329.3773	0.1144
329.5878	0.1065
329.7982	0.1074
330.0086	0.1152
330.219	0.1033
330.4294	0.1067
330.6398	0.0984
330.8502	0.1077
331.0605	0.108
331.2708	0.1134
331.4812	0.1025
331.6915	0.106
331.9018	0.1045
332.1121	0.108
332.3224	0.1091
332.5326	0.1184
332.7429	0.106
332.9531	0.1228
333.1633	0.1062
333.3735	0.1055
333.5837	0.0997
333.7939	0.0999
334.0041	0.1177
334.2143	0.1224
334.4244	0.1102
334.6346	0.0902
334.8447	0.1098
335.0548	0.1082
335.2649	0.107
335.475	0.1197
335.685	0.1026
335.8951	0.1217
336.1051	0.1198
336.3152	0.1214
336.5252	0.109
336.7352	0.1212
336.9452	0.1226
337.1552	0.1369
337.3652	0.1149
337.5751	0.1095
337.7851	0.1159
337.995	0.1138
338.2049	0.1166
338.4148	0.1202
338.6247	0.1141
338.8346	0.1175
339.0445	0.1144
339.2543	0.1192
339.4642	0.113
339.674	0.1022
339.8838	0.1099
340.0936	0.1107
340.3034	0.1331
340.5132	0.118
340.7229	0.1324
340.9327	0.1219
341.1424	0.1082
341.3522	0.1274
341.5619	0.1274
341.7716	0.1181
341.9813	0.1378
342.1909	0.1132
342.4006	0.1359
342.6102	0.1207
342.8199	0.1242
343.0295	0.1337
343.2391	0.1329
343.4487	0.1289
343.6583	0.1163
343.8679	0.1246
344.0774	0.1355
344.287	0.1364
344.4965	0.1315
344.706	0.1364
344.9155	0.1363
345.125	0.1409
345.3345	0.1219
345.544	0.127
345.7534	0.1352
345.9629	0.1187
346.1723	0.1313
346.3817	0.1284
346.5911	0.1324
346.8005	0.1343
347.0099	0.1174
347.2193	0.1372
347.4286	0.1211
347.638	0.1425
347.8473	0.1376
348.0566	0.1437
348.2659	0.148
348.4752	0.1244
348.6845	0.1374
348.8937	0.1274
349.103	0.1447
349.3122	0.1318
349.5214	0.136
349.7306	0.143
349.9398	0.1364
350.149	0.1489
350.3582	0.1378
350.5674	0.1532
350.7765	0.1546
350.9856	0.1458
351.1948	0.1463
351.4039	0.1289
351.613	0.1419
351.822	0.1576
352.0311	0.14
352.2402	0.1449
352.4492	0.152
352.6582	0.1657
352.8672	0.1463
353.0762	0.1422
353.2852	0.1437
353.4942	0.1539
353.7032	0.1531
353.9121	0.1576
354.1211	0.1469
354.33	0.1636
354.5389	0.1523
354.7478	0.1451
354.9567	0.1419
355.1655	0.143
355.3744	0.1592
355.5833	0.1591
355.7921	0.1744
356.0009	0.1617
356.2097	0.1547
356.4185	0.1659
356.6273	0.1755
356.8361	0.1601
357.0448	0.1651
357.2536	0.1581
357.4623	0.1562
357.671	0.1721
357.8797	0.1691
358.0884	0.1618
358.2971	0.1566
358.5057	0.172
358.7144	0.1711
358.923	0.173
359.1316	0.1711
359.3402	0.1718
359.5488	0.1588
359.7574	0.1618
359.966	0.1731
360.1746	0.1759
360.3831	0.189
360.5916	0.1685
360.8002	0.1615
361.0087	0.1748
361.2172	0.1664
361.4256	0.167
361.6341	0.195
361.8426	0.1791
362.051	0.1717
362.2594	0.1661
362.4678	0.1882
362.6762	0.2124
362.8846	0.1917
363.093	0.1881
363.3014	0.1767
363.5097	0.1673
363.718	0.191
363.9264	0.1853
364.1347	0.1725
364.343	0.1869
364.5513	0.2102
364.7595	0.1913
364.9678	0.1817
365.176	0.2047
365.3842	0.1834
365.5925	0.2029
365.8007	0.2027
366.0089	0.1828
366.217	0.183
366.4252	0.1949
366.6333	0.207
366.8415	0.2008
367.0496	0.1951
367.2577	0.2086
367.4658	0.2146
367.6739	0.2052
367.882	0.203
368.09	0.201
368.2981	0.2133
368.5061	0.1997
368.7141	0.1997
368.9221	0.2057
369.1301	0.2112
369.3381	0.2068
369.5461	0.1943
369.754	0.2081
369.962	0.2141
370.1699	0.2191
370.3778	0.2288
370.5857	0.2025
370.7936	0.2145
371.0015	0.2185
371.2093	0.2217
371.4172	0.2221
371.625	0.2072
371.8328	0.2207
372.0406	0.2061
372.2484	0.213
372.4562	0.2253
372.664	0.212
372.8717	0.2359
373.0795	0.2161
373.2872	0.2304
373.4949	0.2325
373.7026	0.2275
373.9103	0.2321
374.118	0.2313
374.3256	0.244
374.5333	0.2177
374.7409	0.2098
374.9485	0.2458
375.1561	0.2228
375.3637	0.2297
375.5713	0.2309
375.7789	0.2346
375.9864	0.2286
376.194	0.2243
376.4015	0.2394
376.609	0.229
376.8165	0.2281
377.024	0.2372
377.2315	0.2228
377.4389	0.2429
377.6464	0.2424
377.8538	0.2363
378.0612	0.2367
378.2686	0.2353
378.476	0.2434
378.6834	0.2534
378.8908	0.2491
379.0981	0.2471
379.3055	0.2518
379.5128	0.2387
379.7201	0.2543
379.9274	0.247
380.1347	0.2461
380.342	0.2485
380.5492	0.23
380.7565	0.242
380.9637	0.2509
381.1709	0.2514
381.3781	0.2371
381.5853	0.2544
381.7925	0.2564
381.9997	0.256
382.2068	0.2581
382.4139	0.2567
382.6211	0.2365
382.8282	0.2357
383.0353	0.2442
383.2424	0.246
383.4494	0.2711
383.6565	0.2457
383.8635	0.2419
384.0706	0.2578
384.2776	0.2508
384.4846	0.2412
384.6916	0.2528
384.8986	0.2326
385.1055	0.2497
385.3125	0.2404
385.5194	0.2326
385.7263	0.2571
385.9333	0.2571
386.1402	0.2442
386.347	0.2454
386.5539	0.2423
386.7608	0.2662
386.9676	0.236
387.1744	0.2507
387.3813	0.226
387.5881	0.2447
387.7948	0.2547
388.0016	0.251
388.2084	0.2474
388.4151	0.2453
388.6219	0.2479
388.8286	0.2375
389.0353	0.2581
389.242	0.2527
389.4487	0.2448
389.6553	0.2388
389.862	0.2133
390.0686	0.2256
390.2753	0.2587
390.4819	0.2375
390.6885	0.2295
390.8951	0.2444
391.1016	0.2287
391.3082	0.2306
391.5147	0.238
391.7213	0.2347
391.9278	0.2206
392.1343	0.2197
392.3408	0.2319
392.5473	0.2065
392.7537	0.2299
392.9602	0.2139
393.1666	0.2352
393.373	0.2313
393.5794	0.2453
393.7858	0.2241
393.9922	0.2261
394.1986	0.2333
394.4049	0.2326
394.6113	0.2131
394.8176	0.2353
395.0239	0.2181
395.2302	0.2096
395.4365	0.2121
395.6428	0.217
395.8491	0.2004
396.0553	0.2096
396.2615	0.2102
396.4678	0.2138
396.674	0.2119
396.8802	0.2147
397.0863	0.2389
397.2925	0.2081
397.4987	0.2028
397.7048	0.2311
397.9109	0.2205
398.117	0.2121
398.3231	0.2099
398.5292	0.2099
398.7353	0.219
398.9413	0.2198
399.1474	0.2043
399.3534	0.2076
399.5594	0.2041
399.7654	0.2265
399.9714	0.22
400.1774	0.1993
400.3833	0.2158
400.5893	0.2119
400.7952	0.2097
401.0011	0.2286
401.207	0.2122
401.4129	0.2134
401.6188	0.2133
401.8247	0.2211
402.0305	0.2119
402.2364	0.2039
402.4422	0.2174
402.648	0.2209
402.8538	0.2213
403.0596	0.2035
403.2654	0.2153
403.4711	0.2085
403.6768	0.215
403.8826	0.2259
404.0883	0.2149
404.294	0.2075
404.4997	0.1997
404.7054	0.2147
404.911	0.1945
405.1167	0.2032
405.3223	0.2173
405.5279	0.2228
405.7335	0.2019
405.9391	0.2188
406.1447	0.1847
406.3502	0.224
406.5558	0.1989
406.7613	0.2152
406.9668	0.2069
407.1724	0.1998
407.3778	0.2026
407.5833	0.2072
407.7888	0.2031
407.9942	0.2176
408.1997	0.2025
408.4051	0.209
408.6105	0.2129
408.8159	0.2019
409.0213	0.1929
409.2267	0.2234
409.432	0.2141
409.6374	0.2016
409.8427	0.2068
410.048	0.1992
410.2533	0.198
410.4586	0.2169
410.6639	0.1754
410.8691	0.2098
411.0744	0.2065
411.2796	0.205
411.4848	0.1906
411.69	0.192
411.8952	0.223
412.1004	0.1864
412.3056	0.2155
412.5107	0.1972
412.7158	0.2197
412.921	0.1987
413.1261	0.1952
413.3312	0.1988
413.5362	0.1856
413.7413	0.2027
413.9464	0.2064
414.1514	0.2136
414.3564	0.1925
414.5614	0.1753
414.7664	0.183
414.9714	0.1954
415.1764	0.1933
415.3813	0.2231
415.5863	0.2169
415.7912	0.1993
415.9961	0.2077
416.201	0.207
416.4059	0.2145
416.6108	0.2028
416.8156	0.2075
417.0205	0.1872
417.2253	0.1798
417.4301	0.2201
417.6349	0.2126
417.8397	0.1931
418.0445	0.2011
418.2492	0.2054
418.454	0.1867
418.6587	0.1837
418.8634	0.1857
419.0681	0.1697
419.2728	0.1948
419.4775	0.173
419.6822	0.1701
419.8868	0.177
420.0915	0.1893
420.2961	0.1731
420.5007	0.1817
420.7053	0.1918
420.9099	0.1868
421.1144	0.2012
421.319	0.1885
421.5235	0.1767
421.728	0.1806
421.9325	0.1919
422.137	0.1966
422.3415	0.1902
422.546	0.1837
422.7504	0.1773
422.9549	0.1849
423.1593	0.1711
423.3637	0.1916
423.5681	0.1816
423.7725	0.1822
423.9769	0.1816
424.1812	0.1721
424.3856	0.1605
424.5899	0.167
424.7942	0.1822
424.9985	0.1636
425.2028	0.176
425.4071	0.2015
425.6113	0.1633
425.8156	0.1792
426.0198	0.1649
426.224	0.1563
426.4282	0.1528
426.6324	0.1636
426.8366	0.1644
427.0407	0.1391
427.2449	0.1602
427.449	0.1646
427.6531	0.1392
427.8572	0.1529
428.0613	0.1646
428.2654	0.1616
428.4694	0.1577
428.6735	0.1712
428.8775	0.1645
429.0815	0.1569
429.2855	0.1497
429.4895	0.148
429.6935	0.1655
429.8975	0.1552
430.1014	0.1407
430.3053	0.1166
430.5093	0.1516
430.7132	0.1163
430.9171	0.1491
431.1209	0.1363
431.3248	0.1239
431.5286	0.1458
431.7325	0.1294
431.9363	0.1318
432.1401	0.1353
432.3439	0.117
432.5477	0.1175
432.7514	0.1318
432.9552	0.1369
433.1589	0.1258
433.3627	0.1279
433.5664	0.1221
433.7701	0.1124
433.9737	0.1097
434.1774	0.1218
434.3811	0.1174
434.5847	0.131
434.7883	0.1109
434.9919	0.1039
435.1955	0.1085
435.3991	0.1238
435.6027	0.112
435.8062	0.0969
436.0098	0.0969
436.2133	0.106
436.4168	0.0975
436.6203	0.083
436.8238	0.112
437.0272	0.0887
437.2307	0.0884
437.4341	0.1022
437.6375	0.0989
437.841	0.0897
438.0443	0.0948
438.2477	0.1019
438.4511	0.0791
438.6545	0.0784
438.8578	0.0995
439.0611	0.0895
439.2644	0.0875
439.4677	0.0866
439.671	0.0698
439.8743	0.0777
440.0775	0.0831
440.2808	0.0723
440.484	0.0626
440.6872	0.0644
440.8904	0.0618
441.0936	0.0963
441.2967	0.0823
441.4999	0.0777
441.703	0.0568
441.9062	0.066
442.1093	0.0713
442.3124	0.0705
442.5155	0.0531
442.7185	0.0648
442.9216	0.0322
443.1246	0.0613
443.3276	0.0564
443.5307	0.055
443.7337	0.0546
443.9366	0.0493
444.1396	0.0628
444.3426	0.0433
444.5455	0.0652
444.7484	0.0491
444.9513	0.0657
445.1542	0.0672
445.3571	0.0515
445.56	0.0541
445.7628	0.0425
445.9657	0.0443
446.1685	0.0591
446.3713	0.0321
446.5741	0.0494
446.7769	0.0313
446.9797	0.0317
447.1824	0.044
447.3852	0.0324
447.5879	0.0479
447.7906	0.0341
447.9933	0.0427
448.196	0.0439
448.3986	0.0343
448.6013	0.0189
448.8039	0.0286
449.0066	0.0298
449.2092	0.0423
449.4118	0.039
449.6143	0.0211
449.8169	0.0434
450.0195	0.0351
450.222	0.0142
450.4245	0.0194
450.627	0.0391
450.8295	0.0392
451.032	0.0348
451.2345	0.0345
451.4369	0.0393
451.6394	0.0346
451.8418	0.0066
452.0442	0.0255
452.2466	0.0426
452.449	0.006
452.6513	0.0249
452.8537	0.0251
453.056	0.0022
453.2583	0.0505
453.4607	0.0183
453.663	0.0084
453.8652	0.0241
454.0675	0.004
454.2697	0.0161
454.472	0.0038
454.6742	0.0327
454.8764	0.0145
455.0786	0.0246
455.2808	0.0082
455.4829	0.0161
455.6851	0.0284
455.8872	0.0322
456.0893	0.0186
456.2915	-0.0037
456.4935	0.0269
456.6956	0.0164
456.8977	0.0142
457.0997	0.011
457.3018	-0.0004
457.5038	0.0175
457.7058	-0.0027
457.9078	0.0096
458.1098	0.0136
458.3117	0.0101
458.5137	0.02
458.7156	0.0237
458.9175	0.0008
459.1194	0.0155
459.3213	-0.0015
459.5232	0.0119
459.725	-0.0126
459.9269	-0.0022
460.1287	-0.001
460.3305	0.0053
460.5323	-0.0038
460.7341	-0
460.9359	0.0108
461.1376	0.0114
461.3394	0.0019
461.5411	0.0098
461.7428	0.0126
461.9445	0.0202
462.1462	0.0206
462.3479	-0.0014
462.5495	0.0015
462.7512	0.0059
462.9528	0.0035
463.1544	-0.018
463.356	0.0168
463.5576	0.0116
463.7592	-0.0034
463.9607	0.0012
464.1623	0.0057
464.3638	0.0143
464.5653	0.0081
464.7668	0.008
464.9683	0.0109
465.1697	0.0001
465.3712	-0.0005
465.5726	-0.0121
465.7741	-0.0008
465.9755	-0.0045
466.1769	-0.0041
466.3782	-0.0049
466.5796	-0.0018
466.7809	0.0142
466.9823	0.0013
467.1836	0.0062
467.3849	0.0008
467.5862	0.0046
467.7875	-0.0053
467.9887	0.022
468.19	-0.007
468.3912	-0.004
468.5924	-0.0024
468.7936	0.0076
468.9948	0.0009
469.196	0.0248
469.3972	0.0035
469.5983	-0.0059
469.7994	-0.0118
470.0006	-0.0032
470.2017	-0.0044
470.4027	0.0065
470.6038	0.0136
470.8049	-0.0149
471.0059	-0.0094
471.2069	-0.013
471.408	-0.0029
471.6089	0.0124
471.8099	-0.0216
472.0109	-0.0023
472.2119	-0.0019
472.4128	-0.0134
472.6137	0.0145
472.8146	-0.0104
473.0155	0.0077
473.2164	0.0062
473.4173	0.0015
473.6181	0.015
473.819	0.0038
474.0198	-0.0033
474.2206	0.0042
474.4214	-0.0042
474.6222	0.0041
474.8229	-0.0045
475.0237	-0.0003
475.2244	-0.0102
475.4251	0.0001
475.6258	0.0028
475.8265	0.0087
476.0272	0.0066
476.2278	-0.0032
476.4285	-0.0089
476.6291	-0.0073
476.8297	-0.0002
477.0303	-0.0077
477.2309	-0.0159
477.4315	-0.011
477.632	-0.0027
477.8326	-0
478.0331	0.0065
478.2336	-0.0061
478.4341	-0.0047
478.6346	-0.0031
478.8351	0.0032
479.0355	-0.0062
479.236	-0.0033
479.4364	0.0037
479.6368	0.0016
479.8372	-0.0109
480.0376	0.003
480.2379	-0.0238
480.4383	0.0026
480.6386	0.0077
480.8389	0.0072
481.0392	0.0047
481.2395	-0.0094
481.4398	0.0035
481.6401	0.0087
481.8403	-0.0057
482.0405	-0.009
482.2408	-0.006
482.441	0.0158
482.6411	-0.0047
482.8413	0.0055
483.0415	-0.0102
483.2416	-0.0091
483.4417	0.0124
483.6419	-0.0037
483.8419	0.0009
484.042	0.0103
484.2421	-0.0016
484.4422	0.0012
484.6422	-0.0023
484.8422	-0.0149
485.0422	-0.0068
485.2422	0.0102
485.4422	-0.0162
485.6422	-0.0133
485.8421	-0.0121
486.042	0.0022
486.242	-0.0043
486.4419	-0.0063
486.6417	-0.0101
486.8416	-0.0077
487.0415	0.0006
487.2413	-0.0007
487.4411	-0.0062
487.641	-0.0092
487.8408	0.0009
488.0405	-0.0122
488.2403	-0.0052
488.4401	0.0001
488.6398	0.0077
488.8395	-0.0065
489.0392	-0.0001
489.2389	-0.0076
489.4386	0.0047
489.6383	-0.0128
489.8379	0.0026
490.0376	-0.0036
490.2372	-0.01
490.4368	-0.0107
490.6364	-0.0034
490.836	0.0033
491.0355	-0.0119
491.2351	-0.0079
491.4346	0.0021
491.6341	-0.0079
491.8336	0.006
492.0331	-0.0141
492.2326	-0.0201
492.432	-0.0128
492.6315	-0.0094
492.8309	-0.0066
493.0303	-0.0249
493.2297	-0.0068
493.4291	0.0003
493.6284	0.0033
493.8278	-0.0063
494.0271	0.005
494.2264	0.0087
494.4257	-0.017
494.625	-0.0005
494.8243	-0.013
495.0236	-0.0049
495.2228	-0.0068
495.422	-0.0096
495.6213	-0.0024
495.8205	-0.0069
496.0196	-0.0057
496.2188	0.0004
496.418	-0.0124
496.6171	-0.0192
496.8162	-0.0083
497.0153	0.0007
497.2144	-0.0019
497.4135	-0.0013
497.6126	-0.0182
497.8116	-0.0017
498.0107	-0.0012
498.2097	-0.0074
498.4087	-0.0066
498.6077	-0.0055
498.8067	-0.0065
499.0056	-0.0071
499.2046	-0.0103
499.4035	-0.0259
499.6024	0.001
499.8013	-0.0006
500.0002	-0.0141
500.199	0.0045
500.3979	-0.0081
500.5967	-0.0083
500.7956	-0.0037
500.9944	-0.0015
501.1932	-0.0182
501.3919	-0.0147
501.5907	-0.0167
501.7895	-0.0042
501.9882	-0.0152
502.1869	-0.0001
502.3856	-0.0087
502.5843	-0.0105
502.783	-0.0129
502.9816	-0.0048
503.1803	-0.0022
503.3789	-0.0039
503.5775	-0.0036
503.7761	-0.0006
503.9747	0.0021
504.1732	-0.0099
504.3718	-0.0028
504.5703	-0.0055
504.7689	-0.016
504.9674	-0.0035
505.1658	-0.0093
505.3643	-0.0031
505.5628	-0.0092
505.7612	-0.0074
505.9597	0.0103
506.1581	-0.0088
506.3565	-0.0004
506.5549	-0.0069
506.7532	-0.0082
506.9516	0.0025
507.1499	-0.008
507.3482	-0.0104
507.5465	-0.0009
507.7448	-0.0091
507.9431	-0.0115
508.1414	-0.0041
508.3396	-0.0083
508.5379	-0.013
508.7361	-0.0046
508.9343	-0.0052
509.1325	-0.0006
509.3306	-0.0038
509.5288	0.0054
509.7269	-0.0117
509.9251	0.0003
510.1232	-0.0092
510.3213	0.0013
510.5193	-0.0009
510.7174	-0.0145
510.9154	-0.005
511.1135	0.01
511.3115	-0.0179
511.5095	-0.0042
511.7075	0.0049
511.9055	0.0004
512.1034	-0.0053
512.3014	-0.0026
512.4993	-0
512.6972	-0.0076
512.8951	-0.0162
513.093	-0.0006
513.2908	-0.0013
513.4887	-0.0077
513.6865	-0.0047
513.8844	-0.0005
514.0822	-0.0149
514.2799	-0.011
514.4777	-0.0084
514.6755	-0.0009
514.8732	-0.0135
515.0709	-0.0023
515.2687	-0.0021
515.4664	0.0062
515.664	-0.0033
515.8617	-0.0048
516.0594	-0.0218
516.257	0.0003
516.4546	-0.0104
516.6522	0.0038
516.8498	0.0001
517.0474	0.0083
517.2449	-0.0047
517.4425	-0.0094
517.64	-0.0009
517.8375	-0.0003
518.035	0.0028
518.2325	-0.0045
518.43	-0.0065
518.6274	-0.005
518.8249	-0.0146
519.0223	-0.0092
519.2197	-0.0043
519.4171	-0.0077
519.6145	-0.0122
519.8118	0.0092
520.0092	-0.0056
520.2065	-0.0038
520.4038	-0.0051
520.6011	-0.0048
520.7984	-0.0106
520.9956	-0.0086
521.1929	-0.0118
521.3901	-0.0072
521.5874	-0.0017
521.7846	-0.0031
521.9818	-0.0087
522.1789	-0.0102
522.3761	-0.0075
522.5732	-0.0179
522.7704	-0.0058
522.9675	-0.0029
523.1646	-0.0072
523.3617	-0.0027
523.5587	-0.0055
523.7558	0.0005
523.9528	-0.0114
524.1498	0.0052
524.3468	-0.0093
524.5438	-0.0121
524.7408	-0.0097
524.9378	0.0016
525.1347	-0.0113
525.3316	-0.0028
525.5285	-0.0102
525.7254	-0.0038
525.9223	0.0042
526.1192	-0.0058
526.316	-0.0161
526.5129	0.0063
526.7097	-0.0106
526.9065	-0.0034
527.1033	-0.0157
527.3	-0.004
527.4968	-0.004
527.6935	-0.0075
527.8903	-0.014
528.087	-0.0017
528.2837	0.0001
528.4804	-0.0059
528.677	-0.013
528.8737	-0.0002
529.0703	0.01
529.2669	-0.0001
529.4635	-0.0026
529.6601	-0.0019
529.8567	-0.0047
530.0532	-0.0101
530.2498	-0.0007
530.4463	0.0041
530.6428	-0.001
530.8393	-0.0019
531.0358	-0.0087
531.2322	-0.0028
531.4287	-0.0115
531.6251	-0.0005
531.8215	0.0143
532.0179	-0.0055
532.2143	0.0151
532.4107	-0.0013
532.607	-0.0011
532.8034	-0.0108
532.9997	-0.0055
533.196	-0.001
533.3923	-0.0112
533.5886	0.0028
533.7848	-0.0002
533.9811	-0.0005
534.1773	-0.0016
534.3735	0.0044
534.5697	0.0014
534.7659	-0.0103
534.9621	-0.0099
535.1582	0.0017
535.3544	-0.0031
535.5505	-0.0013
535.7466	-0.0036
535.9427	-0.0133
536.1387	-0.0039
536.3348	-0.0029
536.5308	-0.0046
536.7269	-0.0083
536.9229	-0.0082
537.1189	0.001
537.3148	-0.0047
537.5108	-0.0093
537.7068	-0.0007
537.9027	-0.005
538.0986	-0.0027
538.2945	-0.0122
538.4904	-0.005
538.6863	-0.0039
538.8821	0.0055
539.078	-0.0029
539.2738	-0.0035
539.4696	0.0036
539.6654	0.0085
539.8611	0.0035
540.0569	-0.0044
540.2526	-0.0153
540.4484	0.0012
540.6441	-0.0015
540.8398	0.0108
541.0355	-0.0024
541.2311	0.0074
541.4268	-0.0062
541.6224	0.0063
541.818	0.0139
542.0136	-0.009
542.2092	0.0058
542.4048	0.0078
542.6003	0.0016
542.7959	0.0051
542.9914	-0.005
543.1869	0.0059
543.3824	-0.0048
543.5779	-0.0084
543.7734	-0.004
543.9688	-0.0051
544.1642	0.0024
544.3596	-0.0028
544.555	-0.0032
544.7504	0.0003
544.9458	-0.0016
545.1411	-0.014
545.3365	-0.0016
545.5318	-0.0066
545.7271	-0.0046
545.9224	-0.0012
546.1177	0.0066
546.3129	0.0131
546.5081	-0.0039
546.7034	-0.0058
546.8986	-0.0045
547.0938	-0.0054
547.289	0.0029
547.4841	-0.0004
547.6793	0.0113
547.8744	0.0015
548.0695	-0.0004
548.2646	0.0018
548.4597	0.0092
548.6548	0.0011
548.8498	0.0058
549.0448	0.0068
549.2399	-0.0073
549.4349	0.0031
549.6298	-0.0049
549.8248	0.0093
550.0198	-0.0013
550.2147	-0.001
550.4096	-0.0061
550.6045	0.0008
550.7994	0.0022
550.9943	-0.0002
551.1892	-0.0027
551.384	0.0064
551.5788	-0.002
551.7737	0.0058
551.9685	-0.0098
552.1632	0.0011
552.358	0.0001
552.5528	0.0012
552.7475	0.006
552.9422	-0.0054
553.1369	-0.0043
553.3316	0.004
553.5263	-0.0045
553.7209	-0.0014
553.9156	-0.0036
554.1102	-0.0061
554.3048	-0.0119
554.4994	0.0068
554.694	-0.0005
554.8885	0.0036
555.0831	-0.0099
555.2776	-0.0062
555.4721	-0.008
555.6666	-0.008
555.8611	0.0073
556.0555	-0.0022
556.25	0.0007
556.4444	-0.0054
556.6388	-0.002
556.8332	-0.0012
557.0276	0.0012
557.222	-0.002
557.4163	-0.0021
557.6107	-0.0128
557.805	0.0101
557.9993	-0.0063
558.1936	0.0023
558.3879	0.01
558.5821	0.0078
558.7764	-0.0019
558.9706	-0.0029
559.1648	0.0087
559.359	0.0033
559.5532	-0.009
559.7473	-0.0016
559.9415	-0.0016
560.1356	-0.0051
560.3297	-0.0146
560.5238	-0.0026
560.7179	0.0005
560.9119	-0.0001
561.106	-0.0047
561.3	-0.0055
561.494	-0.0022
561.688	0.0005
561.882	-0.0029
562.076	-0.0007
562.2699	0.0038
562.4639	0.0065
562.6578	-0.0068
562.8517	0.0012
563.0456	-0.0063
563.2395	-0.0011
563.4333	0.0005
563.6272	0.0055
563.821	-0.0073
564.0148	0.0007
564.2086	0.008
564.4024	-0.0049
564.5961	0.0012
564.7899	0.0071
564.9836	-0.0004
565.1773	0.0015
565.371	0.0074
565.5647	-0.0035
565.7584	0.0018
565.952	0.0045
566.1456	0.0027
566.3393	0.0039
566.5329	-0.0042
566.7264	0.0027
566.92	-0.0094
567.1136	0.0041
567.3071	-0.0062
567.5006	0.0076
567.6941	0.0031
567.8876	0.0022
568.0811	-0.0027
568.2745	0.0055
568.468	0.009
568.6614	0.0084
568.8548	0.0019
569.0482	-0.0009
569.2416	0.0067
569.4349	0.0005
569.6283	0.0011
569.8216	0.0007
570.0149	-0.0017
570.2082	0.0109
570.4015	0.0006
570.5947	0.0077
570.788	0.0025
570.9812	0.0088
571.1744	-0.0064
571.3676	-0.0009
571.5608	0.0003
571.754	0.0144
571.9471	0.0045
572.1402	0.0043
572.3333	-0.0092
572.5264	-0.0061
572.7195	0.0047
572.9126	0.0033
573.1057	0.0051
573.2987	0.0003
573.4917	0.0027
573.6847	-0.008
573.8777	0.0066
574.0707	0.0116
574.2636	0.0017
574.4566	-0.0033
574.6495	0.0019
574.8424	-0.0011
575.0353	0.001
575.2281	0.007
575.421	0.0009
575.6138	0.0004
575.8067	-0.0009
575.9995	0.0022
576.1923	0.0088
576.385	-0.0003
576.5778	0.002
576.7706	-0.0006
576.9633	0.002
577.156	0.0017
577.3487	0.0014
577.5414	0.0032
577.734	-0.001
577.9267	0.0033
578.1193	-0.0094
578.3119	0.0002
578.5045	0.0037
578.6971	0.0012
578.8897	0.0146
579.0822	0.0032
579.2747	0.0076
579.4673	0.0001
579.6598	-0.0041
579.8522	-0.0007
580.0447	-0.0015
580.2372	-0.0048
580.4296	0.0057
580.622	-0.0033
580.8144	0.0028
581.0068	-0.0013
581.1992	-0.0066
581.3915	0.0012
581.5839	-0.0037
581.7762	-0.0009
581.9685	-0.001
582.1608	0.0049
582.353	-0.0015
582.5453	0.0007
582.7375	0.0073
582.9298	0.0086
583.122	-0.0006
583.3142	0.0021
583.5063	0.0014
583.6985	0.0023
583.8906	-0.0042
584.0827	-0.0018
584.2749	0.0061
584.4669	0.0041
584.659	-0.0003
584.8511	-0.0013
585.0431	-0.0015
585.2352	0.0038
585.4272	0.0043
585.6192	0.0005
585.8111	0
586.0031	0.003
586.195	0.0011
586.387	0.0061
586.5789	0.004
586.7708	0.0079
586.9627	0.0057
587.1545	-0.0063
587.3464	0.0002
587.5382	0.0044
587.73	0.0016
587.9218	0.0071
588.1136	-0.005
588.3053	0.0025
588.4971	-0.0051
588.6888	-0.0076
588.8805	0.0033
589.0722	0.0092
589.2639	0.0039
589.4556	0.003
589.6472	0.0047
589.8389	-0.0017
590.0305	-0.0087
590.2221	0.0064
590.4137	-0.0098
590.6052	0.0083
590.7968	0.0009
590.9883	0.006
591.1798	0.0045
591.3713	0.0054
591.5628	0.0036
591.7543	0.0063
591.9458	0.0085
592.1372	0.0096
592.3286	0.0083
592.52	0.0055
592.7114	0.0022
592.9028	0.0023
593.0941	0.0004
593.2855	0.0033
593.4768	-0.0012
593.6681	-0.0037
593.8594	-0.0007
594.0506	0.0025
594.2419	0.0156
594.4331	0.0035
594.6244	0.0059
594.8156	0.0006
595.0067	-0.0002
595.1979	0.0055
595.3891	0.0001
595.5802	-0.0046
595.7713	-0.0013
595.9624	-0.0053
596.1535	0.0044
596.3446	0.0062
596.5357	-0.0005
596.7267	0.0067
596.9177	-0.0016
597.1087	0.0008
597.2997	-0.0035
597.4907	0.0072
597.6817	-0.005
597.8726	-0.0038
598.0635	0.0029
598.2544	0.0103
598.4453	-0.0024
598.6362	0.0004
598.827	0.0025
599.0179	0.0064
599.2087	0.0012
599.3995	0.0018
599.5903	-0.0005
599.7811	0.0005
599.9718	-0.004
600.1626	-0.0009
600.3533	0.0003
600.544	-0.0023
600.7347	0.0027
600.9254	-0.0015
601.116	-0.0094
601.3067	0.003
601.4973	-0.0026
601.6879	0.0027
601.8785	0.0003
602.0691	0.0056
602.2596	0.0035
602.4502	0.0107
602.6407	0.0041
602.8312	0.0053
603.0217	-0.0023
603.2122	0.0074
603.4027	0.0036
603.5931	-0.002
603.7835	-0.0059
603.9739	0.0004
604.1643	0.0004
604.3547	0.0012
604.5451	0.0089
604.7354	0.0025
604.9257	0.0031
605.116	-0.0001
605.3063	0.0112
605.4966	0.004
605.6869	0.0055
605.8771	0.01
606.0673	0.0084
606.2575	0.0089
606.4477	0.0111
606.6379	-0.0019
606.8281	0.0015
607.0182	-0.0004
607.2083	0.0088
607.3985	-0.0025
607.5885	0.0015
607.7786	-0.0008
607.9687	-0.0035
608.1587	0.0101
608.3488	0.0042
608.5388	-0.0005
608.7288	-0.0063
608.9187	-0.0041
609.1087	-0.01
609.2986	-0.0066
609.4886	0.0043
609.6785	0.006
609.8684	0.0021
610.0582	0.0075
610.2481	0.0089
610.4379	0.0024
610.6278	-0.0019
610.8176	0
611.0074	0.0025
611.1971	-0.0005
611.3869	-0.0038
611.5766	0.0021
611.7664	0.0052
611.9561	0.0075
612.1458	0.0071
612.3354	0.0015
612.5251	0.0026
612.7147	0.0027
612.9044	0.0093
613.094	-0.0012
613.2836	0.0095
613.4731	-0.0058
613.6627	0.0031
613.8522	0.0073
614.0417	-0.0059
614.2313	0.0012
614.4207	-0.0041
614.6102	0.0045
614.7997	0.0041
614.9891	0.0031
615.1785	0.0019
615.3679	0.0004
615.5573	0.0033
615.7467	0.0007
615.9361	-0.0056
616.1254	-0.002
616.3147	0.0067
616.504	0
616.6933	-0.0011
616.8826	0.0032
617.0718	0.004
617.2611	0.0031
617.4503	-0.0053
617.6395	-0.0019
617.8287	0.0062
618.0179	0.0017
618.207	0.0143
618.3961	0.0027
618.5853	0.008
618.7744	0.0098
618.9634	0.0068
619.1525	0.0061
619.3416	0.0063
619.5306	0.0119
619.7196	0.0072
619.9086	0.0043
620.0976	0.0055
620.2866	0.0042
620.4755	0.0136
620.6645	0.0094
620.8534	0.0094
621.0423	0.0031
621.2312	0.0079
621.42	-0.0025
621.6089	-0.0002
621.7977	0.0056
621.9865	-0.0068
622.1753	0.0074
622.3641	0.0038
622.5529	0.015
622.7416	0.0077
622.9303	0.0028
623.1191	0.0133
623.3078	0.0047
623.4964	0.0015
623.6851	0.0032
623.8737	0.0035
624.0624	0.005
624.251	0.003
624.4396	-0.0017
624.6282	0.0019
624.8167	0.0054
625.0053	0.0092
625.1938	0.0118
625.3823	0.0016
625.5708	0.0039
625.7593	0.0012
625.9477	-0.004
626.1362	0.003
626.3246	0.0071
626.513	0.0071
626.7014	0.0066
626.8898	-0.0009
627.0781	0.0044
627.2665	0.0008
627.4548	0.0036
627.6431	0.0056
627.8314	0.0059
628.0197	0.0056
628.2079	0.0014
628.3962	-0.0004
628.5844	0.0101
628.7726	0.0065
628.9608	0.0136
629.1489	0.0035
629.3371	0.0031
629.5252	-0.0029
629.7134	0.0123
629.9015	0.0001
630.0895	0.005
630.2776	-0.0024
630.4657	0.0015
630.6537	0.0004
630.8417	0.0053
631.0297	0.0014
631.2177	-0.0013
631.4057	-0.0056
631.5936	0.0095
631.7815	0.008
631.9695	0.0028
632.1574	0.0092
632.3452	0.015
632.5331	0.0026
632.7209	0.001
632.9088	0.0104
633.0966	0.0164
633.2844	0.0025
633.4722	0.0011
633.6599	0.0076
633.8477	0.007
634.0354	0.003
634.2231	0.0006
634.4108	0.0073
634.5985	0.0069
634.7861	0.0034
634.9738	0.001
635.1614	-0.0009
635.349	0.0089
635.5366	-0.0032
635.7242	0.0062
635.9117	0.0015
636.0993	0.0048
636.2868	0.0071
636.4743	0.0013
636.6618	0.0127
636.8492	0.0039
637.0367	0.0035
637.2241	-0.0018
637.4115	-0.0043
637.5989	0.001
637.7863	-0.0021
637.9737	0.0051
638.161	0.0056
638.3484	0.0039
638.5357	0.0077
638.723	0.0019
638.9103	0.0067
639.0975	0.0096
639.2848	0.0101
639.472	0.0061
639.6592	0.0077
639.8464	0.0119
640.0336	0.0058
640.2208	0.0043
640.4079	-0.0003
640.595	0.0055
640.7821	-0.0005
640.9692	0.0047
641.1563	0.0033
641.3434	0.0024
641.5304	-0.0023
641.7174	-0.0003
641.9044	0.0047
642.0914	0.0006
642.2784	0.0045
642.4653	0.0097
642.6523	0.0076
642.8392	-0.002
643.0261	0.004
643.213	0.0032
643.3999	-0.0016
643.5867	-0.0049
643.7735	0.0036
643.9604	-0.0082
644.1472	0.0009
644.3339	-0.0008
644.5207	0.0071
644.7075	0.0065
644.8942	0.0033
645.0809	0.007
645.2676	0.0061
645.4543	0.0042
645.6409	0.0055
645.8276	0.004
646.0142	0.0032
646.2008	-0.0017
646.3874	0.0012
646.574	-0.0004
646.7605	-0.0087
646.9471	-0.0056
647.1336	0.0081
647.3201	0.0051
647.5066	-0.004
647.6931	0.0152
647.8795	0.0007
648.0659	0.0094
648.2524	0.0037
648.4388	0.0026
648.6252	0.0013
648.8115	0.0074
648.9979	0.0013
649.1842	0.0002
649.3705	0.004
649.5568	0.0035
649.7431	0.0074
649.9294	0.0025
650.1156	0.0033
650.3018	0.0009
650.488	0.0093
650.6742	0.0009
650.8604	0.0032
651.0466	-0.003
651.2327	0.007
651.4188	0.0035
651.6049	0.0067
651.791	0.0008
651.9771	0.0057
652.1632	0.0085
652.3492	0.0067
652.5352	0.0064
652.7212	0.0012
652.9072	0.006
653.0932	-0.0022
653.2791	-0.0025
653.465	0.0033
653.651	-0.0028
653.8369	0.0051
654.0227	0.0032
654.2086	0.0112
654.3944	0.0015
654.5803	0.0048
654.7661	0.0115
654.9519	0.0104
655.1377	-0.003
655.3234	0.0038
655.5092	-0.0015
655.6949	-0.0022
655.8806	-0.003
656.0663	-0.0009
656.2519	0.0016
656.4376	-0.0052
656.6232	0.0074
656.8088	-0.0028
656.9945	0.0031
657.18	0.0055
657.3656	0.0034
657.5511	-0.0001
657.7367	0.0003
657.9222	0.0043
658.1077	-0.0008
658.2932	0.0058
658.4786	0.0026
658.6641	-0.0002
658.8495	-0.0016
659.0349	0.0039
659.2203	0.0141
659.4057	0.0108
659.591	-0.0017
659.7764	0.0007
659.9617	0.0065
660.147	-0.0007
660.3323	0.0182
660.5176	0.0068
660.7028	0.004
660.888	0.0077
661.0733	0.0088
661.2585	-0.0093
661.4436	0.004
661.6288	0.0005
661.8139	0.0055
661.9991	0.0131
662.1842	0.0042
662.3693	0.0012
662.5544	0.0022
662.7394	0.0003
662.9245	0.0047
663.1095	-0.0015
663.2945	0.007
663.4795	0.0026
663.6644	0.0034
663.8494	0.0067
664.0343	0.0106
664.2193	-0.0003
664.4042	0.0038
664.589	0.001
664.7739	0.0037
664.9587	-0.0008
665.1436	0.0015
665.3284	0.0026
665.5132	-0.0036
665.698	0.0039
665.8827	0.0133
666.0675	0.0086
666.2522	-0.004
666.4369	0.0054
666.6216	0.0117
666.8063	0.0021
666.9909	0.0082
667.1756	0.0025
667.3602	0.0079
667.5448	0.0072
667.7294	0.0135
667.9139	0.0096
668.0985	0.0162
668.283	-0.0012
668.4675	0.0115
668.652	-0.0004
668.8365	0.0014
669.0209	0.0091
669.2054	0.0118
669.3898	0.0067
669.5742	0.0114
669.7586	0.0066
669.943	0.0105
670.1273	0.0152
670.3117	0.0055
670.496	0.015
670.6803	0.0144
670.8646	0.009
671.0488	0
671.2331	0.006
671.4173	0.0171
671.6015	0.0029
671.7857	0.0091
671.9699	0.0005
672.1541	0.0076
672.3382	0.0088
672.5223	0.0092
672.7064	0.0053
672.8905	0.0093
673.0746	0.0053
673.2587	0.0098
673.4427	0.0078
673.6267	0.0137
673.8107	0.0186
673.9947	0.0142
674.1787	0.0105
674.3626	-0.003
674.5465	0.0081
674.7304	0.0065
674.9143	0.0011
675.0982	0.0106
675.2821	-0.005
675.4659	0.008
675.6497	0.0122
675.8335	-0.0007
676.0173	-0.0009
676.2011	0.0018
676.3849	0.0048
676.5686	-0.0005
676.7523	0.0005
676.936	0.0013
677.1197	0.0066
677.3034	0.0013
677.487	0.0011
677.6706	0.0041
677.8542	0.0052
678.0378	0.0042
678.2214	-0.0038
678.405	0.0018
678.5885	-0.0109
678.772	-0.0017
678.9555	-0.0065
679.139	-0.0108
679.3225	-0.0052
679.5059	-0.0024
679.6894	0.0079
679.8728	-0.0004
680.0562	-0.0046
680.2395	-0.0029
680.4229	0.0008
680.6062	0.0049
680.7896	0.0019
680.9729	-0.0034
681.1562	0.0028
681.3394	0.0067
681.5227	-0.0101
681.7059	0.0069
681.8891	-0.0051
682.0723	0.0017
682.2555	0.0054
682.4387	-0.0029
682.6218	-0.0023
682.805	0.0107
682.9881	0.0011
683.1712	0.0021
683.3542	0.0006
683.5373	-0.0025
683.7203	-0.0049
683.9034	-0.001
684.0864	-0.0022
684.2694	0.0028
684.4523	0.0021
684.6353	-0.0074
684.8182	0.0061
685.0011	-0.0052
685.184	0.006
685.3669	-0.0023
685.5498	0.0003
685.7326	0.0003
685.9154	0.0004
686.0982	0.0116
686.281	0.0036
686.4638	0.0051
686.6465	-0.0028
686.8293	0.0039
687.012	0.0053
687.1947	-0.0083
687.3774	0.0047
687.56	0.0012
687.7427	0.0125
687.9253	0.003
688.1079	0.0031
688.2905	0.0091
688.4731	-0.0001
688.6556	0.0021
688.8382	0.0045
689.0207	0.0056
689.2032	-0.0057
689.3857	0.0021
689.5681	0.0029
689.7506	0.0021
689.933	-0.0032
690.1154	0.0043
690.2978	0.0027
690.4802	0.0041
690.6626	-0.0044
690.8449	-0.0028
691.0272	0.0128
691.2095	-0.0045
691.3918	-0.0032
691.5741	0.0083
691.7563	0.0067
691.9386	0.0031
692.1208	0.0025
692.303	0.0001
692.4852	0.0001
692.6673	0.0028
692.8495	-0.0024
693.0316	0.0078
693.2137	0.0109
693.3958	0.0014
693.5778	0.0033
693.7599	0.0037
693.9419	0.007
694.1239	0.0028
694.3059	0.0049
694.4879	0.0127
694.6699	0.0175
694.8518	0.0077
695.0337	-0.0086
695.2157	0.0108
695.3975	0.0061
695.5794	0.0082
695.7613	0.008
695.9431	0.0014
696.1249	0.0064
696.3067	0.0002
696.4885	0.008
696.6703	-0.0037
696.852	0.0048
697.0337	0.0057
697.2154	0.0013
697.3971	0.0066
697.5788	-0.0013
697.7605	0.0013
697.9421	0.0042
698.1237	-0.0007
698.3053	0.0039
698.4869	-0.003
698.6685	-0.0076
698.85	0.0025
699.0315	0.0094
699.213	0.0031
699.3945	0.0039
699.576	0.0122
699.7575	0.008
699.9389	0.0116
700.1203	-0.0013
700.3017	0.0027
700.4831	-0.0058
700.6645	0.0006
700.8458	0.0062
701.0271	-0.0006
701.2084	0.0066
701.3897	0.0008
701.571	0.0021
701.7523	-0.0004
701.9335	0.0023
702.1147	0.0093
702.2959	0.018
702.4771	0.0127
702.6583	0.0039
702.8394	-0.0049
703.0205	0.0078
703.2016	-0.0048
703.3827	0.0007
703.5638	0.009
703.7449	0.0062
703.9259	0.0097
704.1069	-0.0016
704.2879	0.0089
704.4689	0.0065
704.6499	0.0021
704.8308	0.0041
705.0117	0.0013
705.1927	0.0017
705.3735	-0.0042
705.5544	-0.004
705.7353	0.0021
705.9161	-0.0139
706.0969	-0.0011
706.2777	0.0055
706.4585	0.0027
706.6393	0.0066
706.82	0.0059
707.0007	0.0048
707.1815	0.0111
707.3621	0.0066
707.5428	0.0069
707.7235	0.0082
707.9041	0.0114
708.0847	-0.0021
708.2653	0.0045
708.4459	-0.0063
708.6265	0.0019
708.807	-0.008
708.9875	0.0043
709.168	0.0009
709.3485	0.0006
709.529	-0.0043
709.7095	-0.0091
709.8899	-0.0006
710.0703	-0.0012
710.2507	0.0045
710.4311	-0.0006
710.6115	-0.0065
710.7918	-0.0002
710.9721	-0.0017
711.1524	-0.0038
711.3327	0.0046
711.513	0.0055
711.6932	0.0004
711.8735	0.0066
712.0537	0.0004
712.2339	-0.0043
712.4141	-0.0052
712.5942	-0.0047
712.7744	0.001
712.9545	0.0084
713.1346	-0.0033
713.3147	0.0013
713.4947	-0.0095
713.6748	0.0029
713.8548	-0.0053
714.0348	-0.0034
714.2148	-0.0013
714.3948	0.0067
714.5748	-0.0085
714.7547	-0.0061
714.9346	0.0114
715.1145	0.0005
715.2944	-0.0112
715.4743	-0.007
715.6541	-0.0071
715.834	-0.0021
716.0138	-0.0042
716.1936	-0.0091
716.3733	0.0014
716.5531	0.0108
716.7328	0.0002
716.9126	-0.0005
717.0923	0.0083
717.2719	0.0122
717.4516	0.0082
717.6312	0.0074
717.8109	-0.0009
717.9905	0.0064
718.1701	0.0038
718.3496	-0.0056
718.5292	0.0009
718.7087	0.0024
718.8882	0.0009
719.0677	0.0083
719.2472	-0.0033
719.4267	0.0009
719.6061	0.0027
719.7856	0.002
719.965	0.009
720.1443	0.0013
720.3237	0.0093
720.5031	0.0185
720.6824	0.0047
720.8617	-0.0019
721.041	0.0023
721.2203	0.0023
721.3995	0.0044
721.5788	-0.0008
721.758	0.0069
721.9372	-0.0005
722.1164	0.004
722.2956	0.0126
722.4747	0.0091
722.6538	-0.0027
722.8329	0.0231
723.012	0.0123
723.1911	0.0058
723.3702	0.0097
723.5492	0.0111
723.7282	-0.0049
723.9072	0.0098
724.0862	-0.0023
724.2652	0.0029
724.4441	-0.009
724.623	-0.0004
724.8019	0.0014
724.9808	0.004
725.1597	-0.0096
725.3385	0.0059
725.5174	0.0094
725.6962	-0.0017
725.875	-0.0031
726.0538	0.0038
726.2325	-0.0038
726.4112	0.0001
726.59	-0.0003
726.7687	-0.0033
726.9474	-0.0029
727.126	0.0058
727.3047	-0.0105
727.4833	0.0008
727.6619	-0.0097
727.8405	-0.0076
728.0191	-0.0018
728.1976	0.0011
728.3762	-0.0026
728.5547	0.0003
728.7332	-0.0062
728.9116	0.0052
729.0901	0.0023
729.2686	-0.0106
729.447	0.0037
729.6254	-0.0029
729.8038	0.0096
729.9821	-0.012
730.1605	0.0023
730.3388	-0.0001
730.5171	-0.0027
730.6954	-0.0118
730.8737	0.0063
731.0519	0.0009
731.2302	0.0034
731.4084	0.006
731.5866	0.0075
731.7648	0.0015
731.9429	0.0077
732.1211	-0.0065
732.2992	0.0035
732.4773	0.0019
732.6554	-0.0007
732.8335	-0.0018
733.0115	0.0038
733.1896	0.0103
733.3676	0.0045
733.5456	0.0071
733.7235	0.0055
733.9015	0.007
734.0794	0.0052
734.2574	0.0079
734.4353	0.0118
734.6131	0.0206
734.791	0.0001
734.9689	0.0069
735.1467	0.015
735.3245	-0.0006
735.5023	-0.0068
735.68	0.0051
735.8578	0.014
736.0355	-0.0073
736.2132	0.0025
736.3909	-0.0016
736.5686	-0.012
736.7463	0.0034
736.9239	-0.003
737.1015	0.0114
737.2791	-0.0006
737.4567	0.0024
737.6343	0.0023
737.8118	0.0043
737.9894	0.0082
738.1669	-0.0063
738.3444	-0.0046
738.5218	0.0049
738.6993	0.0047
738.8767	-0.0004
739.0541	0.0046
739.2315	-0.008
739.4089	0.0008
739.5863	0.0113
739.7636	0.0083
739.9409	0.0053
740.1182	0.0011
740.2955	0.0152
740.4728	0.0022
740.65	0.0018
740.8272	-0.0016
741.0044	0.0008
741.1816	0.0016
741.3588	-0.0003
741.5359	0.0016
741.7131	-0.0073
741.8902	0.0001
742.0673	-0.0033
742.2444	-0.0002
742.4214	-0.0095
742.5985	-0.0072
742.7755	-0.003
742.9525	-0.0176
743.1295	-0.0001
743.3064	-0.0006
743.4834	0.0073
743.6603	-0.003
743.8372	-0.0008
744.0141	0.0111
744.191	0.0005
744.3678	-0.0017
744.5446	-0.0018
744.7215	0.0019
744.8982	-0.0052
745.075	-0.0025
745.2518	0.0023
745.4285	-0.0034
745.6052	-0.0103
745.7819	-0.0017
745.9586	-0.0048
746.1353	-0.0001
746.3119	-0.0036
746.4885	-0.0064
746.6651	-0.0039
746.8417	-0.0065
747.0183	-0.0031
747.1948	-0.0057
747.3714	-0.0033
747.5479	-0.0006
747.7244	0.001
747.9008	-0.0024
748.0773	0.0003
748.2537	-0.0009
748.4301	-0.0093
748.6065	0.0068
748.7829	0.0126
748.9593	0.0049
749.1356	0.0002
749.3119	0.0167
749.4882	-0.0096
749.6645	0.0055
749.8408	-0.0073
750.017	0.0039
750.1933	0.0017
750.3695	-0.0065
750.5457	-0.0048
750.7218	0.0004
750.898	0.0041
751.0741	-0.0024
751.2502	0.0049
751.4263	0.0005
751.6024	0.0012
751.7784	-0.0034
751.9545	-0.0029
752.1305	-0.0034
752.3065	-0.0117
752.4825	0.0083
752.6584	-0.0059
752.8344	-0.0054
753.0103	-0.0054
753.1862	-0.0062
753.3621	-0.0047
753.5379	-0.0031
753.7138	-0.0024
753.8896	-0.0044
754.0654	0.0032
754.2412	0.0129
754.417	0.0067
754.5927	0.0009
754.7685	-0.0006
754.9442	0.002
755.1199	0.0054
755.2956	-0.0014
755.4712	0.0084
755.6469	0.0061
755.8225	-0.001
755.9981	-0.0019
756.1736	0.0008
756.3492	0.0077
756.5248	-0.0046
756.7003	-0.0014
756.8758	0.0058
757.0513	-0.0074
757.2267	-0.0088
757.4022	0.0062
757.5776	-0.0152
757.753	-0.0009
757.9284	-0.0039
758.1038	0.0015
758.2791	-0.0075
758.4545	-0.0122
758.6298	-0.0002
758.8051	-0.0019
758.9803	-0.0035
759.1556	-0.0008
759.3308	-0.0062
759.506	0.0066
759.6812	-0.0056
759.8564	0.0025
760.0316	0.0024
760.2067	0.0072
760.3819	0.0055
760.557	0.0185
760.732	-0.0001
760.9071	-0.0002
761.0821	0.0008
761.2572	0.0136
761.4322	-0.0001
761.6072	0.0028
761.7821	0.0034
761.9571	0.0124
762.132	-0.0002
762.3069	-0.0148
762.4818	-0.0093
762.6567	0.0021
762.8316	0.0016
763.0064	-0.0005
763.1812	-0.0014
763.356	-0.0041
763.5308	-0.0045
763.7055	-0.0004
763.8803	-0.0011
764.055	0.0031
764.2297	-0.0037
764.4044	-0.0003
764.579	-0.0005
764.7537	-0.0036
764.9283	0.0018
765.1029	0.0018
765.2775	0.0062
765.4521	-0.0015
765.6266	0.0027
765.8011	-0.007
765.9756	0.0053
766.1501	0.0056
766.3246	0.0034
766.4991	0.0028
766.6735	0.0017
766.8479	-0.0089
767.0223	0.0142
767.1967	0.012
767.371	0.0056
767.5454	-0.0058
767.7197	0.0024
767.894	-0.0075
768.0683	-0.0158
768.2425	0.0062
768.4168	0.0033
768.591	0.0048
768.7652	0.0007
768.9394	0.007
769.1135	-0.0003
769.2877	0.0014
769.4618	0.0034
769.6359	-0.0002
769.81	0.0106
769.984	-0.0026
770.1581	-0.0016
770.3321	-0.0026
770.5061	0.0035
770.6801	-0.0116
770.8541	0.0039
771.028	0.0042
771.202	-0.0124
771.3759	0.0085
771.5498	0.0034
771.7236	-0.0004
771.8975	-0.0068
772.0713	0.0015
772.2451	0.0066
772.4189	0.0083
772.5927	0.0164
772.7665	-0.0006
772.9402	0.0021
773.1139	-0.0009
773.2876	-0.0039
773.4613	0.0182
773.635	0.0108
773.8086	-0.0023
773.9822	0.011
774.1558	-0.0028
774.3294	-0.002
774.503	0.0076
774.6765	0.0167
774.8501	0.0117
775.0236	0.0126
775.1971	0.0141
775.3705	-0.0043
775.544	0.0028
775.7174	0.0028
775.8908	-0.0037
776.0642	0.0013
776.2376	0.0115
776.4109	0.0153
776.5843	0.0069
776.7576	0.0212
776.9309	0.0131
777.1041	0.0067
777.2774	0.022
777.4506	0.0014
777.6238	-0.0042
777.797	0.0024
777.9702	0.0064
778.1434	0.002
778.3165	-0.0072
778.4896	0.0006
778.6627	0.0065
778.8358	0.0044
779.0089	-0.0042
779.1819	-0.0077
779.3549	0.0086
779.5279	0.0096
779.7009	0.011
779.8739	0.0083
780.0468	-0.008
780.2197	-0.0045
780.3926	-0.0028
780.5655	0.0087
780.7384	0.0038
780.9112	-0.0034
781.0841	0.0005
781.2569	0.0125
781.4297	0.0009
781.6024	0.0007
781.7752	0.0114
781.9479	0.0134
782.1206	0.005
782.2933	-0.0046
782.466	0.0054
782.6386	0.0092
782.8113	0.0079
782.9839	0.0202
783.1565	0.0103
783.329	0.015
783.5016	0.0097
783.6741	0.0019
783.8466	0.0052
784.0191	0.012
784.1916	-0.0002
784.3641	0.0219
784.5365	0.0084
784.7089	0.0105
784.8813	0.0046
785.0537	0.0051
785.2261	0.0015
785.3984	-0.0032
785.5707	-0.0018
785.743	0.0135
785.9153	0.008
786.0876	0.0107
786.2598	0.0004
786.432	0.0014
786.6042	0.0255
786.7764	0.0044
786.9486	0.0047
787.1207	0.002
787.2928	0.0141
787.4649	0.0123
787.637	0.005
787.8091	-0.0004
787.9811	0.0047
788.1532	0.0117
788.3252	0.0153
788.4972	0.0025
788.6691	0.0055
788.8411	0.0144
789.013	-0.0009
789.1849	0.0198
789.3568	-0.0085
789.5287	0.0073
789.7005	0.0037
789.8723	0.0057
790.0442	0.0121
790.2159	0.0085
790.3877	0.0112
790.5595	0.009
790.7312	0.0242
790.9029	0.0095
791.0746	-0.0023
791.2463	0.0086
791.4179	0.0129
791.5896	-0.0103
791.7612	0.0067
791.9328	0.0045
792.1044	-0.0029
792.2759	-0.0173
792.4474	-0.0007
792.619	-0
792.7905	-0.0061
792.9619	0.0119
793.1334	0.0187
793.3048	0.0158
793.4762	0.003
793.6476	0.0096
793.819	-0.0011
793.9904	0.0154
794.1617	-0.0026
794.333	0.0022
794.5043	-0.0062
794.6756	-0.005
794.8469	-0.005
795.0181	0.0082
795.1893	-0.0146
795.3605	0.0156
795.5317	0.0069
795.7029	-0.0063
795.874	0.0061
796.0452	0.0038
796.2163	-0.0094
796.3873	0.0193
796.5584	0.0125
796.7294	-0.0006
796.9005	0.0129
797.0715	-0.0009
797.2425	-0.0113
797.4134	0.0025
797.5844	0.0159
797.7553	0.0036
797.9262	-0.0029
798.0971	-0.0015
798.2679	-0.0008
798.4388	-0.0023
798.6096	0.0084
798.7804	0.0079
798.9512	0.0065
799.122	0.0005
799.2927	0.0015
799.4635	-0.002
799.6342	-0.0117
799.8049	-0
799.9755	0.0027
800.1462	-0.005
800.3168	0.0021
800.4874	-0.0016
800.658	0.0198
800.8286	0.0126
800.9991	0.0123
801.1696	0.0015
801.3402	0.0222
801.5106	0.0043
801.6811	0.0074
801.8516	0.0293
802.022	0.0253
802.1924	0.0093
802.3628	0.0084
802.5332	0.0302
802.7035	0.0204
802.8739	-0.003
803.0442	-0.0041
803.2145	0.0296
803.3847	-0.0175
803.555	0.0092
803.7252	0.0057
803.8954	0.0015
804.0656	-0.0149
804.2358	0.0157
804.4059	0.0193
804.5761	0.0113
804.7462	0.0179
804.9163	-0.0035
805.0864	-0.0181
805.2564	-0.0012
805.4264	0.0066
805.5965	-0.0128
805.7665	-0.0047
805.9364	-0.0051
806.1064	0.0293
806.2763	0.0064
806.4462	0.0296
806.6161	0.0083
806.786	0.0202
806.9559	0.0027
807.1257	0.0072
807.2955	-0.0056
807.4653	0.005
807.6351	-0.001
807.8048	0.0056
807.9746	0.0153
808.1443	0.0055
808.314	0.0198
808.4837	0.0004
808.6533	0.0026
808.8229	0.0221
808.9926	0.0074
809.1622	0.0031
809.3317	0.0007
809.5013	0.0299
809.6708	0.0199
809.8403	0.0298
810.0098	0.01
810.1793	-0.0056
810.3488	0.0166
810.5182	-0.0068
810.6876	0.0068
810.857	-0.0275
811.0264	0.0225
811.1958	-0.0003
811.3651	0.0203
811.5344	0.0037
811.7037	-0.0029
811.873	0.0046
812.0422	0.0117
812.2115	0.0178
812.3807	-0.0051
812.5499	0.0008
812.7191	0.01
812.8882	-0.0037
813.0574	0.0264
813.2265	0.0341
813.3956	0.0148
813.5646	0.0143
813.7337	0.0011
813.9027	0.023
814.0718	0.0334
814.2407	0.0248
814.4097	-0.005
814.5787	0.0106
814.7476	0.022
814.9165	0.0173
815.0854	-0.0021
815.2543	0.0273
815.4232	0.0194
815.592	0.0298
815.7608	0.008
815.9296	0.0231
816.0984	0.0161
816.2671	0.0138
816.4359	0.0113
816.6046	0.0264
816.7733	0.0021
816.942	0.0041
817.1106	0.0202
817.2793	0.0149
817.4479	0.0363
817.6165	0.0291
817.785	0.0124
817.9536	0.0022
818.1221	0.0251
818.2906	0.0077
818.4591	0.0102
818.6276	0.004
818.7961	0.0182
818.9645	0.0362
819.1329	-0.0083
819.3013	0.0433
819.4697	0.0365
819.638	0.0206
819.8064	0.0313
819.9747	0.0287
820.143	-0.0097
820.3113	-0.0133
820.4795	0.0266
820.6477	0.0044
820.816	-0.0004
820.9842	0.0061
821.1523	0.0297
821.3205	0.0118
821.4886	-0.0054
821.6567	-0.0183
821.8248	-0.0038
821.9929	0.0248
822.1609	-0.0057
822.329	0.04
822.497	0.0131
822.665	0.0306
822.833	0.0246
823.0009	0.0219
823.1688	0.0271
823.3367	0.0019
823.5046	0.0252
823.6725	0.0501
823.8404	0.0172
824.0082	0.0336
824.176	0.0051
824.3438	0.03
824.5116	0.021
824.6793	0.0227
824.847	0.0379
825.0147	-0.0005
825.1824	0.0454
825.3501	0.0206
825.5177	0.0022
825.6854	0.0104
825.853	0.0365
826.0206	-0.0042
826.1881	0.0472
826.3557	-0.0154
826.5232	0.0447
826.6907	-0.0032
826.8582	0.0203
827.0257	0.0111
827.1931	0.0072
827.3605	0.0164
827.528	-0.0134
827.6953	-0.0134
827.8627	0.0118
828.03	0.0268
828.1974	0.0051
828.3647	-0.0123
828.532	-0.0089
828.6992	0.0495
828.8665	0.0255
829.0337	-0.0256
829.2009	0.0219
829.3681	0.0219
829.5352	0.031
829.7024	-0.0112
829.8695	-0.0257
830.0366	0.0576
830.2037	-0.0011
830.3707	0.0049
830.5378	-0.0117
830.7048	0.0356
830.8718	0.0303
831.0388	-0.0097
831.2057	0.0107
831.3727	0.0408
831.5396	-0.0091
831.7065	-0.0018
831.8734	0.0243
832.0402	0.0023
832.2071	-0.0189
832.3739	0.0005
832.5407	-0.0228
832.7075	0.0043
832.8742	0.0005
833.041	-0.0414
833.2077	-0.0007
833.3744	0.0125
833.541	-0.0315
833.7077	0.0158
833.8743	0.0159
834.0409	-0.0133
834.2075	-0.0253
834.3741	0.0253
834.5407	0.0148
834.7072	0.0089
834.8737	-0.0093
835.0402	0.0163
835.2067	0.0074
835.3731	0.0216
835.5395	0.0089
835.706	0.0163
835.8723	-0.0184
836.0387	0.0394
836.2051	-0.0449
836.3714	0.0195
836.5377	0.0203
836.704	-0.023
836.8703	-0.0085
837.0365	0.0155
837.2027	-0.0031
837.3689	0.0084
837.5351	-0.0277
837.7013	-0.0257
837.8674	-0.0505
838.0335	-0.0417
838.1997	0.0147
838.3657	-0.0089
838.5318	0.0109
838.6978	0.0116
838.8639	0.0188
839.0299	0.0094
839.1958	-0.0086
839.3618	0.0355
839.5277	0.0024
839.6937	0.0333
839.8596	-0.0038
840.0254	0.0159
840.1913	0.0432
840.3571	0.0421
840.523	0.0099
840.6888	0.0084
840.8545	-0.0021
841.0203	-0.0215
841.186	0.0155
841.3517	0.0107
841.5174	0.041
841.6831	-0.0345
841.8488	0.0201
842.0144	0.0147
842.18	0.0436
842.3456	0.0743
842.5112	-0.0352
842.6767	-0.0296
842.8422	-0.0065
843.0077	-0.0063
843.1732	-0.0475
843.3387	-0.0524
843.5042	-0.0456
843.6696	0.0633
843.835	0.0042
844.0004	0.0938
844.1657	0.0288
844.3311	-0.0054
844.4964	0.0064
844.6617	-0.0365
844.827	-0.0526
844.9923	0.0468
845.1575	-0.02
845.3227	0.0822
845.4879	-0.0167
845.6531	0.0052
845.8183	-0.0861
845.9834	0.0255
846.1485	0.0164
846.3136	-0.0714
846.4787	-0.0529
846.6438	0.0598
846.8088	-0.029
846.9738	-0.0673
847.1388	0.0083
847.3038	-0.0107
847.4687	-0.1366
847.6337	0.1131
847.7986	0.0386
847.9635	0.0162
848.1284	0.0628
848.2932	0.047
848.458	-0.0219
848.6228	0.0836
848.7876	0.104
848.9524	-0.046
849.1172	-0.0545
849.2819	0.0227
849.4466	-0.1293
849.6113	-0.0132
849.7759	-0.0386
849.9406	0.0317
850.1052	0.033
850.2698	-0.0418
850.4344	0.0302
850.599	-0.0472
850.7635	0.1797
850.928	-0.0066
851.0925	0.0213
851.257	0.0604
851.4215	0.0182
851.5859	0.0267
851.7503	0.0935
851.9147	0.0671
852.0791	-0.0347
852.2434	-0.0134
852.4078	0.0638
852.5721	0.101
852.7364	-0.0064
852.9007	-0.0973
853.0649	0.0302
853.2291	0.0046
853.3934	0.0209
853.5575	0.1816
853.7217	-0.0573
853.8859	-0.1897
854.05	-0.0777
854.2141	0.1148
854.3782	-0.0781
854.5423	-0.0132
854.7063	0.1764
854.8703	0.0682
855.0343	0.0122
855.1983	-0.0214
855.3623	0.1989
855.5262	-0.0594
855.6901	-0.0287
855.854	0.0689
856.0179	0.0063
856.1818	-0.012
856.3456	-0.1158
856.5094	-0.1557
856.6732	-0.0007
856.837	0.0454
857.0008	0.083
857.1645	-0.1587
857.3282	-0.0275
857.4919	0.2185
857.6556	-0.0088
857.8192	-0.0729
857.9828	0.0701
858.1465	0.1357
858.31	-0.006
858.4736	-0.0464
858.6372	-0.1198
858.8007	-0.1152
858.9642	0.0373
859.1277	-0.1482
859.2911	0.0531
859.4546	0.1166
859.618	-0.323
859.7814	0.0684
859.9448	0.0125
860.1081	-0.0412
860.2715	0.2536
860.4348	0.9466
860.5981	-0.0538
860.7614	0.2782
860.9246	0.0307
861.0879	-0.091
861.2511	0.3088
861.4143	0.0424
861.5774	0.0211
861.7406	-0.0219
861.9037	0.0238
862.0668	0.1389
862.2299	-0.0489
862.393	-0.3781
862.556	-0.0343
862.7191	-0.0957
862.8821	-0.0375
863.0451	0.1967
863.208	0.1465
863.371	-0.1208
863.5339	0.4906
863.6968	0.1647
863.8597	0.178
864.0225	-0.1057
864.1854	0.3964
864.3482	-0.0684
864.511	0.1879
864.6737	0.2485
864.8365	-0.1006
864.9992	-0.0735
865.1619	-0.0735
865.3246	0.3232
865.4873	0.5086
865.65	-0.2607
865.8126	1.3737
865.9752	0.0387
866.1378	0.1721
866.3004	0.0414
866.4629	0.1988
866.6254	0.0114
866.7879	-0
866.9504	-0.1333
867.1129	-0
867.2753	-0.0834
867.4377	0.1457
867.6001	-0.1716
867.7625	0.3116
867.9249	-0.7538
868.0872	-0.1823
868.2495	0.993
868.4118	0.1415
868.5741	-0
868.7363	-0
868.8986	1.7364
869.0608	-0.2928
869.223	0.5914
869.3851	0.726
869.5473	-0.2701
869.7094	0.2335
869.8715	-0.7801
870.0336	-0.8835
870.1957	0.3704
870.3577	-0
870.5197	-0.0184
870.6817	-0.4328
870.8437	-0.2554
871.0057	-0.8937
871.1676	-0
871.3295	-0.2504
871.4914	-0
871.6533	-0.3446
871.8151	-0.4381
871.977	0.0849
872.1388	-0
872.3006	-0
872.4623	-0.4305
872.6241	0.4959
872.7858	-0
872.9475	-0.3842
873.1092	-0.016
873.2709	-0
873.4325	0.0501
873.5941	-0.434
873.7557	-0
873.9173	-0
874.0789	-0.6272
874.2404	-0.4936
874.4019	0.0268
874.5634	-0.2248
874.7249	-0.2725
874.8863	0.5787
875.0478	0.0833
875.2092	-0
875.3706	-0.1426
875.5319	-0
875.6933	0.2916
875.8546	0.5555
876.0159	-0
876.1772	0.238
876.3385	-0
876.4997	0.2466
876.6609	-0.1321
876.8221	-0.0679
876.9833	-0
877.1445	-0
877.3056	0.4606
877.4667	-0.3256
877.6278	-0.0425
877.7889	-0
877.9499	-0
878.111	-0
878.272	-0
878.433	0.4273
878.5939	-0
878.7549	-0
878.9158	-0
879.0767	-0
879.2376	0.5844
879.3984	-0
879.5593	-0
879.7201	-0
879.8809	-0.5764
880.0417	0.0245
880.2024	0.3072
880.3632	-0
880.5239	-0
880.6846	-0
880.8452	-0
881.0059	-1.3945
881.1665	-0.1418
881.3271	0.0028
881.4877	-0.5985
881.6483	0.0284
881.8088	-0
881.9693	-0
882.1298	-0
882.2903	-0
