Data from MonoPyChalIsomerACN10uM360nmA_Absorbance_13-57-28-004.txt Node
Date: Fri Jul 05 13:57:28 BST 2024
User: LASERRRRR
Spectrometer: FLMT03099
Trigger mode: 0
Integration Time (sec): 1.000000E-1
Scans to average: 1
Electric dark correction enabled: true
Nonlinearity correction enabled: false
Boxcar width: 0
XAxis mode: Wavelengths
Number of Pixels in Spectrum: 3648
>>>>>Begin Spectral Data<<<<<
179.3399	-0.0465
179.5586	-0.0465
179.7771	-0.0465
179.9957	-0.2943
180.2143	-0.1872
180.4329	-0.3003
180.6514	-0
180.8699	-0
181.0885	0.1791
181.307	0.1192
181.5255	-0
181.744	-0
181.9625	0.5031
182.181	-0
182.3994	0.0126
182.6179	-0
182.8363	0.64
183.0547	0.1375
183.2732	0.0507
183.4916	0.0512
183.71	-0.0194
183.9284	0.0311
184.1467	-0.1688
184.3651	0.2674
184.5835	0.0324
184.8018	0.2458
185.0201	0.068
185.2385	-0.0055
185.4568	0.3187
185.6751	0.4913
185.8934	0.1698
186.1117	0.064
186.3299	0.1404
186.5482	0.111
186.7664	-0.098
186.9847	-0.1123
187.2029	0.1233
187.4211	0.0126
187.6393	0.4486
187.8575	-0.0863
188.0757	0.2668
188.2939	0.2266
188.512	-0.0875
188.7302	-0.1041
188.9483	0.0992
189.1665	0.1347
189.3846	-0.2087
189.6027	0.2187
189.8208	0.2046
190.0389	0.033
190.257	0.0369
190.475	0.2683
190.6931	0.1627
190.9111	0.7743
191.1292	0.1937
191.3472	0.4438
191.5652	0.284
191.7832	0.2319
192.0012	0.7009
192.2192	0.3515
192.4371	0.5102
192.6551	0.4291
192.873	0.4733
193.091	0.4525
193.3089	0.4256
193.5268	0.4631
193.7447	0.6111
193.9626	0.491
194.1805	0.6214
194.3984	0.7203
194.6162	0.6835
194.8341	0.4752
195.0519	0.5221
195.2697	0.9269
195.4875	0.5085
195.7054	0.4723
195.9231	0.5584
196.1409	0.5715
196.3587	0.5501
196.5765	0.5802
196.7942	0.6093
197.012	0.5489
197.2297	0.8505
197.4474	0.5564
197.6651	0.538
197.8828	0.6146
198.1005	0.7203
198.3182	0.5776
198.5358	0.6937
198.7535	0.7197
198.9711	0.5188
199.1888	0.5481
199.4064	0.679
199.624	0.5103
199.8416	0.6726
200.0592	0.7602
200.2767	0.6643
200.4943	0.624
200.7119	0.6907
200.9294	0.7338
201.1469	0.562
201.3645	0.6193
201.582	0.5759
201.7995	0.6605
202.017	0.5921
202.2344	0.5948
202.4519	0.6989
202.6694	0.6384
202.8868	0.7216
203.1042	0.7278
203.3217	0.7411
203.5391	0.5854
203.7565	0.5447
203.9739	0.6406
204.1913	0.6157
204.4086	0.7065
204.626	0.6447
204.8433	0.6282
205.0607	0.6397
205.278	0.6036
205.4953	0.6172
205.7126	0.6594
205.9299	0.7163
206.1472	0.6321
206.3644	0.6109
206.5817	0.6505
206.7989	0.7277
207.0162	0.6192
207.2334	0.605
207.4506	0.6607
207.6678	0.6319
207.885	0.6182
208.1022	0.6508
208.3194	0.7547
208.5365	0.5802
208.7537	0.6171
208.9708	0.5839
209.1879	0.6216
209.405	0.7635
209.6222	0.748
209.8392	0.6405
210.0563	0.6155
210.2734	0.6107
210.4905	0.5992
210.7075	0.6396
210.9245	0.6054
211.1416	0.6667
211.3586	0.5712
211.5756	0.5582
211.7926	0.6009
212.0096	0.5956
212.2265	0.5327
212.4435	0.5484
212.6604	0.5923
212.8774	0.6853
213.0943	0.5367
213.3112	0.5605
213.5281	0.4939
213.745	0.4873
213.9619	0.4914
214.1788	0.4673
214.3956	0.48
214.6125	0.5051
214.8293	0.447
215.0461	0.5219
215.2629	0.4245
215.4798	0.4556
215.6965	0.4287
215.9133	0.4689
216.1301	0.3801
216.3469	0.4262
216.5636	0.4379
216.7803	0.3971
216.9971	0.4106
217.2138	0.3758
217.4305	0.3516
217.6472	0.3326
217.8639	0.39
218.0805	0.3607
218.2972	0.3289
218.5138	0.3387
218.7305	0.314
218.9471	0.3314
219.1637	0.2813
219.3803	0.2878
219.5969	0.2956
219.8135	0.2403
220.0301	0.289
220.2466	0.3028
220.4632	0.287
220.6797	0.2492
220.8962	0.2349
221.1127	0.2455
221.3292	0.2495
221.5457	0.2582
221.7622	0.2405
221.9787	0.2691
222.1951	0.2505
222.4116	0.2741
222.628	0.2636
222.8444	0.2704
223.0608	0.2669
223.2772	0.2823
223.4936	0.279
223.71	0.2471
223.9264	0.2587
224.1427	0.2596
224.3591	0.2787
224.5754	0.2654
224.7917	0.2632
225.008	0.2867
225.2243	0.2687
225.4406	0.2879
225.6569	0.2937
225.8732	0.2647
226.0894	0.2788
226.3057	0.2593
226.5219	0.287
226.7381	0.2564
226.9543	0.2926
227.1705	0.3
227.3867	0.288
227.6029	0.2935
227.8191	0.2975
228.0352	0.2812
228.2513	0.3022
228.4675	0.3113
228.6836	0.3036
228.8997	0.2968
229.1158	0.3147
229.3319	0.3187
229.548	0.3176
229.764	0.3309
229.9801	0.3408
230.1961	0.3308
230.4121	0.3508
230.6282	0.3515
230.8442	0.324
231.0602	0.3508
231.2761	0.3441
231.4921	0.3457
231.7081	0.3415
231.924	0.3501
232.14	0.3633
232.3559	0.3354
232.5718	0.3779
232.7877	0.3565
233.0036	0.3319
233.2195	0.3676
233.4353	0.364
233.6512	0.3609
233.867	0.359
234.0829	0.3768
234.2987	0.3593
234.5145	0.3831
234.7303	0.3613
234.9461	0.3823
235.1619	0.3742
235.3776	0.3796
235.5934	0.3821
235.8091	0.377
236.0249	0.3722
236.2406	0.3894
236.4563	0.4004
236.672	0.4054
236.8877	0.4
237.1034	0.3986
237.319	0.3831
237.5347	0.3911
237.7503	0.3986
237.966	0.4085
238.1816	0.4128
238.3972	0.3874
238.6128	0.3779
238.8284	0.4225
239.0439	0.4058
239.2595	0.4066
239.475	0.4206
239.6906	0.3996
239.9061	0.4037
240.1216	0.414
240.3371	0.4092
240.5526	0.4002
240.7681	0.4124
240.9836	0.3807
241.199	0.4033
241.4145	0.3981
241.6299	0.3727
241.8453	0.3805
242.0607	0.3879
242.2761	0.3664
242.4915	0.3713
242.7069	0.3743
242.9223	0.3534
243.1376	0.3385
243.353	0.3357
243.5683	0.3544
243.7836	0.3533
243.9989	0.3413
244.2142	0.3072
244.4295	0.3073
244.6448	0.2978
244.86	0.2938
245.0753	0.2951
245.2905	0.2911
245.5057	0.2691
245.721	0.2642
245.9362	0.2687
246.1514	0.2807
246.3665	0.2694
246.5817	0.2674
246.7969	0.2531
247.012	0.2524
247.2271	0.2473
247.4423	0.2491
247.6574	0.2314
247.8725	0.2341
248.0876	0.2318
248.3026	0.2155
248.5177	0.2375
248.7328	0.2055
248.9478	0.2165
249.1628	0.2161
249.3779	0.2148
249.5929	0.2013
249.8079	0.2207
250.0228	0.2073
250.2378	0.193
250.4528	0.2064
250.6677	0.1842
250.8827	0.2039
251.0976	0.21
251.3125	0.1951
251.5274	0.1758
251.7423	0.1825
251.9572	0.1978
252.172	0.1707
252.3869	0.1895
252.6017	0.1773
252.8166	0.1676
253.0314	0.1592
253.2462	0.1729
253.461	0.1807
253.6758	0.1681
253.8906	0.1714
254.1053	0.1619
254.3201	0.1638
254.5348	0.1629
254.7496	0.1774
254.9643	0.173
255.179	0.1632
255.3937	0.1724
255.6083	0.162
255.823	0.163
256.0377	0.159
256.2523	0.1745
256.467	0.1493
256.6816	0.168
256.8962	0.167
257.1108	0.1646
257.3254	0.1726
257.54	0.1634
257.7545	0.1697
257.9691	0.1681
258.1836	0.1601
258.3981	0.1881
258.6127	0.1694
258.8272	0.155
259.0417	0.1576
259.2561	0.1671
259.4706	0.1664
259.6851	0.1669
259.8995	0.1618
260.114	0.1675
260.3284	0.1643
260.5428	0.1516
260.7572	0.1651
260.9716	0.1672
261.186	0.1596
261.4003	0.1659
261.6147	0.1774
261.829	0.1586
262.0433	0.1628
262.2577	0.1598
262.472	0.1634
262.6863	0.1587
262.9005	0.1602
263.1148	0.1705
263.3291	0.1477
263.5433	0.173
263.7576	0.1642
263.9718	0.1684
264.186	0.1654
264.4002	0.153
264.6144	0.1604
264.8286	0.1765
265.0427	0.16
265.2569	0.1638
265.471	0.1714
265.6851	0.1565
265.8993	0.1584
266.1134	0.1606
266.3275	0.1623
266.5415	0.1478
266.7556	0.1731
266.9697	0.1792
267.1837	0.1694
267.3978	0.1523
267.6118	0.1822
267.8258	0.1761
268.0398	0.1577
268.2538	0.1613
268.4677	0.1588
268.6817	0.1561
268.8957	0.1598
269.1096	0.1639
269.3235	0.1719
269.5374	0.1614
269.7514	0.1576
269.9652	0.1487
270.1791	0.1431
270.393	0.1525
270.6068	0.1592
270.8207	0.1492
271.0345	0.149
271.2483	0.1549
271.4622	0.1411
271.676	0.1484
271.8897	0.1498
272.1035	0.1412
272.3173	0.14
272.531	0.1542
272.7448	0.1516
272.9585	0.1379
273.1722	0.1587
273.3859	0.1582
273.5996	0.1412
273.8133	0.1459
274.0269	0.149
274.2406	0.1407
274.4542	0.1506
274.6679	0.1357
274.8815	0.1496
275.0951	0.1557
275.3087	0.1473
275.5223	0.1618
275.7358	0.1581
275.9494	0.1535
276.1629	0.1447
276.3765	0.1454
276.59	0.1484
276.8035	0.1575
277.017	0.1448
277.2305	0.1421
277.444	0.16
277.6574	0.1492
277.8709	0.1567
278.0843	0.14
278.2978	0.1448
278.5112	0.1469
278.7246	0.1525
278.938	0.1524
279.1513	0.1449
279.3647	0.158
279.5781	0.1401
279.7914	0.1496
280.0047	0.1625
280.2181	0.1571
280.4314	0.1529
280.6447	0.147
280.8579	0.1475
281.0712	0.1457
281.2845	0.1753
281.4977	0.1506
281.711	0.1405
281.9242	0.1436
282.1374	0.1579
282.3506	0.1406
282.5638	0.1613
282.7769	0.1584
282.9901	0.1553
283.2033	0.1742
283.4164	0.1584
283.6295	0.1488
283.8426	0.1492
284.0557	0.1513
284.2688	0.1796
284.4819	0.1592
284.695	0.1651
284.908	0.1666
285.1211	0.1615
285.3341	0.1646
285.5471	0.1682
285.7601	0.1545
285.9731	0.1676
286.1861	0.1515
286.3991	0.1585
286.612	0.1717
286.825	0.1558
287.0379	0.1534
287.2508	0.1486
287.4637	0.1658
287.6766	0.151
287.8895	0.1615
288.1024	0.1758
288.3152	0.1605
288.5281	0.167
288.7409	0.1616
288.9538	0.1622
289.1666	0.1625
289.3794	0.1659
289.5922	0.1529
289.8049	0.1655
290.0177	0.1655
290.2304	0.1545
290.4432	0.171
290.6559	0.1668
290.8686	0.1685
291.0813	0.163
291.294	0.1731
291.5067	0.1741
291.7194	0.1632
291.932	0.1665
292.1447	0.1732
292.3573	0.1526
292.5699	0.1684
292.7825	0.1683
292.9951	0.1599
293.2077	0.1707
293.4203	0.1632
293.6328	0.1461
293.8454	0.1596
294.0579	0.153
294.2704	0.1597
294.4829	0.1642
294.6954	0.1759
294.9079	0.1649
295.1204	0.1575
295.3328	0.161
295.5453	0.1664
295.7577	0.1727
295.9701	0.1455
296.1825	0.1668
296.3949	0.161
296.6073	0.1624
296.8197	0.1568
297.0321	0.1824
297.2444	0.1607
297.4567	0.1656
297.6691	0.1633
297.8814	0.1665
298.0937	0.1556
298.306	0.1681
298.5182	0.1608
298.7305	0.1624
298.9428	0.1606
299.155	0.1692
299.3672	0.1497
299.5794	0.1615
299.7916	0.1587
300.0038	0.164
300.216	0.1684
300.4282	0.1684
300.6403	0.1594
300.8525	0.1692
301.0646	0.1483
301.2767	0.1631
301.4888	0.1647
301.7009	0.1598
301.913	0.1555
302.125	0.1658
302.3371	0.165
302.5491	0.1719
302.7612	0.1645
302.9732	0.169
303.1852	0.1641
303.3972	0.161
303.6092	0.1584
303.8211	0.1479
304.0331	0.1504
304.245	0.1542
304.457	0.1511
304.6689	0.1455
304.8808	0.1601
305.0927	0.1545
305.3046	0.1488
305.5164	0.1551
305.7283	0.1479
305.9401	0.1529
306.152	0.1401
306.3638	0.1574
306.5756	0.1434
306.7874	0.1416
306.9992	0.1422
307.2109	0.1386
307.4227	0.1313
307.6344	0.1444
307.8462	0.1349
308.0579	0.1338
308.2696	0.1309
308.4813	0.1302
308.693	0.1429
308.9046	0.134
309.1163	0.136
309.328	0.1366
309.5396	0.1342
309.7512	0.1229
309.9628	0.1268
310.1744	0.123
310.386	0.1333
310.5976	0.1094
310.8091	0.1125
311.0207	0.1161
311.2322	0.1283
311.4437	0.1173
311.6552	0.1129
311.8667	0.1142
312.0782	0.1002
312.2897	0.1085
312.5012	0.1216
312.7126	0.1197
312.924	0.1118
313.1355	0.1093
313.3469	0.0945
313.5583	0.1091
313.7696	0.1182
313.981	0.1045
314.1924	0.1109
314.4037	0.0996
314.6151	0.1022
314.8264	0.1047
315.0377	0.1118
315.249	0.1011
315.4603	0.1144
315.6716	0.1012
315.8828	0.0929
316.0941	0.0946
316.3053	0.0916
316.5165	0.0982
316.7277	0.0974
316.9389	0.1006
317.1501	0.1006
317.3613	0.1073
317.5724	0.0705
317.7836	0.1032
317.9947	0.1032
318.2058	0.1043
318.417	0.0834
318.6281	0.0851
318.8391	0.0925
319.0502	0.0991
319.2613	0.0926
319.4723	0.1043
319.6834	0.1072
319.8944	0.0888
320.1054	0.0974
320.3164	0.0888
320.5274	0.098
320.7383	0.0967
320.9493	0.1024
321.1602	0.1111
321.3712	0.0868
321.5821	0.1032
321.793	0.1122
322.0039	0.1019
322.2148	0.0974
322.4257	0.0982
322.6365	0.1179
322.8474	0.0977
323.0582	0.0875
323.269	0.1043
323.4798	0.1157
323.6906	0.1028
323.9014	0.0897
324.1122	0.102
324.3229	0.0954
324.5337	0.1059
324.7444	0.0989
324.9551	0.1185
325.1658	0.108
325.3765	0.11
325.5872	0.1018
325.7979	0.0983
326.0085	0.1067
326.2192	0.1075
326.4298	0.1122
326.6404	0.0964
326.851	0.1045
327.0616	0.0949
327.2722	0.1063
327.4828	0.109
327.6933	0.1011
327.9039	0.1181
328.1144	0.1081
328.3249	0.1171
328.5354	0.0976
328.7459	0.1011
328.9564	0.0889
329.1669	0.1092
329.3773	0.1115
329.5878	0.1049
329.7982	0.1083
330.0086	0.1035
330.219	0.1033
330.4294	0.1179
330.6398	0.1044
330.8502	0.1039
331.0605	0.1091
331.2708	0.1009
331.4812	0.1128
331.6915	0.1043
331.9018	0.1075
332.1121	0.0931
332.3224	0.1194
332.5326	0.1121
332.7429	0.1096
332.9531	0.1221
333.1633	0.1042
333.3735	0.1038
333.5837	0.108
333.7939	0.101
334.0041	0.1133
334.2143	0.1062
334.4244	0.1182
334.6346	0.091
334.8447	0.1139
335.0548	0.1116
335.2649	0.0858
335.475	0.1191
335.685	0.1053
335.8951	0.1155
336.1051	0.1108
336.3152	0.1191
336.5252	0.1014
336.7352	0.1105
336.9452	0.1138
337.1552	0.1274
337.3652	0.1045
337.5751	0.1166
337.7851	0.1185
337.995	0.1105
338.2049	0.109
338.4148	0.116
338.6247	0.1189
338.8346	0.1087
339.0445	0.1074
339.2543	0.1077
339.4642	0.1189
339.674	0.1065
339.8838	0.1085
340.0936	0.1062
340.3034	0.1155
340.5132	0.111
340.7229	0.124
340.9327	0.1131
341.1424	0.1056
341.3522	0.129
341.5619	0.1129
341.7716	0.1212
341.9813	0.1328
342.1909	0.1155
342.4006	0.1283
342.6102	0.1224
342.8199	0.1208
343.0295	0.1208
343.2391	0.1156
343.4487	0.1244
343.6583	0.1235
343.8679	0.1365
344.0774	0.1205
344.287	0.1334
344.4965	0.1283
344.706	0.1199
344.9155	0.1262
345.125	0.1214
345.3345	0.1208
345.544	0.1291
345.7534	0.1187
345.9629	0.1158
346.1723	0.1235
346.3817	0.1257
346.5911	0.1225
346.8005	0.1325
347.0099	0.1292
347.2193	0.136
347.4286	0.1302
347.638	0.1385
347.8473	0.1337
348.0566	0.1431
348.2659	0.1344
348.4752	0.1388
348.6845	0.14
348.8937	0.1284
349.103	0.1508
349.3122	0.1248
349.5214	0.1412
349.7306	0.1378
349.9398	0.1435
350.149	0.1467
350.3582	0.1441
350.5674	0.1483
350.7765	0.1333
350.9856	0.1538
351.1948	0.1364
351.4039	0.1291
351.613	0.1318
351.822	0.1537
352.0311	0.1536
352.2402	0.155
352.4492	0.1452
352.6582	0.142
352.8672	0.1625
353.0762	0.1595
353.2852	0.1408
353.4942	0.1433
353.7032	0.1544
353.9121	0.1475
354.1211	0.1498
354.33	0.1628
354.5389	0.1628
354.7478	0.1471
354.9567	0.1519
355.1655	0.1362
355.3744	0.15
355.5833	0.152
355.7921	0.1698
356.0009	0.1538
356.2097	0.1726
356.4185	0.1675
356.6273	0.1704
356.8361	0.168
357.0448	0.1508
357.2536	0.1586
357.4623	0.1519
357.671	0.1704
357.8797	0.1531
358.0884	0.161
358.2971	0.1441
358.5057	0.1737
358.7144	0.1705
358.923	0.1637
359.1316	0.1796
359.3402	0.1711
359.5488	0.1571
359.7574	0.1626
359.966	0.1585
360.1746	0.1663
360.3831	0.1721
360.5916	0.1594
360.8002	0.1678
361.0087	0.1795
361.2172	0.1793
361.4256	0.1729
361.6341	0.1914
361.8426	0.1698
362.051	0.1594
362.2594	0.1862
362.4678	0.1738
362.6762	0.1981
362.8846	0.1951
363.093	0.1802
363.3014	0.1769
363.5097	0.1637
363.718	0.1931
363.9264	0.1968
364.1347	0.1744
364.343	0.1898
364.5513	0.2078
364.7595	0.1949
364.9678	0.2035
365.176	0.2087
365.3842	0.1888
365.5925	0.1945
365.8007	0.191
366.0089	0.1918
366.217	0.1777
366.4252	0.2067
366.6333	0.2078
366.8415	0.2139
367.0496	0.2016
367.2577	0.2203
367.4658	0.213
367.6739	0.2084
367.882	0.203
368.09	0.2024
368.2981	0.2175
368.5061	0.1984
368.7141	0.1911
368.9221	0.2071
369.1301	0.2103
369.3381	0.2068
369.5461	0.2062
369.754	0.2135
369.962	0.2101
370.1699	0.213
370.3778	0.2084
370.5857	0.195
370.7936	0.2262
371.0015	0.1975
371.2093	0.2286
371.4172	0.2234
371.625	0.2092
371.8328	0.2207
372.0406	0.219
372.2484	0.2199
372.4562	0.2187
372.664	0.22
372.8717	0.2272
373.0795	0.1984
373.2872	0.2188
373.4949	0.2214
373.7026	0.2275
373.9103	0.2153
374.118	0.222
374.3256	0.2312
374.5333	0.2138
374.7409	0.2291
374.9485	0.2361
375.1561	0.2253
375.3637	0.2314
375.5713	0.2267
375.7789	0.2391
375.9864	0.2354
376.194	0.2216
376.4015	0.2323
376.609	0.25
376.8165	0.231
377.024	0.2342
377.2315	0.2269
377.4389	0.2556
377.6464	0.2431
377.8538	0.2363
378.0612	0.2401
378.2686	0.2343
378.476	0.257
378.6834	0.2471
378.8908	0.253
379.0981	0.2432
379.3055	0.2519
379.5128	0.2422
379.7201	0.2552
379.9274	0.2329
380.1347	0.2431
380.342	0.2718
380.5492	0.2406
380.7565	0.2387
380.9637	0.2537
381.1709	0.2406
381.3781	0.2408
381.5853	0.2569
381.7925	0.2728
381.9997	0.254
382.2068	0.2715
382.4139	0.2565
382.6211	0.2499
382.8282	0.2476
383.0353	0.2476
383.2424	0.2508
383.4494	0.261
383.6565	0.2512
383.8635	0.2456
384.0706	0.2581
384.2776	0.2501
384.4846	0.2286
384.6916	0.2753
384.8986	0.253
385.1055	0.245
385.3125	0.2494
385.5194	0.2598
385.7263	0.2798
385.9333	0.2408
386.1402	0.2331
386.347	0.2529
386.5539	0.2399
386.7608	0.2565
386.9676	0.2321
387.1744	0.2451
387.3813	0.2322
387.5881	0.262
387.7948	0.2458
388.0016	0.2409
388.2084	0.2503
388.4151	0.2476
388.6219	0.2601
388.8286	0.2499
389.0353	0.2527
389.242	0.245
389.4487	0.2462
389.6553	0.2356
389.862	0.2304
390.0686	0.2414
390.2753	0.2256
390.4819	0.2412
390.6885	0.2272
390.8951	0.2293
391.1016	0.2397
391.3082	0.2424
391.5147	0.2378
391.7213	0.232
391.9278	0.2161
392.1343	0.2423
392.3408	0.2233
392.5473	0.2402
392.7537	0.2243
392.9602	0.237
393.1666	0.2304
393.373	0.2253
393.5794	0.2349
393.7858	0.2094
393.9922	0.2117
394.1986	0.2258
394.4049	0.2064
394.6113	0.2312
394.8176	0.2134
395.0239	0.2309
395.2302	0.211
395.4365	0.2189
395.6428	0.2254
395.8491	0.2024
396.0553	0.2039
396.2615	0.2035
396.4678	0.2179
396.674	0.2182
396.8802	0.2226
397.0863	0.2331
397.2925	0.2042
397.4987	0.2078
397.7048	0.2119
397.9109	0.2211
398.117	0.2137
398.3231	0.1947
398.5292	0.2129
398.7353	0.2154
398.9413	0.211
399.1474	0.2045
399.3534	0.2093
399.5594	0.1936
399.7654	0.2358
399.9714	0.234
400.1774	0.2004
400.3833	0.1994
400.5893	0.2046
400.7952	0.2156
401.0011	0.2111
401.207	0.2145
401.4129	0.2268
401.6188	0.225
401.8247	0.2012
402.0305	0.1992
402.2364	0.2194
402.4422	0.2203
402.648	0.2089
402.8538	0.2085
403.0596	0.1947
403.2654	0.2105
403.4711	0.2052
403.6768	0.2178
403.8826	0.2211
404.0883	0.2181
404.294	0.2081
404.4997	0.2056
404.7054	0.2092
404.911	0.1984
405.1167	0.2198
405.3223	0.227
405.5279	0.2108
405.7335	0.2277
405.9391	0.2064
406.1447	0.2122
406.3502	0.2102
406.5558	0.2121
406.7613	0.2162
406.9668	0.2007
407.1724	0.193
407.3778	0.2032
407.5833	0.2124
407.7888	0.2028
407.9942	0.2262
408.1997	0.1979
408.4051	0.1999
408.6105	0.2243
408.8159	0.2059
409.0213	0.2042
409.2267	0.2261
409.432	0.1922
409.6374	0.2199
409.8427	0.2016
410.048	0.213
410.2533	0.2235
410.4586	0.1963
410.6639	0.1873
410.8691	0.1958
411.0744	0.194
411.2796	0.1943
411.4848	0.1962
411.69	0.2005
411.8952	0.22
412.1004	0.1928
412.3056	0.2155
412.5107	0.2097
412.7158	0.2064
412.921	0.1902
413.1261	0.2103
413.3312	0.1939
413.5362	0.2027
413.7413	0.2034
413.9464	0.2072
414.1514	0.2134
414.3564	0.2
414.5614	0.1976
414.7664	0.201
414.9714	0.2115
415.1764	0.1928
415.3813	0.2178
415.5863	0.2126
415.7912	0.2013
415.9961	0.1863
416.201	0.1955
416.4059	0.1823
416.6108	0.1978
416.8156	0.2053
417.0205	0.1916
417.2253	0.1885
417.4301	0.1969
417.6349	0.1911
417.8397	0.1896
418.0445	0.1996
418.2492	0.198
418.454	0.2138
418.6587	0.198
418.8634	0.203
419.0681	0.1755
419.2728	0.1889
419.4775	0.1819
419.6822	0.1841
419.8868	0.1789
420.0915	0.196
420.2961	0.1767
420.5007	0.1968
420.7053	0.192
420.9099	0.1995
421.1144	0.1942
421.319	0.1693
421.5235	0.1879
421.728	0.1847
421.9325	0.1841
422.137	0.1859
422.3415	0.1854
422.546	0.1874
422.7504	0.1766
422.9549	0.1701
423.1593	0.2042
423.3637	0.1766
423.5681	0.1735
423.7725	0.1621
423.9769	0.1764
424.1812	0.1745
424.3856	0.1851
424.5899	0.1687
424.7942	0.1829
424.9985	0.1724
425.2028	0.1684
425.4071	0.1827
425.6113	0.1608
425.8156	0.1641
426.0198	0.1597
426.224	0.1676
426.4282	0.1565
426.6324	0.163
426.8366	0.1582
427.0407	0.1466
427.2449	0.1674
427.449	0.1676
427.6531	0.1537
427.8572	0.1551
428.0613	0.16
428.2654	0.1605
428.4694	0.1436
428.6735	0.1608
428.8775	0.1674
429.0815	0.1664
429.2855	0.1469
429.4895	0.1577
429.6935	0.1504
429.8975	0.1538
430.1014	0.1399
430.3053	0.1259
430.5093	0.1327
430.7132	0.1358
430.9171	0.147
431.1209	0.1388
431.3248	0.1299
431.5286	0.1319
431.7325	0.1399
431.9363	0.1271
432.1401	0.1387
432.3439	0.1281
432.5477	0.1246
432.7514	0.1201
432.9552	0.1312
433.1589	0.1123
433.3627	0.1242
433.5664	0.1277
433.7701	0.101
433.9737	0.108
434.1774	0.1149
434.3811	0.1175
434.5847	0.1297
434.7883	0.1001
434.9919	0.1154
435.1955	0.0977
435.3991	0.1157
435.6027	0.1155
435.8062	0.1067
436.0098	0.0912
436.2133	0.1014
436.4168	0.1036
436.6203	0.1134
436.8238	0.1086
437.0272	0.0984
437.2307	0.1036
437.4341	0.1069
437.6375	0.1078
437.841	0.08
438.0443	0.0977
438.2477	0.0828
438.4511	0.0756
438.6545	0.0957
438.8578	0.0977
439.0611	0.0835
439.2644	0.0854
439.4677	0.0872
439.671	0.0626
439.8743	0.0855
440.0775	0.0893
440.2808	0.0722
440.484	0.0593
440.6872	0.0662
440.8904	0.0678
441.0936	0.0752
441.2967	0.0714
441.4999	0.0767
441.703	0.0685
441.9062	0.0686
442.1093	0.062
442.3124	0.0724
442.5155	0.0447
442.7185	0.0547
442.9216	0.0281
443.1246	0.0722
443.3276	0.0582
443.5307	0.0652
443.7337	0.0552
443.9366	0.05
444.1396	0.063
444.3426	0.0631
444.5455	0.0619
444.7484	0.0457
444.9513	0.0486
445.1542	0.0589
445.3571	0.0434
445.56	0.049
445.7628	0.0363
445.9657	0.04
446.1685	0.0623
446.3713	0.0488
446.5741	0.0442
446.7769	0.0251
446.9797	0.0556
447.1824	0.0487
447.3852	0.0484
447.5879	0.0363
447.7906	0.0485
447.9933	0.0239
448.196	0.0352
448.3986	0.0235
448.6013	0.0325
448.8039	0.0265
449.0066	0.0382
449.2092	0.0461
449.4118	0.0338
449.6143	0.0442
449.8169	0.0346
450.0195	0.0296
450.222	0.0112
450.4245	0.0202
450.627	0.0374
450.8295	0.0337
451.032	0.0283
451.2345	0.0281
451.4369	0.0369
451.6394	0.0379
451.8418	0.0029
452.0442	0.0106
452.2466	0.0357
452.449	0.0119
452.6513	0.0279
452.8537	0.0191
453.056	0.0126
453.2583	0.0359
453.4607	0.0255
453.663	0.0104
453.8652	0.0133
454.0675	0.0036
454.2697	0.0149
454.472	0.0083
454.6742	0.0151
454.8764	0.0265
455.0786	0.0132
455.2808	0.0092
455.4829	0.0235
455.6851	0.0287
455.8872	0.0375
456.0893	0.0204
456.2915	0.0061
456.4935	0.0223
456.6956	-0.0017
456.8977	0.0245
457.0997	0.0072
457.3018	0.001
457.5038	0.0173
457.7058	0.0118
457.9078	0.0101
458.1098	0.0102
458.3117	0.0068
458.5137	0.0023
458.7156	0.0095
458.9175	0.0065
459.1194	0.0153
459.3213	0.0065
459.5232	0.0005
459.725	-0.0012
459.9269	-0.0005
460.1287	-0.0006
460.3305	-0.0017
460.5323	0.007
460.7341	0.0047
460.9359	0.0174
461.1376	0.0046
461.3394	-0.0052
461.5411	0.0083
461.7428	0.0033
461.9445	0.0138
462.1462	0.0203
462.3479	-0.0104
462.5495	0.0116
462.7512	0.0157
462.9528	0.0067
463.1544	-0.0063
463.356	0.0059
463.5576	-0.0071
463.7592	-0.005
463.9607	0.0044
464.1623	0.0104
464.3638	0.0181
464.5653	-0.01
464.7668	0.0023
464.9683	0.0113
465.1697	0.0096
465.3712	-0.0079
465.5726	-0.0062
465.7741	-0.0077
465.9755	-0.0172
466.1769	0.0001
466.3782	0.0031
466.5796	0.0016
466.7809	0.0095
466.9823	-0.0041
467.1836	0.0123
467.3849	-0.0072
467.5862	0.0125
467.7875	0.0055
467.9887	0.0089
468.19	0.0003
468.3912	-0.0034
468.5924	0.0001
468.7936	-0.0003
468.9948	0.009
469.196	-0.0034
469.3972	-0.003
469.5983	0.0011
469.7994	-0.0039
470.0006	-0.0028
470.2017	-0.0233
470.4027	0.0032
470.6038	0.0052
470.8049	-0.0143
471.0059	0.0052
471.2069	-0.0258
471.408	0.007
471.6089	-0.0021
471.8099	0.003
472.0109	0.0095
472.2119	-0.0081
472.4128	-0.0142
472.6137	0.0078
472.8146	-0.0069
473.0155	-0.0073
473.2164	-0.0058
473.4173	0.0054
473.6181	0.0144
473.819	0.0018
474.0198	-0.0075
474.2206	0.0014
474.4214	-0.0101
474.6222	0.0129
474.8229	-0.0149
475.0237	-0.0075
475.2244	-0.0154
475.4251	-0.0017
475.6258	0.0037
475.8265	-0.0081
476.0272	0.0113
476.2278	-0.0047
476.4285	-0.0025
476.6291	-0.0095
476.8297	-0.0123
477.0303	-0.002
477.2309	-0.0008
477.4315	-0.01
477.632	-0.0042
477.8326	-0.0045
478.0331	0.0011
478.2336	0.0052
478.4341	-0.0142
478.6346	0.004
478.8351	-0.0016
479.0355	-0.0079
479.236	-0.0007
479.4364	0.004
479.6368	-0.0058
479.8372	-0.0187
480.0376	-0.0081
480.2379	-0.0179
480.4383	-0.0006
480.6386	0.0047
480.8389	-0.0036
481.0392	0.0033
481.2395	-0.0216
481.4398	0.0003
481.6401	-0.0084
481.8403	-0.0038
482.0405	-0.0091
482.2408	-0.0061
482.441	0.0052
482.6411	0.0023
482.8413	-0.0076
483.0415	-0.0083
483.2416	-0.0094
483.4417	-0.0036
483.6419	-0.0111
483.8419	-0.0092
484.042	-0.0007
484.2421	-0.0017
484.4422	-0.0026
484.6422	-0.0098
484.8422	0.0002
485.0422	-0.0123
485.2422	0.0017
485.4422	-0.0115
485.6422	-0.0135
485.8421	-0.0007
486.042	-0.0081
486.242	-0.0077
486.4419	-0.0082
486.6417	-0.0059
486.8416	-0.0021
487.0415	-0.0069
487.2413	-0.0071
487.4411	-0.0034
487.641	-0.0077
487.8408	0.0054
488.0405	-0.0047
488.2403	-0.0101
488.4401	0.0102
488.6398	-0.0072
488.8395	0.0019
489.0392	-0.0013
489.2389	0.0003
489.4386	-0.0033
489.6383	-0.008
489.8379	0.0008
490.0376	0.0062
490.2372	-0.0088
490.4368	-0.0079
490.6364	-0.0056
490.836	-0.0095
491.0355	-0.0038
491.2351	-0.0012
491.4346	0.0002
491.6341	-0.0201
491.8336	-0.0014
492.0331	-0.0143
492.2326	-0.017
492.432	-0.0033
492.6315	0.0011
492.8309	-0.0088
493.0303	-0.0056
493.2297	-0.0068
493.4291	-0.0026
493.6284	-0.0043
493.8278	-0.0045
494.0271	0.0076
494.2264	-0.0022
494.4257	0.0002
494.625	-0.0018
494.8243	-0.0211
495.0236	-0.0072
495.2228	0.0022
495.422	0.0076
495.6213	-0.0013
495.8205	-0.0021
496.0196	0.0009
496.2188	-0.001
496.418	-0.0151
496.6171	-0.0115
496.8162	-0.0034
497.0153	-0.0014
497.2144	0.001
497.4135	-0.0016
497.6126	-0.0117
497.8116	-0.0117
498.0107	-0.0092
498.2097	-0.0125
498.4087	-0.0178
498.6077	-0.0012
498.8067	-0.009
499.0056	0.0056
499.2046	-0.0157
499.4035	-0.0144
499.6024	-0.0108
499.8013	0.0092
500.0002	-0.0131
500.199	-0.0077
500.3979	-0.0015
500.5967	-0.0208
500.7956	0.0036
500.9944	-0.0065
501.1932	-0.0164
501.3919	-0.0159
501.5907	-0.0213
501.7895	-0.0084
501.9882	-0.0075
502.1869	-0.004
502.3856	-0.0053
502.5843	-0.0132
502.783	-0.0148
502.9816	-0.0083
503.1803	-0.0152
503.3789	-0.0087
503.5775	0.0011
503.7761	-0.0106
503.9747	-0.0003
504.1732	-0.0072
504.3718	-0.0052
504.5703	-0.0034
504.7689	-0.0134
504.9674	-0.004
505.1658	-0.0077
505.3643	-0.01
505.5628	0.0001
505.7612	-0.0111
505.9597	0.012
506.1581	-0.0054
506.3565	0.0043
506.5549	-0.0118
506.7532	-0.0158
506.9516	-0.0105
507.1499	-0.011
507.3482	-0.015
507.5465	-0.0087
507.7448	0.0087
507.9431	-0.012
508.1414	-0.0058
508.3396	-0.0096
508.5379	-0.0055
508.7361	-0.0093
508.9343	0.0019
509.1325	0.0013
509.3306	-0.0019
509.5288	0.0035
509.7269	-0.0125
509.9251	-0.0061
510.1232	-0.0139
510.3213	-0.0093
510.5193	0.0032
510.7174	-0.0089
510.9154	-0.0059
511.1135	-0.0078
511.3115	-0.0095
511.5095	0.0027
511.7075	-0.0065
511.9055	-0.0021
512.1034	-0.0062
512.3014	-0.0009
512.4993	0.0092
512.6972	-0.0044
512.8951	-0.0135
513.093	0.0004
513.2908	0.0002
513.4887	0.0019
513.6865	-0.0083
513.8844	-0.0067
514.0822	-0.0066
514.2799	-0.0202
514.4777	-0.0113
514.6755	-0.0008
514.8732	-0.006
515.0709	-0.0134
515.2687	-0.0127
515.4664	-0.0028
515.664	0.0007
515.8617	-0.008
516.0594	-0.0082
516.257	0.0056
516.4546	-0.0198
516.6522	-0.0001
516.8498	-0.0003
517.0474	-0.0006
517.2449	-0.0041
517.4425	-0.0177
517.64	-0.0069
517.8375	0.0017
518.035	-0.0072
518.2325	-0.0104
518.43	-0.0064
518.6274	-0.0084
518.8249	-0.0207
519.0223	0.0023
519.2197	-0.0173
519.4171	-0.0078
519.6145	-0.0067
519.8118	-0.0008
520.0092	0.0023
520.2065	-0.0054
520.4038	-0.0184
520.6011	0.0008
520.7984	-0.0172
520.9956	-0.0103
521.1929	-0.0144
521.3901	-0.0019
521.5874	0.0038
521.7846	-0.004
521.9818	-0.0083
522.1789	-0.0108
522.3761	-0.0073
522.5732	-0.007
522.7704	-0.0011
522.9675	-0.0024
523.1646	-0.008
523.3617	-0.0066
523.5587	-0.0004
523.7558	-0.0061
523.9528	-0.0042
524.1498	0.0051
524.3468	-0.0087
524.5438	-0.0133
524.7408	-0.0046
524.9378	0.0002
525.1347	-0.0052
525.3316	-0.0052
525.5285	-0.0121
525.7254	-0.0014
525.9223	-0.0099
526.1192	-0.0079
526.316	-0.0165
526.5129	0.0046
526.7097	0.0014
526.9065	-0.0008
527.1033	-0.0116
527.3	-0.0097
527.4968	-0.0013
527.6935	-0.0015
527.8903	-0.0142
528.087	-0.0116
528.2837	-0.0016
528.4804	0.0003
528.677	-0.0116
528.8737	0.0019
529.0703	-0.0008
529.2669	-0.0072
529.4635	0.0006
529.6601	-0.0129
529.8567	-0.0021
530.0532	-0.0084
530.2498	-0.0019
530.4463	-0.0057
530.6428	-0.0038
530.8393	0.004
531.0358	-0.0034
531.2322	-0.0064
531.4287	-0.0036
531.6251	-0.004
531.8215	-0.0007
532.0179	0.004
532.2143	0.0097
532.4107	-0.0101
532.607	-0.0008
532.8034	-0.0056
532.9997	-0.0019
533.196	-0.0009
533.3923	-0.0061
533.5886	-0.0031
533.7848	-0.0057
533.9811	-0.0077
534.1773	-0.0003
534.3735	0.0086
534.5697	0.0052
534.7659	0.0033
534.9621	0.0006
535.1582	-0.0096
535.3544	-0.0018
535.5505	-0.0056
535.7466	-0.0022
535.9427	-0.0058
536.1387	-0.0019
536.3348	-0.0064
536.5308	-0.0032
536.7269	-0.013
536.9229	-0.0088
537.1189	0.001
537.3148	-0.0038
537.5108	-0.0055
537.7068	0.0001
537.9027	0.0002
538.0986	0.0016
538.2945	-0.0099
538.4904	-0.0075
538.6863	-0.0037
538.8821	-0.0055
539.078	-0.0052
539.2738	0.0038
539.4696	-0.0068
539.6654	0.0058
539.8611	0.008
540.0569	0.0031
540.2526	-0.0029
540.4484	0.002
540.6441	0.0089
540.8398	0.0029
541.0355	0.0032
541.2311	-0.0007
541.4268	-0.0122
541.6224	0.0048
541.818	-0.0001
542.0136	-0.0035
542.2092	0.0065
542.4048	0.0036
542.6003	0.0067
542.7959	0.001
542.9914	0.0028
543.1869	-0.0013
543.3824	-0.0087
543.5779	-0.0043
543.7734	-0.0045
543.9688	-0.0046
544.1642	0.0021
544.3596	0.0043
544.555	-0.009
544.7504	-0.0006
544.9458	-0.0051
545.1411	-0.0085
545.3365	-0.0034
545.5318	-0.0068
545.7271	-0.0052
545.9224	-0.0054
546.1177	-0.004
546.3129	0.0023
546.5081	-0.0025
546.7034	-0.0006
546.8986	-0.0005
547.0938	-0.0072
547.289	-0.0041
547.4841	-0.0079
547.6793	0.003
547.8744	-0.0081
548.0695	0.0059
548.2646	-0.0038
548.4597	0.0062
548.6548	-0.0031
548.8498	0.0033
549.0448	0.0008
549.2399	0.001
549.4349	0.0026
549.6298	0.0027
549.8248	0.0005
550.0198	-0.0002
550.2147	-0.0062
550.4096	-0.0094
550.6045	-0.0035
550.7994	-0.0004
550.9943	-0.0088
551.1892	-0.0032
551.384	-0.0071
551.5788	-0.006
551.7737	0.0043
551.9685	-0.0015
552.1632	-0.0009
552.358	-0.0082
552.5528	0.0049
552.7475	-0.003
552.9422	0.0012
553.1369	0.0008
553.3316	0.0109
553.5263	-0.0104
553.7209	0.0102
553.9156	-0.0058
554.1102	-0.0056
554.3048	-0.0044
554.4994	0.0066
554.694	-0.001
554.8885	0.0038
555.0831	-0.0069
555.2776	0.0003
555.4721	-0.0032
555.6666	-0.008
555.8611	0.0077
556.0555	0.0019
556.25	-0.0055
556.4444	-0.0066
556.6388	-0.0041
556.8332	-0.005
557.0276	0.0023
557.222	0.0007
557.4163	-0.0059
557.6107	-0.0067
557.805	0.0084
557.9993	-0.0071
558.1936	0.0047
558.3879	0.0066
558.5821	0.0119
558.7764	-0.004
558.9706	0.0018
559.1648	0.0087
559.359	-0.0041
559.5532	-0.0178
559.7473	-0.0067
559.9415	0.0003
560.1356	-0.0121
560.3297	-0.0057
560.5238	-0.0085
560.7179	-0.0043
560.9119	-0.0049
561.106	-0.0033
561.3	-0.0017
561.494	-0.008
561.688	-0.0026
561.882	-0.0134
562.076	-0.0005
562.2699	0.0025
562.4639	0.0001
562.6578	0.001
562.8517	-0.0054
563.0456	-0.0009
563.2395	0.006
563.4333	-0.0053
563.6272	0.0026
563.821	-0.0041
564.0148	0.0007
564.2086	-0.0047
564.4024	-0.0075
564.5961	-0.0065
564.7899	0.0107
564.9836	0.0001
565.1773	-0.0041
565.371	0.0129
565.5647	0.0063
565.7584	0.0005
565.952	0.0096
566.1456	0.001
566.3393	0.0052
566.5329	-0.0109
566.7264	0.0033
566.92	-0.0042
567.1136	0.0014
567.3071	-0.0011
567.5006	-0.0049
567.6941	0.0019
567.8876	-0.004
568.0811	-0.0014
568.2745	0.0007
568.468	0.009
568.6614	0.0032
568.8548	-0.0023
569.0482	-0.0034
569.2416	0.0068
569.4349	0.0028
569.6283	0.0009
569.8216	0.0045
570.0149	-0.0061
570.2082	0.0126
570.4015	0.0065
570.5947	0.0069
570.788	0.011
570.9812	0.0072
571.1744	-0.0026
571.3676	-0.0006
571.5608	-0.0035
571.754	0.0037
571.9471	0.0039
572.1402	0.0059
572.3333	-0.0064
572.5264	-0.0013
572.7195	0.003
572.9126	0.0014
573.1057	-0.0012
573.2987	-0.002
573.4917	-0.0015
573.6847	-0.0058
573.8777	0.0049
574.0707	0.0007
574.2636	-0.0055
574.4566	-0.0043
574.6495	0.003
574.8424	-0.0016
575.0353	-0.003
575.2281	0.0043
575.421	0.0053
575.6138	0.0016
575.8067	0.0003
575.9995	0.0041
576.1923	0.006
576.385	-0.0004
576.5778	-0.0018
576.7706	-0.002
576.9633	-0.001
577.156	-0.0006
577.3487	0.003
577.5414	0.0036
577.734	-0.0037
577.9267	0.0041
578.1193	-0.0046
578.3119	-0.0025
578.5045	0.0056
578.6971	-0.0007
578.8897	0.0135
579.0822	0.0023
579.2747	0.0008
579.4673	-0.0045
579.6598	-0.0001
579.8522	0.0059
580.0447	-0.0039
580.2372	-0.005
580.4296	0.0049
580.622	0.0016
580.8144	0.0077
581.0068	-0.0035
581.1992	-0.012
581.3915	0.001
581.5839	-0.0087
581.7762	-0.0067
581.9685	-0.0016
582.1608	-0.0006
582.353	-0.0057
582.5453	0.0019
582.7375	0.0015
582.9298	0.0021
583.122	0.0045
583.3142	0.0067
583.5063	-0.0003
583.6985	-0.0019
583.8906	0.0005
584.0827	-0.0015
584.2749	0.0018
584.4669	0.0029
584.659	0.0008
584.8511	0.0053
585.0431	0.0013
585.2352	0.0073
585.4272	-0.0024
585.6192	0.0069
585.8111	0.0045
586.0031	0.002
586.195	0.0068
586.387	0.0022
586.5789	0.0031
586.7708	0.0036
586.9627	0.0019
587.1545	0.0013
587.3464	0.0042
587.5382	0.0005
587.73	-0.0009
587.9218	0.0028
588.1136	-0.0043
588.3053	0.0084
588.4971	-0.0011
588.6888	-0.0067
588.8805	0.0013
589.0722	0.0077
589.2639	0.0028
589.4556	0.0028
589.6472	0.0011
589.8389	-0.0032
590.0305	-0.0041
590.2221	0.003
590.4137	-0.0043
590.6052	0.0097
590.7968	0.0066
590.9883	0.0102
591.1798	-0.001
591.3713	-0.0035
591.5628	0.0076
591.7543	0.0083
591.9458	0.0018
592.1372	0.0159
592.3286	0.0125
592.52	0.0041
592.7114	-0.0003
592.9028	0.0031
593.0941	0.0015
593.2855	0.0023
593.4768	-0.0008
593.6681	-0.0031
593.8594	0.0064
594.0506	0.0011
594.2419	0.0081
594.4331	0.0063
594.6244	0.0117
594.8156	-0.0014
595.0067	0.0019
595.1979	-0.0014
595.3891	0.0022
595.5802	-0.0033
595.7713	-0.0054
595.9624	-0.0047
596.1535	0.0032
596.3446	-0.0067
596.5357	-0.0053
596.7267	0.011
596.9177	0.0008
597.1087	-0.0077
597.2997	-0.0041
597.4907	0.0061
597.6817	-0.0026
597.8726	-0.0049
598.0635	-0.002
598.2544	-0.0018
598.4453	0.0062
598.6362	0.0022
598.827	0.0025
599.0179	0.0081
599.2087	0
599.3995	0.0061
599.5903	-0.0007
599.7811	0.0043
599.9718	0.0069
600.1626	-0.0035
600.3533	-0.0089
600.544	-0.0036
600.7347	0.0003
600.9254	0.0105
601.116	-0.004
601.3067	-0.0018
601.4973	-0.0022
601.6879	0.0038
601.8785	0.0034
602.0691	0.0071
602.2596	0.0109
602.4502	0.0101
602.6407	0.0049
602.8312	0.0043
603.0217	-0.0018
603.2122	0.0027
603.4027	0.0021
603.5931	0.0027
603.7835	-0.0021
603.9739	-0.0032
604.1643	0.0014
604.3547	-0.0107
604.5451	0.0022
604.7354	0.0058
604.9257	0.0012
605.116	0.0024
605.3063	0.0048
605.4966	-0.0023
605.6869	0.0075
605.8771	0.0083
606.0673	0.0074
606.2575	0.0068
606.4477	0.0039
606.6379	0.0044
606.8281	0.0052
607.0182	0.0012
607.2083	0.0075
607.3985	-0.0036
607.5885	0.0002
607.7786	0.0051
607.9687	-0.0011
608.1587	0.0098
608.3488	0.0028
608.5388	-0.0024
608.7288	-0.0008
608.9187	0.0044
609.1087	0.0007
609.2986	-0.0012
609.4886	-0.0045
609.6785	-0.0032
609.8684	0.0056
610.0582	0.0042
610.2481	0.0059
610.4379	0.0035
610.6278	-0.0014
610.8176	0.0007
611.0074	0.0002
611.1971	-0.0007
611.3869	0.0015
611.5766	-0.003
611.7664	0.0062
611.9561	0.0072
612.1458	0.0065
612.3354	0.0031
612.5251	0.0012
612.7147	0.0026
612.9044	0.0126
613.094	-0.0073
613.2836	0.0075
613.4731	-0.0006
613.6627	-0.002
613.8522	0.0058
614.0417	0.0035
614.2313	0.0039
614.4207	0.0018
614.6102	0.0007
614.7997	0.0035
614.9891	-0.0023
615.1785	0.004
615.3679	-0.0055
615.5573	0.0077
615.7467	0.0021
615.9361	-0.0026
616.1254	-0.0006
616.3147	0.0057
616.504	0.0038
616.6933	0.0073
616.8826	0.0075
617.0718	0.0004
617.2611	0.0069
617.4503	-0.0047
617.6395	0.0039
617.8287	-0.0078
618.0179	0.0081
618.207	0.013
618.3961	0.0091
618.5853	0.0026
618.7744	0.008
618.9634	0.0059
619.1525	0.007
619.3416	0.0101
619.5306	0.0075
619.7196	0.0039
619.9086	0.0036
620.0976	0.0043
620.2866	0.0017
620.4755	0.009
620.6645	0.0056
620.8534	-0.0023
621.0423	0.0098
621.2312	0.0101
621.42	0.0061
621.6089	0.0039
621.7977	0.0088
621.9865	-0.0063
622.1753	0.0075
622.3641	-0.0114
622.5529	0.0158
622.7416	0.01
622.9303	0.0097
623.1191	0.0089
623.3078	0.0001
623.4964	0.0099
623.6851	0.001
623.8737	-0.0036
624.0624	0.0095
624.251	0.0069
624.4396	0.0001
624.6282	-0.0048
624.8167	0.0058
625.0053	0.0022
625.1938	0.0072
625.3823	0.0086
625.5708	0.0088
625.7593	-0.0046
625.9477	-0.0048
626.1362	0.0027
626.3246	0.0087
626.513	0.0102
626.7014	0.008
626.8898	0.003
627.0781	0.0035
627.2665	-0.0041
627.4548	0.0044
627.6431	0.0041
627.8314	0.0032
628.0197	0.0027
628.2079	-0.0058
628.3962	-0.0029
628.5844	0.0022
628.7726	0.008
628.9608	0.0129
629.1489	0.0039
629.3371	0.0067
629.5252	0.0046
629.7134	0.0079
629.9015	-0.0039
630.0895	-0.0018
630.2776	-0.002
630.4657	0.0032
630.6537	0.0007
630.8417	-0.0017
631.0297	0.0012
631.2177	0.0006
631.4057	0.0027
631.5936	0.0054
631.7815	0.0101
631.9695	0.0057
632.1574	0.0077
632.3452	0.0181
632.5331	0.0051
632.7209	0.0013
632.9088	0.01
633.0966	0.0135
633.2844	-0.0072
633.4722	0.0001
633.6599	0.0088
633.8477	0.0058
634.0354	0.006
634.2231	-0.0002
634.4108	0.0066
634.5985	0.01
634.7861	0.0111
634.9738	0.0106
635.1614	-0.0006
635.349	0.0019
635.5366	0.0036
635.7242	0.0038
635.9117	0.0023
636.0993	-0.0057
636.2868	0.0076
636.4743	-0.0045
636.6618	0.0054
636.8492	0.0027
637.0367	0.0047
637.2241	-0.003
637.4115	0.0033
637.5989	0.0011
637.7863	0.0074
637.9737	0.0033
638.161	0.0018
638.3484	-0.0029
638.5357	0.0119
638.723	-0.0049
638.9103	0.0042
639.0975	0.0069
639.2848	-0.0012
639.472	0.0031
639.6592	0.0038
639.8464	0.0125
640.0336	0.0091
640.2208	-0.0028
640.4079	0.0054
640.595	0.0016
640.7821	0.003
640.9692	0.0081
641.1563	-0.0013
641.3434	0.0094
641.5304	-0.0011
641.7174	0.0067
641.9044	-0.0011
642.0914	0.0025
642.2784	0.007
642.4653	0.0082
642.6523	0.0017
642.8392	0.0005
643.0261	0.0051
643.213	0.0054
643.3999	-0.0052
643.5867	-0.0021
643.7735	0.0008
643.9604	-0.0038
644.1472	0.0063
644.3339	0.0047
644.5207	-0.0034
644.7075	0.0036
644.8942	0.0008
645.0809	0.0052
645.2676	0.0089
645.4543	0.0128
645.6409	0.0005
645.8276	0.0026
646.0142	0.0045
646.2008	0.0015
646.3874	-0
646.574	0.0019
646.7605	0.0009
646.9471	-0.0045
647.1336	-0.0011
647.3201	0.0074
647.5066	-0.003
647.6931	0.0072
647.8795	0.0005
648.0659	0.0114
648.2524	0.0013
648.4388	-0.0079
648.6252	0.0109
648.8115	0.0052
648.9979	0.0025
649.1842	0.0049
649.3705	0.005
649.5568	0.0077
649.7431	0.0067
649.9294	-0.0006
650.1156	0.0072
650.3018	0
650.488	0.0054
650.6742	0.0031
650.8604	0.0021
651.0466	0.0053
651.2327	0.0012
651.4188	0.002
651.6049	0.0045
651.791	0.0034
651.9771	0.0072
652.1632	0.0053
652.3492	0.0057
652.5352	0.0051
652.7212	0.0023
652.9072	0.011
653.0932	0.0055
653.2791	0.0005
653.465	0.0001
653.651	-0.0037
653.8369	0.0036
654.0227	-0.0023
654.2086	0.0065
654.3944	0.0043
654.5803	0.001
654.7661	-0.002
654.9519	0.0078
655.1377	-0.0038
655.3234	0.0007
655.5092	-0.0051
655.6949	-0.0044
655.8806	-0.0063
656.0663	-0.0002
656.2519	-0.0006
656.4376	-0.0002
656.6232	0.0051
656.8088	-0.003
656.9945	0.0069
657.18	0.0034
657.3656	0.0051
657.5511	-0.0063
657.7367	-0.006
657.9222	0.0054
658.1077	0.0023
658.2932	0.0126
658.4786	-0.0037
658.6641	0.0046
658.8495	0.0031
659.0349	0.0039
659.2203	0.0086
659.4057	0.0022
659.591	0.01
659.7764	-0.001
659.9617	0.0022
660.147	0.0042
660.3323	0.003
660.5176	0.0082
660.7028	0.0067
660.888	0.0054
661.0733	0.0148
661.2585	-0.0033
661.4436	0.0031
661.6288	-0.0034
661.8139	0.0043
661.9991	0.0043
662.1842	0.0047
662.3693	0.0085
662.5544	-0.0007
662.7394	0.0066
662.9245	0.0033
663.1095	0.0081
663.2945	-0.0013
663.4795	0.0028
663.6644	0.0113
663.8494	0.008
664.0343	0.0069
664.2193	-0.0027
664.4042	0.0049
664.589	0.0019
664.7739	0.0041
664.9587	-0.0045
665.1436	0.0023
665.3284	0.001
665.5132	0.0004
665.698	0.0027
665.8827	0.0116
666.0675	-0.0005
666.2522	-0.0026
666.4369	0.0083
666.6216	0.0085
666.8063	0.009
666.9909	0.0039
667.1756	0.0061
667.3602	0.0027
667.5448	-0.0021
667.7294	0.0123
667.9139	0.0043
668.0985	0.0169
668.283	0.0066
668.4675	0.0115
668.652	0.0053
668.8365	0.0052
669.0209	0.012
669.2054	0.0101
669.3898	0.0033
669.5742	0.0099
669.7586	0.0022
669.943	0.0106
670.1273	0.0067
670.3117	0.0123
670.496	0.0159
670.6803	0.0226
670.8646	0.0143
671.0488	0.0003
671.2331	0.0135
671.4173	0.0044
671.6015	0.0035
671.7857	0.0073
671.9699	0.0079
672.1541	0.0066
672.3382	0.0048
672.5223	0.0008
672.7064	0.0095
672.8905	0.0089
673.0746	0.0015
673.2587	0.0037
673.4427	0.0117
673.6267	0.0136
673.8107	0.0153
673.9947	0.0101
674.1787	0.0058
674.3626	0.002
674.5465	0.0073
674.7304	0.0023
674.9143	0.007
675.0982	0.0092
675.2821	-0.0003
675.4659	0.0117
675.6497	0.0024
675.8335	-0.0037
676.0173	0.0041
676.2011	0.0025
676.3849	-0.0053
676.5686	-0.0044
676.7523	-0.0003
676.936	-0.0019
677.1197	-0
677.3034	-0.0006
677.487	0.0065
677.6706	0.0066
677.8542	0.0067
678.0378	0.0072
678.2214	0.0006
678.405	-0.002
678.5885	-0.0027
678.772	-0.0003
678.9555	-0.0032
679.139	-0.0052
679.3225	0.0044
679.5059	-0.0006
679.6894	0.0067
679.8728	0.0038
680.0562	-0.0053
680.2395	0.0056
680.4229	0.0013
680.6062	0.0066
680.7896	0.0067
680.9729	-0.0083
681.1562	0.0021
681.3394	0.009
681.5227	-0.0025
681.7059	-0.0039
681.8891	-0.0001
682.0723	0.0196
682.2555	0.005
682.4387	0.0048
682.6218	-0.0015
682.805	-0.0024
682.9881	0.0014
683.1712	-0.0042
683.3542	-0.0021
683.5373	0.0088
683.7203	-0.0062
683.9034	0.0033
684.0864	-0.0069
684.2694	0.0028
684.4523	0.0072
684.6353	-0.0053
684.8182	0.0015
685.0011	-0.0088
685.184	0.0015
685.3669	-0.0022
685.5498	0.0055
685.7326	0.0038
685.9154	-0.0044
686.0982	0.0099
686.281	0.0094
686.4638	0.0104
686.6465	-0.0004
686.8293	0.0002
687.012	0.0035
687.1947	-0.0014
687.3774	0.0094
687.56	0.0072
687.7427	0.0125
687.9253	-0.0028
688.1079	0.0045
688.2905	0.0055
688.4731	0.005
688.6556	0.0043
688.8382	-0.0065
689.0207	0.0062
689.2032	-0.0032
689.3857	0.0028
689.5681	0.0008
689.7506	-0.0015
689.933	0.002
690.1154	0.0017
690.2978	0.0025
690.4802	0.0073
690.6626	-0.0022
690.8449	-0.0065
691.0272	0.0093
691.2095	0.002
691.3918	-0.0051
691.5741	0.0023
691.7563	0.0077
691.9386	0.005
692.1208	0.0039
692.303	0.0019
692.4852	0.001
692.6673	0.0051
692.8495	0.0005
693.0316	0.0009
693.2137	0.0018
693.3958	0.0131
693.5778	0.0087
693.7599	0.0062
693.9419	0.0071
694.1239	0.0031
694.3059	0.003
694.4879	0.0033
694.6699	0.01
694.8518	0.0032
695.0337	0.0011
695.2157	-0.0007
695.3975	-0.0011
695.5794	0.0061
695.7613	0.0104
695.9431	-0.0032
696.1249	0.0032
696.3067	0.0107
696.4885	0.0027
696.6703	-0.0043
696.852	0.0066
697.0337	0.0094
697.2154	-0.0004
697.3971	0.0055
697.5788	0.0058
697.7605	0.0015
697.9421	0.0112
698.1237	0.0007
698.3053	0.0001
698.4869	0.0027
698.6685	-0.0078
698.85	-0.0055
699.0315	0.0128
699.213	-0.002
699.3945	0.0052
699.576	0.0136
699.7575	0.0112
699.9389	0.0108
700.1203	-0.0008
700.3017	-0.0033
700.4831	0.0041
700.6645	-0.0068
700.8458	0.0074
701.0271	-0.0017
701.2084	0.0047
701.3897	-0.0051
701.571	0.0092
701.7523	-0.0017
701.9335	0.0018
702.1147	0.0108
702.2959	0.0008
702.4771	0.0009
702.6583	0.0003
702.8394	-0.0063
703.0205	-0.0006
703.2016	0.0021
703.3827	0.0046
703.5638	0.0094
703.7449	0.0037
703.9259	0.0062
704.1069	0.0015
704.2879	0.0037
704.4689	-0.0034
704.6499	-0.0076
704.8308	-0.0103
705.0117	0.0021
705.1927	-0.0039
705.3735	-0.0016
705.5544	-0.0054
705.7353	-0.0028
705.9161	-0.0112
706.0969	-0.0054
706.2777	0.0001
706.4585	0.003
706.6393	0.0037
706.82	-0.0052
707.0007	0.0076
707.1815	0.0023
707.3621	0.0168
707.5428	0.0026
707.7235	0.0131
707.9041	0.0071
708.0847	-0.007
708.2653	0.0057
708.4459	-0.0065
708.6265	0.0023
708.807	0.0052
708.9875	-0.0015
709.168	-0.0043
709.3485	0.0026
709.529	-0.0041
709.7095	-0.0093
709.8899	0.0021
710.0703	-0.0053
710.2507	-0.0015
710.4311	-0.0037
710.6115	-0.0056
710.7918	-0.0069
710.9721	-0.0008
711.1524	-0.007
711.3327	-0.0047
711.513	0.0012
711.6932	-0.003
711.8735	0.0042
712.0537	0.0035
712.2339	-0.0008
712.4141	-0.0042
712.5942	-0.0036
712.7744	0.0005
712.9545	-0.0042
713.1346	0.0035
713.3147	-0.0015
713.4947	0.0032
713.6748	0.0075
713.8548	-0.0072
714.0348	-0.0053
714.2148	-0.0045
714.3948	0.0124
714.5748	-0.0068
714.7547	0.0072
714.9346	0.003
715.1145	-0.009
715.2944	-0.0016
715.4743	-0.0018
715.6541	-0.0028
715.834	-0.0038
716.0138	-0.0021
716.1936	-0.0035
716.3733	-0.0098
716.5531	0.0104
716.7328	-0.0018
716.9126	-0.0003
717.0923	0.0083
717.2719	-0.0004
717.4516	0.0082
717.6312	0.0114
717.8109	-0.0025
717.9905	0.0078
718.1701	-0.0043
718.3496	-0.0084
718.5292	0.0052
718.7087	0.002
718.8882	0.001
719.0677	0.0011
719.2472	-0.0055
719.4267	-0.001
719.6061	0.0033
719.7856	0.0065
719.965	0.0025
720.1443	-0.0073
720.3237	0.0144
720.5031	0.0011
720.6824	0.0095
720.8617	-0.0057
721.041	0.0027
721.2203	0.0117
721.3995	0.0071
721.5788	0.0025
721.758	0.0098
721.9372	-0.0009
722.1164	-0.0012
722.2956	0.0021
722.4747	0.0089
722.6538	0.0004
722.8329	0.0081
723.012	0.0072
723.1911	0.0003
723.3702	0.0041
723.5492	0.0035
723.7282	-0.0027
723.9072	0.0138
724.0862	0.0031
724.2652	0.0002
724.4441	0.0015
724.623	-0.0022
724.8019	-0.0047
724.9808	0.0007
725.1597	-0.0072
725.3385	0.0004
725.5174	0.0104
725.6962	0.002
725.875	0.001
726.0538	0.0039
726.2325	-0.0009
726.4112	0.006
726.59	-0.0001
726.7687	-0.0077
726.9474	0.0002
727.126	-0.0042
727.3047	-0.006
727.4833	-0.0037
727.6619	-0.0015
727.8405	-0.0072
728.0191	-0.009
728.1976	-0.0046
728.3762	0.0026
728.5547	0.0097
728.7332	-0.0119
728.9116	0.0061
729.0901	0.0141
729.2686	-0.0071
729.447	-0.0056
729.6254	0.0002
729.8038	0.0012
729.9821	-0.0097
730.1605	0.0012
730.3388	-0.0074
730.5171	0.001
730.6954	-0.0005
730.8737	0.0108
731.0519	-0.0023
731.2302	0.0019
731.4084	0.0163
731.5866	0.011
731.7648	0.0028
731.9429	0.0022
732.1211	-0.0056
732.2992	0.0045
732.4773	0.0006
732.6554	0.0059
732.8335	-0.0016
733.0115	0.0068
733.1896	0.0102
733.3676	0.0004
733.5456	0.0086
733.7235	0.0065
733.9015	0.0035
734.0794	0.0027
734.2574	-0.0006
734.4353	-0.0002
734.6131	0.0059
734.791	0.0074
734.9689	0.0078
735.1467	0.0126
735.3245	0.0032
735.5023	0.0018
735.68	0.0067
735.8578	0.0173
736.0355	-0.0145
736.2132	0.0072
736.3909	0.0007
736.5686	-0.0011
736.7463	0.0141
736.9239	0.0042
737.1015	0.0031
737.2791	0.009
737.4567	0.0048
737.6343	0.0016
737.8118	0.0013
737.9894	0.0067
738.1669	-0.0045
738.3444	-0.0035
738.5218	-0.0021
738.6993	-0.0044
738.8767	-0.0012
739.0541	0.0055
739.2315	-0.0011
739.4089	0.0014
739.5863	0.0049
739.7636	-0.0044
739.9409	0.0037
740.1182	0.0183
740.2955	0.0062
740.4728	0.0084
740.65	-0.005
740.8272	-0.0012
741.0044	-0.0002
741.1816	0.0026
741.3588	-0.008
741.5359	-0.0009
741.7131	-0.0134
741.8902	0.0028
742.0673	-0.0017
742.2444	-0.0094
742.4214	-0.0037
742.5985	-0.0016
742.7755	-0.0037
742.9525	-0.0087
743.1295	0.003
743.3064	-0.0007
743.4834	0.0067
743.6603	-0.0069
743.8372	-0.0001
744.0141	-0.002
744.191	0.0008
744.3678	-0.0036
744.5446	0.0031
744.7215	0.0104
744.8982	-0.0046
745.075	-0.0079
745.2518	0.0063
745.4285	0.0062
745.6052	-0.0067
745.7819	-0.0006
745.9586	-0.0031
746.1353	-0.0033
746.3119	-0.0056
746.4885	-0.0082
746.6651	-0.0122
746.8417	-0.0037
747.0183	0.0024
747.1948	-0.0026
747.3714	-0.0017
747.5479	-0.0001
747.7244	-0.0028
747.9008	0.0074
748.0773	-0.0067
748.2537	-0.008
748.4301	-0.0115
748.6065	0.0084
748.7829	0.0039
748.9593	-0.001
749.1356	0.0056
749.3119	0.0083
749.4882	-0.0054
749.6645	0.0028
749.8408	0.0001
750.017	-0.0051
750.1933	-0.0001
750.3695	-0.0056
750.5457	0.0005
750.7218	0.0033
750.898	-0.0011
751.0741	-0.0032
751.2502	-0.0033
751.4263	-0.0008
751.6024	-0.0047
751.7784	0.0062
751.9545	-0.004
752.1305	0.0014
752.3065	0.0015
752.4825	0.011
752.6584	-0.0049
752.8344	0.0024
753.0103	-0.0017
753.1862	-0.0088
753.3621	-0.0061
753.5379	-0.003
753.7138	-0.0002
753.8896	-0.0085
754.0654	-0.0015
754.2412	0.0061
754.417	0.0046
754.5927	0.0023
754.7685	-0.0023
754.9442	0.0022
755.1199	0.0012
755.2956	0.0024
755.4712	0.0099
755.6469	0.0033
755.8225	-0.0003
755.9981	0.0028
756.1736	0.0018
756.3492	-0.0085
756.5248	-0.0072
756.7003	-0.0004
756.8758	0.0078
757.0513	-0.0142
757.2267	-0.0109
757.4022	-0.0032
757.5776	-0.0138
757.753	0.0028
757.9284	-0.0066
758.1038	0.0021
758.2791	0.0123
758.4545	-0.008
758.6298	-0.0053
758.8051	0.0017
758.9803	-0.0042
759.1556	0.0002
759.3308	-0.0081
759.506	0.0071
759.6812	-0.0031
759.8564	0.0063
760.0316	-0.0027
760.2067	0.016
760.3819	0.0093
760.557	0.0108
760.732	0.0033
760.9071	0.0011
761.0821	-0.0034
761.2572	0.0057
761.4322	-0.0012
761.6072	0.0009
761.7821	-0.0067
761.9571	0.01
762.132	-0.0058
762.3069	-0.0074
762.4818	-0.0059
762.6567	0.003
762.8316	-0.0011
763.0064	-0.0047
763.1812	0.004
763.356	-0.02
763.5308	-0.0063
763.7055	-0.0014
763.8803	0.0073
764.055	-0.0083
764.2297	-0.0019
764.4044	-0.0053
764.579	-0.0062
764.7537	-0.0106
764.9283	0.0023
765.1029	-0.01
765.2775	-0.0017
765.4521	-0.0035
765.6266	-0.0072
765.8011	-0.0063
765.9756	0.0014
766.1501	0.0064
766.3246	0.0057
766.4991	-0.0077
766.6735	0.0027
766.8479	0.0016
767.0223	0.0149
767.1967	0.0094
767.371	0.0097
767.5454	0.0055
767.7197	0.0022
767.894	-0.0029
768.0683	-0.0044
768.2425	0.0027
768.4168	-0.0023
768.591	-0.0006
768.7652	0.0027
768.9394	0.0033
769.1135	0.0063
769.2877	0.0032
769.4618	0.0048
769.6359	0.0048
769.81	0.0021
769.984	-0.0011
770.1581	-0.0093
770.3321	-0.0045
770.5061	0.0032
770.6801	-0.003
770.8541	0.0085
771.028	0.0108
771.202	-0.0056
771.3759	0.0085
771.5498	-0.0027
771.7236	0.0034
771.8975	-0.0017
772.0713	0.0096
772.2451	0.0105
772.4189	0.0004
772.5927	0.0048
772.7665	0.0075
772.9402	-0.0031
773.1139	0.0008
773.2876	-0.0017
773.4613	0.0161
773.635	0.014
773.8086	-0.0071
773.9822	0.0061
774.1558	-0.0041
774.3294	-0.0021
774.503	0.0049
774.6765	0.0008
774.8501	0.0084
775.0236	0.0221
775.1971	0.0166
775.3705	0.0021
775.544	0.0168
775.7174	0.0042
775.8908	0.0097
776.0642	0.0083
776.2376	0.0114
776.4109	-0.0008
776.5843	0.0063
776.7576	0.0207
776.9309	0.0077
777.1041	0.0127
777.2774	0.0248
777.4506	0.009
777.6238	0.0009
777.797	0.0114
777.9702	-0.0007
778.1434	0.0041
778.3165	-0.0082
778.4896	-0.0104
778.6627	0.0117
778.8358	-0.0005
779.0089	-0.0072
779.1819	-0.0063
779.3549	0.014
779.5279	0.0087
779.7009	-0.0089
779.8739	0.0058
780.0468	0.0026
780.2197	-0.0021
780.3926	-0.0082
780.5655	0.0027
780.7384	0.0001
780.9112	-0.0084
781.0841	0.0038
781.2569	0.0075
781.4297	0.0102
781.6024	0.0124
781.7752	-0.0006
781.9479	0.0099
782.1206	0.0017
782.2933	0.0029
782.466	0.0116
782.6386	0.0175
782.8113	0.0123
782.9839	0.0137
783.1565	0.0123
783.329	0.008
783.5016	0.012
783.6741	0.0101
783.8466	-0.0055
784.0191	0.032
784.1916	0.0065
784.3641	0.0089
784.5365	0.0099
784.7089	0.0093
784.8813	0.0081
785.0537	0.012
785.2261	0.0103
785.3984	-0.0011
785.5707	0.0088
785.743	0.0105
785.9153	0.0074
786.0876	0.0164
786.2598	-0.007
786.432	-0.0059
786.6042	0.0055
786.7764	-0.0074
786.9486	0.009
787.1207	-0.008
787.2928	0.0039
787.4649	0.0051
787.637	-0.007
787.8091	0.013
787.9811	-0.0061
788.1532	0.0112
788.3252	0.0056
788.4972	-0.0031
788.6691	0.0174
788.8411	0.0086
789.013	-0.004
789.1849	0.0154
789.3568	0.0091
789.5287	0.003
789.7005	0.006
789.8723	0.0152
790.0442	0.0123
790.2159	0.0164
790.3877	0.0098
790.5595	-0.0055
790.7312	0.0122
790.9029	0.0127
791.0746	0.0076
791.2463	-0.0028
791.4179	-0.0009
791.5896	0.0009
791.7612	0.0003
791.9328	0.0037
792.1044	-0.0003
792.2759	-0.0073
792.4474	-0.0095
792.619	0.0021
792.7905	0.0085
792.9619	0.0059
793.1334	0.0078
793.3048	0.0089
793.4762	0.0161
793.6476	0.0133
793.819	-0.0131
793.9904	0.0184
794.1617	-0.0021
794.333	0.0014
794.5043	-0.0193
794.6756	-0.0013
794.8469	0.0071
795.0181	0.0011
795.1893	-0.0102
795.3605	0.0088
795.5317	0.0209
795.7029	0.0012
795.874	-0.0005
796.0452	0.0022
796.2163	-0.0085
796.3873	0.0028
796.5584	-0.0009
796.7294	-0.0018
796.9005	0.0113
797.0715	-0.0005
797.2425	0.0026
797.4134	0.0057
797.5844	0.0111
797.7553	0.0011
797.9262	-0.0022
798.0971	0.0041
798.2679	0.0054
798.4388	-0.0226
798.6096	0.0056
798.7804	0.0108
798.9512	-0.0046
799.122	-0.0023
799.2927	-0.0006
799.4635	0.0141
799.6342	-0.0167
799.8049	-0.0132
799.9755	0.0142
800.1462	-0.0054
800.3168	0.0033
800.4874	-0.0004
800.658	0.0138
800.8286	0.0193
800.9991	0.0167
801.1696	0.0107
801.3402	0.0178
801.5106	-0.0006
801.6811	0.0116
801.8516	0.0203
802.022	0.0062
802.1924	0.0055
802.3628	0.0103
802.5332	0.025
802.7035	0.0217
802.8739	0.0017
803.0442	0.0076
803.2145	0.0062
803.3847	-0.0093
803.555	0.0062
803.7252	0.0157
803.8954	0.0047
804.0656	-0.0086
804.2358	-0
804.4059	0.0025
804.5761	0.0032
804.7462	0.0129
804.9163	0.0137
805.0864	-0.0122
805.2564	-0.0074
805.4264	0.0082
805.5965	-0.0167
805.7665	0.0021
805.9364	-0.0058
806.1064	0.0327
806.2763	0.003
806.4462	0.0176
806.6161	0.0076
806.786	0.0184
806.9559	0.008
807.1257	0.0032
807.2955	0.0029
807.4653	-0.0102
807.6351	0.0064
807.8048	-0.0003
807.9746	-0.0012
808.1443	0.0144
808.314	0.007
808.4837	0.0107
808.6533	0.0138
808.8229	0.0358
808.9926	0.0115
809.1622	0.0231
809.3317	-0.0132
809.5013	-0.0005
809.6708	0.0361
809.8403	0.002
810.0098	-0.0078
810.1793	0.0048
810.3488	0.0048
810.5182	-0.0134
810.6876	0.0066
810.857	-0.0116
811.0264	0.0394
811.1958	0.0218
811.3651	0.0058
811.5344	0.0197
811.7037	-0.0117
811.873	0.0038
812.0422	0.0034
812.2115	-0.0062
812.3807	0.0046
812.5499	0.0128
812.7191	0.0265
812.8882	0.0233
813.0574	0.01
813.2265	0.0024
813.3956	-0.0008
813.5646	0.0288
813.7337	-0.0018
813.9027	0.0239
814.0718	0.0315
814.2407	0.0164
814.4097	-0.0006
814.5787	-0.0211
814.7476	-0.0034
814.9165	0.0141
815.0854	0.0032
815.2543	-0.0094
815.4232	0.0094
815.592	0.0131
815.7608	0.0141
815.9296	0.0383
816.0984	0.0182
816.2671	0.0026
816.4359	-0.0096
816.6046	0.0341
816.7733	-0.0061
816.942	0.0127
817.1106	0.0222
817.2793	0.0372
817.4479	0.022
817.6165	0.0233
817.785	0.0154
817.9536	-0.0023
818.1221	0.012
818.2906	0.0016
818.4591	-0.0107
818.6276	-0.0163
818.7961	0.0013
818.9645	0.033
819.1329	0.0108
819.3013	0.0127
819.4697	0.0327
819.638	0.0114
819.8064	0.0134
819.9747	0.0217
820.143	-0.005
820.3113	-0.0004
820.4795	0.0028
820.6477	0.0325
820.816	0.0259
820.9842	0.0003
821.1523	0.0076
821.3205	-0.013
821.4886	0.0143
821.6567	0.0101
821.8248	0.0323
821.9929	0.027
822.1609	0.0079
822.329	0.03
822.497	0.0474
822.665	-0.0047
822.833	-0.0107
823.0009	0.0053
823.1688	-0.0015
823.3367	0.0285
823.5046	0.0256
823.6725	0.0404
823.8404	0.0168
824.0082	0.032
824.176	0.0344
824.3438	0.0237
824.5116	0.0093
824.6793	0.0193
824.847	-0.0046
825.0147	0.013
825.1824	0.012
825.3501	0.0423
825.5177	0.0071
825.6854	0.0008
825.853	0.0179
826.0206	0.0103
826.1881	0.0354
826.3557	-0.0302
826.5232	0.0418
826.6907	0.0086
826.8582	0.0105
827.0257	-0.0177
827.1931	0.0231
827.3605	-0.0018
827.528	-0.0222
827.6953	-0.0208
827.8627	0.0075
828.03	0.0367
828.1974	0.0009
828.3647	-0.0087
828.532	-0.0117
828.6992	-0.0045
828.8665	0.0126
829.0337	0.0123
829.2009	0.0457
829.3681	0.0241
829.5352	0.0346
829.7024	-0.0185
829.8695	-0.0187
830.0366	0.0528
830.2037	0.0256
830.3707	0.0074
830.5378	-0.0137
830.7048	0.0132
830.8718	0.0223
831.0388	-0.0136
831.2057	0.0157
831.3727	0.0052
831.5396	-0.0151
831.7065	-0.0411
831.8734	0.0032
832.0402	0.0108
832.2071	-0.0045
832.3739	-0.0084
832.5407	-0.0024
832.7075	-0.0249
832.8742	-0.0031
833.041	-0.029
833.2077	0.0199
833.3744	0.0248
833.541	-0.0137
833.7077	-0.019
833.8743	-0.0059
834.0409	0.0199
834.2075	0.0167
834.3741	0.024
834.5407	-0.0039
834.7072	0.0096
834.8737	0.0148
835.0402	-0.0152
835.2067	0.0942
835.3731	0.0466
835.5395	0.0032
835.706	0.0335
835.8723	0.0072
836.0387	0.0314
836.2051	0.0339
836.3714	-0.0055
836.5377	0.0433
836.704	-0.0001
836.8703	0.0156
837.0365	0.0186
837.2027	-0.0425
837.3689	0.0554
837.5351	0.0098
837.7013	0.0033
837.8674	-0.0289
838.0335	-0.0561
838.1997	-0.0089
838.3657	-0.0105
838.5318	-0.0066
838.6978	0.0328
838.8639	0.0014
839.0299	-0.0018
839.1958	-0.0192
839.3618	0.0219
839.5277	0.0016
839.6937	0.0263
839.8596	-0.0281
840.0254	0.0008
840.1913	0.0562
840.3571	-0.0018
840.523	-0.0445
840.6888	-0.0446
840.8545	-0.037
841.0203	0.0043
841.186	-0.0009
841.3517	0.0334
841.5174	-0.023
841.6831	0.0414
841.8488	-0.0019
842.0144	0.0513
842.18	0.0162
842.3456	0.0094
842.5112	-0.0209
842.6767	-0.0501
842.8422	-0.0189
843.0077	0.0082
843.1732	-0.0194
843.3387	-0.0318
843.5042	-0.0465
843.6696	-0.0096
843.835	0.0086
844.0004	0.046
844.1657	0.0194
844.3311	-0.0771
844.4964	-0.1055
844.6617	-0.0186
844.827	-0.0093
844.9923	0.0418
845.1575	0.0543
845.3227	-0.0092
845.4879	0.0033
845.6531	-0.0223
845.8183	-0.0849
845.9834	-0.0087
846.1485	-0.0076
846.3136	-0.0307
846.4787	-0.0782
846.6438	0.0071
846.8088	-0.0215
846.9738	-0.0647
847.1388	-0.0099
847.3038	-0.0237
847.4687	-0.0848
847.6337	-0.0397
847.7986	0.0657
847.9635	-0.0475
848.1284	0.0629
848.2932	0.0793
848.458	-0.0168
848.6228	-0.036
848.7876	0.0396
848.9524	-0.0656
849.1172	-0.0725
849.2819	-0.0285
849.4466	-0.0002
849.6113	-0.0474
849.7759	0.0018
849.9406	-0.0379
850.1052	0.0529
850.2698	-0.0602
850.4344	0.0453
850.599	-0.0752
850.7635	0.1043
850.928	-0.0676
851.0925	-0.0947
851.257	0.0179
851.4215	0.0493
851.5859	-0.0278
851.7503	0.006
851.9147	0.1291
852.0791	0.007
852.2434	-0.0132
852.4078	0.0621
852.5721	0.0299
852.7364	-0.0447
852.9007	-0.1203
853.0649	0.0497
853.2291	-0.0541
853.3934	-0.0742
853.5575	-0.0199
853.7217	-0.1138
853.8859	-0.2201
854.05	-0.1316
854.2141	0.0551
854.3782	-0.1538
854.5423	-0.0674
854.7063	0.0518
854.8703	0.0313
855.0343	-0.0777
855.1983	-0.0752
855.3623	0.0858
855.5262	0.0911
855.6901	-0.1057
855.854	0.0764
856.0179	-0.026
856.1818	0.2329
856.3456	-0.0776
856.5094	-0.1362
856.6732	-0.1058
856.837	0.0108
857.0008	0.0633
857.1645	-0.1048
857.3282	0.0397
857.4919	0.0996
857.6556	-0.0203
857.8192	0.0199
857.9828	0.0737
858.1465	0.1637
858.31	-0.2569
858.4736	-0.0052
858.6372	-0.2125
858.8007	-0.107
858.9642	-0.0639
859.1277	-0.012
859.2911	0.2161
859.4546	0.1169
859.618	-0.3395
859.7814	-0.02
859.9448	0.1929
860.1081	0.38
860.2715	0.2229
860.4348	0.1143
860.5981	0.0043
860.7614	0.1786
860.9246	-0.1153
861.0879	-0.2569
861.2511	0.1153
861.4143	-0.2259
861.5774	0.0481
861.7406	-0.2559
861.9037	0.1733
862.0668	-0.0739
862.2299	-0.0418
862.393	-0.1013
862.556	0.1751
862.7191	-0.3656
862.8821	-0.1945
863.0451	0.1259
863.208	0.3342
863.371	0.1227
863.5339	-0.3062
863.6968	-0.0971
863.8597	-0.0739
864.0225	0.122
864.1854	-0.1879
864.3482	0.5476
864.511	0.2783
864.6737	0.0553
864.8365	0.1493
864.9992	-0.3125
865.1619	-0.6418
865.3246	0.0134
865.4873	0.0925
865.65	-0.2338
865.8126	-0.189
865.9752	-0.0368
866.1378	-0.1918
866.3004	-0.0012
866.4629	0.0115
866.6254	-0.3005
866.7879	0.1077
866.9504	-0.0266
867.1129	-0
867.2753	-0.021
867.4377	0.1523
867.6001	0.4679
867.7625	0.3913
867.9249	-0.4727
868.0872	-0.1075
868.2495	0.0306
868.4118	-0.0849
868.5741	-0.4975
868.7363	-0.2362
868.8986	-0.3767
869.0608	-0.047
869.223	0.2944
869.3851	-0
869.5473	-0
869.7094	0.0363
869.8715	-0
870.0336	-0.1217
870.1957	-0.4589
870.3577	-0
870.5197	-0.2404
870.6817	0.9735
870.8437	-0.2974
871.0057	-0
871.1676	-0
871.3295	0.7474
871.4914	-0
871.6533	-0.0386
871.8151	-0.0282
871.977	-0
872.1388	-0
872.3006	-0
872.4623	-0
872.6241	0.1743
872.7858	-0.0637
872.9475	-0.0731
873.1092	-0.3828
873.2709	-0.1685
873.4325	-0.2684
873.5941	-0.5779
873.7557	-0
873.9173	-0
874.0789	-0.2133
874.2404	-0.2985
874.4019	0.2956
874.5634	0.0251
874.7249	-0.0445
874.8863	0.1268
875.0478	0.8728
875.2092	-0
875.3706	0.179
875.5319	-0.8215
875.6933	0.0211
875.8546	0.4867
876.0159	-0
876.1772	-0.1811
876.3385	-0
876.4997	0.2064
876.6609	-0.5998
876.8221	-0.2144
876.9833	-0
877.1445	-0
877.3056	0.1462
877.4667	-0.1317
877.6278	-0.264
877.7889	-0.0485
877.9499	-0.8647
878.111	-0
878.272	-0
878.433	-0
878.5939	-0
878.7549	-0.0355
878.9158	-0
879.0767	-0
879.2376	-0
879.3984	-0
879.5593	-0
879.7201	-0
879.8809	-0.4877
880.0417	-0.5614
880.2024	0.0513
880.3632	-0
880.5239	0.3052
880.6846	0.6733
880.8452	-2.4878
881.0059	-0.5185
881.1665	0.2587
881.3271	-0
881.4877	-0.044
881.6483	-0.3159
881.8088	-0.1254
881.9693	-0
882.1298	-0
882.2903	-0
