Data from MonoPyChalIsomerACN10uM440nmA_Absorbance_15-27-13-494.txt Node
Date: Fri Jul 05 15:27:13 BST 2024
User: LASERRRRR
Spectrometer: FLMT03099
Trigger mode: 0
Integration Time (sec): 1.000000E-1
Scans to average: 1
Electric dark correction enabled: true
Nonlinearity correction enabled: false
Boxcar width: 0
XAxis mode: Wavelengths
Number of Pixels in Spectrum: 3648
>>>>>Begin Spectral Data<<<<<
179.3399	0.1112
179.5586	0.1112
179.7771	0.1112
179.9957	0.4333
180.2143	-0
180.4329	0.0584
180.6514	-0
180.8699	-0
181.0885	0.2443
181.307	-0.026
181.5255	-1.0179
181.744	-0.9212
181.9625	-0
182.181	-0
182.3994	-0.0242
182.6179	-0
182.8363	0.2283
183.0547	-0.4436
183.2732	-0.0341
183.4916	0.1286
183.71	-0.0109
183.9284	0.1199
184.1467	-0.2199
184.3651	-0.1157
184.5835	-0.1208
184.8018	0.0305
185.0201	0.1943
185.2385	-0.1379
185.4568	0.1195
185.6751	0.1436
185.8934	0.188
186.1117	0.0044
186.3299	0.1077
186.5482	-0.0168
186.7664	-0.2163
186.9847	0.044
187.2029	0.1513
187.4211	0.0766
187.6393	0.1154
187.8575	-0.0388
188.0757	0.1313
188.2939	0.0397
188.512	-0.1114
188.7302	0.0507
188.9483	-0.1707
189.1665	0.0959
189.3846	-0.3472
189.6027	0.1419
189.8208	0.1427
190.0389	0.0307
190.257	0.1736
190.475	0.2519
190.6931	0.3353
190.9111	0.2321
191.1292	0.1128
191.3472	0.3093
191.5652	0.3032
191.7832	0.1149
192.0012	0.5133
192.2192	0.3525
192.4371	0.5058
192.6551	0.2619
192.873	0.6572
193.091	0.3048
193.3089	0.4445
193.5268	0.4274
193.7447	0.628
193.9626	0.3428
194.1805	0.4674
194.3984	0.5623
194.6162	0.5508
194.8341	0.53
195.0519	0.5578
195.2697	0.6396
195.4875	0.5987
195.7054	0.5599
195.9231	0.4783
196.1409	0.5605
196.3587	0.7289
196.5765	0.4587
196.7942	0.5529
197.012	0.5799
197.2297	0.5547
197.4474	0.793
197.6651	0.5647
197.8828	0.6653
198.1005	0.741
198.3182	0.7119
198.5358	0.6362
198.7535	0.5029
198.9711	0.4625
199.1888	0.6092
199.4064	0.7682
199.624	0.5701
199.8416	0.5692
200.0592	0.5504
200.2767	0.6943
200.4943	0.6087
200.7119	0.667
200.9294	0.6406
201.1469	0.5134
201.3645	0.5763
201.582	0.4868
201.7995	0.6183
202.017	0.5502
202.2344	0.5648
202.4519	0.6857
202.6694	0.5226
202.8868	0.549
203.1042	0.6469
203.3217	0.689
203.5391	0.6378
203.7565	0.5801
203.9739	0.6913
204.1913	0.5932
204.4086	0.6412
204.626	0.6885
204.8433	0.5702
205.0607	0.6486
205.278	0.639
205.4953	0.6278
205.7126	0.7446
205.9299	0.7815
206.1472	0.7642
206.3644	0.5805
206.5817	0.6906
206.7989	0.7304
207.0162	0.6639
207.2334	0.6653
207.4506	0.5905
207.6678	0.5895
207.885	0.7222
208.1022	0.6124
208.3194	0.6272
208.5365	0.6086
208.7537	0.6508
208.9708	0.5882
209.1879	0.6205
209.405	0.7469
209.6222	0.6902
209.8392	0.5704
210.0563	0.5647
210.2734	0.6296
210.4905	0.6223
210.7075	0.6878
210.9245	0.6334
211.1416	0.7142
211.3586	0.6392
211.5756	0.6055
211.7926	0.6387
212.0096	0.5303
212.2265	0.5858
212.4435	0.603
212.6604	0.5939
212.8774	0.6067
213.0943	0.5713
213.3112	0.5648
213.5281	0.5455
213.745	0.4984
213.9619	0.5096
214.1788	0.518
214.3956	0.4571
214.6125	0.4405
214.8293	0.445
215.0461	0.4926
215.2629	0.4579
215.4798	0.4692
215.6965	0.4106
215.9133	0.4463
216.1301	0.3998
216.3469	0.4239
216.5636	0.4019
216.7803	0.3661
216.9971	0.4006
217.2138	0.3743
217.4305	0.329
217.6472	0.3238
217.8639	0.4001
218.0805	0.3446
218.2972	0.3365
218.5138	0.3098
218.7305	0.333
218.9471	0.2754
219.1637	0.2924
219.3803	0.2826
219.5969	0.2827
219.8135	0.2573
220.0301	0.2713
220.2466	0.2807
220.4632	0.2579
220.6797	0.2385
220.8962	0.2317
221.1127	0.2242
221.3292	0.2513
221.5457	0.2261
221.7622	0.2159
221.9787	0.2307
222.1951	0.2313
222.4116	0.2677
222.628	0.2388
222.8444	0.2646
223.0608	0.2572
223.2772	0.2606
223.4936	0.2434
223.71	0.2423
223.9264	0.2797
224.1427	0.2485
224.3591	0.2454
224.5754	0.2624
224.7917	0.2554
225.008	0.25
225.2243	0.2522
225.4406	0.2962
225.6569	0.2496
225.8732	0.2484
226.0894	0.249
226.3057	0.2537
226.5219	0.282
226.7381	0.2712
226.9543	0.3067
227.1705	0.2945
227.3867	0.2889
227.6029	0.2953
227.8191	0.2951
228.0352	0.2799
228.2513	0.2977
228.4675	0.3001
228.6836	0.288
228.8997	0.2747
229.1158	0.302
229.3319	0.3131
229.548	0.3121
229.764	0.331
229.9801	0.322
230.1961	0.323
230.4121	0.3286
230.6282	0.3402
230.8442	0.3141
231.0602	0.3343
231.2761	0.3467
231.4921	0.3338
231.7081	0.3476
231.924	0.3255
232.14	0.3476
232.3559	0.329
232.5718	0.3619
232.7877	0.3475
233.0036	0.3292
233.2195	0.3465
233.4353	0.3327
233.6512	0.3388
233.867	0.3459
234.0829	0.3791
234.2987	0.3562
234.5145	0.3874
234.7303	0.3678
234.9461	0.3754
235.1619	0.3607
235.3776	0.3767
235.5934	0.3586
235.8091	0.3795
236.0249	0.3644
236.2406	0.3895
236.4563	0.3944
236.672	0.3669
236.8877	0.387
237.1034	0.402
237.319	0.3736
237.5347	0.3865
237.7503	0.4055
237.966	0.4096
238.1816	0.3975
238.3972	0.39
238.6128	0.3927
238.8284	0.3965
239.0439	0.4178
239.2595	0.4043
239.475	0.3986
239.6906	0.4036
239.9061	0.3967
240.1216	0.3948
240.3371	0.4085
240.5526	0.3809
240.7681	0.4179
240.9836	0.3756
241.199	0.4209
241.4145	0.3744
241.6299	0.3559
241.8453	0.3713
242.0607	0.3848
242.2761	0.3649
242.4915	0.3573
242.7069	0.3594
242.9223	0.3628
243.1376	0.3371
243.353	0.341
243.5683	0.3363
243.7836	0.3153
243.9989	0.3301
244.2142	0.3246
244.4295	0.3271
244.6448	0.3122
244.86	0.2881
245.0753	0.2786
245.2905	0.2734
245.5057	0.2663
245.721	0.2677
245.9362	0.2642
246.1514	0.2683
246.3665	0.2464
246.5817	0.2588
246.7969	0.2449
247.012	0.2497
247.2271	0.2403
247.4423	0.2409
247.6574	0.2418
247.8725	0.2304
248.0876	0.2266
248.3026	0.2272
248.5177	0.2086
248.7328	0.2162
248.9478	0.2059
249.1628	0.1941
249.3779	0.207
249.5929	0.1971
249.8079	0.2003
250.0228	0.2096
250.2378	0.1955
250.4528	0.204
250.6677	0.1885
250.8827	0.1776
251.0976	0.1923
251.3125	0.189
251.5274	0.1697
251.7423	0.178
251.9572	0.1853
252.172	0.172
252.3869	0.1846
252.6017	0.1752
252.8166	0.1723
253.0314	0.1588
253.2462	0.1662
253.461	0.1838
253.6758	0.1665
253.8906	0.1756
254.1053	0.1623
254.3201	0.1699
254.5348	0.1801
254.7496	0.1716
254.9643	0.1624
255.179	0.1647
255.3937	0.1634
255.6083	0.1754
255.823	0.1722
256.0377	0.1634
256.2523	0.1696
256.467	0.1438
256.6816	0.1718
256.8962	0.1653
257.1108	0.1646
257.3254	0.1706
257.54	0.1435
257.7545	0.1725
257.9691	0.1669
258.1836	0.1605
258.3981	0.182
258.6127	0.1757
258.8272	0.1631
259.0417	0.1607
259.2561	0.1634
259.4706	0.1564
259.6851	0.159
259.8995	0.1523
260.114	0.1685
260.3284	0.1642
260.5428	0.1562
260.7572	0.1603
260.9716	0.1797
261.186	0.1614
261.4003	0.1711
261.6147	0.1659
261.829	0.1718
262.0433	0.1603
262.2577	0.1618
262.472	0.1508
262.6863	0.1585
262.9005	0.1698
263.1148	0.1614
263.3291	0.1425
263.5433	0.1513
263.7576	0.1691
263.9718	0.1551
264.186	0.1562
264.4002	0.1574
264.6144	0.1592
264.8286	0.1723
265.0427	0.1607
265.2569	0.1515
265.471	0.1528
265.6851	0.1585
265.8993	0.1518
266.1134	0.1537
266.3275	0.1471
266.5415	0.1495
266.7556	0.1715
266.9697	0.1504
267.1837	0.1601
267.3978	0.1459
267.6118	0.1672
267.8258	0.1735
268.0398	0.1602
268.2538	0.1674
268.4677	0.1596
268.6817	0.1533
268.8957	0.1579
269.1096	0.1503
269.3235	0.153
269.5374	0.154
269.7514	0.1563
269.9652	0.154
270.1791	0.1478
270.393	0.1532
270.6068	0.142
270.8207	0.1469
271.0345	0.1505
271.2483	0.1534
271.4622	0.1355
271.676	0.1403
271.8897	0.1381
272.1035	0.1422
272.3173	0.1404
272.531	0.1409
272.7448	0.1403
272.9585	0.1426
273.1722	0.14
273.3859	0.1357
273.5996	0.1247
273.8133	0.1427
274.0269	0.1329
274.2406	0.1311
274.4542	0.1391
274.6679	0.1339
274.8815	0.1465
275.0951	0.1513
275.3087	0.1508
275.5223	0.1422
275.7358	0.1299
275.9494	0.1376
276.1629	0.1366
276.3765	0.1349
276.59	0.1487
276.8035	0.152
277.017	0.1477
277.2305	0.1397
277.444	0.1383
277.6574	0.1343
277.8709	0.1427
278.0843	0.135
278.2978	0.142
278.5112	0.1377
278.7246	0.1329
278.938	0.1393
279.1513	0.1486
279.3647	0.1466
279.5781	0.1418
279.7914	0.1472
280.0047	0.1518
280.2181	0.1549
280.4314	0.145
280.6447	0.1487
280.8579	0.1426
281.0712	0.1449
281.2845	0.149
281.4977	0.1508
281.711	0.1497
281.9242	0.1403
282.1374	0.154
282.3506	0.147
282.5638	0.1503
282.7769	0.1602
282.9901	0.1518
283.2033	0.1553
283.4164	0.1493
283.6295	0.1428
283.8426	0.15
284.0557	0.1509
284.2688	0.156
284.4819	0.1583
284.695	0.1442
284.908	0.1504
285.1211	0.1494
285.3341	0.1611
285.5471	0.1571
285.7601	0.1578
285.9731	0.1561
286.1861	0.1487
286.3991	0.1582
286.612	0.1592
286.825	0.1487
287.0379	0.1623
287.2508	0.1514
287.4637	0.1703
287.6766	0.1652
287.8895	0.1681
288.1024	0.1883
288.3152	0.1588
288.5281	0.1674
288.7409	0.153
288.9538	0.1502
289.1666	0.1668
289.3794	0.1555
289.5922	0.1523
289.8049	0.1647
290.0177	0.1644
290.2304	0.1535
290.4432	0.1622
290.6559	0.1653
290.8686	0.1641
291.0813	0.1529
291.294	0.1649
291.5067	0.1833
291.7194	0.1616
291.932	0.1734
292.1447	0.1658
292.3573	0.1507
292.5699	0.1638
292.7825	0.1834
292.9951	0.1616
293.2077	0.1624
293.4203	0.1568
293.6328	0.1526
293.8454	0.169
294.0579	0.1629
294.2704	0.1794
294.4829	0.1497
294.6954	0.1669
294.9079	0.1584
295.1204	0.1582
295.3328	0.1632
295.5453	0.1593
295.7577	0.1572
295.9701	0.1478
296.1825	0.1578
296.3949	0.1654
296.6073	0.1502
296.8197	0.1615
297.0321	0.1712
297.2444	0.1544
297.4567	0.1662
297.6691	0.1574
297.8814	0.1523
298.0937	0.1669
298.306	0.1586
298.5182	0.1676
298.7305	0.1625
298.9428	0.1565
299.155	0.1665
299.3672	0.1594
299.5794	0.1642
299.7916	0.1566
300.0038	0.1653
300.216	0.1638
300.4282	0.1671
300.6403	0.1518
300.8525	0.1688
301.0646	0.1506
301.2767	0.1644
301.4888	0.1602
301.7009	0.1583
301.913	0.1543
302.125	0.1624
302.3371	0.1535
302.5491	0.1575
302.7612	0.1595
302.9732	0.1601
303.1852	0.1561
303.3972	0.1479
303.6092	0.1534
303.8211	0.1503
304.0331	0.15
304.245	0.1449
304.457	0.154
304.6689	0.1585
304.8808	0.1666
305.0927	0.147
305.3046	0.1568
305.5164	0.1564
305.7283	0.1383
305.9401	0.1489
306.152	0.1407
306.3638	0.1566
306.5756	0.1463
306.7874	0.1414
306.9992	0.1366
307.2109	0.1381
307.4227	0.1253
307.6344	0.1396
307.8462	0.1299
308.0579	0.1228
308.2696	0.1222
308.4813	0.1325
308.693	0.1269
308.9046	0.1307
309.1163	0.1319
309.328	0.1283
309.5396	0.1248
309.7512	0.1193
309.9628	0.1202
310.1744	0.112
310.386	0.1193
310.5976	0.1144
310.8091	0.1167
311.0207	0.1137
311.2322	0.1168
311.4437	0.103
311.6552	0.1093
311.8667	0.1168
312.0782	0.0944
312.2897	0.0986
312.5012	0.105
312.7126	0.1011
312.924	0.0981
313.1355	0.1082
313.3469	0.1086
313.5583	0.1033
313.7696	0.1071
313.981	0.106
314.1924	0.0939
314.4037	0.1026
314.6151	0.1112
314.8264	0.0964
315.0377	0.1012
315.249	0.0919
315.4603	0.1054
315.6716	0.0985
315.8828	0.0872
316.0941	0.0996
316.3053	0.0902
316.5165	0.097
316.7277	0.0987
316.9389	0.0974
317.1501	0.0991
317.3613	0.0978
317.5724	0.0754
317.7836	0.0969
317.9947	0.091
318.2058	0.0919
318.417	0.0841
318.6281	0.0727
318.8391	0.0911
319.0502	0.0848
319.2613	0.093
319.4723	0.0944
319.6834	0.0967
319.8944	0.0796
320.1054	0.0942
320.3164	0.108
320.5274	0.0922
320.7383	0.0936
320.9493	0.0901
321.1602	0.0993
321.3712	0.0772
321.5821	0.1033
321.793	0.0958
322.0039	0.1039
322.2148	0.0922
322.4257	0.1027
322.6365	0.1016
322.8474	0.1025
323.0582	0.094
323.269	0.0892
323.4798	0.1014
323.6906	0.098
323.9014	0.0967
324.1122	0.0901
324.3229	0.092
324.5337	0.0984
324.7444	0.0919
324.9551	0.1169
325.1658	0.0984
325.3765	0.1034
325.5872	0.1054
325.7979	0.0892
326.0085	0.1009
326.2192	0.1069
326.4298	0.0927
326.6404	0.1054
326.851	0.0879
327.0616	0.0871
327.2722	0.098
327.4828	0.1018
327.6933	0.0919
327.9039	0.1133
328.1144	0.0996
328.3249	0.1041
328.5354	0.1038
328.7459	0.1211
328.9564	0.0896
329.1669	0.0999
329.3773	0.1049
329.5878	0.0971
329.7982	0.1046
330.0086	0.1037
330.219	0.0999
330.4294	0.0936
330.6398	0.0907
330.8502	0.0956
331.0605	0.1096
331.2708	0.105
331.4812	0.118
331.6915	0.0999
331.9018	0.0957
332.1121	0.1014
332.3224	0.1028
332.5326	0.112
332.7429	0.1031
332.9531	0.1104
333.1633	0.1045
333.3735	0.1033
333.5837	0.0931
333.7939	0.0967
334.0041	0.1137
334.2143	0.1063
334.4244	0.1051
334.6346	0.0821
334.8447	0.1138
335.0548	0.0923
335.2649	0.0932
335.475	0.1066
335.685	0.0905
335.8951	0.1181
336.1051	0.1003
336.3152	0.1012
336.5252	0.1007
336.7352	0.1068
336.9452	0.1067
337.1552	0.1122
337.3652	0.0993
337.5751	0.1056
337.7851	0.1089
337.995	0.0981
338.2049	0.1067
338.4148	0.1165
338.6247	0.1066
338.8346	0.1051
339.0445	0.1002
339.2543	0.0952
339.4642	0.1086
339.674	0.1096
339.8838	0.1129
340.0936	0.1071
340.3034	0.1215
340.5132	0.1173
340.7229	0.1096
340.9327	0.1068
341.1424	0.1082
341.3522	0.1227
341.5619	0.1133
341.7716	0.1209
341.9813	0.105
342.1909	0.1072
342.4006	0.1195
342.6102	0.133
342.8199	0.1211
343.0295	0.1161
343.2391	0.1023
343.4487	0.1162
343.6583	0.1045
343.8679	0.1198
344.0774	0.1216
344.287	0.1227
344.4965	0.1079
344.706	0.1274
344.9155	0.1246
345.125	0.1238
345.3345	0.1261
345.544	0.1143
345.7534	0.124
345.9629	0.1162
346.1723	0.1237
346.3817	0.118
346.5911	0.1252
346.8005	0.1214
347.0099	0.1277
347.2193	0.1249
347.4286	0.121
347.638	0.142
347.8473	0.1312
348.0566	0.1375
348.2659	0.1299
348.4752	0.1334
348.6845	0.133
348.8937	0.1367
349.103	0.1404
349.3122	0.1315
349.5214	0.1314
349.7306	0.133
349.9398	0.1307
350.149	0.1435
350.3582	0.1302
350.5674	0.1316
350.7765	0.1417
350.9856	0.1253
351.1948	0.1413
351.4039	0.1117
351.613	0.1257
351.822	0.135
352.0311	0.1476
352.2402	0.1469
352.4492	0.1442
352.6582	0.1489
352.8672	0.1539
353.0762	0.1448
353.2852	0.1451
353.4942	0.1501
353.7032	0.1487
353.9121	0.1526
354.1211	0.153
354.33	0.1494
354.5389	0.1546
354.7478	0.1478
354.9567	0.1381
355.1655	0.1504
355.3744	0.1699
355.5833	0.16
355.7921	0.176
356.0009	0.1551
356.2097	0.1639
356.4185	0.1592
356.6273	0.1644
356.8361	0.1479
357.0448	0.151
357.2536	0.1565
357.4623	0.1532
357.671	0.1625
357.8797	0.1564
358.0884	0.1597
358.2971	0.1581
358.5057	0.1554
358.7144	0.1658
358.923	0.1691
359.1316	0.1702
359.3402	0.1612
359.5488	0.1758
359.7574	0.1608
359.966	0.1708
360.1746	0.1647
360.3831	0.1664
360.5916	0.1752
360.8002	0.1645
361.0087	0.1723
361.2172	0.1706
361.4256	0.1703
361.6341	0.1788
361.8426	0.1756
362.051	0.1716
362.2594	0.1811
362.4678	0.1726
362.6762	0.2042
362.8846	0.1864
363.093	0.1678
363.3014	0.1831
363.5097	0.1571
363.718	0.1868
363.9264	0.1948
364.1347	0.17
364.343	0.1884
364.5513	0.1929
364.7595	0.2002
364.9678	0.1976
365.176	0.2121
365.3842	0.1925
365.5925	0.2099
365.8007	0.2072
366.0089	0.2009
366.217	0.1866
366.4252	0.1934
366.6333	0.2112
366.8415	0.2021
367.0496	0.1931
367.2577	0.2234
367.4658	0.2181
367.6739	0.2103
367.882	0.2198
368.09	0.2106
368.2981	0.2151
368.5061	0.1896
368.7141	0.2151
368.9221	0.2275
369.1301	0.2251
369.3381	0.2298
369.5461	0.2167
369.754	0.2138
369.962	0.2108
370.1699	0.2185
370.3778	0.2127
370.5857	0.1958
370.7936	0.2071
371.0015	0.2003
371.2093	0.2094
371.4172	0.2104
371.625	0.1912
371.8328	0.2117
372.0406	0.2051
372.2484	0.2171
372.4562	0.2322
372.664	0.2198
372.8717	0.2291
373.0795	0.2136
373.2872	0.2246
373.4949	0.2238
373.7026	0.2318
373.9103	0.2208
374.118	0.2292
374.3256	0.2315
374.5333	0.2421
374.7409	0.2195
374.9485	0.2409
375.1561	0.2247
375.3637	0.2438
375.5713	0.2203
375.7789	0.2317
375.9864	0.2346
376.194	0.2347
376.4015	0.2334
376.609	0.2655
376.8165	0.2419
377.024	0.2231
377.2315	0.2246
377.4389	0.2563
377.6464	0.2596
377.8538	0.2387
378.0612	0.2342
378.2686	0.2474
378.476	0.2703
378.6834	0.2464
378.8908	0.2512
379.0981	0.2515
379.3055	0.2398
379.5128	0.239
379.7201	0.2425
379.9274	0.2375
380.1347	0.2474
380.342	0.2595
380.5492	0.2525
380.7565	0.2519
380.9637	0.2406
381.1709	0.2369
381.3781	0.2577
381.5853	0.2506
381.7925	0.2524
381.9997	0.2616
382.2068	0.2645
382.4139	0.2517
382.6211	0.2384
382.8282	0.2601
383.0353	0.2454
383.2424	0.2504
383.4494	0.2633
383.6565	0.2345
383.8635	0.2504
384.0706	0.2601
384.2776	0.2603
384.4846	0.2496
384.6916	0.2596
384.8986	0.238
385.1055	0.2453
385.3125	0.2594
385.5194	0.2564
385.7263	0.2574
385.9333	0.2548
386.1402	0.2533
386.347	0.2627
386.5539	0.2462
386.7608	0.2544
386.9676	0.2359
387.1744	0.2463
387.3813	0.2263
387.5881	0.2528
387.7948	0.2398
388.0016	0.2448
388.2084	0.2454
388.4151	0.2421
388.6219	0.2564
388.8286	0.2659
389.0353	0.2612
389.242	0.2587
389.4487	0.246
389.6553	0.234
389.862	0.2288
390.0686	0.2495
390.2753	0.2636
390.4819	0.2534
390.6885	0.23
390.8951	0.2481
391.1016	0.2357
391.3082	0.2437
391.5147	0.2362
391.7213	0.2345
391.9278	0.2301
392.1343	0.2213
392.3408	0.2409
392.5473	0.2273
392.7537	0.234
392.9602	0.2368
393.1666	0.2216
393.373	0.2509
393.5794	0.2398
393.7858	0.2403
393.9922	0.2202
394.1986	0.2291
394.4049	0.23
394.6113	0.2197
394.8176	0.2015
395.0239	0.2138
395.2302	0.2193
395.4365	0.2334
395.6428	0.2191
395.8491	0.2023
396.0553	0.2017
396.2615	0.2015
396.4678	0.217
396.674	0.2037
396.8802	0.2038
397.0863	0.2413
397.2925	0.2113
397.4987	0.2118
397.7048	0.2035
397.9109	0.1999
398.117	0.2119
398.3231	0.2126
398.5292	0.2127
398.7353	0.2384
398.9413	0.2155
399.1474	0.2091
399.3534	0.2071
399.5594	0.2031
399.7654	0.2273
399.9714	0.2116
400.1774	0.2131
400.3833	0.2026
400.5893	0.2
400.7952	0.2102
401.0011	0.2065
401.207	0.228
401.4129	0.2156
401.6188	0.2161
401.8247	0.2121
402.0305	0.2064
402.2364	0.2017
402.4422	0.2056
402.648	0.2161
402.8538	0.2339
403.0596	0.1945
403.2654	0.2306
403.4711	0.2138
403.6768	0.2193
403.8826	0.2148
404.0883	0.2196
404.294	0.2029
404.4997	0.2174
404.7054	0.2092
404.911	0.2024
405.1167	0.1998
405.3223	0.2236
405.5279	0.2088
405.7335	0.221
405.9391	0.2321
406.1447	0.2077
406.3502	0.2363
406.5558	0.2009
406.7613	0.2119
406.9668	0.2065
407.1724	0.2073
407.3778	0.2269
407.5833	0.2083
407.7888	0.2143
407.9942	0.2241
408.1997	0.2106
408.4051	0.2116
408.6105	0.199
408.8159	0.2069
409.0213	0.214
409.2267	0.2301
409.432	0.2045
409.6374	0.2119
409.8427	0.2066
410.048	0.2116
410.2533	0.1959
410.4586	0.2173
410.6639	0.1918
410.8691	0.2009
411.0744	0.1897
411.2796	0.2021
411.4848	0.2004
411.69	0.1942
411.8952	0.2339
412.1004	0.2039
412.3056	0.2254
412.5107	0.1972
412.7158	0.2315
412.921	0.2099
413.1261	0.2126
413.3312	0.2008
413.5362	0.2054
413.7413	0.2059
413.9464	0.1949
414.1514	0.2078
414.3564	0.2033
414.5614	0.1837
414.7664	0.204
414.9714	0.1979
415.1764	0.213
415.3813	0.2174
415.5863	0.1932
415.7912	0.1966
415.9961	0.2236
416.201	0.2075
416.4059	0.2107
416.6108	0.1839
416.8156	0.1965
417.0205	0.2018
417.2253	0.181
417.4301	0.2237
417.6349	0.1939
417.8397	0.1889
418.0445	0.2039
418.2492	0.1918
418.454	0.2001
418.6587	0.2068
418.8634	0.1978
419.0681	0.1775
419.2728	0.189
419.4775	0.1968
419.6822	0.1961
419.8868	0.1592
420.0915	0.203
420.2961	0.1835
420.5007	0.1771
420.7053	0.1896
420.9099	0.1911
421.1144	0.2085
421.319	0.1822
421.5235	0.1907
421.728	0.1891
421.9325	0.1916
422.137	0.189
422.3415	0.1733
422.546	0.1838
422.7504	0.1925
422.9549	0.1835
423.1593	0.1978
423.3637	0.2045
423.5681	0.1945
423.7725	0.1783
423.9769	0.1814
424.1812	0.1594
424.3856	0.1791
424.5899	0.1789
424.7942	0.1722
424.9985	0.1905
425.2028	0.1584
425.4071	0.1971
425.6113	0.1561
425.8156	0.1795
426.0198	0.1841
426.224	0.1615
426.4282	0.157
426.6324	0.1637
426.8366	0.1901
427.0407	0.1645
427.2449	0.173
427.449	0.1709
427.6531	0.1306
427.8572	0.1472
428.0613	0.1495
428.2654	0.1739
428.4694	0.1691
428.6735	0.1611
428.8775	0.174
429.0815	0.1707
429.2855	0.144
429.4895	0.1704
429.6935	0.161
429.8975	0.1582
430.1014	0.1376
430.3053	0.1348
430.5093	0.1416
430.7132	0.1364
430.9171	0.1303
431.1209	0.1401
431.3248	0.1485
431.5286	0.1481
431.7325	0.1309
431.9363	0.1234
432.1401	0.1375
432.3439	0.1269
432.5477	0.1267
432.7514	0.1323
432.9552	0.1418
433.1589	0.1208
433.3627	0.1044
433.5664	0.1195
433.7701	0.109
433.9737	0.12
434.1774	0.105
434.3811	0.1229
434.5847	0.121
434.7883	0.1273
434.9919	0.11
435.1955	0.1163
435.3991	0.1203
435.6027	0.106
435.8062	0.0939
436.0098	0.1009
436.2133	0.0967
436.4168	0.0907
436.6203	0.1037
436.8238	0.1125
437.0272	0.0964
437.2307	0.1024
437.4341	0.1077
437.6375	0.1026
437.841	0.0808
438.0443	0.0958
438.2477	0.0901
438.4511	0.077
438.6545	0.0987
438.8578	0.1026
439.0611	0.0873
439.2644	0.0845
439.4677	0.076
439.671	0.0773
439.8743	0.0901
440.0775	0.0854
440.2808	0.0574
440.484	0.0793
440.6872	0.0514
440.8904	0.0739
441.0936	0.0831
441.2967	0.0796
441.4999	0.069
441.703	0.0515
441.9062	0.0501
442.1093	0.0709
442.3124	0.0642
442.5155	0.042
442.7185	0.0529
442.9216	0.0299
443.1246	0.077
443.3276	0.0538
443.5307	0.0465
443.7337	0.0682
443.9366	0.054
444.1396	0.049
444.3426	0.0519
444.5455	0.0489
444.7484	0.0305
444.9513	0.0588
445.1542	0.0656
445.3571	0.0431
445.56	0.0449
445.7628	0.0351
445.9657	0.0477
446.1685	0.0525
446.3713	0.0509
446.5741	0.0379
446.7769	0.031
446.9797	0.0443
447.1824	0.0368
447.3852	0.0351
447.5879	0.0522
447.7906	0.0559
447.9933	0.0362
448.196	0.0217
448.3986	0.033
448.6013	0.0258
448.8039	0.016
449.0066	0.0339
449.2092	0.0302
449.4118	0.0442
449.6143	0.0254
449.8169	0.04
450.0195	0.0303
450.222	-0.0008
450.4245	0.0203
450.627	0.0383
450.8295	0.0308
451.032	0.0237
451.2345	0.0274
451.4369	0.0308
451.6394	0.0288
451.8418	0.0171
452.0442	0.0036
452.2466	0.0292
452.449	0.0024
452.6513	0.0361
452.8537	0.0159
453.056	0.0007
453.2583	0.0223
453.4607	0.0205
453.663	-0.0031
453.8652	0.0211
454.0675	0.0185
454.2697	0.0162
454.472	0.0067
454.6742	0.0155
454.8764	0.0158
455.0786	0.011
455.2808	0.0009
455.4829	0.0119
455.6851	0.0035
455.8872	0.0298
456.0893	0.0287
456.2915	-0.0021
456.4935	0.0188
456.6956	0.0026
456.8977	0.0206
457.0997	0.0079
457.3018	0.0007
457.5038	0.0207
457.7058	0.0065
457.9078	0.0108
458.1098	0.0068
458.3117	0.0087
458.5137	0.0107
458.7156	0.0119
458.9175	-0.0021
459.1194	0.0067
459.3213	0.0122
459.5232	0.023
459.725	0.0002
459.9269	-0.0148
460.1287	0.0021
460.3305	0.0047
460.5323	-0.0092
460.7341	-0.0014
460.9359	0.0059
461.1376	0.0072
461.3394	-0.0023
461.5411	-0.0042
461.7428	-0.009
461.9445	0.0015
462.1462	0.0229
462.3479	0.0023
462.5495	0.006
462.7512	0.0021
462.9528	0.0016
463.1544	-0.0125
463.356	0.0071
463.5576	0.0125
463.7592	0.0019
463.9607	-0.0058
464.1623	0.0178
464.3638	0.0048
464.5653	-0.0105
464.7668	0.0046
464.9683	0.007
465.1697	0.0108
465.3712	-0.0042
465.5726	-0.0033
465.7741	-0.0043
465.9755	-0.0032
466.1769	0.0012
466.3782	0.0089
466.5796	-0.0164
466.7809	0.019
466.9823	-0.0101
467.1836	-0.0022
467.3849	-0.0024
467.5862	-0.007
467.7875	-0.0074
467.9887	0.0224
468.19	0.0055
468.3912	-0.0091
468.5924	0.0013
468.7936	-0.0044
468.9948	-0.004
469.196	0.0145
469.3972	-0.0195
469.5983	-0.003
469.7994	-0.0145
470.0006	-0.0006
470.2017	-0.0017
470.4027	-0.0118
470.6038	0.0085
470.8049	-0.0121
471.0059	-0.0107
471.2069	-0.009
471.408	0.0058
471.6089	-0.0087
471.8099	-0.0059
472.0109	0.0033
472.2119	-0.0171
472.4128	-0.0218
472.6137	-0.0099
472.8146	-0.0139
473.0155	-0.0029
473.2164	-0.0092
473.4173	-0.0053
473.6181	-0.0076
473.819	0.0034
474.0198	-0.0016
474.2206	0.0058
474.4214	-0.0084
474.6222	-0.0036
474.8229	-0.0059
475.0237	-0.0124
475.2244	-0.013
475.4251	-0.0034
475.6258	-0.0008
475.8265	-0.002
476.0272	0.0044
476.2278	0.0006
476.4285	0.0006
476.6291	-0.015
476.8297	-0.0159
477.0303	-0.0137
477.2309	0.0083
477.4315	-0.0246
477.632	-0.0061
477.8326	-0.012
478.0331	-0.0092
478.2336	0.0091
478.4341	0.0039
478.6346	-0.008
478.8351	-0.0057
479.0355	-0.0052
479.236	-0.0017
479.4364	0.0002
479.6368	-0.0033
479.8372	-0.0205
480.0376	-0.0123
480.2379	-0.0293
480.4383	-0.0207
480.6386	0.0035
480.8389	-0.0059
481.0392	-0.0099
481.2395	0.0021
481.4398	0.003
481.6401	-0.0008
481.8403	-0.0048
482.0405	-0.0053
482.2408	-0.0111
482.441	0.0068
482.6411	-0.0107
482.8413	-0.0027
483.0415	-0.0093
483.2416	-0.0072
483.4417	-0.0009
483.6419	-0.0141
483.8419	-0.0138
484.042	0.007
484.2421	-0.0007
484.4422	-0.007
484.6422	-0.0041
484.8422	-0.0003
485.0422	-0.0057
485.2422	0.0004
485.4422	-0.0078
485.6422	-0.0074
485.8421	-0.0057
486.042	-0.0083
486.242	-0.0015
486.4419	-0.0146
486.6417	-0.01
486.8416	-0.0003
487.0415	-0.005
487.2413	0.0013
487.4411	-0.0069
487.641	-0.0024
487.8408	0.0106
488.0405	-0.0019
488.2403	-0.0027
488.4401	-0.0019
488.6398	0.0043
488.8395	-0.0069
489.0392	0.0018
489.2389	-0.002
489.4386	-0.0118
489.6383	-0.0061
489.8379	0.0116
490.0376	-0.0024
490.2372	-0.007
490.4368	-0.0031
490.6364	-0.0033
490.836	-0.0093
491.0355	0.0028
491.2351	-0.0059
491.4346	-0.0057
491.6341	-0.0072
491.8336	-0.0007
492.0331	-0.0154
492.2326	-0.0094
492.432	0.0035
492.6315	-0.0025
492.8309	-0.0069
493.0303	-0.0004
493.2297	-0.0072
493.4291	-0.0031
493.6284	-0.0028
493.8278	-0.0011
494.0271	0.0156
494.2264	0.0003
494.4257	-0.0192
494.625	0.0024
494.8243	-0.0128
495.0236	-0.007
495.2228	-0.0158
495.422	-0.0059
495.6213	-0.0019
495.8205	0.006
496.0196	0.0129
496.2188	-0.0001
496.418	-0.0099
496.6171	-0.0086
496.8162	-0.0101
497.0153	0.0001
497.2144	-0.0023
497.4135	-0.0093
497.6126	-0.0082
497.8116	-0.0112
498.0107	0.0013
498.2097	-0.0121
498.4087	-0.0037
498.6077	0.0076
498.8067	0.0033
499.0056	-0.0029
499.2046	-0.0055
499.4035	-0.0164
499.6024	-0.0091
499.8013	0.0092
500.0002	-0.0061
500.199	0.0034
500.3979	-0.0006
500.5967	-0.0198
500.7956	0.0003
500.9944	-0.0024
501.1932	-0.0147
501.3919	-0.0165
501.5907	-0.0009
501.7895	-0.0085
501.9882	-0.009
502.1869	-0.0024
502.3856	-0.0085
502.5843	-0.0071
502.783	0.0018
502.9816	-0.002
503.1803	-0.013
503.3789	-0.0032
503.5775	0.0005
503.7761	-0.0065
503.9747	0.0024
504.1732	-0.0029
504.3718	-0.0028
504.5703	0.0071
504.7689	-0.0056
504.9674	0.0061
505.1658	-0.004
505.3643	0.0022
505.5628	-0.0028
505.7612	-0.0006
505.9597	0.0063
506.1581	-0.0013
506.3565	0.0007
506.5549	-0.0016
506.7532	-0.0199
506.9516	-0.0029
507.1499	-0.0147
507.3482	-0.0167
507.5465	-0.0068
507.7448	-0.005
507.9431	-0.0012
508.1414	-0.0036
508.3396	-0.0039
508.5379	-0.0047
508.7361	-0.0043
508.9343	-0.0099
509.1325	0.0021
509.3306	-0.0033
509.5288	-0.0003
509.7269	-0.0046
509.9251	-0.0047
510.1232	-0.012
510.3213	-0.0015
510.5193	0.0016
510.7174	-0.0158
510.9154	-0.0144
511.1135	0.0011
511.3115	-0.0066
511.5095	-0.0102
511.7075	0.0018
511.9055	-0.0054
512.1034	-0.0141
512.3014	0.0049
512.4993	0.0042
512.6972	-0.0111
512.8951	-0.0069
513.093	-0.0011
513.2908	0.0005
513.4887	-0.0012
513.6865	-0.003
513.8844	-0.007
514.0822	-0.0044
514.2799	-0.0099
514.4777	-0.0098
514.6755	-0.0059
514.8732	-0.0145
515.0709	0.0034
515.2687	-0.0087
515.4664	-0.0079
515.664	0.004
515.8617	-0.0061
516.0594	-0.0076
516.257	-0.0037
516.4546	-0.0057
516.6522	-0.0042
516.8498	-0.0018
517.0474	0.0038
517.2449	-0.0021
517.4425	-0.0098
517.64	-0.0053
517.8375	-0.0005
518.035	-0.0013
518.2325	-0.0107
518.43	-0.003
518.6274	-0.0045
518.8249	-0.0061
519.0223	0.005
519.2197	-0.0111
519.4171	-0.011
519.6145	-0.0032
519.8118	0.0075
520.0092	-0.0046
520.2065	-0.0138
520.4038	-0.0145
520.6011	-0.0004
520.7984	-0.0052
520.9956	-0.0125
521.1929	-0.0077
521.3901	0.003
521.5874	0.0004
521.7846	-0.0008
521.9818	-0.0133
522.1789	-0.0043
522.3761	-0.0023
522.5732	0.0039
522.7704	-0.0076
522.9675	0.0024
523.1646	-0.0109
523.3617	0.0092
523.5587	-0.0067
523.7558	-0.0104
523.9528	-0.012
524.1498	-0.0053
524.3468	-0.0072
524.5438	-0.0023
524.7408	0.0021
524.9378	0.0101
525.1347	-0.003
525.3316	0.0035
525.5285	-0.0074
525.7254	0.0032
525.9223	0.0005
526.1192	-0.0015
526.316	-0.0063
526.5129	0.0037
526.7097	-0.0035
526.9065	-0.0027
527.1033	-0.0076
527.3	0.0042
527.4968	-0.0102
527.6935	-0.0043
527.8903	-0.0165
528.087	-0.0067
528.2837	0.0035
528.4804	-0.0007
528.677	-0.0082
528.8737	0.0021
529.0703	-0.0008
529.2669	-0.0057
529.4635	-0.0007
529.6601	-0.0024
529.8567	-0.0005
530.0532	-0.0211
530.2498	-0.0044
530.4463	0.0022
530.6428	-0.0047
530.8393	0.0092
531.0358	-0.0045
531.2322	-0.0081
531.4287	0.0006
531.6251	-0.0104
531.8215	0.0053
532.0179	-0.0023
532.2143	0.0022
532.4107	0.0037
532.607	-0.0138
532.8034	0.0015
532.9997	-0.0016
533.196	-0.0016
533.3923	-0.0066
533.5886	0.0017
533.7848	-0.0034
533.9811	0.0019
534.1773	0.0021
534.3735	0.0039
534.5697	-0.0028
534.7659	-0.008
534.9621	0.0023
535.1582	-0.0069
535.3544	-0.0041
535.5505	-0.0048
535.7466	0.0015
535.9427	-0.0043
536.1387	0.0042
536.3348	-0.0072
536.5308	0.0022
536.7269	-0.0187
536.9229	0.0046
537.1189	0.0034
537.3148	-0.0006
537.5108	-0.011
537.7068	-0.0036
537.9027	-0.0018
538.0986	-0.0042
538.2945	-0.0013
538.4904	0.0046
538.6863	-0.0002
538.8821	-0.0027
539.078	-0.0067
539.2738	0.0014
539.4696	-0.0038
539.6654	-0.0024
539.8611	0.0104
540.0569	0.0076
540.2526	-0.0077
540.4484	0.0052
540.6441	0.0021
540.8398	0.001
541.0355	0.0028
541.2311	-0.0088
541.4268	-0.0048
541.6224	0.009
541.818	0.0025
542.0136	-0.0196
542.2092	-0.005
542.4048	-0.0001
542.6003	-0.0051
542.7959	-0.0053
542.9914	-0.0023
543.1869	0.005
543.3824	-0.003
543.5779	-0.0028
543.7734	0.0002
543.9688	-0.0035
544.1642	0.0021
544.3596	-0.0022
544.555	-0.0037
544.7504	-0.0031
544.9458	0.0011
545.1411	-0.0089
545.3365	-0.0003
545.5318	-0.0039
545.7271	-0.0008
545.9224	0.001
546.1177	-0.0023
546.3129	0.0048
546.5081	-0.0049
546.7034	0.0001
546.8986	-0.002
547.0938	-0.0064
547.289	-0.0045
547.4841	-0.0016
547.6793	0.0041
547.8744	-0.0038
548.0695	0.0024
548.2646	-0.0052
548.4597	0.0047
548.6548	-0.0008
548.8498	0.0016
549.0448	0.0083
549.2399	-0.0014
549.4349	0.0031
549.6298	0.0044
549.8248	0.0013
550.0198	-0.0027
550.2147	0.0081
550.4096	-0.0039
550.6045	-0.0051
550.7994	0.0065
550.9943	0.0096
551.1892	-0.0072
551.384	0.0067
551.5788	-0.0115
551.7737	0.0026
551.9685	0.0015
552.1632	0.0087
552.358	-0.0011
552.5528	-0.0014
552.7475	0.0026
552.9422	0.0012
553.1369	0.0007
553.3316	0.0112
553.5263	-0.0058
553.7209	0.009
553.9156	-0.0005
554.1102	-0.0001
554.3048	-0.0084
554.4994	0.0176
554.694	-0.0055
554.8885	-0.0014
555.0831	-0.0083
555.2776	-0.0095
555.4721	-0.0027
555.6666	-0.0047
555.8611	-0.0001
556.0555	0.0057
556.25	-0.0024
556.4444	-0.0081
556.6388	0.001
556.8332	-0.0009
557.0276	0.0028
557.222	-0.0034
557.4163	-0.0031
557.6107	-0.0125
557.805	0.001
557.9993	-0.0038
558.1936	-0.0044
558.3879	0.0022
558.5821	0.0086
558.7764	-0.0104
558.9706	-0.0015
559.1648	0.0005
559.359	-0.0035
559.5532	-0.0096
559.7473	0.0037
559.9415	0.001
560.1356	0.0076
560.3297	-0.0065
560.5238	0.0005
560.7179	-0.0019
560.9119	-0.0007
561.106	-0.002
561.3	-0.0013
561.494	0.0034
561.688	-0.0042
561.882	-0.0057
562.076	-0.0056
562.2699	0.008
562.4639	0.0014
562.6578	0.0079
562.8517	0.0049
563.0456	-0.0018
563.2395	0.0007
563.4333	0.0023
563.6272	0.0101
563.821	-0.007
564.0148	-0.0015
564.2086	-0.0039
564.4024	-0.0016
564.5961	-0.0076
564.7899	0.0069
564.9836	0.0101
565.1773	-0.0049
565.371	0.0095
565.5647	0.0096
565.7584	0.0024
565.952	-0.0014
566.1456	-0.0032
566.3393	-0.0017
566.5329	-0.0088
566.7264	0.0018
566.92	-0.0015
567.1136	0.0054
567.3071	-0.0079
567.5006	0.0056
567.6941	0.0072
567.8876	0.0014
568.0811	-0.004
568.2745	0.0035
568.468	0.008
568.6614	0.0081
568.8548	-0.0045
569.0482	0.0032
569.2416	0.0014
569.4349	-0.0009
569.6283	0.0053
569.8216	0.0047
570.0149	-0.0064
570.2082	0.0071
570.4015	0.0105
570.5947	0.01
570.788	0.0072
570.9812	0.0088
571.1744	-0.0023
571.3676	-0.0088
571.5608	0.0013
571.754	-0.0067
571.9471	-0.0035
572.1402	0.0015
572.3333	-0.0052
572.5264	-0.0041
572.7195	-0.0015
572.9126	0.0112
573.1057	-0.0016
573.2987	-0.0079
573.4917	0.0036
573.6847	-0.0065
573.8777	0.0061
574.0707	0.0043
574.2636	-0.0059
574.4566	-0.0024
574.6495	0.0081
574.8424	0.0061
575.0353	0.0027
575.2281	0.0094
575.421	-0.0008
575.6138	-0.0014
575.8067	0.0039
575.9995	0.0045
576.1923	0.0009
576.385	0.0028
576.5778	0.0051
576.7706	0.0035
576.9633	0.0001
577.156	0.0028
577.3487	-0.0028
577.5414	-0.003
577.734	-0.0059
577.9267	0.0019
578.1193	-0.0042
578.3119	-0.0075
578.5045	-0.0004
578.6971	0.0029
578.8897	0.0039
579.0822	0.0004
579.2747	-0.0062
579.4673	0.0005
579.6598	-0.0048
579.8522	-0.0006
580.0447	-0.0027
580.2372	0.0028
580.4296	0.0108
580.622	-0.0021
580.8144	0.0034
581.0068	0.0005
581.1992	-0.0053
581.3915	-0.0035
581.5839	-0.0006
581.7762	-0.0091
581.9685	-0.002
582.1608	0.0069
582.353	-0.0059
582.5453	-0.0007
582.7375	0.0052
582.9298	0.0011
583.122	-0.0039
583.3142	0.0023
583.5063	0.0057
583.6985	-0.0017
583.8906	-0.003
584.0827	-0.0015
584.2749	0.0061
584.4669	-0.0002
584.659	0.0019
584.8511	-0.0046
585.0431	-0.0064
585.2352	0.0051
585.4272	0.0055
585.6192	0.0004
585.8111	0.0006
586.0031	-0.0015
586.195	0.0043
586.387	0.0033
586.5789	0.0043
586.7708	0.0075
586.9627	0.0052
587.1545	-0.0013
587.3464	-0.002
587.5382	0.0027
587.73	0.0014
587.9218	0.0056
588.1136	-0.0008
588.3053	0.0017
588.4971	0.0038
588.6888	0.0005
588.8805	0.0063
589.0722	0.0077
589.2639	-0.0011
589.4556	0.0015
589.6472	0.0016
589.8389	-0.0067
590.0305	-0.007
590.2221	0.0022
590.4137	-0.0036
590.6052	0.0034
590.7968	-0.0017
590.9883	0.0016
591.1798	-0.0028
591.3713	0.0007
591.5628	-0.0025
591.7543	0.0019
591.9458	0.0032
592.1372	0.0033
592.3286	0.0057
592.52	0.0053
592.7114	-0.0018
592.9028	-0.001
593.0941	0.0037
593.2855	0.0037
593.4768	-0.0022
593.6681	-0.0028
593.8594	-0.002
594.0506	0.0008
594.2419	0.0117
594.4331	0.0047
594.6244	0.0045
594.8156	-0.0084
595.0067	0.0019
595.1979	0.0067
595.3891	0.0018
595.5802	0.0012
595.7713	-0.0001
595.9624	0.001
596.1535	0.0066
596.3446	0.0103
596.5357	0.0055
596.7267	0.0065
596.9177	0.0016
597.1087	-0.0029
597.2997	-0.0007
597.4907	0.0091
597.6817	-0.0004
597.8726	0.007
598.0635	-0.0004
598.2544	0.0021
598.4453	-0.0024
598.6362	0
598.827	-0.0007
599.0179	0.0064
599.2087	-0.0002
599.3995	0.0062
599.5903	0.0029
599.7811	-0.001
599.9718	-0.0035
600.1626	-0.002
600.3533	-0.0064
600.544	-0.0016
600.7347	-0.0019
600.9254	0.0043
601.116	-0.0049
601.3067	0.0038
601.4973	-0.0006
601.6879	0.0082
601.8785	-0.0048
602.0691	0.0064
602.2596	0.0036
602.4502	0.0036
602.6407	0.0043
602.8312	0.0073
603.0217	-0.0045
603.2122	0.008
603.4027	0.0073
603.5931	-0.0018
603.7835	-0.0041
603.9739	0.0007
604.1643	-0.005
604.3547	-0.0037
604.5451	0.0069
604.7354	-0.0055
604.9257	0.0007
605.116	-0.0049
605.3063	0.0022
605.4966	0.0008
605.6869	-0.0035
605.8771	0.015
606.0673	-0.0006
606.2575	0.0086
606.4477	0.0058
606.6379	0.0037
606.8281	-0.0012
607.0182	0.005
607.2083	0.0071
607.3985	0.0006
607.5885	-0.0042
607.7786	0.0014
607.9687	-0.005
608.1587	0.0069
608.3488	-0.0007
608.5388	0.0032
608.7288	-0.0005
608.9187	-0.0045
609.1087	0.0018
609.2986	-0.0016
609.4886	0.0031
609.6785	-0.001
609.8684	0.0051
610.0582	0.0004
610.2481	-0.0035
610.4379	0.0058
610.6278	-0.0002
610.8176	0.0047
611.0074	0.001
611.1971	0.0025
611.3869	-0.0033
611.5766	-0.0003
611.7664	0.0088
611.9561	0.0063
612.1458	0.0046
612.3354	-0.0089
612.5251	0.0077
612.7147	0.0042
612.9044	0.0109
613.094	-0.0047
613.2836	0.0047
613.4731	-0.0013
613.6627	0.0012
613.8522	0.0044
614.0417	0.0049
614.2313	0.0001
614.4207	-0.0021
614.6102	0.0079
614.7997	-0.0003
614.9891	-0.0036
615.1785	0.0012
615.3679	0.0003
615.5573	0.0127
615.7467	0.0002
615.9361	0.0015
616.1254	0.0019
616.3147	0.0097
616.504	0.0125
616.6933	0.0055
616.8826	0.0083
617.0718	0.005
617.2611	0.0075
617.4503	0.0076
617.6395	0.0006
617.8287	0.0023
618.0179	0.0008
618.207	0.013
618.3961	0.0112
618.5853	0.0014
618.7744	0.0058
618.9634	0.0067
619.1525	0.0052
619.3416	0.0054
619.5306	0.0046
619.7196	0.001
619.9086	0.0041
620.0976	0.0051
620.2866	0.0079
620.4755	0.0033
620.6645	0.0062
620.8534	0.0091
621.0423	0.0064
621.2312	0.0143
621.42	0.0018
621.6089	0.0041
621.7977	0.0098
621.9865	-0.0007
622.1753	0.0062
622.3641	0.0028
622.5529	0.0127
622.7416	0.011
622.9303	0.0023
623.1191	0.0059
623.3078	0.0028
623.4964	0.0024
623.6851	0.003
623.8737	0.003
624.0624	0.0119
624.251	0.0025
624.4396	-0.002
624.6282	-0.0012
624.8167	-0.0055
625.0053	0.008
625.1938	0.0115
625.3823	0.0007
625.5708	0.0056
625.7593	-0.0018
625.9477	0.0007
626.1362	-0.001
626.3246	0.003
626.513	0.0174
626.7014	0.0108
626.8898	0.0057
627.0781	0.0064
627.2665	0.0023
627.4548	0.0125
627.6431	0.0124
627.8314	0.0104
628.0197	0.0048
628.2079	-0.0083
628.3962	0.0046
628.5844	0.0011
628.7726	0.0084
628.9608	0.0062
629.1489	-0.0009
629.3371	0.003
629.5252	-0.0001
629.7134	0.0149
629.9015	0.0018
630.0895	0.0036
630.2776	0.0078
630.4657	0.0014
630.6537	0.0058
630.8417	0.0033
631.0297	-0.0014
631.2177	0.0004
631.4057	-0.0089
631.5936	0.0003
631.7815	0.0034
631.9695	-0
632.1574	0.0019
632.3452	0.0121
632.5331	0.008
632.7209	0.0053
632.9088	0.0164
633.0966	0.016
633.2844	0.004
633.4722	0.0005
633.6599	0.0137
633.8477	0.0109
634.0354	0.004
634.2231	0.0078
634.4108	0.0085
634.5985	0.0066
634.7861	0.0044
634.9738	0.006
635.1614	0.002
635.349	0.0133
635.5366	0.0019
635.7242	0.0088
635.9117	0.0118
636.0993	0.0055
636.2868	0.0074
636.4743	0.0008
636.6618	0.0158
636.8492	0.0029
637.0367	0.0095
637.2241	0.0031
637.4115	0.0035
637.5989	0.0041
637.7863	0.001
637.9737	0.0037
638.161	-0.0012
638.3484	0.0004
638.5357	0.0046
638.723	0.0007
638.9103	0.0129
639.0975	0.0137
639.2848	0.0098
639.472	-0.0028
639.6592	0.0077
639.8464	0.0147
640.0336	0.0037
640.2208	0.0067
640.4079	-0.0029
640.595	0.0053
640.7821	0.0001
640.9692	0.0041
641.1563	0.0044
641.3434	0.01
641.5304	0.0079
641.7174	0.0025
641.9044	0.0031
642.0914	0.0079
642.2784	0.0113
642.4653	0.0097
642.6523	0.0061
642.8392	0.006
643.0261	0.0099
643.213	0.0038
643.3999	0.0025
643.5867	0.0054
643.7735	0.0051
643.9604	-0.0022
644.1472	0.0046
644.3339	0.0068
644.5207	0.0038
644.7075	0.0099
644.8942	0.0102
645.0809	0.0118
645.2676	0.0077
645.4543	0.008
645.6409	0.0072
645.8276	0.0025
646.0142	0.015
646.2008	-0.0029
646.3874	-0.0021
646.574	-0.0015
646.7605	-0.0056
646.9471	-0.0094
647.1336	0.0042
647.3201	0.0088
647.5066	-0.0054
647.6931	0.0087
647.8795	-0.0015
648.0659	0.0056
648.2524	0.0019
648.4388	-0.005
648.6252	0.0036
648.8115	-0
648.9979	-0.0062
649.1842	0.0079
649.3705	0.0075
649.5568	0.0048
649.7431	0.0164
649.9294	0.0014
650.1156	0.0024
650.3018	0.0004
650.488	0.0075
650.6742	0.0077
650.8604	0.0045
651.0466	0.0002
651.2327	0.0036
651.4188	0.0063
651.6049	0.0033
651.791	0.0025
651.9771	0.0161
652.1632	0.0141
652.3492	0.0085
652.5352	0.0043
652.7212	0.0024
652.9072	0.0127
653.0932	0.0056
653.2791	0.0024
653.465	0.0061
653.651	-0.0031
653.8369	0.006
654.0227	0.0006
654.2086	0.0077
654.3944	0.0134
654.5803	0.0071
654.7661	0.001
654.9519	0.0089
655.1377	-0.0014
655.3234	-0.0026
655.5092	-0.003
655.6949	-0.0025
655.8806	-0.0041
656.0663	-0.0018
656.2519	-0
656.4376	-0.0015
656.6232	0.0044
656.8088	0.0017
656.9945	-0.0026
657.18	0.0043
657.3656	0.0077
657.5511	0.0025
657.7367	0.0008
657.9222	0.0118
658.1077	0.005
658.2932	0.0093
658.4786	-0.0078
658.6641	-0.0025
658.8495	0.0082
659.0349	-0.0021
659.2203	0.0083
659.4057	0.0111
659.591	0.0092
659.7764	-0.0009
659.9617	0.0041
660.147	0.0041
660.3323	-0.0012
660.5176	0.0147
660.7028	0.0081
660.888	0.0084
661.0733	0.0041
661.2585	-0.0048
661.4436	-0.0034
661.6288	-0.0013
661.8139	0.0006
661.9991	0.0018
662.1842	-0.0015
662.3693	0.0016
662.5544	-0.0091
662.7394	-0.0024
662.9245	-0.0011
663.1095	0.0009
663.2945	0.0031
663.4795	-0.003
663.6644	0.0014
663.8494	0.0004
664.0343	0
664.2193	-0.0051
664.4042	0.0042
664.589	-0.0019
664.7739	0.0019
664.9587	0.0023
665.1436	-0.0014
665.3284	0.0057
665.5132	-0.0008
665.698	0.0006
665.8827	0.0112
666.0675	-0.0045
666.2522	0.0005
666.4369	-0.0024
666.6216	0.0076
666.8063	0.0035
666.9909	0.0082
667.1756	-0.0053
667.3602	0.0033
667.5448	0.0058
667.7294	0.0077
667.9139	0.0049
668.0985	0.0196
668.283	0.005
668.4675	0.0091
668.652	0.0092
668.8365	0.0027
669.0209	0.015
669.2054	0.0154
669.3898	0.005
669.5742	0.0155
669.7586	0.012
669.943	0.0138
670.1273	0.0095
670.3117	0.0071
670.496	0.0061
670.6803	0.0199
670.8646	0.0083
671.0488	0.0031
671.2331	0.0053
671.4173	0.0117
671.6015	0.0016
671.7857	0.0052
671.9699	0.0059
672.1541	0.0035
672.3382	0.0037
672.5223	0.0108
672.7064	0.0061
672.8905	0.0043
673.0746	0.0039
673.2587	0.0018
673.4427	0.0021
673.6267	0.009
673.8107	0.014
673.9947	0.009
674.1787	0.0087
674.3626	-0.0032
674.5465	0.011
674.7304	0.0098
674.9143	0.0099
675.0982	0.0113
675.2821	-0.0021
675.4659	0.013
675.6497	0.0049
675.8335	0.0025
676.0173	0.0035
676.2011	0.0104
676.3849	0.0104
676.5686	-0.0007
676.7523	-0.0002
676.936	0.0024
677.1197	-0.0054
677.3034	-0.0019
677.487	0.0044
677.6706	0.0006
677.8542	0.0023
678.0378	0.0078
678.2214	0.0047
678.405	-0.0001
678.5885	-0.0024
678.772	0.0073
678.9555	0.0057
679.139	0.001
679.3225	0.0018
679.5059	0.0009
679.6894	0.004
679.8728	0.0002
680.0562	-0.0055
680.2395	-0.0042
680.4229	0.0015
680.6062	0.0011
680.7896	0.0049
680.9729	-0.0036
681.1562	-0.0014
681.3394	0.009
681.5227	-0.0091
681.7059	-0.0013
681.8891	0.0056
682.0723	0.0127
682.2555	0.0098
682.4387	-0.0018
682.6218	-0.0024
682.805	-0.0004
682.9881	0.0071
683.1712	0.0021
683.3542	0.0077
683.5373	0.006
683.7203	-0.0015
683.9034	0.003
684.0864	-0.0032
684.2694	0.0018
684.4523	0.0046
684.6353	-0.0064
684.8182	0.0055
685.0011	-0.0061
685.184	0.0073
685.3669	0.0007
685.5498	0.0043
685.7326	0.0057
685.9154	-0.0057
686.0982	0.0101
686.281	0.0034
686.4638	0.0072
686.6465	0.0027
686.8293	0.0064
687.012	0.0043
687.1947	-0.0025
687.3774	-0.0047
687.56	0.0006
687.7427	0.0106
687.9253	0.0037
688.1079	0.002
688.2905	0.0122
688.4731	0.0079
688.6556	0.0009
688.8382	-0.0025
689.0207	0.0048
689.2032	-0.0093
689.3857	-0.0091
689.5681	-0.0022
689.7506	-0.0094
689.933	-0.0042
690.1154	-0.0012
690.2978	-0.0002
690.4802	-0.0019
690.6626	-0.0075
690.8449	-0.0035
691.0272	0.0105
691.2095	-0.0013
691.3918	-0.0063
691.5741	0.0089
691.7563	-0.0003
691.9386	0.0043
692.1208	-0.0016
692.303	-0.0005
692.4852	0.0023
692.6673	0.0053
692.8495	-0.0046
693.0316	0
693.2137	0.0025
693.3958	0.0065
693.5778	0.0029
693.7599	0.0021
693.9419	0.0039
694.1239	0.0025
694.3059	0.0039
694.4879	0.0174
694.6699	0.0157
694.8518	0.0095
695.0337	-0
695.2157	0.0134
695.3975	0.0067
695.5794	0.0172
695.7613	0.0054
695.9431	-0.0019
696.1249	0.0028
696.3067	0.0061
696.4885	0.0111
696.6703	-0.001
696.852	0.0079
697.0337	0.0034
697.2154	0.0096
697.3971	0.0058
697.5788	0.0069
697.7605	0.0027
697.9421	0.0117
698.1237	0.0044
698.3053	0.003
698.4869	0.0097
698.6685	-0.0021
698.85	-0.0032
699.0315	0.0104
699.213	-0.0003
699.3945	0.0051
699.576	0.0103
699.7575	0.0125
699.9389	0.0116
700.1203	0.0025
700.3017	-0.0007
700.4831	-0.0061
700.6645	0.0111
700.8458	0.0009
701.0271	0.0097
701.2084	0.0117
701.3897	0.0052
701.571	0.0147
701.7523	-0.0017
701.9335	0.0087
702.1147	0.0092
702.2959	0.0087
702.4771	-0.0008
702.6583	0.0033
702.8394	0.0008
703.0205	-0.0001
703.2016	-0.0025
703.3827	0.0028
703.5638	0.0107
703.7449	0.0029
703.9259	0.0149
704.1069	-0.0018
704.2879	0.0118
704.4689	-0.0002
704.6499	0.0076
704.8308	0.0108
705.0117	0.0011
705.1927	0.0069
705.3735	0.0008
705.5544	-0.0059
705.7353	0.001
705.9161	-0.0032
706.0969	-0.0047
706.2777	0.0057
706.4585	-0.0012
706.6393	-0.0031
706.82	-0.0051
707.0007	0.0032
707.1815	0.0069
707.3621	0.0144
707.5428	-0.0026
707.7235	0.0061
707.9041	0.0031
708.0847	-0.0018
708.2653	-0.0056
708.4459	-0.021
708.6265	-0.0088
708.807	-0.0048
708.9875	-0.0024
709.168	-0.0019
709.3485	-0.0097
709.529	-0.0035
709.7095	-0.0149
709.8899	0.0013
710.0703	-0.0085
710.2507	0.002
710.4311	0.0032
710.6115	-0.0128
710.7918	-0.0022
710.9721	-0.0038
711.1524	-0.0168
711.3327	-0.0046
711.513	0.0097
711.6932	0.0045
711.8735	0.0055
712.0537	0.0038
712.2339	0.0025
712.4141	0.0008
712.5942	0.0005
712.7744	0.002
712.9545	-0.0117
713.1346	-0.0029
713.3147	0.0013
713.4947	-0.005
713.6748	-0.0099
713.8548	-0.0026
714.0348	0.0041
714.2148	-0.0013
714.3948	0.0071
714.5748	0.0034
714.7547	-0.0025
714.9346	0.0111
715.1145	0.0046
715.2944	-0.0018
715.4743	-0.0003
715.6541	0.0055
715.834	0.0086
716.0138	-0.0044
716.1936	-0.0108
716.3733	-0.0064
716.5531	0.0101
716.7328	0.0074
716.9126	0.0003
717.0923	0.0003
717.2719	-0.0019
717.4516	-0.0012
717.6312	-0.0005
717.8109	-0.0124
717.9905	-0.0019
718.1701	-0.004
718.3496	-0.0133
718.5292	-0.0009
718.7087	0.0057
718.8882	-0.0004
719.0677	-0.0011
719.2472	0.0006
719.4267	0.0035
719.6061	0.0002
719.7856	0.0062
719.965	0.0058
720.1443	-0.0016
720.3237	0.0135
720.5031	0.0009
720.6824	0.0079
720.8617	0.0014
721.041	-0.0005
721.2203	0.0088
721.3995	0.002
721.5788	0.0047
721.758	0.0022
721.9372	0.006
722.1164	0.0032
722.2956	-0.0078
722.4747	0.0039
722.6538	0.0069
722.8329	0.0073
723.012	0.0005
723.1911	-0.0016
723.3702	0.0049
723.5492	0.0078
723.7282	-0.0001
723.9072	0.0048
724.0862	-0.0057
724.2652	-0.0072
724.4441	-0.0003
724.623	0.0001
724.8019	0.0003
724.9808	0.0049
725.1597	-0.0093
725.3385	0.007
725.5174	0.0065
725.6962	0.0021
725.875	0.0062
726.0538	0.0046
726.2325	-0.0027
726.4112	0.0047
726.59	-0.0087
726.7687	-0.0054
726.9474	0.0062
727.126	-0.0046
727.3047	-0.0077
727.4833	0.0053
727.6619	-0.0116
727.8405	0.0014
728.0191	0.0006
728.1976	0.0099
728.3762	-0.0079
728.5547	0.006
728.7332	-0.0088
728.9116	-0.0002
729.0901	0.0018
729.2686	0.004
729.447	0.0023
729.6254	0.0001
729.8038	0.002
729.9821	-0.0066
730.1605	0.0069
730.3388	0.0038
730.5171	-0.0019
730.6954	0.0014
730.8737	0.0018
731.0519	0.0071
731.2302	0.0037
731.4084	0.014
731.5866	0.0091
731.7648	0.0004
731.9429	0.0033
732.1211	-0.006
732.2992	0.0044
732.4773	-0.0095
732.6554	-0.0082
732.8335	0.0012
733.0115	0.0062
733.1896	0.0012
733.3676	-0.014
733.5456	0.0058
733.7235	0.0098
733.9015	0.0047
734.0794	0.0038
734.2574	0.0012
734.4353	-0.0008
734.6131	0.0069
734.791	0.0046
734.9689	0.0036
735.1467	0.011
735.3245	-0.009
735.5023	-0.0089
735.68	0.0055
735.8578	0.0099
736.0355	-0.0157
736.2132	-0.0024
736.3909	0.0027
736.5686	-0.0117
736.7463	0.0046
736.9239	-0.0062
737.1015	0.0028
737.2791	0.0065
737.4567	0.0033
737.6343	0.0051
737.8118	0.0055
737.9894	0.007
738.1669	-0.0053
738.3444	0.0083
738.5218	0.0001
738.6993	0.0023
738.8767	0.0022
739.0541	0.0106
739.2315	-0.0055
739.4089	0.005
739.5863	0.0032
739.7636	-0.0084
739.9409	0.0065
740.1182	0.0097
740.2955	0
740.4728	0.0007
740.65	-0.0002
740.8272	0.0036
741.0044	-0.0058
741.1816	0.0002
741.3588	-0.0016
741.5359	0.0058
741.7131	-0.0077
741.8902	0.0027
742.0673	0.0039
742.2444	-0.0074
742.4214	-0.0121
742.5985	-0.0031
742.7755	-0.0002
742.9525	-0.0108
743.1295	0.0039
743.3064	-0.0011
743.4834	0.0107
743.6603	0.0002
743.8372	-0.002
744.0141	0.0142
744.191	0.0087
744.3678	-0.0044
744.5446	0.0076
744.7215	0.0075
744.8982	0.0009
745.075	-0.0046
745.2518	0.0077
745.4285	0.0037
745.6052	-0.0017
745.7819	0.0058
745.9586	-0.0012
746.1353	0.0086
746.3119	-0.005
746.4885	-0.0029
746.6651	-0.0088
746.8417	-0.0002
747.0183	0.0036
747.1948	-0.0043
747.3714	0.0072
747.5479	0.0058
747.7244	-0.0008
747.9008	0.0105
748.0773	-0.0017
748.2537	0.0018
748.4301	0.0055
748.6065	-0.0048
748.7829	-0.0056
748.9593	-0.0041
749.1356	-0.0013
749.3119	0.0049
749.4882	-0.0088
749.6645	0.0032
749.8408	-0.0029
750.017	-0.0073
750.1933	0.0067
750.3695	0.006
750.5457	-0.0031
750.7218	-0.0009
750.898	0.0043
751.0741	-0.0018
751.2502	0.0011
751.4263	0.0005
751.6024	0.0037
751.7784	0.0047
751.9545	-0.0007
752.1305	0.0067
752.3065	-0.0013
752.4825	0.006
752.6584	-0.0015
752.8344	-0.0003
753.0103	-0.012
753.1862	-0.0078
753.3621	0.0011
753.5379	-0.0026
753.7138	0.0077
753.8896	0.0094
754.0654	0.0012
754.2412	0.0061
754.417	0.0005
754.5927	-0.0025
754.7685	0.0033
754.9442	0.0017
755.1199	-0.0015
755.2956	-0.0066
755.4712	0.0076
755.6469	0.0094
755.8225	0.0031
755.9981	0.0062
756.1736	0.009
756.3492	0.0085
756.5248	0.001
756.7003	-0.0009
756.8758	0.0093
757.0513	-0.0048
757.2267	-0.0044
757.4022	0.0141
757.5776	-0.0044
757.753	-0.0008
757.9284	0.0085
758.1038	0.0153
758.2791	0.0104
758.4545	-0.0082
758.6298	0.0065
758.8051	0.0053
758.9803	-0.0072
759.1556	-0.005
759.3308	0.0023
759.506	0.0016
759.6812	0.0041
759.8564	0.006
760.0316	0.0081
760.2067	0.0067
760.3819	-0.0027
760.557	0.0209
760.732	0.0034
760.9071	-0.0085
761.0821	0.0047
761.2572	0.0081
761.4322	0.005
761.6072	0.0123
761.7821	-0.0035
761.9571	0.0024
762.132	0.0032
762.3069	0.0027
762.4818	0.0002
762.6567	0.0109
762.8316	-0.0026
763.0064	-0.0083
763.1812	0.0082
763.356	-0.009
763.5308	-0.0025
763.7055	-0.004
763.8803	0.0006
764.055	0.0114
764.2297	-0.0041
764.4044	0.0023
764.579	-0.002
764.7537	-0.0033
764.9283	0.0068
765.1029	-0.0092
765.2775	-0.0065
765.4521	-0.0062
765.6266	-0.0027
765.8011	-0.0073
765.9756	-0.0109
766.1501	0.0018
766.3246	-0.0002
766.4991	0.0032
766.6735	-0.0035
766.8479	-0.0044
767.0223	0.0098
767.1967	0.0033
767.371	0.0123
767.5454	0.0044
767.7197	0.0034
767.894	0.0009
768.0683	-0.0043
768.2425	0.0157
768.4168	0.012
768.591	0.0089
768.7652	0.0058
768.9394	0.0065
769.1135	0.0009
769.2877	0.0169
769.4618	-0.0006
769.6359	0.005
769.81	0.0024
769.984	-0.0074
770.1581	-0.0039
770.3321	0.0021
770.5061	-0.0053
770.6801	-0.0101
770.8541	-0.002
771.028	0.0044
771.202	-0.0145
771.3759	0.0008
771.5498	-0.0095
771.7236	-0.0049
771.8975	-0.0038
772.0713	-0.0055
772.2451	-0.0035
772.4189	0.0118
772.5927	0.0018
772.7665	0.0037
772.9402	0.0008
773.1139	-0.0087
773.2876	0.0037
773.4613	-0.0018
773.635	0.0066
773.8086	-0.0017
773.9822	0.0069
774.1558	0.0011
774.3294	-0.0081
774.503	0.0067
774.6765	0.006
774.8501	0.0058
775.0236	0.0041
775.1971	0.0077
775.3705	-0.0065
775.544	0.0137
775.7174	-0.0068
775.8908	0.0008
776.0642	-0.0049
776.2376	0.0025
776.4109	-0.0073
776.5843	0.0008
776.7576	0.0054
776.9309	0.0093
777.1041	0.0085
777.2774	0.0168
777.4506	-0.0009
777.6238	-0.0018
777.797	0.0006
777.9702	0.0044
778.1434	-0.0006
778.3165	-0.0155
778.4896	-0.0072
778.6627	0.006
778.8358	0.003
779.0089	0.0007
779.1819	-0.0062
779.3549	0.0114
779.5279	0.0029
779.7009	-0.0008
779.8739	-0.0061
780.0468	-0.0033
780.2197	0.0038
780.3926	0.0014
780.5655	-0.0076
780.7384	-0.0042
780.9112	0.0122
781.0841	-0.0044
781.2569	0.0007
781.4297	0.0001
781.6024	0.0045
781.7752	0.0054
781.9479	0.0141
782.1206	0.0034
782.2933	-0.0052
782.466	0.0032
782.6386	0.0141
782.8113	-0.0054
782.9839	0.0061
783.1565	0.0079
783.329	0.0072
783.5016	-0.0071
783.6741	-0.0004
783.8466	-0.0108
784.0191	0.0125
784.1916	-0.0024
784.3641	-0.0046
784.5365	-0.0017
784.7089	-0.0182
784.8813	-0.0142
785.0537	-0.0093
785.2261	0.0032
785.3984	-0.0229
785.5707	-0.0133
785.743	0.0026
785.9153	-0.01
786.0876	-0.0011
786.2598	-0.0074
786.432	-0.0066
786.6042	0.0087
786.7764	-0.0017
786.9486	-0.0014
787.1207	-0.0131
787.2928	0.0067
787.4649	-0.0005
787.637	0.0017
787.8091	-0.0086
787.9811	-0.0096
788.1532	0.0162
788.3252	-0.0037
788.4972	-0.0031
788.6691	-0.0036
788.8411	-0.0087
789.013	-0.0124
789.1849	0.0061
789.3568	-0.0029
789.5287	-0.0016
789.7005	-0.0042
789.8723	0.0057
790.0442	0.0145
790.2159	0.0172
790.3877	-0.001
790.5595	-0.0253
790.7312	-0.0075
790.9029	-0.0066
791.0746	-0.0103
791.2463	-0.0112
791.4179	0.0008
791.5896	-0.011
791.7612	0.008
791.9328	0.0017
792.1044	-0.0061
792.2759	-0.0181
792.4474	0.0027
792.619	0.0032
792.7905	0.0047
792.9619	-0.0016
793.1334	0.0125
793.3048	0.0018
793.4762	0.013
793.6476	0.0074
793.819	-0.0036
793.9904	0.0098
794.1617	-0.022
794.333	-0.0188
794.5043	-0.0054
794.6756	0.0002
794.8469	-0.0044
795.0181	-0.0078
795.1893	-0.0206
795.3605	-0.0107
795.5317	-0.0018
795.7029	-0.009
795.874	-0.0049
796.0452	-0.0029
796.2163	-0.0193
796.3873	0.0143
796.5584	-0.0056
796.7294	-0.0007
796.9005	0.0273
797.0715	0.0071
797.2425	-0.0171
797.4134	-0.0099
797.5844	-0.0016
797.7553	-0.0142
797.9262	-0.0061
798.0971	-0.011
798.2679	-0.0181
798.4388	-0.0197
798.6096	-0.003
798.7804	0.0002
798.9512	-0.002
799.122	-0.0058
799.2927	-0.0026
799.4635	0.0185
799.6342	-0.0119
799.8049	-0.0056
799.9755	-0.006
800.1462	-0.0063
800.3168	0.0066
800.4874	-0.0019
800.658	0.0249
800.8286	0.0125
800.9991	0.0059
801.1696	0.0067
801.3402	0.0086
801.5106	0.0002
801.6811	0.0105
801.8516	0.0199
802.022	0.014
802.1924	0.0015
802.3628	0.0151
802.5332	0.0118
802.7035	0.0109
802.8739	-0.0058
803.0442	-0.0136
803.2145	0.0098
803.3847	-0.0206
803.555	-0.0029
803.7252	-0.0149
803.8954	-0.0197
804.0656	-0.023
804.2358	-0.0103
804.4059	0.0278
804.5761	-0.0081
804.7462	-0.0076
804.9163	0.0082
805.0864	-0.0219
805.2564	-0.008
805.4264	-0.0041
805.5965	-0.0011
805.7665	-0.0053
805.9364	-0.0066
806.1064	0.0171
806.2763	0.0173
806.4462	-0.0008
806.6161	-0.0085
806.786	-0.0008
806.9559	-0.012
807.1257	-0.0087
807.2955	0.0071
807.4653	-0.0132
807.6351	-0.0068
807.8048	0.0026
807.9746	-0.0009
808.1443	-0.0045
808.314	0.0041
808.4837	0.0048
808.6533	0.0058
808.8229	0.0313
808.9926	-0.0039
809.1622	0.0169
809.3317	-0.0049
809.5013	-0.0039
809.6708	0.0049
809.8403	0.0213
810.0098	-0.0007
810.1793	-0.0062
810.3488	-0.0092
810.5182	-0.0199
810.6876	0.0064
810.857	-0.019
811.0264	-0.0024
811.1958	0.0026
811.3651	-0.0154
811.5344	0.0035
811.7037	0
811.873	-0.0133
812.0422	-0.0177
812.2115	-0.013
812.3807	-0.0326
812.5499	-0.0119
812.7191	-0.0103
812.8882	-0.0039
813.0574	-0.0146
813.2265	-0.0141
813.3956	0.0071
813.5646	-0.0138
813.7337	-0.0142
813.9027	0.016
814.0718	0.0136
814.2407	0.0098
814.4097	-0.0112
814.5787	-0.0257
814.7476	-0.0086
814.9165	0.0079
815.0854	0.0006
815.2543	-0.0045
815.4232	-0.0139
815.592	-0.0043
815.7608	-0.0038
815.9296	-0.0069
816.0984	-0.0017
816.2671	0.0087
816.4359	-0.0157
816.6046	0.0291
816.7733	-0.0012
816.942	-0.0003
817.1106	0.0064
817.2793	0.0019
817.4479	0.0031
817.6165	-0.0003
817.785	-0.0148
817.9536	-0.0207
818.1221	-0.0219
818.2906	0.002
818.4591	0.0014
818.6276	-0.0133
818.7961	0.0081
818.9645	0.0108
819.1329	-0.0072
819.3013	0.0251
819.4697	0.0123
819.638	0.0091
819.8064	0.0195
819.9747	-0.0072
820.143	-0.0099
820.3113	-0.0018
820.4795	0.0179
820.6477	0.0073
820.816	-0.0089
820.9842	0.0099
821.1523	-0.0134
821.3205	-0.017
821.4886	-0.0124
821.6567	-0.0084
821.8248	0.0177
821.9929	0.0074
822.1609	-0.014
822.329	0.0441
822.497	0.025
822.665	0.0084
822.833	-0.0155
823.0009	0.0019
823.1688	0.0057
823.3367	0.0217
823.5046	0.0043
823.6725	0.0329
823.8404	0.006
824.0082	-0.0061
824.176	0.0024
824.3438	-0.0015
824.5116	-0.0091
824.6793	0.0342
824.847	0.0076
825.0147	-0.0025
825.1824	0.0013
825.3501	0.0316
825.5177	-0.0043
825.6854	-0.0327
825.853	-0.0012
826.0206	-0.0408
826.1881	-0.0164
826.3557	-0.0474
826.5232	0.0084
826.6907	-0.0102
826.8582	0.0143
827.0257	-0.0417
827.1931	-0.0058
827.3605	0.0019
827.528	0.0043
827.6953	-0.0089
827.8627	-0.0105
828.03	0.0266
828.1974	0.011
828.3647	-0.0215
828.532	-0.0034
828.6992	-0.0053
828.8665	-0.0075
829.0337	-0.0235
829.2009	0.0138
829.3681	0.0057
829.5352	0.0439
829.7024	-0.0026
829.8695	-0.0126
830.0366	0.0315
830.2037	0.0209
830.3707	0.0045
830.5378	-0.0042
830.7048	0.0288
830.8718	0.0039
831.0388	-0.0212
831.2057	0.0071
831.3727	0.0043
831.5396	-0.0044
831.7065	-0.0288
831.8734	0.0211
832.0402	-0.0157
832.2071	-0.0219
832.3739	-0.017
832.5407	-0.0011
832.7075	0.0219
832.8742	0.0019
833.041	-0.0283
833.2077	-0.0095
833.3744	0.0326
833.541	0.0068
833.7077	-0.0266
833.8743	-0.0141
834.0409	-0.009
834.2075	-0.0251
834.3741	-0.041
834.5407	0.0283
834.7072	-0.0216
834.8737	-0.0386
835.0402	0.0124
835.2067	-0.003
835.3731	-0.0025
835.5395	-0.0094
835.706	-0.0164
835.8723	0.0185
836.0387	0.0194
836.2051	-0.0472
836.3714	-0.0193
836.5377	0.0036
836.704	-0.0516
836.8703	-0.0318
837.0365	0.0023
837.2027	-0.0375
837.3689	0.0102
837.5351	0.0154
837.7013	-0.0427
837.8674	-0.027
838.0335	-0.0158
838.1997	-0.0071
838.3657	-0.018
838.5318	-0.0308
838.6978	0.0016
838.8639	0.0238
839.0299	0.0231
839.1958	-0.0183
839.3618	-0.0033
839.5277	-0.0391
839.6937	-0.0271
839.8596	-0.0132
840.0254	0.0482
840.1913	-0.0048
840.3571	0.0502
840.523	-0.0008
840.6888	-0.0119
840.8545	-0.0168
841.0203	0.0045
841.186	-0.0376
841.3517	0.0019
841.5174	0.0144
841.6831	-0.0394
841.8488	0.0309
842.0144	-0.0299
842.18	-0.0172
842.3456	0.0002
842.5112	-0.0451
842.6767	-0.049
842.8422	-0.0298
843.0077	-0.0239
843.1732	-0.0451
843.3387	-0.0378
843.5042	-0.0901
843.6696	-0.0477
843.835	-0.0115
844.0004	0.008
844.1657	0.0093
844.3311	-0.0557
844.4964	-0.0482
844.6617	-0.1034
844.827	-0.046
844.9923	-0.0339
845.1575	0.0272
845.3227	-0.0146
845.4879	0.0024
845.6531	0.0208
845.8183	-0.0646
845.9834	-0.0603
846.1485	-0.0413
846.3136	-0.0316
846.4787	-0.1258
846.6438	-0.0162
846.8088	-0.0226
846.9738	-0.0852
847.1388	-0.0231
847.3038	-0.0511
847.4687	-0.0862
847.6337	-0.0334
847.7986	-0.0403
847.9635	-0.0576
848.1284	-0.0463
848.2932	0.051
848.458	0.0194
848.6228	0.0129
848.7876	0.054
848.9524	-0.0066
849.1172	-0.1131
849.2819	-0.0108
849.4466	-0.0477
849.6113	-0.0878
849.7759	-0.0832
849.9406	-0.0165
850.1052	0.065
850.2698	-0.0744
850.4344	-0.055
850.599	-0.1054
850.7635	0.0524
850.928	-0.0318
851.0925	-0.0589
851.257	-0.0085
851.4215	-0.0576
851.5859	-0.0252
851.7503	0.0354
851.9147	0.0205
852.0791	0.015
852.2434	-0.0072
852.4078	0.042
852.5721	0.0409
852.7364	-0.0778
852.9007	-0.1974
853.0649	0.0123
853.2291	-0.1131
853.3934	-0.0619
853.5575	-0.0193
853.7217	-0.1616
853.8859	-0.2618
854.05	-0.0879
854.2141	-0.0199
854.3782	-0.1137
854.5423	-0.1193
854.7063	0.0003
854.8703	-0.0105
855.0343	-0.1474
855.1983	-0.2141
855.3623	0.0705
855.5262	-0.0414
855.6901	-0.1348
855.854	0.0554
856.0179	0.0912
856.1818	0.1092
856.3456	-0.0936
856.5094	-0.1836
856.6732	-0.1511
856.837	-0.07
857.0008	-0.055
857.1645	-0.0202
857.3282	-0.2053
857.4919	0.0772
857.6556	-0.1384
857.8192	-0.0372
857.9828	-0.1071
858.1465	-0.0544
858.31	-0.1054
858.4736	0.0155
858.6372	-0.2557
858.8007	-0.2436
858.9642	-0.1976
859.1277	0.1143
859.2911	0.1288
859.4546	-0.1273
859.618	-0.4756
859.7814	-0.0028
859.9448	0.0612
860.1081	-0.0584
860.2715	0.142
860.4348	-0.2708
860.5981	-0.1073
860.7614	0.01
860.9246	-0.2236
861.0879	-0.4032
861.2511	-0.0625
861.4143	-0.3397
861.5774	0.2154
861.7406	-0.2263
861.9037	-0.0588
862.0668	-0.2579
862.2299	-0.2998
862.393	-0.6844
862.556	-0.1388
862.7191	-0.4076
862.8821	-0.2995
863.0451	0.0121
863.208	-0.0315
863.371	-0.1231
863.5339	-0.1507
863.6968	-0.0759
863.8597	0.0135
864.0225	-0.1443
864.1854	0.2203
864.3482	-0.0328
864.511	0.3062
864.6737	-0.2087
864.8365	-0.2687
864.9992	-0.4729
865.1619	-0.5287
865.3246	-0.2447
865.4873	0.088
865.65	-0.2315
865.8126	-0.1391
865.9752	0.2807
866.1378	-0.3393
866.3004	0.7155
866.4629	0.4125
866.6254	-0.285
866.7879	0.1233
866.9504	-0.3674
867.1129	-0
867.2753	0.3164
867.4377	0.0183
867.6001	-0.392
867.7625	-0.0453
867.9249	-0.5793
868.0872	0.1441
868.2495	0.118
868.4118	-0.4641
868.5741	-0.4062
868.7363	0.5618
868.8986	-0.6215
869.0608	-0.3236
869.223	0.0213
869.3851	-0
869.5473	-0
869.7094	0.0008
869.8715	-0.5276
870.0336	-0
870.1957	-0.7088
870.3577	-0
870.5197	-0.0156
870.6817	-0.3276
870.8437	-0.1637
871.0057	-0.5351
871.1676	-0
871.3295	-0.422
871.4914	-0
871.6533	-0.2855
871.8151	-0.3824
871.977	-0
872.1388	-0
872.3006	0.3302
872.4623	-0
872.6241	0.2319
872.7858	0.5074
872.9475	0.1985
873.1092	-0.1296
873.2709	0.0784
873.4325	0.0147
873.5941	-0.3992
873.7557	-0
873.9173	-0
874.0789	0.0065
874.2404	-0.8074
874.4019	0.0153
874.5634	-0.2657
874.7249	-0.2185
874.8863	-0.0883
875.0478	-0.1061
875.2092	-0
875.3706	-0.1031
875.5319	-0.6292
875.6933	-0
875.8546	-0.1324
876.0159	-0
876.1772	-0
876.3385	-0
876.4997	0.4905
876.6609	-0.3288
876.8221	-0
876.9833	0.7761
877.1445	-0
877.3056	-0.1269
877.4667	0.0306
877.6278	-0
877.7889	0.0591
877.9499	-0
878.111	0.7132
878.272	-0
878.433	-0
878.5939	-0
878.7549	-0.4148
878.9158	-0.7492
879.0767	0.7757
879.2376	-0
879.3984	-0.1367
879.5593	-0
879.7201	0.1966
879.8809	-0.7562
880.0417	-0.3243
880.2024	1.5461
880.3632	-0
880.5239	1.2378
880.6846	0.0422
880.8452	-2.7024
881.0059	-0
881.1665	-0
881.3271	-0
881.4877	-0
881.6483	-0.524
881.8088	-0.5069
881.9693	-0
882.1298	-0
882.2903	-0
