Data from MonoPyChalIsomerACN10uM440nmA_Absorbance_15-27-17-194.txt Node
Date: Fri Jul 05 15:27:17 BST 2024
User: LASERRRRR
Spectrometer: FLMT03099
Trigger mode: 0
Integration Time (sec): 1.000000E-1
Scans to average: 1
Electric dark correction enabled: true
Nonlinearity correction enabled: false
Boxcar width: 0
XAxis mode: Wavelengths
Number of Pixels in Spectrum: 3648
>>>>>Begin Spectral Data<<<<<
179.3399	0.1022
179.5586	0.1022
179.7771	0.1022
179.9957	0.0696
180.2143	-0
180.4329	-0.1856
180.6514	-0
180.8699	-0.1104
181.0885	0.1052
181.307	0.4594
181.5255	-0
181.744	-0
181.9625	-0.5693
182.181	-0
182.3994	0.4502
182.6179	-0
182.8363	1.1461
183.0547	-0.256
183.2732	-0.0057
183.4916	0.1078
183.71	0.0794
183.9284	-0.0769
184.1467	0.1145
184.3651	0.0274
184.5835	-0.0323
184.8018	0.1368
185.0201	-0.0566
185.2385	-0.1955
185.4568	0.053
185.6751	-0.1089
185.8934	0.1023
186.1117	0.0136
186.3299	0.0133
186.5482	0.2922
186.7664	-0.0114
186.9847	-0.0992
187.2029	0.182
187.4211	-0.0138
187.6393	0.1182
187.8575	-0.1206
188.0757	0.0811
188.2939	0.0529
188.512	-0.1389
188.7302	0.0738
188.9483	-0.0673
189.1665	0.1131
189.3846	-0.0297
189.6027	0.2168
189.8208	0.1067
190.0389	0.0924
190.257	0.0836
190.475	0.0435
190.6931	0.104
190.9111	0.4014
191.1292	0.1002
191.3472	0.3905
191.5652	0.1986
191.7832	0.0928
192.0012	0.4695
192.2192	0.26
192.4371	0.8489
192.6551	0.1968
192.873	0.4465
193.091	0.2007
193.3089	0.4716
193.5268	0.5344
193.7447	0.4827
193.9626	0.5037
194.1805	0.3848
194.3984	0.7611
194.6162	0.5171
194.8341	0.5442
195.0519	0.5636
195.2697	0.7566
195.4875	0.4054
195.7054	0.4381
195.9231	0.444
196.1409	0.5621
196.3587	0.504
196.5765	0.692
196.7942	0.5165
197.012	0.4739
197.2297	0.6049
197.4474	0.7471
197.6651	0.5038
197.8828	0.6394
198.1005	0.5056
198.3182	0.5671
198.5358	0.7953
198.7535	0.6402
198.9711	0.4574
199.1888	0.5376
199.4064	1.0241
199.624	0.7811
199.8416	0.5546
200.0592	0.5948
200.2767	0.6301
200.4943	0.6778
200.7119	0.7056
200.9294	0.6251
201.1469	0.4849
201.3645	0.5838
201.582	0.5302
201.7995	0.5283
202.017	0.584
202.2344	0.5677
202.4519	0.6732
202.6694	0.5712
202.8868	0.675
203.1042	0.643
203.3217	0.7463
203.5391	0.7064
203.7565	0.5945
203.9739	0.603
204.1913	0.5684
204.4086	0.5965
204.626	0.6544
204.8433	0.5692
205.0607	0.5794
205.278	0.6399
205.4953	0.641
205.7126	0.6525
205.9299	0.6991
206.1472	0.73
206.3644	0.6103
206.5817	0.7042
206.7989	0.7291
207.0162	0.654
207.2334	0.6661
207.4506	0.6889
207.6678	0.6519
207.885	0.6506
208.1022	0.6587
208.3194	0.6385
208.5365	0.6327
208.7537	0.5954
208.9708	0.6427
209.1879	0.6287
209.405	0.6723
209.6222	0.6856
209.8392	0.6091
210.0563	0.6006
210.2734	0.5743
210.4905	0.616
210.7075	0.6157
210.9245	0.6352
211.1416	0.6724
211.3586	0.5988
211.5756	0.5914
211.7926	0.5728
212.0096	0.5389
212.2265	0.5749
212.4435	0.5918
212.6604	0.6033
212.8774	0.5923
213.0943	0.6137
213.3112	0.5942
213.5281	0.5498
213.745	0.4912
213.9619	0.4902
214.1788	0.4882
214.3956	0.4838
214.6125	0.4827
214.8293	0.4431
215.0461	0.4481
215.2629	0.445
215.4798	0.4506
215.6965	0.4311
215.9133	0.4256
216.1301	0.4149
216.3469	0.4494
216.5636	0.4232
216.7803	0.4061
216.9971	0.3891
217.2138	0.3751
217.4305	0.3933
217.6472	0.3544
217.8639	0.3652
218.0805	0.3485
218.2972	0.3287
218.5138	0.3056
218.7305	0.2928
218.9471	0.2942
219.1637	0.2766
219.3803	0.2625
219.5969	0.2806
219.8135	0.2467
220.0301	0.2613
220.2466	0.2786
220.4632	0.2355
220.6797	0.24
220.8962	0.2308
221.1127	0.2458
221.3292	0.2641
221.5457	0.2207
221.7622	0.2226
221.9787	0.2265
222.1951	0.2425
222.4116	0.2492
222.628	0.2395
222.8444	0.2539
223.0608	0.2379
223.2772	0.2361
223.4936	0.2547
223.71	0.2473
223.9264	0.2668
224.1427	0.2376
224.3591	0.2434
224.5754	0.251
224.7917	0.2404
225.008	0.2659
225.2243	0.2774
225.4406	0.2755
225.6569	0.2456
225.8732	0.2381
226.0894	0.2485
226.3057	0.2433
226.5219	0.2816
226.7381	0.2646
226.9543	0.2662
227.1705	0.2923
227.3867	0.2538
227.6029	0.3
227.8191	0.2835
228.0352	0.2803
228.2513	0.3083
228.4675	0.2975
228.6836	0.2905
228.8997	0.2937
229.1158	0.2909
229.3319	0.3096
229.548	0.2831
229.764	0.2898
229.9801	0.3176
230.1961	0.3189
230.4121	0.316
230.6282	0.3256
230.8442	0.3158
231.0602	0.3436
231.2761	0.3295
231.4921	0.3219
231.7081	0.3474
231.924	0.3439
232.14	0.3618
232.3559	0.3251
232.5718	0.3436
232.7877	0.3521
233.0036	0.3199
233.2195	0.3582
233.4353	0.3546
233.6512	0.3628
233.867	0.36
234.0829	0.3534
234.2987	0.3643
234.5145	0.3654
234.7303	0.3503
234.9461	0.379
235.1619	0.3752
235.3776	0.3657
235.5934	0.3829
235.8091	0.3609
236.0249	0.3834
236.2406	0.3781
236.4563	0.3528
236.672	0.3872
236.8877	0.4048
237.1034	0.3944
237.319	0.3843
237.5347	0.3952
237.7503	0.3681
237.966	0.4108
238.1816	0.3926
238.3972	0.4005
238.6128	0.3786
238.8284	0.4003
239.0439	0.4123
239.2595	0.4094
239.475	0.4134
239.6906	0.3995
239.9061	0.3988
240.1216	0.4033
240.3371	0.4008
240.5526	0.4051
240.7681	0.4146
240.9836	0.3902
241.199	0.3921
241.4145	0.3968
241.6299	0.3625
241.8453	0.3682
242.0607	0.3932
242.2761	0.3549
242.4915	0.3778
242.7069	0.3488
242.9223	0.3502
243.1376	0.3673
243.353	0.3638
243.5683	0.3534
243.7836	0.3108
243.9989	0.3196
244.2142	0.3232
244.4295	0.3212
244.6448	0.3085
244.86	0.2952
245.0753	0.2976
245.2905	0.2857
245.5057	0.271
245.721	0.2804
245.9362	0.2693
246.1514	0.2713
246.3665	0.2775
246.5817	0.252
246.7969	0.2555
247.012	0.2442
247.2271	0.2364
247.4423	0.2318
247.6574	0.2397
247.8725	0.2307
248.0876	0.2221
248.3026	0.2174
248.5177	0.2257
248.7328	0.2114
248.9478	0.2072
249.1628	0.2169
249.3779	0.2176
249.5929	0.213
249.8079	0.2136
250.0228	0.2062
250.2378	0.2027
250.4528	0.2116
250.6677	0.1895
250.8827	0.1946
251.0976	0.1912
251.3125	0.1911
251.5274	0.1786
251.7423	0.1874
251.9572	0.184
252.172	0.1744
252.3869	0.1731
252.6017	0.1832
252.8166	0.167
253.0314	0.1638
253.2462	0.1759
253.461	0.1729
253.6758	0.1667
253.8906	0.173
254.1053	0.1729
254.3201	0.1728
254.5348	0.1914
254.7496	0.1794
254.9643	0.1662
255.179	0.1798
255.3937	0.1668
255.6083	0.1676
255.823	0.1654
256.0377	0.1658
256.2523	0.1656
256.467	0.1433
256.6816	0.1694
256.8962	0.1589
257.1108	0.1705
257.3254	0.1744
257.54	0.158
257.7545	0.1598
257.9691	0.1679
258.1836	0.1646
258.3981	0.1801
258.6127	0.1764
258.8272	0.1593
259.0417	0.1551
259.2561	0.154
259.4706	0.1689
259.6851	0.1617
259.8995	0.1667
260.114	0.1699
260.3284	0.1577
260.5428	0.154
260.7572	0.1615
260.9716	0.1659
261.186	0.1533
261.4003	0.1597
261.6147	0.1617
261.829	0.1663
262.0433	0.1571
262.2577	0.15
262.472	0.1687
262.6863	0.1526
262.9005	0.1638
263.1148	0.168
263.3291	0.145
263.5433	0.1656
263.7576	0.1554
263.9718	0.1619
264.186	0.1696
264.4002	0.1657
264.6144	0.1548
264.8286	0.1626
265.0427	0.1706
265.2569	0.1489
265.471	0.1587
265.6851	0.1493
265.8993	0.1446
266.1134	0.15
266.3275	0.1662
266.5415	0.1653
266.7556	0.1629
266.9697	0.149
267.1837	0.168
267.3978	0.1615
267.6118	0.1715
267.8258	0.1759
268.0398	0.1445
268.2538	0.165
268.4677	0.1651
268.6817	0.1562
268.8957	0.1569
269.1096	0.1754
269.3235	0.1684
269.5374	0.156
269.7514	0.1545
269.9652	0.1427
270.1791	0.1552
270.393	0.1524
270.6068	0.1555
270.8207	0.1493
271.0345	0.1422
271.2483	0.1564
271.4622	0.1399
271.676	0.154
271.8897	0.1465
272.1035	0.1548
272.3173	0.1432
272.531	0.1406
272.7448	0.1399
272.9585	0.1401
273.1722	0.1448
273.3859	0.1517
273.5996	0.1347
273.8133	0.1534
274.0269	0.1376
274.2406	0.1433
274.4542	0.1466
274.6679	0.1386
274.8815	0.1439
275.0951	0.146
275.3087	0.1491
275.5223	0.1535
275.7358	0.1495
275.9494	0.1485
276.1629	0.1472
276.3765	0.1473
276.59	0.1649
276.8035	0.1493
277.017	0.1494
277.2305	0.1503
277.444	0.1596
277.6574	0.1413
277.8709	0.1437
278.0843	0.1431
278.2978	0.1433
278.5112	0.1397
278.7246	0.147
278.938	0.1496
279.1513	0.1582
279.3647	0.1498
279.5781	0.1566
279.7914	0.1436
280.0047	0.1496
280.2181	0.1521
280.4314	0.1573
280.6447	0.1552
280.8579	0.1492
281.0712	0.1634
281.2845	0.1563
281.4977	0.157
281.711	0.1386
281.9242	0.1537
282.1374	0.1545
282.3506	0.1539
282.5638	0.1524
282.7769	0.1728
282.9901	0.1559
283.2033	0.1672
283.4164	0.1664
283.6295	0.1456
283.8426	0.1436
284.0557	0.1618
284.2688	0.1785
284.4819	0.155
284.695	0.1631
284.908	0.1635
285.1211	0.1462
285.3341	0.151
285.5471	0.1666
285.7601	0.1489
285.9731	0.1574
286.1861	0.1436
286.3991	0.1589
286.612	0.171
286.825	0.161
287.0379	0.151
287.2508	0.1551
287.4637	0.1696
287.6766	0.1575
287.8895	0.1544
288.1024	0.1776
288.3152	0.1632
288.5281	0.1535
288.7409	0.1565
288.9538	0.1513
289.1666	0.1575
289.3794	0.1596
289.5922	0.1545
289.8049	0.1701
290.0177	0.1574
290.2304	0.1596
290.4432	0.1696
290.6559	0.1534
290.8686	0.1685
291.0813	0.158
291.294	0.1557
291.5067	0.1574
291.7194	0.1583
291.932	0.1671
292.1447	0.1558
292.3573	0.1428
292.5699	0.1553
292.7825	0.158
292.9951	0.1613
293.2077	0.1537
293.4203	0.1576
293.6328	0.1507
293.8454	0.1623
294.0579	0.1515
294.2704	0.1489
294.4829	0.1563
294.6954	0.1581
294.9079	0.1664
295.1204	0.1663
295.3328	0.148
295.5453	0.1517
295.7577	0.1555
295.9701	0.1573
296.1825	0.1608
296.3949	0.155
296.6073	0.1536
296.8197	0.1618
297.0321	0.1626
297.2444	0.1402
297.4567	0.1556
297.6691	0.1621
297.8814	0.1506
298.0937	0.1599
298.306	0.158
298.5182	0.1456
298.7305	0.1604
298.9428	0.1504
299.155	0.1562
299.3672	0.1534
299.5794	0.1468
299.7916	0.1486
300.0038	0.1478
300.216	0.1584
300.4282	0.1611
300.6403	0.148
300.8525	0.1646
301.0646	0.1481
301.2767	0.1485
301.4888	0.162
301.7009	0.1513
301.913	0.1452
302.125	0.1623
302.3371	0.1473
302.5491	0.1575
302.7612	0.1705
302.9732	0.1538
303.1852	0.1526
303.3972	0.1562
303.6092	0.1452
303.8211	0.1534
304.0331	0.149
304.245	0.1452
304.457	0.142
304.6689	0.1447
304.8808	0.1586
305.0927	0.1413
305.3046	0.1539
305.5164	0.162
305.7283	0.1434
305.9401	0.1294
306.152	0.1446
306.3638	0.1501
306.5756	0.1403
306.7874	0.1351
306.9992	0.1435
307.2109	0.1372
307.4227	0.1091
307.6344	0.1345
307.8462	0.1349
308.0579	0.1288
308.2696	0.1216
308.4813	0.1322
308.693	0.1249
308.9046	0.1348
309.1163	0.1223
309.328	0.1296
309.5396	0.1309
309.7512	0.1219
309.9628	0.1201
310.1744	0.117
310.386	0.1148
310.5976	0.1135
310.8091	0.1237
311.0207	0.122
311.2322	0.1257
311.4437	0.1053
311.6552	0.1102
311.8667	0.1108
312.0782	0.1004
312.2897	0.1083
312.5012	0.1001
312.7126	0.1033
312.924	0.0959
313.1355	0.104
313.3469	0.1058
313.5583	0.1073
313.7696	0.1048
313.981	0.1026
314.1924	0.0994
314.4037	0.1003
314.6151	0.1137
314.8264	0.0998
315.0377	0.1045
315.249	0.1039
315.4603	0.1062
315.6716	0.0944
315.8828	0.0903
316.0941	0.0875
316.3053	0.1059
316.5165	0.0925
316.7277	0.0951
316.9389	0.1134
317.1501	0.0946
317.3613	0.1023
317.5724	0.0866
317.7836	0.1025
317.9947	0.1016
318.2058	0.0974
318.417	0.0853
318.6281	0.0873
318.8391	0.1014
319.0502	0.0943
319.2613	0.1009
319.4723	0.109
319.6834	0.0996
319.8944	0.1014
320.1054	0.0997
320.3164	0.1013
320.5274	0.0941
320.7383	0.1022
320.9493	0.0976
321.1602	0.0938
321.3712	0.0849
321.5821	0.1062
321.793	0.1036
322.0039	0.0995
322.2148	0.0949
322.4257	0.1029
322.6365	0.0935
322.8474	0.1071
323.0582	0.1008
323.269	0.1058
323.4798	0.1074
323.6906	0.1029
323.9014	0.1117
324.1122	0.1047
324.3229	0.0976
324.5337	0.1015
324.7444	0.0887
324.9551	0.116
325.1658	0.1066
325.3765	0.1055
325.5872	0.1005
325.7979	0.1
326.0085	0.1072
326.2192	0.1139
326.4298	0.1023
326.6404	0.1047
326.851	0.099
327.0616	0.0977
327.2722	0.1046
327.4828	0.1198
327.6933	0.1096
327.9039	0.1127
328.1144	0.11
328.3249	0.1175
328.5354	0.102
328.7459	0.1059
328.9564	0.0986
329.1669	0.1062
329.3773	0.103
329.5878	0.1042
329.7982	0.1032
330.0086	0.102
330.219	0.1118
330.4294	0.1186
330.6398	0.1009
330.8502	0.106
331.0605	0.112
331.2708	0.1108
331.4812	0.0988
331.6915	0.1095
331.9018	0.1089
332.1121	0.0977
332.3224	0.1135
332.5326	0.1166
332.7429	0.1082
332.9531	0.1089
333.1633	0.1078
333.3735	0.1098
333.5837	0.1137
333.7939	0.1012
334.0041	0.1152
334.2143	0.1103
334.4244	0.1125
334.6346	0.0857
334.8447	0.1167
335.0548	0.1015
335.2649	0.1044
335.475	0.1131
335.685	0.1087
335.8951	0.117
336.1051	0.113
336.3152	0.1189
336.5252	0.1114
336.7352	0.1176
336.9452	0.1165
337.1552	0.1139
337.3652	0.1032
337.5751	0.1161
337.7851	0.1116
337.995	0.1042
338.2049	0.1159
338.4148	0.1228
338.6247	0.1203
338.8346	0.107
339.0445	0.1064
339.2543	0.1114
339.4642	0.1089
339.674	0.1138
339.8838	0.1253
340.0936	0.1054
340.3034	0.1299
340.5132	0.1179
340.7229	0.1262
340.9327	0.1224
341.1424	0.1096
341.3522	0.1251
341.5619	0.1262
341.7716	0.1152
341.9813	0.1332
342.1909	0.1241
342.4006	0.12
342.6102	0.1305
342.8199	0.1235
343.0295	0.1282
343.2391	0.1109
343.4487	0.1253
343.6583	0.1231
343.8679	0.122
344.0774	0.1318
344.287	0.1249
344.4965	0.1302
344.706	0.1294
344.9155	0.1281
345.125	0.1386
345.3345	0.1257
345.544	0.1213
345.7534	0.1285
345.9629	0.1256
346.1723	0.1347
346.3817	0.1191
346.5911	0.1282
346.8005	0.1438
347.0099	0.1192
347.2193	0.1329
347.4286	0.1286
347.638	0.1366
347.8473	0.1253
348.0566	0.1318
348.2659	0.1401
348.4752	0.1235
348.6845	0.1252
348.8937	0.1282
349.103	0.1568
349.3122	0.1306
349.5214	0.1259
349.7306	0.136
349.9398	0.1343
350.149	0.138
350.3582	0.1276
350.5674	0.1453
350.7765	0.1408
350.9856	0.1263
351.1948	0.1478
351.4039	0.1335
351.613	0.1365
351.822	0.1282
352.0311	0.1496
352.2402	0.1373
352.4492	0.1438
352.6582	0.1507
352.8672	0.1509
353.0762	0.1632
353.2852	0.1403
353.4942	0.1331
353.7032	0.138
353.9121	0.1451
354.1211	0.1482
354.33	0.1428
354.5389	0.1559
354.7478	0.1414
354.9567	0.1424
355.1655	0.1339
355.3744	0.1429
355.5833	0.1681
355.7921	0.1798
356.0009	0.1504
356.2097	0.172
356.4185	0.1518
356.6273	0.1511
356.8361	0.1518
357.0448	0.1488
357.2536	0.1432
357.4623	0.1494
357.671	0.1646
357.8797	0.1655
358.0884	0.1611
358.2971	0.1592
358.5057	0.1605
358.7144	0.1609
358.923	0.156
359.1316	0.1728
359.3402	0.1626
359.5488	0.1613
359.7574	0.1621
359.966	0.1756
360.1746	0.1824
360.3831	0.1657
360.5916	0.171
360.8002	0.1654
361.0087	0.1762
361.2172	0.1684
361.4256	0.168
361.6341	0.1893
361.8426	0.1774
362.051	0.1839
362.2594	0.1676
362.4678	0.1744
362.6762	0.1904
362.8846	0.1739
363.093	0.1886
363.3014	0.1722
363.5097	0.1611
363.718	0.1851
363.9264	0.1804
364.1347	0.1729
364.343	0.1863
364.5513	0.2005
364.7595	0.2052
364.9678	0.2022
365.176	0.1926
365.3842	0.1927
365.5925	0.1871
365.8007	0.1767
366.0089	0.1911
366.217	0.1877
366.4252	0.1893
366.6333	0.2012
366.8415	0.1925
367.0496	0.1841
367.2577	0.197
367.4658	0.2066
367.6739	0.2093
367.882	0.2001
368.09	0.1809
368.2981	0.2079
368.5061	0.1915
368.7141	0.1958
368.9221	0.2004
369.1301	0.1959
369.3381	0.2014
369.5461	0.2046
369.754	0.2078
369.962	0.2036
370.1699	0.1946
370.3778	0.2037
370.5857	0.2063
370.7936	0.1907
371.0015	0.1882
371.2093	0.2138
371.4172	0.2185
371.625	0.1962
371.8328	0.2122
372.0406	0.2136
372.2484	0.1985
372.4562	0.2064
372.664	0.2099
372.8717	0.217
373.0795	0.1882
373.2872	0.2096
373.4949	0.2119
373.7026	0.2112
373.9103	0.218
374.118	0.2267
374.3256	0.2177
374.5333	0.2074
374.7409	0.2148
374.9485	0.2124
375.1561	0.2067
375.3637	0.2216
375.5713	0.236
375.7789	0.2116
375.9864	0.2231
376.194	0.2177
376.4015	0.2202
376.609	0.2352
376.8165	0.2316
377.024	0.2284
377.2315	0.2039
377.4389	0.2383
377.6464	0.2277
377.8538	0.2277
378.0612	0.2242
378.2686	0.2292
378.476	0.2325
378.6834	0.2329
378.8908	0.228
379.0981	0.2281
379.3055	0.2265
379.5128	0.2175
379.7201	0.219
379.9274	0.2182
380.1347	0.2385
380.342	0.2445
380.5492	0.2287
380.7565	0.2304
380.9637	0.2506
381.1709	0.2242
381.3781	0.235
381.5853	0.2284
381.7925	0.2495
381.9997	0.2379
382.2068	0.2362
382.4139	0.2257
382.6211	0.2331
382.8282	0.2339
383.0353	0.219
383.2424	0.2337
383.4494	0.2457
383.6565	0.2443
383.8635	0.2389
384.0706	0.2272
384.2776	0.2279
384.4846	0.2287
384.6916	0.2302
384.8986	0.2319
385.1055	0.2415
385.3125	0.2503
385.5194	0.2265
385.7263	0.2538
385.9333	0.2369
386.1402	0.2447
386.347	0.2305
386.5539	0.2247
386.7608	0.2401
386.9676	0.2286
387.1744	0.205
387.3813	0.2257
387.5881	0.2308
387.7948	0.2212
388.0016	0.2233
388.2084	0.2264
388.4151	0.2182
388.6219	0.2402
388.8286	0.2202
389.0353	0.2351
389.242	0.2284
389.4487	0.2151
389.6553	0.216
389.862	0.2094
390.0686	0.2246
390.2753	0.224
390.4819	0.2317
390.6885	0.232
390.8951	0.2235
391.1016	0.2305
391.3082	0.2184
391.5147	0.2313
391.7213	0.2276
391.9278	0.2203
392.1343	0.219
392.3408	0.213
392.5473	0.2067
392.7537	0.2086
392.9602	0.2172
393.1666	0.1993
393.373	0.2039
393.5794	0.2259
393.7858	0.2118
393.9922	0.1989
394.1986	0.2203
394.4049	0.2282
394.6113	0.2075
394.8176	0.2099
395.0239	0.2096
395.2302	0.2049
395.4365	0.2134
395.6428	0.2088
395.8491	0.2012
396.0553	0.1877
396.2615	0.207
396.4678	0.2097
396.674	0.1799
396.8802	0.1978
397.0863	0.2001
397.2925	0.1985
397.4987	0.1951
397.7048	0.2038
397.9109	0.2042
398.117	0.1964
398.3231	0.1804
398.5292	0.2172
398.7353	0.1999
398.9413	0.1887
399.1474	0.1926
399.3534	0.1941
399.5594	0.1906
399.7654	0.1994
399.9714	0.2081
400.1774	0.1911
400.3833	0.1902
400.5893	0.1899
400.7952	0.1904
401.0011	0.2066
401.207	0.2059
401.4129	0.202
401.6188	0.2041
401.8247	0.2066
402.0305	0.1938
402.2364	0.1898
402.4422	0.2088
402.648	0.2064
402.8538	0.2006
403.0596	0.1949
403.2654	0.2095
403.4711	0.1957
403.6768	0.1925
403.8826	0.1932
404.0883	0.1957
404.294	0.1887
404.4997	0.2082
404.7054	0.1829
404.911	0.1804
405.1167	0.2085
405.3223	0.2124
405.5279	0.2017
405.7335	0.1957
405.9391	0.2
406.1447	0.2075
406.3502	0.211
406.5558	0.1906
406.7613	0.1964
406.9668	0.1958
407.1724	0.1757
407.3778	0.1957
407.5833	0.1774
407.7888	0.2025
407.9942	0.1987
408.1997	0.1842
408.4051	0.1917
408.6105	0.2005
408.8159	0.1806
409.0213	0.1854
409.2267	0.2008
409.432	0.1775
409.6374	0.2087
409.8427	0.1927
410.048	0.196
410.2533	0.1748
410.4586	0.1984
410.6639	0.187
410.8691	0.2042
411.0744	0.175
411.2796	0.179
411.4848	0.1806
411.69	0.1826
411.8952	0.2121
412.1004	0.1714
412.3056	0.1982
412.5107	0.1947
412.7158	0.1971
412.921	0.1929
413.1261	0.2048
413.3312	0.1669
413.5362	0.1828
413.7413	0.1805
413.9464	0.1771
414.1514	0.1747
414.3564	0.1751
414.5614	0.1659
414.7664	0.1904
414.9714	0.17
415.1764	0.1875
415.3813	0.2267
415.5863	0.1843
415.7912	0.192
415.9961	0.1884
416.201	0.1858
416.4059	0.191
416.6108	0.1785
416.8156	0.1901
417.0205	0.1884
417.2253	0.1612
417.4301	0.1858
417.6349	0.1824
417.8397	0.174
418.0445	0.1709
418.2492	0.1865
418.454	0.1744
418.6587	0.2034
418.8634	0.1746
419.0681	0.1727
419.2728	0.165
419.4775	0.1775
419.6822	0.1677
419.8868	0.1582
420.0915	0.1929
420.2961	0.1573
420.5007	0.1692
420.7053	0.1766
420.9099	0.1908
421.1144	0.1825
421.319	0.1582
421.5235	0.1792
421.728	0.1824
421.9325	0.1838
422.137	0.1855
422.3415	0.1572
422.546	0.1654
422.7504	0.154
422.9549	0.17
423.1593	0.1772
423.3637	0.1858
423.5681	0.1439
423.7725	0.1453
423.9769	0.1617
424.1812	0.1691
424.3856	0.1544
424.5899	0.1611
424.7942	0.1738
424.9985	0.1657
425.2028	0.1701
425.4071	0.169
425.6113	0.1458
425.8156	0.1634
426.0198	0.1723
426.224	0.14
426.4282	0.1534
426.6324	0.1484
426.8366	0.143
427.0407	0.1518
427.2449	0.1482
427.449	0.1662
427.6531	0.135
427.8572	0.153
428.0613	0.1373
428.2654	0.1325
428.4694	0.1501
428.6735	0.1421
428.8775	0.146
429.0815	0.1476
429.2855	0.1436
429.4895	0.1338
429.6935	0.1371
429.8975	0.1462
430.1014	0.1242
430.3053	0.1169
430.5093	0.1309
430.7132	0.1339
430.9171	0.116
431.1209	0.1355
431.3248	0.1244
431.5286	0.1318
431.7325	0.1248
431.9363	0.1116
432.1401	0.1315
432.3439	0.1188
432.5477	0.103
432.7514	0.1117
432.9552	0.1236
433.1589	0.1131
433.3627	0.1053
433.5664	0.1046
433.7701	0.1037
433.9737	0.0976
434.1774	0.1032
434.3811	0.09
434.5847	0.1128
434.7883	0.1005
434.9919	0.0902
435.1955	0.1025
435.3991	0.0918
435.6027	0.0903
435.8062	0.0934
436.0098	0.0895
436.2133	0.0909
436.4168	0.0862
436.6203	0.0716
436.8238	0.0993
437.0272	0.0871
437.2307	0.0834
437.4341	0.0963
437.6375	0.1
437.841	0.0775
438.0443	0.095
438.2477	0.0772
438.4511	0.0829
438.6545	0.0814
438.8578	0.0788
439.0611	0.0684
439.2644	0.0836
439.4677	0.063
439.671	0.0587
439.8743	0.0557
440.0775	0.0721
440.2808	0.0658
440.484	0.0534
440.6872	0.0578
440.8904	0.0634
441.0936	0.0767
441.2967	0.0631
441.4999	0.0666
441.703	0.0638
441.9062	0.0538
442.1093	0.0507
442.3124	0.0744
442.5155	0.0397
442.7185	0.0557
442.9216	0.0423
443.1246	0.0571
443.3276	0.0493
443.5307	0.0424
443.7337	0.0563
443.9366	0.0498
444.1396	0.0559
444.3426	0.0442
444.5455	0.0439
444.7484	0.0384
444.9513	0.0378
445.1542	0.0512
445.3571	0.0386
445.56	0.0434
445.7628	0.0233
445.9657	0.0287
446.1685	0.0517
446.3713	0.0472
446.5741	0.0373
446.7769	0.0399
446.9797	0.0378
447.1824	0.0454
447.3852	0.0302
447.5879	0.043
447.7906	0.0477
447.9933	0.0317
448.196	0.0342
448.3986	0.0364
448.6013	0.03
448.8039	0.0083
449.0066	0.0118
449.2092	0.0278
449.4118	0.0366
449.6143	0.0186
449.8169	0.0242
450.0195	0.0216
450.222	0.0059
450.4245	0.0277
450.627	0.0294
450.8295	0.0186
451.032	0.0227
451.2345	0.0173
451.4369	0.0204
451.6394	0.0199
451.8418	-0.002
452.0442	0.0142
452.2466	0.0256
452.449	0.0123
452.6513	0.0111
452.8537	0.0036
453.056	0.004
453.2583	0.0195
453.4607	0.0112
453.663	0.002
453.8652	0.0292
454.0675	0.0003
454.2697	0.0228
454.472	0.0046
454.6742	0.0188
454.8764	0.0105
455.0786	0.0216
455.2808	0.0037
455.4829	0.018
455.6851	0.012
455.8872	0.0154
456.0893	0.024
456.2915	-0.0072
456.4935	0.0123
456.6956	-0.0041
456.8977	0.0162
457.0997	0.0008
457.3018	-0.0099
457.5038	0.0053
457.7058	-0.0017
457.9078	0.0082
458.1098	0.0186
458.3117	0.0099
458.5137	0.0051
458.7156	0.0037
458.9175	-0.0019
459.1194	0.0009
459.3213	0.0036
459.5232	-0.0051
459.725	-0.0017
459.9269	0.0062
460.1287	0.0023
460.3305	0.0111
460.5323	0.0044
460.7341	0.0064
460.9359	0.0077
461.1376	0.012
461.3394	0.0079
461.5411	-0.0056
461.7428	0.0019
461.9445	0.0115
462.1462	0.02
462.3479	-0.0134
462.5495	0.0157
462.7512	0.0001
462.9528	0.0041
463.1544	-0.0094
463.356	-0.0076
463.5576	0.0123
463.7592	-0.0059
463.9607	0.0069
464.1623	0.0061
464.3638	0.0167
464.5653	-0.0029
464.7668	0.0025
464.9683	0.0117
465.1697	0.0091
465.3712	-0.0046
465.5726	-0.0071
465.7741	0.0048
465.9755	-0.0028
466.1769	-0.0025
466.3782	-0.01
466.5796	-0.0097
466.7809	0.0067
466.9823	-0.0047
467.1836	0.0031
467.3849	-0.0124
467.5862	0.0015
467.7875	-0.0009
467.9887	0.0123
468.19	0.0022
468.3912	0.0032
468.5924	0.0011
468.7936	-0.0061
468.9948	0.0042
469.196	-0.0035
469.3972	-0.0138
469.5983	-0.0054
469.7994	-0.015
470.0006	-0.0042
470.2017	0.0012
470.4027	-0.0077
470.6038	0.0065
470.8049	-0.019
471.0059	-0.0057
471.2069	-0.0319
471.408	-0.0031
471.6089	0.0112
471.8099	-0.0107
472.0109	0.0071
472.2119	-0.013
472.4128	-0.0208
472.6137	0.0054
472.8146	-0.0153
473.0155	-0.0031
473.2164	-0.0097
473.4173	0.0115
473.6181	0.0038
473.819	-0.0077
474.0198	-0.0235
474.2206	-0.0006
474.4214	-0.0071
474.6222	0.0032
474.8229	-0.0171
475.0237	-0.0057
475.2244	-0.0033
475.4251	-0.0022
475.6258	-0.0057
475.8265	-0.0049
476.0272	0.0139
476.2278	0.005
476.4285	-0.0035
476.6291	-0.0155
476.8297	-0.0014
477.0303	-0.0114
477.2309	0.0068
477.4315	-0.0157
477.632	-0.0045
477.8326	-0.0015
478.0331	-0.0046
478.2336	0.006
478.4341	-0.0098
478.6346	-0.0072
478.8351	-0.0082
479.0355	-0.0066
479.236	-0.0012
479.4364	-0.0045
479.6368	-0.008
479.8372	-0.0122
480.0376	0.0022
480.2379	-0.0253
480.4383	-0.0033
480.6386	-0.0022
480.8389	0.0055
481.0392	-0.0204
481.2395	-0.0114
481.4398	0.001
481.6401	-0.0034
481.8403	-0.0096
482.0405	-0.0118
482.2408	-0.0022
482.441	-0.0004
482.6411	-0.0051
482.8413	-0.0087
483.0415	-0.0109
483.2416	-0.0073
483.4417	-0.0024
483.6419	-0.0064
483.8419	-0.0052
484.042	0.0109
484.2421	-0.0017
484.4422	-0.0024
484.6422	-0.0061
484.8422	-0.0076
485.0422	-0.007
485.2422	0.0026
485.4422	-0.0187
485.6422	-0.0091
485.8421	-0.006
486.042	0.0008
486.242	-0.0116
486.4419	-0.0131
486.6417	-0.0181
486.8416	-0.0163
487.0415	-0.0079
487.2413	-0.01
487.4411	-0.0056
487.641	-0.0138
487.8408	0.0104
488.0405	0.0025
488.2403	-0.0066
488.4401	0.0037
488.6398	-0.0003
488.8395	-0.0066
489.0392	0.006
489.2389	-0.0153
489.4386	-0.0053
489.6383	-0.0051
489.8379	-0.005
490.0376	-0.0067
490.2372	-0.0039
490.4368	-0.0004
490.6364	-0.0012
490.836	0.001
491.0355	-0.005
491.2351	-0.0022
491.4346	0.0008
491.6341	-0.0106
491.8336	0.0007
492.0331	-0.017
492.2326	-0.0152
492.432	-0.005
492.6315	0.0012
492.8309	-0.0164
493.0303	-0.0096
493.2297	-0.0054
493.4291	-0.0015
493.6284	-0.0088
493.8278	-0.0027
494.0271	0.0002
494.2264	0.0018
494.4257	-0.0159
494.625	-0.0096
494.8243	-0.0098
495.0236	-0.0106
495.2228	-0.0191
495.422	-0.011
495.6213	-0.0097
495.8205	0.0053
496.0196	-0.0022
496.2188	0.0067
496.418	-0.0153
496.6171	-0.0058
496.8162	-0.0121
497.0153	0.0038
497.2144	-0.0101
497.4135	0.0066
497.6126	-0.0184
497.8116	0.0014
498.0107	-0.0062
498.2097	-0.0126
498.4087	-0.0132
498.6077	-0.0066
498.8067	-0.0036
499.0056	0.0074
499.2046	-0.0041
499.4035	-0.0145
499.6024	-0.0091
499.8013	0.0031
500.0002	-0.0108
500.199	-0.0045
500.3979	-0.0126
500.5967	-0.0135
500.7956	0.0013
500.9944	-0.0006
501.1932	0.0023
501.3919	-0.0082
501.5907	-0.0126
501.7895	-0.0087
501.9882	-0.0172
502.1869	-0.0129
502.3856	-0.008
502.5843	-0.0102
502.783	-0.0078
502.9816	-0.0012
503.1803	-0.0153
503.3789	-0.0084
503.5775	0.0016
503.7761	0.0005
503.9747	0.0002
504.1732	-0.0052
504.3718	-0.0084
504.5703	-0.0009
504.7689	-0.0083
504.9674	-0.003
505.1658	-0.0064
505.3643	-0.0055
505.5628	-0.0119
505.7612	-0.0061
505.9597	0.0051
506.1581	-0.0028
506.3565	0.0077
506.5549	-0.0146
506.7532	-0.0065
506.9516	-0.0012
507.1499	-0.0051
507.3482	-0.0166
507.5465	-0.0077
507.7448	-0.0074
507.9431	-0.0094
508.1414	0.0046
508.3396	0.0023
508.5379	-0.0039
508.7361	-0.0081
508.9343	0.0032
509.1325	-0.0003
509.3306	-0.0008
509.5288	-0.0094
509.7269	-0.0124
509.9251	-0.0084
510.1232	-0.0038
510.3213	-0.0088
510.5193	0.0022
510.7174	-0.0134
510.9154	-0.0091
511.1135	-0.0082
511.3115	-0.0098
511.5095	-0.0141
511.7075	-0.0027
511.9055	-0.0044
512.1034	-0.0039
512.3014	0.003
512.4993	0.005
512.6972	0.0013
512.8951	-0.0069
513.093	0.0012
513.2908	-0.0004
513.4887	0.0022
513.6865	-0.0091
513.8844	-0.0044
514.0822	-0.0093
514.2799	-0.0161
514.4777	0.0062
514.6755	-0.0039
514.8732	-0.0126
515.0709	-0.0076
515.2687	-0.0031
515.4664	-0.0016
515.664	-0.0048
515.8617	-0.005
516.0594	-0.0091
516.257	0.0025
516.4546	-0.0116
516.6522	-0.0022
516.8498	-0.0013
517.0474	-0.0064
517.2449	-0.0034
517.4425	-0.0129
517.64	-0.0033
517.8375	0.0042
518.035	-0.0032
518.2325	-0.008
518.43	-0.0031
518.6274	-0.0001
518.8249	-0.0111
519.0223	-0.0007
519.2197	-0.006
519.4171	-0.0121
519.6145	-0.0075
519.8118	-0.013
520.0092	-0.0016
520.2065	-0.0081
520.4038	-0.0065
520.6011	-0.005
520.7984	-0.0023
520.9956	-0.0004
521.1929	-0.0006
521.3901	0.0003
521.5874	0.0025
521.7846	-0.0119
521.9818	-0.0123
522.1789	-0.0086
522.3761	0.003
522.5732	-0.0098
522.7704	0.0015
522.9675	-0.0001
523.1646	-0.0194
523.3617	-0.0078
523.5587	0.0018
523.7558	0.0003
523.9528	-0.0088
524.1498	-0.0019
524.3468	0.0009
524.5438	-0.0069
524.7408	-0.0045
524.9378	0.0083
525.1347	-0.0135
525.3316	-0.0023
525.5285	-0.0119
525.7254	-0.0085
525.9223	-0.004
526.1192	0.0001
526.316	-0.0105
526.5129	0.0014
526.7097	-0.0022
526.9065	-0.005
527.1033	-0.0044
527.3	0.0008
527.4968	0.0014
527.6935	0.0022
527.8903	-0.0108
528.087	-0.009
528.2837	-0.0048
528.4804	-0.0011
528.677	-0.0053
528.8737	0.0054
529.0703	0.0039
529.2669	-0.0057
529.4635	-0.0018
529.6601	-0.0059
529.8567	-0.0016
530.0532	-0.0082
530.2498	0.0028
530.4463	0.004
530.6428	-0.0059
530.8393	-0.0045
531.0358	-0.0154
531.2322	-0.0071
531.4287	-0.0035
531.6251	-0.0041
531.8215	0.0037
532.0179	-0.0042
532.2143	0.0003
532.4107	0.0067
532.607	-0.0158
532.8034	-0.0022
532.9997	0.0005
533.196	-0.0031
533.3923	-0.0097
533.5886	-0.0012
533.7848	0.0002
533.9811	0.0012
534.1773	-0.0067
534.3735	-0
534.5697	0.0042
534.7659	-0.0037
534.9621	-0.0038
535.1582	-0.0126
535.3544	-0.006
535.5505	-0.0055
535.7466	-0.0094
535.9427	-0.0052
536.1387	-0.0074
536.3348	-0.0007
536.5308	0.0038
536.7269	-0.0047
536.9229	0.002
537.1189	-0.0016
537.3148	-0.0045
537.5108	-0.0026
537.7068	-0.0065
537.9027	0.0052
538.0986	0.001
538.2945	-0.012
538.4904	-0.0029
538.6863	-0.0017
538.8821	-0.008
539.078	-0.004
539.2738	0.0014
539.4696	-0.0048
539.6654	0.0022
539.8611	0.0044
540.0569	-0.0032
540.2526	-0.0048
540.4484	-0.0053
540.6441	0.0006
540.8398	0.0008
541.0355	0.0111
541.2311	-0.0054
541.4268	-0.0158
541.6224	0.0031
541.818	-0.0048
542.0136	-0.0094
542.2092	-0.0002
542.4048	-0.0016
542.6003	-0.0011
542.7959	0.0003
542.9914	-0.0035
543.1869	0.0023
543.3824	0.0001
543.5779	-0.0107
543.7734	-0.0089
543.9688	-0.0046
544.1642	0.0069
544.3596	-0.005
544.555	0.0059
544.7504	-0.0031
544.9458	-0.0096
545.1411	0.0015
545.3365	-0.0019
545.5318	-0.0047
545.7271	0.0001
545.9224	-0.0047
546.1177	-0.0036
546.3129	0.0024
546.5081	-0.0014
546.7034	-0.0061
546.8986	-0.0053
547.0938	-0.0119
547.289	-0.0044
547.4841	0.0035
547.6793	0.0096
547.8744	-0.0072
548.0695	0.005
548.2646	-0.0105
548.4597	0.0079
548.6548	-0.0043
548.8498	-0.0043
549.0448	0.0071
549.2399	-0.0022
549.4349	0.0032
549.6298	0.0037
549.8248	0.0037
550.0198	0.0056
550.2147	-0.0019
550.4096	-0.0054
550.6045	0.0052
550.7994	-0.0011
550.9943	-0.0022
551.1892	0.0004
551.384	-0.0027
551.5788	-0.0003
551.7737	0.0083
551.9685	-0.0041
552.1632	0.0019
552.358	-0.0054
552.5528	0.0045
552.7475	-0.0048
552.9422	0.0006
553.1369	-0.002
553.3316	0.0032
553.5263	-0.0042
553.7209	0.0055
553.9156	0.0004
554.1102	-0.0076
554.3048	-0.0024
554.4994	0.0094
554.694	-0.0066
554.8885	0.0063
555.0831	-0.0102
555.2776	-0.0042
555.4721	-0.0053
555.6666	-0.0095
555.8611	0.0111
556.0555	-0.0011
556.25	-0.0114
556.4444	-0.0087
556.6388	0.005
556.8332	0.0001
557.0276	0.0006
557.222	0.0049
557.4163	-0.0016
557.6107	-0.0061
557.805	0.008
557.9993	-0.0044
558.1936	0.0022
558.3879	0.0066
558.5821	0.0004
558.7764	-0.0061
558.9706	0.0017
559.1648	0.0032
559.359	-0.0065
559.5532	-0.0041
559.7473	-0.0039
559.9415	0.0019
560.1356	-0.0052
560.3297	-0.012
560.5238	-0.0069
560.7179	-0.0016
560.9119	-0.0047
561.106	0.0059
561.3	-0.0076
561.494	-0.0044
561.688	-0.0016
561.882	-0.0047
562.076	0.001
562.2699	-0.002
562.4639	0.0011
562.6578	0.0004
562.8517	-0.0035
563.0456	0.0061
563.2395	0.0057
563.4333	0.0001
563.6272	0.0128
563.821	-0.0065
564.0148	-0.0045
564.2086	-0.005
564.4024	0.0011
564.5961	-0.0041
564.7899	0.0058
564.9836	0.0021
565.1773	0.0052
565.371	0.0077
565.5647	0.0091
565.7584	0.0032
565.952	0.0071
566.1456	0.0034
566.3393	-0.0059
566.5329	-0.0039
566.7264	-0.0043
566.92	-0.0055
567.1136	0.0022
567.3071	0.0007
567.5006	0.0034
567.6941	0.0037
567.8876	-0.0032
568.0811	-0.0058
568.2745	-0.0006
568.468	0.0045
568.6614	-0.0043
568.8548	0.0011
569.0482	-0.0048
569.2416	-0.0013
569.4349	0.0003
569.6283	0.0031
569.8216	-0.0018
570.0149	-0.0008
570.2082	0.0068
570.4015	0.0081
570.5947	0.0017
570.788	0.006
570.9812	0.0064
571.1744	-0.0008
571.3676	-0.0085
571.5608	0.0027
571.754	0.008
571.9471	0.0091
572.1402	0.0034
572.3333	-0.003
572.5264	-0.0034
572.7195	-0.0006
572.9126	0.0056
573.1057	-0.0001
573.2987	0.0009
573.4917	-0.0014
573.6847	-0.0054
573.8777	0.004
574.0707	0.0094
574.2636	0.0017
574.4566	-0.0013
574.6495	-0.0004
574.8424	-0.004
575.0353	-0.0016
575.2281	0.0102
575.421	-0.0003
575.6138	0.0067
575.8067	-0.0012
575.9995	0.0022
576.1923	0.0006
576.385	0.0004
576.5778	0.0014
576.7706	0.004
576.9633	-0.0009
577.156	0.0018
577.3487	0.0009
577.5414	-0.0041
577.734	-0.0022
577.9267	0.0067
578.1193	-0.0103
578.3119	-0.0024
578.5045	0.0001
578.6971	0.0019
578.8897	0.0066
579.0822	-0.0029
579.2747	0.0024
579.4673	-0.0073
579.6598	-0.0123
579.8522	0.0001
580.0447	-0.0017
580.2372	-0.0002
580.4296	0.0024
580.622	-0.0006
580.8144	0.005
581.0068	-0
581.1992	-0.0125
581.3915	-0.0073
581.5839	-0.0063
581.7762	-0.006
581.9685	-0.0051
582.1608	0.0089
582.353	-0.002
582.5453	0.0015
582.7375	0.0054
582.9298	0.002
583.122	-0.0029
583.3142	-0.0012
583.5063	0.0003
583.6985	0.0027
583.8906	-0.0026
584.0827	-0.0008
584.2749	0.0054
584.4669	0.0031
584.659	-0.0031
584.8511	0.0017
585.0431	-0.002
585.2352	-0
585.4272	0.0008
585.6192	0.0062
585.8111	0.0016
586.0031	0.0019
586.195	-0.002
586.387	0.0047
586.5789	-0.002
586.7708	0.0067
586.9627	0.0036
587.1545	-0.0033
587.3464	0.0043
587.5382	0.0054
587.73	0.0008
587.9218	0.0043
588.1136	-0.0017
588.3053	0.0003
588.4971	-0.0018
588.6888	-0.008
588.8805	0.001
589.0722	0.0102
589.2639	-0.0026
589.4556	-0.0025
589.6472	0.0007
589.8389	-0.0097
590.0305	-0.0136
590.2221	-0.0028
590.4137	-0.0055
590.6052	0.0017
590.7968	0.0008
590.9883	0.0015
591.1798	0.0008
591.3713	-0.0016
591.5628	0.0055
591.7543	0.0032
591.9458	0.0012
592.1372	0.0086
592.3286	0.0036
592.52	0.0017
592.7114	-0.0022
592.9028	-0.0059
593.0941	0.0048
593.2855	0.0027
593.4768	-0.0086
593.6681	-0.0058
593.8594	-0.0025
594.0506	-0.0043
594.2419	0.0085
594.4331	0.0062
594.6244	0.0077
594.8156	-0.0056
595.0067	0.0103
595.1979	0.005
595.3891	0.0044
595.5802	-0.0003
595.7713	-0.0007
595.9624	0.0036
596.1535	0.0075
596.3446	0.0057
596.5357	0.0035
596.7267	0.0066
596.9177	0.0041
597.1087	-0.0106
597.2997	-0.0014
597.4907	0.007
597.6817	-0.0014
597.8726	0.004
598.0635	0.0017
598.2544	-0.0001
598.4453	0.001
598.6362	0.0011
598.827	0.0041
599.0179	0.0033
599.2087	0.004
599.3995	0.0008
599.5903	-0.0016
599.7811	0.0027
599.9718	0.0036
600.1626	-0.0034
600.3533	-0.0009
600.544	-0.0005
600.7347	-0.002
600.9254	0.0043
601.116	-0.0114
601.3067	-0.0004
601.4973	0.0039
601.6879	0.0068
601.8785	0.0017
602.0691	-0.0024
602.2596	0.0028
602.4502	0.0134
602.6407	0
602.8312	0.0067
603.0217	-0.0046
603.2122	-0.0015
603.4027	0.0066
603.5931	0.0007
603.7835	-0.0036
603.9739	-0.004
604.1643	-0.002
604.3547	-0.0018
604.5451	0.0043
604.7354	0.0012
604.9257	-0.0052
605.116	-0.0026
605.3063	-0.001
605.4966	0.0017
605.6869	-0.0041
605.8771	0.0139
606.0673	0.0019
606.2575	0.0059
606.4477	0.0076
606.6379	0.0039
606.8281	-0.0036
607.0182	0.0001
607.2083	0.0068
607.3985	-0.0032
607.5885	-0.0027
607.7786	-0.0015
607.9687	0.0011
608.1587	0.0033
608.3488	0.002
608.5388	0.0059
608.7288	-0.0024
608.9187	0.0005
609.1087	-0.0059
609.2986	-0.0093
609.4886	0.0007
609.6785	0.006
609.8684	0.0036
610.0582	0.0069
610.2481	0.0014
610.4379	0.0038
610.6278	-0.0028
610.8176	-0.0005
611.0074	0.0017
611.1971	-0.0016
611.3869	-0.0024
611.5766	-0.003
611.7664	0.0099
611.9561	0.0026
612.1458	-0.0035
612.3354	0.0017
612.5251	0.0036
612.7147	0.0062
612.9044	0.0077
613.094	-0.003
613.2836	0.0026
613.4731	-0.0009
613.6627	-0.0028
613.8522	0.004
614.0417	0.0078
614.2313	0.0035
614.4207	-0.003
614.6102	-0.0016
614.7997	-0.001
614.9891	0.0042
615.1785	0.0028
615.3679	-0.0003
615.5573	0.0129
615.7467	0.0042
615.9361	0.0054
616.1254	0.0045
616.3147	0.0084
616.504	0.0131
616.6933	0.0069
616.8826	0.0075
617.0718	0.009
617.2611	0.0077
617.4503	-0.0013
617.6395	-0.0016
617.8287	0.0071
618.0179	-0.0013
618.207	0.0069
618.3961	0.0046
618.5853	0.0031
618.7744	-0.0021
618.9634	0.0081
619.1525	-0.0002
619.3416	0.0004
619.5306	0.007
619.7196	-0.0015
619.9086	-0.0018
620.0976	0.0082
620.2866	-0.0027
620.4755	0.004
620.6645	0.0058
620.8534	0.0067
621.0423	0.001
621.2312	0.0147
621.42	0.0007
621.6089	-0.0037
621.7977	0.0121
621.9865	-0.0004
622.1753	0.0072
622.3641	-0.0016
622.5529	0.0071
622.7416	0.0006
622.9303	-0.0009
623.1191	0.0074
623.3078	-0.0001
623.4964	0.0049
623.6851	0.0062
623.8737	0.0042
624.0624	0.0051
624.251	0.0038
624.4396	-0.003
624.6282	-0.0038
624.8167	0.0002
625.0053	0.0064
625.1938	0.0072
625.3823	0.0005
625.5708	-0.0071
625.7593	-0.001
625.9477	-0.0084
626.1362	0.001
626.3246	-0.0007
626.513	0.0069
626.7014	0.0101
626.8898	0.0015
627.0781	0.0097
627.2665	0.0038
627.4548	0.014
627.6431	0.0089
627.8314	0.0072
628.0197	0.005
628.2079	-0.001
628.3962	-0.0033
628.5844	0.0017
628.7726	0.0031
628.9608	0.0042
629.1489	-0.0015
629.3371	0.0047
629.5252	-0.001
629.7134	0.0151
629.9015	0.0023
630.0895	0.0045
630.2776	0.0082
630.4657	-0.0001
630.6537	0.0036
630.8417	0.0024
631.0297	-0.0035
631.2177	-0.0011
631.4057	0.0013
631.5936	0.0022
631.7815	0.003
631.9695	0.011
632.1574	0.0078
632.3452	0.0093
632.5331	0.0118
632.7209	0.0039
632.9088	0.0111
633.0966	0.0088
633.2844	0.0003
633.4722	0.0031
633.6599	0.0147
633.8477	0.0021
634.0354	0.0047
634.2231	0.0036
634.4108	0.0073
634.5985	0.0068
634.7861	0.0141
634.9738	0.0033
635.1614	0.0034
635.349	0.0072
635.5366	-0.0003
635.7242	0.0016
635.9117	0.0038
636.0993	0.0054
636.2868	0.0126
636.4743	0.0001
636.6618	0.0149
636.8492	0.0012
637.0367	0.0117
637.2241	0.0006
637.4115	-0.0018
637.5989	-0.0026
637.7863	0.0048
637.9737	0.0036
638.161	0.0045
638.3484	0.0006
638.5357	0.0004
638.723	0.0025
638.9103	0.0042
639.0975	0.0107
639.2848	0.0053
639.472	0.0072
639.6592	0.0116
639.8464	0.0109
640.0336	0.0092
640.2208	-0.0007
640.4079	-0.0002
640.595	0.0052
640.7821	0.0031
640.9692	0.0004
641.1563	0.0031
641.3434	0.0081
641.5304	0.002
641.7174	0.0056
641.9044	-0.0025
642.0914	0.0084
642.2784	0.0046
642.4653	0.0047
642.6523	0.0044
642.8392	0.0009
643.0261	0.0089
643.213	0.0029
643.3999	-0.0046
643.5867	-0.0039
643.7735	0.0032
643.9604	-0.0074
644.1472	0.0062
644.3339	0.0053
644.5207	0.0046
644.7075	0.0037
644.8942	0.012
645.0809	0.0061
645.2676	0.01
645.4543	0.0045
645.6409	0.003
645.8276	-0.0003
646.0142	0.0087
646.2008	-0.0041
646.3874	-0.0055
646.574	-0.0022
646.7605	-0.0109
646.9471	-0.0114
647.1336	0.003
647.3201	-0.0002
647.5066	0.0015
647.6931	0.0109
647.8795	0.0008
648.0659	0.008
648.2524	0.0077
648.4388	-0.0023
648.6252	0.0053
648.8115	-0.0019
648.9979	-0.0055
649.1842	-0.0017
649.3705	0.0031
649.5568	0.0063
649.7431	0.009
649.9294	0.0019
650.1156	0.0052
650.3018	-0.0023
650.488	0.0104
650.6742	0.0041
650.8604	0.0012
651.0466	-0.002
651.2327	0.0064
651.4188	0.0109
651.6049	-0.0008
651.791	-0.0001
651.9771	0.0067
652.1632	0.0106
652.3492	0.0059
652.5352	0.0076
652.7212	0.0055
652.9072	0.0088
653.0932	0.0029
653.2791	0.0004
653.465	0.0055
653.651	-0.0026
653.8369	0.0007
654.0227	0.002
654.2086	0.0084
654.3944	0.0093
654.5803	0.0078
654.7661	0.0026
654.9519	-0.0013
655.1377	-0.0005
655.3234	0.0011
655.5092	-0.0027
655.6949	-0.0022
655.8806	-0.0044
656.0663	-0.0032
656.2519	0.0007
656.4376	-0.0036
656.6232	0.0045
656.8088	-0.0069
656.9945	-0.0014
657.18	0.0002
657.3656	0.0055
657.5511	0.001
657.7367	-0.0004
657.9222	0.004
658.1077	0.0032
658.2932	0.0132
658.4786	-0.0029
658.6641	-0.0005
658.8495	0.0036
659.0349	0
659.2203	0.0073
659.4057	0.0021
659.591	0.0093
659.7764	0.0025
659.9617	0.0007
660.147	0.0054
660.3323	0.0037
660.5176	0.0196
660.7028	0.0088
660.888	0.0056
661.0733	-0.002
661.2585	-0.0059
661.4436	0.0029
661.6288	-0.0037
661.8139	-0.0014
661.9991	-0.0007
662.1842	-0.0009
662.3693	0.0025
662.5544	-0.0017
662.7394	0.001
662.9245	-0.0022
663.1095	-0.001
663.2945	0.001
663.4795	0.0004
663.6644	0.0001
663.8494	0.0045
664.0343	0.0028
664.2193	-0.0012
664.4042	-0.0012
664.589	-0.0043
664.7739	-0.0046
664.9587	-0.0061
665.1436	-0.002
665.3284	-0.0016
665.5132	0.0008
665.698	0.0002
665.8827	0.009
666.0675	-0.0013
666.2522	-0.0067
666.4369	-0.0008
666.6216	0.0047
666.8063	0.0043
666.9909	-0.002
667.1756	-0.0067
667.3602	0.0028
667.5448	0.005
667.7294	0.0082
667.9139	0.0074
668.0985	0.012
668.283	0.0032
668.4675	0.0094
668.652	0.0054
668.8365	0.0051
669.0209	0.0148
669.2054	0.0126
669.3898	0.0088
669.5742	0.0109
669.7586	0.0126
669.943	0.0103
670.1273	0.0099
670.3117	0.0054
670.496	0.0072
670.6803	0.0156
670.8646	0.0097
671.0488	-0.0035
671.2331	0.0047
671.4173	0.0091
671.6015	-0.0025
671.7857	0.005
671.9699	0.0075
672.1541	0.0087
672.3382	0.0045
672.5223	-0.0004
672.7064	0.0074
672.8905	0.0098
673.0746	-0.0012
673.2587	-0.0028
673.4427	0.0086
673.6267	0.0075
673.8107	0.0154
673.9947	0.0032
674.1787	0.0027
674.3626	0.0006
674.5465	0.0085
674.7304	0.0098
674.9143	0.0026
675.0982	0.0121
675.2821	-0.0061
675.4659	0.0072
675.6497	0.0059
675.8335	0.0034
676.0173	0.0057
676.2011	0.0019
676.3849	0.0052
676.5686	-0.0033
676.7523	-0.0022
676.936	0.0069
677.1197	-0.0038
677.3034	0.0001
677.487	0.0075
677.6706	-0.0021
677.8542	0.004
678.0378	0.0102
678.2214	0.0054
678.405	0.0051
678.5885	-0.0053
678.772	0.0059
678.9555	0.0014
679.139	-0.0016
679.3225	0.0018
679.5059	-0.0005
679.6894	0.002
679.8728	-0.0022
680.0562	-0.0022
680.2395	-0.002
680.4229	-0.003
680.6062	0.008
680.7896	0.0039
680.9729	-0.0006
681.1562	0.0014
681.3394	0.0059
681.5227	-0.0054
681.7059	0.001
681.8891	-0.0021
682.0723	0.0065
682.2555	0.0024
682.4387	-0.0056
682.6218	0.0049
682.805	0.011
682.9881	0.0051
683.1712	-0.0041
683.3542	0.0022
683.5373	0.0065
683.7203	-0.0054
683.9034	0.004
684.0864	-0.0011
684.2694	0.0011
684.4523	0.0062
684.6353	-0.0003
684.8182	0.0032
685.0011	-0.0042
685.184	0.0064
685.3669	-0.0018
685.5498	0.0017
685.7326	0.0002
685.9154	-0.0037
686.0982	0.0076
686.281	0.011
686.4638	0.0048
686.6465	-0.0017
686.8293	-0.004
687.012	0.0053
687.1947	-0.0066
687.3774	0.005
687.56	-0.0042
687.7427	0.0024
687.9253	0.0031
688.1079	0.0065
688.2905	0.0065
688.4731	0.0087
688.6556	-0.0008
688.8382	-0.0003
689.0207	-0.0008
689.2032	-0.0094
689.3857	-0.0048
689.5681	-0.0037
689.7506	-0.0047
689.933	-0.0078
690.1154	0.0021
690.2978	-0.0016
690.4802	-0.0057
690.6626	-0.0139
690.8449	-0.0042
691.0272	0.0026
691.2095	-0.0035
691.3918	-0.0066
691.5741	0.0048
691.7563	-0.0038
691.9386	0.0082
692.1208	0.0022
692.303	0.0125
692.4852	0.0034
692.6673	0.011
692.8495	0.0038
693.0316	0.0051
693.2137	0.0028
693.3958	0.0075
693.5778	0.0001
693.7599	0.003
693.9419	0.0048
694.1239	-0.0027
694.3059	0.0037
694.4879	0.007
694.6699	-0.0022
694.8518	-0.0007
695.0337	-0.0004
695.2157	0.0075
695.3975	0.0107
695.5794	0.0148
695.7613	0.0147
695.9431	0.001
696.1249	0.0091
696.3067	0.0089
696.4885	0.0098
696.6703	0.0056
696.852	0.0049
697.0337	0.0074
697.2154	0.0042
697.3971	0.0094
697.5788	0.0053
697.7605	0.0049
697.9421	0.0099
698.1237	0.0029
698.3053	-0
698.4869	-0
698.6685	-0.0056
698.85	-0.0012
699.0315	0.0091
699.213	-0.0022
699.3945	-0.0008
699.576	0.0093
699.7575	0.0063
699.9389	0.0119
700.1203	0.0064
700.3017	-0.0033
700.4831	0.0002
700.6645	0.0025
700.8458	0.0145
701.0271	0.0022
701.2084	0.0119
701.3897	0.0055
701.571	0.0044
701.7523	-0.0036
701.9335	0.0062
702.1147	-0.0022
702.2959	0.0001
702.4771	0.0035
702.6583	0.0024
702.8394	-0.0051
703.0205	-0.0058
703.2016	-0.0004
703.3827	0.0025
703.5638	0.0175
703.7449	0.0048
703.9259	0.0128
704.1069	-0.003
704.2879	0.0046
704.4689	0.0091
704.6499	0.0002
704.8308	0.0047
705.0117	-0.0008
705.1927	0.006
705.3735	-0.0013
705.5544	-0.0037
705.7353	-0.0032
705.9161	-0.0032
706.0969	-0.0048
706.2777	-0.003
706.4585	-0.0045
706.6393	0.0093
706.82	-0.0033
707.0007	-0.0021
707.1815	0.0025
707.3621	-0.0008
707.5428	0.0007
707.7235	0.002
707.9041	-0.0026
708.0847	-0.0086
708.2653	-0.0158
708.4459	-0.0145
708.6265	-0.0077
708.807	-0.0074
708.9875	-0.0069
709.168	-0.0055
709.3485	-0.0096
709.529	-0.0061
709.7095	-0.0095
709.8899	-0.0027
710.0703	-0.0194
710.2507	0.0008
710.4311	-0.0004
710.6115	-0.0064
710.7918	-0.0093
710.9721	-0.0019
711.1524	-0.0127
711.3327	-0.0061
711.513	-0.0013
711.6932	-0.0007
711.8735	0.0077
712.0537	-0.0041
712.2339	-0.0038
712.4141	0.0021
712.5942	-0.0063
712.7744	-0.0052
712.9545	-0.0072
713.1346	-0.0091
713.3147	-0.0033
713.4947	0.0012
713.6748	-0.0076
713.8548	-0.0078
714.0348	-0.0062
714.2148	-0.0008
714.3948	0.0094
714.5748	-0.0048
714.7547	-0.0011
714.9346	0.0061
715.1145	-0.0041
715.2944	-0.0003
715.4743	0.0008
715.6541	0.0014
715.834	0.0091
716.0138	-0.0078
716.1936	-0.0099
716.3733	-0.0059
716.5531	-0
716.7328	-0.0018
716.9126	0.0023
717.0923	-0.0033
717.2719	0.0054
717.4516	0.0024
717.6312	0.0055
717.8109	-0.0036
717.9905	0.0009
718.1701	-0.0068
718.3496	-0.0096
718.5292	0.002
718.7087	-0.0035
718.8882	-0.0045
719.0677	0.0082
719.2472	0.0039
719.4267	0.0084
719.6061	0.0012
719.7856	0.0104
719.965	0.0105
720.1443	0.0011
720.3237	0.0112
720.5031	0.0025
720.6824	0.0035
720.8617	-0.0014
721.041	0.0058
721.2203	0.0088
721.3995	0.0015
721.5788	-0.0034
721.758	0.0051
721.9372	-0.0015
722.1164	0.0063
722.2956	0.0047
722.4747	0.0056
722.6538	0.0052
722.8329	0.0145
723.012	0.0009
723.1911	-0.0028
723.3702	0.004
723.5492	0.0076
723.7282	0.003
723.9072	-0.0031
724.0862	-0.0046
724.2652	-0.0036
724.4441	0.0063
724.623	0.0014
724.8019	0.0013
724.9808	0.0011
725.1597	-0.0131
725.3385	0.0034
725.5174	0.0009
725.6962	0.0033
725.875	-0.0035
726.0538	0.0111
726.2325	-0.0004
726.4112	0.0069
726.59	-0.003
726.7687	-0.0032
726.9474	-0.0005
727.126	-0.0049
727.3047	-0.0047
727.4833	-0.0025
727.6619	-0.0054
727.8405	-0.0083
728.0191	-0.0142
728.1976	-0.0002
728.3762	-0.0065
728.5547	0.009
728.7332	-0.0038
728.9116	-0.0003
729.0901	-0.0015
729.2686	-0.0088
729.447	-0.0062
729.6254	0.0019
729.8038	0.0073
729.9821	-0.0125
730.1605	0.0132
730.3388	0.0004
730.5171	0.0044
730.6954	0.0046
730.8737	0.0043
731.0519	0.0027
731.2302	0.0075
731.4084	0.0073
731.5866	0.0059
731.7648	0.0046
731.9429	0.0047
732.1211	-0.0039
732.2992	0.0007
732.4773	-0.0022
732.6554	-0.0051
732.8335	-0.0025
733.0115	0.0061
733.1896	0.005
733.3676	-0.0042
733.5456	-0.0002
733.7235	0.0152
733.9015	-0.0046
734.0794	0.0012
734.2574	-0.0049
734.4353	0.001
734.6131	0.0126
734.791	0.0066
734.9689	0.0022
735.1467	0.0058
735.3245	-0.0094
735.5023	0.0004
735.68	-0.0012
735.8578	0.0062
736.0355	-0.0096
736.2132	0.0004
736.3909	-0.0064
736.5686	-0.0109
736.7463	0.0074
736.9239	0.0028
737.1015	0.0006
737.2791	0.0054
737.4567	0.0068
737.6343	0.0022
737.8118	0.0061
737.9894	0.0078
738.1669	-0.0062
738.3444	0.0002
738.5218	0.0082
738.6993	-0.005
738.8767	-0.0052
739.0541	0.0091
739.2315	-0.0118
739.4089	-0.0007
739.5863	0.0079
739.7636	-0.0101
739.9409	-0.0075
740.1182	0.0027
740.2955	-0.0054
740.4728	0.0016
740.65	-0.004
740.8272	-0.0013
741.0044	-0.0117
741.1816	0.0038
741.3588	0.0042
741.5359	0.0068
741.7131	-0.0091
741.8902	0.0025
742.0673	0.0016
742.2444	-0.0026
742.4214	-0.0093
742.5985	-0.0022
742.7755	-0.0061
742.9525	-0.0156
743.1295	0.0045
743.3064	0.0076
743.4834	0.0082
743.6603	0.0056
743.8372	0.0007
744.0141	0.0067
744.191	0.0085
744.3678	0.0044
744.5446	0.0109
744.7215	0.009
744.8982	-0.0027
745.075	0.004
745.2518	0.0129
745.4285	0.0086
745.6052	0.0036
745.7819	-0.0008
745.9586	-0.0095
746.1353	0.0029
746.3119	-0.0083
746.4885	-0.0091
746.6651	-0.0026
746.8417	0.0011
747.0183	-0.0024
747.1948	-0.0029
747.3714	-0.0061
747.5479	0.0067
747.7244	-0.0037
747.9008	0.0119
748.0773	0.0081
748.2537	0.006
748.4301	-0.0113
748.6065	0.004
748.7829	0.0043
748.9593	-0.0049
749.1356	0.0031
749.3119	0.0064
749.4882	-0.0123
749.6645	-0.0016
749.8408	-0.0057
750.017	-0.0108
750.1933	-0.0058
750.3695	-0.0118
750.5457	0.0051
750.7218	0.0084
750.898	0.0109
751.0741	0.0001
751.2502	-0.0014
751.4263	-0.0071
751.6024	-0.0002
751.7784	-0.0009
751.9545	0.0032
752.1305	0.0071
752.3065	-0.0026
752.4825	0.0024
752.6584	-0.0043
752.8344	-0.0032
753.0103	-0.0063
753.1862	-0.0125
753.3621	0.0044
753.5379	0.0007
753.7138	-0.0019
753.8896	-0.0029
754.0654	0.0025
754.2412	0.0009
754.417	0.0035
754.5927	0.0021
754.7685	-0.0026
754.9442	0.0054
755.1199	0.0082
755.2956	0.0037
755.4712	0.0048
755.6469	0.0014
755.8225	-0.0004
755.9981	0.003
756.1736	-0.0016
756.3492	0.0038
756.5248	0.0031
756.7003	0.0012
756.8758	0.005
757.0513	-0.0096
757.2267	-0.0002
757.4022	0.0118
757.5776	-0.0031
757.753	0.0015
757.9284	0.0005
758.1038	0.0146
758.2791	0.0088
758.4545	-0.0088
758.6298	0.0014
758.8051	0.0031
758.9803	-0.0009
759.1556	-0.0055
759.3308	-0.0122
759.506	0.0047
759.6812	0.0054
759.8564	0.0021
760.0316	-0.0062
760.2067	0.0125
760.3819	0.0055
760.557	0.0223
760.732	0.0049
760.9071	-0.008
761.0821	-0.0007
761.2572	0.0064
761.4322	-0.0018
761.6072	-0.0008
761.7821	-0.0033
761.9571	0.004
762.132	-0.0072
762.3069	-0.008
762.4818	-0.0028
762.6567	0.0031
762.8316	-0.0041
763.0064	-0.0027
763.1812	0.0007
763.356	-0.0088
763.5308	-0.0007
763.7055	0.0108
763.8803	-0.0054
764.055	-0.0119
764.2297	-0.0023
764.4044	-0.0114
764.579	-0.0023
764.7537	-0.006
764.9283	0.0051
765.1029	-0.0111
765.2775	-0.0024
765.4521	-0.007
765.6266	-0.0075
765.8011	-0.007
765.9756	-0.0086
766.1501	0.005
766.3246	-0.0071
766.4991	0.0016
766.6735	0.0013
766.8479	-0.0042
767.0223	0.0068
767.1967	0.0005
767.371	0.0057
767.5454	-0.008
767.7197	0.0013
767.894	0.0051
768.0683	-0.0161
768.2425	0.0096
768.4168	0.0029
768.591	0.0042
768.7652	-0.004
768.9394	0.0004
769.1135	-0.0011
769.2877	0.0146
769.4618	-0.0031
769.6359	0.0062
769.81	-0.0056
769.984	-0.0049
770.1581	-0.012
770.3321	0.0023
770.5061	-0.0043
770.6801	-0.0072
770.8541	-0.0016
771.028	-0.0024
771.202	-0.0118
771.3759	0.0023
771.5498	-0.0107
771.7236	-0.0057
771.8975	-0.0085
772.0713	0.0032
772.2451	-0.0008
772.4189	-0
772.5927	0.0083
772.7665	-0.0034
772.9402	-0.0028
773.1139	0.0034
773.2876	-0.0041
773.4613	0.0121
773.635	-0.001
773.8086	-0.011
773.9822	0.0089
774.1558	0.0057
774.3294	-0.0118
774.503	0.0038
774.6765	0.0074
774.8501	-0.0002
775.0236	0.0071
775.1971	0.0178
775.3705	-0.0119
775.544	0.0183
775.7174	0.0031
775.8908	-0.0023
776.0642	-0.0089
776.2376	0.0122
776.4109	-0.0033
776.5843	-0.0149
776.7576	0.0034
776.9309	0.0068
777.1041	0.011
777.2774	0.0124
777.4506	-0.0088
777.6238	-0.0142
777.797	-0
777.9702	-0.0059
778.1434	-0.0116
778.3165	-0.0202
778.4896	-0.0034
778.6627	-0.0059
778.8358	-0.0006
779.0089	-0.0103
779.1819	-0.0141
779.3549	0.0061
779.5279	0.0034
779.7009	-0.0063
779.8739	0.005
780.0468	-0.0077
780.2197	0.0063
780.3926	-0.0009
780.5655	-0.002
780.7384	-0.0067
780.9112	-0.0076
781.0841	-0.0125
781.2569	0.0042
781.4297	0.0151
781.6024	0.0111
781.7752	0.0077
781.9479	0.0066
782.1206	0.0116
782.2933	-0.0114
782.466	0.0065
782.6386	-0.0072
782.8113	0.0029
782.9839	0.0036
783.1565	0.0087
783.329	0.0078
783.5016	0.0058
783.6741	-0.0123
783.8466	-0.0001
784.0191	0.0137
784.1916	-0.003
784.3641	-0.0042
784.5365	-0.0011
784.7089	0.007
784.8813	-0.0192
785.0537	-0.0082
785.2261	-0.0053
785.3984	-0.0079
785.5707	-0.0095
785.743	-0.0055
785.9153	-0.0082
786.0876	-0.0056
786.2598	-0.0141
786.432	-0.0084
786.6042	-0.0078
786.7764	-0.009
786.9486	0.0024
787.1207	-0.0048
787.2928	0.0116
787.4649	0.009
787.637	0.0033
787.8091	0.0001
787.9811	-0.0019
788.1532	-0.0022
788.3252	0.0061
788.4972	0.0019
788.6691	-0.0044
788.8411	-0.0008
789.013	-0.0105
789.1849	-0.0134
789.3568	-0.0084
789.5287	0.0091
789.7005	-0.0035
789.8723	-0.0114
790.0442	0.0172
790.2159	-0.0034
790.3877	-0.001
790.5595	-0.0212
790.7312	-0.0004
790.9029	-0.0053
791.0746	-0.0138
791.2463	0.0029
791.4179	-0.0081
791.5896	-0.0174
791.7612	-0.0005
791.9328	-0.0042
792.1044	-0.0139
792.2759	-0.0055
792.4474	-0.0111
792.619	0.0042
792.7905	0.0032
792.9619	0.0059
793.1334	0.0103
793.3048	0.021
793.4762	-0.0005
793.6476	0.0062
793.819	-0.0113
793.9904	0.0099
794.1617	-0.0167
794.333	-0.0085
794.5043	-0.0189
794.6756	-0.0141
794.8469	-0.015
795.0181	0.0004
795.1893	-0.0204
795.3605	0.0101
795.5317	-0.0061
795.7029	-0.0089
795.874	0.0134
796.0452	-0.0059
796.2163	0.0043
796.3873	0.0105
796.5584	0.0006
796.7294	-0.0084
796.9005	-0.0009
797.0715	-0.0004
797.2425	-0.0134
797.4134	0.001
797.5844	-0.0006
797.7553	0.0011
797.9262	-0.0017
798.0971	-0.02
798.2679	-0.0124
798.4388	-0.0185
798.6096	0.0016
798.7804	-0.015
798.9512	0.0027
799.122	-0.0048
799.2927	0.0016
799.4635	0.0127
799.6342	-0.0164
799.8049	-0.0012
799.9755	0.0013
800.1462	-0.0028
800.3168	-0.0111
800.4874	0.0121
800.658	0.0189
800.8286	0.0019
800.9991	0.0079
801.1696	0.006
801.3402	0.0258
801.5106	-0.0021
801.6811	-0.0019
801.8516	0.0108
802.022	0.0042
802.1924	0.0048
802.3628	0.0042
802.5332	0.0221
802.7035	0.025
802.8739	-0.0175
803.0442	-0.0112
803.2145	0.0074
803.3847	-0.0174
803.555	0.0018
803.7252	-0.0018
803.8954	-0.0145
804.0656	-0.0124
804.2358	-0.0003
804.4059	0.0194
804.5761	-0.0103
804.7462	-0.0007
804.9163	-0.0074
805.0864	-0.0257
805.2564	-0.014
805.4264	0.0183
805.5965	-0.0193
805.7665	0.0018
805.9364	-0.0012
806.1064	0.0007
806.2763	-0.0054
806.4462	0.0255
806.6161	-0.0055
806.786	0.003
806.9559	-0.0033
807.1257	-0.0145
807.2955	-0.0136
807.4653	-0.0232
807.6351	-0.0036
807.8048	0.0068
807.9746	-0.0064
808.1443	-0.0062
808.314	0.0155
808.4837	0.007
808.6533	0.0001
808.8229	0.0241
808.9926	0.015
809.1622	0.0145
809.3317	0.0001
809.5013	0.0024
809.6708	0.0186
809.8403	0.0348
810.0098	0.0029
810.1793	-0.0014
810.3488	-0.0044
810.5182	-0.0188
810.6876	-0.0001
810.857	-0.0295
811.0264	0.0167
811.1958	0.0098
811.3651	0.0121
811.5344	-0.0054
811.7037	-0.0071
811.873	-0.0253
812.0422	0.0065
812.2115	-0.0025
812.3807	-0.0091
812.5499	-0.0057
812.7191	0.0058
812.8882	-0.0127
813.0574	0.0043
813.2265	0.007
813.3956	-0.0095
813.5646	-0.0081
813.7337	-0.0144
813.9027	-0.0001
814.0718	0.0333
814.2407	0.0067
814.4097	-0.0227
814.5787	-0.027
814.7476	0.0102
814.9165	-0.0029
815.0854	0.0046
815.2543	-0.0134
815.4232	-0.0028
815.592	0.0005
815.7608	-0.0063
815.9296	-0.003
816.0984	0.0252
816.2671	-0.0118
816.4359	0.0124
816.6046	0.0084
816.7733	-0.0071
816.942	-0.0039
817.1106	0.009
817.2793	0.0116
817.4479	0.0098
817.6165	0.0139
817.785	-0.0008
817.9536	-0.0057
818.1221	-0.0112
818.2906	-0.002
818.4591	-0.0076
818.6276	-0.0025
818.7961	0.0022
818.9645	0.015
819.1329	0.0009
819.3013	0.0285
819.4697	0.0161
819.638	0.0016
819.8064	0.013
819.9747	0.0143
820.143	0.0141
820.3113	0.0083
820.4795	0.0108
820.6477	0.0353
820.816	0.0173
820.9842	0.0071
821.1523	0.0071
821.3205	-0.0266
821.4886	-0.0147
821.6567	-0.0262
821.8248	0.0153
821.9929	0.0082
822.1609	0.0036
822.329	-0.0163
822.497	0.0094
822.665	0.0159
822.833	-0.0191
823.0009	0.0093
823.1688	0.004
823.3367	0.0267
823.5046	0.0202
823.6725	0.0267
823.8404	0.0086
824.0082	0.0073
824.176	0.0078
824.3438	0.0202
824.5116	-0.0126
824.6793	-0.0103
824.847	-0.0055
825.0147	-0.0044
825.1824	0.0077
825.3501	0.0131
825.5177	-0.0024
825.6854	-0.0167
825.853	-0.017
826.0206	-0.0048
826.1881	-0.0232
826.3557	-0.025
826.5232	0.0051
826.6907	-0.0495
826.8582	-0.0042
827.0257	-0.0156
827.1931	-0.0006
827.3605	-0.017
827.528	-0.003
827.6953	-0.046
827.8627	-0.0144
828.03	0.015
828.1974	-0.0016
828.3647	-0.0199
828.532	-0.0384
828.6992	-0.01
828.8665	0.0027
829.0337	-0.0062
829.2009	0.025
829.3681	-0.0043
829.5352	0.038
829.7024	-0.0217
829.8695	-0.0178
830.0366	0.0297
830.2037	0.0153
830.3707	0.0299
830.5378	0.0359
830.7048	-0.0056
830.8718	-0.0019
831.0388	-0.0402
831.2057	0.0261
831.3727	0.0244
831.5396	-0.0571
831.7065	-0.0127
831.8734	0.0163
832.0402	-0.0268
832.2071	0.0141
832.3739	-0.0138
832.5407	0.0027
832.7075	-0.0492
832.8742	-0.0327
833.041	-0.0564
833.2077	-0.0039
833.3744	0.019
833.541	-0.0237
833.7077	-0.0413
833.8743	-0.0176
834.0409	0.0294
834.2075	-0.004
834.3741	-0.0195
834.5407	0.0286
834.7072	-0.0053
834.8737	-0.0247
835.0402	-0.0394
835.2067	0.0111
835.3731	0.0118
835.5395	-0.0227
835.706	0.0082
835.8723	-0.0179
836.0387	-0.0023
836.2051	-0.0186
836.3714	-0.0084
836.5377	0.0011
836.704	-0.0067
836.8703	0.0098
837.0365	-0.0427
837.2027	-0.0224
837.3689	-0.0102
837.5351	0.008
837.7013	-0.0508
837.8674	-0.0749
838.0335	-0.0387
838.1997	-0.0028
838.3657	-0.0391
838.5318	-0.0188
838.6978	0.0396
838.8639	0.0194
839.0299	-0.0072
839.1958	0.0197
839.3618	-0.0113
839.5277	-0.0572
839.6937	-0.0109
839.8596	-0.0335
840.0254	-0.011
840.1913	0.0173
840.3571	0.0067
840.523	-0.0826
840.6888	-0.0508
840.8545	-0.0164
841.0203	-0.0209
841.186	-0.0155
841.3517	0.0226
841.5174	-0.0175
841.6831	-0.0399
841.8488	-0.0349
842.0144	-0.0209
842.18	-0.0513
842.3456	0.0287
842.5112	-0.0004
842.6767	-0.0504
842.8422	-0.089
843.0077	-0.0481
843.1732	-0.0478
843.3387	-0.0865
843.5042	-0.0373
843.6696	-0.0307
843.835	-0.0357
844.0004	0.0174
844.1657	-0.0602
844.3311	-0.0448
844.4964	-0.0848
844.6617	-0.0596
844.827	-0.0062
844.9923	-0.0292
845.1575	0.0091
845.3227	0.016
845.4879	-0.0256
845.6531	-0.1203
845.8183	-0.1227
845.9834	-0.0882
846.1485	-0.0733
846.3136	0.0379
846.4787	-0.0927
846.6438	0.0304
846.8088	-0.0818
846.9738	-0.0341
847.1388	-0.073
847.3038	-0.0312
847.4687	-0.0998
847.6337	-0.0145
847.7986	0.0021
847.9635	-0.0881
848.1284	-0.0283
848.2932	0.033
848.458	-0.0255
848.6228	0.0571
848.7876	0.0239
848.9524	-0.1241
849.1172	-0.0904
849.2819	0.0208
849.4466	-0.1632
849.6113	-0.0923
849.7759	-0.0463
849.9406	-0.0431
850.1052	-0.058
850.2698	-0.0371
850.4344	-0.0628
850.599	-0.1372
850.7635	0.0119
850.928	-0.0172
851.0925	-0.0874
851.257	0.001
851.4215	-0.0198
851.5859	-0.0346
851.7503	-0.0127
851.9147	0.0883
852.0791	-0.1005
852.2434	-0.0083
852.4078	0.006
852.5721	-0.0165
852.7364	-0.0207
852.9007	-0.1769
853.0649	-0.0008
853.2291	-0.1143
853.3934	-0.0168
853.5575	-0.0509
853.7217	-0.0883
853.8859	-0.103
854.05	-0.087
854.2141	-0.0547
854.3782	-0.1545
854.5423	-0.0726
854.7063	0.136
854.8703	0.1187
855.0343	-0.142
855.1983	-0.2406
855.3623	0.0369
855.5262	0.0832
855.6901	-0.1176
855.854	-0.0009
856.0179	-0.041
856.1818	-0.0531
856.3456	-0.1342
856.5094	-0.1646
856.6732	-0.2742
856.837	-0.087
857.0008	0.019
857.1645	-0.096
857.3282	-0.0287
857.4919	0.0865
857.6556	-0.1371
857.8192	-0.1283
857.9828	-0.004
858.1465	-0.105
858.31	-0.1926
858.4736	-0.1078
858.6372	-0.2943
858.8007	-0.2915
858.9642	-0.073
859.1277	-0.2001
859.2911	-0.1181
859.4546	0.0252
859.618	-0.3876
859.7814	-0.1431
859.9448	-0.0877
860.1081	-0.0835
860.2715	0.0172
860.4348	-0.0389
860.5981	-0.1803
860.7614	0.0921
860.9246	-0.0539
861.0879	-0.1995
861.2511	-0.0134
861.4143	-0.2863
861.5774	0.0429
861.7406	-0.265
861.9037	0.0532
862.0668	-0.2013
862.2299	-0.0755
862.393	-0.597
862.556	-0.049
862.7191	-0.4774
862.8821	-0.2879
863.0451	-0.0338
863.208	0.0904
863.371	0.0922
863.5339	-0.1934
863.6968	0.0727
863.8597	-0.2967
864.0225	-0.2134
864.1854	-0.3111
864.3482	-0.2779
864.511	-0.0849
864.6737	-0.0092
864.8365	0.1254
864.9992	-0.7678
865.1619	-0.3166
865.3246	0.0716
865.4873	0.0905
865.65	-0.318
865.8126	-0.2007
865.9752	0.2265
866.1378	0.1677
866.3004	-0
866.4629	0.3089
866.6254	-0.1009
866.7879	-0.0901
866.9504	-0
867.1129	-0
867.2753	-0.0906
867.4377	-0.0103
867.6001	-0.2151
867.7625	0.0258
867.9249	-0.8483
868.0872	-0.1029
868.2495	-0.1035
868.4118	-0.3397
868.5741	-0.0787
868.7363	-0.2722
868.8986	-0.2796
869.0608	-0.322
869.223	-0.04
869.3851	-0
869.5473	-0
869.7094	-0.0312
869.8715	-0.5923
870.0336	0.0691
870.1957	-0.3466
870.3577	-0
870.5197	0.1492
870.6817	-0.5912
870.8437	-0.0285
871.0057	-0
871.1676	0.595
871.3295	-0.0542
871.4914	-0
871.6533	-0.6115
871.8151	-0.3175
871.977	-0
872.1388	-0
872.3006	-0.1069
872.4623	-0
872.6241	0.8291
872.7858	0.1348
872.9475	-0.1085
873.1092	-0.4867
873.2709	0.5357
873.4325	0.212
873.5941	-0.36
873.7557	-0
873.9173	-0
874.0789	-0.6386
874.2404	0.0369
874.4019	0.3534
874.5634	-0.4186
874.7249	-0.1497
874.8863	-0.0659
875.0478	-0.0753
875.2092	-0
875.3706	0.8982
875.5319	-0.5559
875.6933	-0
875.8546	-0.5139
876.0159	-0
876.1772	-0
876.3385	-0
876.4997	0.2548
876.6609	-0.4777
876.8221	-0
876.9833	-0
877.1445	-0
877.3056	-0.1069
877.4667	-0.2914
877.6278	-0
877.7889	-0.7243
877.9499	-0.0813
878.111	-0
878.272	-0.8644
878.433	-0
878.5939	0.1384
878.7549	0.2242
878.9158	-0.916
879.0767	-0
879.2376	-0
879.3984	-0.2719
879.5593	-0
879.7201	-0.0281
879.8809	-0.6611
880.0417	-0.6553
880.2024	0.1215
880.3632	-0
880.5239	0.9062
880.6846	-0.2488
880.8452	-2.2776
881.0059	-0
881.1665	-0.0302
881.3271	-0
881.4877	0.4529
881.6483	0.4583
881.8088	-0.5806
881.9693	-0
882.1298	-0
882.2903	-0
