Data from MonoPyChalIsomerACN10uM440nmA_Absorbance_15-27-18-594.txt Node
Date: Fri Jul 05 15:27:18 BST 2024
User: LASERRRRR
Spectrometer: FLMT03099
Trigger mode: 0
Integration Time (sec): 1.000000E-1
Scans to average: 1
Electric dark correction enabled: true
Nonlinearity correction enabled: false
Boxcar width: 0
XAxis mode: Wavelengths
Number of Pixels in Spectrum: 3648
>>>>>Begin Spectral Data<<<<<
179.3399	0.7279
179.5586	0.7279
179.7771	0.7279
179.9957	0.0148
180.2143	-0
180.4329	-0.2343
180.6514	-0
180.8699	0.2534
181.0885	-0.1032
181.307	0.0846
181.5255	-0
181.744	-0
181.9625	-0
182.181	-1.3816
182.3994	0.4695
182.6179	0.3056
182.8363	0.1902
183.0547	-0.3216
183.2732	-0.0564
183.4916	0.0227
183.71	0.1585
183.9284	0.0756
184.1467	-0.1381
184.3651	-0.0409
184.5835	-0.2106
184.8018	-0.1233
185.0201	-0.1111
185.2385	-0.015
185.4568	0.0047
185.6751	0.2409
185.8934	0.2165
186.1117	0.0191
186.3299	0.0074
186.5482	0.1414
186.7664	-0.1646
186.9847	-0.1155
187.2029	-0.0775
187.4211	0.0503
187.6393	0.3108
187.8575	-0.081
188.0757	0.2891
188.2939	0.0541
188.512	0.051
188.7302	0.0303
188.9483	0.3995
189.1665	0.1147
189.3846	-0.1307
189.6027	0.2024
189.8208	0.1118
190.0389	0.046
190.257	0.2397
190.475	0.1118
190.6931	0.3556
190.9111	0.3182
191.1292	0.1984
191.3472	0.3829
191.5652	0.3178
191.7832	0.1772
192.0012	0.4786
192.2192	0.3042
192.4371	0.4012
192.6551	0.2251
192.873	0.465
193.091	0.4197
193.3089	0.4376
193.5268	0.6848
193.7447	0.6271
193.9626	0.4459
194.1805	0.5603
194.3984	0.963
194.6162	0.423
194.8341	0.6003
195.0519	0.5862
195.2697	0.8581
195.4875	0.762
195.7054	0.7923
195.9231	0.5064
196.1409	0.6939
196.3587	0.6526
196.5765	0.7216
196.7942	0.5858
197.012	0.509
197.2297	0.6227
197.4474	0.7215
197.6651	0.6136
197.8828	0.5321
198.1005	0.5127
198.3182	0.6145
198.5358	0.7881
198.7535	0.5782
198.9711	0.6031
199.1888	0.65
199.4064	0.7155
199.624	0.5548
199.8416	0.5989
200.0592	0.641
200.2767	0.6198
200.4943	0.6056
200.7119	0.6816
200.9294	0.8146
201.1469	0.6359
201.3645	0.6367
201.582	0.598
201.7995	0.7659
202.017	0.6769
202.2344	0.5729
202.4519	0.6509
202.6694	0.7021
202.8868	0.5782
203.1042	0.6827
203.3217	0.72
203.5391	0.7489
203.7565	0.5894
203.9739	0.6387
204.1913	0.5818
204.4086	0.7301
204.626	0.7731
204.8433	0.6403
205.0607	0.6399
205.278	0.6117
205.4953	0.5705
205.7126	0.6875
205.9299	0.7838
206.1472	0.7176
206.3644	0.658
206.5817	0.6661
206.7989	0.775
207.0162	0.6426
207.2334	0.6612
207.4506	0.7307
207.6678	0.6543
207.885	0.6407
208.1022	0.6295
208.3194	0.6661
208.5365	0.6238
208.7537	0.6158
208.9708	0.6015
209.1879	0.6434
209.405	0.6041
209.6222	0.6809
209.8392	0.5861
210.0563	0.623
210.2734	0.6736
210.4905	0.5889
210.7075	0.7171
210.9245	0.5784
211.1416	0.7886
211.3586	0.6765
211.5756	0.6348
211.7926	0.6181
212.0096	0.5562
212.2265	0.6239
212.4435	0.5877
212.6604	0.6103
212.8774	0.6367
213.0943	0.5879
213.3112	0.5537
213.5281	0.5386
213.745	0.5
213.9619	0.4793
214.1788	0.4787
214.3956	0.4711
214.6125	0.477
214.8293	0.4427
215.0461	0.4742
215.2629	0.4722
215.4798	0.4691
215.6965	0.4527
215.9133	0.4689
216.1301	0.4404
216.3469	0.4598
216.5636	0.4143
216.7803	0.4114
216.9971	0.4005
217.2138	0.3833
217.4305	0.374
217.6472	0.3497
217.8639	0.3781
218.0805	0.3565
218.2972	0.334
218.5138	0.2946
218.7305	0.3053
218.9471	0.3012
219.1637	0.291
219.3803	0.2837
219.5969	0.2796
219.8135	0.2432
220.0301	0.2708
220.2466	0.2501
220.4632	0.2546
220.6797	0.232
220.8962	0.2215
221.1127	0.2323
221.3292	0.2282
221.5457	0.2309
221.7622	0.2215
221.9787	0.2692
222.1951	0.2318
222.4116	0.2478
222.628	0.2355
222.8444	0.2565
223.0608	0.2559
223.2772	0.2464
223.4936	0.2322
223.71	0.2483
223.9264	0.2669
224.1427	0.2217
224.3591	0.2379
224.5754	0.2606
224.7917	0.2609
225.008	0.2412
225.2243	0.2466
225.4406	0.2773
225.6569	0.2705
225.8732	0.2619
226.0894	0.2694
226.3057	0.2562
226.5219	0.2759
226.7381	0.2494
226.9543	0.2852
227.1705	0.2933
227.3867	0.2763
227.6029	0.2941
227.8191	0.2956
228.0352	0.3002
228.2513	0.2872
228.4675	0.2833
228.6836	0.289
228.8997	0.2829
229.1158	0.3037
229.3319	0.302
229.548	0.3083
229.764	0.3188
229.9801	0.3122
230.1961	0.3221
230.4121	0.333
230.6282	0.3226
230.8442	0.3098
231.0602	0.3541
231.2761	0.3421
231.4921	0.3081
231.7081	0.3448
231.924	0.3305
232.14	0.3423
232.3559	0.3396
232.5718	0.3488
232.7877	0.3541
233.0036	0.3372
233.2195	0.3481
233.4353	0.3618
233.6512	0.3695
233.867	0.3688
234.0829	0.3648
234.2987	0.3711
234.5145	0.3387
234.7303	0.3545
234.9461	0.3754
235.1619	0.367
235.3776	0.3629
235.5934	0.3741
235.8091	0.3738
236.0249	0.3636
236.2406	0.3666
236.4563	0.3743
236.672	0.3777
236.8877	0.3893
237.1034	0.3899
237.319	0.38
237.5347	0.4027
237.7503	0.3722
237.966	0.4022
238.1816	0.3972
238.3972	0.4082
238.6128	0.3762
238.8284	0.3983
239.0439	0.4111
239.2595	0.3778
239.475	0.4012
239.6906	0.4039
239.9061	0.4132
240.1216	0.4067
240.3371	0.4035
240.5526	0.4018
240.7681	0.408
240.9836	0.3799
241.199	0.4158
241.4145	0.3972
241.6299	0.3742
241.8453	0.3786
242.0607	0.3871
242.2761	0.3708
242.4915	0.3632
242.7069	0.3736
242.9223	0.3407
243.1376	0.3501
243.353	0.3533
243.5683	0.3498
243.7836	0.3252
243.9989	0.315
244.2142	0.3153
244.4295	0.3321
244.6448	0.3092
244.86	0.3217
245.0753	0.2837
245.2905	0.2893
245.5057	0.2947
245.721	0.2834
245.9362	0.284
246.1514	0.2778
246.3665	0.2652
246.5817	0.2468
246.7969	0.2508
247.012	0.2507
247.2271	0.2439
247.4423	0.2375
247.6574	0.2419
247.8725	0.2273
248.0876	0.2311
248.3026	0.2339
248.5177	0.2132
248.7328	0.2199
248.9478	0.2087
249.1628	0.2146
249.3779	0.2156
249.5929	0.2
249.8079	0.2203
250.0228	0.1973
250.2378	0.2016
250.4528	0.1986
250.6677	0.1967
250.8827	0.1903
251.0976	0.1983
251.3125	0.1909
251.5274	0.1723
251.7423	0.188
251.9572	0.1881
252.172	0.1826
252.3869	0.193
252.6017	0.1869
252.8166	0.1646
253.0314	0.167
253.2462	0.1879
253.461	0.1793
253.6758	0.1716
253.8906	0.1801
254.1053	0.1647
254.3201	0.1772
254.5348	0.1814
254.7496	0.1885
254.9643	0.1678
255.179	0.1769
255.3937	0.1614
255.6083	0.1647
255.823	0.165
256.0377	0.1598
256.2523	0.1671
256.467	0.1363
256.6816	0.1619
256.8962	0.176
257.1108	0.1562
257.3254	0.1695
257.54	0.1611
257.7545	0.1596
257.9691	0.1632
258.1836	0.1656
258.3981	0.1601
258.6127	0.1692
258.8272	0.1727
259.0417	0.1591
259.2561	0.1629
259.4706	0.1614
259.6851	0.1651
259.8995	0.1621
260.114	0.1649
260.3284	0.1624
260.5428	0.1612
260.7572	0.1724
260.9716	0.1696
261.186	0.154
261.4003	0.1655
261.6147	0.1645
261.829	0.1674
262.0433	0.1663
262.2577	0.1518
262.472	0.1628
262.6863	0.1582
262.9005	0.1671
263.1148	0.1609
263.3291	0.1471
263.5433	0.1681
263.7576	0.1556
263.9718	0.1689
264.186	0.1646
264.4002	0.1581
264.6144	0.1582
264.8286	0.1724
265.0427	0.1611
265.2569	0.1574
265.471	0.1706
265.6851	0.169
265.8993	0.1634
266.1134	0.1447
266.3275	0.1548
266.5415	0.1575
266.7556	0.1712
266.9697	0.1661
267.1837	0.1669
267.3978	0.1533
267.6118	0.1643
267.8258	0.1803
268.0398	0.1531
268.2538	0.1707
268.4677	0.1653
268.6817	0.1614
268.8957	0.1735
269.1096	0.1669
269.3235	0.1737
269.5374	0.1541
269.7514	0.1516
269.9652	0.1603
270.1791	0.1486
270.393	0.1498
270.6068	0.1619
270.8207	0.1426
271.0345	0.1446
271.2483	0.1485
271.4622	0.1547
271.676	0.1656
271.8897	0.1468
272.1035	0.1485
272.3173	0.1496
272.531	0.1608
272.7448	0.1532
272.9585	0.1474
273.1722	0.1547
273.3859	0.1617
273.5996	0.149
273.8133	0.1516
274.0269	0.1477
274.2406	0.1451
274.4542	0.1465
274.6679	0.1437
274.8815	0.1443
275.0951	0.1569
275.3087	0.1678
275.5223	0.1613
275.7358	0.1477
275.9494	0.1519
276.1629	0.1454
276.3765	0.139
276.59	0.1583
276.8035	0.1464
277.017	0.1524
277.2305	0.1445
277.444	0.1652
277.6574	0.1464
277.8709	0.1586
278.0843	0.143
278.2978	0.1517
278.5112	0.1526
278.7246	0.1352
278.938	0.1576
279.1513	0.1516
279.3647	0.1648
279.5781	0.1498
279.7914	0.1532
280.0047	0.164
280.2181	0.1547
280.4314	0.1563
280.6447	0.1612
280.8579	0.1514
281.0712	0.1612
281.2845	0.1605
281.4977	0.1546
281.711	0.1476
281.9242	0.1568
282.1374	0.1625
282.3506	0.1554
282.5638	0.1551
282.7769	0.1633
282.9901	0.1515
283.2033	0.1598
283.4164	0.1666
283.6295	0.1604
283.8426	0.1466
284.0557	0.1509
284.2688	0.1775
284.4819	0.1551
284.695	0.1611
284.908	0.1668
285.1211	0.1566
285.3341	0.1475
285.5471	0.1664
285.7601	0.1614
285.9731	0.1576
286.1861	0.1496
286.3991	0.1537
286.612	0.1666
286.825	0.1597
287.0379	0.1635
287.2508	0.1572
287.4637	0.1583
287.6766	0.1624
287.8895	0.1656
288.1024	0.1632
288.3152	0.1785
288.5281	0.151
288.7409	0.165
288.9538	0.1573
289.1666	0.1618
289.3794	0.1548
289.5922	0.1502
289.8049	0.1668
290.0177	0.1499
290.2304	0.1571
290.4432	0.1583
290.6559	0.1513
290.8686	0.1676
291.0813	0.1539
291.294	0.152
291.5067	0.1616
291.7194	0.1591
291.932	0.1654
292.1447	0.1535
292.3573	0.1448
292.5699	0.1612
292.7825	0.1535
292.9951	0.1561
293.2077	0.1539
293.4203	0.1716
293.6328	0.1485
293.8454	0.1631
294.0579	0.159
294.2704	0.1561
294.4829	0.1474
294.6954	0.1677
294.9079	0.1528
295.1204	0.1542
295.3328	0.1494
295.5453	0.1504
295.7577	0.1569
295.9701	0.1422
296.1825	0.153
296.3949	0.1475
296.6073	0.1595
296.8197	0.145
297.0321	0.1633
297.2444	0.1485
297.4567	0.1517
297.6691	0.1523
297.8814	0.1509
298.0937	0.1708
298.306	0.1564
298.5182	0.1601
298.7305	0.1595
298.9428	0.1555
299.155	0.1522
299.3672	0.156
299.5794	0.1445
299.7916	0.1494
300.0038	0.1571
300.216	0.1513
300.4282	0.1567
300.6403	0.1423
300.8525	0.1479
301.0646	0.1391
301.2767	0.1577
301.4888	0.145
301.7009	0.1561
301.913	0.1542
302.125	0.1594
302.3371	0.1476
302.5491	0.1502
302.7612	0.1624
302.9732	0.1594
303.1852	0.1565
303.3972	0.1413
303.6092	0.1499
303.8211	0.1436
304.0331	0.1489
304.245	0.1416
304.457	0.1461
304.6689	0.143
304.8808	0.1616
305.0927	0.1403
305.3046	0.141
305.5164	0.1495
305.7283	0.1332
305.9401	0.1427
306.152	0.1396
306.3638	0.1448
306.5756	0.1407
306.7874	0.1448
306.9992	0.1548
307.2109	0.1313
307.4227	0.1222
307.6344	0.141
307.8462	0.1278
308.0579	0.1325
308.2696	0.1239
308.4813	0.1242
308.693	0.1271
308.9046	0.1363
309.1163	0.1248
309.328	0.1308
309.5396	0.1169
309.7512	0.1095
309.9628	0.1128
310.1744	0.1077
310.386	0.1158
310.5976	0.1138
310.8091	0.1168
311.0207	0.1122
311.2322	0.1139
311.4437	0.1182
311.6552	0.1089
311.8667	0.1111
312.0782	0.0962
312.2897	0.0986
312.5012	0.1126
312.7126	0.0942
312.924	0.0943
313.1355	0.118
313.3469	0.1113
313.5583	0.1097
313.7696	0.1136
313.981	0.1008
314.1924	0.1017
314.4037	0.1024
314.6151	0.1067
314.8264	0.092
315.0377	0.107
315.249	0.0944
315.4603	0.1086
315.6716	0.0944
315.8828	0.0839
316.0941	0.0986
316.3053	0.0977
316.5165	0.0931
316.7277	0.0979
316.9389	0.0992
317.1501	0.0988
317.3613	0.1023
317.5724	0.0832
317.7836	0.0988
317.9947	0.0986
318.2058	0.0896
318.417	0.0919
318.6281	0.0962
318.8391	0.0888
319.0502	0.0951
319.2613	0.1036
319.4723	0.1073
319.6834	0.1132
319.8944	0.0906
320.1054	0.1099
320.3164	0.1047
320.5274	0.0978
320.7383	0.1026
320.9493	0.1034
321.1602	0.1107
321.3712	0.0901
321.5821	0.0963
321.793	0.0993
322.0039	0.1065
322.2148	0.096
322.4257	0.0971
322.6365	0.12
322.8474	0.1052
323.0582	0.0963
323.269	0.1073
323.4798	0.1128
323.6906	0.1063
323.9014	0.1019
324.1122	0.1071
324.3229	0.1036
324.5337	0.0935
324.7444	0.0963
324.9551	0.1211
325.1658	0.1132
325.3765	0.1062
325.5872	0.1102
325.7979	0.0957
326.0085	0.1087
326.2192	0.1192
326.4298	0.1147
326.6404	0.0975
326.851	0.1094
327.0616	0.0969
327.2722	0.1011
327.4828	0.116
327.6933	0.1057
327.9039	0.1076
328.1144	0.1146
328.3249	0.1263
328.5354	0.0913
328.7459	0.0981
328.9564	0.1031
329.1669	0.102
329.3773	0.1151
329.5878	0.1005
329.7982	0.108
330.0086	0.1073
330.219	0.1199
330.4294	0.0979
330.6398	0.1039
330.8502	0.1109
331.0605	0.1248
331.2708	0.1114
331.4812	0.1108
331.6915	0.1081
331.9018	0.1081
332.1121	0.0983
332.3224	0.1177
332.5326	0.1137
332.7429	0.1066
332.9531	0.119
333.1633	0.1109
333.3735	0.0949
333.5837	0.108
333.7939	0.1019
334.0041	0.1188
334.2143	0.1169
334.4244	0.108
334.6346	0.09
334.8447	0.1254
335.0548	0.1058
335.2649	0.1056
335.475	0.117
335.685	0.1136
335.8951	0.1237
336.1051	0.1106
336.3152	0.1219
336.5252	0.1109
336.7352	0.1233
336.9452	0.1217
337.1552	0.1166
337.3652	0.1059
337.5751	0.1169
337.7851	0.1177
337.995	0.114
338.2049	0.1174
338.4148	0.1205
338.6247	0.1205
338.8346	0.116
339.0445	0.1148
339.2543	0.1103
339.4642	0.1099
339.674	0.116
339.8838	0.1317
340.0936	0.1215
340.3034	0.1169
340.5132	0.1198
340.7229	0.1295
340.9327	0.1141
341.1424	0.1207
341.3522	0.1232
341.5619	0.1235
341.7716	0.1176
341.9813	0.1256
342.1909	0.1266
342.4006	0.1337
342.6102	0.1351
342.8199	0.1304
343.0295	0.1324
343.2391	0.1317
343.4487	0.1249
343.6583	0.1256
343.8679	0.1286
344.0774	0.132
344.287	0.1332
344.4965	0.117
344.706	0.1299
344.9155	0.1262
345.125	0.1278
345.3345	0.1272
345.544	0.1214
345.7534	0.1281
345.9629	0.1295
346.1723	0.1295
346.3817	0.1257
346.5911	0.1266
346.8005	0.1422
347.0099	0.1265
347.2193	0.134
347.4286	0.1308
347.638	0.1293
347.8473	0.1314
348.0566	0.1318
348.2659	0.1462
348.4752	0.1334
348.6845	0.1308
348.8937	0.1331
349.103	0.1415
349.3122	0.1277
349.5214	0.1412
349.7306	0.1506
349.9398	0.1375
350.149	0.1331
350.3582	0.1345
350.5674	0.1538
350.7765	0.1454
350.9856	0.1544
351.1948	0.1459
351.4039	0.1268
351.613	0.1319
351.822	0.1449
352.0311	0.1438
352.2402	0.1386
352.4492	0.156
352.6582	0.1574
352.8672	0.1406
353.0762	0.1355
353.2852	0.1493
353.4942	0.139
353.7032	0.1295
353.9121	0.1504
354.1211	0.1583
354.33	0.1523
354.5389	0.1539
354.7478	0.1446
354.9567	0.1581
355.1655	0.1439
355.3744	0.1516
355.5833	0.1644
355.7921	0.1795
356.0009	0.1519
356.2097	0.1666
356.4185	0.1664
356.6273	0.1647
356.8361	0.1603
357.0448	0.1445
357.2536	0.1569
357.4623	0.1654
357.671	0.1604
357.8797	0.1634
358.0884	0.1655
358.2971	0.1579
358.5057	0.1672
358.7144	0.1696
358.923	0.1634
359.1316	0.1609
359.3402	0.1519
359.5488	0.1703
359.7574	0.1506
359.966	0.1779
360.1746	0.173
360.3831	0.1664
360.5916	0.1734
360.8002	0.1605
361.0087	0.1917
361.2172	0.1714
361.4256	0.1769
361.6341	0.1793
361.8426	0.172
362.051	0.1803
362.2594	0.1789
362.4678	0.1815
362.6762	0.2044
362.8846	0.1811
363.093	0.1742
363.3014	0.1778
363.5097	0.1659
363.718	0.1879
363.9264	0.1823
364.1347	0.1574
364.343	0.1857
364.5513	0.2
364.7595	0.1941
364.9678	0.1904
365.176	0.1817
365.3842	0.1981
365.5925	0.1921
365.8007	0.192
366.0089	0.1805
366.217	0.1874
366.4252	0.1886
366.6333	0.1963
366.8415	0.1999
367.0496	0.1755
367.2577	0.2049
367.4658	0.2045
367.6739	0.198
367.882	0.2091
368.09	0.1823
368.2981	0.2114
368.5061	0.1905
368.7141	0.209
368.9221	0.2144
369.1301	0.1943
369.3381	0.1933
369.5461	0.1968
369.754	0.1961
369.962	0.205
370.1699	0.2061
370.3778	0.2151
370.5857	0.1833
370.7936	0.2129
371.0015	0.1958
371.2093	0.2122
371.4172	0.2084
371.625	0.1937
371.8328	0.2053
372.0406	0.1983
372.2484	0.1874
372.4562	0.2079
372.664	0.1979
372.8717	0.219
373.0795	0.2092
373.2872	0.2221
373.4949	0.2152
373.7026	0.2099
373.9103	0.2066
374.118	0.214
374.3256	0.2155
374.5333	0.2207
374.7409	0.2175
374.9485	0.2295
375.1561	0.2372
375.3637	0.2148
375.5713	0.2117
375.7789	0.2289
375.9864	0.2317
376.194	0.214
376.4015	0.2283
376.609	0.234
376.8165	0.2182
377.024	0.2203
377.2315	0.2188
377.4389	0.2166
377.6464	0.2188
377.8538	0.2286
378.0612	0.2306
378.2686	0.2232
378.476	0.2322
378.6834	0.2332
378.8908	0.2195
379.0981	0.2415
379.3055	0.2208
379.5128	0.2157
379.7201	0.2293
379.9274	0.226
380.1347	0.2293
380.342	0.24
380.5492	0.21
380.7565	0.2294
380.9637	0.2339
381.1709	0.2283
381.3781	0.2358
381.5853	0.2334
381.7925	0.2413
381.9997	0.2354
382.2068	0.2342
382.4139	0.2392
382.6211	0.2181
382.8282	0.2212
383.0353	0.2265
383.2424	0.2254
383.4494	0.2403
383.6565	0.2334
383.8635	0.2358
384.0706	0.2289
384.2776	0.2409
384.4846	0.2316
384.6916	0.2255
384.8986	0.2349
385.1055	0.2244
385.3125	0.2325
385.5194	0.2108
385.7263	0.2425
385.9333	0.2286
386.1402	0.2264
386.347	0.2288
386.5539	0.2186
386.7608	0.2512
386.9676	0.2182
387.1744	0.2185
387.3813	0.2272
387.5881	0.2168
387.7948	0.2204
388.0016	0.2386
388.2084	0.2259
388.4151	0.2151
388.6219	0.225
388.8286	0.2268
389.0353	0.2431
389.242	0.225
389.4487	0.2152
389.6553	0.2177
389.862	0.2064
390.0686	0.2161
390.2753	0.219
390.4819	0.2209
390.6885	0.2202
390.8951	0.2199
391.1016	0.2183
391.3082	0.2096
391.5147	0.2053
391.7213	0.2171
391.9278	0.2031
392.1343	0.2084
392.3408	0.2203
392.5473	0.2081
392.7537	0.2107
392.9602	0.2064
393.1666	0.209
393.373	0.2042
393.5794	0.2087
393.7858	0.1996
393.9922	0.1886
394.1986	0.2055
394.4049	0.2114
394.6113	0.1985
394.8176	0.1801
395.0239	0.196
395.2302	0.203
395.4365	0.2028
395.6428	0.1894
395.8491	0.19
396.0553	0.2021
396.2615	0.1871
396.4678	0.1932
396.674	0.1802
396.8802	0.1964
397.0863	0.2082
397.2925	0.1868
397.4987	0.186
397.7048	0.1891
397.9109	0.1965
398.117	0.1771
398.3231	0.1917
398.5292	0.1937
398.7353	0.2049
398.9413	0.1992
399.1474	0.1886
399.3534	0.1917
399.5594	0.1847
399.7654	0.2093
399.9714	0.2154
400.1774	0.1914
400.3833	0.1792
400.5893	0.1952
400.7952	0.182
401.0011	0.1887
401.207	0.1855
401.4129	0.1892
401.6188	0.1852
401.8247	0.1914
402.0305	0.1804
402.2364	0.2008
402.4422	0.2098
402.648	0.1823
402.8538	0.1989
403.0596	0.1827
403.2654	0.1903
403.4711	0.1814
403.6768	0.1989
403.8826	0.1959
404.0883	0.1921
404.294	0.1933
404.4997	0.1971
404.7054	0.1987
404.911	0.193
405.1167	0.1851
405.3223	0.2087
405.5279	0.199
405.7335	0.1922
405.9391	0.1974
406.1447	0.2017
406.3502	0.2028
406.5558	0.19
406.7613	0.205
406.9668	0.1863
407.1724	0.1867
407.3778	0.1838
407.5833	0.1928
407.7888	0.1792
407.9942	0.1997
408.1997	0.1769
408.4051	0.1782
408.6105	0.1956
408.8159	0.1679
409.0213	0.1806
409.2267	0.191
409.432	0.1797
409.6374	0.1935
409.8427	0.1849
410.048	0.2035
410.2533	0.1849
410.4586	0.1771
410.6639	0.1798
410.8691	0.1949
411.0744	0.163
411.2796	0.1851
411.4848	0.2048
411.69	0.1685
411.8952	0.2117
412.1004	0.1758
412.3056	0.1905
412.5107	0.1723
412.7158	0.19
412.921	0.1983
413.1261	0.1731
413.3312	0.1757
413.5362	0.1956
413.7413	0.1829
413.9464	0.1912
414.1514	0.1779
414.3564	0.1638
414.5614	0.1751
414.7664	0.1927
414.9714	0.1828
415.1764	0.1911
415.3813	0.1907
415.5863	0.2017
415.7912	0.1779
415.9961	0.1689
416.201	0.1758
416.4059	0.1855
416.6108	0.1588
416.8156	0.1871
417.0205	0.1807
417.2253	0.169
417.4301	0.1827
417.6349	0.1818
417.8397	0.1635
418.0445	0.1967
418.2492	0.1913
418.454	0.1607
418.6587	0.1805
418.8634	0.1691
419.0681	0.1605
419.2728	0.1738
419.4775	0.15
419.6822	0.1625
419.8868	0.1438
420.0915	0.1698
420.2961	0.1492
420.5007	0.1586
420.7053	0.1742
420.9099	0.1651
421.1144	0.188
421.319	0.1731
421.5235	0.1795
421.728	0.1547
421.9325	0.1774
422.137	0.1692
422.3415	0.1575
422.546	0.153
422.7504	0.1641
422.9549	0.1701
423.1593	0.183
423.3637	0.1835
423.5681	0.1605
423.7725	0.1515
423.9769	0.1584
424.1812	0.1472
424.3856	0.1545
424.5899	0.1608
424.7942	0.1438
424.9985	0.1429
425.2028	0.1388
425.4071	0.1661
425.6113	0.137
425.8156	0.1534
426.0198	0.1404
426.224	0.143
426.4282	0.1446
426.6324	0.1429
426.8366	0.1518
427.0407	0.1443
427.2449	0.1516
427.449	0.1452
427.6531	0.1003
427.8572	0.1338
428.0613	0.1419
428.2654	0.1427
428.4694	0.1366
428.6735	0.1358
428.8775	0.1417
429.0815	0.1424
429.2855	0.12
429.4895	0.1349
429.6935	0.1386
429.8975	0.1289
430.1014	0.1266
430.3053	0.1271
430.5093	0.1193
430.7132	0.1162
430.9171	0.1139
431.1209	0.118
431.3248	0.1307
431.5286	0.1239
431.7325	0.1313
431.9363	0.1101
432.1401	0.1329
432.3439	0.114
432.5477	0.1011
432.7514	0.1023
432.9552	0.1152
433.1589	0.1026
433.3627	0.0974
433.5664	0.1085
433.7701	0.1002
433.9737	0.0918
434.1774	0.1071
434.3811	0.1018
434.5847	0.1065
434.7883	0.0964
434.9919	0.0992
435.1955	0.0895
435.3991	0.0817
435.6027	0.0889
435.8062	0.0909
436.0098	0.0873
436.2133	0.0863
436.4168	0.0863
436.6203	0.0698
436.8238	0.1
437.0272	0.0868
437.2307	0.0818
437.4341	0.0905
437.6375	0.0833
437.841	0.0688
438.0443	0.0787
438.2477	0.0825
438.4511	0.0662
438.6545	0.0697
438.8578	0.0692
439.0611	0.0694
439.2644	0.0757
439.4677	0.0786
439.671	0.0624
439.8743	0.0652
440.0775	0.0714
440.2808	0.0701
440.484	0.0487
440.6872	0.0597
440.8904	0.055
441.0936	0.0827
441.2967	0.0648
441.4999	0.0606
441.703	0.0447
441.9062	0.0522
442.1093	0.0606
442.3124	0.0745
442.5155	0.0656
442.7185	0.0451
442.9216	0.0316
443.1246	0.0621
443.3276	0.0432
443.5307	0.0544
443.7337	0.0534
443.9366	0.0555
444.1396	0.0545
444.3426	0.0524
444.5455	0.056
444.7484	0.0407
444.9513	0.0225
445.1542	0.055
445.3571	0.0404
445.56	0.0584
445.7628	0.0372
445.9657	0.0294
446.1685	0.0494
446.3713	0.0329
446.5741	0.0424
446.7769	0.0202
446.9797	0.0392
447.1824	0.0308
447.3852	0.0177
447.5879	0.0425
447.7906	0.0383
447.9933	0.0435
448.196	0.0251
448.3986	0.0345
448.6013	0.0209
448.8039	0.0091
449.0066	0.0149
449.2092	0.0367
449.4118	0.0283
449.6143	0.0264
449.8169	0.0357
450.0195	0.0213
450.222	0.0099
450.4245	0.0247
450.627	0.0262
450.8295	0.0173
451.032	0.0313
451.2345	0.017
451.4369	0.026
451.6394	0.0241
451.8418	0.0079
452.0442	0.0138
452.2466	0.0302
452.449	-0.005
452.6513	0.0237
452.8537	0.0122
453.056	-0.0027
453.2583	0.0117
453.4607	0.0081
453.663	0.0207
453.8652	0.0199
454.0675	0.0144
454.2697	0.0102
454.472	0.0076
454.6742	0.0327
454.8764	0.0062
455.0786	0.013
455.2808	0.0017
455.4829	0.0081
455.6851	0.0247
455.8872	0.0129
456.0893	0.0257
456.2915	0.0005
456.4935	0.0122
456.6956	0.0114
456.8977	0.0182
457.0997	0.0022
457.3018	-0.0208
457.5038	-0.0031
457.7058	-0.0035
457.9078	-0.0033
458.1098	0.016
458.3117	0.0227
458.5137	0.0091
458.7156	0.0064
458.9175	-0.0042
459.1194	0.0029
459.3213	0.0002
459.5232	0.0011
459.725	-0.0129
459.9269	-0.0031
460.1287	0.0011
460.3305	0.0022
460.5323	0.0106
460.7341	0.0039
460.9359	0.0097
461.1376	0.0107
461.3394	0.0204
461.5411	0.0047
461.7428	-0.0207
461.9445	0.022
462.1462	0.0173
462.3479	-0.0046
462.5495	0.0035
462.7512	-0.0029
462.9528	-0.0045
463.1544	-0.016
463.356	0.0061
463.5576	0.0054
463.7592	-0.0093
463.9607	0.002
464.1623	0.0025
464.3638	0.0234
464.5653	-0.0063
464.7668	-0.0036
464.9683	0.0178
465.1697	0.0202
465.3712	-0.0128
465.5726	-0.0123
465.7741	0.0068
465.9755	-0.0108
466.1769	0.0042
466.3782	-0.0064
466.5796	-0.0111
466.7809	0.0039
466.9823	-0.0051
467.1836	0.0003
467.3849	-0.0078
467.5862	0.014
467.7875	-0.0103
467.9887	0.0106
468.19	-0.0014
468.3912	-0.009
468.5924	0.0071
468.7936	-0.0042
468.9948	0.0041
469.196	0.0033
469.3972	-0.0171
469.5983	-0.0035
469.7994	-0.0135
470.0006	0.0027
470.2017	-0.0024
470.4027	-0.0095
470.6038	-0.0083
470.8049	-0.027
471.0059	-0.003
471.2069	-0.0173
471.408	0.0005
471.6089	-0.0054
471.8099	-0.0044
472.0109	-0.0035
472.2119	-0.0069
472.4128	-0.0175
472.6137	0.0024
472.8146	-0.0184
473.0155	-0.0076
473.2164	-0.0122
473.4173	0.0011
473.6181	0.0041
473.819	0.0027
474.0198	-0.0085
474.2206	-0.0081
474.4214	-0.0083
474.6222	0.0014
474.8229	0.0009
475.0237	-0.0031
475.2244	-0.0145
475.4251	-0
475.6258	0.0023
475.8265	0.0024
476.0272	-0.0009
476.2278	-0.0028
476.4285	-0.0016
476.6291	-0.0013
476.8297	-0.0001
477.0303	-0.0145
477.2309	0.0013
477.4315	-0.0095
477.632	-0.0031
477.8326	-0.0015
478.0331	-0.0024
478.2336	0.0027
478.4341	-0.0074
478.6346	-0.0036
478.8351	0.0066
479.0355	0.0067
479.236	-0.0131
479.4364	0.0044
479.6368	0.0031
479.8372	-0.0048
480.0376	-0.0124
480.2379	-0.0117
480.4383	-0.0031
480.6386	0.0054
480.8389	0.0036
481.0392	-0.0043
481.2395	-0.0112
481.4398	0.0031
481.6401	-0.0058
481.8403	-0.0003
482.0405	-0.0068
482.2408	0.0036
482.441	0.0177
482.6411	-0.0081
482.8413	-0.0053
483.0415	-0.0088
483.2416	-0.0085
483.4417	0.0008
483.6419	-0.0145
483.8419	-0.0048
484.042	0.0201
484.2421	-0.004
484.4422	-0.0077
484.6422	-0.0054
484.8422	-0.0069
485.0422	-0.0076
485.2422	0.0001
485.4422	-0.0097
485.6422	-0.0116
485.8421	-0.0085
486.042	0.006
486.242	-0.0054
486.4419	-0.0098
486.6417	-0.0059
486.8416	-0.001
487.0415	0.0015
487.2413	-0.01
487.4411	-0.0017
487.641	-0.0064
487.8408	0.005
488.0405	-0.0033
488.2403	-0.0082
488.4401	0.0099
488.6398	0.0002
488.8395	-0.0152
489.0392	0.0054
489.2389	-0.0051
489.4386	-0.012
489.6383	-0.0003
489.8379	-0.0001
490.0376	-0.006
490.2372	-0.0069
490.4368	-0.0019
490.6364	-0.0083
490.836	-0.0068
491.0355	-0.0057
491.2351	-0.0034
491.4346	-0.0039
491.6341	-0.0114
491.8336	-0.0092
492.0331	-0.0124
492.2326	-0.0174
492.432	-0.0069
492.6315	-0.0068
492.8309	-0.0051
493.0303	-0.0019
493.2297	-0.0041
493.4291	-0.0021
493.6284	-0.0033
493.8278	-0.0125
494.0271	0.0051
494.2264	0.0052
494.4257	-0.0046
494.625	-0.0128
494.8243	-0.0128
495.0236	-0.0102
495.2228	-0.0062
495.422	-0.0065
495.6213	-0.0042
495.8205	-0.0017
496.0196	0.0126
496.2188	-0.0063
496.418	-0.0118
496.6171	-0.003
496.8162	-0.0077
497.0153	-0.001
497.2144	-0.002
497.4135	-0.0058
497.6126	-0.003
497.8116	-0.0084
498.0107	-0.0011
498.2097	-0.017
498.4087	-0.0095
498.6077	0.0045
498.8067	-0.0075
499.0056	0.0071
499.2046	-0.0015
499.4035	-0.0097
499.6024	-0.0036
499.8013	0.0006
500.0002	-0.0098
500.199	0.0065
500.3979	-0.001
500.5967	-0.0108
500.7956	-0.0084
500.9944	-0.0073
501.1932	-0.0079
501.3919	-0.0007
501.5907	-0.0065
501.7895	0.0008
501.9882	-0.0046
502.1869	-0.0064
502.3856	-0.0116
502.5843	-0.0135
502.783	-0.004
502.9816	-0.0066
503.1803	-0.0192
503.3789	-0.0064
503.5775	0.0035
503.7761	-0.014
503.9747	-0.0004
504.1732	0.0013
504.3718	0.0055
504.5703	-0.0007
504.7689	-0.0076
504.9674	-0.0014
505.1658	-0.0147
505.3643	-0.0133
505.5628	-0.0026
505.7612	-0.0197
505.9597	0.0111
506.1581	-0.0064
506.3565	0.0014
506.5549	0.007
506.7532	-0.0181
506.9516	0.0058
507.1499	-0.0001
507.3482	-0.0265
507.5465	-0.0091
507.7448	-0.0062
507.9431	0.0017
508.1414	0.0021
508.3396	-0.0005
508.5379	0.0054
508.7361	-0.0134
508.9343	0.0005
509.1325	0.0003
509.3306	-0.0029
509.5288	-0.0095
509.7269	-0.0046
509.9251	-0.0119
510.1232	-0.0077
510.3213	0.0059
510.5193	0.0075
510.7174	-0.0137
510.9154	-0.0168
511.1135	-0.002
511.3115	-0.0092
511.5095	-0.0089
511.7075	-0.0032
511.9055	-0.0047
512.1034	-0.0012
512.3014	0.0055
512.4993	-0.0015
512.6972	-0.0045
512.8951	-0.0003
513.093	0.0025
513.2908	0.0048
513.4887	-0.0052
513.6865	-0.0109
513.8844	-0.005
514.0822	-0.0137
514.2799	-0.0121
514.4777	-0.005
514.6755	-0.015
514.8732	0.0007
515.0709	0.0012
515.2687	0.0003
515.4664	0.0065
515.664	-0.0079
515.8617	-0.009
516.0594	-0.017
516.257	-0.003
516.4546	-0.0077
516.6522	0.0032
516.8498	-0.0002
517.0474	0.0072
517.2449	0.0027
517.4425	-0.0118
517.64	-0.0059
517.8375	0.0025
518.035	0.0022
518.2325	-0.015
518.43	0.0048
518.6274	-0.0014
518.8249	-0.0104
519.0223	-0.0034
519.2197	-0.0088
519.4171	-0.0101
519.6145	-0.0103
519.8118	0.002
520.0092	-0.0061
520.2065	-0.0063
520.4038	-0.0167
520.6011	-0.0043
520.7984	-0.0071
520.9956	-0.0039
521.1929	-0.0142
521.3901	0.0073
521.5874	-0.0072
521.7846	-0.0005
521.9818	-0.0075
522.1789	-0.0035
522.3761	0.001
522.5732	-0.0072
522.7704	-0.0062
522.9675	0.0029
523.1646	-0.0057
523.3617	-0.0006
523.5587	-0.005
523.7558	-0.001
523.9528	-0.0063
524.1498	-0.0017
524.3468	0.0007
524.5438	0.003
524.7408	0.0008
524.9378	0.0139
525.1347	-0.0001
525.3316	-0.0045
525.5285	-0.0159
525.7254	-0.0069
525.9223	-0.0088
526.1192	-0.0068
526.316	-0.0188
526.5129	0.0037
526.7097	-0.0034
526.9065	-0.0029
527.1033	-0.0079
527.3	-0.0031
527.4968	-0.0066
527.6935	-0.0029
527.8903	-0.0113
528.087	-0.001
528.2837	0.0017
528.4804	-0.0035
528.677	-0.0049
528.8737	-0.0039
529.0703	-0.004
529.2669	-0.0062
529.4635	-0.0098
529.6601	0.0004
529.8567	-0.0046
530.0532	-0.0137
530.2498	0.0067
530.4463	0.0083
530.6428	-0.0106
530.8393	0.0009
531.0358	-0.0007
531.2322	-0.0117
531.4287	-0.0023
531.6251	-0.0076
531.8215	0.0076
532.0179	-0.0009
532.2143	0.0008
532.4107	-0.0017
532.607	-0.0045
532.8034	-0.0043
532.9997	0.004
533.196	-0.0055
533.3923	-0.0067
533.5886	-0.0037
533.7848	-0.0008
533.9811	-0.0046
534.1773	-0.0021
534.3735	0.0094
534.5697	-0.0046
534.7659	-0.0007
534.9621	-0.0097
535.1582	-0.0072
535.3544	-0.0047
535.5505	0.0062
535.7466	-0.0054
535.9427	0.0034
536.1387	0.0039
536.3348	-0.0109
536.5308	0.0052
536.7269	-0.0119
536.9229	0.0045
537.1189	0.0005
537.3148	0.0008
537.5108	-0.0061
537.7068	-0
537.9027	0.0006
538.0986	-0.001
538.2945	0.003
538.4904	-0.0033
538.6863	-0.0019
538.8821	0.0045
539.078	-0.0023
539.2738	0.0084
539.4696	-0.0033
539.6654	-0.0003
539.8611	0.0055
540.0569	0.0026
540.2526	-0.0041
540.4484	-0.0012
540.6441	0.0085
540.8398	0.0015
541.0355	-0.0024
541.2311	-0.0087
541.4268	-0.0079
541.6224	0.0023
541.818	0.0007
542.0136	-0.012
542.2092	0.0042
542.4048	-0.0023
542.6003	0.0037
542.7959	-0.0001
542.9914	0.0026
543.1869	0.0023
543.3824	0.0053
543.5779	-0.0008
543.7734	-0.0062
543.9688	0.0006
544.1642	0.0058
544.3596	-0.0046
544.555	-0.0021
544.7504	0.0027
544.9458	0.0013
545.1411	-0.002
545.3365	-0.002
545.5318	-0.0036
545.7271	-0.0005
545.9224	-0.0076
546.1177	-0.0024
546.3129	-0.0073
546.5081	-0.0037
546.7034	-0.0061
546.8986	0.0019
547.0938	-0.005
547.289	0.0002
547.4841	-0.0105
547.6793	0.0027
547.8744	-0.0056
548.0695	-0.0001
548.2646	-0.0076
548.4597	0.0064
548.6548	0.0079
548.8498	0.0032
549.0448	0.0049
549.2399	0.0052
549.4349	0.0085
549.6298	-0.0044
549.8248	-0.0021
550.0198	-0.0003
550.2147	0.0018
550.4096	-0.0005
550.6045	-0.0068
550.7994	0.0029
550.9943	0.0003
551.1892	0.0003
551.384	0.0096
551.5788	-0.0068
551.7737	0.0055
551.9685	-0.0056
552.1632	0.007
552.358	-0.0057
552.5528	0.0035
552.7475	0.004
552.9422	0.0049
553.1369	-0.0003
553.3316	-0.0011
553.5263	-0.0067
553.7209	0.0131
553.9156	-0.001
554.1102	-0.0075
554.3048	-0.0027
554.4994	0.0061
554.694	0.0045
554.8885	0.0029
555.0831	-0.004
555.2776	-0.0104
555.4721	-0.009
555.6666	-0.005
555.8611	-0.0009
556.0555	-0.0016
556.25	0.0037
556.4444	-0.003
556.6388	-0.0038
556.8332	0.0037
557.0276	-0.0047
557.222	-0.0074
557.4163	-0.009
557.6107	-0.0131
557.805	0.008
557.9993	-0.0076
558.1936	-0.0024
558.3879	-0.0011
558.5821	0.0047
558.7764	0.0006
558.9706	0.0012
559.1648	0.0066
559.359	-0.005
559.5532	-0.0097
559.7473	-0
559.9415	-0.0033
560.1356	0.0001
560.3297	-0.0068
560.5238	-0.0027
560.7179	-0.0027
560.9119	-0.004
561.106	-0.0045
561.3	-0.0033
561.494	-0.0085
561.688	-0.0031
561.882	-0.0095
562.076	-0.0024
562.2699	-0.0002
562.4639	-0.0029
562.6578	0.0031
562.8517	0.0017
563.0456	0.0019
563.2395	0.0063
563.4333	-0.005
563.6272	0.0033
563.821	-0.0013
564.0148	-0.0031
564.2086	-0.0059
564.4024	0.0007
564.5961	-0.004
564.7899	0.006
564.9836	-0.0026
565.1773	0.0047
565.371	0.0043
565.5647	0.0034
565.7584	-0.003
565.952	0.0034
566.1456	-0.0057
566.3393	-0.0069
566.5329	-0.0097
566.7264	0.0007
566.92	-0.0027
567.1136	0.0025
567.3071	-0.0048
567.5006	0.0068
567.6941	0.006
567.8876	-0.0018
568.0811	-0.0001
568.2745	0.0069
568.468	-0.0032
568.6614	-0.0032
568.8548	-0.0046
569.0482	-0.0078
569.2416	-0.0044
569.4349	-0.0034
569.6283	0.0047
569.8216	0.0023
570.0149	0.0009
570.2082	0.0055
570.4015	0.0092
570.5947	0.0031
570.788	0.0127
570.9812	0.0091
571.1744	0.0013
571.3676	-0.009
571.5608	-0.0003
571.754	-0.0012
571.9471	0.002
572.1402	0.0047
572.3333	-0.0012
572.5264	-0.0029
572.7195	0.0051
572.9126	0.0082
573.1057	-0.0054
573.2987	0.0005
573.4917	0.0009
573.6847	-0.0078
573.8777	0.007
574.0707	0.0003
574.2636	-0.0046
574.4566	-0.0031
574.6495	0.0032
574.8424	-0.0019
575.0353	-0.0026
575.2281	0.0045
575.421	0.0071
575.6138	0.0035
575.8067	0.001
575.9995	0.0042
576.1923	-0.0006
576.385	0.0014
576.5778	0.0001
576.7706	0.0011
576.9633	0.0007
577.156	0.0023
577.3487	-0.0026
577.5414	0.0033
577.734	-0.0046
577.9267	0.0021
578.1193	-0.0081
578.3119	-0.0014
578.5045	0.0045
578.6971	-0.0055
578.8897	0.0046
579.0822	-0.0066
579.2747	-0.0008
579.4673	-0.0043
579.6598	-0.0038
579.8522	0.0011
580.0447	-0.0108
580.2372	-0.0069
580.4296	0.0072
580.622	0.0073
580.8144	0.0047
581.0068	-0.0024
581.1992	-0.012
581.3915	-0.0078
581.5839	-0.0056
581.7762	-0.0074
581.9685	-0.008
582.1608	0.001
582.353	0.0024
582.5453	0.0001
582.7375	0.0002
582.9298	0.0078
583.122	0.0007
583.3142	-0.0032
583.5063	0.0019
583.6985	-0.0016
583.8906	0.0021
584.0827	-0.0056
584.2749	0.0095
584.4669	0.002
584.659	0.0014
584.8511	-0.0005
585.0431	0.0034
585.2352	0.0066
585.4272	0.0027
585.6192	-0.002
585.8111	0.0015
586.0031	0
586.195	-0.0025
586.387	0.0045
586.5789	0.0018
586.7708	0.0004
586.9627	0.0053
587.1545	-0.0052
587.3464	-0.0017
587.5382	0.0063
587.73	0.0011
587.9218	0.0054
588.1136	0.0015
588.3053	0.004
588.4971	0.0006
588.6888	-0.0015
588.8805	0.0029
589.0722	0.0039
589.2639	0.0041
589.4556	-0.0042
589.6472	-0.0026
589.8389	-0.0045
590.0305	-0.0103
590.2221	0.0008
590.4137	-0.016
590.6052	0.0057
590.7968	0.0028
590.9883	0.0038
591.1798	-0.0027
591.3713	0.0009
591.5628	0.0055
591.7543	0.0011
591.9458	-0.0029
592.1372	0.0017
592.3286	0.0075
592.52	0.0061
592.7114	-0.0023
592.9028	-0.0064
593.0941	-0.0076
593.2855	-0.0019
593.4768	-0.0038
593.6681	-0.0016
593.8594	0
594.0506	0.0037
594.2419	0.0106
594.4331	0.0025
594.6244	0.0044
594.8156	-0.0017
595.0067	-0.0015
595.1979	0.0042
595.3891	0.0046
595.5802	-0.0017
595.7713	-0.0024
595.9624	-0.0001
596.1535	0.0049
596.3446	-0.003
596.5357	-0.0013
596.7267	0.004
596.9177	-0.0043
597.1087	-0.0086
597.2997	-0.0065
597.4907	0.0064
597.6817	-0.0033
597.8726	0.003
598.0635	-0.0002
598.2544	-0.0032
598.4453	-0.0026
598.6362	0.0002
598.827	-0.0027
599.0179	0.0046
599.2087	0.0063
599.3995	-0.0027
599.5903	0.003
599.7811	0.0032
599.9718	-0.0011
600.1626	-0.0054
600.3533	-0.0052
600.544	0.0027
600.7347	-0.0034
600.9254	0.0015
601.116	-0.0037
601.3067	-0.0018
601.4973	-0.0059
601.6879	0.0039
601.8785	0.0013
602.0691	0
602.2596	0.0062
602.4502	0.0093
602.6407	0.0029
602.8312	0.0043
603.0217	-0.0039
603.2122	-0.0017
603.4027	0.0051
603.5931	0.0048
603.7835	-0.0035
603.9739	-0.0036
604.1643	-0.0037
604.3547	-0.0046
604.5451	0.0009
604.7354	-0.0034
604.9257	-0.0019
605.116	-0.0007
605.3063	-0.0029
605.4966	-0.001
605.6869	0.0025
605.8771	0.0061
606.0673	0.0054
606.2575	0.0068
606.4477	0.0046
606.6379	-0.0052
606.8281	0.0023
607.0182	-0.0052
607.2083	0.009
607.3985	-0.0033
607.5885	-0.005
607.7786	0.001
607.9687	-0.0009
608.1587	0.002
608.3488	0.0048
608.5388	0.0055
608.7288	-0.0051
608.9187	-0.0028
609.1087	0.0018
609.2986	-0.0039
609.4886	-0.0004
609.6785	0.0033
609.8684	0.0014
610.0582	0.0022
610.2481	0.004
610.4379	-0.0006
610.6278	-0.0013
610.8176	0.0029
611.0074	-0.0011
611.1971	0.0018
611.3869	-0.0013
611.5766	-0.0107
611.7664	0.007
611.9561	0.0039
612.1458	0.0064
612.3354	-0.0099
612.5251	0.0025
612.7147	0.0031
612.9044	0.0061
613.094	-0.0087
613.2836	0.0085
613.4731	0.0009
613.6627	-0.0047
613.8522	0.0026
614.0417	0.0018
614.2313	-0.0047
614.4207	-0.0062
614.6102	-0.0027
614.7997	0.0014
614.9891	-0.0076
615.1785	0.0015
615.3679	0.0012
615.5573	0.0125
615.7467	0.0009
615.9361	-0.0007
616.1254	0.0001
616.3147	0.0065
616.504	0.0077
616.6933	0.0065
616.8826	0.01
617.0718	0.0043
617.2611	0.0041
617.4503	0.0005
617.6395	-0.003
617.8287	0.0003
618.0179	0.0027
618.207	0.0048
618.3961	0.0005
618.5853	0.002
618.7744	0.0065
618.9634	0.0064
619.1525	0.008
619.3416	0.007
619.5306	0.0057
619.7196	0.0048
619.9086	-0.0026
620.0976	0.0105
620.2866	0.0033
620.4755	0.0047
620.6645	0.005
620.8534	0.0072
621.0423	0.0055
621.2312	0.0136
621.42	0.0034
621.6089	0.0021
621.7977	0.0092
621.9865	-0.0032
622.1753	0.0062
622.3641	0.0013
622.5529	0.007
622.7416	0.0144
622.9303	0.0055
623.1191	-0
623.3078	-0.0052
623.4964	0.0065
623.6851	-0.0012
623.8737	0.0008
624.0624	0.0072
624.251	-0.0009
624.4396	0.0063
624.6282	0.002
624.8167	0.0071
625.0053	0.0015
625.1938	0.0031
625.3823	0.006
625.5708	-0.0024
625.7593	-0.0006
625.9477	-0.0078
626.1362	-0.0047
626.3246	-0.0014
626.513	0.0036
626.7014	0.0086
626.8898	0.0054
627.0781	0.0033
627.2665	-0.0033
627.4548	0.0059
627.6431	0.0125
627.8314	-0.0014
628.0197	0.0126
628.2079	-0.0092
628.3962	0.0021
628.5844	0.0003
628.7726	0.0037
628.9608	-0.0045
629.1489	-0.0053
629.3371	0.0037
629.5252	0.0024
629.7134	0.0109
629.9015	0.001
630.0895	0.0012
630.2776	0.0078
630.4657	0.003
630.6537	0.0056
630.8417	-0.0019
631.0297	0.0003
631.2177	0.0092
631.4057	-0.0052
631.5936	0.0108
631.7815	0.0053
631.9695	0.0041
632.1574	0.0095
632.3452	0.0024
632.5331	0.0078
632.7209	0.0054
632.9088	0.009
633.0966	0.0073
633.2844	-0.0036
633.4722	0.0003
633.6599	0.0044
633.8477	0.0058
634.0354	0.0033
634.2231	0.0003
634.4108	0.0063
634.5985	0.0108
634.7861	0.0017
634.9738	0.0009
635.1614	0.0103
635.349	0.0095
635.5366	-0.0033
635.7242	0.0015
635.9117	0.0131
636.0993	-0.0032
636.2868	0.0107
636.4743	0.002
636.6618	0.014
636.8492	0.0059
637.0367	0.0059
637.2241	0.0012
637.4115	-0.0005
637.5989	0.0052
637.7863	-0.0039
637.9737	-0.0072
638.161	0.0035
638.3484	0.0002
638.5357	0.0044
638.723	0.0005
638.9103	0.0033
639.0975	0.0067
639.2848	0.0081
639.472	-0.0024
639.6592	0.0058
639.8464	0.0113
640.0336	0.0056
640.2208	0
640.4079	-0.0006
640.595	0.0071
640.7821	0.0013
640.9692	0.0032
641.1563	0.0012
641.3434	0.0078
641.5304	0.0039
641.7174	0.0039
641.9044	0.0062
642.0914	0.0061
642.2784	0.0036
642.4653	0.0083
642.6523	-0.0016
642.8392	0.0041
643.0261	0.0063
643.213	0.012
643.3999	-0.0035
643.5867	0.005
643.7735	0.0068
643.9604	-0.0009
644.1472	0.0062
644.3339	0.0104
644.5207	0.0047
644.7075	-0.0006
644.8942	0.0033
645.0809	0.0087
645.2676	0.0108
645.4543	0.0062
645.6409	0.0012
645.8276	0.0076
646.0142	0.0039
646.2008	-0.0016
646.3874	-0.0033
646.574	-0.0015
646.7605	0.0002
646.9471	-0.0123
647.1336	0.0024
647.3201	0.0053
647.5066	0.0022
647.6931	0.0096
647.8795	-0.0015
648.0659	0.0076
648.2524	0.0116
648.4388	-0.0029
648.6252	-0.0004
648.8115	-0.0017
648.9979	-0.0028
649.1842	0.0012
649.3705	0.0157
649.5568	-0.0025
649.7431	0.0047
649.9294	0.0002
650.1156	0.0059
650.3018	0.0023
650.488	0.0075
650.6742	0.0088
650.8604	0.0062
651.0466	-0.0067
651.2327	0.0031
651.4188	0.0097
651.6049	0.0087
651.791	0.0014
651.9771	0.0105
652.1632	0.0111
652.3492	0.005
652.5352	0.001
652.7212	-0.0008
652.9072	0.0015
653.0932	0.0029
653.2791	-0.009
653.465	0.0008
653.651	-0.0051
653.8369	-0.0009
654.0227	0.0017
654.2086	0.0039
654.3944	0.0033
654.5803	0.0075
654.7661	-0.0021
654.9519	0.0022
655.1377	0.0038
655.3234	0.0021
655.5092	-0.0035
655.6949	-0.0087
655.8806	-0.0045
656.0663	-0.0014
656.2519	-0.0046
656.4376	-0.001
656.6232	0.004
656.8088	0.0022
656.9945	-0.0038
657.18	-0.0012
657.3656	0.0058
657.5511	-0.0001
657.7367	-0.0119
657.9222	0.0089
658.1077	-0.005
658.2932	0.0069
658.4786	-0.0101
658.6641	-0.0019
658.8495	0.0009
659.0349	-0.0028
659.2203	0.0011
659.4057	0.0061
659.591	0.0072
659.7764	0.0009
659.9617	0.0044
660.147	0.0059
660.3323	0.005
660.5176	0.016
660.7028	0.0097
660.888	0.0094
661.0733	0.0103
661.2585	-0.0013
661.4436	0.0034
661.6288	-0.004
661.8139	0.0053
661.9991	0.0013
662.1842	-0.0018
662.3693	-0.0039
662.5544	-0.0034
662.7394	0.0091
662.9245	-0.007
663.1095	-0.0046
663.2945	0.0013
663.4795	-0.0021
663.6644	0.0102
663.8494	0.0026
664.0343	-0.0028
664.2193	-0.0008
664.4042	0.0074
664.589	-0.0022
664.7739	-0.0014
664.9587	-0.0091
665.1436	-0.0051
665.3284	-0.0036
665.5132	-0.0036
665.698	0.0015
665.8827	0.0083
666.0675	0.0031
666.2522	-0.0002
666.4369	0.0043
666.6216	0.0002
666.8063	0.0053
666.9909	0.0024
667.1756	0.0014
667.3602	-0.0053
667.5448	-0.0006
667.7294	0.0038
667.9139	0.0093
668.0985	0.0112
668.283	0.0045
668.4675	0.0112
668.652	-0.0011
668.8365	0.0035
669.0209	0.0115
669.2054	0.014
669.3898	0.002
669.5742	0.0119
669.7586	0.0099
669.943	0.0104
670.1273	0.0189
670.3117	0.0113
670.496	0.0109
670.6803	0.0198
670.8646	0.0063
671.0488	0.0045
671.2331	0.0038
671.4173	0.0032
671.6015	0.0027
671.7857	0.0109
671.9699	0.0023
672.1541	0.0032
672.3382	0.0074
672.5223	0.006
672.7064	0.0058
672.8905	-0.0018
673.0746	0.0011
673.2587	0.0052
673.4427	0.0072
673.6267	0.0065
673.8107	0.0054
673.9947	0.0043
674.1787	0.0065
674.3626	0.001
674.5465	0.0031
674.7304	0.0101
674.9143	0.0119
675.0982	0.0118
675.2821	-0.0005
675.4659	0.0067
675.6497	0.0069
675.8335	0.0058
676.0173	0.0045
676.2011	0.0038
676.3849	-0.0016
676.5686	-0.0025
676.7523	0.0012
676.936	-0.0001
677.1197	0.0014
677.3034	-0.0069
677.487	0.0049
677.6706	0.0001
677.8542	-0.0024
678.0378	0.0058
678.2214	0.0036
678.405	0.0059
678.5885	0.0008
678.772	0.0047
678.9555	0.0035
679.139	0.0022
679.3225	-0.0012
679.5059	-0.0002
679.6894	0.0012
679.8728	-0.0023
680.0562	-0.0093
680.2395	-0.004
680.4229	-0.0058
680.6062	0.0053
680.7896	-0.0011
680.9729	-0.0044
681.1562	0.0035
681.3394	-0.003
681.5227	-0.005
681.7059	-0.0024
681.8891	0.0016
682.0723	0.0063
682.2555	0.0023
682.4387	0.0014
682.6218	-0.0041
682.805	0.007
682.9881	-0.0003
683.1712	0.0001
683.3542	-0.001
683.5373	0.0064
683.7203	-0.0061
683.9034	0.0075
684.0864	-0.0064
684.2694	0.0041
684.4523	0.003
684.6353	-0.0004
684.8182	0.0027
685.0011	0.0007
685.184	0.0057
685.3669	-0.0003
685.5498	0.0036
685.7326	0.0112
685.9154	-0.0069
686.0982	0.0054
686.281	0.007
686.4638	0.0044
686.6465	0.0002
686.8293	0.0021
687.012	0.0054
687.1947	-0.0096
687.3774	-0.0001
687.56	-0.0031
687.7427	0.0102
687.9253	-0.0052
688.1079	0.0013
688.2905	0.0139
688.4731	0.0104
688.6556	0.0062
688.8382	0.0002
689.0207	0.0022
689.2032	-0.0047
689.3857	-0.012
689.5681	-0.0035
689.7506	-0.0054
689.933	0.0019
690.1154	-0.004
690.2978	-0.0051
690.4802	-0.0041
690.6626	-0.0131
690.8449	-0.0038
691.0272	0.005
691.2095	-0.0067
691.3918	-0.0018
691.5741	0.0052
691.7563	-0.0019
691.9386	0.0063
692.1208	0.0016
692.303	0.0079
692.4852	0.0031
692.6673	0.0048
692.8495	-0.0002
693.0316	0.0071
693.2137	0.0049
693.3958	0.0089
693.5778	0.0043
693.7599	0.0036
693.9419	0.0004
694.1239	0.006
694.3059	0.0034
694.4879	0.0124
694.6699	0.0134
694.8518	0.0137
695.0337	0.002
695.2157	0.0135
695.3975	0.0043
695.5794	0.009
695.7613	0.0051
695.9431	-0.001
696.1249	0.0133
696.3067	0.0037
696.4885	0.0125
696.6703	0.005
696.852	-0.0013
697.0337	0.0042
697.2154	0.0051
697.3971	0.0088
697.5788	0.0034
697.7605	0.0026
697.9421	0.0165
698.1237	0.0061
698.3053	0.0009
698.4869	0.0042
698.6685	-0.0013
698.85	0.0023
699.0315	0.013
699.213	0.0005
699.3945	0.0069
699.576	0.0111
699.7575	0.0067
699.9389	0.01
700.1203	-0.0005
700.3017	-0.0088
700.4831	0.0017
700.6645	0.002
700.8458	0.0116
701.0271	0.0029
701.2084	-0.0007
701.3897	0.0034
701.571	0.0021
701.7523	0.003
701.9335	0.0074
702.1147	0.0039
702.2959	0.0049
702.4771	0.0003
702.6583	0.0011
702.8394	-0.0005
703.0205	0.0051
703.2016	0.0022
703.3827	0.0039
703.5638	0.0056
703.7449	0.0006
703.9259	0.0074
704.1069	0.0017
704.2879	0.0027
704.4689	-0.0024
704.6499	0.007
704.8308	0.0061
705.0117	0.0031
705.1927	0.0046
705.3735	0.002
705.5544	-0.0092
705.7353	0.0048
705.9161	-0.0044
706.0969	-0.0065
706.2777	-0.0011
706.4585	0.0003
706.6393	0.0014
706.82	-0.0049
707.0007	0.0015
707.1815	-0.0014
707.3621	0.0073
707.5428	-0.0055
707.7235	0.0002
707.9041	-0.0019
708.0847	-0.0101
708.2653	-0.0096
708.4459	-0.0136
708.6265	-0.0027
708.807	-0.0063
708.9875	-0.0082
709.168	-0.004
709.3485	-0.0094
709.529	-0.008
709.7095	-0.0134
709.8899	-0.003
710.0703	-0.0087
710.2507	-0.0035
710.4311	-0.0112
710.6115	-0.0131
710.7918	-0.01
710.9721	-0.005
711.1524	-0.0123
711.3327	-0.0053
711.513	0.003
711.6932	-0.0008
711.8735	0.012
712.0537	0.0044
712.2339	0.0053
712.4141	-0.0066
712.5942	0.001
712.7744	-0.0004
712.9545	-0.0024
713.1346	-0.0056
713.3147	-0.0072
713.4947	-0.002
713.6748	-0.0038
713.8548	-0.0012
714.0348	-0.0093
714.2148	-0.0041
714.3948	0.0074
714.5748	-0.0003
714.7547	0.0005
714.9346	0.0099
715.1145	-0.0088
715.2944	-0.0024
715.4743	-0.0021
715.6541	0.0016
715.834	0.0064
716.0138	-0.004
716.1936	-0.0093
716.3733	-0.0047
716.5531	0.008
716.7328	-0.0022
716.9126	0.0006
717.0923	0.0019
717.2719	-0.0034
717.4516	0.0018
717.6312	-0.0026
717.8109	-0.0042
717.9905	0.0074
718.1701	-0.0002
718.3496	-0.0084
718.5292	-0.0095
718.7087	-0.0019
718.8882	-0.0063
719.0677	-0.0015
719.2472	0.0004
719.4267	0.003
719.6061	-0.0047
719.7856	0.0071
719.965	0.0088
720.1443	-0.005
720.3237	0.0104
720.5031	0.0056
720.6824	0.0028
720.8617	0.0038
721.041	0.0027
721.2203	0.0143
721.3995	0.0041
721.5788	-0.0059
721.758	0.0025
721.9372	-0.0015
722.1164	0.004
722.2956	0.0068
722.4747	-0.0023
722.6538	-0.0025
722.8329	0.0094
723.012	0.0046
723.1911	0.0056
723.3702	-0.0037
723.5492	0.0041
723.7282	-0.0005
723.9072	0.0082
724.0862	0.0023
724.2652	-0.0094
724.4441	0.0007
724.623	0.0032
724.8019	-0.002
724.9808	0.0054
725.1597	-0.0018
725.3385	0.0079
725.5174	-0.0009
725.6962	-0.0034
725.875	-0.0022
726.0538	0.0023
726.2325	-0.0032
726.4112	0.0049
726.59	-0.0027
726.7687	-0.0067
726.9474	-0.0003
727.126	-0.0011
727.3047	0.0032
727.4833	-0.0044
727.6619	-0.0036
727.8405	-0.005
728.0191	0.0019
728.1976	0.0057
728.3762	-0.0017
728.5547	0.0031
728.7332	-0.0065
728.9116	-0.0024
729.0901	0.0077
729.2686	-0.0061
729.447	0.004
729.6254	0.0035
729.8038	0.0013
729.9821	-0.01
730.1605	0.0055
730.3388	0.0024
730.5171	0.0049
730.6954	-0.0037
730.8737	0.0041
731.0519	0.0101
731.2302	0.0051
731.4084	0.011
731.5866	0.0049
731.7648	0.0024
731.9429	-0.0001
732.1211	-0.0059
732.2992	0.0032
732.4773	-0.0037
732.6554	-0.0023
732.8335	0.0032
733.0115	0.0006
733.1896	0.0047
733.3676	-0.0048
733.5456	0.0048
733.7235	-0.0009
733.9015	-0.0027
734.0794	-0.0022
734.2574	-0.0039
734.4353	0.006
734.6131	0.0049
734.791	0.0018
734.9689	0.005
735.1467	0.0069
735.3245	-0.0052
735.5023	-0.0017
735.68	0.0023
735.8578	0.0017
736.0355	-0.0116
736.2132	-0.0068
736.3909	-0.0063
736.5686	-0.0082
736.7463	0.0083
736.9239	-0.0032
737.1015	0.0026
737.2791	0.0062
737.4567	0.0003
737.6343	-0.0021
737.8118	0.0065
737.9894	0.0118
738.1669	0.0001
738.3444	-0.0015
738.5218	0.0063
738.6993	-0.0077
738.8767	-0.0078
739.0541	0.0022
739.2315	-0.0125
739.4089	-0.0009
739.5863	0.0129
739.7636	-0.0104
739.9409	0.0058
740.1182	0.0046
740.2955	0.0077
740.4728	0.001
740.65	-0.0035
740.8272	-0.0019
741.0044	-0.0096
741.1816	-0.0041
741.3588	-0.0051
741.5359	0.008
741.7131	-0.0113
741.8902	-0.0053
742.0673	-0.0013
742.2444	-0.009
742.4214	-0.0047
742.5985	0.0006
742.7755	-0.0041
742.9525	-0.0124
743.1295	-0.0022
743.3064	0.0011
743.4834	0.0115
743.6603	0.0019
743.8372	0.0094
744.0141	0.0094
744.191	0.0126
744.3678	0.0119
744.5446	0.0068
744.7215	0.0063
744.8982	0.0023
745.075	-0.0046
745.2518	0.0022
745.4285	0.005
745.6052	-0.0012
745.7819	0.0039
745.9586	0.0005
746.1353	0.0069
746.3119	-0.0064
746.4885	-0.0033
746.6651	-0.0091
746.8417	-0.0019
747.0183	0.0017
747.1948	0.0034
747.3714	-0.0022
747.5479	0.0054
747.7244	-0.0058
747.9008	0.014
748.0773	-0.0043
748.2537	0.0005
748.4301	-0.0018
748.6065	-0.0007
748.7829	0.0027
748.9593	0.0036
749.1356	0.0077
749.3119	0.0094
749.4882	-0.0076
749.6645	0.0028
749.8408	-0.0045
750.017	-0.005
750.1933	-0.004
750.3695	-0.0073
750.5457	0.0092
750.7218	0.0008
750.898	0.0032
751.0741	-0.0078
751.2502	-0.0015
751.4263	0.0034
751.6024	0.0091
751.7784	0.0007
751.9545	-0.0074
752.1305	-0.0063
752.3065	-0.007
752.4825	0.0056
752.6584	-0.0064
752.8344	-0.0062
753.0103	-0.0092
753.1862	-0
753.3621	-0.0066
753.5379	-0.007
753.7138	0.0027
753.8896	0.0024
754.0654	-0.0007
754.2412	0.0114
754.417	0.011
754.5927	0.0103
754.7685	-0.0043
754.9442	0.0064
755.1199	0.0019
755.2956	-0.0005
755.4712	0.003
755.6469	0.0052
755.8225	-0.0055
755.9981	-0.0056
756.1736	0.0082
756.3492	0.0122
756.5248	0.0011
756.7003	0.0021
756.8758	0.0049
757.0513	0.0007
757.2267	0.0024
757.4022	0.0073
757.5776	-0.0068
757.753	0.0087
757.9284	0.0056
758.1038	0.0145
758.2791	0.0059
758.4545	-0.0059
758.6298	-0.002
758.8051	0.0015
758.9803	-0.0057
759.1556	0.0011
759.3308	-0.0047
759.506	0.0087
759.6812	-0.0002
759.8564	0.0107
760.0316	0.0039
760.2067	0.0106
760.3819	0.0121
760.557	0.0201
760.732	0.0083
760.9071	-0.0044
761.0821	0.0075
761.2572	0.0097
761.4322	0.0024
761.6072	0.005
761.7821	-0.0016
761.9571	0.0088
762.132	0.001
762.3069	-0.0077
762.4818	-0.0041
762.6567	0.0023
762.8316	0.0034
763.0064	-0.0024
763.1812	-0.0003
763.356	-0.0198
763.5308	0.0006
763.7055	0.0026
763.8803	-0.0012
764.055	-0.0008
764.2297	-0.0065
764.4044	-0.0031
764.579	-0.0042
764.7537	-0.003
764.9283	-0.0004
765.1029	-0.0071
765.2775	0.0064
765.4521	-0.0008
765.6266	0.0023
765.8011	-0.0138
765.9756	-0.0015
766.1501	0.0027
766.3246	0.0055
766.4991	-0.0029
766.6735	0.0066
766.8479	-0.0073
767.0223	0.0144
767.1967	0.0029
767.371	0.0037
767.5454	0.0039
767.7197	0.0131
767.894	-0.0016
768.0683	-0.0154
768.2425	0.0005
768.4168	-0.0016
768.591	0.0134
768.7652	0.003
768.9394	0.0032
769.1135	-0.0033
769.2877	0.019
769.4618	0.0042
769.6359	-0.0043
769.81	0.0027
769.984	-0.0069
770.1581	-0.0141
770.3321	0.0029
770.5061	-0.0016
770.6801	-0.001
770.8541	-0.0072
771.028	-0.005
771.202	-0.0226
771.3759	0.0024
771.5498	-0.0032
771.7236	0.0064
771.8975	-0.0005
772.0713	-0.0033
772.2451	0.0066
772.4189	0.0037
772.5927	0.0089
772.7665	0.0085
772.9402	-0.0125
773.1139	-0.0082
773.2876	0.0039
773.4613	-0.0036
773.635	0.0106
773.8086	-0.0063
773.9822	0.0023
774.1558	0.0098
774.3294	-0.0193
774.503	0.0025
774.6765	0.0077
774.8501	0.0074
775.0236	0.0158
775.1971	0.0171
775.3705	-0.0002
775.544	0.0136
775.7174	-0.0105
775.8908	-0.0041
776.0642	0.0012
776.2376	-0.0008
776.4109	-0.0115
776.5843	0.0068
776.7576	0.0103
776.9309	0.0088
777.1041	0.0091
777.2774	0.0099
777.4506	-0.0062
777.6238	-0.0087
777.797	0.0023
777.9702	-0.0032
778.1434	-0.0074
778.3165	-0.0113
778.4896	-0.0016
778.6627	0.0083
778.8358	0.0043
779.0089	-0.0089
779.1819	-0.0091
779.3549	0.0123
779.5279	0.0013
779.7009	-0.0002
779.8739	-0.005
780.0468	0.001
780.2197	0.0148
780.3926	0.0044
780.5655	-0.0037
780.7384	0.0023
780.9112	0.0079
781.0841	-0.0081
781.2569	-0.0007
781.4297	0.0097
781.6024	0.0071
781.7752	0.0088
781.9479	0.006
782.1206	-0.0063
782.2933	-0.0056
782.466	-0.0024
782.6386	-0.0007
782.8113	-0.0028
782.9839	0.0029
783.1565	0.0061
783.329	-0.0018
783.5016	0.0053
783.6741	-0.0029
783.8466	-0.011
784.0191	-0.0003
784.1916	-0.0073
784.3641	-0.0065
784.5365	-0.0123
784.7089	-0.009
784.8813	-0.0052
785.0537	0.0017
785.2261	-0.0005
785.3984	-0.0231
785.5707	-0.0024
785.743	-0.0036
785.9153	-0.0196
786.0876	0.0049
786.2598	-0.0034
786.432	-0.01
786.6042	0.0014
786.7764	-0.0093
786.9486	-0.0031
787.1207	-0.0063
787.2928	0.0091
787.4649	-0.0027
787.637	0.0123
787.8091	-0.0057
787.9811	-0.0023
788.1532	-0.0017
788.3252	0.0126
788.4972	0.0036
788.6691	0.0043
788.8411	0.0056
789.013	0.0006
789.1849	0.0015
789.3568	-0.0058
789.5287	-0.0067
789.7005	-0.0046
789.8723	0.0021
790.0442	0.015
790.2159	0.0078
790.3877	0.0058
790.5595	-0.0115
790.7312	-0.0082
790.9029	-0.0089
791.0746	0.0077
791.2463	-0.0036
791.4179	-0.0068
791.5896	-0.0106
791.7612	-0.0054
791.9328	0.0026
792.1044	-0.0064
792.2759	-0.0168
792.4474	-0.0016
792.619	0.0069
792.7905	0.0099
792.9619	0.0195
793.1334	-0.002
793.3048	0.0168
793.4762	0.0023
793.6476	0.0071
793.819	-0.01
793.9904	0.0055
794.1617	-0.0133
794.333	0.0005
794.5043	-0.0123
794.6756	-0.0159
794.8469	-0.0071
795.0181	-0.0062
795.1893	-0.0133
795.3605	-0.0011
795.5317	-0.009
795.7029	-0.0095
795.874	0.0067
796.0452	-0.0082
796.2163	-0.0102
796.3873	0.0044
796.5584	0.005
796.7294	-0.0025
796.9005	0.0088
797.0715	0.0109
797.2425	-0.0292
797.4134	-0.0206
797.5844	-0.0002
797.7553	-0.0028
797.9262	-0.0042
798.0971	-0.005
798.2679	-0.0151
798.4388	-0.0226
798.6096	-0.0185
798.7804	-0.0015
798.9512	0.0081
799.122	-0.0099
799.2927	0.0046
799.4635	0.0076
799.6342	-0.0353
799.8049	0.0106
799.9755	-0.0119
800.1462	0.0066
800.3168	0.0054
800.4874	0.0002
800.658	0.0166
800.8286	0.0027
800.9991	0.0029
801.1696	0.0123
801.3402	0.0041
801.5106	-0.0057
801.6811	0.0046
801.8516	-0.0044
802.022	0.0118
802.1924	0.0043
802.3628	0.0074
802.5332	0.0053
802.7035	0.0399
802.8739	0.0008
803.0442	-0.0153
803.2145	0.0211
803.3847	-0.0309
803.555	-0.0088
803.7252	-0.0256
803.8954	-0.03
804.0656	-0.011
804.2358	-0.0065
804.4059	0.0015
804.5761	0.0065
804.7462	0.0075
804.9163	0.0042
805.0864	-0.0217
805.2564	-0.0087
805.4264	0.0046
805.5965	-0.0143
805.7665	-0.0087
805.9364	-0.0062
806.1064	0.0227
806.2763	-0.0036
806.4462	0.0172
806.6161	-0.0102
806.786	0.0075
806.9559	-0.0043
807.1257	0.0035
807.2955	0.0068
807.4653	-0.0063
807.6351	-0.0035
807.8048	-0.0047
807.9746	0.0188
808.1443	-0.0011
808.314	0.0039
808.4837	-0.0019
808.6533	0.0067
808.8229	0.0152
808.9926	0.0221
809.1622	-0.0076
809.3317	0.014
809.5013	0.006
809.6708	0.0096
809.8403	0.0153
810.0098	0.0087
810.1793	-0.008
810.3488	-0.0094
810.5182	-0.0075
810.6876	0.0069
810.857	-0.0144
811.0264	0.0191
811.1958	0.0138
811.3651	-0.0134
811.5344	-0.0005
811.7037	-0.0068
811.873	-0.0185
812.0422	0.0096
812.2115	-0.0016
812.3807	-0.016
812.5499	0.0041
812.7191	0.0008
812.8882	-0.0101
813.0574	-0.0106
813.2265	-0.0073
813.3956	0.0101
813.5646	-0.0079
813.7337	-0.0177
813.9027	0.0265
814.0718	-0.0008
814.2407	0.0206
814.4097	-0.0156
814.5787	-0.0235
814.7476	-0.0109
814.9165	-0.0121
815.0854	-0.0131
815.2543	0.0135
815.4232	0.0039
815.592	0.0147
815.7608	0.0102
815.9296	0.0071
816.0984	0.0038
816.2671	-0.0194
816.4359	0.0144
816.6046	0.0041
816.7733	0.0049
816.942	0.0038
817.1106	0.0131
817.2793	0.0088
817.4479	-0.0027
817.6165	0.0201
817.785	0.0019
817.9536	-0.0088
818.1221	0.0019
818.2906	-0.0132
818.4591	-0.0123
818.6276	0.0155
818.7961	-0.0059
818.9645	0.0077
819.1329	0.0173
819.3013	0.0219
819.4697	0.0331
819.638	-0.0091
819.8064	0.0072
819.9747	0.0328
820.143	-0.0032
820.3113	-0.0036
820.4795	0.0081
820.6477	0.0003
820.816	0.0056
820.9842	0.0146
821.1523	-0.0221
821.3205	0.0018
821.4886	0.0036
821.6567	-0.0043
821.8248	0.0077
821.9929	0.027
822.1609	0.0057
822.329	0.0331
822.497	0.0231
822.665	-0.0012
822.833	-0.0084
823.0009	-0.0071
823.1688	0.0291
823.3367	0.0172
823.5046	0.0351
823.6725	0.0316
823.8404	0.0251
824.0082	0.0295
824.176	0.0024
824.3438	0.0279
824.5116	-0.0008
824.6793	0.0012
824.847	-0.0033
825.0147	-0.0004
825.1824	0.0091
825.3501	0.0028
825.5177	-0.0004
825.6854	-0.0243
825.853	0.0021
826.0206	-0.0205
826.1881	0.0105
826.3557	-0.0194
826.5232	0.0173
826.6907	-0.0181
826.8582	-0.0063
827.0257	0.0065
827.1931	0.0087
827.3605	-0.0045
827.528	-0.0155
827.6953	-0.0058
827.8627	-0.0169
828.03	0.0247
828.1974	0.0167
828.3647	-0.0529
828.532	-0.0414
828.6992	-0.0207
828.8665	0.021
829.0337	-0.0125
829.2009	0.03
829.3681	-0.018
829.5352	0.0281
829.7024	-0.0106
829.8695	-0.025
830.0366	0.0648
830.2037	-0.0101
830.3707	0.0408
830.5378	0.013
830.7048	-0.0005
830.8718	0.0155
831.0388	-0.0288
831.2057	0.0309
831.3727	0.0213
831.5396	-0.0051
831.7065	0.0334
831.8734	0.0279
832.0402	0.0012
832.2071	-0.0419
832.3739	-0.029
832.5407	0.0072
832.7075	0.0006
832.8742	-0.021
833.041	0.0087
833.2077	0.008
833.3744	0.0356
833.541	-0.0107
833.7077	-0.0354
833.8743	-0.0104
834.0409	0.0232
834.2075	0.0096
834.3741	-0.0175
834.5407	-0.0156
834.7072	0.0051
834.8737	-0.0483
835.0402	-0.0261
835.2067	0.0159
835.3731	0.0217
835.5395	0.0143
835.706	0.0125
835.8723	-0.0043
836.0387	-0.0412
836.2051	-0.0256
836.3714	-0.0061
836.5377	0.0219
836.704	-0.0349
836.8703	0.0109
837.0365	0.0007
837.2027	0.0257
837.3689	-0.0061
837.5351	-0.0414
837.7013	-0.0505
837.8674	-0.048
838.0335	-0.0143
838.1997	-0.0389
838.3657	-0.0553
838.5318	0.0088
838.6978	0.0352
838.8639	0.0462
839.0299	-0.021
839.1958	0.0241
839.3618	0.0338
839.5277	-0.0824
839.6937	0.005
839.8596	-0.0255
840.0254	-0.0218
840.1913	-0.0122
840.3571	0.057
840.523	0.003
840.6888	-0.0325
840.8545	-0.0207
841.0203	-0.0288
841.186	-0.006
841.3517	0.0164
841.5174	-0.0017
841.6831	0.0222
841.8488	-0.015
842.0144	-0.0153
842.18	0.0027
842.3456	-0.0175
842.5112	-0.0461
842.6767	-0.0456
842.8422	-0.0379
843.0077	-0.0071
843.1732	0.0059
843.3387	-0.009
843.5042	-0.0172
843.6696	0.0607
843.835	-0.0382
844.0004	-0.0209
844.1657	-0.0158
844.3311	-0.094
844.4964	-0.0971
844.6617	-0.0393
844.827	0.0276
844.9923	-0
845.1575	0.0096
845.3227	-0.0333
845.4879	0.0126
845.6531	-0.0947
845.8183	-0.066
845.9834	0.0204
846.1485	0.0099
846.3136	-0.0294
846.4787	-0.0742
846.6438	0.0386
846.8088	-0.0332
846.9738	-0.0684
847.1388	-0.0056
847.3038	-0.0748
847.4687	-0.0791
847.6337	0.0309
847.7986	0.0121
847.9635	-0.0779
848.1284	-0.0429
848.2932	-0.0107
848.458	-0.0483
848.6228	0.0941
848.7876	0.0554
848.9524	-0.1023
849.1172	-0.0954
849.2819	0.0215
849.4466	-0.1508
849.6113	-0.0986
849.7759	-0.004
849.9406	0.0034
850.1052	0.0603
850.2698	-0.0075
850.4344	-0.0412
850.599	-0.1149
850.7635	0.0631
850.928	0.0347
851.0925	-0.0151
851.257	0.0507
851.4215	0.0494
851.5859	-0.0706
851.7503	0.0486
851.9147	0.0871
852.0791	-0.1016
852.2434	-0.0666
852.4078	0.0345
852.5721	0.0016
852.7364	-0.0238
852.9007	-0.1555
853.0649	-0.0672
853.2291	-0.1503
853.3934	-0.0023
853.5575	-0.0149
853.7217	-0.0873
853.8859	-0.1081
854.05	-0.143
854.2141	-0.0421
854.3782	-0.0406
854.5423	-0.1294
854.7063	0.1437
854.8703	-0.0471
855.0343	0.0791
855.1983	-0.1899
855.3623	-0.0019
855.5262	0.0197
855.6901	-0.0527
855.854	0.0083
856.0179	-0.0501
856.1818	0.0797
856.3456	-0.0326
856.5094	-0.1293
856.6732	0.0089
856.837	-0.0797
857.0008	0.0383
857.1645	-0.1141
857.3282	-0.0468
857.4919	0.0881
857.6556	-0.0538
857.8192	0.0636
857.9828	0.0707
858.1465	-0.0228
858.31	-0.2109
858.4736	0.0457
858.6372	-0.3369
858.8007	-0.1724
858.9642	-0.0866
859.1277	0.0241
859.2911	-0.0354
859.4546	-0.0408
859.618	-0.467
859.7814	-0.0567
859.9448	-0.0086
860.1081	0.0564
860.2715	0.2023
860.4348	-0.052
860.5981	-0.0735
860.7614	0.0224
860.9246	-0.2724
861.0879	0.0723
861.2511	-0.0326
861.4143	-0.4195
861.5774	0.1501
861.7406	-0.2516
861.9037	0.0596
862.0668	-0.2241
862.2299	-0.282
862.393	-0.657
862.556	-0
862.7191	-0.0749
862.8821	-0.115
863.0451	0.0111
863.208	0.2606
863.371	-0.0425
863.5339	0.2168
863.6968	-0.1007
863.8597	0.088
864.0225	0.1387
864.1854	-0.1444
864.3482	-0
864.511	0.217
864.6737	0.3866
864.8365	0.0309
864.9992	-0.0479
865.1619	-0.6296
865.3246	-0.0906
865.4873	0.3308
865.65	-0.3576
865.8126	0.1167
865.9752	-0.1301
866.1378	-0.1591
866.3004	-0.027
866.4629	0.1056
866.6254	-0.4476
866.7879	-0.0542
866.9504	-0
867.1129	-0
867.2753	-0.04
867.4377	0.2713
867.6001	-0.2997
867.7625	0.4103
867.9249	-0.3226
868.0872	0.0087
868.2495	-0.0119
868.4118	-0.2997
868.5741	-0.5077
868.7363	-0.139
868.8986	-0.3759
869.0608	-0.1561
869.223	-0.0897
869.3851	-0
869.5473	0.6549
869.7094	0.1418
869.8715	-0.6238
870.0336	-1.1369
870.1957	-0.4426
870.3577	-0.5027
870.5197	0.0754
870.6817	-0.5995
870.8437	-0.1362
871.0057	0.3136
871.1676	-0.4426
871.3295	0.108
871.4914	-0
871.6533	-0.3778
871.8151	-0.2988
871.977	-0
872.1388	-0
872.3006	-0.0912
872.4623	-0
872.6241	0.3082
872.7858	-0
872.9475	0.3694
873.1092	-0.4565
873.2709	0.7819
873.4325	0.0666
873.5941	-0.6695
873.7557	-0
873.9173	-0
874.0789	0
874.2404	0.5195
874.4019	-0
874.5634	0.6783
874.7249	0.0093
874.8863	0.2281
875.0478	0.1134
875.2092	-0
875.3706	0.4365
875.5319	-0
875.6933	-0
875.8546	0.4925
876.0159	-0
876.1772	-0
876.3385	-0
876.4997	0.3586
876.6609	-0.5027
876.8221	-0.0383
876.9833	-0
877.1445	1.2788
877.3056	0.0638
877.4667	0.2725
877.6278	0.7989
877.7889	-0.6829
877.9499	-0
878.111	-0.372
878.272	-0.8777
878.433	-0.1609
878.5939	-0
878.7549	0.0122
878.9158	-0.9013
879.0767	0.5808
879.2376	0.5377
879.3984	0.7059
879.5593	0.4512
879.7201	-0.1591
879.8809	-0.6476
880.0417	-0.3398
880.2024	-0.089
880.3632	-0
880.5239	0.1663
880.6846	-0
880.8452	-2.2989
881.0059	-0
881.1665	0.3031
881.3271	0.0171
881.4877	-0.4865
881.6483	0.4063
881.8088	-0.1241
881.9693	-0
882.1298	-0
882.2903	-0
