Data from MonoPyChalIsomerACN10uM440nmA_Absorbance_15-27-18-294.txt Node
Date: Fri Jul 05 15:27:18 BST 2024
User: LASERRRRR
Spectrometer: FLMT03099
Trigger mode: 0
Integration Time (sec): 1.000000E-1
Scans to average: 1
Electric dark correction enabled: true
Nonlinearity correction enabled: false
Boxcar width: 0
XAxis mode: Wavelengths
Number of Pixels in Spectrum: 3648
>>>>>Begin Spectral Data<<<<<
179.3399	0.2313
179.5586	0.2313
179.7771	0.2313
179.9957	0.1922
180.2143	1.0414
180.4329	-0.177
180.6514	-0
180.8699	-0
181.0885	0.3552
181.307	-0.0747
181.5255	-0
181.744	0.7677
181.9625	-0
182.181	-0
182.3994	-0.1049
182.6179	0.3443
182.8363	-0
183.0547	-0.3469
183.2732	-0.0183
183.4916	0.0533
183.71	0.1174
183.9284	0.1823
184.1467	0.0299
184.3651	-0.1295
184.5835	-0.0882
184.8018	-0.0364
185.0201	0.3959
185.2385	-0.0776
185.4568	0.1205
185.6751	-0.0822
185.8934	0.6916
186.1117	0.0529
186.3299	0.1085
186.5482	0.0015
186.7664	-0.1667
186.9847	-0.0461
187.2029	0.1339
187.4211	0.1887
187.6393	0.0897
187.8575	-0.0591
188.0757	0.291
188.2939	0.3188
188.512	0.045
188.7302	-0.1461
188.9483	0.1449
189.1665	0.1758
189.3846	-0.0982
189.6027	0.0804
189.8208	0.1242
190.0389	0.1061
190.257	0.0936
190.475	0.3299
190.6931	0.4959
190.9111	0.732
191.1292	0.0566
191.3472	0.5959
191.5652	0.4655
191.7832	0.2429
192.0012	0.6842
192.2192	0.4112
192.4371	0.3188
192.6551	0.3104
192.873	0.5215
193.091	0.3575
193.3089	0.5768
193.5268	0.4651
193.7447	1.1646
193.9626	0.3531
194.1805	0.4317
194.3984	0.7984
194.6162	0.5335
194.8341	0.4804
195.0519	0.4519
195.2697	0.7476
195.4875	0.5676
195.7054	0.5762
195.9231	0.6645
196.1409	0.5121
196.3587	0.5372
196.5765	0.5116
196.7942	0.5681
197.012	0.4759
197.2297	0.6159
197.4474	0.7021
197.6651	0.5208
197.8828	0.4701
198.1005	0.5605
198.3182	0.7489
198.5358	0.7378
198.7535	0.5821
198.9711	0.6624
199.1888	0.5985
199.4064	0.7056
199.624	0.5587
199.8416	0.6384
200.0592	0.5639
200.2767	0.5477
200.4943	0.6361
200.7119	0.6557
200.9294	0.583
201.1469	0.5838
201.3645	0.6037
201.582	0.5939
201.7995	0.647
202.017	0.7158
202.2344	0.6286
202.4519	0.6753
202.6694	0.7372
202.8868	0.5998
203.1042	0.7291
203.3217	0.6731
203.5391	0.648
203.7565	0.5115
203.9739	0.6373
204.1913	0.6225
204.4086	0.6527
204.626	0.6062
204.8433	0.6766
205.0607	0.6575
205.278	0.6798
205.4953	0.6063
205.7126	0.65
205.9299	0.7655
206.1472	0.7949
206.3644	0.6431
206.5817	0.7123
206.7989	0.6508
207.0162	0.6182
207.2334	0.6259
207.4506	0.6043
207.6678	0.5792
207.885	0.6938
208.1022	0.6867
208.3194	0.5971
208.5365	0.6388
208.7537	0.6671
208.9708	0.5952
209.1879	0.665
209.405	0.7916
209.6222	0.6359
209.8392	0.613
210.0563	0.6418
210.2734	0.6416
210.4905	0.6423
210.7075	0.6494
210.9245	0.5788
211.1416	0.6927
211.3586	0.6394
211.5756	0.602
211.7926	0.6062
212.0096	0.5776
212.2265	0.5162
212.4435	0.5499
212.6604	0.5841
212.8774	0.592
213.0943	0.6101
213.3112	0.5659
213.5281	0.5285
213.745	0.5195
213.9619	0.498
214.1788	0.4757
214.3956	0.4549
214.6125	0.4946
214.8293	0.4239
215.0461	0.4799
215.2629	0.4421
215.4798	0.4594
215.6965	0.4213
215.9133	0.4362
216.1301	0.3903
216.3469	0.4316
216.5636	0.4194
216.7803	0.3824
216.9971	0.4121
217.2138	0.3732
217.4305	0.3813
217.6472	0.3717
217.8639	0.3957
218.0805	0.3381
218.2972	0.3158
218.5138	0.3169
218.7305	0.3303
218.9471	0.3005
219.1637	0.2869
219.3803	0.3018
219.5969	0.2691
219.8135	0.2466
220.0301	0.2662
220.2466	0.2686
220.4632	0.2406
220.6797	0.2138
220.8962	0.2337
221.1127	0.2396
221.3292	0.2499
221.5457	0.2473
221.7622	0.2367
221.9787	0.2531
222.1951	0.2387
222.4116	0.2671
222.628	0.2394
222.8444	0.2522
223.0608	0.2272
223.2772	0.2721
223.4936	0.2486
223.71	0.2499
223.9264	0.2339
224.1427	0.2344
224.3591	0.2336
224.5754	0.2472
224.7917	0.2508
225.008	0.2377
225.2243	0.2523
225.4406	0.2713
225.6569	0.2614
225.8732	0.2561
226.0894	0.2563
226.3057	0.26
226.5219	0.2694
226.7381	0.2654
226.9543	0.2724
227.1705	0.2597
227.3867	0.2616
227.6029	0.2922
227.8191	0.299
228.0352	0.2741
228.2513	0.3047
228.4675	0.312
228.6836	0.3034
228.8997	0.283
229.1158	0.3188
229.3319	0.3051
229.548	0.2908
229.764	0.3054
229.9801	0.3277
230.1961	0.3186
230.4121	0.3281
230.6282	0.33
230.8442	0.3255
231.0602	0.327
231.2761	0.3518
231.4921	0.3573
231.7081	0.3394
231.924	0.3258
232.14	0.3568
232.3559	0.3447
232.5718	0.344
232.7877	0.3374
233.0036	0.3388
233.2195	0.3338
233.4353	0.3472
233.6512	0.3556
233.867	0.3716
234.0829	0.3496
234.2987	0.3508
234.5145	0.3635
234.7303	0.3665
234.9461	0.367
235.1619	0.3572
235.3776	0.3568
235.5934	0.3775
235.8091	0.3556
236.0249	0.3546
236.2406	0.3652
236.4563	0.3572
236.672	0.3834
236.8877	0.3878
237.1034	0.3946
237.319	0.3798
237.5347	0.3972
237.7503	0.3952
237.966	0.3991
238.1816	0.4056
238.3972	0.3988
238.6128	0.3987
238.8284	0.4
239.0439	0.3974
239.2595	0.4077
239.475	0.4074
239.6906	0.4156
239.9061	0.3975
240.1216	0.3946
240.3371	0.4091
240.5526	0.3992
240.7681	0.404
240.9836	0.3992
241.199	0.3773
241.4145	0.3776
241.6299	0.3625
241.8453	0.3615
242.0607	0.385
242.2761	0.3582
242.4915	0.3808
242.7069	0.371
242.9223	0.358
243.1376	0.3449
243.353	0.354
243.5683	0.3605
243.7836	0.3328
243.9989	0.3407
244.2142	0.3285
244.4295	0.3261
244.6448	0.311
244.86	0.3139
245.0753	0.3066
245.2905	0.2888
245.5057	0.2949
245.721	0.2771
245.9362	0.2766
246.1514	0.2606
246.3665	0.263
246.5817	0.257
246.7969	0.2534
247.012	0.244
247.2271	0.239
247.4423	0.2595
247.6574	0.2466
247.8725	0.2347
248.0876	0.2186
248.3026	0.2193
248.5177	0.2298
248.7328	0.2089
248.9478	0.2101
249.1628	0.2096
249.3779	0.2088
249.5929	0.2035
249.8079	0.2184
250.0228	0.1892
250.2378	0.1988
250.4528	0.2049
250.6677	0.201
250.8827	0.1944
251.0976	0.1903
251.3125	0.1983
251.5274	0.1832
251.7423	0.2018
251.9572	0.1894
252.172	0.1769
252.3869	0.1836
252.6017	0.1864
252.8166	0.167
253.0314	0.1579
253.2462	0.1672
253.461	0.1841
253.6758	0.1692
253.8906	0.1742
254.1053	0.1707
254.3201	0.1657
254.5348	0.1733
254.7496	0.1774
254.9643	0.1737
255.179	0.1698
255.3937	0.1524
255.6083	0.1701
255.823	0.1673
256.0377	0.1623
256.2523	0.1665
256.467	0.1519
256.6816	0.174
256.8962	0.1669
257.1108	0.1506
257.3254	0.1589
257.54	0.1612
257.7545	0.1585
257.9691	0.1604
258.1836	0.15
258.3981	0.1703
258.6127	0.1703
258.8272	0.1506
259.0417	0.167
259.2561	0.1688
259.4706	0.1559
259.6851	0.1606
259.8995	0.1705
260.114	0.1594
260.3284	0.1553
260.5428	0.1522
260.7572	0.1632
260.9716	0.1591
261.186	0.1616
261.4003	0.1689
261.6147	0.1608
261.829	0.161
262.0433	0.1598
262.2577	0.168
262.472	0.1657
262.6863	0.1677
262.9005	0.1735
263.1148	0.1714
263.3291	0.1404
263.5433	0.1569
263.7576	0.1635
263.9718	0.1593
264.186	0.1561
264.4002	0.155
264.6144	0.15
264.8286	0.167
265.0427	0.1532
265.2569	0.1604
265.471	0.149
265.6851	0.15
265.8993	0.1538
266.1134	0.1487
266.3275	0.1447
266.5415	0.1543
266.7556	0.1629
266.9697	0.1688
267.1837	0.1528
267.3978	0.1624
267.6118	0.1631
267.8258	0.1691
268.0398	0.1592
268.2538	0.1687
268.4677	0.1618
268.6817	0.1572
268.8957	0.1714
269.1096	0.1582
269.3235	0.1629
269.5374	0.1495
269.7514	0.1587
269.9652	0.1522
270.1791	0.146
270.393	0.1475
270.6068	0.1582
270.8207	0.1451
271.0345	0.1533
271.2483	0.1584
271.4622	0.1407
271.676	0.1554
271.8897	0.1382
272.1035	0.1346
272.3173	0.1529
272.531	0.1488
272.7448	0.1429
272.9585	0.1378
273.1722	0.155
273.3859	0.1593
273.5996	0.1462
273.8133	0.1582
274.0269	0.1431
274.2406	0.1361
274.4542	0.1419
274.6679	0.1333
274.8815	0.1538
275.0951	0.1623
275.3087	0.1612
275.5223	0.1601
275.7358	0.1462
275.9494	0.1499
276.1629	0.1407
276.3765	0.1468
276.59	0.1428
276.8035	0.1349
277.017	0.1501
277.2305	0.1562
277.444	0.16
277.6574	0.1371
277.8709	0.1489
278.0843	0.1497
278.2978	0.1426
278.5112	0.1583
278.7246	0.1438
278.938	0.1516
279.1513	0.1696
279.3647	0.1637
279.5781	0.1554
279.7914	0.1569
280.0047	0.1531
280.2181	0.1465
280.4314	0.1561
280.6447	0.1616
280.8579	0.1441
281.0712	0.1629
281.2845	0.1636
281.4977	0.1457
281.711	0.1428
281.9242	0.1551
282.1374	0.1687
282.3506	0.1528
282.5638	0.1711
282.7769	0.1603
282.9901	0.1525
283.2033	0.1566
283.4164	0.1623
283.6295	0.1588
283.8426	0.1595
284.0557	0.1449
284.2688	0.1551
284.4819	0.1642
284.695	0.1567
284.908	0.1597
285.1211	0.1572
285.3341	0.1516
285.5471	0.1606
285.7601	0.1534
285.9731	0.1514
286.1861	0.1495
286.3991	0.1572
286.612	0.1674
286.825	0.1496
287.0379	0.1626
287.2508	0.164
287.4637	0.1563
287.6766	0.1443
287.8895	0.1696
288.1024	0.1728
288.3152	0.1653
288.5281	0.1645
288.7409	0.1617
288.9538	0.165
289.1666	0.1524
289.3794	0.1525
289.5922	0.1455
289.8049	0.1569
290.0177	0.1598
290.2304	0.1538
290.4432	0.1579
290.6559	0.1515
290.8686	0.1641
291.0813	0.159
291.294	0.1544
291.5067	0.1671
291.7194	0.1604
291.932	0.1705
292.1447	0.1521
292.3573	0.1522
292.5699	0.153
292.7825	0.1618
292.9951	0.1515
293.2077	0.1611
293.4203	0.1495
293.6328	0.1488
293.8454	0.1646
294.0579	0.1467
294.2704	0.1515
294.4829	0.1485
294.6954	0.1666
294.9079	0.1559
295.1204	0.156
295.3328	0.149
295.5453	0.1551
295.7577	0.1528
295.9701	0.1552
296.1825	0.1581
296.3949	0.1509
296.6073	0.1522
296.8197	0.1494
297.0321	0.1632
297.2444	0.1446
297.4567	0.1585
297.6691	0.1529
297.8814	0.1445
298.0937	0.1413
298.306	0.1647
298.5182	0.1436
298.7305	0.1622
298.9428	0.1413
299.155	0.1624
299.3672	0.1486
299.5794	0.1487
299.7916	0.1525
300.0038	0.1595
300.216	0.1585
300.4282	0.1535
300.6403	0.1448
300.8525	0.1531
301.0646	0.1555
301.2767	0.156
301.4888	0.147
301.7009	0.1473
301.913	0.1519
302.125	0.1573
302.3371	0.1536
302.5491	0.15
302.7612	0.1617
302.9732	0.1605
303.1852	0.1559
303.3972	0.1517
303.6092	0.1448
303.8211	0.1505
304.0331	0.142
304.245	0.1444
304.457	0.1428
304.6689	0.1431
304.8808	0.1592
305.0927	0.1341
305.3046	0.1388
305.5164	0.1503
305.7283	0.1383
305.9401	0.1403
306.152	0.1477
306.3638	0.1482
306.5756	0.1315
306.7874	0.1387
306.9992	0.1483
307.2109	0.1336
307.4227	0.1275
307.6344	0.1394
307.8462	0.1323
308.0579	0.133
308.2696	0.1223
308.4813	0.1176
308.693	0.1295
308.9046	0.138
309.1163	0.1234
309.328	0.1257
309.5396	0.1115
309.7512	0.1127
309.9628	0.1241
310.1744	0.1112
310.386	0.1151
310.5976	0.1225
310.8091	0.1165
311.0207	0.1175
311.2322	0.1168
311.4437	0.1149
311.6552	0.1142
311.8667	0.1264
312.0782	0.1002
312.2897	0.108
312.5012	0.1149
312.7126	0.108
312.924	0.0999
313.1355	0.1172
313.3469	0.1058
313.5583	0.1132
313.7696	0.1058
313.981	0.1185
314.1924	0.0968
314.4037	0.1002
314.6151	0.1095
314.8264	0.098
315.0377	0.1007
315.249	0.0968
315.4603	0.1068
315.6716	0.1006
315.8828	0.0996
316.0941	0.0962
316.3053	0.0994
316.5165	0.0988
316.7277	0.0944
316.9389	0.1099
317.1501	0.1017
317.3613	0.1039
317.5724	0.0915
317.7836	0.0998
317.9947	0.1033
318.2058	0.0976
318.417	0.0888
318.6281	0.0955
318.8391	0.0912
319.0502	0.0954
319.2613	0.1133
319.4723	0.1089
319.6834	0.1019
319.8944	0.0936
320.1054	0.0961
320.3164	0.0975
320.5274	0.095
320.7383	0.0907
320.9493	0.1073
321.1602	0.1099
321.3712	0.0917
321.5821	0.0946
321.793	0.0962
322.0039	0.1038
322.2148	0.0917
322.4257	0.1027
322.6365	0.1115
322.8474	0.1101
323.0582	0.1017
323.269	0.1106
323.4798	0.1087
323.6906	0.1033
323.9014	0.1087
324.1122	0.1086
324.3229	0.0922
324.5337	0.0987
324.7444	0.1002
324.9551	0.1184
325.1658	0.0939
325.3765	0.1123
325.5872	0.1064
325.7979	0.1091
326.0085	0.105
326.2192	0.1051
326.4298	0.1066
326.6404	0.0973
326.851	0.1021
327.0616	0.1112
327.2722	0.1017
327.4828	0.1057
327.6933	0.108
327.9039	0.1183
328.1144	0.1206
328.3249	0.1168
328.5354	0.1088
328.7459	0.1072
328.9564	0.1051
329.1669	0.1181
329.3773	0.1053
329.5878	0.1033
329.7982	0.1073
330.0086	0.1106
330.219	0.1235
330.4294	0.1073
330.6398	0.1091
330.8502	0.0998
331.0605	0.109
331.2708	0.1085
331.4812	0.1017
331.6915	0.1189
331.9018	0.1033
332.1121	0.1039
332.3224	0.1104
332.5326	0.1208
332.7429	0.1129
332.9531	0.1247
333.1633	0.1015
333.3735	0.1114
333.5837	0.1078
333.7939	0.1069
334.0041	0.1158
334.2143	0.1168
334.4244	0.1041
334.6346	0.0987
334.8447	0.1211
335.0548	0.1042
335.2649	0.1127
335.475	0.111
335.685	0.1014
335.8951	0.1195
336.1051	0.12
336.3152	0.1069
336.5252	0.1105
336.7352	0.1166
336.9452	0.1151
337.1552	0.1185
337.3652	0.1174
337.5751	0.111
337.7851	0.1195
337.995	0.1066
338.2049	0.1067
338.4148	0.1134
338.6247	0.118
338.8346	0.1117
339.0445	0.1147
339.2543	0.1239
339.4642	0.1239
339.674	0.1175
339.8838	0.1158
340.0936	0.1162
340.3034	0.1187
340.5132	0.121
340.7229	0.1197
340.9327	0.1117
341.1424	0.1197
341.3522	0.1354
341.5619	0.1365
341.7716	0.128
341.9813	0.1313
342.1909	0.1173
342.4006	0.1326
342.6102	0.1344
342.8199	0.122
343.0295	0.121
343.2391	0.1368
343.4487	0.1292
343.6583	0.114
343.8679	0.127
344.0774	0.1184
344.287	0.1241
344.4965	0.1278
344.706	0.13
344.9155	0.1267
345.125	0.1319
345.3345	0.1338
345.544	0.1226
345.7534	0.1322
345.9629	0.1225
346.1723	0.1214
346.3817	0.1175
346.5911	0.1379
346.8005	0.1288
347.0099	0.1345
347.2193	0.139
347.4286	0.1287
347.638	0.1361
347.8473	0.1321
348.0566	0.1303
348.2659	0.1411
348.4752	0.1292
348.6845	0.139
348.8937	0.1389
349.103	0.1456
349.3122	0.1291
349.5214	0.1307
349.7306	0.1447
349.9398	0.1427
350.149	0.1371
350.3582	0.1335
350.5674	0.1515
350.7765	0.1362
350.9856	0.1396
351.1948	0.1308
351.4039	0.1421
351.613	0.1287
351.822	0.1493
352.0311	0.1347
352.2402	0.156
352.4492	0.1502
352.6582	0.1526
352.8672	0.1456
353.0762	0.1503
353.2852	0.143
353.4942	0.133
353.7032	0.1587
353.9121	0.1604
354.1211	0.1536
354.33	0.1446
354.5389	0.1457
354.7478	0.1602
354.9567	0.1449
355.1655	0.1355
355.3744	0.1578
355.5833	0.1412
355.7921	0.16
356.0009	0.1562
356.2097	0.1762
356.4185	0.1715
356.6273	0.1484
356.8361	0.1663
357.0448	0.1423
357.2536	0.149
357.4623	0.1437
357.671	0.1691
357.8797	0.1707
358.0884	0.1604
358.2971	0.1656
358.5057	0.1543
358.7144	0.1648
358.923	0.1667
359.1316	0.1638
359.3402	0.1507
359.5488	0.1719
359.7574	0.1484
359.966	0.1771
360.1746	0.1719
360.3831	0.1658
360.5916	0.1622
360.8002	0.1633
361.0087	0.182
361.2172	0.1826
361.4256	0.1854
361.6341	0.1771
361.8426	0.1847
362.051	0.1761
362.2594	0.1641
362.4678	0.1658
362.6762	0.1785
362.8846	0.184
363.093	0.1649
363.3014	0.1814
363.5097	0.1665
363.718	0.1714
363.9264	0.1661
364.1347	0.1685
364.343	0.1955
364.5513	0.1954
364.7595	0.1951
364.9678	0.1858
365.176	0.1939
365.3842	0.1802
365.5925	0.1811
365.8007	0.1911
366.0089	0.1904
366.217	0.1643
366.4252	0.178
366.6333	0.1982
366.8415	0.1923
367.0496	0.1803
367.2577	0.1914
367.4658	0.2059
367.6739	0.2031
367.882	0.2004
368.09	0.1835
368.2981	0.2105
368.5061	0.1905
368.7141	0.1925
368.9221	0.1962
369.1301	0.1985
369.3381	0.1851
369.5461	0.2124
369.754	0.2061
369.962	0.1981
370.1699	0.2064
370.3778	0.2096
370.5857	0.1913
370.7936	0.2125
371.0015	0.1995
371.2093	0.2266
371.4172	0.2185
371.625	0.1951
371.8328	0.1994
372.0406	0.2092
372.2484	0.2151
372.4562	0.1991
372.664	0.2016
372.8717	0.245
373.0795	0.1892
373.2872	0.2175
373.4949	0.2191
373.7026	0.2146
373.9103	0.2137
374.118	0.2172
374.3256	0.2097
374.5333	0.228
374.7409	0.2091
374.9485	0.209
375.1561	0.2273
375.3637	0.219
375.5713	0.2426
375.7789	0.2101
375.9864	0.2261
376.194	0.2069
376.4015	0.2356
376.609	0.2099
376.8165	0.2021
377.024	0.1951
377.2315	0.2247
377.4389	0.2311
377.6464	0.2315
377.8538	0.2207
378.0612	0.2194
378.2686	0.2188
378.476	0.2251
378.6834	0.2369
378.8908	0.2198
379.0981	0.225
379.3055	0.2293
379.5128	0.2264
379.7201	0.2183
379.9274	0.2186
380.1347	0.2305
380.342	0.2358
380.5492	0.2252
380.7565	0.2214
380.9637	0.2358
381.1709	0.2226
381.3781	0.2454
381.5853	0.2333
381.7925	0.2554
381.9997	0.2552
382.2068	0.2396
382.4139	0.2303
382.6211	0.2234
382.8282	0.2335
383.0353	0.2274
383.2424	0.2352
383.4494	0.2452
383.6565	0.212
383.8635	0.2174
384.0706	0.2348
384.2776	0.2339
384.4846	0.2352
384.6916	0.2328
384.8986	0.236
385.1055	0.2451
385.3125	0.2567
385.5194	0.2237
385.7263	0.2319
385.9333	0.2308
386.1402	0.2201
386.347	0.2346
386.5539	0.2281
386.7608	0.2492
386.9676	0.2244
387.1744	0.2294
387.3813	0.222
387.5881	0.2324
387.7948	0.2282
388.0016	0.2254
388.2084	0.2217
388.4151	0.2141
388.6219	0.2514
388.8286	0.2325
389.0353	0.2533
389.242	0.2265
389.4487	0.2247
389.6553	0.2068
389.862	0.2025
390.0686	0.2164
390.2753	0.2084
390.4819	0.2259
390.6885	0.2086
390.8951	0.2148
391.1016	0.2047
391.3082	0.2183
391.5147	0.2333
391.7213	0.2242
391.9278	0.2299
392.1343	0.2107
392.3408	0.219
392.5473	0.2114
392.7537	0.2001
392.9602	0.2073
393.1666	0.2219
393.373	0.2085
393.5794	0.2163
393.7858	0.2026
393.9922	0.1923
394.1986	0.225
394.4049	0.1981
394.6113	0.2003
394.8176	0.1982
395.0239	0.2042
395.2302	0.1855
395.4365	0.2042
395.6428	0.2117
395.8491	0.1795
396.0553	0.1934
396.2615	0.1871
396.4678	0.1881
396.674	0.1741
396.8802	0.1957
397.0863	0.2112
397.2925	0.1971
397.4987	0.1957
397.7048	0.1988
397.9109	0.1953
398.117	0.1861
398.3231	0.1908
398.5292	0.197
398.7353	0.1977
398.9413	0.1964
399.1474	0.1868
399.3534	0.2071
399.5594	0.1829
399.7654	0.2038
399.9714	0.2026
400.1774	0.1893
400.3833	0.1921
400.5893	0.1805
400.7952	0.1874
401.0011	0.1758
401.207	0.1931
401.4129	0.1877
401.6188	0.2027
401.8247	0.1935
402.0305	0.1837
402.2364	0.1763
402.4422	0.2025
402.648	0.1896
402.8538	0.2001
403.0596	0.1704
403.2654	0.1973
403.4711	0.1841
403.6768	0.1945
403.8826	0.1872
404.0883	0.1909
404.294	0.1985
404.4997	0.1818
404.7054	0.1781
404.911	0.1749
405.1167	0.1926
405.3223	0.2053
405.5279	0.1833
405.7335	0.2078
405.9391	0.1857
406.1447	0.1896
406.3502	0.2089
406.5558	0.1935
406.7613	0.1957
406.9668	0.1767
407.1724	0.1914
407.3778	0.183
407.5833	0.1943
407.7888	0.1777
407.9942	0.1939
408.1997	0.1789
408.4051	0.1879
408.6105	0.1839
408.8159	0.1725
409.0213	0.1736
409.2267	0.1828
409.432	0.1731
409.6374	0.1925
409.8427	0.1749
410.048	0.1922
410.2533	0.1932
410.4586	0.1897
410.6639	0.1679
410.8691	0.1682
411.0744	0.1765
411.2796	0.1697
411.4848	0.1912
411.69	0.1788
411.8952	0.1862
412.1004	0.1768
412.3056	0.1915
412.5107	0.1817
412.7158	0.2022
412.921	0.1807
413.1261	0.1848
413.3312	0.1805
413.5362	0.1834
413.7413	0.1846
413.9464	0.1698
414.1514	0.1871
414.3564	0.2016
414.5614	0.1675
414.7664	0.1691
414.9714	0.1762
415.1764	0.1881
415.3813	0.194
415.5863	0.1752
415.7912	0.189
415.9961	0.182
416.201	0.1827
416.4059	0.181
416.6108	0.187
416.8156	0.1832
417.0205	0.1981
417.2253	0.1652
417.4301	0.185
417.6349	0.1673
417.8397	0.1697
418.0445	0.1832
418.2492	0.1989
418.454	0.1692
418.6587	0.1757
418.8634	0.1708
419.0681	0.1476
419.2728	0.1678
419.4775	0.1595
419.6822	0.1775
419.8868	0.1561
420.0915	0.1873
420.2961	0.1536
420.5007	0.1572
420.7053	0.1685
420.9099	0.1812
421.1144	0.1667
421.319	0.168
421.5235	0.1818
421.728	0.1835
421.9325	0.17
422.137	0.1725
422.3415	0.1743
422.546	0.1575
422.7504	0.1699
422.9549	0.1759
423.1593	0.1533
423.3637	0.1645
423.5681	0.1601
423.7725	0.1512
423.9769	0.1572
424.1812	0.1658
424.3856	0.1511
424.5899	0.1621
424.7942	0.1478
424.9985	0.174
425.2028	0.1424
425.4071	0.1756
425.6113	0.1412
425.8156	0.1484
426.0198	0.1532
426.224	0.1546
426.4282	0.1429
426.6324	0.1382
426.8366	0.1469
427.0407	0.1444
427.2449	0.1428
427.449	0.1533
427.6531	0.1306
427.8572	0.136
428.0613	0.1502
428.2654	0.1364
428.4694	0.1295
428.6735	0.1253
428.8775	0.146
429.0815	0.1407
429.2855	0.1384
429.4895	0.1284
429.6935	0.1266
429.8975	0.1424
430.1014	0.1103
430.3053	0.129
430.5093	0.1262
430.7132	0.1143
430.9171	0.1238
431.1209	0.1292
431.3248	0.1095
431.5286	0.1266
431.7325	0.116
431.9363	0.1097
432.1401	0.1394
432.3439	0.1025
432.5477	0.0964
432.7514	0.1014
432.9552	0.119
433.1589	0.1105
433.3627	0.095
433.5664	0.1131
433.7701	0.103
433.9737	0.0934
434.1774	0.0937
434.3811	0.1017
434.5847	0.1103
434.7883	0.09
434.9919	0.0824
435.1955	0.0955
435.3991	0.0976
435.6027	0.0964
435.8062	0.0888
436.0098	0.0785
436.2133	0.0887
436.4168	0.0808
436.6203	0.0843
436.8238	0.0998
437.0272	0.0748
437.2307	0.0873
437.4341	0.0898
437.6375	0.0912
437.841	0.0741
438.0443	0.0813
438.2477	0.0745
438.4511	0.0587
438.6545	0.0874
438.8578	0.09
439.0611	0.0716
439.2644	0.0739
439.4677	0.0752
439.671	0.0675
439.8743	0.0825
440.0775	0.0695
440.2808	0.0608
440.484	0.0605
440.6872	0.0343
440.8904	0.0698
441.0936	0.0739
441.2967	0.0521
441.4999	0.0646
441.703	0.059
441.9062	0.0588
442.1093	0.058
442.3124	0.0471
442.5155	0.0412
442.7185	0.0551
442.9216	0.0363
443.1246	0.066
443.3276	0.0384
443.5307	0.0451
443.7337	0.0496
443.9366	0.0577
444.1396	0.0385
444.3426	0.0523
444.5455	0.0454
444.7484	0.0413
444.9513	0.0452
445.1542	0.0457
445.3571	0.0508
445.56	0.047
445.7628	0.023
445.9657	0.0463
446.1685	0.0597
446.3713	0.0463
446.5741	0.0321
446.7769	0.0211
446.9797	0.0409
447.1824	0.0393
447.3852	0.0184
447.5879	0.0357
447.7906	0.0372
447.9933	0.0238
448.196	0.0204
448.3986	0.0298
448.6013	0.0301
448.8039	0.0127
449.0066	0.0188
449.2092	0.0171
449.4118	0.0209
449.6143	0.0146
449.8169	0.028
450.0195	0.0123
450.222	0.0035
450.4245	0.0159
450.627	0.0318
450.8295	0.0156
451.032	0.0333
451.2345	0.0329
451.4369	0.0265
451.6394	0.0205
451.8418	0.0105
452.0442	0.0141
452.2466	0.0269
452.449	0.0103
452.6513	0.024
452.8537	0.014
453.056	0.0155
453.2583	0.0134
453.4607	0.0046
453.663	0.0108
453.8652	0.0214
454.0675	-0.0027
454.2697	0.0153
454.472	0.0051
454.6742	0.022
454.8764	0.0086
455.0786	0.0095
455.2808	0.0186
455.4829	0.0054
455.6851	0.0069
455.8872	0.019
456.0893	0.0047
456.2915	0.0036
456.4935	0.0095
456.6956	-0.0004
456.8977	0.007
457.0997	-0.0008
457.3018	0.0088
457.5038	0.0193
457.7058	0.0083
457.9078	0.0119
458.1098	0.0056
458.3117	0.0163
458.5137	0.0095
458.7156	0.0073
458.9175	0.0053
459.1194	0.0043
459.3213	-0.0062
459.5232	0.0035
459.725	-0.0168
459.9269	-0.0142
460.1287	0.0013
460.3305	0.0011
460.5323	0.0068
460.7341	0.0034
460.9359	0.0024
461.1376	0.0074
461.3394	0.0067
461.5411	0.0019
461.7428	-0.0015
461.9445	0.0095
462.1462	0.0178
462.3479	-0.0003
462.5495	0.0121
462.7512	0.0106
462.9528	-0.0132
463.1544	-0.0143
463.356	0.0065
463.5576	0.0162
463.7592	0.0043
463.9607	0.009
464.1623	0.0173
464.3638	0.0132
464.5653	-0.0112
464.7668	0.0072
464.9683	0.0093
465.1697	0.0089
465.3712	-0.0021
465.5726	-0.0154
465.7741	-0.0083
465.9755	-0.0071
466.1769	0.0037
466.3782	0.0127
466.5796	-0.004
466.7809	0.0044
466.9823	-0.0124
467.1836	0.0052
467.3849	-0.0045
467.5862	0.0035
467.7875	-0.0048
467.9887	0.0144
468.19	-0.0096
468.3912	-0.0054
468.5924	0.0059
468.7936	-0.0056
468.9948	0.0061
469.196	0.0023
469.3972	-0.013
469.5983	0.0096
469.7994	-0.0114
470.0006	-0.0116
470.2017	-0.0115
470.4027	0.0124
470.6038	0.0128
470.8049	-0.0143
471.0059	-0.0054
471.2069	-0.011
471.408	0.0098
471.6089	0.0137
471.8099	-0.0018
472.0109	0.0057
472.2119	-0.011
472.4128	-0.0115
472.6137	0.0028
472.8146	-0.0076
473.0155	-0.0097
473.2164	-0.0119
473.4173	0.0059
473.6181	0.0073
473.819	0.0105
474.0198	-0.0022
474.2206	-0.0068
474.4214	-0.0069
474.6222	0.014
474.8229	-0.0102
475.0237	-0.0135
475.2244	-0.0105
475.4251	-0.0043
475.6258	0.0059
475.8265	-0.0051
476.0272	0.0022
476.2278	-0.0015
476.4285	-0.004
476.6291	-0.0082
476.8297	-0.0184
477.0303	0.0032
477.2309	0.0004
477.4315	-0.0274
477.632	-0.0035
477.8326	-0.0002
478.0331	-0.0008
478.2336	-0.0026
478.4341	-0.0089
478.6346	-0.0103
478.8351	-0.0082
479.0355	-0.0065
479.236	-0.0093
479.4364	-0.0066
479.6368	0.0075
479.8372	-0.0077
480.0376	-0.0102
480.2379	-0.0297
480.4383	0.001
480.6386	-0.0015
480.8389	0.0057
481.0392	-0.0139
481.2395	-0.0051
481.4398	0.0081
481.6401	-0.0043
481.8403	0.001
482.0405	-0.0059
482.2408	-0.0014
482.441	0.0007
482.6411	-0.0026
482.8413	-0.0042
483.0415	-0.0101
483.2416	-0.0056
483.4417	-0.0018
483.6419	-0.0054
483.8419	-0.0041
484.042	0.0175
484.2421	-0.0033
484.4422	0.0015
484.6422	0.0009
484.8422	-0.0098
485.0422	-0.0122
485.2422	-0.0013
485.4422	-0.0088
485.6422	-0.0093
485.8421	-0.0029
486.042	-0.0005
486.242	-0.0015
486.4419	-0.015
486.6417	-0.0093
486.8416	-0.0093
487.0415	-0.0018
487.2413	-0.0058
487.4411	-0.0006
487.641	0
487.8408	0.0038
488.0405	-0.0076
488.2403	-0.0023
488.4401	0.0036
488.6398	-0.001
488.8395	-0.0089
489.0392	0.0074
489.2389	-0.0117
489.4386	-0.0037
489.6383	0.0004
489.8379	0.0091
490.0376	0.0015
490.2372	-0.0093
490.4368	-0.0156
490.6364	-0.0037
490.836	-0.012
491.0355	-0.0103
491.2351	-0.0135
491.4346	0.0005
491.6341	-0.0093
491.8336	0.0055
492.0331	-0.017
492.2326	-0.0144
492.432	-0.0099
492.6315	-0.0049
492.8309	-0.015
493.0303	-0.012
493.2297	-0.0015
493.4291	-0.0087
493.6284	0.0051
493.8278	0.002
494.0271	0.002
494.2264	0.0013
494.4257	-0.0147
494.625	-0.0061
494.8243	-0.0115
495.0236	-0.0055
495.2228	-0.0005
495.422	-0.0036
495.6213	0.004
495.8205	-0.01
496.0196	0.0014
496.2188	-0.003
496.418	-0.0062
496.6171	0.0008
496.8162	-0.0129
497.0153	0.0085
497.2144	-0.0101
497.4135	-0.0012
497.6126	-0.0201
497.8116	-0.0103
498.0107	-0.0101
498.2097	-0.016
498.4087	-0.0112
498.6077	-0.004
498.8067	-0.0002
499.0056	0.0063
499.2046	0.0025
499.4035	-0.0171
499.6024	-0.0069
499.8013	-0.0046
500.0002	-0.006
500.199	0.0019
500.3979	-0.0033
500.5967	-0.0109
500.7956	-0.0013
500.9944	-0.0107
501.1932	-0.002
501.3919	-0.0084
501.5907	-0.0089
501.7895	0.0031
501.9882	-0.0049
502.1869	0.0012
502.3856	-0.0046
502.5843	-0.0092
502.783	-0.0122
502.9816	-0.0035
503.1803	-0.0131
503.3789	-0.0128
503.5775	0.0104
503.7761	-0.0099
503.9747	0
504.1732	-0.0048
504.3718	-0.0014
504.5703	-0.0036
504.7689	-0.0091
504.9674	-0.0007
505.1658	-0.009
505.3643	0.0009
505.5628	-0.0068
505.7612	-0.0123
505.9597	-0.0077
506.1581	-0.0038
506.3565	0.0072
506.5549	-0.0029
506.7532	-0.0049
506.9516	-0.0006
507.1499	-0.0115
507.3482	-0.0121
507.5465	-0.0094
507.7448	0.0031
507.9431	-0.0004
508.1414	-0.0003
508.3396	0.0002
508.5379	-0.0075
508.7361	-0.0135
508.9343	0
509.1325	-0.0063
509.3306	-0.0101
509.5288	-0.0091
509.7269	-0.0101
509.9251	-0.0059
510.1232	-0.0063
510.3213	-0.0093
510.5193	-0.0006
510.7174	-0.016
510.9154	-0.0189
511.1135	-0.0003
511.3115	-0.0045
511.5095	-0.0111
511.7075	0.003
511.9055	-0.0055
512.1034	0.0033
512.3014	-0.0045
512.4993	-0.002
512.6972	-0.0137
512.8951	-0.0202
513.093	-0.0009
513.2908	-0.0025
513.4887	-0.005
513.6865	0.0007
513.8844	-0.0145
514.0822	-0.0003
514.2799	-0.0121
514.4777	-0.004
514.6755	-0.0103
514.8732	-0.0135
515.0709	-0.0038
515.2687	-0.0014
515.4664	-0.0049
515.664	0.0021
515.8617	0.0019
516.0594	-0.0109
516.257	0.0025
516.4546	-0.0029
516.6522	0.0037
516.8498	-0.0052
517.0474	0.0027
517.2449	0.0012
517.4425	-0.0099
517.64	0.0027
517.8375	-0.0003
518.035	-0.0037
518.2325	-0.0025
518.43	-0.0043
518.6274	-0.0045
518.8249	-0.0128
519.0223	0.0016
519.2197	-0.0099
519.4171	-0.012
519.6145	-0.0085
519.8118	-0.0031
520.0092	-0.0048
520.2065	-0.0088
520.4038	-0.0095
520.6011	-0.0084
520.7984	-0.0085
520.9956	-0.008
521.1929	-0.0017
521.3901	-0.002
521.5874	0.0025
521.7846	0.0004
521.9818	-0.0106
522.1789	-0.0074
522.3761	-0.0048
522.5732	-0.0028
522.7704	0.001
522.9675	-0.0026
523.1646	-0.0071
523.3617	-0.0051
523.5587	0.0009
523.7558	0.006
523.9528	-0.0026
524.1498	0.0032
524.3468	-0.0067
524.5438	-0.0078
524.7408	-0.0044
524.9378	0.0065
525.1347	0.0027
525.3316	0.0024
525.5285	-0.0053
525.7254	-0.0068
525.9223	0
526.1192	-0.0088
526.316	-0.0137
526.5129	-0.0031
526.7097	0.0025
526.9065	-0.0016
527.1033	-0.0075
527.3	0.0043
527.4968	-0.0019
527.6935	0.0049
527.8903	-0.0164
528.087	-0.0008
528.2837	-0.0066
528.4804	0.0002
528.677	-0.0122
528.8737	0.0039
529.0703	0.0022
529.2669	-0.0048
529.4635	-0.0112
529.6601	-0.0003
529.8567	0.0025
530.0532	-0.0056
530.2498	-0.0024
530.4463	0.0019
530.6428	-0.0012
530.8393	0.0024
531.0358	-0.0006
531.2322	0.0003
531.4287	-0.0073
531.6251	-0.0149
531.8215	0
532.0179	-0.0036
532.2143	-0.0045
532.4107	-0.0038
532.607	-0.0009
532.8034	0.0013
532.9997	-0.0006
533.196	-0.0073
533.3923	-0.002
533.5886	0.0003
533.7848	-0.0008
533.9811	-0.0004
534.1773	0.0027
534.3735	0.0093
534.5697	0.0029
534.7659	-0.0003
534.9621	0.0043
535.1582	-0.0096
535.3544	-0.0049
535.5505	-0.0055
535.7466	-0.0068
535.9427	-0.0039
536.1387	-0.0158
536.3348	-0.0048
536.5308	0.0037
536.7269	-0.0148
536.9229	-0.0057
537.1189	-0.0034
537.3148	-0.0057
537.5108	-0.0022
537.7068	-0.002
537.9027	-0.0044
538.0986	0.0013
538.2945	-0.0061
538.4904	0.0009
538.6863	-0.0011
538.8821	-0.0049
539.078	-0.0036
539.2738	0.0054
539.4696	-0.0001
539.6654	0.005
539.8611	0.012
540.0569	0.002
540.2526	-0.0092
540.4484	-0.0058
540.6441	0.0064
540.8398	0.0011
541.0355	-0.0047
541.2311	-0.01
541.4268	-0.0058
541.6224	-0.0018
541.818	0.0003
542.0136	-0.0135
542.2092	-0.0035
542.4048	-0.0043
542.6003	0.0074
542.7959	0.0037
542.9914	-0.0037
543.1869	0.0032
543.3824	0.0027
543.5779	-0.0057
543.7734	-0.0058
543.9688	0.0062
544.1642	-0.0047
544.3596	-0.0037
544.555	0.0002
544.7504	-0.0007
544.9458	-0.0066
545.1411	-0.0073
545.3365	-0.0022
545.5318	-0.0062
545.7271	-0.0065
545.9224	0.0022
546.1177	-0.0034
546.3129	0.0019
546.5081	0.0037
546.7034	-0.0098
546.8986	-0.0009
547.0938	0.0014
547.289	0.0034
547.4841	-0.0007
547.6793	0.0089
547.8744	0.0005
548.0695	-0.0074
548.2646	-0.0019
548.4597	-0.0035
548.6548	0.0036
548.8498	0.0068
549.0448	0.0069
549.2399	-0.0007
549.4349	0.0068
549.6298	-0.0051
549.8248	0.0038
550.0198	-0.0025
550.2147	-0.0011
550.4096	-0.012
550.6045	0.0011
550.7994	0.0051
550.9943	0.006
551.1892	-0.0022
551.384	0.0073
551.5788	-0.0124
551.7737	0.0035
551.9685	-0.0027
552.1632	0.0042
552.358	0.0001
552.5528	-0.0016
552.7475	-0.0011
552.9422	0.0058
553.1369	0.0055
553.3316	-0.0005
553.5263	-0.0014
553.7209	0.0016
553.9156	0.002
554.1102	-0.0095
554.3048	-0.0012
554.4994	0.0044
554.694	-0.0043
554.8885	0.0053
555.0831	-0.0008
555.2776	-0.001
555.4721	0.0056
555.6666	0.0006
555.8611	0.011
556.0555	-0.0039
556.25	0.001
556.4444	-0.0091
556.6388	-0.0015
556.8332	-0.0075
557.0276	-0.0067
557.222	0.0035
557.4163	-0.0007
557.6107	-0.0085
557.805	0.0109
557.9993	-0.0094
558.1936	0.0021
558.3879	0.0095
558.5821	0.0021
558.7764	-0.0083
558.9706	0.009
559.1648	0.0051
559.359	-0.0065
559.5532	-0.0056
559.7473	-0.0013
559.9415	-0.0047
560.1356	-0.0035
560.3297	-0.0122
560.5238	-0.0073
560.7179	-0.0027
560.9119	-0
561.106	-0.0005
561.3	-0.0036
561.494	-0.0061
561.688	-0.005
561.882	0.0014
562.076	-0.0005
562.2699	-0.0007
562.4639	-0.0098
562.6578	-0.0004
562.8517	0.0009
563.0456	-0.0012
563.2395	0.0048
563.4333	-0.001
563.6272	0.0113
563.821	-0.009
564.0148	0.0001
564.2086	-0.0058
564.4024	0.0019
564.5961	-0.0085
564.7899	0.005
564.9836	0.0033
565.1773	0.0046
565.371	0.0159
565.5647	0.0054
565.7584	0.0118
565.952	0.0077
566.1456	-0.0029
566.3393	-0.001
566.5329	0.0057
566.7264	-0.0009
566.92	-0.0065
567.1136	0.0011
567.3071	-0.0016
567.5006	0.0092
567.6941	0.0048
567.8876	-0.0019
568.0811	-0.0023
568.2745	0.0017
568.468	0.0047
568.6614	0.0017
568.8548	0.0044
569.0482	-0.003
569.2416	0.0067
569.4349	0.0035
569.6283	0.0041
569.8216	0.0039
570.0149	-0.0014
570.2082	0.0063
570.4015	0.0077
570.5947	0.0068
570.788	0.0058
570.9812	0.0099
571.1744	0.0054
571.3676	-0.0066
571.5608	-0.0031
571.754	0.0018
571.9471	-0.0025
572.1402	0.0013
572.3333	-0.002
572.5264	0.0017
572.7195	0.005
572.9126	-0.0015
573.1057	0.0032
573.2987	0.0015
573.4917	0.0031
573.6847	-0.0029
573.8777	0.0081
574.0707	0.0065
574.2636	-0.006
574.4566	0.002
574.6495	0.01
574.8424	0.0039
575.0353	-0.0038
575.2281	0.0093
575.421	0.004
575.6138	0.0052
575.8067	-0.0024
575.9995	0.0014
576.1923	0.0037
576.385	-0.0031
576.5778	0.0002
576.7706	0.0011
576.9633	0.002
577.156	0.0024
577.3487	0.0041
577.5414	0.0001
577.734	-0.001
577.9267	-0.0001
578.1193	-0.0084
578.3119	-0.0063
578.5045	-0.0014
578.6971	-0.0031
578.8897	0.0054
579.0822	-0.0027
579.2747	-0.0016
579.4673	-0.0008
579.6598	-0.003
579.8522	-0.0076
580.0447	-0.0065
580.2372	-0.0094
580.4296	0.0044
580.622	-0.0046
580.8144	0.0036
581.0068	-0.0048
581.1992	-0.0102
581.3915	-0.004
581.5839	-0.0025
581.7762	-0.0047
581.9685	-0.0037
582.1608	0.0065
582.353	-0.0003
582.5453	-0.0009
582.7375	0
582.9298	0.0013
583.122	0.001
583.3142	-0.0005
583.5063	0.0041
583.6985	0.002
583.8906	-0.0003
584.0827	-0.0014
584.2749	0.0025
584.4669	0.0015
584.659	0.0015
584.8511	0.0016
585.0431	0.0037
585.2352	0.0099
585.4272	0.0009
585.6192	0.0039
585.8111	0.0023
586.0031	-0.0025
586.195	0.0002
586.387	0.0109
586.5789	-0.0004
586.7708	0.0072
586.9627	0.0075
587.1545	-0.0025
587.3464	0.0031
587.5382	0.0011
587.73	-0.0024
587.9218	0.0052
588.1136	0.0025
588.3053	0.0012
588.4971	-0.0037
588.6888	-0.0053
588.8805	0.0023
589.0722	0.0092
589.2639	0.0047
589.4556	0.0092
589.6472	-0.0071
589.8389	-0.0058
590.0305	-0.0097
590.2221	-0.0006
590.4137	-0.0047
590.6052	0.0034
590.7968	-0.0005
590.9883	0.0045
591.1798	-0.001
591.3713	-0.004
591.5628	-0.0035
591.7543	0.0014
591.9458	0.0029
592.1372	0.008
592.3286	0.0134
592.52	0.0035
592.7114	-0.0043
592.9028	-0.0044
593.0941	0.0028
593.2855	-0.0007
593.4768	-0.0049
593.6681	-0.008
593.8594	-0.0001
594.0506	0.0009
594.2419	0.0086
594.4331	0.0037
594.6244	0.0011
594.8156	-0.0046
595.0067	-0.0025
595.1979	-0.0031
595.3891	0.0001
595.5802	-0.0048
595.7713	-0.0057
595.9624	0.0007
596.1535	0.0079
596.3446	0.0073
596.5357	-0.0001
596.7267	0.0092
596.9177	0.0025
597.1087	-0.0039
597.2997	-0.0016
597.4907	0.0114
597.6817	-0.002
597.8726	-0.0001
598.0635	-0.0043
598.2544	-0.0018
598.4453	-0.0029
598.6362	-0.003
598.827	-0.008
599.0179	0.01
599.2087	0.001
599.3995	-0.003
599.5903	-0.0004
599.7811	0.0028
599.9718	-0.0057
600.1626	0.0007
600.3533	-0.0049
600.544	0.0101
600.7347	-0.0047
600.9254	0.0073
601.116	-0.0116
601.3067	-0.0003
601.4973	-0.0042
601.6879	0.0092
601.8785	0.0003
602.0691	0.0063
602.2596	0.0034
602.4502	0.003
602.6407	0.0017
602.8312	0.0015
603.0217	0.0016
603.2122	0.0057
603.4027	0.0005
603.5931	0.0074
603.7835	0.0015
603.9739	0.0034
604.1643	-0.0031
604.3547	-0.0034
604.5451	-0.0008
604.7354	-0.0006
604.9257	-0.0041
605.116	-0.0017
605.3063	0.0057
605.4966	-0.0025
605.6869	0.0048
605.8771	0.0031
606.0673	0.0048
606.2575	0.006
606.4477	0.0052
606.6379	0.0005
606.8281	0.0005
607.0182	-0.0034
607.2083	0.0047
607.3985	-0.0057
607.5885	-0.0016
607.7786	0.0034
607.9687	-0.004
608.1587	0.0018
608.3488	0.0099
608.5388	0.0005
608.7288	-0.0012
608.9187	-0.0056
609.1087	-0.0035
609.2986	-0.0049
609.4886	-0.0004
609.6785	0.0044
609.8684	0.0027
610.0582	0.0024
610.2481	0.0023
610.4379	0.0075
610.6278	-0.0006
610.8176	0.0005
611.0074	0.0024
611.1971	-0.0028
611.3869	-0.0037
611.5766	-0.0015
611.7664	0.0042
611.9561	0.0063
612.1458	0.0059
612.3354	-0.0068
612.5251	-0.0027
612.7147	0.0031
612.9044	0.0034
613.094	-0.0073
613.2836	0.0016
613.4731	0.0003
613.6627	0.0039
613.8522	0.0058
614.0417	0.0076
614.2313	0.005
614.4207	-0.0023
614.6102	0.0009
614.7997	-0.0045
614.9891	-0.0041
615.1785	-0.0001
615.3679	-0.0016
615.5573	0.0061
615.7467	0.0055
615.9361	0.0046
616.1254	-0.0026
616.3147	0.0044
616.504	0.0051
616.6933	0.0053
616.8826	0.0081
617.0718	0.0084
617.2611	0.0129
617.4503	0.0013
617.6395	0.0034
617.8287	0.0002
618.0179	0.0001
618.207	0.0113
618.3961	0.0018
618.5853	0.0026
618.7744	0.0025
618.9634	0.0015
619.1525	0.0054
619.3416	0.0052
619.5306	0.0038
619.7196	0.0035
619.9086	-0.0032
620.0976	0.0072
620.2866	0.0001
620.4755	0.0009
620.6645	0.003
620.8534	0.002
621.0423	0.0067
621.2312	0.007
621.42	0.0056
621.6089	-0.0037
621.7977	0.0065
621.9865	-0.0056
622.1753	0.0073
622.3641	-0.004
622.5529	0.0096
622.7416	0.007
622.9303	0.0009
623.1191	0.0056
623.3078	-0.0026
623.4964	0.0023
623.6851	0.0014
623.8737	0.0019
624.0624	0.0099
624.251	0.0007
624.4396	0.0056
624.6282	-0.0067
624.8167	-0.0008
625.0053	-0.0005
625.1938	0.0052
625.3823	0.0106
625.5708	-0.0055
625.7593	-0.0043
625.9477	-0.0044
626.1362	-0.0018
626.3246	0.0055
626.513	0.0045
626.7014	0.009
626.8898	-0.0024
627.0781	0.0012
627.2665	-0.0039
627.4548	0.014
627.6431	0.0049
627.8314	0.0054
628.0197	0.0107
628.2079	-0.0096
628.3962	-0.0059
628.5844	0.0065
628.7726	0.0044
628.9608	0.003
629.1489	0.0015
629.3371	0.0002
629.5252	-0.0077
629.7134	0.01
629.9015	0.0022
630.0895	0.0111
630.2776	0.0106
630.4657	0.0022
630.6537	0.0061
630.8417	0.0039
631.0297	0.0009
631.2177	0.0002
631.4057	-0.0019
631.5936	0.0065
631.7815	0.0099
631.9695	0.0065
632.1574	0.0044
632.3452	0.0137
632.5331	0.0063
632.7209	0.0053
632.9088	0.013
633.0966	0.0109
633.2844	-0.0001
633.4722	0.0039
633.6599	0.0071
633.8477	0.0056
634.0354	0.005
634.2231	0.0026
634.4108	0.0023
634.5985	0.0082
634.7861	0.0084
634.9738	0.0087
635.1614	0.0078
635.349	0.0059
635.5366	0.0005
635.7242	0.0033
635.9117	0.0053
636.0993	0.0079
636.2868	0.0061
636.4743	0.0016
636.6618	0.0146
636.8492	0.0026
637.0367	0.0071
637.2241	0.0096
637.4115	0.0012
637.5989	-0.001
637.7863	0.0041
637.9737	-0.0038
638.161	-0.0032
638.3484	0.0002
638.5357	-0.0008
638.723	0.0037
638.9103	0.0078
639.0975	0.0113
639.2848	0.0037
639.472	0.0066
639.6592	0.0064
639.8464	0.0138
640.0336	0.0036
640.2208	-0.0008
640.4079	0.0016
640.595	0.0031
640.7821	0.006
640.9692	0.0023
641.1563	0.0108
641.3434	0.005
641.5304	0.0039
641.7174	0.0038
641.9044	0.0052
642.0914	0.0069
642.2784	0.0104
642.4653	0.0136
642.6523	0.0035
642.8392	0.0044
643.0261	0.0087
643.213	0.0033
643.3999	-0.0015
643.5867	0.0121
643.7735	0.002
643.9604	0.0003
644.1472	-0.0015
644.3339	0.009
644.5207	0.0016
644.7075	0.0097
644.8942	0.0033
645.0809	0.0119
645.2676	0.0086
645.4543	0.0042
645.6409	0.0047
645.8276	-0.0017
646.0142	0.0073
646.2008	-0.0038
646.3874	-0.0023
646.574	0.0099
646.7605	-0.0095
646.9471	-0.0126
647.1336	-0.0009
647.3201	-0.0035
647.5066	-0.0001
647.6931	0.0054
647.8795	-0.0024
648.0659	-0.0013
648.2524	0.0128
648.4388	-0.0075
648.6252	0.0021
648.8115	-0.0019
648.9979	0.0041
649.1842	0.0035
649.3705	0.0066
649.5568	0.0062
649.7431	0.0118
649.9294	0.0056
650.1156	0.0059
650.3018	-0.0045
650.488	0.0033
650.6742	0.0038
650.8604	0.0073
651.0466	0
651.2327	0.004
651.4188	0.002
651.6049	0.0087
651.791	0.0061
651.9771	0.0064
652.1632	0.0056
652.3492	0.0024
652.5352	0.0077
652.7212	-0.0035
652.9072	0.006
653.0932	0.0077
653.2791	0.0001
653.465	0.0049
653.651	-0.0012
653.8369	0.0009
654.0227	-0.0002
654.2086	0.001
654.3944	0.0052
654.5803	0.002
654.7661	0.0051
654.9519	0.0053
655.1377	-0.0006
655.3234	0.0001
655.5092	-0.0044
655.6949	-0.0037
655.8806	-0.0052
656.0663	-0.0007
656.2519	-0.0089
656.4376	-0.0004
656.6232	0.003
656.8088	-0.0027
656.9945	0.0028
657.18	0.0032
657.3656	0.0022
657.5511	-0
657.7367	-0.0059
657.9222	0.0076
658.1077	0.0053
658.2932	0.0115
658.4786	-0.0025
658.6641	-0.0003
658.8495	-0.0006
659.0349	0.003
659.2203	0.0083
659.4057	0.0002
659.591	0.0136
659.7764	0.0041
659.9617	0.0082
660.147	0.0041
660.3323	0.0039
660.5176	0.0157
660.7028	0.0062
660.888	0.0112
661.0733	0.0045
661.2585	-0.0015
661.4436	0.0007
661.6288	-0.0027
661.8139	0.0009
661.9991	0.0035
662.1842	-0.0015
662.3693	-0.0006
662.5544	-0.0071
662.7394	-0.0009
662.9245	0.0086
663.1095	0.0068
663.2945	0.0038
663.4795	-0.0035
663.6644	0.0077
663.8494	0.0049
664.0343	0.0043
664.2193	0.0007
664.4042	-0.0025
664.589	-0.0071
664.7739	-0.0041
664.9587	-0.0108
665.1436	-0.0029
665.3284	0.002
665.5132	-0.0036
665.698	0.003
665.8827	0.0013
666.0675	0.0001
666.2522	-0.0057
666.4369	0.0055
666.6216	0.0083
666.8063	0.0043
666.9909	0.0059
667.1756	0.002
667.3602	-0.0058
667.5448	0.0006
667.7294	0.0137
667.9139	0.0025
668.0985	0.0148
668.283	0.0032
668.4675	0.0088
668.652	0.003
668.8365	0.0099
669.0209	0.0109
669.2054	0.018
669.3898	0.0062
669.5742	0.0109
669.7586	0.0109
669.943	0.017
670.1273	0.0115
670.3117	0.0139
670.496	0.0116
670.6803	0.0149
670.8646	0.0079
671.0488	0.0038
671.2331	0.0076
671.4173	0.0085
671.6015	0.0035
671.7857	0.0076
671.9699	0.0055
672.1541	0.0094
672.3382	-0.0012
672.5223	0.0031
672.7064	0.0052
672.8905	0.0044
673.0746	0.0047
673.2587	-0.0009
673.4427	0.002
673.6267	0.0069
673.8107	0.0075
673.9947	0.0048
674.1787	0.0044
674.3626	-0.001
674.5465	0.0051
674.7304	0.0052
674.9143	0.0036
675.0982	0.0111
675.2821	-0.0062
675.4659	0.0053
675.6497	0.0057
675.8335	-0.0021
676.0173	0.0021
676.2011	0.0011
676.3849	-0.0006
676.5686	-0.0037
676.7523	0.0013
676.936	-0.0052
677.1197	0.0004
677.3034	-0.0009
677.487	0.0045
677.6706	-0.0011
677.8542	0.0038
678.0378	0.0018
678.2214	0.0057
678.405	0.0032
678.5885	0.0042
678.772	0.0025
678.9555	-0.0006
679.139	0.0017
679.3225	0.0006
679.5059	0.0007
679.6894	0.005
679.8728	-0.0004
680.0562	-0.0019
680.2395	-0.0029
680.4229	-0.0035
680.6062	0.0069
680.7896	-0.002
680.9729	-0.0061
681.1562	-0.0002
681.3394	0.0014
681.5227	-0.0074
681.7059	0.0018
681.8891	0.0007
682.0723	0.0124
682.2555	0.0084
682.4387	-0.0012
682.6218	-0.0102
682.805	0.0023
682.9881	0.0047
683.1712	-0.0069
683.3542	-0.0024
683.5373	0.0026
683.7203	-0.0092
683.9034	0.0022
684.0864	-0.0035
684.2694	0.0028
684.4523	0.0063
684.6353	0.0007
684.8182	0.0051
685.0011	-0.005
685.184	0.0012
685.3669	0.0024
685.5498	0.0022
685.7326	-0.0012
685.9154	-0.0081
686.0982	0.0136
686.281	0.0061
686.4638	-0.0062
686.6465	0.0028
686.8293	-0.0007
687.012	0.0027
687.1947	-0.0017
687.3774	-0.0029
687.56	0.0029
687.7427	0.0037
687.9253	0.001
688.1079	-0.0012
688.2905	0.0117
688.4731	0.005
688.6556	-0.0003
688.8382	-0.0019
689.0207	0.0066
689.2032	-0.0036
689.3857	-0.0069
689.5681	-0.0036
689.7506	-0.0078
689.933	-0.0097
690.1154	-0.0048
690.2978	-0.007
690.4802	-0.001
690.6626	-0.0121
690.8449	-0.0055
691.0272	0.0027
691.2095	0.0033
691.3918	-0.0056
691.5741	0.0073
691.7563	-0.0018
691.9386	0.0026
692.1208	0.001
692.303	0.0025
692.4852	0.002
692.6673	-0.0009
692.8495	-0.0028
693.0316	0.0093
693.2137	-0.0037
693.3958	0.0101
693.5778	-0.0006
693.7599	-0.0056
693.9419	0.0029
694.1239	0.0029
694.3059	-0.0031
694.4879	0.0092
694.6699	0.0082
694.8518	0.0069
695.0337	0.0021
695.2157	0.0054
695.3975	-0.0006
695.5794	0.0071
695.7613	0.0076
695.9431	0.0045
696.1249	0.0073
696.3067	0.0079
696.4885	0.0017
696.6703	-0.0001
696.852	0.0089
697.0337	0.007
697.2154	0.0012
697.3971	-0.0034
697.5788	0.0033
697.7605	0.0081
697.9421	0.0062
698.1237	0.0036
698.3053	0.0134
698.4869	-0.0003
698.6685	-0.0026
698.85	0.0026
699.0315	0.0077
699.213	0.0051
699.3945	0.0074
699.576	0.0123
699.7575	0.0113
699.9389	0.0104
700.1203	0.0025
700.3017	-0.0001
700.4831	-0.0048
700.6645	0.0033
700.8458	0.0146
701.0271	-0.0045
701.2084	0.0054
701.3897	0.0038
701.571	0.0085
701.7523	-0.0023
701.9335	0.0046
702.1147	0.0003
702.2959	0.0008
702.4771	-0.0037
702.6583	0.0109
702.8394	0.001
703.0205	0.0101
703.2016	-0.0006
703.3827	0.0037
703.5638	0.0117
703.7449	0.0013
703.9259	0.0162
704.1069	-0
704.2879	0.0098
704.4689	0.0113
704.6499	0.003
704.8308	-0.0029
705.0117	0.0086
705.1927	-0.0004
705.3735	-0.0002
705.5544	0.0012
705.7353	-0.0071
705.9161	-0.0077
706.0969	-0.0087
706.2777	0.0004
706.4585	0.0025
706.6393	-0.0003
706.82	-0.0069
707.0007	0.0045
707.1815	-0.0012
707.3621	0.0038
707.5428	0.0033
707.7235	-0.0008
707.9041	0.0032
708.0847	-0.01
708.2653	-0.0103
708.4459	-0.0145
708.6265	0.0021
708.807	-0.0073
708.9875	-0.0036
709.168	-0.0098
709.3485	-0.0066
709.529	-0.0038
709.7095	-0.0161
709.8899	-0.0019
710.0703	-0.0081
710.2507	-0.0053
710.4311	0.0022
710.6115	-0.004
710.7918	-0.0085
710.9721	-0.0031
711.1524	-0.0134
711.3327	-0.0081
711.513	0.0001
711.6932	0.0046
711.8735	0.0082
712.0537	0.0024
712.2339	-0.0008
712.4141	-0.0012
712.5942	0.0027
712.7744	-0.0059
712.9545	-0.0087
713.1346	-0.0015
713.3147	-0.0012
713.4947	-0.0012
713.6748	0.0048
713.8548	-0.006
714.0348	-0.0024
714.2148	-0.0093
714.3948	-0.0023
714.5748	-0.0009
714.7547	-0.0009
714.9346	0.0048
715.1145	0.002
715.2944	0.0019
715.4743	0.0109
715.6541	0.0017
715.834	0.0027
716.0138	0.0031
716.1936	-0.0095
716.3733	0.0013
716.5531	0.005
716.7328	0.005
716.9126	-0.005
717.0923	-0.0035
717.2719	-0.0029
717.4516	-0.0014
717.6312	0.0023
717.8109	-0.0134
717.9905	0.0015
718.1701	-0.01
718.3496	-0.014
718.5292	0.0014
718.7087	-0.0059
718.8882	-0.0091
719.0677	0.0084
719.2472	-0.0045
719.4267	0.0084
719.6061	0.0005
719.7856	0.0001
719.965	0.0067
720.1443	-0.0042
720.3237	0.0097
720.5031	0.0039
720.6824	0.0044
720.8617	-0.0027
721.041	0.0028
721.2203	0.0042
721.3995	-0.0006
721.5788	0.0067
721.758	0.0058
721.9372	0.0018
722.1164	0.0069
722.2956	0.0127
722.4747	0.007
722.6538	-0.0033
722.8329	0.0139
723.012	0.0023
723.1911	0.0019
723.3702	-0.0016
723.5492	0.0049
723.7282	-0.0032
723.9072	-0.0064
724.0862	-0.0049
724.2652	-0.0018
724.4441	0.0034
724.623	-0.0004
724.8019	-0.0074
724.9808	0.0018
725.1597	-0.007
725.3385	0.0015
725.5174	-0.001
725.6962	-0.0092
725.875	0.0035
726.0538	0.001
726.2325	0.0007
726.4112	0.0084
726.59	-0.0036
726.7687	0.0041
726.9474	0.0028
727.126	0.0007
727.3047	-0.0038
727.4833	0.0001
727.6619	-0.0054
727.8405	-0.0115
728.0191	-0.005
728.1976	-0.0005
728.3762	-0.0019
728.5547	0.0063
728.7332	-0.0111
728.9116	0.0019
729.0901	0.0016
729.2686	0.0004
729.447	0.001
729.6254	-0.0014
729.8038	0.0068
729.9821	-0.0047
730.1605	0.0025
730.3388	0.002
730.5171	0.0082
730.6954	0.0034
730.8737	0.0074
731.0519	0.0111
731.2302	0.0088
731.4084	0.0075
731.5866	0.0011
731.7648	0.0004
731.9429	0.0038
732.1211	-0.0149
732.2992	-0.0081
732.4773	-0.0082
732.6554	0.0004
732.8335	-0.006
733.0115	-0.005
733.1896	0.0077
733.3676	-0.0019
733.5456	0.0012
733.7235	0.004
733.9015	0.0006
734.0794	-0.003
734.2574	0.0011
734.4353	0.0053
734.6131	0.0069
734.791	0.0004
734.9689	0.0072
735.1467	-0.0002
735.3245	-0.0131
735.5023	-0.0014
735.68	0.0038
735.8578	0.0063
736.0355	-0.0149
736.2132	-0.0027
736.3909	-0.0068
736.5686	-0.0121
736.7463	0.0076
736.9239	0.0012
737.1015	-0.0016
737.2791	0.0055
737.4567	-0.0018
737.6343	-0.0015
737.8118	0.0034
737.9894	0.0051
738.1669	0.0061
738.3444	-0.0093
738.5218	0.0061
738.6993	0.004
738.8767	0.0005
739.0541	0.01
739.2315	-0.0081
739.4089	-0.0007
739.5863	0.0087
739.7636	0.0033
739.9409	-0.0001
740.1182	0.0124
740.2955	0.0029
740.4728	0.0047
740.65	-0.0109
740.8272	-0.0024
741.0044	-0.0053
741.1816	0.0005
741.3588	0.0042
741.5359	-0.0005
741.7131	-0.0115
741.8902	-0.0014
742.0673	-0.0024
742.2444	-0.0074
742.4214	-0.0033
742.5985	0.0008
742.7755	0.0009
742.9525	-0.0063
743.1295	-0
743.3064	0.0129
743.4834	0.0105
743.6603	0.0067
743.8372	0.0049
744.0141	0.0112
744.191	0.0131
744.3678	0.0134
744.5446	0.0093
744.7215	0.0104
744.8982	0.0032
745.075	0.0001
745.2518	0.0028
745.4285	0.0054
745.6052	0.0033
745.7819	0.0063
745.9586	-0.0017
746.1353	0.003
746.3119	-0.0033
746.4885	-0.0054
746.6651	-0.0003
746.8417	-0.0058
747.0183	-0.0063
747.1948	0.0018
747.3714	0.0038
747.5479	-0.003
747.7244	-0.0054
747.9008	0.0063
748.0773	0.0084
748.2537	0.001
748.4301	-0.0045
748.6065	0.0032
748.7829	0.0049
748.9593	-0.0021
749.1356	-0.0005
749.3119	0.0056
749.4882	-0.0124
749.6645	0.003
749.8408	-0.0017
750.017	-0.0058
750.1933	-0.0005
750.3695	-0.0082
750.5457	-0.0026
750.7218	-0.0069
750.898	0.0053
751.0741	0.0008
751.2502	0.0073
751.4263	-0.014
751.6024	-0.0003
751.7784	-0.0025
751.9545	-0.0039
752.1305	0
752.3065	-0.0108
752.4825	0.0019
752.6584	-0.0118
752.8344	-0.0076
753.0103	-0.0081
753.1862	-0.0072
753.3621	-0.003
753.5379	-0.006
753.7138	0.0076
753.8896	0.0038
754.0654	-0.0052
754.2412	0.0046
754.417	0.0031
754.5927	-0.0124
754.7685	-0.0054
754.9442	0.0022
755.1199	0.0093
755.2956	-0.0035
755.4712	0.0043
755.6469	0.0031
755.8225	-0.0017
755.9981	0.0105
756.1736	0.0064
756.3492	0.0045
756.5248	0.0048
756.7003	0.005
756.8758	0.0158
757.0513	-0.0056
757.2267	0.0016
757.4022	0.0096
757.5776	-0.0055
757.753	0.0049
757.9284	-0.0029
758.1038	0.0088
758.2791	0.0077
758.4545	-0.0059
758.6298	0.0076
758.8051	0.0045
758.9803	-0.0033
759.1556	-0.0018
759.3308	-0.0097
759.506	0.0084
759.6812	0.0105
759.8564	0.0088
760.0316	-0.0022
760.2067	0.0091
760.3819	0.0056
760.557	0.0113
760.732	0.0042
760.9071	-0.0031
761.0821	0.0027
761.2572	0.007
761.4322	-0.0023
761.6072	0.0071
761.7821	-0.0159
761.9571	0.0076
762.132	0
762.3069	-0.011
762.4818	-0.0028
762.6567	0.0022
762.8316	0.0038
763.0064	-0.008
763.1812	-0.0006
763.356	-0.0089
763.5308	-0.005
763.7055	-0.0079
763.8803	-0.0006
764.055	-0.0071
764.2297	-0.0068
764.4044	-0.0059
764.579	-0.0033
764.7537	-0.0054
764.9283	0.0023
765.1029	-0.004
765.2775	-0.0048
765.4521	-0.0028
765.6266	-0.0174
765.8011	-0.0034
765.9756	-0.0115
766.1501	0.0032
766.3246	0.0005
766.4991	0.0031
766.6735	0.0004
766.8479	-0.0104
767.0223	0.0094
767.1967	0.0022
767.371	0.0092
767.5454	-0.009
767.7197	-0.004
767.894	-0.0055
768.0683	0.0002
768.2425	0.0096
768.4168	0.005
768.591	0.0027
768.7652	0.0007
768.9394	-0.0039
769.1135	0.0084
769.2877	0.0112
769.4618	-0.0028
769.6359	-0.0004
769.81	0.0068
769.984	-0.0101
770.1581	0.0043
770.3321	-0.0015
770.5061	-0.0063
770.6801	-0.0036
770.8541	-0.003
771.028	-0.0027
771.202	-0.0106
771.3759	-0.0125
771.5498	-0.0118
771.7236	0.01
771.8975	-0.004
772.0713	-0.0028
772.2451	0.0055
772.4189	0.0079
772.5927	0.0058
772.7665	-0.0074
772.9402	-0.0111
773.1139	-0.0037
773.2876	-0.0158
773.4613	0.0168
773.635	0.0034
773.8086	0.001
773.9822	0.008
774.1558	0.0111
774.3294	-0.0079
774.503	-0.0004
774.6765	-0.0025
774.8501	0.0037
775.0236	0.0024
775.1971	0.0174
775.3705	-0.0115
775.544	0.015
775.7174	-0.003
775.8908	-0.0023
776.0642	0.0043
776.2376	0.009
776.4109	-0.0108
776.5843	-0.0052
776.7576	0.0073
776.9309	0.0142
777.1041	0.0125
777.2774	0.0071
777.4506	-0.0035
777.6238	-0.0161
777.797	0.0065
777.9702	-0.0065
778.1434	-0.0063
778.3165	-0.0055
778.4896	-0.0065
778.6627	-0.0007
778.8358	-0.0042
779.0089	-0.0085
779.1819	0.0018
779.3549	0.0042
779.5279	0.0015
779.7009	-0.0013
779.8739	0.0039
780.0468	-0.0034
780.2197	0.0032
780.3926	-0.0064
780.5655	-0.0003
780.7384	-0.0064
780.9112	0.0031
781.0841	-0.007
781.2569	0.0046
781.4297	0.0057
781.6024	0.0055
781.7752	0.009
781.9479	0.0133
782.1206	-0.0001
782.2933	-0.0033
782.466	0.0012
782.6386	-0.0033
782.8113	0.0013
782.9839	0.0018
783.1565	0.0036
783.329	-0.0045
783.5016	-0.0006
783.6741	0.009
783.8466	-0.0036
784.0191	0.0082
784.1916	-0.0105
784.3641	-0.0047
784.5365	-0.0083
784.7089	0.0021
784.8813	-0.0123
785.0537	0.0007
785.2261	-0.0044
785.3984	-0.0077
785.5707	-0.0128
785.743	-0.0123
785.9153	-0.0023
786.0876	-0.0043
786.2598	-0.0144
786.432	-0.0012
786.6042	0.0032
786.7764	-0.0025
786.9486	0.0026
787.1207	-0.0054
787.2928	0.0026
787.4649	0.0065
787.637	-0.0042
787.8091	-0.0019
787.9811	-0.0044
788.1532	-0.0078
788.3252	0.0105
788.4972	-0.0085
788.6691	0.0046
788.8411	-0.001
789.013	-0.0016
789.1849	-0.0004
789.3568	-0.0163
789.5287	-0.011
789.7005	-0.0046
789.8723	-0.0019
790.0442	0.0064
790.2159	0.0002
790.3877	0.0043
790.5595	-0.021
790.7312	0.0104
790.9029	-0.0076
791.0746	-0.0152
791.2463	-0.0145
791.4179	-0.0069
791.5896	-0.0155
791.7612	-0.0027
791.9328	0.0082
792.1044	-0.016
792.2759	-0.0247
792.4474	-0.0108
792.619	0.0004
792.7905	0.0138
792.9619	0.0071
793.1334	0.0114
793.3048	0.0064
793.4762	0.0113
793.6476	-0.0037
793.819	-0.0031
793.9904	-0.0004
794.1617	-0.0082
794.333	-0.0104
794.5043	-0.0166
794.6756	-0.0033
794.8469	0.0028
795.0181	-0.0071
795.1893	-0.0183
795.3605	0.007
795.5317	-0.0109
795.7029	-0.0079
795.874	0.0061
796.0452	0.0025
796.2163	-0.0013
796.3873	0.0025
796.5584	0.0138
796.7294	-0.0028
796.9005	-0.0108
797.0715	0.0074
797.2425	-0.0226
797.4134	-0.0059
797.5844	0.0093
797.7553	-0.0146
797.9262	-0.0019
798.0971	-0.0195
798.2679	-0.0182
798.4388	-0.0207
798.6096	0.0049
798.7804	0.0124
798.9512	-0.0057
799.122	-0.0061
799.2927	-0.0032
799.4635	0.014
799.6342	-0.0183
799.8049	-0.0055
799.9755	-0.0181
800.1462	-0.0132
800.3168	0.0255
800.4874	-0.0063
800.658	0.0327
800.8286	0.0071
800.9991	0.0061
801.1696	0.0085
801.3402	0.0153
801.5106	0.0062
801.6811	-0.0088
801.8516	0.0074
802.022	-0.0012
802.1924	-0.0108
802.3628	0.012
802.5332	0.0129
802.7035	0.0041
802.8739	-0.0018
803.0442	0.0051
803.2145	-0.0026
803.3847	-0.0079
803.555	0.0003
803.7252	-0.0017
803.8954	-0.0048
804.0656	-0.0233
804.2358	-0.0124
804.4059	0.0161
804.5761	0.0037
804.7462	-0.0006
804.9163	-0.0115
805.0864	-0.0229
805.2564	-0.0119
805.4264	0.0155
805.5965	-0.0164
805.7665	-0.0001
805.9364	-0.0144
806.1064	0.0186
806.2763	0.0029
806.4462	0.0219
806.6161	-0.0055
806.786	0.0031
806.9559	-0.0133
807.1257	-0.0015
807.2955	-0.0037
807.4653	-0.0151
807.6351	-0.0257
807.8048	0.0005
807.9746	0.006
808.1443	0.0019
808.314	0.0157
808.4837	0.0005
808.6533	0.0078
808.8229	0.0143
808.9926	0.0046
809.1622	0.0117
809.3317	-0.0119
809.5013	-0.0004
809.6708	-0.0009
809.8403	0.0211
810.0098	0.0227
810.1793	-0.0019
810.3488	0.0031
810.5182	-0.0209
810.6876	-0.0014
810.857	-0.0125
811.0264	0.009
811.1958	0.0118
811.3651	-0.0004
811.5344	-0.0041
811.7037	0.0038
811.873	-0.0166
812.0422	-0.0151
812.2115	-0.0158
812.3807	-0.0175
812.5499	0.0182
812.7191	0.0112
812.8882	-0.0191
813.0574	-0.0159
813.2265	-0.0245
813.3956	-0.0119
813.5646	0.0048
813.7337	-0.0063
813.9027	0.0169
814.0718	0.019
814.2407	0.0204
814.4097	-0.003
814.5787	-0.014
814.7476	-0.019
814.9165	0.0177
815.0854	-0.0159
815.2543	0.0156
815.4232	-0.0065
815.592	0.0318
815.7608	0.0043
815.9296	0.0153
816.0984	0.0159
816.2671	0.0085
816.4359	0.0013
816.6046	0.0086
816.7733	-0.0155
816.942	-0.0138
817.1106	0.0028
817.2793	0.0131
817.4479	0.0094
817.6165	0.0186
817.785	0.0026
817.9536	-0.0035
818.1221	-0.0097
818.2906	0.0027
818.4591	-0.0166
818.6276	-0.0066
818.7961	0.02
818.9645	0.0243
819.1329	-0.0062
819.3013	0.0125
819.4697	0.0298
819.638	0.0098
819.8064	-0.0019
819.9747	0.0219
820.143	-0.002
820.3113	-0.0075
820.4795	0.019
820.6477	-0.0067
820.816	0.0082
820.9842	0.017
821.1523	-0.0091
821.3205	-0.0101
821.4886	0.0023
821.6567	0.0199
821.8248	0.0152
821.9929	0.0195
822.1609	0.0077
822.329	0.0184
822.497	0.0314
822.665	-0.0022
822.833	-0.0151
823.0009	-0.0153
823.1688	-0.0029
823.3367	-0.009
823.5046	0.0067
823.6725	0.0353
823.8404	0.0029
824.0082	0.0136
824.176	0.0133
824.3438	-0.0026
824.5116	-0.0159
824.6793	0.001
824.847	-0.0213
825.0147	-0.0028
825.1824	0.0216
825.3501	0.0241
825.5177	-0.0151
825.6854	-0.0225
825.853	-0.0077
826.0206	-0.0234
826.1881	-0.0041
826.3557	-0.0242
826.5232	0.0076
826.6907	-0.0282
826.8582	-0.0075
827.0257	-0.0166
827.1931	0.0093
827.3605	-0.011
827.528	-0.0118
827.6953	-0.0052
827.8627	-0.019
828.03	0.0218
828.1974	-0.0173
828.3647	-0.0449
828.532	0.0076
828.6992	-0.0052
828.8665	0.0011
829.0337	-0.0152
829.2009	0.0317
829.3681	-0.0049
829.5352	0.043
829.7024	-0.0319
829.8695	-0.054
830.0366	0.0393
830.2037	0.0053
830.3707	0.0193
830.5378	-0.0222
830.7048	-0.0132
830.8718	-0.021
831.0388	-0.0083
831.2057	0.0034
831.3727	0.022
831.5396	0.02
831.7065	0.0083
831.8734	0.0229
832.0402	-0.0592
832.2071	-0.0213
832.3739	-0.0128
832.5407	-0.0236
832.7075	-0.0103
832.8742	0.0033
833.041	-0.0325
833.2077	-0.0004
833.3744	0.0195
833.541	-0.0034
833.7077	-0.0066
833.8743	-0.0221
834.0409	-0.0316
834.2075	0.0072
834.3741	-0.0191
834.5407	-0.0042
834.7072	-0.0142
834.8737	-0.0427
835.0402	0.0195
835.2067	0.0078
835.3731	0.0226
835.5395	0.006
835.706	0.0296
835.8723	-0.0208
836.0387	0.0084
836.2051	-0.0141
836.3714	-0.027
836.5377	0.003
836.704	-0.0172
836.8703	-0.0458
837.0365	0.0047
837.2027	-0.019
837.3689	-0.0185
837.5351	-0.0116
837.7013	0.008
837.8674	-0.0438
838.0335	-0.0263
838.1997	-0.046
838.3657	-0.0535
838.5318	-0.019
838.6978	0.0378
838.8639	0.0169
839.0299	0.0003
839.1958	-0.0075
839.3618	-0.0351
839.5277	-0.0529
839.6937	-0.0143
839.8596	0.0076
840.0254	0.0103
840.1913	0.0501
840.3571	0.0191
840.523	-0.0459
840.6888	-0.0099
840.8545	-0.033
841.0203	0.01
841.186	-0.0223
841.3517	0.028
841.5174	0.0047
841.6831	-0.0401
841.8488	0.0262
842.0144	-0.0024
842.18	-0.0067
842.3456	-0.0062
842.5112	-0.0234
842.6767	-0.0515
842.8422	-0.0071
843.0077	-0.0446
843.1732	-0.0321
843.3387	-0.0677
843.5042	-0.0482
843.6696	-0.0196
843.835	-0.0349
844.0004	0.0836
844.1657	0.0125
844.3311	-0.0427
844.4964	-0.0829
844.6617	-0.0329
844.827	0.011
844.9923	-0.0273
845.1575	-0.0102
845.3227	-0.0008
845.4879	-0.0495
845.6531	-0.0677
845.8183	-0.0587
845.9834	-0.0446
846.1485	-0.0167
846.3136	-0.0231
846.4787	-0.098
846.6438	0.0187
846.8088	-0.0662
846.9738	-0.1037
847.1388	-0.0438
847.3038	-0.0441
847.4687	-0.1124
847.6337	0.0017
847.7986	-0.0022
847.9635	-0.0848
848.1284	-0.04
848.2932	0.0067
848.458	-0.0243
848.6228	0.0292
848.7876	0.0996
848.9524	-0.0824
849.1172	-0.095
849.2819	0.0461
849.4466	-0.0967
849.6113	-0.1265
849.7759	-0.0227
849.9406	-0.0196
850.1052	0.0268
850.2698	-0.0323
850.4344	-0.1068
850.599	-0.034
850.7635	0.0481
850.928	-0.0197
851.0925	-0.0032
851.257	0.0676
851.4215	-0.0315
851.5859	-0.0015
851.7503	-0.0334
851.9147	-0.014
852.0791	-0.1674
852.2434	-0.0358
852.4078	0.0572
852.5721	0.0255
852.7364	-0.0457
852.9007	-0.2505
853.0649	-0.037
853.2291	0.0539
853.3934	-0.0173
853.5575	-0.0581
853.7217	-0.0866
853.8859	-0.0907
854.05	-0.0468
854.2141	-0.0341
854.3782	0.0183
854.5423	-0.017
854.7063	0.0791
854.8703	0.083
855.0343	-0.1217
855.1983	-0.1727
855.3623	0.1206
855.5262	0.0353
855.6901	-0.0542
855.854	-0.0195
856.0179	0.0052
856.1818	0.2154
856.3456	-0.0986
856.5094	-0.1504
856.6732	-0.258
856.837	-0.0632
857.0008	0.0241
857.1645	-0.0612
857.3282	-0.0964
857.4919	-0.0415
857.6556	-0.0907
857.8192	-0.0427
857.9828	-0.0525
858.1465	-0.1058
858.31	-0.1729
858.4736	-0.1378
858.6372	-0.2991
858.8007	-0.2601
858.9642	-0.1073
859.1277	-0.0634
859.2911	-0.0121
859.4546	0.1337
859.618	-0.3122
859.7814	-0.0219
859.9448	-0.0239
860.1081	-0.0802
860.2715	0.3049
860.4348	-0.1033
860.5981	0.0259
860.7614	0.2306
860.9246	0.0697
861.0879	-0.2686
861.2511	-0.0051
861.4143	-0.1624
861.5774	-0.0229
861.7406	-0.34
861.9037	0.0013
862.0668	-0.2023
862.2299	-0.1883
862.393	-0.6167
862.556	-0.1346
862.7191	-0.2922
862.8821	-0.2212
863.0451	0.0867
863.208	0.0841
863.371	-0.1191
863.5339	-0.0293
863.6968	-0.0224
863.8597	-0.2806
864.0225	0.0141
864.1854	-0.2248
864.3482	-0.0735
864.511	0.3258
864.6737	0.2314
864.8365	-0.0265
864.9992	-0.5044
865.1619	-0.6094
865.3246	-0.218
865.4873	-0.1681
865.65	0.1748
865.8126	-0.2829
865.9752	0.0599
866.1378	-0.3099
866.3004	0.0338
866.4629	0.0645
866.6254	-0.3428
866.7879	-0.1074
866.9504	-0.2682
867.1129	-0
867.2753	0.0467
867.4377	0.2581
867.6001	-0.4162
867.7625	0.142
867.9249	-0.7585
868.0872	0.0117
868.2495	0.4297
868.4118	-0
868.5741	-0.141
868.7363	-0.3914
868.8986	-0.2827
869.0608	-0.2467
869.223	0.4375
869.3851	-0
869.5473	-0
869.7094	0.4325
869.8715	-0.327
870.0336	-0
870.1957	-0.5222
870.3577	-0
870.5197	-0.2383
870.6817	-0.2163
870.8437	-0.3468
871.0057	-0
871.1676	-0.5348
871.3295	-0.2154
871.4914	-0
871.6533	-0.3534
871.8151	-0.3334
871.977	-0
872.1388	-0
872.3006	-0
872.4623	-0
872.6241	0.1311
872.7858	-0.3304
872.9475	-0.0455
873.1092	-0.1278
873.2709	-0
873.4325	-0.1849
873.5941	-0.1233
873.7557	-0
873.9173	-0
874.0789	0.0132
874.2404	-0.5569
874.4019	0.6377
874.5634	-0.0982
874.7249	-0.3469
874.8863	0.2157
875.0478	0.0636
875.2092	-0
875.3706	0.306
875.5319	-0
875.6933	-0
875.8546	-0
876.0159	0.1165
876.1772	-0
876.3385	-0
876.4997	0.0208
876.6609	-0.4344
876.8221	-0
876.9833	0.295
877.1445	-0
877.3056	-0.0843
877.4667	-0.4964
877.6278	-0
877.7889	-0.7847
877.9499	-0
878.111	-0.2329
878.272	-0
878.433	-0
878.5939	-0
878.7549	0.45
878.9158	-0
879.0767	1.1389
879.2376	-0
879.3984	0.1544
879.5593	-0
879.7201	-0.1214
879.8809	-0.699
880.0417	-0.4406
880.2024	0.2487
880.3632	-0.4301
880.5239	0.4112
880.6846	0.6397
880.8452	-2.7642
881.0059	-0.9345
881.1665	0.2497
881.3271	-0
881.4877	-0.2677
881.6483	-0.5321
881.8088	-0.0694
881.9693	-0
882.1298	-0
882.2903	-0
