Data from MonoPyChalIsomerACN10uM440nmA_Absorbance_15-27-15-294.txt Node
Date: Fri Jul 05 15:27:15 BST 2024
User: LASERRRRR
Spectrometer: FLMT03099
Trigger mode: 0
Integration Time (sec): 1.000000E-1
Scans to average: 1
Electric dark correction enabled: true
Nonlinearity correction enabled: false
Boxcar width: 0
XAxis mode: Wavelengths
Number of Pixels in Spectrum: 3648
>>>>>Begin Spectral Data<<<<<
179.3399	-0.0502
179.5586	-0.0502
179.7771	-0.0502
179.9957	0.1323
180.2143	-0.1469
180.4329	0.0391
180.6514	-0
180.8699	0.3545
181.0885	0.3286
181.307	-0.0515
181.5255	-1.0557
181.744	-0.6125
181.9625	-0
182.181	-0
182.3994	-0
182.6179	1.1996
182.8363	-0.0834
183.0547	-0.1786
183.2732	0.0946
183.4916	0.3792
183.71	0.2331
183.9284	0.2525
184.1467	0.0527
184.3651	-0.0572
184.5835	-0.0662
184.8018	0.1916
185.0201	0.1241
185.2385	-0.052
185.4568	0.0669
185.6751	0.332
185.8934	0.1937
186.1117	-0.0177
186.3299	0.0718
186.5482	0.043
186.7664	-0.0086
186.9847	-0.0301
187.2029	0.1158
187.4211	0.1372
187.6393	0.2245
187.8575	1.0862
188.0757	0.2321
188.2939	0.2187
188.512	1.2566
188.7302	-0.0792
188.9483	0.0412
189.1665	0.1154
189.3846	0.5336
189.6027	0.2436
189.8208	0.1752
190.0389	0.2005
190.257	0.2406
190.475	0.1866
190.6931	0.1499
190.9111	0.3842
191.1292	0.1199
191.3472	0.3216
191.5652	0.3764
191.7832	0.3402
192.0012	0.4732
192.2192	0.2844
192.4371	0.5757
192.6551	0.4305
192.873	0.5563
193.091	0.3688
193.3089	0.8165
193.5268	0.4318
193.7447	0.5332
193.9626	0.4434
194.1805	0.4846
194.3984	0.7432
194.6162	0.5508
194.8341	0.7358
195.0519	0.6181
195.2697	1.1003
195.4875	0.7632
195.7054	0.5058
195.9231	0.7033
196.1409	0.7286
196.3587	0.807
196.5765	0.6132
196.7942	0.6228
197.012	0.6475
197.2297	0.5111
197.4474	0.6432
197.6651	0.6412
197.8828	0.5566
198.1005	0.8811
198.3182	0.7724
198.5358	1.0944
198.7535	0.6778
198.9711	0.5497
199.1888	0.6383
199.4064	0.8847
199.624	0.82
199.8416	0.5192
200.0592	0.6291
200.2767	0.7221
200.4943	0.6704
200.7119	0.6946
200.9294	0.6322
201.1469	0.6527
201.3645	0.5677
201.582	0.6776
201.7995	0.8153
202.017	0.7389
202.2344	0.7294
202.4519	0.6539
202.6694	0.5489
202.8868	0.659
203.1042	0.8407
203.3217	0.8093
203.5391	0.7432
203.7565	0.6243
203.9739	0.6477
204.1913	0.5354
204.4086	0.6412
204.626	0.6728
204.8433	0.6806
205.0607	0.7024
205.278	0.677
205.4953	0.6933
205.7126	0.6416
205.9299	0.7051
206.1472	0.6417
206.3644	0.6977
206.5817	0.7483
206.7989	0.7591
207.0162	0.7925
207.2334	0.6787
207.4506	0.6025
207.6678	0.701
207.885	0.6816
208.1022	0.7128
208.3194	0.6139
208.5365	0.6501
208.7537	0.6572
208.9708	0.6032
209.1879	0.6732
209.405	0.6897
209.6222	0.6638
209.8392	0.6945
210.0563	0.6188
210.2734	0.6443
210.4905	0.6293
210.7075	0.631
210.9245	0.5949
211.1416	0.6892
211.3586	0.7262
211.5756	0.5981
211.7926	0.6322
212.0096	0.6054
212.2265	0.595
212.4435	0.6273
212.6604	0.6279
212.8774	0.6079
213.0943	0.6065
213.3112	0.5842
213.5281	0.5407
213.745	0.5114
213.9619	0.5133
214.1788	0.5074
214.3956	0.4867
214.6125	0.475
214.8293	0.4385
215.0461	0.4992
215.2629	0.4759
215.4798	0.4496
215.6965	0.4508
215.9133	0.4456
216.1301	0.4248
216.3469	0.4458
216.5636	0.4343
216.7803	0.387
216.9971	0.4108
217.2138	0.4023
217.4305	0.3896
217.6472	0.3742
217.8639	0.3825
218.0805	0.3385
218.2972	0.3257
218.5138	0.3337
218.7305	0.3176
218.9471	0.3188
219.1637	0.3122
219.3803	0.2769
219.5969	0.2905
219.8135	0.2764
220.0301	0.2651
220.2466	0.2932
220.4632	0.2875
220.6797	0.2458
220.8962	0.2268
221.1127	0.2403
221.3292	0.2586
221.5457	0.2402
221.7622	0.226
221.9787	0.2432
222.1951	0.2368
222.4116	0.239
222.628	0.2475
222.8444	0.2627
223.0608	0.2604
223.2772	0.224
223.4936	0.2558
223.71	0.2382
223.9264	0.2832
224.1427	0.2452
224.3591	0.2298
224.5754	0.2535
224.7917	0.2583
225.008	0.2614
225.2243	0.2636
225.4406	0.2856
225.6569	0.2746
225.8732	0.2586
226.0894	0.2786
226.3057	0.262
226.5219	0.2602
226.7381	0.2868
226.9543	0.2547
227.1705	0.3053
227.3867	0.2718
227.6029	0.3167
227.8191	0.306
228.0352	0.288
228.2513	0.3052
228.4675	0.3026
228.6836	0.2944
228.8997	0.2829
229.1158	0.3296
229.3319	0.3053
229.548	0.316
229.764	0.3149
229.9801	0.3394
230.1961	0.3361
230.4121	0.3319
230.6282	0.3283
230.8442	0.3059
231.0602	0.3427
231.2761	0.3483
231.4921	0.3506
231.7081	0.346
231.924	0.3276
232.14	0.3581
232.3559	0.3405
232.5718	0.3748
232.7877	0.3728
233.0036	0.36
233.2195	0.363
233.4353	0.3477
233.6512	0.3618
233.867	0.3607
234.0829	0.3573
234.2987	0.3594
234.5145	0.3584
234.7303	0.3619
234.9461	0.3948
235.1619	0.3904
235.3776	0.3842
235.5934	0.3639
235.8091	0.3637
236.0249	0.3579
236.2406	0.3796
236.4563	0.3822
236.672	0.3952
236.8877	0.3917
237.1034	0.3918
237.319	0.3907
237.5347	0.4003
237.7503	0.3933
237.966	0.4104
238.1816	0.3941
238.3972	0.3985
238.6128	0.385
238.8284	0.409
239.0439	0.4154
239.2595	0.3783
239.475	0.3929
239.6906	0.4117
239.9061	0.3905
240.1216	0.3895
240.3371	0.4322
240.5526	0.3884
240.7681	0.3935
240.9836	0.4017
241.199	0.4138
241.4145	0.3859
241.6299	0.3665
241.8453	0.3976
242.0607	0.3956
242.2761	0.3555
242.4915	0.3699
242.7069	0.3769
242.9223	0.3686
243.1376	0.353
243.353	0.3547
243.5683	0.3455
243.7836	0.3372
243.9989	0.3301
244.2142	0.3128
244.4295	0.3227
244.6448	0.3172
244.86	0.2977
245.0753	0.2956
245.2905	0.2853
245.5057	0.2795
245.721	0.2823
245.9362	0.2766
246.1514	0.2693
246.3665	0.255
246.5817	0.2639
246.7969	0.2581
247.012	0.2508
247.2271	0.2436
247.4423	0.2382
247.6574	0.2427
247.8725	0.2369
248.0876	0.2223
248.3026	0.2286
248.5177	0.229
248.7328	0.2163
248.9478	0.2099
249.1628	0.2104
249.3779	0.2213
249.5929	0.2086
249.8079	0.2241
250.0228	0.2006
250.2378	0.2013
250.4528	0.1986
250.6677	0.1893
250.8827	0.1951
251.0976	0.194
251.3125	0.1878
251.5274	0.1746
251.7423	0.182
251.9572	0.1883
252.172	0.1799
252.3869	0.1851
252.6017	0.1838
252.8166	0.173
253.0314	0.1766
253.2462	0.168
253.461	0.1775
253.6758	0.1558
253.8906	0.1737
254.1053	0.1667
254.3201	0.1707
254.5348	0.1844
254.7496	0.1883
254.9643	0.1759
255.179	0.1694
255.3937	0.1718
255.6083	0.1728
255.823	0.1791
256.0377	0.1642
256.2523	0.1732
256.467	0.1611
256.6816	0.1713
256.8962	0.1702
257.1108	0.1543
257.3254	0.1764
257.54	0.1706
257.7545	0.1682
257.9691	0.1657
258.1836	0.1655
258.3981	0.173
258.6127	0.1828
258.8272	0.1613
259.0417	0.1549
259.2561	0.1572
259.4706	0.167
259.6851	0.1701
259.8995	0.1767
260.114	0.1706
260.3284	0.1625
260.5428	0.1596
260.7572	0.1614
260.9716	0.1689
261.186	0.1564
261.4003	0.1733
261.6147	0.1718
261.829	0.1663
262.0433	0.1687
262.2577	0.1685
262.472	0.1629
262.6863	0.1562
262.9005	0.162
263.1148	0.1593
263.3291	0.1572
263.5433	0.1738
263.7576	0.1695
263.9718	0.1724
264.186	0.169
264.4002	0.1626
264.6144	0.1611
264.8286	0.1821
265.0427	0.1749
265.2569	0.1596
265.471	0.1559
265.6851	0.1469
265.8993	0.152
266.1134	0.1533
266.3275	0.1608
266.5415	0.154
266.7556	0.1693
266.9697	0.1621
267.1837	0.1633
267.3978	0.1796
267.6118	0.1725
267.8258	0.1807
268.0398	0.1446
268.2538	0.1664
268.4677	0.1713
268.6817	0.1466
268.8957	0.1613
269.1096	0.1662
269.3235	0.1662
269.5374	0.1549
269.7514	0.1559
269.9652	0.1456
270.1791	0.159
270.393	0.1514
270.6068	0.1526
270.8207	0.1539
271.0345	0.1427
271.2483	0.1485
271.4622	0.1441
271.676	0.1633
271.8897	0.1443
272.1035	0.155
272.3173	0.1418
272.531	0.1465
272.7448	0.1484
272.9585	0.135
273.1722	0.1483
273.3859	0.1543
273.5996	0.1503
273.8133	0.1546
274.0269	0.134
274.2406	0.1356
274.4542	0.1424
274.6679	0.15
274.8815	0.1407
275.0951	0.1569
275.3087	0.157
275.5223	0.1507
275.7358	0.1507
275.9494	0.1386
276.1629	0.1444
276.3765	0.1423
276.59	0.1502
276.8035	0.1497
277.017	0.1446
277.2305	0.144
277.444	0.143
277.6574	0.1381
277.8709	0.1592
278.0843	0.1434
278.2978	0.1517
278.5112	0.145
278.7246	0.1385
278.938	0.1544
279.1513	0.1486
279.3647	0.1661
279.5781	0.153
279.7914	0.1534
280.0047	0.1554
280.2181	0.1539
280.4314	0.154
280.6447	0.1489
280.8579	0.1534
281.0712	0.1591
281.2845	0.1501
281.4977	0.1583
281.711	0.1427
281.9242	0.1457
282.1374	0.158
282.3506	0.1524
282.5638	0.1493
282.7769	0.1431
282.9901	0.1576
283.2033	0.1638
283.4164	0.1597
283.6295	0.1434
283.8426	0.1466
284.0557	0.1525
284.2688	0.176
284.4819	0.1594
284.695	0.1624
284.908	0.1688
285.1211	0.1428
285.3341	0.1582
285.5471	0.1614
285.7601	0.1606
285.9731	0.1484
286.1861	0.1465
286.3991	0.1726
286.612	0.1651
286.825	0.1613
287.0379	0.1673
287.2508	0.1612
287.4637	0.1505
287.6766	0.1556
287.8895	0.1685
288.1024	0.1744
288.3152	0.1657
288.5281	0.1511
288.7409	0.1604
288.9538	0.1515
289.1666	0.1464
289.3794	0.1555
289.5922	0.162
289.8049	0.1729
290.0177	0.1662
290.2304	0.1656
290.4432	0.1673
290.6559	0.1693
290.8686	0.1726
291.0813	0.1552
291.294	0.1603
291.5067	0.1645
291.7194	0.165
291.932	0.164
292.1447	0.1744
292.3573	0.157
292.5699	0.1597
292.7825	0.1635
292.9951	0.1559
293.2077	0.1615
293.4203	0.1627
293.6328	0.1578
293.8454	0.1703
294.0579	0.1683
294.2704	0.1691
294.4829	0.1553
294.6954	0.1637
294.9079	0.1731
295.1204	0.1673
295.3328	0.1603
295.5453	0.1693
295.7577	0.1607
295.9701	0.1594
296.1825	0.1646
296.3949	0.1529
296.6073	0.1614
296.8197	0.1562
297.0321	0.1753
297.2444	0.163
297.4567	0.164
297.6691	0.1709
297.8814	0.1484
298.0937	0.1579
298.306	0.1653
298.5182	0.1562
298.7305	0.1715
298.9428	0.1598
299.155	0.158
299.3672	0.1597
299.5794	0.1541
299.7916	0.1629
300.0038	0.1676
300.216	0.1669
300.4282	0.1621
300.6403	0.1595
300.8525	0.1754
301.0646	0.1491
301.2767	0.1655
301.4888	0.1713
301.7009	0.1498
301.913	0.1606
302.125	0.1614
302.3371	0.1524
302.5491	0.1675
302.7612	0.1693
302.9732	0.1663
303.1852	0.1686
303.3972	0.1574
303.6092	0.1554
303.8211	0.1528
304.0331	0.1522
304.245	0.1539
304.457	0.1497
304.6689	0.1486
304.8808	0.1677
305.0927	0.1496
305.3046	0.1528
305.5164	0.1579
305.7283	0.1505
305.9401	0.1507
306.152	0.1425
306.3638	0.1493
306.5756	0.1478
306.7874	0.15
306.9992	0.1489
307.2109	0.1376
307.4227	0.1354
307.6344	0.1322
307.8462	0.129
308.0579	0.1267
308.2696	0.1275
308.4813	0.1283
308.693	0.1265
308.9046	0.1427
309.1163	0.1325
309.328	0.1388
309.5396	0.133
309.7512	0.1264
309.9628	0.1215
310.1744	0.1259
310.386	0.1206
310.5976	0.1237
310.8091	0.1286
311.0207	0.114
311.2322	0.1217
311.4437	0.1005
311.6552	0.1153
311.8667	0.1129
312.0782	0.1049
312.2897	0.102
312.5012	0.1125
312.7126	0.1006
312.924	0.101
313.1355	0.1107
313.3469	0.104
313.5583	0.1037
313.7696	0.1002
313.981	0.1029
314.1924	0.1026
314.4037	0.0971
314.6151	0.1098
314.8264	0.1019
315.0377	0.0912
315.249	0.0978
315.4603	0.1118
315.6716	0.1082
315.8828	0.0989
316.0941	0.1025
316.3053	0.0942
316.5165	0.0964
316.7277	0.0877
316.9389	0.1187
317.1501	0.0974
317.3613	0.1085
317.5724	0.0925
317.7836	0.1028
317.9947	0.0913
318.2058	0.0885
318.417	0.0895
318.6281	0.0857
318.8391	0.0947
319.0502	0.1022
319.2613	0.0988
319.4723	0.0971
319.6834	0.105
319.8944	0.0869
320.1054	0.0999
320.3164	0.0997
320.5274	0.1059
320.7383	0.0993
320.9493	0.1019
321.1602	0.1137
321.3712	0.0922
321.5821	0.11
321.793	0.1027
322.0039	0.1008
322.2148	0.0899
322.4257	0.1062
322.6365	0.108
322.8474	0.1046
323.0582	0.1003
323.269	0.1144
323.4798	0.1031
323.6906	0.1093
323.9014	0.103
324.1122	0.1081
324.3229	0.1035
324.5337	0.0914
324.7444	0.0916
324.9551	0.1129
325.1658	0.1021
325.3765	0.1015
325.5872	0.1098
325.7979	0.0898
326.0085	0.1092
326.2192	0.1085
326.4298	0.1073
326.6404	0.091
326.851	0.0988
327.0616	0.0901
327.2722	0.1053
327.4828	0.113
327.6933	0.0991
327.9039	0.1078
328.1144	0.1226
328.3249	0.1106
328.5354	0.0965
328.7459	0.0922
328.9564	0.1081
329.1669	0.1093
329.3773	0.1054
329.5878	0.0944
329.7982	0.1121
330.0086	0.0972
330.219	0.1158
330.4294	0.1103
330.6398	0.1146
330.8502	0.0987
331.0605	0.1129
331.2708	0.1085
331.4812	0.1121
331.6915	0.1079
331.9018	0.1094
332.1121	0.0901
332.3224	0.11
332.5326	0.1155
332.7429	0.1153
332.9531	0.1199
333.1633	0.1101
333.3735	0.1141
333.5837	0.1069
333.7939	0.1098
334.0041	0.1148
334.2143	0.1076
334.4244	0.1052
334.6346	0.1023
334.8447	0.1208
335.0548	0.1072
335.2649	0.0916
335.475	0.1127
335.685	0.1047
335.8951	0.1209
336.1051	0.1132
336.3152	0.1161
336.5252	0.1173
336.7352	0.1223
336.9452	0.1106
337.1552	0.1277
337.3652	0.1051
337.5751	0.1123
337.7851	0.1177
337.995	0.1046
338.2049	0.1135
338.4148	0.1228
338.6247	0.1131
338.8346	0.115
339.0445	0.1055
339.2543	0.1102
339.4642	0.1028
339.674	0.1073
339.8838	0.1118
340.0936	0.1145
340.3034	0.1242
340.5132	0.1131
340.7229	0.1235
340.9327	0.121
341.1424	0.1112
341.3522	0.1317
341.5619	0.1127
341.7716	0.1208
341.9813	0.1194
342.1909	0.117
342.4006	0.1294
342.6102	0.128
342.8199	0.1279
343.0295	0.1251
343.2391	0.1249
343.4487	0.1323
343.6583	0.1295
343.8679	0.126
344.0774	0.1305
344.287	0.1298
344.4965	0.1254
344.706	0.1091
344.9155	0.1253
345.125	0.1242
345.3345	0.13
345.544	0.128
345.7534	0.1268
345.9629	0.1135
346.1723	0.1258
346.3817	0.1294
346.5911	0.132
346.8005	0.1276
347.0099	0.1237
347.2193	0.1377
347.4286	0.123
347.638	0.1272
347.8473	0.1362
348.0566	0.1411
348.2659	0.134
348.4752	0.1319
348.6845	0.124
348.8937	0.1319
349.103	0.1514
349.3122	0.1179
349.5214	0.1433
349.7306	0.1361
349.9398	0.1357
350.149	0.1391
350.3582	0.1473
350.5674	0.1445
350.7765	0.1356
350.9856	0.1463
351.1948	0.1427
351.4039	0.1435
351.613	0.1377
351.822	0.1516
352.0311	0.1478
352.2402	0.146
352.4492	0.1439
352.6582	0.1626
352.8672	0.1436
353.0762	0.143
353.2852	0.136
353.4942	0.1468
353.7032	0.1508
353.9121	0.166
354.1211	0.1472
354.33	0.1614
354.5389	0.1516
354.7478	0.1566
354.9567	0.1521
355.1655	0.1383
355.3744	0.1557
355.5833	0.15
355.7921	0.1692
356.0009	0.162
356.2097	0.1663
356.4185	0.1719
356.6273	0.1557
356.8361	0.1676
357.0448	0.1547
357.2536	0.1522
357.4623	0.1483
357.671	0.1698
357.8797	0.1655
358.0884	0.1625
358.2971	0.1639
358.5057	0.1744
358.7144	0.1656
358.923	0.1696
359.1316	0.1587
359.3402	0.1805
359.5488	0.1679
359.7574	0.1566
359.966	0.175
360.1746	0.1688
360.3831	0.1809
360.5916	0.1585
360.8002	0.1622
361.0087	0.1863
361.2172	0.1833
361.4256	0.1696
361.6341	0.1784
361.8426	0.1782
362.051	0.2014
362.2594	0.1723
362.4678	0.1744
362.6762	0.2093
362.8846	0.1877
363.093	0.182
363.3014	0.1947
363.5097	0.1757
363.718	0.1876
363.9264	0.1924
364.1347	0.1805
364.343	0.2012
364.5513	0.2031
364.7595	0.2065
364.9678	0.194
365.176	0.2014
365.3842	0.1844
365.5925	0.1918
365.8007	0.1942
366.0089	0.1879
366.217	0.1843
366.4252	0.199
366.6333	0.2091
366.8415	0.197
367.0496	0.1851
367.2577	0.1939
367.4658	0.2112
367.6739	0.2092
367.882	0.2214
368.09	0.1911
368.2981	0.2213
368.5061	0.2031
368.7141	0.2032
368.9221	0.2217
369.1301	0.2141
369.3381	0.203
369.5461	0.203
369.754	0.1911
369.962	0.2367
370.1699	0.2052
370.3778	0.2217
370.5857	0.2103
370.7936	0.2163
371.0015	0.2365
371.2093	0.2272
371.4172	0.2312
371.625	0.2044
371.8328	0.2123
372.0406	0.2228
372.2484	0.2285
372.4562	0.228
372.664	0.2154
372.8717	0.2255
373.0795	0.2037
373.2872	0.2269
373.4949	0.2097
373.7026	0.229
373.9103	0.2277
374.118	0.2266
374.3256	0.2347
374.5333	0.2271
374.7409	0.2113
374.9485	0.2417
375.1561	0.2416
375.3637	0.237
375.5713	0.2325
375.7789	0.2264
375.9864	0.2492
376.194	0.2229
376.4015	0.2382
376.609	0.2505
376.8165	0.2357
377.024	0.2264
377.2315	0.2386
377.4389	0.2332
377.6464	0.2667
377.8538	0.2411
378.0612	0.2258
378.2686	0.2383
378.476	0.262
378.6834	0.2491
378.8908	0.2485
379.0981	0.2478
379.3055	0.2545
379.5128	0.2341
379.7201	0.2353
379.9274	0.2445
380.1347	0.2513
380.342	0.2577
380.5492	0.2442
380.7565	0.2432
380.9637	0.2598
381.1709	0.2406
381.3781	0.2293
381.5853	0.2581
381.7925	0.2429
381.9997	0.2551
382.2068	0.2604
382.4139	0.2579
382.6211	0.2393
382.8282	0.2502
383.0353	0.2457
383.2424	0.2359
383.4494	0.2615
383.6565	0.2557
383.8635	0.2522
384.0706	0.2413
384.2776	0.2534
384.4846	0.2469
384.6916	0.2596
384.8986	0.2517
385.1055	0.2733
385.3125	0.2468
385.5194	0.2483
385.7263	0.2586
385.9333	0.2523
386.1402	0.2548
386.347	0.243
386.5539	0.2513
386.7608	0.2525
386.9676	0.2385
387.1744	0.2667
387.3813	0.2381
387.5881	0.2572
387.7948	0.2383
388.0016	0.2267
388.2084	0.2552
388.4151	0.2369
388.6219	0.2448
388.8286	0.2412
389.0353	0.2582
389.242	0.2448
389.4487	0.2413
389.6553	0.2335
389.862	0.219
390.0686	0.2342
390.2753	0.2453
390.4819	0.2348
390.6885	0.225
390.8951	0.2431
391.1016	0.2252
391.3082	0.2372
391.5147	0.2432
391.7213	0.2465
391.9278	0.2314
392.1343	0.2238
392.3408	0.2274
392.5473	0.2222
392.7537	0.2252
392.9602	0.2275
393.1666	0.2342
393.373	0.2366
393.5794	0.2554
393.7858	0.2433
393.9922	0.2108
394.1986	0.234
394.4049	0.2311
394.6113	0.2106
394.8176	0.2196
395.0239	0.234
395.2302	0.228
395.4365	0.2046
395.6428	0.2138
395.8491	0.1969
396.0553	0.2143
396.2615	0.2112
396.4678	0.2161
396.674	0.1915
396.8802	0.2079
397.0863	0.2234
397.2925	0.1979
397.4987	0.1908
397.7048	0.2063
397.9109	0.2069
398.117	0.2237
398.3231	0.214
398.5292	0.2151
398.7353	0.2195
398.9413	0.2119
399.1474	0.2071
399.3534	0.2128
399.5594	0.2094
399.7654	0.2284
399.9714	0.2207
400.1774	0.2073
400.3833	0.197
400.5893	0.2072
400.7952	0.2152
401.0011	0.212
401.207	0.2113
401.4129	0.2096
401.6188	0.2154
401.8247	0.2128
402.0305	0.1879
402.2364	0.1969
402.4422	0.2243
402.648	0.2113
402.8538	0.2072
403.0596	0.211
403.2654	0.2051
403.4711	0.2032
403.6768	0.2293
403.8826	0.2094
404.0883	0.2198
404.294	0.1986
404.4997	0.2107
404.7054	0.2066
404.911	0.2148
405.1167	0.2106
405.3223	0.2279
405.5279	0.2144
405.7335	0.2331
405.9391	0.2096
406.1447	0.2008
406.3502	0.2346
406.5558	0.2046
406.7613	0.2222
406.9668	0.2183
407.1724	0.2086
407.3778	0.1927
407.5833	0.2187
407.7888	0.193
407.9942	0.237
408.1997	0.1986
408.4051	0.1916
408.6105	0.2267
408.8159	0.1945
409.0213	0.2111
409.2267	0.2141
409.432	0.2099
409.6374	0.2192
409.8427	0.2095
410.048	0.1921
410.2533	0.1922
410.4586	0.2
410.6639	0.1852
410.8691	0.176
411.0744	0.1958
411.2796	0.1966
411.4848	0.2056
411.69	0.205
411.8952	0.2256
412.1004	0.1914
412.3056	0.2202
412.5107	0.1755
412.7158	0.225
412.921	0.1928
413.1261	0.2191
413.3312	0.2102
413.5362	0.1936
413.7413	0.1953
413.9464	0.2122
414.1514	0.1936
414.3564	0.2055
414.5614	0.1979
414.7664	0.1981
414.9714	0.2062
415.1764	0.2083
415.3813	0.2258
415.5863	0.2049
415.7912	0.1892
415.9961	0.1959
416.201	0.212
416.4059	0.1996
416.6108	0.2023
416.8156	0.2148
417.0205	0.2059
417.2253	0.1654
417.4301	0.1912
417.6349	0.2033
417.8397	0.1952
418.0445	0.2044
418.2492	0.183
418.454	0.1947
418.6587	0.1984
418.8634	0.1894
419.0681	0.1894
419.2728	0.1946
419.4775	0.2036
419.6822	0.181
419.8868	0.1788
420.0915	0.1959
420.2961	0.1679
420.5007	0.1622
420.7053	0.1921
420.9099	0.1803
421.1144	0.1943
421.319	0.1907
421.5235	0.1859
421.728	0.2041
421.9325	0.1817
422.137	0.1845
422.3415	0.1749
422.546	0.1864
422.7504	0.1773
422.9549	0.2006
423.1593	0.194
423.3637	0.1851
423.5681	0.1774
423.7725	0.1703
423.9769	0.1591
424.1812	0.1698
424.3856	0.1603
424.5899	0.1717
424.7942	0.1693
424.9985	0.1948
425.2028	0.1653
425.4071	0.191
425.6113	0.1677
425.8156	0.1673
426.0198	0.1783
426.224	0.153
426.4282	0.1669
426.6324	0.174
426.8366	0.155
427.0407	0.1762
427.2449	0.1607
427.449	0.175
427.6531	0.1521
427.8572	0.1644
428.0613	0.1612
428.2654	0.1839
428.4694	0.1586
428.6735	0.1414
428.8775	0.1656
429.0815	0.1553
429.2855	0.1466
429.4895	0.1669
429.6935	0.1563
429.8975	0.1597
430.1014	0.147
430.3053	0.1286
430.5093	0.1261
430.7132	0.1325
430.9171	0.1404
431.1209	0.1298
431.3248	0.1166
431.5286	0.1523
431.7325	0.1596
431.9363	0.1287
432.1401	0.1362
432.3439	0.1245
432.5477	0.108
432.7514	0.1268
432.9552	0.1463
433.1589	0.1214
433.3627	0.1225
433.5664	0.1123
433.7701	0.1114
433.9737	0.0983
434.1774	0.1205
434.3811	0.1075
434.5847	0.1164
434.7883	0.1124
434.9919	0.1064
435.1955	0.1052
435.3991	0.118
435.6027	0.1146
435.8062	0.1089
436.0098	0.1
436.2133	0.1024
436.4168	0.088
436.6203	0.093
436.8238	0.102
437.0272	0.1007
437.2307	0.1018
437.4341	0.0987
437.6375	0.1036
437.841	0.0952
438.0443	0.0915
438.2477	0.0872
438.4511	0.0849
438.6545	0.0888
438.8578	0.0913
439.0611	0.0911
439.2644	0.0819
439.4677	0.0921
439.671	0.0762
439.8743	0.0808
440.0775	0.0839
440.2808	0.0661
440.484	0.051
440.6872	0.0607
440.8904	0.0833
441.0936	0.0879
441.2967	0.0875
441.4999	0.0715
441.703	0.0628
441.9062	0.0726
442.1093	0.0682
442.3124	0.0698
442.5155	0.0538
442.7185	0.0579
442.9216	0.0513
443.1246	0.0658
443.3276	0.0505
443.5307	0.0589
443.7337	0.0694
443.9366	0.0527
444.1396	0.0627
444.3426	0.0643
444.5455	0.0417
444.7484	0.0546
444.9513	0.0464
445.1542	0.0544
445.3571	0.0539
445.56	0.0497
445.7628	0.036
445.9657	0.042
446.1685	0.0526
446.3713	0.0444
446.5741	0.0321
446.7769	0.0392
446.9797	0.0485
447.1824	0.0542
447.3852	0.0184
447.5879	0.0459
447.7906	0.0451
447.9933	0.0534
448.196	0.0364
448.3986	0.0265
448.6013	0.0269
448.8039	0.0288
449.0066	0.0365
449.2092	0.0336
449.4118	0.0401
449.6143	0.0285
449.8169	0.0438
450.0195	0.0271
450.222	0.0087
450.4245	0.0282
450.627	0.0469
450.8295	0.0219
451.032	0.0229
451.2345	0.0222
451.4369	0.0341
451.6394	0.0322
451.8418	0.0127
452.0442	0.0208
452.2466	0.0235
452.449	0.0058
452.6513	0.0368
452.8537	0.0119
453.056	-0.0063
453.2583	0.0374
453.4607	0.0115
453.663	0.0169
453.8652	0.0276
454.0675	0.0082
454.2697	0.0176
454.472	0.0051
454.6742	0.0054
454.8764	0.0063
455.0786	0.0228
455.2808	0.0135
455.4829	0.0206
455.6851	0.0165
455.8872	0.0291
456.0893	0.019
456.2915	0.0087
456.4935	0.0216
456.6956	0.0181
456.8977	0.023
457.0997	0.0192
457.3018	0.0075
457.5038	0.0198
457.7058	0.0239
457.9078	0.0004
458.1098	0.0152
458.3117	0.0196
458.5137	0.0115
458.7156	0.02
458.9175	-0.0095
459.1194	0.0162
459.3213	0.0259
459.5232	-0.0063
459.725	-0.0141
459.9269	0.0087
460.1287	0.0127
460.3305	0.0014
460.5323	0.0126
460.7341	0.0084
460.9359	-0.0006
461.1376	0.014
461.3394	-0.0044
461.5411	0.0175
461.7428	0.0221
461.9445	0.021
462.1462	0.014
462.3479	0.0032
462.5495	0.0072
462.7512	0.0172
462.9528	0.0094
463.1544	-0.0059
463.356	0.0092
463.5576	0.0009
463.7592	-0.0078
463.9607	0.0045
464.1623	0.0189
464.3638	0.002
464.5653	-0.0103
464.7668	-0.0037
464.9683	0.0187
465.1697	0.0209
465.3712	0.003
465.5726	-0.0107
465.7741	0.008
465.9755	0.0003
466.1769	0.0079
466.3782	0.0021
466.5796	0.0008
466.7809	0.0039
466.9823	0.0008
467.1836	0.0026
467.3849	-0.0047
467.5862	0.0151
467.7875	0.002
467.9887	0.0148
468.19	-0.0016
468.3912	-0.0094
468.5924	0.0057
468.7936	0.0133
468.9948	0.0122
469.196	0.0061
469.3972	-0.0081
469.5983	-0.0003
469.7994	-0.0003
470.0006	-0.0018
470.2017	-0.0031
470.4027	-0.0015
470.6038	0.0221
470.8049	0.0002
471.0059	0.0005
471.2069	-0.018
471.408	0.0056
471.6089	0.0132
471.8099	0.0063
472.0109	0.0143
472.2119	-0.017
472.4128	-0.0185
472.6137	0.013
472.8146	-0.0194
473.0155	-0.002
473.2164	0.0027
473.4173	0.0162
473.6181	-0.004
473.819	0.0069
474.0198	-0.0059
474.2206	0.0115
474.4214	0.0006
474.6222	-0.0034
474.8229	-0.0036
475.0237	-0.0128
475.2244	-0.005
475.4251	-0.004
475.6258	-0.0094
475.8265	-0.0009
476.0272	0.0112
476.2278	0.0027
476.4285	-0.0004
476.6291	-0.0081
476.8297	-0.0119
477.0303	-0.0111
477.2309	-0.0121
477.4315	-0.0163
477.632	-0.0035
477.8326	0.01
478.0331	0.0117
478.2336	0.0128
478.4341	-0.0078
478.6346	0.0002
478.8351	0.0044
479.0355	0.0116
479.236	-0.0036
479.4364	0.0057
479.6368	0.0061
479.8372	-0.015
480.0376	-0.0116
480.2379	-0.0046
480.4383	-0.0035
480.6386	0.0143
480.8389	0.0046
481.0392	-0.0075
481.2395	-0.0122
481.4398	0.0118
481.6401	-0.0002
481.8403	-0.004
482.0405	-0.0055
482.2408	-0.0113
482.441	0.0062
482.6411	-0.005
482.8413	-0.0055
483.0415	-0.0169
483.2416	-0.002
483.4417	0.0006
483.6419	-0.012
483.8419	0.0068
484.042	-0.0007
484.2421	0.0091
484.4422	0.0015
484.6422	-0.0038
484.8422	0.0013
485.0422	-0.0161
485.2422	0.0037
485.4422	-0.0073
485.6422	-0.0064
485.8421	-0.0037
486.042	-0.0043
486.242	0.001
486.4419	-0.0014
486.6417	-0.0072
486.8416	-0.0021
487.0415	0.0009
487.2413	-0.0009
487.4411	-0.0019
487.641	-0.0099
487.8408	0.007
488.0405	-0.005
488.2403	-0.0011
488.4401	-0.0006
488.6398	0.0178
488.8395	0.0026
489.0392	0.0037
489.2389	-0.0137
489.4386	-0.0026
489.6383	-0.0011
489.8379	0.0023
490.0376	-0.0079
490.2372	-0.013
490.4368	-0.0049
490.6364	-0.0002
490.836	-0.0113
491.0355	0.0061
491.2351	-0.0051
491.4346	-0.0024
491.6341	-0.0054
491.8336	0.001
492.0331	-0.0122
492.2326	-0.01
492.432	0.0055
492.6315	-0.0041
492.8309	-0.0095
493.0303	-0.0034
493.2297	0.0033
493.4291	0.0035
493.6284	0.0006
493.8278	0.0024
494.0271	0.0043
494.2264	0.0026
494.4257	-0.0072
494.625	-0.0088
494.8243	-0.0096
495.0236	-0.0002
495.2228	-0.0065
495.422	-0.0007
495.6213	-0.0018
495.8205	0.0109
496.0196	0.0008
496.2188	0
496.418	-0.0057
496.6171	-0.0003
496.8162	-0.0081
497.0153	0.0028
497.2144	-0.0015
497.4135	0.0095
497.6126	-0.0163
497.8116	-0.0064
498.0107	-0.0003
498.2097	-0.0063
498.4087	-0.0022
498.6077	0.0058
498.8067	-0.0071
499.0056	0.0188
499.2046	-0.0044
499.4035	-0.0207
499.6024	0.0002
499.8013	0.0095
500.0002	-0.0047
500.199	-0.0072
500.3979	-0.009
500.5967	-0.0141
500.7956	0.0015
500.9944	-0.0028
501.1932	-0.0076
501.3919	-0.0131
501.5907	-0.0109
501.7895	0.0013
501.9882	-0.0014
502.1869	-0.0094
502.3856	-0.0099
502.5843	-0.0109
502.783	-0.0067
502.9816	0.0012
503.1803	-0.0101
503.3789	-0.0092
503.5775	0.0084
503.7761	-0.0077
503.9747	0.0015
504.1732	-0.0104
504.3718	0.0002
504.5703	-0.0004
504.7689	-0.0142
504.9674	0.0038
505.1658	-0.0094
505.3643	-0.0008
505.5628	-0.0005
505.7612	-0.0135
505.9597	0.0032
506.1581	-0.0145
506.3565	0.0155
506.5549	0.0012
506.7532	-0.0122
506.9516	-0.0049
507.1499	-0.0053
507.3482	-0.0021
507.5465	-0.0089
507.7448	-0.0004
507.9431	-0.0006
508.1414	0.0029
508.3396	-0.0014
508.5379	-0.0049
508.7361	-0.0053
508.9343	0.0018
509.1325	-0.0034
509.3306	0.0046
509.5288	-0.01
509.7269	-0.0024
509.9251	-0.0033
510.1232	-0.0186
510.3213	0.0027
510.5193	-0.0071
510.7174	-0.0121
510.9154	-0.0092
511.1135	-0.0133
511.3115	0.0018
511.5095	-0.0131
511.7075	0.0007
511.9055	-0.0035
512.1034	-0.0019
512.3014	0.0063
512.4993	0.008
512.6972	-0.004
512.8951	0.0001
513.093	0.0068
513.2908	0.0008
513.4887	-0.0042
513.6865	-0.0044
513.8844	0.0018
514.0822	-0.0109
514.2799	-0.0008
514.4777	-0.0062
514.6755	-0.0019
514.8732	-0.0065
515.0709	0.0038
515.2687	-0.0017
515.4664	-0.0028
515.664	0.0002
515.8617	-0.0038
516.0594	-0.0126
516.257	0.0021
516.4546	-0.01
516.6522	0.0101
516.8498	-0.0022
517.0474	0.0036
517.2449	0.0073
517.4425	-0.0107
517.64	-0.0165
517.8375	0.0024
518.035	0.0031
518.2325	-0.0029
518.43	-0.0086
518.6274	-0.004
518.8249	-0.0188
519.0223	0.0021
519.2197	-0.0023
519.4171	-0.0021
519.6145	-0.0028
519.8118	0.0065
520.0092	-0.0018
520.2065	-0.0086
520.4038	-0.0109
520.6011	-0.0065
520.7984	-0.012
520.9956	-0.0088
521.1929	0.0038
521.3901	0.0109
521.5874	-0.0045
521.7846	0.0058
521.9818	-0.0029
522.1789	-0.0066
522.3761	-0.0106
522.5732	-0.0025
522.7704	-0.0033
522.9675	0.004
523.1646	-0.0094
523.3617	-0.0038
523.5587	-0.0032
523.7558	0.0035
523.9528	-0.0025
524.1498	0.0058
524.3468	-0.0102
524.5438	0.0058
524.7408	0.0041
524.9378	0.0099
525.1347	0.0073
525.3316	0.0007
525.5285	-0.0091
525.7254	0.005
525.9223	0.0047
526.1192	0.008
526.316	-0.0035
526.5129	0.0056
526.7097	0.0037
526.9065	0.0063
527.1033	-0.0051
527.3	0.004
527.4968	-0.0031
527.6935	-0.0039
527.8903	-0.0112
528.087	-0.0109
528.2837	-0.0039
528.4804	0.0056
528.677	-0.0047
528.8737	0.0054
529.0703	0.0037
529.2669	0.0025
529.4635	-0.0061
529.6601	0.0053
529.8567	-0.0018
530.0532	-0.0087
530.2498	0.0063
530.4463	0.0064
530.6428	-0.0039
530.8393	0.0151
531.0358	0.0061
531.2322	0.0019
531.4287	-0.0032
531.6251	0.0072
531.8215	0.0145
532.0179	0.0014
532.2143	0.0046
532.4107	0.0057
532.607	0.0038
532.8034	0.0039
532.9997	0.0029
533.196	0.0023
533.3923	0.0081
533.5886	0.0083
533.7848	0
533.9811	-0.0075
534.1773	0.007
534.3735	0.0071
534.5697	-0.0011
534.7659	0.0027
534.9621	0.0067
535.1582	-0.004
535.3544	0.0019
535.5505	0.0001
535.7466	0.0009
535.9427	-0.0036
536.1387	-0.0034
536.3348	-0.0038
536.5308	-0.0021
536.7269	-0.013
536.9229	0.0087
537.1189	0.0002
537.3148	0.0018
537.5108	-0.011
537.7068	0.0046
537.9027	0.0015
538.0986	0.003
538.2945	0.0006
538.4904	0.0003
538.6863	0.004
538.8821	-0.0025
539.078	0.0019
539.2738	-0.0013
539.4696	0.0008
539.6654	0.01
539.8611	0.0111
540.0569	-0.0005
540.2526	0.0008
540.4484	-0.003
540.6441	0.009
540.8398	0.0063
541.0355	-0.0023
541.2311	0.0077
541.4268	-0.0121
541.6224	0.0108
541.818	0.0018
542.0136	-0.0004
542.2092	0.0029
542.4048	0.0048
542.6003	0.0059
542.7959	0.0018
542.9914	-0.0009
543.1869	0.0021
543.3824	-0.0022
543.5779	0.0015
543.7734	0.0021
543.9688	0.009
544.1642	0.0045
544.3596	0.0072
544.555	-0.005
544.7504	-0.0018
544.9458	-0.0021
545.1411	-0.0019
545.3365	-0.0015
545.5318	-0.009
545.7271	-0.0018
545.9224	-0.0055
546.1177	-0.0064
546.3129	0.0031
546.5081	0.0006
546.7034	0.004
546.8986	-0.0058
547.0938	-0.0034
547.289	-0.0007
547.4841	-0.002
547.6793	-0.0061
547.8744	-0.0015
548.0695	0.005
548.2646	0.0014
548.4597	0.0052
548.6548	0.0058
548.8498	0.0014
549.0448	0.0041
549.2399	0.0059
549.4349	0.0132
549.6298	-0.0025
549.8248	0.0098
550.0198	0.001
550.2147	-0.0029
550.4096	0.0007
550.6045	0.001
550.7994	0.0047
550.9943	0.0068
551.1892	0.0063
551.384	0.0146
551.5788	-0.0004
551.7737	-0.0049
551.9685	0.0124
552.1632	0.0083
552.358	0.0017
552.5528	0.0055
552.7475	-0.0019
552.9422	0.0045
553.1369	0.0018
553.3316	-0.0017
553.5263	-0.0057
553.7209	0.0099
553.9156	-0.0064
554.1102	-0.0083
554.3048	0.0016
554.4994	0.0076
554.694	-0.0026
554.8885	0.0101
555.0831	-0.0116
555.2776	0.0011
555.4721	0.0028
555.6666	-0.0011
555.8611	0.0079
556.0555	-0.0026
556.25	0.0025
556.4444	-0.0059
556.6388	0.01
556.8332	-0.0006
557.0276	-0.0012
557.222	0.0023
557.4163	0.0053
557.6107	-0.002
557.805	0.0092
557.9993	-0.005
558.1936	0.0061
558.3879	0.0055
558.5821	0.0035
558.7764	-0.0039
558.9706	0.0057
559.1648	0.0063
559.359	-0.0017
559.5532	-0.0025
559.7473	0.0009
559.9415	0.0027
560.1356	0.0002
560.3297	-0.0022
560.5238	-0.0061
560.7179	0.0012
560.9119	0
561.106	-0.0019
561.3	0.0014
561.494	0.0009
561.688	-0.0097
561.882	-0.0015
562.076	-0.0056
562.2699	0.0034
562.4639	0.0032
562.6578	-0.0009
562.8517	0.0078
563.0456	0.002
563.2395	0.0053
563.4333	0.0076
563.6272	0.0131
563.821	0.0057
564.0148	-0.0009
564.2086	-0.0109
564.4024	0.0034
564.5961	-0.0033
564.7899	0.0119
564.9836	0.0036
565.1773	0.0017
565.371	0.0067
565.5647	0.0107
565.7584	0.0023
565.952	-0.0007
566.1456	-0.0034
566.3393	-0.0053
566.5329	-0.0058
566.7264	0.0057
566.92	0.0017
567.1136	0.0046
567.3071	0.0063
567.5006	0.0051
567.6941	-0.0002
567.8876	-0.0012
568.0811	0.0079
568.2745	0.0084
568.468	0.0033
568.6614	0.0023
568.8548	0.0055
569.0482	-0.0005
569.2416	0.0038
569.4349	0.0047
569.6283	0.005
569.8216	-0
570.0149	-0.0031
570.2082	0.0129
570.4015	0.0064
570.5947	0.0056
570.788	0.0091
570.9812	0.0092
571.1744	-0.0025
571.3676	0.0022
571.5608	-0.001
571.754	0.0042
571.9471	0.0029
572.1402	0.0042
572.3333	-0.0005
572.5264	0.0014
572.7195	0.0049
572.9126	0.0061
573.1057	0.001
573.2987	-0.0009
573.4917	0.0066
573.6847	-0.0029
573.8777	0.0044
574.0707	0.0023
574.2636	0.0013
574.4566	-0.0008
574.6495	0.0076
574.8424	-0.0006
575.0353	-0.0012
575.2281	0.0058
575.421	0.0065
575.6138	0.0137
575.8067	0.0006
575.9995	0.0053
576.1923	0.0085
576.385	0.0033
576.5778	-0.0023
576.7706	0.0004
576.9633	0.0014
577.156	0.0088
577.3487	-0.0036
577.5414	0.0035
577.734	-0.0037
577.9267	0.0067
578.1193	-0.0079
578.3119	-0.0028
578.5045	0.0014
578.6971	-0.0011
578.8897	0.0053
579.0822	0.0049
579.2747	-0.0019
579.4673	0.0021
579.6598	-0.0047
579.8522	-0.0063
580.0447	-0.0074
580.2372	-0
580.4296	0.0076
580.622	0.001
580.8144	0.0018
581.0068	0.0014
581.1992	-0.0086
581.3915	-0.002
581.5839	-0.0035
581.7762	-0.0087
581.9685	0.002
582.1608	0.0053
582.353	0.0016
582.5453	0.0014
582.7375	0.0003
582.9298	0.0038
583.122	0.0017
583.3142	0.0059
583.5063	0.0042
583.6985	-0.0037
583.8906	-0.0033
584.0827	0.0007
584.2749	0.0048
584.4669	0.0049
584.659	0.0003
584.8511	0.0019
585.0431	-0.001
585.2352	0.0057
585.4272	0.0038
585.6192	0.003
585.8111	0.0006
586.0031	0.0064
586.195	0.0034
586.387	0.0094
586.5789	0.0035
586.7708	0.0046
586.9627	-0.0011
587.1545	0.0011
587.3464	0.0084
587.5382	0.0069
587.73	0.0055
587.9218	0.0121
588.1136	-0.0031
588.3053	0.0052
588.4971	0.0016
588.6888	-0.0064
588.8805	-0.0005
589.0722	0.0024
589.2639	0.0045
589.4556	-0.0004
589.6472	-0.0004
589.8389	-0.0055
590.0305	-0.0037
590.2221	0.0035
590.4137	-0.0064
590.6052	-0.0014
590.7968	0.006
590.9883	0.0055
591.1798	-0.0054
591.3713	0.0007
591.5628	0.0057
591.7543	0.0089
591.9458	0.0028
592.1372	0.0054
592.3286	0.0066
592.52	0.0102
592.7114	-0.0016
592.9028	-0.0004
593.0941	0.0028
593.2855	0.0033
593.4768	0.0015
593.6681	-0.0034
593.8594	0.0045
594.0506	0.0016
594.2419	0.0131
594.4331	0.0075
594.6244	0.0035
594.8156	-0.0058
595.0067	-0.0033
595.1979	0.0021
595.3891	0.0058
595.5802	0.0045
595.7713	0.0084
595.9624	0.0005
596.1535	0.0054
596.3446	0.0021
596.5357	-0.0004
596.7267	0.0068
596.9177	0.0025
597.1087	0
597.2997	-0.0024
597.4907	0.0096
597.6817	0.0036
597.8726	0.0039
598.0635	0.0001
598.2544	0.0059
598.4453	0.0009
598.6362	0.0016
598.827	-0.0036
599.0179	0.0048
599.2087	0.0058
599.3995	0.0058
599.5903	0.0068
599.7811	0.0026
599.9718	0.0076
600.1626	0.0058
600.3533	-0.0072
600.544	0.0032
600.7347	-0.0013
600.9254	0.0033
601.116	-0.004
601.3067	0.0028
601.4973	-0.0049
601.6879	0.0117
601.8785	-0.0021
602.0691	0.0038
602.2596	0.0076
602.4502	0.0017
602.6407	0.009
602.8312	0.0027
603.0217	-0.0012
603.2122	0.0098
603.4027	0.0051
603.5931	0.0072
603.7835	-0.0005
603.9739	-0.0035
604.1643	-0.0018
604.3547	-0.0034
604.5451	0.0006
604.7354	-0.0019
604.9257	-0.0048
605.116	0.0004
605.3063	0.0023
605.4966	0.008
605.6869	0.0034
605.8771	0.0044
606.0673	0.005
606.2575	0.0108
606.4477	0.0052
606.6379	0.0072
606.8281	0.0047
607.0182	0.0009
607.2083	0.0036
607.3985	-0.0007
607.5885	-0.0017
607.7786	0.0049
607.9687	0.0005
608.1587	0.0048
608.3488	0.0046
608.5388	0.0005
608.7288	-0.0032
608.9187	-0.0048
609.1087	-0.0051
609.2986	-0.0014
609.4886	-0.0046
609.6785	0.0074
609.8684	0.0037
610.0582	0.006
610.2481	0.0067
610.4379	0.0056
610.6278	0.0007
610.8176	0.0066
611.0074	-0.0042
611.1971	0.0025
611.3869	0.0001
611.5766	-0.0039
611.7664	0.0092
611.9561	0.0045
612.1458	0.0003
612.3354	-0.0023
612.5251	0.0073
612.7147	0.015
612.9044	0.0138
613.094	-0.0008
613.2836	0.0087
613.4731	0.001
613.6627	0.0018
613.8522	0.0042
614.0417	0.0052
614.2313	0.0007
614.4207	-0.0044
614.6102	-0.0007
614.7997	0.0019
614.9891	-0.0002
615.1785	0.0064
615.3679	0.0049
615.5573	0.012
615.7467	0.0053
615.9361	0.0018
616.1254	0.0042
616.3147	0.0117
616.504	0.0068
616.6933	0.0123
616.8826	0.0077
617.0718	0.0081
617.2611	0.0021
617.4503	-0.0018
617.6395	0.0053
617.8287	0.0033
618.0179	0.001
618.207	0.0082
618.3961	0.0062
618.5853	0.0061
618.7744	0.0057
618.9634	0.0098
619.1525	0.0107
619.3416	0.0059
619.5306	0.0133
619.7196	0.0063
619.9086	0.0036
620.0976	0.0071
620.2866	0.0109
620.4755	0.0042
620.6645	0.0125
620.8534	0.0061
621.0423	0.0109
621.2312	0.0138
621.42	0.0095
621.6089	0.0061
621.7977	0.0081
621.9865	0.0047
622.1753	0.0064
622.3641	0.0092
622.5529	0.0157
622.7416	0.0159
622.9303	0.0049
623.1191	0.0022
623.3078	0.0036
623.4964	0.006
623.6851	0.0023
623.8737	0.0043
624.0624	0.0119
624.251	0.0029
624.4396	0.0025
624.6282	0.0013
624.8167	-0.0031
625.0053	0.0078
625.1938	0.0056
625.3823	0.007
625.5708	0.0013
625.7593	-0.0022
625.9477	-0.0032
626.1362	0.0044
626.3246	0.0017
626.513	0.0091
626.7014	0.0137
626.8898	0.0021
627.0781	0.0032
627.2665	0.006
627.4548	0.0077
627.6431	0.0049
627.8314	0.0075
628.0197	0.016
628.2079	-0.0051
628.3962	0.0058
628.5844	0.0047
628.7726	0.0049
628.9608	0.0023
629.1489	-0.001
629.3371	0.0028
629.5252	-0.0006
629.7134	0.0122
629.9015	0.0049
630.0895	0.0032
630.2776	0.0082
630.4657	0.0048
630.6537	0.0022
630.8417	0.0036
631.0297	0.0012
631.2177	0.0074
631.4057	-0.0018
631.5936	0.0039
631.7815	0.0056
631.9695	0.0041
632.1574	0.0083
632.3452	0.0146
632.5331	0.0116
632.7209	0.0045
632.9088	0.0124
633.0966	0.0137
633.2844	0.0093
633.4722	0.0039
633.6599	0.0113
633.8477	0.0074
634.0354	0.0046
634.2231	0.0069
634.4108	0.0099
634.5985	0.0087
634.7861	0.0068
634.9738	0.0075
635.1614	0.0136
635.349	0.0101
635.5366	-0.0016
635.7242	0.0023
635.9117	0.0092
636.0993	0.0108
636.2868	0.0094
636.4743	0.0046
636.6618	0.0151
636.8492	0.0108
637.0367	0.0153
637.2241	0.0038
637.4115	-0.0006
637.5989	0.0087
637.7863	0.0096
637.9737	0.0041
638.161	0.0096
638.3484	0.0067
638.5357	0.0081
638.723	-0.0003
638.9103	0.0115
639.0975	0.0098
639.2848	0.0078
639.472	0.0032
639.6592	0.0069
639.8464	0.0125
640.0336	0.0137
640.2208	0.0036
640.4079	0.0009
640.595	0.0038
640.7821	0.0017
640.9692	0.005
641.1563	-0.0016
641.3434	0.0085
641.5304	0.008
641.7174	-0.0016
641.9044	0.0069
642.0914	0.0127
642.2784	0.008
642.4653	0.0104
642.6523	0.0021
642.8392	0.0047
643.0261	0.0074
643.213	0.0045
643.3999	0.0049
643.5867	0.0029
643.7735	0.0086
643.9604	0.0008
644.1472	0.0059
644.3339	0.009
644.5207	0.0079
644.7075	0.0057
644.8942	0.0089
645.0809	0.0118
645.2676	0.0092
645.4543	0.0095
645.6409	0.0028
645.8276	0.0097
646.0142	0.0134
646.2008	0.0023
646.3874	0.0032
646.574	0.0128
646.7605	-0.0031
646.9471	-0.0041
647.1336	0.001
647.3201	0.0049
647.5066	0.003
647.6931	0.0053
647.8795	-0.0002
648.0659	0.0058
648.2524	0.0088
648.4388	0.0024
648.6252	0.0045
648.8115	-0.0011
648.9979	-0.0073
649.1842	0.0029
649.3705	0.0033
649.5568	0.0105
649.7431	0.0106
649.9294	0.0044
650.1156	0.0086
650.3018	-0.0035
650.488	0.0139
650.6742	0.0035
650.8604	0.0031
651.0466	0.0048
651.2327	0.0097
651.4188	0.001
651.6049	-0.0002
651.791	0.006
651.9771	0.0112
652.1632	0.0082
652.3492	0.0045
652.5352	0.0056
652.7212	0.0073
652.9072	0.0125
653.0932	0.0048
653.2791	0.0015
653.465	0.0056
653.651	0.0099
653.8369	0.0005
654.0227	-0.0013
654.2086	0.0104
654.3944	0.0105
654.5803	0.004
654.7661	0.0026
654.9519	0.0129
655.1377	0.0021
655.3234	0.0054
655.5092	-0.0006
655.6949	-0.0061
655.8806	-0.001
656.0663	0.0037
656.2519	0.0007
656.4376	-0.0012
656.6232	0.0084
656.8088	0.0019
656.9945	0.0052
657.18	0.0014
657.3656	0.0083
657.5511	-0.0032
657.7367	0.0005
657.9222	0.0108
658.1077	0.0038
658.2932	0.0064
658.4786	-0.0058
658.6641	-0.0024
658.8495	-0.0003
659.0349	0.0004
659.2203	0.0047
659.4057	0.0067
659.591	0.005
659.7764	0.0001
659.9617	0.0087
660.147	0.0014
660.3323	0.0032
660.5176	0.0099
660.7028	0.0097
660.888	0.011
661.0733	0.0106
661.2585	0.0019
661.4436	-0.0017
661.6288	0.0056
661.8139	-0.0029
661.9991	0.0062
662.1842	-0.0019
662.3693	-0.0014
662.5544	-0.0041
662.7394	0
662.9245	0.0072
663.1095	0.0024
663.2945	0.0054
663.4795	0.0012
663.6644	0.0051
663.8494	0.0077
664.0343	0.0141
664.2193	-0.0052
664.4042	-0.0008
664.589	-0.0002
664.7739	-0.0012
664.9587	-0.0033
665.1436	0.002
665.3284	0.0075
665.5132	-0.0014
665.698	0.0071
665.8827	0.0102
666.0675	0.007
666.2522	-0.0028
666.4369	0.0084
666.6216	0.0109
666.8063	0.0035
666.9909	0.0069
667.1756	0.0054
667.3602	0.0009
667.5448	0.0096
667.7294	0.0144
667.9139	0.0156
668.0985	0.0174
668.283	0.0038
668.4675	0.0004
668.652	0.0035
668.8365	0.0129
669.0209	0.0051
669.2054	0.0193
669.3898	0.0113
669.5742	0.0128
669.7586	0.0113
669.943	0.0157
670.1273	0.0149
670.3117	0.0176
670.496	0.0088
670.6803	0.015
670.8646	0.0135
671.0488	0.0011
671.2331	0.0121
671.4173	0.0099
671.6015	-0.0044
671.7857	0.0033
671.9699	0.0111
672.1541	0.0115
672.3382	0.0051
672.5223	0.0051
672.7064	0.0043
672.8905	0.0094
673.0746	0.0066
673.2587	-0.0031
673.4427	0.0122
673.6267	0.0154
673.8107	0.0141
673.9947	0.0091
674.1787	0.008
674.3626	-0.0087
674.5465	0.0095
674.7304	0.0046
674.9143	0.0086
675.0982	0.0137
675.2821	0.0084
675.4659	0.0118
675.6497	0.0065
675.8335	0.0058
676.0173	0.0097
676.2011	0.0068
676.3849	0.001
676.5686	-0.0064
676.7523	0.0027
676.936	0.0075
677.1197	-0.0054
677.3034	-0.0053
677.487	0.0028
677.6706	0.0077
677.8542	0.0094
678.0378	0.0031
678.2214	-0.0032
678.405	0.0056
678.5885	-0.008
678.772	0.0077
678.9555	-0.0014
679.139	0.0002
679.3225	0.0087
679.5059	0.0022
679.6894	0.0095
679.8728	0.0037
680.0562	-0.0044
680.2395	0.0023
680.4229	0.0069
680.6062	0.004
680.7896	0.0054
680.9729	-0.002
681.1562	0.0124
681.3394	0.0009
681.5227	-0.0023
681.7059	0.0007
681.8891	-0.0021
682.0723	0.0119
682.2555	0.0097
682.4387	0.0054
682.6218	-0.0009
682.805	0.0125
682.9881	0.005
683.1712	-0.0003
683.3542	-0.0003
683.5373	0.0094
683.7203	-0.002
683.9034	0.0032
684.0864	-0
684.2694	0.0003
684.4523	0.0109
684.6353	-0.0037
684.8182	0.0049
685.0011	-0.0022
685.184	0.0073
685.3669	0.0086
685.5498	0.0045
685.7326	0.0034
685.9154	-0.0055
686.0982	0.0046
686.281	0.0062
686.4638	0.0051
686.6465	0.0056
686.8293	-0.0009
687.012	0.0026
687.1947	-0.0072
687.3774	0.0072
687.56	-0.0032
687.7427	0.0128
687.9253	0.0018
688.1079	0.0048
688.2905	0.0101
688.4731	0.0035
688.6556	0.0104
688.8382	0.0055
689.0207	0.0027
689.2032	-0.0064
689.3857	-0.0031
689.5681	0.0022
689.7506	-0.0088
689.933	-0.0023
690.1154	0.0033
690.2978	-0.0019
690.4802	-0.0029
690.6626	-0.0082
690.8449	0.0007
691.0272	0.0024
691.2095	-0.0079
691.3918	-0.006
691.5741	0.0014
691.7563	-0.0021
691.9386	0.008
692.1208	0.0057
692.303	0.0054
692.4852	-0.0028
692.6673	0.0094
692.8495	-0.0012
693.0316	0.009
693.2137	0.0036
693.3958	0.0087
693.5778	0.0009
693.7599	0.0045
693.9419	0.0057
694.1239	0.0049
694.3059	0.0013
694.4879	0.0109
694.6699	0.0144
694.8518	0.0048
695.0337	0.0026
695.2157	0.0035
695.3975	0.0112
695.5794	0.0117
695.7613	0.0129
695.9431	0.0027
696.1249	0.0127
696.3067	0.0088
696.4885	0.0096
696.6703	0.0014
696.852	0.0082
697.0337	0.0047
697.2154	0.0055
697.3971	-0.0011
697.5788	0.0068
697.7605	0.0002
697.9421	0.0057
698.1237	0.0091
698.3053	0.0105
698.4869	0.009
698.6685	0.004
698.85	0.0102
699.0315	0.0055
699.213	0.0037
699.3945	-0.0016
699.576	0.014
699.7575	0.0104
699.9389	0.0106
700.1203	0.0035
700.3017	-0.0053
700.4831	-0.001
700.6645	-0.0019
700.8458	0.0142
701.0271	0.0028
701.2084	0.0133
701.3897	0.0041
701.571	0.0077
701.7523	0.0028
701.9335	0.007
702.1147	0.0084
702.2959	0.0016
702.4771	0.0026
702.6583	0.0027
702.8394	0.0004
703.0205	0.0051
703.2016	0.0009
703.3827	0.0059
703.5638	0.0078
703.7449	0.0073
703.9259	0.0095
704.1069	0.0016
704.2879	0.0072
704.4689	0.0133
704.6499	0.0046
704.8308	0
705.0117	0.0006
705.1927	0.0076
705.3735	0.0059
705.5544	0.0018
705.7353	-0.0004
705.9161	0.001
706.0969	-0.003
706.2777	0.0046
706.4585	-0.0005
706.6393	0.0032
706.82	-0.0055
707.0007	-0.0029
707.1815	0.0007
707.3621	0.0044
707.5428	0.0021
707.7235	0.0047
707.9041	0.0069
708.0847	-0.0128
708.2653	-0.0028
708.4459	-0.0066
708.6265	0.0005
708.807	-0.0027
708.9875	0.0028
709.168	-0.0059
709.3485	-0.0046
709.529	-0.0071
709.7095	-0.015
709.8899	-0.0073
710.0703	-0.0095
710.2507	0.005
710.4311	0.0017
710.6115	-0.0068
710.7918	0.0021
710.9721	0.0033
711.1524	-0.0062
711.3327	0.0005
711.513	0.0034
711.6932	0.0044
711.8735	0.013
712.0537	0.0009
712.2339	0.0035
712.4141	0.0001
712.5942	-0.0019
712.7744	-0.0016
712.9545	-0.0098
713.1346	-0.0093
713.3147	0.0004
713.4947	0.0023
713.6748	-0.0024
713.8548	-0.0046
714.0348	0.0021
714.2148	-0.0075
714.3948	0.0136
714.5748	-0.0028
714.7547	0.0039
714.9346	0.0137
715.1145	-0.0037
715.2944	0.0041
715.4743	0.0095
715.6541	-0.0033
715.834	0.0127
716.0138	-0.0055
716.1936	-0.0105
716.3733	-0.0025
716.5531	0.0047
716.7328	-0.0036
716.9126	-0.006
717.0923	0.0031
717.2719	-0.0001
717.4516	-0.0014
717.6312	0.0047
717.8109	-0.0043
717.9905	0.0056
718.1701	-0.0031
718.3496	-0.0063
718.5292	-0.0026
718.7087	-0.0042
718.8882	0.0081
719.0677	0.0047
719.2472	0.0026
719.4267	0.0027
719.6061	0.0034
719.7856	0.01
719.965	0.0076
720.1443	-0.0035
720.3237	0.0153
720.5031	0.0003
720.6824	0.0036
720.8617	0.0029
721.041	-0.0037
721.2203	0.0042
721.3995	-0.0008
721.5788	0.0074
721.758	0.0036
721.9372	0.0095
722.1164	0.0094
722.2956	0.0068
722.4747	0.0024
722.6538	-0.0026
722.8329	0.0109
723.012	0.0072
723.1911	0.0042
723.3702	-0.0008
723.5492	-0.0022
723.7282	0.0005
723.9072	0.0015
724.0862	-0.0001
724.2652	-0.0033
724.4441	0.0071
724.623	-0.0008
724.8019	-0.0022
724.9808	-0.0039
725.1597	-0.0073
725.3385	0.0018
725.5174	0.0016
725.6962	0.007
725.875	0.0029
726.0538	0.0147
726.2325	-0.0045
726.4112	0.0063
726.59	-0.0063
726.7687	0.0001
726.9474	0.0041
727.126	0.0016
727.3047	0.0008
727.4833	0.0057
727.6619	-0.0013
727.8405	-0.0003
728.0191	-0.0076
728.1976	0.0043
728.3762	0.0019
728.5547	-0.0039
728.7332	-0.0112
728.9116	0.0059
729.0901	0.009
729.2686	-0.0066
729.447	-0.0002
729.6254	-0.0035
729.8038	0.0025
729.9821	-0.0056
730.1605	0.0102
730.3388	0.0119
730.5171	0.0115
730.6954	0.0018
730.8737	0.008
731.0519	0.0202
731.2302	0.0076
731.4084	0.0112
731.5866	0.0133
731.7648	-0.0018
731.9429	0.0112
732.1211	-0.0007
732.2992	0.0009
732.4773	0.0013
732.6554	0.0009
732.8335	0.0001
733.0115	0.0049
733.1896	0.007
733.3676	-0.0056
733.5456	0.0063
733.7235	0.0063
733.9015	0.0017
734.0794	0.0046
734.2574	0.0004
734.4353	0.008
734.6131	0.0025
734.791	0.0123
734.9689	0.0044
735.1467	0.0106
735.3245	-0.0007
735.5023	-0.006
735.68	-0.0021
735.8578	0.0069
736.0355	-0.0202
736.2132	0.0001
736.3909	0.0018
736.5686	-0.0057
736.7463	0.0103
736.9239	-0.0021
737.1015	-0.0015
737.2791	0.0125
737.4567	0.003
737.6343	0.0028
737.8118	0.0134
737.9894	0.0039
738.1669	-0.0054
738.3444	-0.0037
738.5218	0.0118
738.6993	-0.0103
738.8767	-0.0018
739.0541	0.0204
739.2315	0.0004
739.4089	0.0079
739.5863	0.0066
739.7636	-0.0036
739.9409	-0.0001
740.1182	0.014
740.2955	0.0023
740.4728	-0.0019
740.65	-0.0049
740.8272	-0.0042
741.0044	-0.0012
741.1816	0.0023
741.3588	-0.0003
741.5359	0.0047
741.7131	0.0019
741.8902	-0.0007
742.0673	-0.0006
742.2444	0.0018
742.4214	-0.0005
742.5985	0.0002
742.7755	-0.0035
742.9525	-0.0109
743.1295	-0.0014
743.3064	0.0126
743.4834	0.0133
743.6603	0.0085
743.8372	0.0033
744.0141	0.0084
744.191	0.0079
744.3678	0.0103
744.5446	0.0159
744.7215	0.0131
744.8982	0.0097
745.075	-0.0015
745.2518	0.0103
745.4285	0.006
745.6052	-0.0004
745.7819	0.0027
745.9586	-0.0057
746.1353	0.0031
746.3119	0.0041
746.4885	-0.0021
746.6651	-0.0001
746.8417	0.0026
747.0183	-0.0015
747.1948	0.0022
747.3714	0.0063
747.5479	0.0063
747.7244	-0.0018
747.9008	0.0103
748.0773	-0.0064
748.2537	0.008
748.4301	-0.0059
748.6065	0.0032
748.7829	0.0084
748.9593	-0.0022
749.1356	-0.0003
749.3119	0.0122
749.4882	-0.0105
749.6645	0.0037
749.8408	-0.011
750.017	-0.0072
750.1933	0.0004
750.3695	-0.0088
750.5457	0.0028
750.7218	0.0042
750.898	0.005
751.0741	0.005
751.2502	0.0047
751.4263	0.004
751.6024	0.0029
751.7784	0.0036
751.9545	-0.0062
752.1305	0.003
752.3065	-0.0074
752.4825	0.0042
752.6584	-0.0069
752.8344	-0.0077
753.0103	-0.0021
753.1862	-0.0079
753.3621	0.0001
753.5379	0.0019
753.7138	-0.0003
753.8896	0.0078
754.0654	-0.0005
754.2412	0.0118
754.417	0.0146
754.5927	0.0003
754.7685	-0.0065
754.9442	0.0061
755.1199	0.0126
755.2956	-0.0053
755.4712	0.0062
755.6469	0.0106
755.8225	0.0005
755.9981	-0.003
756.1736	0.0106
756.3492	0.0129
756.5248	0.0004
756.7003	0.0002
756.8758	0.0095
757.0513	-0.0118
757.2267	-0.0006
757.4022	0.0146
757.5776	-0.0013
757.753	0.0087
757.9284	0.0057
758.1038	0.0221
758.2791	0.0141
758.4545	-0.0033
758.6298	0.0101
758.8051	0.0038
758.9803	-0.0043
759.1556	0.0013
759.3308	0.0008
759.506	0.015
759.6812	0.0038
759.8564	0.0144
760.0316	0.0008
760.2067	0.0073
760.3819	0.0086
760.557	0.0161
760.732	0.0099
760.9071	-0.0017
761.0821	0.0123
761.2572	0.0196
761.4322	0.0069
761.6072	0.0068
761.7821	0.004
761.9571	0.0141
762.132	-0.0029
762.3069	0.002
762.4818	0.0059
762.6567	0.0015
762.8316	0.0033
763.0064	0.0052
763.1812	0.0022
763.356	-0.0076
763.5308	0.0045
763.7055	-0.0014
763.8803	-0.0073
764.055	0.0029
764.2297	-0.0089
764.4044	-0.0065
764.579	-0.003
764.7537	-0.0094
764.9283	0.0038
765.1029	-0.0077
765.2775	-0.0022
765.4521	-0.0012
765.6266	-0.0015
765.8011	-0.0045
765.9756	0.0037
766.1501	0.0176
766.3246	-0.0027
766.4991	0.0019
766.6735	0.0119
766.8479	-0.0044
767.0223	0.0203
767.1967	0.012
767.371	0.0141
767.5454	0.0088
767.7197	0.0036
767.894	0.0049
768.0683	0.0064
768.2425	0.0066
768.4168	0.0098
768.591	0.0036
768.7652	0.0094
768.9394	0.0076
769.1135	0.0058
769.2877	0.0095
769.4618	0.0113
769.6359	0.0062
769.81	0.0042
769.984	0.0015
770.1581	-0.0069
770.3321	-0.0023
770.5061	-0.0054
770.6801	-0.005
770.8541	0.0005
771.028	0.0022
771.202	-0.0026
771.3759	0.0078
771.5498	-0.01
771.7236	0.0012
771.8975	0.0051
772.0713	0.0091
772.2451	0.0091
772.4189	0.0086
772.5927	-0.0045
772.7665	0.0018
772.9402	-0.0076
773.1139	0.0009
773.2876	-0.0109
773.4613	0.003
773.635	0.012
773.8086	-0.0006
773.9822	-0.0045
774.1558	0.0161
774.3294	-0.0018
774.503	0.0044
774.6765	0.0075
774.8501	0.0032
775.0236	0.0012
775.1971	0.013
775.3705	-0.0055
775.544	0.0158
775.7174	-0.0048
775.8908	-0.0037
776.0642	-0.005
776.2376	-0.0025
776.4109	0.0015
776.5843	0.0025
776.7576	0.0094
776.9309	0.0032
777.1041	0.0177
777.2774	0.018
777.4506	-0.0019
777.6238	-0.0049
777.797	-0.0012
777.9702	0.0064
778.1434	-0.0035
778.3165	-0.0212
778.4896	-0.0003
778.6627	0.0142
778.8358	0.0054
779.0089	-0.0086
779.1819	-0.0039
779.3549	0.0185
779.5279	-0.0035
779.7009	0.0115
779.8739	-0.0032
780.0468	0.0025
780.2197	-0.0002
780.3926	0.0048
780.5655	-0.0012
780.7384	0.0013
780.9112	0.0084
781.0841	-0.0036
781.2569	0.0058
781.4297	0.0146
781.6024	0.0091
781.7752	0.0141
781.9479	0.0073
782.1206	0.0105
782.2933	0.0014
782.466	0.0039
782.6386	0.0044
782.8113	0.0049
782.9839	0.0056
783.1565	0.0079
783.329	0.0015
783.5016	-0.001
783.6741	0.0069
783.8466	-0.0129
784.0191	0.0147
784.1916	-0.0099
784.3641	-0.0066
784.5365	0.0094
784.7089	-0.0078
784.8813	-0.0036
785.0537	0.0015
785.2261	-0.0036
785.3984	-0.0046
785.5707	-0.0194
785.743	0.0058
785.9153	-0.001
786.0876	0.0021
786.2598	0.0084
786.432	-0.0155
786.6042	0.0035
786.7764	-0.0013
786.9486	-0.0004
787.1207	-0.009
787.2928	0.0057
787.4649	0.0027
787.637	0.0154
787.8091	0.003
787.9811	-0.0017
788.1532	-0.0039
788.3252	0.0037
788.4972	-0.0025
788.6691	0.0019
788.8411	0.0062
789.013	-0.0172
789.1849	0.0019
789.3568	0.0029
789.5287	0.0141
789.7005	0.0044
789.8723	0.0144
790.0442	0.0186
790.2159	-0.0009
790.3877	0.0067
790.5595	0.0051
790.7312	-0.0027
790.9029	0.0016
791.0746	-0.0029
791.2463	-0.0058
791.4179	-0.012
791.5896	-0.0152
791.7612	-0.0001
791.9328	0.0005
792.1044	-0.0098
792.2759	-0.0063
792.4474	-0.0115
792.619	0.0084
792.7905	0.0025
792.9619	0.0052
793.1334	0.0046
793.3048	0.0209
793.4762	0.0111
793.6476	0.0069
793.819	0.0051
793.9904	0.0124
794.1617	-0.0242
794.333	-0.0056
794.5043	-0.0107
794.6756	-0.0009
794.8469	-0.0095
795.0181	-0.009
795.1893	-0.0049
795.3605	0.0105
795.5317	-0.0105
795.7029	-0.0049
795.874	-0.0037
796.0452	-0.0111
796.2163	0.0042
796.3873	0.0104
796.5584	0.0147
796.7294	-0.0037
796.9005	0.0037
797.0715	0.0025
797.2425	-0.0133
797.4134	0.0031
797.5844	-0.0003
797.7553	-0.0131
797.9262	-0.0042
798.0971	-0.0059
798.2679	-0.0065
798.4388	-0.0009
798.6096	-0.0081
798.7804	0.0084
798.9512	-0.0103
799.122	0.0029
799.2927	0.0154
799.4635	0.0124
799.6342	-0.0136
799.8049	0.0063
799.9755	-0.0072
800.1462	0.01
800.3168	0.0188
800.4874	0.0037
800.658	0.0153
800.8286	0.0135
800.9991	0.014
801.1696	0.0095
801.3402	0.0245
801.5106	-0.011
801.6811	0.006
801.8516	0.0136
802.022	0.0091
802.1924	0.0046
802.3628	0.0206
802.5332	0.0089
802.7035	0.0173
802.8739	0.0043
803.0442	-0.0023
803.2145	0.0257
803.3847	-0.0251
803.555	0.0037
803.7252	0.0022
803.8954	-0.0214
804.0656	-0.0015
804.2358	-0.0069
804.4059	0.0079
804.5761	0.0028
804.7462	0.0036
804.9163	-0.009
805.0864	-0.0089
805.2564	0.0023
805.4264	-0.003
805.5965	-0.0171
805.7665	-0.0023
805.9364	0.0118
806.1064	0.0208
806.2763	-0.0111
806.4462	0.01
806.6161	-0.0233
806.786	0.0151
806.9559	0.0205
807.1257	0.0054
807.2955	-0.0053
807.4653	-0.0016
807.6351	-0.0185
807.8048	0.0033
807.9746	0.012
808.1443	0.0046
808.314	0.0088
808.4837	0.0105
808.6533	0.0133
808.8229	0.0339
808.9926	0.0045
809.1622	0.0049
809.3317	0.0055
809.5013	0.0068
809.6708	0.0246
809.8403	0.0083
810.0098	0
810.1793	0.0126
810.3488	-0.0015
810.5182	-0.0242
810.6876	0.0279
810.857	-0.0141
811.0264	0.0233
811.1958	-0.0078
811.3651	0.0093
811.5344	0.0027
811.7037	-0.0262
811.873	0.0088
812.0422	-0.0026
812.2115	0.0028
812.3807	-0.0115
812.5499	0.0036
812.7191	0.0148
812.8882	-0.0064
813.0574	0.0195
813.2265	0.0014
813.3956	0.0006
813.5646	0.0025
813.7337	-0.0077
813.9027	0.013
814.0718	0.0236
814.2407	0.0052
814.4097	-0.0099
814.5787	-0.0148
814.7476	0.0078
814.9165	0.0182
815.0854	-0.0044
815.2543	0.0207
815.4232	-0.0136
815.592	0.0009
815.7608	0.0108
815.9296	0.0196
816.0984	0.0226
816.2671	0.016
816.4359	0.0001
816.6046	-0.0098
816.7733	0.0093
816.942	0.0035
817.1106	0.0163
817.2793	0.0147
817.4479	0.0031
817.6165	0.0185
817.785	0.0155
817.9536	-0.0006
818.1221	0.003
818.2906	0.0154
818.4591	0.0093
818.6276	0.011
818.7961	0.001
818.9645	0.0306
819.1329	0.0268
819.3013	0.0076
819.4697	0.0338
819.638	0.0059
819.8064	0.0118
819.9747	0.0352
820.143	0.0011
820.3113	-0.0291
820.4795	0.0204
820.6477	0.0116
820.816	0.0212
820.9842	0.0103
821.1523	0.0099
821.3205	-0.0084
821.4886	-0.0021
821.6567	0.0146
821.8248	0.022
821.9929	0.0297
822.1609	-0.0007
822.329	0.0393
822.497	0.0239
822.665	-0.0151
822.833	-0.0159
823.0009	0.0204
823.1688	0.0134
823.3367	0.0465
823.5046	0.0188
823.6725	0.0177
823.8404	0.0104
824.0082	0.0246
824.176	0.0202
824.3438	0.0163
824.5116	-0.014
824.6793	0.0311
824.847	0.0127
825.0147	-0.0163
825.1824	0.0194
825.3501	0.0282
825.5177	-0.0165
825.6854	-0.0055
825.853	0.0094
826.0206	-0.0078
826.1881	0.0262
826.3557	-0.0243
826.5232	0.032
826.6907	-0.0257
826.8582	-0.0008
827.0257	-0.0158
827.1931	0.0162
827.3605	-0.0132
827.528	-0.0032
827.6953	-0.0128
827.8627	0.0015
828.03	0.0248
828.1974	0.0072
828.3647	-0.037
828.532	-0.022
828.6992	0.0036
828.8665	0.0083
829.0337	-0.0143
829.2009	0.0169
829.3681	-0.0045
829.5352	0.0762
829.7024	-0.0255
829.8695	-0.0196
830.0366	0.0372
830.2037	-0.0198
830.3707	0.0203
830.5378	0.0071
830.7048	0.01
830.8718	0.0034
831.0388	-0.0266
831.2057	0.0219
831.3727	0.0001
831.5396	0.0064
831.7065	-0.0325
831.8734	0.0055
832.0402	-0.0342
832.2071	0.0329
832.3739	-0.0023
832.5407	0.0049
832.7075	-0.0152
832.8742	-0.0191
833.041	-0.032
833.2077	-0.0023
833.3744	0.0269
833.541	-0.0124
833.7077	0.018
833.8743	0.0021
834.0409	-0.0096
834.2075	0.0236
834.3741	-0.0132
834.5407	0.0091
834.7072	0.0229
834.8737	-0.0193
835.0402	-0.0144
835.2067	0.0134
835.3731	0.0454
835.5395	0.0445
835.706	0.0008
835.8723	-0.0161
836.0387	0.0382
836.2051	-0.0136
836.3714	0.0276
836.5377	0.059
836.704	0.0251
836.8703	-0.0143
837.0365	0.0529
837.2027	-0.0256
837.3689	0.0352
837.5351	0.01
837.7013	-0.0318
837.8674	-0.0494
838.0335	-0.0092
838.1997	-0.0327
838.3657	-0.0263
838.5318	-0.0142
838.6978	0.0521
838.8639	0.0152
839.0299	0.0351
839.1958	0.0001
839.3618	0.0071
839.5277	0.0105
839.6937	0.0309
839.8596	-0.0388
840.0254	0.04
840.1913	0.0435
840.3571	0.0054
840.523	-0.0116
840.6888	0.0193
840.8545	-0.0376
841.0203	0.0376
841.186	0.0257
841.3517	0.0203
841.5174	-0.027
841.6831	0.0058
841.8488	0.0065
842.0144	0.0236
842.18	-0.006
842.3456	0.0583
842.5112	0.0285
842.6767	0.0192
842.8422	-0.0125
843.0077	-0.0277
843.1732	-0.0192
843.3387	-0.0305
843.5042	-0.0237
843.6696	-0.007
843.835	-0.043
844.0004	0.0528
844.1657	0.0062
844.3311	-0.0176
844.4964	-0.0688
844.6617	-0.0854
844.827	-0.0408
844.9923	-0.0188
845.1575	0.0014
845.3227	0.0351
845.4879	0.0464
845.6531	-0.0395
845.8183	-0.0389
845.9834	0.0869
846.1485	-0.0127
846.3136	-0.0269
846.4787	-0.0869
846.6438	0.0799
846.8088	-0.0472
846.9738	-0.0439
847.1388	0.0249
847.3038	-0.0809
847.4687	-0.1583
847.6337	0.0467
847.7986	0.011
847.9635	-0.0056
848.1284	0.0169
848.2932	0.0441
848.458	-0.0014
848.6228	0.0858
848.7876	-0.0054
848.9524	-0.0607
849.1172	-0.1022
849.2819	-0.0135
849.4466	-0.0527
849.6113	-0.041
849.7759	-0.0249
849.9406	-0.0014
850.1052	0.0145
850.2698	-0.0091
850.4344	0.0043
850.599	-0.0603
850.7635	0.1409
850.928	-0.06
851.0925	0.0281
851.257	0.0798
851.4215	0.0849
851.5859	-0.0609
851.7503	0.0629
851.9147	0.0435
852.0791	-0.0679
852.2434	-0.036
852.4078	0.1154
852.5721	0.0876
852.7364	-0.1106
852.9007	-0.2488
853.0649	-0.0444
853.2291	-0.0513
853.3934	-0.0698
853.5575	0.1121
853.7217	-0.109
853.8859	-0.0154
854.05	0.0363
854.2141	-0.0273
854.3782	-0.0244
854.5423	-0.1498
854.7063	0.1651
854.8703	0.0502
855.0343	-0.0691
855.1983	-0.2184
855.3623	0.0099
855.5262	0.0005
855.6901	-0.0651
855.854	0.0771
856.0179	0.0278
856.1818	0.2986
856.3456	-0.0062
856.5094	-0.037
856.6732	-0.1984
856.837	-0.0912
857.0008	0.0641
857.1645	-0.0202
857.3282	-0.222
857.4919	0.2256
857.6556	-0.0604
857.8192	0.0492
857.9828	-0.0453
858.1465	0.1709
858.31	-0.1214
858.4736	-0.062
858.6372	-0.1873
858.8007	-0.165
858.9642	0.0491
859.1277	0.0251
859.2911	0.2663
859.4546	0.0785
859.618	-0.2995
859.7814	-0.0411
859.9448	0.0764
860.1081	-0.063
860.2715	0.064
860.4348	0.2757
860.5981	-0.1358
860.7614	0.1845
860.9246	-0.1138
861.0879	-0.2912
861.2511	-0.0146
861.4143	-0.1015
861.5774	0.0862
861.7406	-0.0523
861.9037	-0.0188
862.0668	0.2577
862.2299	0.1261
862.393	-0.5894
862.556	0.0427
862.7191	-0.1111
862.8821	-0.1617
863.0451	0.0293
863.208	0.0539
863.371	0.0684
863.5339	-0.1742
863.6968	0.146
863.8597	0.1046
864.0225	-0.0752
864.1854	-0.0248
864.3482	-0.1138
864.511	0.3943
864.6737	0.4782
864.8365	0.2462
864.9992	-0.5057
865.1619	-0.2838
865.3246	-0.0645
865.4873	0.088
865.65	0.6046
865.8126	0.1396
865.9752	0.3725
866.1378	0.2361
866.3004	-0
866.4629	0.1166
866.6254	0.1095
866.7879	-0.0079
866.9504	-0.2424
867.1129	-0.8699
867.2753	0.2495
867.4377	0.7263
867.6001	-0.2287
867.7625	0.2373
867.9249	-0
868.0872	-0.0989
868.2495	0.367
868.4118	0.1073
868.5741	-0.2766
868.7363	0.3509
868.8986	-0.4397
869.0608	0.0535
869.223	0.2591
869.3851	0.6961
869.5473	0.436
869.7094	0.7312
869.8715	0.2401
870.0336	-0.0248
870.1957	-0.373
870.3577	-1.1681
870.5197	0.3025
870.6817	0.0704
870.8437	-0.0945
871.0057	-0.5563
871.1676	-0
871.3295	-0.4483
871.4914	-0.0939
871.6533	-0.5475
871.8151	0.0325
871.977	-0
872.1388	-0
872.3006	-0
872.4623	-0.4632
872.6241	0.0462
872.7858	-0
872.9475	0.1228
873.1092	-0.0974
873.2709	0.0273
873.4325	0.2037
873.5941	-0.5203
873.7557	-0
873.9173	-0.5532
874.0789	0.2698
874.2404	-0
874.4019	-0.0405
874.5634	0.0565
874.7249	-0.1524
874.8863	0.5137
875.0478	0.3142
875.2092	-0
875.3706	-0
875.5319	-0.6847
875.6933	-0
875.8546	-0.4076
876.0159	-0.2937
876.1772	-0
876.3385	-0.0105
876.4997	0.4543
876.6609	0.8275
876.8221	-0.8286
876.9833	0.7092
877.1445	0.4214
877.3056	0.1319
877.4667	0.6326
877.6278	-0.1801
877.7889	0.3602
877.9499	-0
878.111	-0
878.272	-0.2139
878.433	-0
878.5939	-0
878.7549	0.1269
878.9158	-0.667
879.0767	-0
879.2376	-0
879.3984	-0.1929
879.5593	-0
879.7201	-0
879.8809	-0.373
880.0417	-0
880.2024	-0
880.3632	-0
880.5239	-0
880.6846	-0
880.8452	-2.5024
881.0059	-1.7324
881.1665	-0.2016
881.3271	-0.2691
881.4877	-0.2481
881.6483	-0
881.8088	-0.3276
881.9693	-0
882.1298	-0
882.2903	-0
