Data from MonoPyChalIsomerACN10uM440nmA_Absorbance_15-27-10-894.txt Node
Date: Fri Jul 05 15:27:10 BST 2024
User: LASERRRRR
Spectrometer: FLMT03099
Trigger mode: 0
Integration Time (sec): 1.000000E-1
Scans to average: 1
Electric dark correction enabled: true
Nonlinearity correction enabled: false
Boxcar width: 0
XAxis mode: Wavelengths
Number of Pixels in Spectrum: 3648
>>>>>Begin Spectral Data<<<<<
179.3399	-0.0042
179.5586	-0.0042
179.7771	-0.0042
179.9957	0.0111
180.2143	-0
180.4329	-0.2216
180.6514	0.7053
180.8699	0.0829
181.0885	-0.0704
181.307	0.7174
181.5255	-1.0424
181.744	-0.9294
181.9625	-0
182.181	-0
182.3994	-0
182.6179	-0
182.8363	0.5711
183.0547	0.1444
183.2732	-0.0263
183.4916	0.0681
183.71	0.0686
183.9284	0.0717
184.1467	-0.0824
184.3651	0.0012
184.5835	0.0914
184.8018	-0.0369
185.0201	0.2105
185.2385	0.1247
185.4568	0.1943
185.6751	0.1866
185.8934	0.6077
186.1117	0.0162
186.3299	0.2193
186.5482	0.0102
186.7664	-0.1227
186.9847	-0.0034
187.2029	-0.0024
187.4211	-0.0209
187.6393	0.2721
187.8575	0.052
188.0757	0.2325
188.2939	-0.0329
188.512	-0.1231
188.7302	-0.1117
188.9483	0.1812
189.1665	0.1709
189.3846	-0.1188
189.6027	0.076
189.8208	0.1971
190.0389	0.2198
190.257	0.2015
190.475	0.5423
190.6931	0.2531
190.9111	0.351
191.1292	0.231
191.3472	0.3097
191.5652	0.2998
191.7832	0.2519
192.0012	0.6533
192.2192	0.4336
192.4371	0.4947
192.6551	0.2935
192.873	0.3498
193.091	0.3943
193.3089	0.5091
193.5268	0.613
193.7447	0.6077
193.9626	0.4624
194.1805	1.0502
194.3984	0.4764
194.6162	0.5701
194.8341	0.5428
195.0519	0.583
195.2697	0.6997
195.4875	0.6545
195.7054	0.7874
195.9231	0.524
196.1409	0.6115
196.3587	0.6631
196.5765	0.5918
196.7942	0.717
197.012	0.473
197.2297	0.645
197.4474	0.7809
197.6651	0.4775
197.8828	0.5486
198.1005	0.5164
198.3182	0.7301
198.5358	0.8079
198.7535	0.597
198.9711	0.6622
199.1888	0.8286
199.4064	0.8427
199.624	0.6874
199.8416	0.6874
200.0592	0.6387
200.2767	0.5798
200.4943	0.6331
200.7119	1.0466
200.9294	0.6297
201.1469	0.5788
201.3645	0.529
201.582	0.4928
201.7995	0.6496
202.017	0.598
202.2344	0.5586
202.4519	0.7056
202.6694	0.5861
202.8868	0.7031
203.1042	0.6834
203.3217	0.5712
203.5391	0.6889
203.7565	0.6418
203.9739	0.5738
204.1913	0.5661
204.4086	0.8231
204.626	0.7049
204.8433	0.6408
205.0607	0.6163
205.278	0.6819
205.4953	0.6595
205.7126	0.7299
205.9299	0.7147
206.1472	0.7383
206.3644	0.6893
206.5817	0.7581
206.7989	0.6937
207.0162	0.6623
207.2334	0.724
207.4506	0.6701
207.6678	0.6764
207.885	0.5974
208.1022	0.7169
208.3194	0.6632
208.5365	0.6726
208.7537	0.6355
208.9708	0.6245
209.1879	0.5737
209.405	0.6665
209.6222	0.6555
209.8392	0.6395
210.0563	0.6044
210.2734	0.5908
210.4905	0.6379
210.7075	0.6618
210.9245	0.6322
211.1416	0.6797
211.3586	0.6664
211.5756	0.5722
211.7926	0.6234
212.0096	0.5386
212.2265	0.6343
212.4435	0.5961
212.6604	0.5914
212.8774	0.6045
213.0943	0.5924
213.3112	0.534
213.5281	0.5128
213.745	0.5141
213.9619	0.5372
214.1788	0.5084
214.3956	0.4382
214.6125	0.4649
214.8293	0.4674
215.0461	0.5119
215.2629	0.4804
215.4798	0.4607
215.6965	0.4081
215.9133	0.4498
216.1301	0.3998
216.3469	0.4607
216.5636	0.4439
216.7803	0.4141
216.9971	0.4084
217.2138	0.3946
217.4305	0.3954
217.6472	0.3623
217.8639	0.3896
218.0805	0.3164
218.2972	0.3403
218.5138	0.3403
218.7305	0.2918
218.9471	0.322
219.1637	0.2942
219.3803	0.2774
219.5969	0.3058
219.8135	0.2683
220.0301	0.2587
220.2466	0.2773
220.4632	0.2653
220.6797	0.2594
220.8962	0.2248
221.1127	0.2477
221.3292	0.2303
221.5457	0.2303
221.7622	0.2222
221.9787	0.24
222.1951	0.2393
222.4116	0.27
222.628	0.2361
222.8444	0.2695
223.0608	0.2604
223.2772	0.2504
223.4936	0.2872
223.71	0.2347
223.9264	0.2854
224.1427	0.2467
224.3591	0.229
224.5754	0.2777
224.7917	0.2741
225.008	0.276
225.2243	0.2506
225.4406	0.2619
225.6569	0.2611
225.8732	0.2572
226.0894	0.2429
226.3057	0.279
226.5219	0.3039
226.7381	0.2565
226.9543	0.2819
227.1705	0.287
227.3867	0.2702
227.6029	0.2982
227.8191	0.2853
228.0352	0.2955
228.2513	0.314
228.4675	0.3187
228.6836	0.2949
228.8997	0.3045
229.1158	0.3079
229.3319	0.3106
229.548	0.3094
229.764	0.2976
229.9801	0.3313
230.1961	0.3324
230.4121	0.3226
230.6282	0.3388
230.8442	0.3179
231.0602	0.3555
231.2761	0.3381
231.4921	0.3192
231.7081	0.3537
231.924	0.3397
232.14	0.3601
232.3559	0.3298
232.5718	0.3673
232.7877	0.362
233.0036	0.3532
233.2195	0.3444
233.4353	0.3342
233.6512	0.3652
233.867	0.3659
234.0829	0.3576
234.2987	0.3889
234.5145	0.3672
234.7303	0.3675
234.9461	0.3792
235.1619	0.3816
235.3776	0.3617
235.5934	0.3808
235.8091	0.3773
236.0249	0.3621
236.2406	0.3825
236.4563	0.3699
236.672	0.4148
236.8877	0.3732
237.1034	0.4071
237.319	0.3942
237.5347	0.3904
237.7503	0.4058
237.966	0.3934
238.1816	0.401
238.3972	0.4056
238.6128	0.4005
238.8284	0.4198
239.0439	0.3961
239.2595	0.3913
239.475	0.4077
239.6906	0.4009
239.9061	0.3849
240.1216	0.4115
240.3371	0.3984
240.5526	0.3953
240.7681	0.4109
240.9836	0.3899
241.199	0.3983
241.4145	0.3899
241.6299	0.3689
241.8453	0.3526
242.0607	0.3807
242.2761	0.3482
242.4915	0.3864
242.7069	0.3528
242.9223	0.3349
243.1376	0.3418
243.353	0.3464
243.5683	0.3473
243.7836	0.3069
243.9989	0.328
244.2142	0.2867
244.4295	0.3281
244.6448	0.3043
244.86	0.2815
245.0753	0.2803
245.2905	0.2695
245.5057	0.2686
245.721	0.2695
245.9362	0.2489
246.1514	0.2772
246.3665	0.2441
246.5817	0.2474
246.7969	0.2404
247.012	0.2265
247.2271	0.2314
247.4423	0.2268
247.6574	0.2371
247.8725	0.2215
248.0876	0.2084
248.3026	0.2159
248.5177	0.2064
248.7328	0.2165
248.9478	0.1803
249.1628	0.2003
249.3779	0.2104
249.5929	0.1946
249.8079	0.1965
250.0228	0.1942
250.2378	0.1923
250.4528	0.2156
250.6677	0.1757
250.8827	0.1865
251.0976	0.1899
251.3125	0.1886
251.5274	0.174
251.7423	0.164
251.9572	0.1753
252.172	0.1728
252.3869	0.1859
252.6017	0.1736
252.8166	0.1583
253.0314	0.1664
253.2462	0.1672
253.461	0.1702
253.6758	0.1593
253.8906	0.1722
254.1053	0.158
254.3201	0.1629
254.5348	0.1632
254.7496	0.1753
254.9643	0.1663
255.179	0.1677
255.3937	0.1697
255.6083	0.1688
255.823	0.1728
256.0377	0.1487
256.2523	0.1655
256.467	0.1569
256.6816	0.1702
256.8962	0.1647
257.1108	0.1649
257.3254	0.1792
257.54	0.1621
257.7545	0.1575
257.9691	0.165
258.1836	0.165
258.3981	0.1753
258.6127	0.1773
258.8272	0.1605
259.0417	0.1617
259.2561	0.1592
259.4706	0.1554
259.6851	0.1713
259.8995	0.1579
260.114	0.1645
260.3284	0.1502
260.5428	0.1481
260.7572	0.1742
260.9716	0.1704
261.186	0.1638
261.4003	0.1537
261.6147	0.1596
261.829	0.1564
262.0433	0.1597
262.2577	0.1534
262.472	0.1583
262.6863	0.162
262.9005	0.1728
263.1148	0.1553
263.3291	0.1421
263.5433	0.151
263.7576	0.1611
263.9718	0.1655
264.186	0.1633
264.4002	0.1622
264.6144	0.1596
264.8286	0.1659
265.0427	0.1597
265.2569	0.1564
265.471	0.1491
265.6851	0.1494
265.8993	0.1466
266.1134	0.1547
266.3275	0.1494
266.5415	0.1416
266.7556	0.1608
266.9697	0.1468
267.1837	0.1582
267.3978	0.1572
267.6118	0.1556
267.8258	0.1761
268.0398	0.1433
268.2538	0.1656
268.4677	0.1608
268.6817	0.1485
268.8957	0.1446
269.1096	0.1595
269.3235	0.1612
269.5374	0.1471
269.7514	0.153
269.9652	0.1399
270.1791	0.1374
270.393	0.1393
270.6068	0.1424
270.8207	0.1352
271.0345	0.1396
271.2483	0.1409
271.4622	0.1271
271.676	0.1512
271.8897	0.1301
272.1035	0.1298
272.3173	0.123
272.531	0.1261
272.7448	0.133
272.9585	0.1347
273.1722	0.1344
273.3859	0.139
273.5996	0.1309
273.8133	0.1322
274.0269	0.1201
274.2406	0.1326
274.4542	0.1269
274.6679	0.1165
274.8815	0.1363
275.0951	0.1286
275.3087	0.1373
275.5223	0.1268
275.7358	0.1452
275.9494	0.1341
276.1629	0.128
276.3765	0.1375
276.59	0.1328
276.8035	0.1424
277.017	0.1332
277.2305	0.1344
277.444	0.145
277.6574	0.1319
277.8709	0.1347
278.0843	0.1343
278.2978	0.1318
278.5112	0.1399
278.7246	0.1344
278.938	0.1326
279.1513	0.1431
279.3647	0.1385
279.5781	0.1309
279.7914	0.1388
280.0047	0.1389
280.2181	0.1351
280.4314	0.1414
280.6447	0.1531
280.8579	0.1425
281.0712	0.1479
281.2845	0.1443
281.4977	0.1454
281.711	0.1337
281.9242	0.1394
282.1374	0.1388
282.3506	0.1382
282.5638	0.1473
282.7769	0.1413
282.9901	0.1393
283.2033	0.1544
283.4164	0.1502
283.6295	0.142
283.8426	0.1365
284.0557	0.1474
284.2688	0.1583
284.4819	0.1474
284.695	0.145
284.908	0.149
285.1211	0.1457
285.3341	0.1459
285.5471	0.1396
285.7601	0.1483
285.9731	0.1521
286.1861	0.1498
286.3991	0.1669
286.612	0.1587
286.825	0.1514
287.0379	0.1637
287.2508	0.1613
287.4637	0.1629
287.6766	0.1499
287.8895	0.1677
288.1024	0.1612
288.3152	0.1632
288.5281	0.1565
288.7409	0.1538
288.9538	0.1441
289.1666	0.1552
289.3794	0.1712
289.5922	0.1465
289.8049	0.1627
290.0177	0.1656
290.2304	0.1626
290.4432	0.1651
290.6559	0.1548
290.8686	0.1619
291.0813	0.1628
291.294	0.1715
291.5067	0.1756
291.7194	0.1657
291.932	0.1713
292.1447	0.1614
292.3573	0.1545
292.5699	0.17
292.7825	0.1643
292.9951	0.1633
293.2077	0.1641
293.4203	0.1732
293.6328	0.1479
293.8454	0.1734
294.0579	0.1681
294.2704	0.1602
294.4829	0.1492
294.6954	0.1749
294.9079	0.1599
295.1204	0.1675
295.3328	0.1696
295.5453	0.1719
295.7577	0.1731
295.9701	0.163
296.1825	0.1635
296.3949	0.1637
296.6073	0.1632
296.8197	0.1509
297.0321	0.1707
297.2444	0.15
297.4567	0.1655
297.6691	0.1674
297.8814	0.1599
298.0937	0.1618
298.306	0.1618
298.5182	0.1521
298.7305	0.1683
298.9428	0.1642
299.155	0.1704
299.3672	0.1616
299.5794	0.1585
299.7916	0.1655
300.0038	0.1673
300.216	0.1705
300.4282	0.1817
300.6403	0.1658
300.8525	0.1671
301.0646	0.1698
301.2767	0.1654
301.4888	0.1643
301.7009	0.1608
301.913	0.1658
302.125	0.1694
302.3371	0.1558
302.5491	0.1678
302.7612	0.1729
302.9732	0.1637
303.1852	0.1585
303.3972	0.1583
303.6092	0.1652
303.8211	0.1607
304.0331	0.1527
304.245	0.1499
304.457	0.1579
304.6689	0.1553
304.8808	0.1619
305.0927	0.1537
305.3046	0.1609
305.5164	0.1583
305.7283	0.1525
305.9401	0.1516
306.152	0.1408
306.3638	0.1486
306.5756	0.144
306.7874	0.1446
306.9992	0.1475
307.2109	0.1327
307.4227	0.1293
307.6344	0.1327
307.8462	0.1245
308.0579	0.1277
308.2696	0.1333
308.4813	0.1283
308.693	0.1297
308.9046	0.1339
309.1163	0.1214
309.328	0.1182
309.5396	0.119
309.7512	0.1161
309.9628	0.1219
310.1744	0.1153
310.386	0.1195
310.5976	0.1194
310.8091	0.1148
311.0207	0.1082
311.2322	0.1098
311.4437	0.1066
311.6552	0.112
311.8667	0.1187
312.0782	0.0969
312.2897	0.0984
312.5012	0.1135
312.7126	0.0976
312.924	0.0981
313.1355	0.1061
313.3469	0.0993
313.5583	0.1078
313.7696	0.106
313.981	0.0945
314.1924	0.0955
314.4037	0.0943
314.6151	0.1099
314.8264	0.0931
315.0377	0.0869
315.249	0.0934
315.4603	0.0929
315.6716	0.0824
315.8828	0.0871
316.0941	0.093
316.3053	0.0929
316.5165	0.0904
316.7277	0.0797
316.9389	0.0885
317.1501	0.0906
317.3613	0.0962
317.5724	0.0757
317.7836	0.0955
317.9947	0.0967
318.2058	0.093
318.417	0.0796
318.6281	0.0647
318.8391	0.086
319.0502	0.0837
319.2613	0.0873
319.4723	0.0913
319.6834	0.0878
319.8944	0.0864
320.1054	0.0916
320.3164	0.0918
320.5274	0.0819
320.7383	0.0889
320.9493	0.0888
321.1602	0.1061
321.3712	0.0823
321.5821	0.0933
321.793	0.0964
322.0039	0.0919
322.2148	0.0882
322.4257	0.0905
322.6365	0.0961
322.8474	0.0987
323.0582	0.0845
323.269	0.0934
323.4798	0.0976
323.6906	0.0889
323.9014	0.0933
324.1122	0.0908
324.3229	0.0793
324.5337	0.095
324.7444	0.091
324.9551	0.0993
325.1658	0.0965
325.3765	0.0976
325.5872	0.0974
325.7979	0.0993
326.0085	0.0971
326.2192	0.0993
326.4298	0.0864
326.6404	0.0834
326.851	0.0842
327.0616	0.083
327.2722	0.0975
327.4828	0.0982
327.6933	0.0908
327.9039	0.1011
328.1144	0.0988
328.3249	0.094
328.5354	0.0885
328.7459	0.1002
328.9564	0.0939
329.1669	0.0952
329.3773	0.0914
329.5878	0.0966
329.7982	0.0972
330.0086	0.0824
330.219	0.0925
330.4294	0.0977
330.6398	0.0909
330.8502	0.0996
331.0605	0.0959
331.2708	0.0923
331.4812	0.1035
331.6915	0.0928
331.9018	0.0822
332.1121	0.0951
332.3224	0.1009
332.5326	0.1069
332.7429	0.0877
332.9531	0.1144
333.1633	0.097
333.3735	0.099
333.5837	0.0945
333.7939	0.0838
334.0041	0.1094
334.2143	0.1028
334.4244	0.0991
334.6346	0.0749
334.8447	0.1038
335.0548	0.1034
335.2649	0.0874
335.475	0.1107
335.685	0.0953
335.8951	0.11
336.1051	0.1044
336.3152	0.1057
336.5252	0.0927
336.7352	0.1032
336.9452	0.1127
337.1552	0.1039
337.3652	0.0941
337.5751	0.1017
337.7851	0.0968
337.995	0.0936
338.2049	0.0995
338.4148	0.1015
338.6247	0.1172
338.8346	0.0934
339.0445	0.0909
339.2543	0.1222
339.4642	0.1042
339.674	0.0981
339.8838	0.1062
340.0936	0.1078
340.3034	0.1066
340.5132	0.1075
340.7229	0.1119
340.9327	0.1052
341.1424	0.1055
341.3522	0.1153
341.5619	0.1076
341.7716	0.1067
341.9813	0.1113
342.1909	0.1033
342.4006	0.1263
342.6102	0.1164
342.8199	0.1181
343.0295	0.1195
343.2391	0.1169
343.4487	0.1332
343.6583	0.1081
343.8679	0.1198
344.0774	0.1126
344.287	0.1213
344.4965	0.1218
344.706	0.121
344.9155	0.1201
345.125	0.1166
345.3345	0.1255
345.544	0.1125
345.7534	0.1194
345.9629	0.1059
346.1723	0.1106
346.3817	0.1127
346.5911	0.1177
346.8005	0.1302
347.0099	0.1132
347.2193	0.1261
347.4286	0.122
347.638	0.1328
347.8473	0.1211
348.0566	0.1329
348.2659	0.1233
348.4752	0.1221
348.6845	0.1141
348.8937	0.111
349.103	0.1449
349.3122	0.1263
349.5214	0.1174
349.7306	0.1309
349.9398	0.141
350.149	0.1376
350.3582	0.1221
350.5674	0.1384
350.7765	0.1236
350.9856	0.137
351.1948	0.136
351.4039	0.1168
351.613	0.1284
351.822	0.1461
352.0311	0.1419
352.2402	0.1409
352.4492	0.1421
352.6582	0.1429
352.8672	0.1306
353.0762	0.1467
353.2852	0.1405
353.4942	0.1276
353.7032	0.1441
353.9121	0.1455
354.1211	0.1563
354.33	0.1445
354.5389	0.1465
354.7478	0.1392
354.9567	0.146
355.1655	0.1389
355.3744	0.1553
355.5833	0.1554
355.7921	0.1588
356.0009	0.1489
356.2097	0.1688
356.4185	0.166
356.6273	0.1604
356.8361	0.1665
357.0448	0.1486
357.2536	0.1425
357.4623	0.1461
357.671	0.1669
357.8797	0.1701
358.0884	0.1612
358.2971	0.153
358.5057	0.1594
358.7144	0.1669
358.923	0.1688
359.1316	0.1566
359.3402	0.156
359.5488	0.1523
359.7574	0.1588
359.966	0.18
360.1746	0.1663
360.3831	0.1912
360.5916	0.1701
360.8002	0.1714
361.0087	0.1794
361.2172	0.1734
361.4256	0.1744
361.6341	0.1844
361.8426	0.1816
362.051	0.1664
362.2594	0.18
362.4678	0.183
362.6762	0.1971
362.8846	0.1893
363.093	0.188
363.3014	0.1807
363.5097	0.173
363.718	0.1808
363.9264	0.19
364.1347	0.1743
364.343	0.2035
364.5513	0.1968
364.7595	0.207
364.9678	0.186
365.176	0.2025
365.3842	0.1802
365.5925	0.2
365.8007	0.2082
366.0089	0.1957
366.217	0.19
366.4252	0.1981
366.6333	0.2135
366.8415	0.2053
367.0496	0.1928
367.2577	0.1995
367.4658	0.2228
367.6739	0.2229
367.882	0.2204
368.09	0.2205
368.2981	0.2099
368.5061	0.2024
368.7141	0.2182
368.9221	0.2071
369.1301	0.2141
369.3381	0.2046
369.5461	0.2169
369.754	0.2301
369.962	0.2118
370.1699	0.2301
370.3778	0.2329
370.5857	0.2061
370.7936	0.2243
371.0015	0.2247
371.2093	0.2191
371.4172	0.2396
371.625	0.2355
371.8328	0.2143
372.0406	0.2277
372.2484	0.2147
372.4562	0.2454
372.664	0.2312
372.8717	0.253
373.0795	0.2091
373.2872	0.2371
373.4949	0.2326
373.7026	0.2396
373.9103	0.2409
374.118	0.2434
374.3256	0.2415
374.5333	0.2271
374.7409	0.2379
374.9485	0.2523
375.1561	0.2375
375.3637	0.2351
375.5713	0.2505
375.7789	0.2371
375.9864	0.2513
376.194	0.2462
376.4015	0.2607
376.609	0.2615
376.8165	0.2464
377.024	0.244
377.2315	0.2425
377.4389	0.2641
377.6464	0.2578
377.8538	0.2544
378.0612	0.2511
378.2686	0.2586
378.476	0.2756
378.6834	0.2636
378.8908	0.2525
379.0981	0.2555
379.3055	0.2511
379.5128	0.249
379.7201	0.2518
379.9274	0.2543
380.1347	0.2672
380.342	0.2593
380.5492	0.2487
380.7565	0.2618
380.9637	0.2605
381.1709	0.2499
381.3781	0.2494
381.5853	0.2676
381.7925	0.2717
381.9997	0.2703
382.2068	0.267
382.4139	0.2668
382.6211	0.2646
382.8282	0.2746
383.0353	0.2724
383.2424	0.2605
383.4494	0.2802
383.6565	0.2647
383.8635	0.2661
384.0706	0.2698
384.2776	0.2914
384.4846	0.2676
384.6916	0.271
384.8986	0.2694
385.1055	0.2711
385.3125	0.2771
385.5194	0.2527
385.7263	0.2859
385.9333	0.261
386.1402	0.2817
386.347	0.2675
386.5539	0.2662
386.7608	0.2863
386.9676	0.2661
387.1744	0.2773
387.3813	0.2507
387.5881	0.2647
387.7948	0.2594
388.0016	0.2671
388.2084	0.2687
388.4151	0.2507
388.6219	0.2627
388.8286	0.2636
389.0353	0.2842
389.242	0.273
389.4487	0.2569
389.6553	0.2437
389.862	0.2344
390.0686	0.2609
390.2753	0.2629
390.4819	0.256
390.6885	0.2558
390.8951	0.2577
391.1016	0.249
391.3082	0.2599
391.5147	0.2546
391.7213	0.2657
391.9278	0.2378
392.1343	0.2499
392.3408	0.2337
392.5473	0.2616
392.7537	0.2454
392.9602	0.2432
393.1666	0.254
393.373	0.2507
393.5794	0.2332
393.7858	0.2493
393.9922	0.2535
394.1986	0.2544
394.4049	0.2461
394.6113	0.2306
394.8176	0.2163
395.0239	0.2319
395.2302	0.2309
395.4365	0.25
395.6428	0.2206
395.8491	0.2141
396.0553	0.2462
396.2615	0.2387
396.4678	0.2269
396.674	0.2195
396.8802	0.2197
397.0863	0.2372
397.2925	0.2206
397.4987	0.2157
397.7048	0.2268
397.9109	0.2311
398.117	0.2279
398.3231	0.2237
398.5292	0.2348
398.7353	0.2492
398.9413	0.2222
399.1474	0.2321
399.3534	0.2256
399.5594	0.2186
399.7654	0.2361
399.9714	0.2271
400.1774	0.2204
400.3833	0.2173
400.5893	0.2337
400.7952	0.2143
401.0011	0.2236
401.207	0.235
401.4129	0.212
401.6188	0.2415
401.8247	0.2196
402.0305	0.2363
402.2364	0.2338
402.4422	0.2413
402.648	0.2365
402.8538	0.254
403.0596	0.218
403.2654	0.2363
403.4711	0.2133
403.6768	0.2387
403.8826	0.2246
404.0883	0.2164
404.294	0.2377
404.4997	0.2285
404.7054	0.2371
404.911	0.231
405.1167	0.2184
405.3223	0.239
405.5279	0.237
405.7335	0.2413
405.9391	0.2335
406.1447	0.2372
406.3502	0.2464
406.5558	0.2269
406.7613	0.2337
406.9668	0.2274
407.1724	0.2122
407.3778	0.2248
407.5833	0.2246
407.7888	0.2161
407.9942	0.238
408.1997	0.2291
408.4051	0.2333
408.6105	0.2206
408.8159	0.206
409.0213	0.2269
409.2267	0.2259
409.432	0.2092
409.6374	0.2313
409.8427	0.2192
410.048	0.2315
410.2533	0.215
410.4586	0.2193
410.6639	0.2179
410.8691	0.2312
411.0744	0.2134
411.2796	0.2128
411.4848	0.2339
411.69	0.2344
411.8952	0.2388
412.1004	0.2132
412.3056	0.2229
412.5107	0.2277
412.7158	0.2406
412.921	0.2205
413.1261	0.2071
413.3312	0.2259
413.5362	0.2137
413.7413	0.2087
413.9464	0.2324
414.1514	0.2252
414.3564	0.2296
414.5614	0.2001
414.7664	0.2244
414.9714	0.2062
415.1764	0.2248
415.3813	0.2148
415.5863	0.2137
415.7912	0.2224
415.9961	0.2305
416.201	0.2015
416.4059	0.2301
416.6108	0.2029
416.8156	0.2285
417.0205	0.2182
417.2253	0.2101
417.4301	0.2283
417.6349	0.2212
417.8397	0.1984
418.0445	0.2283
418.2492	0.2367
418.454	0.2062
418.6587	0.2191
418.8634	0.2151
419.0681	0.2058
419.2728	0.2003
419.4775	0.2079
419.6822	0.2132
419.8868	0.1807
420.0915	0.2283
420.2961	0.1897
420.5007	0.191
420.7053	0.2034
420.9099	0.209
421.1144	0.2048
421.319	0.1932
421.5235	0.2089
421.728	0.2181
421.9325	0.1905
422.137	0.227
422.3415	0.1947
422.546	0.215
422.7504	0.2156
422.9549	0.1983
423.1593	0.2128
423.3637	0.2036
423.5681	0.1955
423.7725	0.1983
423.9769	0.1732
424.1812	0.1874
424.3856	0.1948
424.5899	0.1929
424.7942	0.1998
424.9985	0.1861
425.2028	0.1831
425.4071	0.1983
425.6113	0.1747
425.8156	0.1852
426.0198	0.1897
426.224	0.1541
426.4282	0.1721
426.6324	0.1727
426.8366	0.1787
427.0407	0.1743
427.2449	0.175
427.449	0.1811
427.6531	0.1664
427.8572	0.1649
428.0613	0.1894
428.2654	0.1744
428.4694	0.1665
428.6735	0.1704
428.8775	0.1818
429.0815	0.1856
429.2855	0.1646
429.4895	0.178
429.6935	0.1546
429.8975	0.1584
430.1014	0.1585
430.3053	0.1459
430.5093	0.1492
430.7132	0.1447
430.9171	0.1294
431.1209	0.1475
431.3248	0.128
431.5286	0.1538
431.7325	0.1598
431.9363	0.1494
432.1401	0.1413
432.3439	0.1277
432.5477	0.1307
432.7514	0.1304
432.9552	0.1454
433.1589	0.1321
433.3627	0.1528
433.5664	0.1376
433.7701	0.1217
433.9737	0.1249
434.1774	0.1327
434.3811	0.1276
434.5847	0.124
434.7883	0.1307
434.9919	0.1231
435.1955	0.1242
435.3991	0.1139
435.6027	0.1248
435.8062	0.1083
436.0098	0.1064
436.2133	0.1128
436.4168	0.0863
436.6203	0.1013
436.8238	0.1184
437.0272	0.0897
437.2307	0.0993
437.4341	0.1068
437.6375	0.1099
437.841	0.1015
438.0443	0.1042
438.2477	0.0988
438.4511	0.093
438.6545	0.0985
438.8578	0.1046
439.0611	0.0947
439.2644	0.1018
439.4677	0.0855
439.671	0.0658
439.8743	0.0936
440.0775	0.0992
440.2808	0.0882
440.484	0.0661
440.6872	0.0743
440.8904	0.0826
441.0936	0.0765
441.2967	0.0801
441.4999	0.0782
441.703	0.0721
441.9062	0.066
442.1093	0.0721
442.3124	0.0669
442.5155	0.0461
442.7185	0.0739
442.9216	0.0427
443.1246	0.0863
443.3276	0.0588
443.5307	0.0597
443.7337	0.0682
443.9366	0.068
444.1396	0.0652
444.3426	0.0521
444.5455	0.0546
444.7484	0.0444
444.9513	0.0429
445.1542	0.0604
445.3571	0.0369
445.56	0.0432
445.7628	0.0343
445.9657	0.0508
446.1685	0.0593
446.3713	0.0497
446.5741	0.0433
446.7769	0.0329
446.9797	0.0322
447.1824	0.0401
447.3852	0.0192
447.5879	0.0566
447.7906	0.0271
447.9933	0.0486
448.196	0.029
448.3986	0.0429
448.6013	0.0379
448.8039	0.0268
449.0066	0.0374
449.2092	0.0333
449.4118	0.0296
449.6143	0.047
449.8169	0.0391
450.0195	0.0158
450.222	0.0128
450.4245	0.0227
450.627	0.0398
450.8295	0.034
451.032	0.0223
451.2345	0.0299
451.4369	0.0338
451.6394	0.0355
451.8418	0.0076
452.0442	0.02
452.2466	0.0353
452.449	0.0074
452.6513	0.0419
452.8537	0.0078
453.056	-0.0028
453.2583	0.0212
453.4607	0.0184
453.663	0.0213
453.8652	0.0326
454.0675	0.0277
454.2697	0.0229
454.472	0.0086
454.6742	0.0316
454.8764	0.0165
455.0786	0.0315
455.2808	0.0068
455.4829	0.0166
455.6851	0.0175
455.8872	0.0188
456.0893	0.0243
456.2915	0.0022
456.4935	0.0183
456.6956	0.0146
456.8977	0.0185
457.0997	0.0114
457.3018	0.0021
457.5038	0.0287
457.7058	-0.0066
457.9078	0.0149
458.1098	0.0027
458.3117	0.0191
458.5137	0.0074
458.7156	0.002
458.9175	-0.0014
459.1194	0.0114
459.3213	0.0056
459.5232	0.0045
459.725	-0.011
459.9269	-0.0123
460.1287	0
460.3305	0.0024
460.5323	-0.0011
460.7341	0.0062
460.9359	-0.0011
461.1376	0.018
461.3394	0.0045
461.5411	0.0104
461.7428	-0.0197
461.9445	0.0114
462.1462	0.0186
462.3479	0.004
462.5495	0.0037
462.7512	0.0034
462.9528	-0.005
463.1544	-0.0098
463.356	-0.0047
463.5576	0.0095
463.7592	-0.0031
463.9607	0.0067
464.1623	0.0119
464.3638	0.0246
464.5653	-0.0117
464.7668	0.0015
464.9683	0.0109
465.1697	0.0187
465.3712	-0.0126
465.5726	-0.0116
465.7741	-0.0029
465.9755	-0.007
466.1769	0
466.3782	-0.005
466.5796	-0.0075
466.7809	-0.0084
466.9823	-0.0019
467.1836	0.0148
467.3849	0.0058
467.5862	-0.0098
467.7875	-0.004
467.9887	0.0157
468.19	-0.0081
468.3912	0.0039
468.5924	-0.0117
468.7936	-0.0016
468.9948	0.0009
469.196	0.0186
469.3972	-0.0149
469.5983	0.0022
469.7994	-0.0136
470.0006	-0.0113
470.2017	-0.0209
470.4027	0.0017
470.6038	0.0215
470.8049	-0.006
471.0059	-0.0084
471.2069	-0.0086
471.408	0.0082
471.6089	-0.0138
471.8099	-0.0052
472.0109	0.0092
472.2119	-0.0072
472.4128	-0.0171
472.6137	0.0146
472.8146	-0.0239
473.0155	-0.0158
473.2164	-0.0134
473.4173	0.0039
473.6181	-0.0069
473.819	0.0045
474.0198	-0.0022
474.2206	-0.0079
474.4214	-0.0066
474.6222	-0.0004
474.8229	-0.0077
475.0237	-0.0017
475.2244	-0.008
475.4251	-0.0148
475.6258	-0.0056
475.8265	-0.0002
476.0272	0.0108
476.2278	-0.0048
476.4285	-0.003
476.6291	-0.0147
476.8297	-0.0008
477.0303	-0.0124
477.2309	-0.0059
477.4315	-0.0142
477.632	-0.0058
477.8326	-0.0047
478.0331	-0.0039
478.2336	-0.0044
478.4341	-0.0087
478.6346	-0.0093
478.8351	-0.0126
479.0355	-0.0054
479.236	-0.0118
479.4364	-0.0134
479.6368	-0.0034
479.8372	-0.0174
480.0376	-0.0094
480.2379	-0.0214
480.4383	-0.0017
480.6386	0.0109
480.8389	-0.002
481.0392	-0.016
481.2395	-0.0123
481.4398	-0.011
481.6401	-0.0026
481.8403	0.0039
482.0405	-0.0061
482.2408	-0.0081
482.441	-0.0007
482.6411	-0.0045
482.8413	-0.0009
483.0415	-0.0116
483.2416	-0.0073
483.4417	-0.0038
483.6419	-0.0093
483.8419	-0.0023
484.042	0.0097
484.2421	-0.0019
484.4422	-0.0074
484.6422	-0.0116
484.8422	-0.0147
485.0422	-0.019
485.2422	0.0037
485.4422	-0.0046
485.6422	-0.0142
485.8421	0.0004
486.042	-0.0021
486.242	-0.0119
486.4419	-0.016
486.6417	-0.0129
486.8416	-0.0047
487.0415	-0.0048
487.2413	-0.0128
487.4411	-0.0071
487.641	-0.0104
487.8408	-0.0008
488.0405	-0.0123
488.2403	-0.0139
488.4401	-0.0012
488.6398	0.0061
488.8395	-0.0176
489.0392	0.0028
489.2389	-0.0071
489.4386	-0.016
489.6383	-0.0013
489.8379	0.0029
490.0376	-0.0086
490.2372	-0.0065
490.4368	-0.0142
490.6364	-0.0062
490.836	0.0031
491.0355	-0.0095
491.2351	-0.0055
491.4346	-0.0072
491.6341	-0.0127
491.8336	-0.0031
492.0331	-0.0139
492.2326	-0.0128
492.432	-0.0099
492.6315	-0.019
492.8309	-0.0218
493.0303	-0.0175
493.2297	-0.0133
493.4291	-0.0077
493.6284	-0.01
493.8278	-0.0052
494.0271	-0.0047
494.2264	0.003
494.4257	-0.0146
494.625	-0.0032
494.8243	-0.0124
495.0236	-0.0105
495.2228	-0.0231
495.422	0.0055
495.6213	-0.0029
495.8205	-0.0081
496.0196	-0.0115
496.2188	-0.0001
496.418	-0.015
496.6171	-0.011
496.8162	-0.0151
497.0153	-0.0084
497.2144	-0.01
497.4135	-0.0125
497.6126	-0.0178
497.8116	-0.0116
498.0107	0.0007
498.2097	-0.0107
498.4087	-0.0048
498.6077	-0.0054
498.8067	-0.0049
499.0056	0.0071
499.2046	-0.0034
499.4035	-0.02
499.6024	-0.0002
499.8013	-0.0009
500.0002	-0.0187
500.199	-0.0078
500.3979	-0.0019
500.5967	-0.0125
500.7956	0.001
500.9944	-0.0032
501.1932	-0.0082
501.3919	-0.0145
501.5907	-0.0151
501.7895	-0.0098
501.9882	-0.009
502.1869	-0.0139
502.3856	-0.0037
502.5843	-0.0097
502.783	-0.0075
502.9816	0.0027
503.1803	-0.0211
503.3789	-0.0074
503.5775	-0.0026
503.7761	-0.0112
503.9747	0.0002
504.1732	-0.0077
504.3718	0.0017
504.5703	-0.0092
504.7689	-0.0036
504.9674	0.0002
505.1658	-0.0115
505.3643	-0.0008
505.5628	-0.0095
505.7612	-0.0106
505.9597	0.0016
506.1581	-0.0102
506.3565	0.0039
506.5549	-0.0034
506.7532	-0.0256
506.9516	-0.0017
507.1499	-0.0137
507.3482	-0.0079
507.5465	-0.0129
507.7448	-0.0121
507.9431	0.0013
508.1414	-0.0084
508.3396	-0.0062
508.5379	-0.0057
508.7361	-0.003
508.9343	-0.0015
509.1325	-0.0101
509.3306	-0.0145
509.5288	-0.006
509.7269	-0.0117
509.9251	-0.0036
510.1232	-0.011
510.3213	0.0039
510.5193	0.0029
510.7174	-0.0072
510.9154	-0.0107
511.1135	-0.0076
511.3115	-0.011
511.5095	-0.0085
511.7075	-0.0113
511.9055	-0.0075
512.1034	-0.0079
512.3014	0.0045
512.4993	0.0012
512.6972	-0.0073
512.8951	-0.0118
513.093	-0.0071
513.2908	0.0012
513.4887	-0.0063
513.6865	-0.0001
513.8844	-0.0123
514.0822	-0.0093
514.2799	-0.0143
514.4777	-0.0041
514.6755	-0.0069
514.8732	-0.007
515.0709	-0.0072
515.2687	-0.0075
515.4664	0.0052
515.664	-0.006
515.8617	-0.0066
516.0594	-0.0163
516.257	-0.0002
516.4546	-0.0145
516.6522	-0.0003
516.8498	-0.0041
517.0474	0.0001
517.2449	0.0012
517.4425	-0.0207
517.64	-0.0106
517.8375	-0.0032
518.035	-0.0006
518.2325	-0.0108
518.43	0.0032
518.6274	0.0012
518.8249	-0.0142
519.0223	-0.0012
519.2197	-0.0104
519.4171	-0.0028
519.6145	-0.0033
519.8118	-0.0062
520.0092	-0.0123
520.2065	-0.0029
520.4038	-0.0129
520.6011	-0.0025
520.7984	-0.0155
520.9956	-0.0077
521.1929	-0.0161
521.3901	-0.0058
521.5874	-0.0081
521.7846	-0.0117
521.9818	-0.0092
522.1789	-0.0026
522.3761	-0.008
522.5732	-0.004
522.7704	-0.0008
522.9675	-0.0046
523.1646	-0.0114
523.3617	-0.0072
523.5587	-0.0013
523.7558	-0.0049
523.9528	-0.0073
524.1498	-0.0035
524.3468	-0.0044
524.5438	-0.0015
524.7408	0.0052
524.9378	0.0001
525.1347	-0.0014
525.3316	-0.004
525.5285	-0.0049
525.7254	-0.0108
525.9223	0.0017
526.1192	0.0025
526.316	-0.0078
526.5129	0.0024
526.7097	-0.0108
526.9065	-0.0064
527.1033	-0.0172
527.3	0.0061
527.4968	-0.0005
527.6935	-0.0021
527.8903	-0.0112
528.087	-0.009
528.2837	-0.0071
528.4804	-0.0068
528.677	-0.0162
528.8737	0.0027
529.0703	0.0035
529.2669	-0.0038
529.4635	-0.0005
529.6601	-0.0037
529.8567	-0.0089
530.0532	-0.0122
530.2498	0.0075
530.4463	0.0034
530.6428	-0.0053
530.8393	0.0058
531.0358	-0.0021
531.2322	-0.0066
531.4287	-0.006
531.6251	-0.0092
531.8215	0.0059
532.0179	-0.005
532.2143	0.0047
532.4107	-0.0143
532.607	-0.0095
532.8034	-0.0032
532.9997	-0.0047
533.196	0.0041
533.3923	-0.0077
533.5886	0.0034
533.7848	0.0032
533.9811	-0.0109
534.1773	0.0042
534.3735	0.0035
534.5697	-0.0043
534.7659	-0.007
534.9621	-0.0017
535.1582	-0.008
535.3544	-0.006
535.5505	-0.007
535.7466	-0.008
535.9427	-0.0069
536.1387	-0.0113
536.3348	0.0018
536.5308	-0.0077
536.7269	-0.0205
536.9229	-0.0025
537.1189	0.0059
537.3148	-0.005
537.5108	-0.0064
537.7068	0.0036
537.9027	-0.005
538.0986	-0.0076
538.2945	-0.0056
538.4904	0.0026
538.6863	-0.0002
538.8821	-0.0049
539.078	-0.0037
539.2738	0.0057
539.4696	0.005
539.6654	0.0106
539.8611	0.0116
540.0569	-0.0015
540.2526	-0.0127
540.4484	0.0064
540.6441	0.0082
540.8398	-0.0009
541.0355	-0.0047
541.2311	-0.0001
541.4268	-0.01
541.6224	-0.0015
541.818	-0.0032
542.0136	-0.0166
542.2092	-0.0024
542.4048	-0.0004
542.6003	-0.001
542.7959	-0.008
542.9914	-0.0029
543.1869	-0.003
543.3824	-0.0025
543.5779	-0.0127
543.7734	0.0024
543.9688	-0.007
544.1642	0.0049
544.3596	0.0035
544.555	-0.005
544.7504	-0.0018
544.9458	-0.0023
545.1411	0.0028
545.3365	-0.0059
545.5318	-0.0069
545.7271	-0.0022
545.9224	-0.0064
546.1177	-0.002
546.3129	0.0041
546.5081	-0.0025
546.7034	-0.0003
546.8986	-0.0004
547.0938	-0.0054
547.289	-0.0087
547.4841	-0.0009
547.6793	0.008
547.8744	-0.0065
548.0695	-0.0064
548.2646	-0.0152
548.4597	-0.0008
548.6548	-0.0047
548.8498	-0.0037
549.0448	0.0023
549.2399	-0.0047
549.4349	0.0041
549.6298	0.0034
549.8248	0.0037
550.0198	-0.0029
550.2147	0.0011
550.4096	-0.0129
550.6045	-0.0032
550.7994	0.0018
550.9943	-0.0003
551.1892	-0.0058
551.384	0.0093
551.5788	-0.0064
551.7737	0.0018
551.9685	0.003
552.1632	0.0026
552.358	-0.0003
552.5528	0.0046
552.7475	0.0026
552.9422	-0.0017
553.1369	0.0025
553.3316	-0.0005
553.5263	-0.0083
553.7209	0.0071
553.9156	-0.0077
554.1102	-0.0049
554.3048	-0.0016
554.4994	-0.0031
554.694	-0.0041
554.8885	0.0011
555.0831	-0.0165
555.2776	-0.0097
555.4721	-0.0036
555.6666	-0.0018
555.8611	0.002
556.0555	-0.0001
556.25	-0.005
556.4444	-0.0117
556.6388	0.0002
556.8332	0.001
557.0276	0.0001
557.222	0.0018
557.4163	-0.0044
557.6107	-0.0055
557.805	0.007
557.9993	-0.0031
558.1936	-0.0015
558.3879	0.0088
558.5821	-0.0022
558.7764	-0.0052
558.9706	-0.0064
559.1648	0.0094
559.359	-0.0155
559.5532	-0.0104
559.7473	-0.0004
559.9415	-0.0075
560.1356	-0.0103
560.3297	-0.0116
560.5238	-0.0069
560.7179	-0.0031
560.9119	-0.0075
561.106	-0.0018
561.3	-0.0086
561.494	-0.004
561.688	-0.0096
561.882	-0.0131
562.076	-0.0155
562.2699	0.0064
562.4639	-0.0083
562.6578	-0.0117
562.8517	-0.0019
563.0456	0.0052
563.2395	0.0063
563.4333	0.0016
563.6272	0.0051
563.821	0.0001
564.0148	0.0001
564.2086	-0.0091
564.4024	-0.0087
564.5961	-0.0049
564.7899	0.0063
564.9836	0.0039
565.1773	0.0086
565.371	0.0043
565.5647	0.0006
565.7584	-0.0032
565.952	0.0044
566.1456	0.0042
566.3393	-0.0002
566.5329	0.0002
566.7264	-0.0066
566.92	-0.0042
567.1136	0.001
567.3071	-0.0022
567.5006	-0.0026
567.6941	-0.0005
567.8876	-0.0041
568.0811	-0.0047
568.2745	-0.0019
568.468	0.0089
568.6614	-0.0022
568.8548	0.003
569.0482	-0.0022
569.2416	0.0022
569.4349	-0.0005
569.6283	0.01
569.8216	-0.0082
570.0149	-0.0015
570.2082	0.0087
570.4015	0.0082
570.5947	0.0025
570.788	0.0048
570.9812	0.0069
571.1744	-0.0048
571.3676	-0.0068
571.5608	-0.003
571.754	-0.0003
571.9471	0.0015
572.1402	0.0013
572.3333	-0.005
572.5264	-0.0058
572.7195	0.0036
572.9126	0.0024
573.1057	0.0008
573.2987	-0.0016
573.4917	-0.0004
573.6847	-0.0094
573.8777	-0.0023
574.0707	0.0007
574.2636	-0.0091
574.4566	-0.0032
574.6495	0.0034
574.8424	0.0012
575.0353	-0.0028
575.2281	0.0132
575.421	0.0032
575.6138	-0.0007
575.8067	-0.0016
575.9995	-0.0013
576.1923	0.0002
576.385	-0.0063
576.5778	-0.0008
576.7706	-0.0007
576.9633	0.0019
577.156	-0.0004
577.3487	-0.0048
577.5414	-0.0045
577.734	-0.004
577.9267	-0.0022
578.1193	-0.0109
578.3119	-0.0043
578.5045	0.0025
578.6971	-0.0039
578.8897	0.005
579.0822	0.0016
579.2747	0.0055
579.4673	-0.0049
579.6598	-0.0012
579.8522	-0.0009
580.0447	-0.0086
580.2372	-0.0011
580.4296	0.0016
580.622	-0.0034
580.8144	0.0025
581.0068	-0.0032
581.1992	-0.0058
581.3915	-0.0093
581.5839	-0.0042
581.7762	-0.0055
581.9685	-0.0015
582.1608	-0.0008
582.353	-0.0021
582.5453	0.0006
582.7375	-0.0029
582.9298	-0.0009
583.122	0.0028
583.3142	-0.0054
583.5063	0.0012
583.6985	-0.0074
583.8906	0.0012
584.0827	-0.0004
584.2749	0.0074
584.4669	0.0013
584.659	0.0013
584.8511	-0.0005
585.0431	0.002
585.2352	0.0051
585.4272	0.0016
585.6192	0.0073
585.8111	-0.0006
586.0031	0.0002
586.195	-0.0055
586.387	0.001
586.5789	0.0023
586.7708	0.0007
586.9627	0.0045
587.1545	-0.0048
587.3464	-0.0025
587.5382	0.0064
587.73	0.0105
587.9218	0.0063
588.1136	-0.0027
588.3053	-0.0033
588.4971	-0.0039
588.6888	-0.0048
588.8805	0.0056
589.0722	0.0016
589.2639	-0.003
589.4556	-0.0002
589.6472	-0.0065
589.8389	-0.0116
590.0305	-0.0133
590.2221	-0.0011
590.4137	-0.0094
590.6052	0.0008
590.7968	0.0012
590.9883	-0.0011
591.1798	-0.0046
591.3713	0.0066
591.5628	0.0016
591.7543	0.0021
591.9458	0.001
592.1372	0.0059
592.3286	0.0026
592.52	0.0066
592.7114	-0.0053
592.9028	-0.0007
593.0941	-0.0036
593.2855	-0.0031
593.4768	-0.0039
593.6681	-0.0054
593.8594	-0.0004
594.0506	0.0021
594.2419	0.0047
594.4331	0.0015
594.6244	0.0045
594.8156	-0.0127
595.0067	-0.0006
595.1979	-0.0034
595.3891	0.005
595.5802	-0.0094
595.7713	-0.0052
595.9624	-0.0024
596.1535	0.0015
596.3446	0.0014
596.5357	-0.0006
596.7267	0.0022
596.9177	0.0063
597.1087	-0.0034
597.2997	-0.0055
597.4907	0.0008
597.6817	-0.0059
597.8726	0.0018
598.0635	-0.0086
598.2544	0.0014
598.4453	-0.0011
598.6362	-0.0053
598.827	-0.0056
599.0179	0.0044
599.2087	0.0021
599.3995	0.0002
599.5903	0.0005
599.7811	-0.0026
599.9718	0.0004
600.1626	-0.005
600.3533	-0.0076
600.544	0.0032
600.7347	-0.0051
600.9254	0.0082
601.116	-0.0048
601.3067	-0.0068
601.4973	0.0018
601.6879	0.0102
601.8785	-0.0068
602.0691	0.0022
602.2596	0.0057
602.4502	0.0036
602.6407	-0.0008
602.8312	0.0019
603.0217	-0.0087
603.2122	-0.001
603.4027	0.002
603.5931	-0.0005
603.7835	-0.0077
603.9739	-0.0018
604.1643	-0.0017
604.3547	-0.006
604.5451	-0.0014
604.7354	-0.006
604.9257	-0.0006
605.116	-0.0039
605.3063	0.0051
605.4966	-0.0033
605.6869	0.0028
605.8771	0.0029
606.0673	0.0098
606.2575	0.0051
606.4477	0.0082
606.6379	0
606.8281	-0.0018
607.0182	0.0016
607.2083	0.0074
607.3985	-0.0088
607.5885	0.0002
607.7786	-0.0015
607.9687	0.0005
608.1587	-0.0016
608.3488	0.002
608.5388	-0.0016
608.7288	-0.0037
608.9187	-0.0024
609.1087	-0.0123
609.2986	-0.0112
609.4886	-0.0062
609.6785	-0.0031
609.8684	0.0029
610.0582	0.0006
610.2481	-0.001
610.4379	0.0011
610.6278	-0.0006
610.8176	-0.0022
611.0074	-0.0001
611.1971	-0.0039
611.3869	-0.0079
611.5766	-0.005
611.7664	0.0041
611.9561	0.0035
612.1458	0.0072
612.3354	0.0045
612.5251	0.0045
612.7147	0.0056
612.9044	0.0116
613.094	-0.0048
613.2836	0.0053
613.4731	0
613.6627	-0.0019
613.8522	0.0034
614.0417	-0.0008
614.2313	0.0006
614.4207	0.0043
614.6102	0.004
614.7997	-0.0017
614.9891	-0.0016
615.1785	0.0013
615.3679	-0.0025
615.5573	0.0135
615.7467	0.0066
615.9361	0.0074
616.1254	-0.0008
616.3147	0.0089
616.504	0.0035
616.6933	0.0075
616.8826	0.0137
617.0718	0.0025
617.2611	0.006
617.4503	0.0015
617.6395	-0.0015
617.8287	0.0004
618.0179	0.0052
618.207	0.0088
618.3961	0.0028
618.5853	0.003
618.7744	0.0052
618.9634	0.007
619.1525	0.0017
619.3416	0.0051
619.5306	0.0103
619.7196	-0.004
619.9086	0.0044
620.0976	-0.0028
620.2866	-0.0053
620.4755	0.0062
620.6645	0.0045
620.8534	0.0024
621.0423	0.0116
621.2312	0.0086
621.42	0.0025
621.6089	0.0045
621.7977	0.0063
621.9865	-0.0105
622.1753	0.0059
622.3641	0.0042
622.5529	0.0052
622.7416	0.0079
622.9303	-0.0048
623.1191	0.0027
623.3078	-0.0025
623.4964	0.006
623.6851	-0.0029
623.8737	-0.001
624.0624	0.0068
624.251	-0.0049
624.4396	-0.0041
624.6282	-0.0088
624.8167	0.0037
625.0053	0.0083
625.1938	0.0046
625.3823	0.0039
625.5708	-0
625.7593	-0.0046
625.9477	-0.0023
626.1362	0.0016
626.3246	0.0038
626.513	0.0079
626.7014	0.0063
626.8898	0.0082
627.0781	0.006
627.2665	-0.0028
627.4548	0.0117
627.6431	0.004
627.8314	0.0075
628.0197	0.0067
628.2079	-0.0051
628.3962	-0.0033
628.5844	0.0083
628.7726	0.0049
628.9608	-0.0019
629.1489	0.0016
629.3371	0.0055
629.5252	-0.0038
629.7134	0.0076
629.9015	0.0033
630.0895	0.0033
630.2776	0.0078
630.4657	-0.0034
630.6537	0.0037
630.8417	-0.0002
631.0297	0.0024
631.2177	0.0029
631.4057	-0.0024
631.5936	0.0043
631.7815	0.0004
631.9695	0.011
632.1574	0.0035
632.3452	0.0163
632.5331	0.0038
632.7209	0.0007
632.9088	0.0092
633.0966	0.0092
633.2844	-0.002
633.4722	0.0043
633.6599	0.0071
633.8477	0.0072
634.0354	0.0032
634.2231	0.0047
634.4108	0.0067
634.5985	0.0038
634.7861	0.008
634.9738	0.0029
635.1614	0.003
635.349	0.0011
635.5366	-0.0006
635.7242	0.0031
635.9117	0.0044
636.0993	0.0074
636.2868	0.0071
636.4743	-0.0014
636.6618	0.0169
636.8492	0.0076
637.0367	0.006
637.2241	0.0063
637.4115	0.0023
637.5989	-0
637.7863	0.0003
637.9737	0.0043
638.161	0.0035
638.3484	0.0035
638.5357	0.0087
638.723	0.0009
638.9103	0.0081
639.0975	0.0092
639.2848	0.0139
639.472	0.0008
639.6592	0.0086
639.8464	0.0038
640.0336	0.0043
640.2208	0.002
640.4079	-0.0078
640.595	0.0075
640.7821	-0.0009
640.9692	0.0031
641.1563	0.0033
641.3434	0.009
641.5304	-0.0007
641.7174	0.003
641.9044	0.0029
642.0914	0.0032
642.2784	-0.002
642.4653	0.0056
642.6523	0.0044
642.8392	0.0034
643.0261	0.0059
643.213	0.0004
643.3999	-0.0043
643.5867	0.0029
643.7735	-0.0011
643.9604	-0.0026
644.1472	0.0032
644.3339	0.0044
644.5207	0.0043
644.7075	0.0054
644.8942	0.0095
645.0809	0.0059
645.2676	0.0051
645.4543	0.0062
645.6409	0.0051
645.8276	0.0033
646.0142	0.0081
646.2008	-0.002
646.3874	-0.0015
646.574	0.0013
646.7605	-0.0021
646.9471	-0.0062
647.1336	-0.0034
647.3201	0.0093
647.5066	-0.0014
647.6931	0.0025
647.8795	0.0038
648.0659	0.002
648.2524	0.006
648.4388	-0.0038
648.6252	0.0042
648.8115	0.0001
648.9979	-0.0038
649.1842	0.003
649.3705	0.0028
649.5568	-0.0006
649.7431	0.0119
649.9294	0.0039
650.1156	0.0058
650.3018	-0.0063
650.488	0.0107
650.6742	0.0035
650.8604	0.0055
651.0466	-0.0051
651.2327	-0.0004
651.4188	-0.0038
651.6049	-0.0048
651.791	0.0063
651.9771	0.0107
652.1632	0.0097
652.3492	0.0029
652.5352	0.0051
652.7212	0.0093
652.9072	0.0076
653.0932	0.0029
653.2791	-0.0041
653.465	0.0017
653.651	-0.0062
653.8369	-0.0076
654.0227	0.0036
654.2086	0.0049
654.3944	0.0038
654.5803	0.0039
654.7661	0.0006
654.9519	0.0055
655.1377	-0.0026
655.3234	-0.0016
655.5092	-0.0051
655.6949	-0.0058
655.8806	-0.0084
656.0663	-0.0021
656.2519	-0.0043
656.4376	-0.0027
656.6232	0.0089
656.8088	0.0002
656.9945	0.0013
657.18	0.0076
657.3656	0.0055
657.5511	-0.0049
657.7367	-0.0057
657.9222	0.0096
658.1077	-0.003
658.2932	0.0064
658.4786	-0.0071
658.6641	-0.0051
658.8495	-0.003
659.0349	-0.0065
659.2203	0.0065
659.4057	0.0046
659.591	0.0035
659.7764	-0.0033
659.9617	0.004
660.147	-0.0008
660.3323	0.0097
660.5176	0.009
660.7028	0.0109
660.888	0.01
661.0733	0.002
661.2585	0.0012
661.4436	0.0028
661.6288	-0.0015
661.8139	0.0049
661.9991	0.0126
662.1842	0.0032
662.3693	-0.0012
662.5544	-0.0054
662.7394	0.0008
662.9245	-0.0021
663.1095	0.0042
663.2945	0.0077
663.4795	-0.0006
663.6644	0.0015
663.8494	0.0068
664.0343	0.0076
664.2193	-0.0044
664.4042	-0.0005
664.589	-0.0029
664.7739	-0.0014
664.9587	-0.0126
665.1436	-0.0013
665.3284	0.002
665.5132	-0.0016
665.698	-0
665.8827	0.0077
666.0675	-0.0025
666.2522	-0.0063
666.4369	-0.0053
666.6216	-0.0025
666.8063	0.0022
666.9909	0.0054
667.1756	-0.0038
667.3602	0.0051
667.5448	0.0027
667.7294	0.0089
667.9139	0.0007
668.0985	0.0144
668.283	0.0033
668.4675	0.0005
668.652	0.0044
668.8365	0.0055
669.0209	0.0086
669.2054	0.0162
669.3898	0.0052
669.5742	0.005
669.7586	0.0058
669.943	0.0152
670.1273	0.0081
670.3117	0.0156
670.496	0.0124
670.6803	0.0107
670.8646	0.0143
671.0488	-0.0005
671.2331	0.0092
671.4173	0.008
671.6015	0.0041
671.7857	0.0009
671.9699	0.0043
672.1541	0.0056
672.3382	-0.0006
672.5223	0.0057
672.7064	0.0058
672.8905	0.0039
673.0746	0.0054
673.2587	-0.0001
673.4427	0.0044
673.6267	0.0033
673.8107	0.0129
673.9947	0.0016
674.1787	0.0034
674.3626	-0.0072
674.5465	0.0066
674.7304	-0.0007
674.9143	0.0112
675.0982	0.011
675.2821	-0.0001
675.4659	0.011
675.6497	0.0029
675.8335	-0.0004
676.0173	0.0038
676.2011	0.0036
676.3849	0.0052
676.5686	-0.0029
676.7523	0.0015
676.936	-0.0017
677.1197	0.005
677.3034	0.0009
677.487	0.0056
677.6706	0.0036
677.8542	-0.0015
678.0378	0.0056
678.2214	0.0018
678.405	0.0003
678.5885	-0.006
678.772	0.0056
678.9555	-0.0017
679.139	-0.0017
679.3225	0.0026
679.5059	-0.0007
679.6894	0.003
679.8728	-0.007
680.0562	-0.0023
680.2395	-0.0022
680.4229	0.0011
680.6062	0.0012
680.7896	0.0046
680.9729	-0.0037
681.1562	0.005
681.3394	0.0033
681.5227	-0.007
681.7059	-0.0057
681.8891	0.0054
682.0723	0.0061
682.2555	0.0131
682.4387	-0.0051
682.6218	-0.0034
682.805	0.0021
682.9881	0.0099
683.1712	-0.0018
683.3542	-0.0004
683.5373	0.0031
683.7203	0.0034
683.9034	0.0037
684.0864	-0.007
684.2694	-0.0068
684.4523	0.0081
684.6353	-0.0053
684.8182	0.0005
685.0011	-0.0015
685.184	0.0036
685.3669	-0.0063
685.5498	0.004
685.7326	0.0049
685.9154	0.0021
686.0982	0.0078
686.281	-0.0018
686.4638	0.0074
686.6465	-0.0047
686.8293	-0.0085
687.012	0.0003
687.1947	-0.0066
687.3774	0.006
687.56	-0.0013
687.7427	0.0056
687.9253	-0.0031
688.1079	-0.0011
688.2905	0.0096
688.4731	0.0033
688.6556	0.0002
688.8382	-0.0047
689.0207	0.0086
689.2032	-0.008
689.3857	-0.0071
689.5681	-0.0013
689.7506	0.002
689.933	-0.0151
690.1154	-0.0032
690.2978	-0.002
690.4802	-0.0029
690.6626	-0.0042
690.8449	-0.0095
691.0272	0.0035
691.2095	-0.0032
691.3918	0.0017
691.5741	-0.0007
691.7563	-0.0007
691.9386	0.0008
692.1208	0.0015
692.303	0.0021
692.4852	0.0064
692.6673	0.0028
692.8495	0.001
693.0316	0.0016
693.2137	0.0019
693.3958	0.0028
693.5778	0.0013
693.7599	-0.0009
693.9419	0.0006
694.1239	0.0047
694.3059	-0.0038
694.4879	0.0083
694.6699	0.012
694.8518	0.0027
695.0337	0.0008
695.2157	0.0106
695.3975	0.0104
695.5794	0.0088
695.7613	0.008
695.9431	0.0052
696.1249	0.0094
696.3067	0.0068
696.4885	0.0067
696.6703	-0.003
696.852	0.0045
697.0337	0.0084
697.2154	0.0042
697.3971	0.008
697.5788	0.0122
697.7605	0.0052
697.9421	0.0058
698.1237	0.0081
698.3053	0.0044
698.4869	0.0002
698.6685	-0.0022
698.85	0.0069
699.0315	0.012
699.213	0.0016
699.3945	0.0048
699.576	0.0061
699.7575	0.0075
699.9389	0.0046
700.1203	-0.0063
700.3017	-0.0101
700.4831	-0.0042
700.6645	-0.0037
700.8458	0.0043
701.0271	-0.003
701.2084	0.0056
701.3897	0.0035
701.571	0.0038
701.7523	-0.0031
701.9335	0.0009
702.1147	-0.0023
702.2959	0.0015
702.4771	0.0068
702.6583	-0.0088
702.8394	-0.0092
703.0205	0.0029
703.2016	-0.008
703.3827	0.0027
703.5638	0.0055
703.7449	0.0067
703.9259	0.0108
704.1069	-0.0103
704.2879	0.0056
704.4689	-0.0034
704.6499	0.0049
704.8308	-0.0033
705.0117	-0.0037
705.1927	-0.001
705.3735	-0.0076
705.5544	0.0005
705.7353	-0.0027
705.9161	-0.0016
706.0969	-0.0089
706.2777	-0.0006
706.4585	-0.0023
706.6393	-0.0007
706.82	-0.0044
707.0007	-0.0001
707.1815	0.0029
707.3621	0.0049
707.5428	-0.0016
707.7235	-0.0033
707.9041	0.0017
708.0847	-0.0105
708.2653	-0.0051
708.4459	-0.015
708.6265	0.0004
708.807	-0.0081
708.9875	-0.0067
709.168	-0.0065
709.3485	-0.011
709.529	-0.0086
709.7095	-0.0107
709.8899	-0.0063
710.0703	-0.0083
710.2507	-0.0019
710.4311	-0.0039
710.6115	-0.004
710.7918	-0.0026
710.9721	0.0059
711.1524	-0.0084
711.3327	0.0012
711.513	0.0096
711.6932	0.0013
711.8735	0.0116
712.0537	0.0055
712.2339	-0.0117
712.4141	-0.0023
712.5942	0.0007
712.7744	-0.0032
712.9545	-0.0096
713.1346	-0.0079
713.3147	0.0009
713.4947	-0.0083
713.6748	-0.0041
713.8548	0.0026
714.0348	0.0009
714.2148	-0.0035
714.3948	0.0024
714.5748	-0.0067
714.7547	-0.0027
714.9346	0.0037
715.1145	0.0046
715.2944	-0.0003
715.4743	0.0024
715.6541	0.0002
715.834	0.01
716.0138	-0.0097
716.1936	-0.0159
716.3733	-0.0011
716.5531	0.0096
716.7328	-0.0033
716.9126	-0.0032
717.0923	0.0076
717.2719	0.004
717.4516	-0.0015
717.6312	-0.0031
717.8109	-0.0056
717.9905	-0.0004
718.1701	-0.0039
718.3496	-0.016
718.5292	0.0006
718.7087	-0.0099
718.8882	-0.0066
719.0677	0.0041
719.2472	-0.0024
719.4267	-0.0071
719.6061	0.0069
719.7856	0.0069
719.965	0.0081
720.1443	-0.0019
720.3237	0.0101
720.5031	0.0038
720.6824	0.0062
720.8617	-0.0038
721.041	0.0045
721.2203	0.0093
721.3995	0.0037
721.5788	0.0063
721.758	0.0134
721.9372	0.0009
722.1164	0.005
722.2956	0.0007
722.4747	-0.0043
722.6538	0.0031
722.8329	0.0125
723.012	0.0032
723.1911	-0.0064
723.3702	0.0043
723.5492	0.0085
723.7282	-0.0113
723.9072	-0.0034
724.0862	-0.0081
724.2652	-0.0027
724.4441	0.0046
724.623	-0.003
724.8019	-0.0034
724.9808	-0.0021
725.1597	-0.0089
725.3385	0.0039
725.5174	0.0016
725.6962	0.0035
725.875	-0.0012
726.0538	-0.0001
726.2325	-0.0078
726.4112	-0.0082
726.59	-0.008
726.7687	-0.0088
726.9474	0.0003
727.126	-0.0039
727.3047	-0.0038
727.4833	0.0016
727.6619	0.0073
727.8405	-0.0045
728.0191	0.0028
728.1976	0.0068
728.3762	-0.0029
728.5547	0.0036
728.7332	-0.0112
728.9116	0.0027
729.0901	0.0063
729.2686	-0.0067
729.447	-0.0003
729.6254	-0.0007
729.8038	0.0043
729.9821	-0.0078
730.1605	-0.0014
730.3388	-0.0006
730.5171	0.0092
730.6954	-0.0066
730.8737	0.0007
731.0519	0.0046
731.2302	0.0037
731.4084	0.0071
731.5866	0.0057
731.7648	-0.0037
731.9429	0.0026
732.1211	-0.0037
732.2992	0.0093
732.4773	-0.0057
732.6554	-0.005
732.8335	-0.0011
733.0115	-0.0037
733.1896	0.0062
733.3676	-0.0077
733.5456	0.0043
733.7235	0.001
733.9015	0.0019
734.0794	-0.0089
734.2574	-0.0062
734.4353	-0.0001
734.6131	0.0096
734.791	0.0083
734.9689	0.0039
735.1467	0.0044
735.3245	-0.0031
735.5023	-0.01
735.68	-0.0013
735.8578	0.0082
736.0355	-0.0155
736.2132	-0.0018
736.3909	-0.0012
736.5686	-0.0135
736.7463	0.0016
736.9239	-0.003
737.1015	-0.006
737.2791	0.0006
737.4567	-0.0025
737.6343	-0.0037
737.8118	0.005
737.9894	0.0066
738.1669	-0.0018
738.3444	-0.0025
738.5218	0.008
738.6993	0.0008
738.8767	0.0004
739.0541	0.0145
739.2315	-0.011
739.4089	-0.0002
739.5863	0.0079
739.7636	-0.0037
739.9409	0.0042
740.1182	0.0042
740.2955	-0.0005
740.4728	-0.002
740.65	-0.0025
740.8272	-0.0004
741.0044	-0.004
741.1816	0.0009
741.3588	-0.0025
741.5359	0.0004
741.7131	-0.0038
741.8902	0.0011
742.0673	-0.0074
742.2444	0.0015
742.4214	-0.0172
742.5985	-0.0041
742.7755	-0.0075
742.9525	-0.0165
743.1295	-0.0003
743.3064	-0.0018
743.4834	0.0168
743.6603	0.0018
743.8372	-0.0041
744.0141	0.0113
744.191	0.0087
744.3678	0.0061
744.5446	0.0048
744.7215	0.0135
744.8982	0.001
745.075	-0.005
745.2518	-0.0005
745.4285	0.0082
745.6052	0.0016
745.7819	-0.0004
745.9586	-0.0017
746.1353	0.0002
746.3119	-0.0062
746.4885	-0.0076
746.6651	-0.0117
746.8417	0.0026
747.0183	0
747.1948	-0.0114
747.3714	0.0005
747.5479	0.0013
747.7244	-0.0029
747.9008	0.013
748.0773	0.0034
748.2537	-0.0023
748.4301	-0.0111
748.6065	0.0029
748.7829	-0.0014
748.9593	-0.0003
749.1356	0.0012
749.3119	-0.0002
749.4882	-0.0117
749.6645	-0.0006
749.8408	-0.0083
750.017	-0.0064
750.1933	-0.0025
750.3695	-0.0082
750.5457	0.0071
750.7218	-0.0097
750.898	0.0064
751.0741	-0.0029
751.2502	-0.0014
751.4263	-0.0062
751.6024	0.0031
751.7784	-0.0015
751.9545	0.0008
752.1305	0.0011
752.3065	-0.0088
752.4825	0.0098
752.6584	-0.0074
752.8344	0.0041
753.0103	-0.0037
753.1862	-0.0055
753.3621	-0.009
753.5379	-0.0025
753.7138	-0.0019
753.8896	-0.0072
754.0654	0.0045
754.2412	0.006
754.417	0.0013
754.5927	0.0013
754.7685	-0.0051
754.9442	-0.0016
755.1199	0.0061
755.2956	-0.0011
755.4712	0.0138
755.6469	0.0061
755.8225	-0.0051
755.9981	0.0014
756.1736	-0.0006
756.3492	0.0083
756.5248	0.0043
756.7003	-0.0016
756.8758	0.0055
757.0513	-0.01
757.2267	-0.006
757.4022	0.0127
757.5776	0.0002
757.753	-0.0011
757.9284	0.0001
758.1038	0.0084
758.2791	0.0043
758.4545	-0.0071
758.6298	-0.0046
758.8051	0.0006
758.9803	0
759.1556	0.0021
759.3308	-0.0046
759.506	0.0133
759.6812	0.0106
759.8564	0.0067
760.0316	0.015
760.2067	0.0116
760.3819	0.0102
760.557	0.0202
760.732	0.0088
760.9071	-0.0069
761.0821	0.0112
761.2572	0.0119
761.4322	-0.0004
761.6072	0.0023
761.7821	-0.0047
761.9571	0.0005
762.132	-0.0018
762.3069	-0.0065
762.4818	-0.0009
762.6567	-0.0062
762.8316	-0.0034
763.0064	-0.0017
763.1812	-0.0068
763.356	-0.0084
763.5308	-0.0051
763.7055	-0.0024
763.8803	0.0009
764.055	-0.0058
764.2297	-0.0043
764.4044	-0.0071
764.579	-0.0022
764.7537	-0.0156
764.9283	-0.0068
765.1029	-0.008
765.2775	-0.006
765.4521	-0.0177
765.6266	-0.0051
765.8011	-0.0077
765.9756	-0.0029
766.1501	0.0007
766.3246	-0.0014
766.4991	0.0026
766.6735	-0.004
766.8479	-0.0081
767.0223	0.0087
767.1967	-0.0016
767.371	0.008
767.5454	-0.0084
767.7197	0.0002
767.894	0.0006
768.0683	-0.0085
768.2425	-0.0034
768.4168	0.0027
768.591	0.0115
768.7652	0
768.9394	0.0044
769.1135	-0.0021
769.2877	0.0107
769.4618	-0.0012
769.6359	0.0007
769.81	0.0026
769.984	0.0018
770.1581	-0.0042
770.3321	-0.003
770.5061	-0.0029
770.6801	-0.0035
770.8541	0.0004
771.028	-0.0075
771.202	-0.0157
771.3759	0.0045
771.5498	-0.0121
771.7236	0.0065
771.8975	-0.0096
772.0713	0.0026
772.2451	0.0078
772.4189	0.0057
772.5927	0.0018
772.7665	0.0056
772.9402	-0.004
773.1139	0.0112
773.2876	-0.0035
773.4613	0.0101
773.635	0.004
773.8086	-0.0008
773.9822	0.0023
774.1558	0.0056
774.3294	-0.0101
774.503	0.0005
774.6765	0.0035
774.8501	0.0011
775.0236	0.0114
775.1971	0.0083
775.3705	-0.0061
775.544	-0.0008
775.7174	-0.0095
775.8908	-0.004
776.0642	0.0033
776.2376	-0.0053
776.4109	-0.0083
776.5843	0.007
776.7576	-0.0012
776.9309	0.0084
777.1041	-0.0024
777.2774	0.014
777.4506	-0.0004
777.6238	-0.0027
777.797	-0.0105
777.9702	0.0018
778.1434	-0.0009
778.3165	-0.0081
778.4896	-0.0057
778.6627	0.0136
778.8358	0.0062
779.0089	0.0009
779.1819	-0.0067
779.3549	0.0159
779.5279	0.0072
779.7009	0.0038
779.8739	0.0056
780.0468	-0.0062
780.2197	0.0012
780.3926	0.0053
780.5655	-0.0093
780.7384	0.0069
780.9112	-0.0024
781.0841	-0.0146
781.2569	0.0021
781.4297	-0.0005
781.6024	0.0116
781.7752	0.0053
781.9479	0.0065
782.1206	0.0079
782.2933	-0.0047
782.466	-0.0054
782.6386	-0.0078
782.8113	-0.0022
782.9839	-0.0029
783.1565	0.0057
783.329	-0.0032
783.5016	0.0152
783.6741	0.0068
783.8466	-0.0036
784.0191	-0.0011
784.1916	-0.013
784.3641	0.0018
784.5365	-0.0057
784.7089	0.0026
784.8813	-0.0153
785.0537	-0.0066
785.2261	-0.0105
785.3984	-0.0173
785.5707	-0.0035
785.743	-0.0033
785.9153	-0.006
786.0876	-0.0013
786.2598	-0.009
786.432	-0.0194
786.6042	-0.0022
786.7764	-0.0063
786.9486	-0.0111
787.1207	-0.006
787.2928	-0.0159
787.4649	0.0007
787.637	-0.0066
787.8091	-0.0007
787.9811	-0.009
788.1532	-0.0022
788.3252	0.0068
788.4972	-0.0066
788.6691	-0.0137
788.8411	-0.0027
789.013	-0.0115
789.1849	-0.0013
789.3568	-0.0102
789.5287	-0.0058
789.7005	-0.0137
789.8723	-0.0009
790.0442	0.0128
790.2159	-0.0063
790.3877	-0.0054
790.5595	-0.0223
790.7312	0.0022
790.9029	-0.0085
791.0746	-0.023
791.2463	-0.0145
791.4179	-0.012
791.5896	-0.0107
791.7612	0.0024
791.9328	-0.0015
792.1044	-0.0201
792.2759	-0.0171
792.4474	-0.0105
792.619	-0.0064
792.7905	0.0214
792.9619	-0.0057
793.1334	-0.0087
793.3048	0.017
793.4762	0.0095
793.6476	0.006
793.819	-0.0098
793.9904	0.0106
794.1617	-0.0139
794.333	0.0004
794.5043	-0.0142
794.6756	-0.015
794.8469	-0.0035
795.0181	-0.0066
795.1893	-0.0108
795.3605	-0.0025
795.5317	-0.0194
795.7029	-0.0013
795.874	-0.0001
796.0452	-0.0065
796.2163	-0.005
796.3873	0.0159
796.5584	0.007
796.7294	-0.01
796.9005	-0.0034
797.0715	-0.0017
797.2425	0.0023
797.4134	-0.0186
797.5844	0.0024
797.7553	-0.0182
797.9262	-0.005
798.0971	-0.0013
798.2679	-0.0294
798.4388	-0.0137
798.6096	0.002
798.7804	-0.0039
798.9512	-0.0157
799.122	0.0031
799.2927	-0.0111
799.4635	-0.0029
799.6342	-0.0119
799.8049	0.0147
799.9755	-0.0017
800.1462	-0.0005
800.3168	0.0188
800.4874	-0.0015
800.658	0.0253
800.8286	0.0117
800.9991	0.008
801.1696	0.0182
801.3402	0.0088
801.5106	0.0181
801.6811	-0.0061
801.8516	0.0054
802.022	-0.0012
802.1924	0.0112
802.3628	0.0072
802.5332	-0.0008
802.7035	0.0081
802.8739	-0.0058
803.0442	-0.0021
803.2145	-0.0057
803.3847	-0.0109
803.555	0.0024
803.7252	-0.0076
803.8954	-0.0113
804.0656	-0.0042
804.2358	0.0104
804.4059	0.0213
804.5761	-0.0106
804.7462	0.002
804.9163	0.0064
805.0864	-0.0089
805.2564	-0.0132
805.4264	0.0058
805.5965	-0.0086
805.7665	0.0007
805.9364	-0.0086
806.1064	0.0328
806.2763	-0.0059
806.4462	0.0111
806.6161	0.0094
806.786	-0.0034
806.9559	-0.0111
807.1257	0.004
807.2955	-0.0069
807.4653	-0.0105
807.6351	-0.0133
807.8048	0.0015
807.9746	0.0034
808.1443	0.0021
808.314	-0.0026
808.4837	0.0001
808.6533	-0.0084
808.8229	0.0377
808.9926	-0.0109
809.1622	0.0115
809.3317	-0.0012
809.5013	-0.0086
809.6708	0.0028
809.8403	0.0006
810.0098	0.0054
810.1793	0.0054
810.3488	0.0175
810.5182	-0.0259
810.6876	0.0186
810.857	-0.0177
811.0264	0.0143
811.1958	-0.0017
811.3651	0.0112
811.5344	0.0051
811.7037	-0.0044
811.873	-0.0179
812.0422	-0.0033
812.2115	-0.0251
812.3807	-0.0137
812.5499	-0.0066
812.7191	0.0145
812.8882	-0.0272
813.0574	0.0048
813.2265	-0.008
813.3956	0.0001
813.5646	-0.0138
813.7337	-0.0165
813.9027	0.0099
814.0718	0.0366
814.2407	0.0074
814.4097	-0.0107
814.5787	0.003
814.7476	-0.0092
814.9165	-0.0074
815.0854	-0.007
815.2543	-0.0191
815.4232	-0.0089
815.592	0.0153
815.7608	0.0163
815.9296	0.0117
816.0984	0.0027
816.2671	0.0001
816.4359	0.004
816.6046	0.0199
816.7733	-0.009
816.942	-0.0102
817.1106	0.0264
817.2793	0.0193
817.4479	-0.0018
817.6165	0.0157
817.785	-0.0015
817.9536	-0.0207
818.1221	-0.0079
818.2906	-0.01
818.4591	-0.0333
818.6276	0.0048
818.7961	0.0121
818.9645	0.0031
819.1329	0.0301
819.3013	0.0159
819.4697	0.0346
819.638	-0.0037
819.8064	0.0185
819.9747	-0.0013
820.143	0.0052
820.3113	-0.0146
820.4795	0.0086
820.6477	0.0141
820.816	0.0241
820.9842	-0.0099
821.1523	-0.0234
821.3205	-0.017
821.4886	0.0085
821.6567	0.0048
821.8248	0.0145
821.9929	0.0356
822.1609	-0.0223
822.329	0.0293
822.497	0.0329
822.665	-0.0089
822.833	0.0091
823.0009	-0.0275
823.1688	0.039
823.3367	0.0213
823.5046	0.044
823.6725	0.0204
823.8404	-0.0127
824.0082	0.0128
824.176	0.0405
824.3438	0.0263
824.5116	0.0009
824.6793	0.0211
824.847	0.0013
825.0147	0.0166
825.1824	0.0259
825.3501	0.0278
825.5177	-0.0199
825.6854	0.001
825.853	0.0077
826.0206	-0.0208
826.1881	-0.0114
826.3557	-0.0274
826.5232	0.0124
826.6907	-0.0443
826.8582	-0.0053
827.0257	-0.0104
827.1931	0.0181
827.3605	0.0171
827.528	0.0119
827.6953	-0.0232
827.8627	-0.0119
828.03	0.0306
828.1974	-0.0147
828.3647	-0.0402
828.532	0.0016
828.6992	-0.0144
828.8665	-0.0013
829.0337	-0.0044
829.2009	0.0174
829.3681	0.0089
829.5352	0.0292
829.7024	-0.0136
829.8695	-0.0254
830.0366	0.0215
830.2037	0.0001
830.3707	0.0026
830.5378	-0.0115
830.7048	-0.008
830.8718	-0.0174
831.0388	-0.0461
831.2057	0.0209
831.3727	0.0359
831.5396	0.003
831.7065	-0.0179
831.8734	-0.0079
832.0402	-0.0374
832.2071	-0.0186
832.3739	-0.021
832.5407	0.0117
832.7075	-0.0253
832.8742	-0.034
833.041	-0.0194
833.2077	0.0208
833.3744	0.0133
833.541	-0.007
833.7077	-0.0182
833.8743	-0.0127
834.0409	0.0176
834.2075	0.0002
834.3741	-0.0029
834.5407	-0.0036
834.7072	-0.0203
834.8737	-0.0071
835.0402	-0.0163
835.2067	0.0077
835.3731	-0.0129
835.5395	0.0382
835.706	0.0073
835.8723	0.006
836.0387	0.0022
836.2051	0.0093
836.3714	-0.0012
836.5377	-0.0026
836.704	-0.0308
836.8703	0.0072
837.0365	-0.0456
837.2027	-0.0176
837.3689	-0.0126
837.5351	-0.0146
837.7013	-0.0434
837.8674	-0.0525
838.0335	-0.0091
838.1997	-0.0126
838.3657	-0.0145
838.5318	-0.0388
838.6978	0.0216
838.8639	0.0447
839.0299	-0.0142
839.1958	-0.0401
839.3618	-0.0158
839.5277	-0.0049
839.6937	-0.0096
839.8596	-0.0684
840.0254	0.0069
840.1913	-0.0104
840.3571	0.0199
840.523	-0.0259
840.6888	-0.0217
840.8545	-0.0045
841.0203	0.002
841.186	0.0002
841.3517	0.0261
841.5174	0.0263
841.6831	-0.0245
841.8488	0.0112
842.0144	-0.0025
842.18	-0.0007
842.3456	-0.0154
842.5112	-0.033
842.6767	0.0052
842.8422	-0.0134
843.0077	-0.0391
843.1732	-0.0615
843.3387	0.0048
843.5042	-0.0736
843.6696	-0.0092
843.835	-0.036
844.0004	0.0346
844.1657	0.0073
844.3311	-0.0162
844.4964	-0.0969
844.6617	-0.0431
844.827	-0.0112
844.9923	0.0323
845.1575	-0.0149
845.3227	-0.0298
845.4879	-0.0322
845.6531	-0.0381
845.8183	-0.0791
845.9834	-0.0132
846.1485	0.0215
846.3136	-0.0612
846.4787	-0.1043
846.6438	0.0617
846.8088	-0.024
846.9738	-0.0656
847.1388	-0.0734
847.3038	-0.0218
847.4687	-0.1343
847.6337	-0.0112
847.7986	-0.0672
847.9635	0.0033
848.1284	-0.0091
848.2932	0.0599
848.458	-0.0759
848.6228	0.0116
848.7876	0.123
848.9524	-0.091
849.1172	-0.0979
849.2819	-0.0485
849.4466	-0.1301
849.6113	-0.1346
849.7759	0.0065
849.9406	-0.0326
850.1052	0.0448
850.2698	0.0024
850.4344	-0.0335
850.599	-0.0646
850.7635	0.03
850.928	-0.0336
851.0925	-0.0146
851.257	-0.0066
851.4215	0.0515
851.5859	-0.0955
851.7503	0.0491
851.9147	0.0293
852.0791	-0.0992
852.2434	-0.0163
852.4078	0.0313
852.5721	0.0518
852.7364	-0.0894
852.9007	-0.1194
853.0649	-0.0945
853.2291	-0.0237
853.3934	0.0443
853.5575	-0.0671
853.7217	-0.1318
853.8859	-0.0601
854.05	-0.0942
854.2141	-0.0577
854.3782	-0.182
854.5423	-0.0122
854.7063	0.1221
854.8703	0.0263
855.0343	-0.0267
855.1983	-0.0975
855.3623	0.0751
855.5262	0.0755
855.6901	0.0206
855.854	-0.126
856.0179	0.0118
856.1818	0.06
856.3456	-0.0961
856.5094	-0.0986
856.6732	-0.1012
856.837	-0.0507
857.0008	0.0093
857.1645	-0.064
857.3282	-0.2185
857.4919	0.0271
857.6556	-0.019
857.8192	0.0495
857.9828	0.0424
858.1465	0.1221
858.31	-0.2004
858.4736	0.0261
858.6372	-0.2637
858.8007	-0.185
858.9642	-0.0212
859.1277	-0.0432
859.2911	0.2037
859.4546	0.0094
859.618	-0.2199
859.7814	-0.1139
859.9448	0.15
860.1081	-0.0391
860.2715	0.1015
860.4348	-0.0581
860.5981	-0.0437
860.7614	0.2748
860.9246	-0.2092
861.0879	-0.2012
861.2511	0.0008
861.4143	-0.2715
861.5774	-0.013
861.7406	-0.2739
861.9037	0.1247
862.0668	-0.005
862.2299	-0.2246
862.393	-0.617
862.556	0.0114
862.7191	-0.327
862.8821	-0.313
863.0451	0.0602
863.208	-0.0389
863.371	0.162
863.5339	-0.2751
863.6968	-0.0629
863.8597	0.1681
864.0225	-0.1884
864.1854	0.1275
864.3482	-0
864.511	0.1335
864.6737	-0.0177
864.8365	-0.1099
864.9992	-0.5129
865.1619	-0.4458
865.3246	-0.3395
865.4873	0.0593
865.65	-0.1622
865.8126	0.4425
865.9752	0.0124
866.1378	-0.1814
866.3004	-0
866.4629	0.2907
866.6254	0.2541
866.7879	0.8149
866.9504	-0
867.1129	-0
867.2753	-0.1091
867.4377	0.2498
867.6001	-0.1986
867.7625	0.0018
867.9249	-0.7499
868.0872	-0.1186
868.2495	-0.1625
868.4118	-0.1829
868.5741	-0.3448
868.7363	-0.1875
868.8986	0.1481
869.0608	-0.1251
869.223	0.102
869.3851	-0.0213
869.5473	-0
869.7094	0.0437
869.8715	-0.7066
870.0336	-0
870.1957	-0.353
870.3577	-0
870.5197	0.183
870.6817	-0.4731
870.8437	-0.1046
871.0057	-0
871.1676	-0.5717
871.3295	0.4872
871.4914	-0.4325
871.6533	-0.3539
871.8151	-0.5761
871.977	-0
872.1388	-0
872.3006	-0
872.4623	-0
872.6241	0.6328
872.7858	-0.0479
872.9475	-0.264
873.1092	0.4973
873.2709	-0
873.4325	-0.1344
873.5941	-0.1539
873.7557	0.5037
873.9173	-0
874.0789	0.2758
874.2404	-0.2208
874.4019	0.1422
874.5634	0.0577
874.7249	0.3968
874.8863	0.1027
875.0478	0.4494
875.2092	-0
875.3706	0.1839
875.5319	-0.1853
875.6933	-0
875.8546	0.1714
876.0159	0.5912
876.1772	0.0605
876.3385	-0
876.4997	0.6786
876.6609	-0.4271
876.8221	-0.4848
876.9833	-0.08
877.1445	-0
877.3056	0.0587
877.4667	0.2845
877.6278	-0
877.7889	-0.5552
877.9499	-0
878.111	-0.3629
878.272	-0
878.433	0.401
878.5939	-0
878.7549	-0.2335
878.9158	-0.7004
879.0767	-0
879.2376	0.6098
879.3984	0.3293
879.5593	-0
879.7201	-0.2405
879.8809	-0.6823
880.0417	-0.1599
880.2024	0.0031
880.3632	-0.8379
880.5239	0.0481
880.6846	0.4574
880.8452	-2.5629
881.0059	-1.4609
881.1665	-0
881.3271	0.706
881.4877	0.0108
881.6483	-0.2213
881.8088	-0.2755
881.9693	0.1714
882.1298	0.1714
882.2903	0.1714
