Data from MonoPyChalIsomerACN10uM440nmA_Absorbance_15-27-17-794.txt Node
Date: Fri Jul 05 15:27:17 BST 2024
User: LASERRRRR
Spectrometer: FLMT03099
Trigger mode: 0
Integration Time (sec): 1.000000E-1
Scans to average: 1
Electric dark correction enabled: true
Nonlinearity correction enabled: false
Boxcar width: 0
XAxis mode: Wavelengths
Number of Pixels in Spectrum: 3648
>>>>>Begin Spectral Data<<<<<
179.3399	0.0473
179.5586	0.0473
179.7771	0.0473
179.9957	0.057
180.2143	-0.0429
180.4329	-0.1285
180.6514	-0
180.8699	-0
181.0885	-0.107
181.307	0.594
181.5255	-0
181.744	-0.0774
181.9625	-0
182.181	-0.2478
182.3994	-0
182.6179	-0
182.8363	0.674
183.0547	-0.0645
183.2732	0.1265
183.4916	0.3704
183.71	0.0296
183.9284	0.0425
184.1467	-0.1746
184.3651	-0.0689
184.5835	0.0494
184.8018	0.4531
185.0201	-0.0175
185.2385	-0.0984
185.4568	0.1734
185.6751	0.0197
185.8934	0.5941
186.1117	-0.0135
186.3299	0.0049
186.5482	0.1077
186.7664	-0.1002
186.9847	0.1102
187.2029	0.0351
187.4211	0.2243
187.6393	0.1165
187.8575	-0.1881
188.0757	0.1438
188.2939	0.1732
188.512	-0.0132
188.7302	0.0518
188.9483	-0.0463
189.1665	0.0927
189.3846	0.0173
189.6027	0.2042
189.8208	0.1022
190.0389	-0.0218
190.257	0.1612
190.475	0.3229
190.6931	0.476
190.9111	0.5763
191.1292	0.1353
191.3472	0.3264
191.5652	0.2713
191.7832	0.2074
192.0012	0.6541
192.2192	0.357
192.4371	0.5633
192.6551	0.341
192.873	0.4373
193.091	0.3655
193.3089	0.6968
193.5268	0.6717
193.7447	0.5558
193.9626	0.6775
194.1805	0.7412
194.3984	0.5265
194.6162	0.5379
194.8341	0.4223
195.0519	0.7598
195.2697	1.0154
195.4875	0.6942
195.7054	0.8288
195.9231	0.6415
196.1409	0.5157
196.3587	0.5165
196.5765	0.6176
196.7942	0.6152
197.012	0.5312
197.2297	0.7944
197.4474	0.7514
197.6651	0.4461
197.8828	0.5654
198.1005	0.5507
198.3182	0.4923
198.5358	0.7378
198.7535	0.7132
198.9711	0.5477
199.1888	0.8062
199.4064	0.8138
199.624	0.7515
199.8416	0.5267
200.0592	0.7375
200.2767	0.6236
200.4943	0.6503
200.7119	1.0844
200.9294	0.7181
201.1469	0.5861
201.3645	0.5081
201.582	0.5698
201.7995	0.6772
202.017	0.6573
202.2344	0.6002
202.4519	0.6673
202.6694	0.6526
202.8868	0.6821
203.1042	0.7936
203.3217	0.7331
203.5391	0.6579
203.7565	0.6836
203.9739	0.6104
204.1913	0.6712
204.4086	0.6438
204.626	0.7578
204.8433	0.6409
205.0607	0.6385
205.278	0.5966
205.4953	0.5783
205.7126	0.704
205.9299	0.8198
206.1472	0.6329
206.3644	0.6029
206.5817	0.7782
206.7989	0.6765
207.0162	0.6642
207.2334	0.7351
207.4506	0.6866
207.6678	0.6462
207.885	0.6308
208.1022	0.6812
208.3194	0.7007
208.5365	0.7174
208.7537	0.6251
208.9708	0.549
209.1879	0.7616
209.405	0.6362
209.6222	0.7509
209.8392	0.6647
210.0563	0.5809
210.2734	0.7146
210.4905	0.638
210.7075	0.6699
210.9245	0.6468
211.1416	0.6582
211.3586	0.6074
211.5756	0.63
211.7926	0.621
212.0096	0.5996
212.2265	0.6119
212.4435	0.5376
212.6604	0.6187
212.8774	0.5733
213.0943	0.5808
213.3112	0.6227
213.5281	0.5057
213.745	0.508
213.9619	0.5043
214.1788	0.4939
214.3956	0.4803
214.6125	0.4474
214.8293	0.4683
215.0461	0.5136
215.2629	0.4532
215.4798	0.4824
215.6965	0.4271
215.9133	0.4555
216.1301	0.442
216.3469	0.4513
216.5636	0.4299
216.7803	0.3919
216.9971	0.4263
217.2138	0.3795
217.4305	0.3785
217.6472	0.3543
217.8639	0.3913
218.0805	0.3326
218.2972	0.3135
218.5138	0.3085
218.7305	0.3363
218.9471	0.287
219.1637	0.2728
219.3803	0.2913
219.5969	0.2691
219.8135	0.2481
220.0301	0.2627
220.2466	0.2663
220.4632	0.2334
220.6797	0.2424
220.8962	0.2428
221.1127	0.2566
221.3292	0.2465
221.5457	0.2396
221.7622	0.22
221.9787	0.2509
222.1951	0.2152
222.4116	0.2532
222.628	0.2394
222.8444	0.2576
223.0608	0.2468
223.2772	0.2405
223.4936	0.2642
223.71	0.2623
223.9264	0.282
224.1427	0.2417
224.3591	0.2293
224.5754	0.2556
224.7917	0.2531
225.008	0.2504
225.2243	0.2568
225.4406	0.2708
225.6569	0.2447
225.8732	0.2545
226.0894	0.273
226.3057	0.258
226.5219	0.2818
226.7381	0.2698
226.9543	0.2659
227.1705	0.2859
227.3867	0.2778
227.6029	0.2979
227.8191	0.2965
228.0352	0.2829
228.2513	0.3061
228.4675	0.3134
228.6836	0.2796
228.8997	0.2811
229.1158	0.2985
229.3319	0.2936
229.548	0.3199
229.764	0.3251
229.9801	0.317
230.1961	0.3222
230.4121	0.3135
230.6282	0.3464
230.8442	0.3209
231.0602	0.3439
231.2761	0.3351
231.4921	0.3489
231.7081	0.3493
231.924	0.3444
232.14	0.3533
232.3559	0.3323
232.5718	0.3525
232.7877	0.3531
233.0036	0.3388
233.2195	0.3466
233.4353	0.3317
233.6512	0.3597
233.867	0.3635
234.0829	0.3475
234.2987	0.387
234.5145	0.3566
234.7303	0.362
234.9461	0.3835
235.1619	0.3687
235.3776	0.3799
235.5934	0.3811
235.8091	0.3701
236.0249	0.3782
236.2406	0.375
236.4563	0.3909
236.672	0.3904
236.8877	0.3918
237.1034	0.4001
237.319	0.378
237.5347	0.4031
237.7503	0.3898
237.966	0.3994
238.1816	0.3876
238.3972	0.388
238.6128	0.3758
238.8284	0.3785
239.0439	0.4098
239.2595	0.3825
239.475	0.4107
239.6906	0.4102
239.9061	0.3953
240.1216	0.3692
240.3371	0.4028
240.5526	0.3967
240.7681	0.4188
240.9836	0.3844
241.199	0.3953
241.4145	0.3842
241.6299	0.3836
241.8453	0.3752
242.0607	0.3759
242.2761	0.3658
242.4915	0.3845
242.7069	0.3681
242.9223	0.3483
243.1376	0.3482
243.353	0.3443
243.5683	0.3585
243.7836	0.325
243.9989	0.3326
244.2142	0.3135
244.4295	0.3261
244.6448	0.3049
244.86	0.2987
245.0753	0.3019
245.2905	0.297
245.5057	0.2856
245.721	0.2764
245.9362	0.2737
246.1514	0.2774
246.3665	0.2646
246.5817	0.2587
246.7969	0.2409
247.012	0.2515
247.2271	0.233
247.4423	0.2494
247.6574	0.2466
247.8725	0.25
248.0876	0.2152
248.3026	0.2286
248.5177	0.2265
248.7328	0.2149
248.9478	0.206
249.1628	0.2117
249.3779	0.2291
249.5929	0.2003
249.8079	0.2343
250.0228	0.2092
250.2378	0.206
250.4528	0.2102
250.6677	0.1862
250.8827	0.1864
251.0976	0.1884
251.3125	0.1946
251.5274	0.1735
251.7423	0.1921
251.9572	0.1884
252.172	0.17
252.3869	0.1913
252.6017	0.1765
252.8166	0.1784
253.0314	0.1647
253.2462	0.1783
253.461	0.1707
253.6758	0.1668
253.8906	0.1781
254.1053	0.152
254.3201	0.1702
254.5348	0.1791
254.7496	0.1819
254.9643	0.1689
255.179	0.1724
255.3937	0.1612
255.6083	0.1765
255.823	0.1643
256.0377	0.1641
256.2523	0.1742
256.467	0.1523
256.6816	0.173
256.8962	0.1699
257.1108	0.1727
257.3254	0.1744
257.54	0.1756
257.7545	0.1667
257.9691	0.1769
258.1836	0.1619
258.3981	0.1793
258.6127	0.184
258.8272	0.165
259.0417	0.1622
259.2561	0.1711
259.4706	0.1694
259.6851	0.1625
259.8995	0.1643
260.114	0.1652
260.3284	0.16
260.5428	0.1606
260.7572	0.1564
260.9716	0.1849
261.186	0.1569
261.4003	0.1773
261.6147	0.1738
261.829	0.1553
262.0433	0.155
262.2577	0.1682
262.472	0.1643
262.6863	0.1608
262.9005	0.164
263.1148	0.1704
263.3291	0.1448
263.5433	0.167
263.7576	0.1542
263.9718	0.1684
264.186	0.1628
264.4002	0.1594
264.6144	0.1561
264.8286	0.1696
265.0427	0.1581
265.2569	0.1627
265.471	0.1578
265.6851	0.1647
265.8993	0.1542
266.1134	0.1655
266.3275	0.1602
266.5415	0.1494
266.7556	0.1691
266.9697	0.1596
267.1837	0.1648
267.3978	0.1592
267.6118	0.1759
267.8258	0.1795
268.0398	0.1542
268.2538	0.1702
268.4677	0.1711
268.6817	0.1528
268.8957	0.1496
269.1096	0.1688
269.3235	0.1678
269.5374	0.1528
269.7514	0.1563
269.9652	0.1631
270.1791	0.1578
270.393	0.1465
270.6068	0.1589
270.8207	0.1525
271.0345	0.1437
271.2483	0.1681
271.4622	0.1498
271.676	0.1631
271.8897	0.1451
272.1035	0.1548
272.3173	0.1483
272.531	0.1364
272.7448	0.1537
272.9585	0.1389
273.1722	0.1521
273.3859	0.1431
273.5996	0.1422
273.8133	0.1532
274.0269	0.1363
274.2406	0.1467
274.4542	0.1577
274.6679	0.1378
274.8815	0.1426
275.0951	0.1629
275.3087	0.1486
275.5223	0.1527
275.7358	0.1509
275.9494	0.1592
276.1629	0.1459
276.3765	0.1526
276.59	0.1612
276.8035	0.1411
277.017	0.1491
277.2305	0.1332
277.444	0.1527
277.6574	0.144
277.8709	0.1549
278.0843	0.1441
278.2978	0.1473
278.5112	0.1485
278.7246	0.1552
278.938	0.1472
279.1513	0.1562
279.3647	0.1638
279.5781	0.1601
279.7914	0.1513
280.0047	0.1521
280.2181	0.1495
280.4314	0.1537
280.6447	0.1599
280.8579	0.1519
281.0712	0.164
281.2845	0.1541
281.4977	0.1567
281.711	0.1468
281.9242	0.146
282.1374	0.1612
282.3506	0.1501
282.5638	0.1511
282.7769	0.1644
282.9901	0.149
283.2033	0.1572
283.4164	0.1644
283.6295	0.1438
283.8426	0.1545
284.0557	0.1543
284.2688	0.1746
284.4819	0.1614
284.695	0.1642
284.908	0.1566
285.1211	0.1497
285.3341	0.1626
285.5471	0.174
285.7601	0.1672
285.9731	0.1534
286.1861	0.1486
286.3991	0.1623
286.612	0.1661
286.825	0.1583
287.0379	0.1729
287.2508	0.1558
287.4637	0.1778
287.6766	0.1464
287.8895	0.1656
288.1024	0.1738
288.3152	0.1655
288.5281	0.166
288.7409	0.1604
288.9538	0.1728
289.1666	0.1522
289.3794	0.1545
289.5922	0.1581
289.8049	0.1496
290.0177	0.1584
290.2304	0.1578
290.4432	0.1628
290.6559	0.1448
290.8686	0.1619
291.0813	0.1597
291.294	0.1565
291.5067	0.1675
291.7194	0.1537
291.932	0.1653
292.1447	0.1656
292.3573	0.1496
292.5699	0.1617
292.7825	0.1669
292.9951	0.1557
293.2077	0.1576
293.4203	0.1547
293.6328	0.145
293.8454	0.173
294.0579	0.1597
294.2704	0.1564
294.4829	0.1469
294.6954	0.1535
294.9079	0.1497
295.1204	0.1581
295.3328	0.1603
295.5453	0.1598
295.7577	0.1568
295.9701	0.1516
296.1825	0.1567
296.3949	0.1518
296.6073	0.1587
296.8197	0.1445
297.0321	0.1667
297.2444	0.1425
297.4567	0.168
297.6691	0.1513
297.8814	0.1457
298.0937	0.1602
298.306	0.1692
298.5182	0.1593
298.7305	0.1541
298.9428	0.1464
299.155	0.1622
299.3672	0.1573
299.5794	0.1484
299.7916	0.1514
300.0038	0.1651
300.216	0.1515
300.4282	0.1549
300.6403	0.1493
300.8525	0.1546
301.0646	0.1481
301.2767	0.1544
301.4888	0.1481
301.7009	0.1571
301.913	0.1528
302.125	0.1646
302.3371	0.1551
302.5491	0.1555
302.7612	0.1643
302.9732	0.1631
303.1852	0.1571
303.3972	0.1512
303.6092	0.1439
303.8211	0.1479
304.0331	0.1435
304.245	0.1397
304.457	0.1527
304.6689	0.1511
304.8808	0.1593
305.0927	0.134
305.3046	0.1385
305.5164	0.1614
305.7283	0.1462
305.9401	0.1502
306.152	0.1428
306.3638	0.144
306.5756	0.1448
306.7874	0.1451
306.9992	0.1469
307.2109	0.1326
307.4227	0.1309
307.6344	0.139
307.8462	0.1327
308.0579	0.1322
308.2696	0.132
308.4813	0.1312
308.693	0.1297
308.9046	0.1321
309.1163	0.1189
309.328	0.1193
309.5396	0.1132
309.7512	0.1158
309.9628	0.1275
310.1744	0.127
310.386	0.118
310.5976	0.1146
310.8091	0.1196
311.0207	0.1171
311.2322	0.1114
311.4437	0.1136
311.6552	0.1119
311.8667	0.1213
312.0782	0.1082
312.2897	0.111
312.5012	0.1145
312.7126	0.1036
312.924	0.0981
313.1355	0.1049
313.3469	0.1175
313.5583	0.119
313.7696	0.1076
313.981	0.102
314.1924	0.0926
314.4037	0.1081
314.6151	0.1018
314.8264	0.0982
315.0377	0.1105
315.249	0.1114
315.4603	0.114
315.6716	0.1027
315.8828	0.1021
316.0941	0.1078
316.3053	0.1028
316.5165	0.0971
316.7277	0.1
316.9389	0.103
317.1501	0.1002
317.3613	0.1043
317.5724	0.0906
317.7836	0.1074
317.9947	0.0917
318.2058	0.0999
318.417	0.0953
318.6281	0.0897
318.8391	0.0947
319.0502	0.0887
319.2613	0.0983
319.4723	0.1058
319.6834	0.1036
319.8944	0.0942
320.1054	0.1037
320.3164	0.0897
320.5274	0.096
320.7383	0.093
320.9493	0.0966
321.1602	0.1083
321.3712	0.0992
321.5821	0.1019
321.793	0.1007
322.0039	0.0997
322.2148	0.1005
322.4257	0.0984
322.6365	0.1164
322.8474	0.1026
323.0582	0.0985
323.269	0.1078
323.4798	0.1105
323.6906	0.1047
323.9014	0.1093
324.1122	0.0973
324.3229	0.1038
324.5337	0.1085
324.7444	0.104
324.9551	0.1182
325.1658	0.1135
325.3765	0.1152
325.5872	0.1041
325.7979	0.1071
326.0085	0.1101
326.2192	0.1103
326.4298	0.1073
326.6404	0.1003
326.851	0.0971
327.0616	0.0953
327.2722	0.1069
327.4828	0.1118
327.6933	0.1062
327.9039	0.1164
328.1144	0.1131
328.3249	0.1189
328.5354	0.1035
328.7459	0.1009
328.9564	0.0994
329.1669	0.107
329.3773	0.1102
329.5878	0.1134
329.7982	0.1021
330.0086	0.1131
330.219	0.1079
330.4294	0.0971
330.6398	0.1011
330.8502	0.0983
331.0605	0.11
331.2708	0.097
331.4812	0.1089
331.6915	0.1129
331.9018	0.1085
332.1121	0.1113
332.3224	0.1118
332.5326	0.1174
332.7429	0.1175
332.9531	0.1206
333.1633	0.1247
333.3735	0.1107
333.5837	0.1137
333.7939	0.112
334.0041	0.1206
334.2143	0.1245
334.4244	0.1166
334.6346	0.0933
334.8447	0.1211
335.0548	0.1043
335.2649	0.1043
335.475	0.1199
335.685	0.1051
335.8951	0.1201
336.1051	0.1211
336.3152	0.1217
336.5252	0.1083
336.7352	0.1201
336.9452	0.1192
337.1552	0.1206
337.3652	0.1132
337.5751	0.1205
337.7851	0.1198
337.995	0.1136
338.2049	0.1169
338.4148	0.1078
338.6247	0.1146
338.8346	0.1113
339.0445	0.1062
339.2543	0.122
339.4642	0.113
339.674	0.1141
339.8838	0.1235
340.0936	0.1166
340.3034	0.131
340.5132	0.1348
340.7229	0.1248
340.9327	0.1216
341.1424	0.1038
341.3522	0.1319
341.5619	0.1207
341.7716	0.1292
341.9813	0.1192
342.1909	0.1287
342.4006	0.1301
342.6102	0.126
342.8199	0.1239
343.0295	0.1266
343.2391	0.1305
343.4487	0.1361
343.6583	0.1283
343.8679	0.133
344.0774	0.1358
344.287	0.1394
344.4965	0.1285
344.706	0.1276
344.9155	0.1397
345.125	0.1376
345.3345	0.1493
345.544	0.124
345.7534	0.1413
345.9629	0.1234
346.1723	0.142
346.3817	0.1279
346.5911	0.1293
346.8005	0.1299
347.0099	0.1315
347.2193	0.139
347.4286	0.1257
347.638	0.1286
347.8473	0.1296
348.0566	0.1347
348.2659	0.141
348.4752	0.1397
348.6845	0.1308
348.8937	0.1345
349.103	0.1418
349.3122	0.1286
349.5214	0.1229
349.7306	0.1447
349.9398	0.1406
350.149	0.1449
350.3582	0.146
350.5674	0.1554
350.7765	0.1366
350.9856	0.1385
351.1948	0.1557
351.4039	0.1333
351.613	0.1327
351.822	0.1395
352.0311	0.1489
352.2402	0.1559
352.4492	0.1586
352.6582	0.1513
352.8672	0.1473
353.0762	0.1524
353.2852	0.1506
353.4942	0.1301
353.7032	0.1438
353.9121	0.1514
354.1211	0.1491
354.33	0.1616
354.5389	0.1605
354.7478	0.1386
354.9567	0.1454
355.1655	0.1426
355.3744	0.1653
355.5833	0.159
355.7921	0.1777
356.0009	0.1504
356.2097	0.171
356.4185	0.1595
356.6273	0.1635
356.8361	0.1648
357.0448	0.1549
357.2536	0.1608
357.4623	0.1653
357.671	0.1617
357.8797	0.1524
358.0884	0.1625
358.2971	0.156
358.5057	0.1676
358.7144	0.1698
358.923	0.1609
359.1316	0.1743
359.3402	0.1724
359.5488	0.1498
359.7574	0.1461
359.966	0.1624
360.1746	0.1846
360.3831	0.1719
360.5916	0.1675
360.8002	0.1732
361.0087	0.1907
361.2172	0.164
361.4256	0.1624
361.6341	0.1811
361.8426	0.1669
362.051	0.1718
362.2594	0.1665
362.4678	0.1821
362.6762	0.1911
362.8846	0.1807
363.093	0.1754
363.3014	0.1798
363.5097	0.1602
363.718	0.1739
363.9264	0.1767
364.1347	0.1771
364.343	0.1968
364.5513	0.1979
364.7595	0.1987
364.9678	0.1867
365.176	0.195
365.3842	0.1826
365.5925	0.1993
365.8007	0.192
366.0089	0.1882
366.217	0.1818
366.4252	0.1929
366.6333	0.2164
366.8415	0.2089
367.0496	0.1814
367.2577	0.2002
367.4658	0.2066
367.6739	0.2106
367.882	0.1975
368.09	0.1953
368.2981	0.2098
368.5061	0.1829
368.7141	0.1954
368.9221	0.2041
369.1301	0.2053
369.3381	0.2003
369.5461	0.211
369.754	0.1994
369.962	0.2084
370.1699	0.22
370.3778	0.2153
370.5857	0.1933
370.7936	0.2134
371.0015	0.2196
371.2093	0.2174
371.4172	0.215
371.625	0.2049
371.8328	0.2072
372.0406	0.221
372.2484	0.2085
372.4562	0.2084
372.664	0.2233
372.8717	0.2166
373.0795	0.2012
373.2872	0.2132
373.4949	0.2028
373.7026	0.2343
373.9103	0.2164
374.118	0.2189
374.3256	0.2042
374.5333	0.2217
374.7409	0.2185
374.9485	0.2262
375.1561	0.2308
375.3637	0.2395
375.5713	0.2146
375.7789	0.2281
375.9864	0.2192
376.194	0.1916
376.4015	0.2352
376.609	0.2261
376.8165	0.2175
377.024	0.2198
377.2315	0.2251
377.4389	0.2275
377.6464	0.2273
377.8538	0.2334
378.0612	0.2127
378.2686	0.2314
378.476	0.2315
378.6834	0.2284
378.8908	0.2272
379.0981	0.2252
379.3055	0.2337
379.5128	0.2294
379.7201	0.2347
379.9274	0.2239
380.1347	0.2417
380.342	0.2564
380.5492	0.2418
380.7565	0.2426
380.9637	0.2305
381.1709	0.2317
381.3781	0.2291
381.5853	0.2559
381.7925	0.2374
381.9997	0.2545
382.2068	0.2456
382.4139	0.2322
382.6211	0.2267
382.8282	0.2588
383.0353	0.254
383.2424	0.2426
383.4494	0.2434
383.6565	0.2343
383.8635	0.2359
384.0706	0.246
384.2776	0.2459
384.4846	0.2306
384.6916	0.2357
384.8986	0.2358
385.1055	0.2337
385.3125	0.2328
385.5194	0.2221
385.7263	0.2601
385.9333	0.2376
386.1402	0.2365
386.347	0.2426
386.5539	0.2313
386.7608	0.2317
386.9676	0.2285
387.1744	0.2569
387.3813	0.2323
387.5881	0.2287
387.7948	0.23
388.0016	0.2385
388.2084	0.2368
388.4151	0.2442
388.6219	0.2371
388.8286	0.2264
389.0353	0.253
389.242	0.2365
389.4487	0.2367
389.6553	0.2145
389.862	0.2054
390.0686	0.2194
390.2753	0.2338
390.4819	0.2381
390.6885	0.2142
390.8951	0.2386
391.1016	0.2177
391.3082	0.2223
391.5147	0.2162
391.7213	0.2264
391.9278	0.2228
392.1343	0.216
392.3408	0.219
392.5473	0.214
392.7537	0.2074
392.9602	0.2086
393.1666	0.2086
393.373	0.2286
393.5794	0.2222
393.7858	0.2063
393.9922	0.1912
394.1986	0.2159
394.4049	0.2107
394.6113	0.2062
394.8176	0.2068
395.0239	0.2022
395.2302	0.206
395.4365	0.2042
395.6428	0.2045
395.8491	0.1914
396.0553	0.1923
396.2615	0.2126
396.4678	0.2004
396.674	0.1879
396.8802	0.2032
397.0863	0.2226
397.2925	0.1986
397.4987	0.2039
397.7048	0.2093
397.9109	0.2141
398.117	0.1907
398.3231	0.1975
398.5292	0.203
398.7353	0.2035
398.9413	0.1913
399.1474	0.1879
399.3534	0.206
399.5594	0.1783
399.7654	0.2013
399.9714	0.1942
400.1774	0.1958
400.3833	0.1936
400.5893	0.2003
400.7952	0.1865
401.0011	0.1793
401.207	0.1971
401.4129	0.2049
401.6188	0.198
401.8247	0.1984
402.0305	0.1936
402.2364	0.1912
402.4422	0.2143
402.648	0.1981
402.8538	0.1909
403.0596	0.2004
403.2654	0.2122
403.4711	0.1828
403.6768	0.2129
403.8826	0.2119
404.0883	0.1957
404.294	0.1897
404.4997	0.2027
404.7054	0.1852
404.911	0.1863
405.1167	0.2033
405.3223	0.2192
405.5279	0.1987
405.7335	0.2143
405.9391	0.2101
406.1447	0.1992
406.3502	0.2049
406.5558	0.1986
406.7613	0.1915
406.9668	0.1909
407.1724	0.1947
407.3778	0.1899
407.5833	0.181
407.7888	0.1754
407.9942	0.2148
408.1997	0.2067
408.4051	0.1917
408.6105	0.1878
408.8159	0.1678
409.0213	0.1889
409.2267	0.1993
409.432	0.1809
409.6374	0.2299
409.8427	0.1793
410.048	0.2017
410.2533	0.1769
410.4586	0.1836
410.6639	0.1859
410.8691	0.1774
411.0744	0.1777
411.2796	0.1806
411.4848	0.1893
411.69	0.18
411.8952	0.2015
412.1004	0.184
412.3056	0.1858
412.5107	0.1874
412.7158	0.2128
412.921	0.2061
413.1261	0.2007
413.3312	0.1817
413.5362	0.169
413.7413	0.1807
413.9464	0.2043
414.1514	0.188
414.3564	0.1862
414.5614	0.1632
414.7664	0.1758
414.9714	0.1879
415.1764	0.191
415.3813	0.1895
415.5863	0.1798
415.7912	0.1954
415.9961	0.1976
416.201	0.189
416.4059	0.1934
416.6108	0.1518
416.8156	0.1968
417.0205	0.1725
417.2253	0.1759
417.4301	0.1809
417.6349	0.1821
417.8397	0.186
418.0445	0.1847
418.2492	0.1911
418.454	0.1914
418.6587	0.192
418.8634	0.1929
419.0681	0.1732
419.2728	0.1845
419.4775	0.1739
419.6822	0.1631
419.8868	0.1639
420.0915	0.1823
420.2961	0.1711
420.5007	0.1719
420.7053	0.1672
420.9099	0.1733
421.1144	0.1736
421.319	0.1556
421.5235	0.1733
421.728	0.172
421.9325	0.1823
422.137	0.1854
422.3415	0.1679
422.546	0.1699
422.7504	0.1542
422.9549	0.1602
423.1593	0.1655
423.3637	0.172
423.5681	0.158
423.7725	0.1629
423.9769	0.1566
424.1812	0.1507
424.3856	0.1611
424.5899	0.1631
424.7942	0.1674
424.9985	0.1667
425.2028	0.1614
425.4071	0.1856
425.6113	0.1447
425.8156	0.177
426.0198	0.1738
426.224	0.1398
426.4282	0.1514
426.6324	0.1397
426.8366	0.1385
427.0407	0.1467
427.2449	0.1432
427.449	0.1388
427.6531	0.1325
427.8572	0.1472
428.0613	0.1497
428.2654	0.1631
428.4694	0.1498
428.6735	0.1483
428.8775	0.1669
429.0815	0.1494
429.2855	0.127
429.4895	0.1486
429.6935	0.1554
429.8975	0.1405
430.1014	0.1283
430.3053	0.1297
430.5093	0.1283
430.7132	0.118
430.9171	0.1216
431.1209	0.1302
431.3248	0.1228
431.5286	0.1391
431.7325	0.1337
431.9363	0.1213
432.1401	0.1303
432.3439	0.119
432.5477	0.1072
432.7514	0.112
432.9552	0.1104
433.1589	0.1042
433.3627	0.1008
433.5664	0.1059
433.7701	0.0999
433.9737	0.1192
434.1774	0.101
434.3811	0.0973
434.5847	0.1049
434.7883	0.1131
434.9919	0.0968
435.1955	0.0909
435.3991	0.1002
435.6027	0.0972
435.8062	0.0839
436.0098	0.0834
436.2133	0.1028
436.4168	0.09
436.6203	0.0813
436.8238	0.0838
437.0272	0.0827
437.2307	0.0828
437.4341	0.0966
437.6375	0.0908
437.841	0.0711
438.0443	0.1017
438.2477	0.0878
438.4511	0.0796
438.6545	0.0799
438.8578	0.0832
439.0611	0.0804
439.2644	0.0757
439.4677	0.0561
439.671	0.0634
439.8743	0.0705
440.0775	0.0707
440.2808	0.0607
440.484	0.0702
440.6872	0.0438
440.8904	0.0531
441.0936	0.0775
441.2967	0.0688
441.4999	0.0562
441.703	0.0552
441.9062	0.0618
442.1093	0.057
442.3124	0.065
442.5155	0.032
442.7185	0.0483
442.9216	0.0278
443.1246	0.0672
443.3276	0.046
443.5307	0.0466
443.7337	0.0638
443.9366	0.046
444.1396	0.059
444.3426	0.0505
444.5455	0.0512
444.7484	0.0537
444.9513	0.0406
445.1542	0.0432
445.3571	0.0574
445.56	0.0509
445.7628	0.0337
445.9657	0.0372
446.1685	0.0483
446.3713	0.0521
446.5741	0.0407
446.7769	0.0252
446.9797	0.0487
447.1824	0.0365
447.3852	0.0313
447.5879	0.0361
447.7906	0.0403
447.9933	0.0481
448.196	0.0317
448.3986	0.026
448.6013	0.0284
448.8039	0.0101
449.0066	0.0273
449.2092	0.0387
449.4118	0.0369
449.6143	0.0272
449.8169	0.03
450.0195	0.0141
450.222	-0.0023
450.4245	0.0213
450.627	0.0298
450.8295	0.0294
451.032	0.0225
451.2345	0.0205
451.4369	0.0206
451.6394	0.0142
451.8418	0.0112
452.0442	0.0167
452.2466	0.0222
452.449	0.0021
452.6513	0.0223
452.8537	0.0156
453.056	-0.0031
453.2583	0.017
453.4607	0.0131
453.663	0.0155
453.8652	0.0184
454.0675	0.0161
454.2697	0.0221
454.472	0.001
454.6742	0.0149
454.8764	0.0203
455.0786	0.0235
455.2808	0.003
455.4829	0.0232
455.6851	0.0177
455.8872	0.0255
456.0893	0.0233
456.2915	0.0097
456.4935	0.0121
456.6956	0.0183
456.8977	0.01
457.0997	0.009
457.3018	-0.0108
457.5038	0.0234
457.7058	-0.0001
457.9078	-0.0059
458.1098	0.0243
458.3117	0.0054
458.5137	0.0007
458.7156	0.0145
458.9175	-0.0054
459.1194	0.0046
459.3213	0.0175
459.5232	0.0007
459.725	0.0007
459.9269	0.0025
460.1287	0.0058
460.3305	0.0021
460.5323	0.0048
460.7341	0.001
460.9359	0.0039
461.1376	0.0023
461.3394	-0.0034
461.5411	0.013
461.7428	-0.0029
461.9445	0.013
462.1462	0.0059
462.3479	0.0052
462.5495	0.0078
462.7512	0.0055
462.9528	-0.0076
463.1544	-0.0093
463.356	0.0021
463.5576	0.0007
463.7592	-0.0003
463.9607	0.0035
464.1623	0.0313
464.3638	0.0152
464.5653	-0.0025
464.7668	0.0057
464.9683	0.0086
465.1697	0.0159
465.3712	-0.0066
465.5726	-0.006
465.7741	-0.0007
465.9755	-0.0061
466.1769	0.0118
466.3782	0.0136
466.5796	-0.0085
466.7809	0.0104
466.9823	-0.0113
467.1836	0.0049
467.3849	0.0062
467.5862	-0.0007
467.7875	0.0041
467.9887	0.0142
468.19	0.0009
468.3912	-0.006
468.5924	-0.0032
468.7936	0.006
468.9948	-0.0035
469.196	-0.0065
469.3972	0.0037
469.5983	0.0033
469.7994	-0.0007
470.0006	0.011
470.2017	-0.0001
470.4027	-0.0024
470.6038	0.0083
470.8049	-0.019
471.0059	-0.0001
471.2069	-0.0257
471.408	0.0121
471.6089	0.0112
471.8099	-0.015
472.0109	0.0052
472.2119	-0.0123
472.4128	-0.0138
472.6137	0.0152
472.8146	-0.0146
473.0155	-0.0132
473.2164	-0.0099
473.4173	-0.0036
473.6181	-0.0004
473.819	0.0088
474.0198	0.0049
474.2206	-0.0001
474.4214	-0.0049
474.6222	0.0016
474.8229	-0.0068
475.0237	-0.0089
475.2244	-0.0091
475.4251	-0.0037
475.6258	-0.0059
475.8265	0.0005
476.0272	0.0091
476.2278	-0.0087
476.4285	0.0008
476.6291	-0.0069
476.8297	0.0003
477.0303	-0.0031
477.2309	0.0027
477.4315	-0.0096
477.632	0.0026
477.8326	-0.0106
478.0331	-0.0044
478.2336	-0.0041
478.4341	-0.0089
478.6346	-0.0058
478.8351	0.0076
479.0355	-0.0019
479.236	-0.0072
479.4364	-0.0036
479.6368	-0.0005
479.8372	-0.0133
480.0376	-0.001
480.2379	-0.0242
480.4383	-0.0027
480.6386	0.0096
480.8389	0.0016
481.0392	-0.0119
481.2395	-0.0048
481.4398	-0.0001
481.6401	0.0068
481.8403	0.0006
482.0405	-0.004
482.2408	-0.0097
482.441	0.0082
482.6411	-0.0047
482.8413	-0.0069
483.0415	-0.0161
483.2416	-0.0098
483.4417	-0.0003
483.6419	-0.0026
483.8419	-0.0029
484.042	-0.0017
484.2421	-0.0032
484.4422	-0.007
484.6422	-0.0041
484.8422	-0.0058
485.0422	-0.0044
485.2422	0.0013
485.4422	-0.0066
485.6422	-0.0085
485.8421	0.0002
486.042	0.0023
486.242	-0.0119
486.4419	-0.0166
486.6417	-0.0084
486.8416	-0.006
487.0415	-0.0079
487.2413	-0.006
487.4411	-0.0014
487.641	-0.0138
487.8408	-0.0021
488.0405	-0.0165
488.2403	-0.0053
488.4401	0.0033
488.6398	0.0038
488.8395	-0.0038
489.0392	0.002
489.2389	0.0011
489.4386	-0.0041
489.6383	-0.005
489.8379	-0.0019
490.0376	-0.0125
490.2372	-0.0078
490.4368	-0.0164
490.6364	-0.0091
490.836	-0.0052
491.0355	-0.011
491.2351	-0.0029
491.4346	0.0013
491.6341	-0.0104
491.8336	0.0055
492.0331	-0.0157
492.2326	-0.0085
492.432	-0.0014
492.6315	-0.0006
492.8309	-0.0113
493.0303	-0.0107
493.2297	-0.0033
493.4291	0.003
493.6284	-0.0063
493.8278	-0.0082
494.0271	0.0042
494.2264	-0.0015
494.4257	-0.0108
494.625	0.0039
494.8243	-0.0164
495.0236	0.002
495.2228	-0.0099
495.422	-0.0021
495.6213	-0.0021
495.8205	0.001
496.0196	0.0064
496.2188	-0.0078
496.418	0.0014
496.6171	-0.0118
496.8162	-0.004
497.0153	0.004
497.2144	-0.0118
497.4135	0.0014
497.6126	-0.0026
497.8116	-0.0073
498.0107	0.0029
498.2097	-0.0126
498.4087	-0.0096
498.6077	0.0055
498.8067	-0.0109
499.0056	-0.0037
499.2046	-0.0063
499.4035	-0.0149
499.6024	-0.0053
499.8013	0.0024
500.0002	-0.0062
500.199	0.0045
500.3979	-0.0038
500.5967	-0.018
500.7956	-0.0089
500.9944	-0.0169
501.1932	-0.005
501.3919	-0.0094
501.5907	-0.0081
501.7895	-0.0026
501.9882	-0.0079
502.1869	-0.0104
502.3856	-0.0111
502.5843	-0.0121
502.783	-0.0014
502.9816	0.0016
503.1803	-0.0112
503.3789	-0.0097
503.5775	0.0109
503.7761	-0.0138
503.9747	0.0035
504.1732	-0.0041
504.3718	0.0053
504.5703	-0.0017
504.7689	-0.0075
504.9674	-0.0117
505.1658	-0.0107
505.3643	-0.0037
505.5628	-0.012
505.7612	-0.0009
505.9597	-0.0009
506.1581	-0.0132
506.3565	0.0051
506.5549	0.0004
506.7532	-0.0158
506.9516	0.0014
507.1499	-0.0019
507.3482	-0.0124
507.5465	-0.0088
507.7448	0.0044
507.9431	-0.0002
508.1414	0.0022
508.3396	0.002
508.5379	0.0046
508.7361	-0.0082
508.9343	-0.0063
509.1325	-0.0062
509.3306	-0.0071
509.5288	-0.0086
509.7269	-0.0101
509.9251	0
510.1232	-0.0078
510.3213	-0.0045
510.5193	-0.0001
510.7174	-0.0076
510.9154	-0.0141
511.1135	-0.0077
511.3115	-0.0068
511.5095	-0.0043
511.7075	-0.0029
511.9055	-0.0172
512.1034	0.0004
512.3014	-0.0002
512.4993	-0.0024
512.6972	-0.0031
512.8951	-0.0066
513.093	0.003
513.2908	0.0101
513.4887	-0.0025
513.6865	-0.0096
513.8844	-0.0023
514.0822	-0.002
514.2799	-0.0061
514.4777	-0.0131
514.6755	-0.0134
514.8732	-0.0074
515.0709	0.0046
515.2687	0.0004
515.4664	0.0006
515.664	0.0013
515.8617	-0.0074
516.0594	-0.0093
516.257	0.0004
516.4546	-0.0137
516.6522	-0.0029
516.8498	-0.0114
517.0474	0.0036
517.2449	0.0105
517.4425	-0.0192
517.64	0.0006
517.8375	0.0106
518.035	-0.0076
518.2325	0.0001
518.43	-0.0056
518.6274	-0.0017
518.8249	-0.0172
519.0223	0.0001
519.2197	-0.001
519.4171	-0.0056
519.6145	-0.0071
519.8118	0.0086
520.0092	-0.0041
520.2065	0.0013
520.4038	-0.0169
520.6011	-0.0083
520.7984	0.0022
520.9956	-0.007
521.1929	-0.0034
521.3901	0.0086
521.5874	-0.0028
521.7846	0.0048
521.9818	-0.0042
522.1789	-0.0101
522.3761	-0.0078
522.5732	-0.0163
522.7704	-0.0104
522.9675	0.0094
523.1646	-0.0033
523.3617	-0.0007
523.5587	-0.0059
523.7558	0.0032
523.9528	-0.0027
524.1498	0.0021
524.3468	-0.0011
524.5438	-0.0118
524.7408	-0.0088
524.9378	0.007
525.1347	-0.0126
525.3316	0.0009
525.5285	-0.0128
525.7254	0.001
525.9223	-0.0049
526.1192	0.0033
526.316	-0.0032
526.5129	0.0048
526.7097	0.0034
526.9065	0.0037
527.1033	-0.014
527.3	0.003
527.4968	0.0008
527.6935	-0.0014
527.8903	-0.011
528.087	0.0005
528.2837	-0.0066
528.4804	-0.0009
528.677	-0.0106
528.8737	-0.0007
529.0703	-0.0001
529.2669	-0.0052
529.4635	-0.0054
529.6601	-0.0082
529.8567	-0.0077
530.0532	-0.0106
530.2498	-0.0025
530.4463	0.003
530.6428	-0.0094
530.8393	0.0058
531.0358	-0.0078
531.2322	0.0036
531.4287	-0.0095
531.6251	-0.0015
531.8215	0.0017
532.0179	-0.0037
532.2143	0.0056
532.4107	-0.0024
532.607	-0.004
532.8034	-0.0032
532.9997	0.0016
533.196	-0.0001
533.3923	-0.0072
533.5886	0.001
533.7848	-0.0041
533.9811	0.005
534.1773	-0.0059
534.3735	0.0113
534.5697	-0.0047
534.7659	0.0039
534.9621	0.0025
535.1582	-0.0091
535.3544	-0.0061
535.5505	-0.0065
535.7466	-0.0046
535.9427	0.0052
536.1387	-0.003
536.3348	-0.0023
536.5308	0.0025
536.7269	-0.0168
536.9229	-0.0004
537.1189	0.0009
537.3148	0.0058
537.5108	-0.008
537.7068	0.0009
537.9027	-0.0001
538.0986	0.0038
538.2945	-0.0109
538.4904	-0.0045
538.6863	-0.0101
538.8821	-0.0009
539.078	-0.001
539.2738	0.0023
539.4696	-0.0026
539.6654	0.0022
539.8611	0.0076
540.0569	0.0045
540.2526	0.0014
540.4484	0.0014
540.6441	0.0082
540.8398	0.0029
541.0355	0.0114
541.2311	-0.0025
541.4268	-0.0103
541.6224	-0.0018
541.818	0.0022
542.0136	-0.0013
542.2092	0.0032
542.4048	-0.0008
542.6003	-0.0004
542.7959	-0.0013
542.9914	-0.0059
543.1869	-0.0048
543.3824	0.0006
543.5779	-0.0073
543.7734	-0.0011
543.9688	-0.0066
544.1642	0.009
544.3596	0.0069
544.555	0.0007
544.7504	-0.0036
544.9458	-0.0136
545.1411	0.0017
545.3365	-0.01
545.5318	-0.0003
545.7271	-0.0036
545.9224	0.0053
546.1177	-0.0039
546.3129	0.0002
546.5081	-0.0046
546.7034	-0.0022
546.8986	-0.0028
547.0938	-0.0065
547.289	0.0041
547.4841	-0.0005
547.6793	0.0095
547.8744	-0.0014
548.0695	0.0087
548.2646	-0.015
548.4597	-0.0052
548.6548	-0.0022
548.8498	0.0008
549.0448	0.007
549.2399	-0.0038
549.4349	0.0117
549.6298	0.0021
549.8248	0.0006
550.0198	-0.0042
550.2147	-0.003
550.4096	0.0003
550.6045	-0.0013
550.7994	0.0069
550.9943	0.0048
551.1892	0.001
551.384	0.0089
551.5788	0.0005
551.7737	0.0128
551.9685	0.0051
552.1632	0.0094
552.358	-0.0017
552.5528	0.0046
552.7475	0.0023
552.9422	0.0063
553.1369	0.0003
553.3316	0.0116
553.5263	-0.0006
553.7209	0.0085
553.9156	-0.0033
554.1102	-0.0044
554.3048	-0.0049
554.4994	0.0043
554.694	-0.0112
554.8885	0.0039
555.0831	-0.0031
555.2776	-0.006
555.4721	-0.0045
555.6666	-0.0081
555.8611	0.0045
556.0555	0.003
556.25	0.0068
556.4444	-0.0063
556.6388	0.0014
556.8332	-0.0025
557.0276	0.0054
557.222	-0.0074
557.4163	-0.0005
557.6107	-0.0069
557.805	0.0017
557.9993	-0.0103
558.1936	-0.002
558.3879	-0.0007
558.5821	0.0002
558.7764	-0.0053
558.9706	0.0036
559.1648	0.0112
559.359	-0.004
559.5532	-0.0041
559.7473	0.0098
559.9415	-0.0044
560.1356	0.0012
560.3297	-0.0134
560.5238	-0.0023
560.7179	-0.0037
560.9119	-0.0041
561.106	0.0008
561.3	-0.0057
561.494	-0.004
561.688	-0.006
561.882	-0.0074
562.076	-0.0046
562.2699	0.0006
562.4639	0.0013
562.6578	-0.0004
562.8517	-0.0016
563.0456	0.0035
563.2395	-0.0046
563.4333	0.0014
563.6272	0.0075
563.821	0.0032
564.0148	0.0014
564.2086	-0.0092
564.4024	-0.0028
564.5961	-0.0025
564.7899	0.0094
564.9836	0.0025
565.1773	0.0034
565.371	0.0082
565.5647	0.0036
565.7584	0.0031
565.952	0.0024
566.1456	0.0029
566.3393	-0.0029
566.5329	-0.0003
566.7264	0.0048
566.92	-0.005
567.1136	0.0087
567.3071	-0.0082
567.5006	0.0122
567.6941	0.0059
567.8876	-0.0013
568.0811	-0.0033
568.2745	0.0086
568.468	0.0081
568.6614	0.001
568.8548	-0.0011
569.0482	-0.0032
569.2416	0.0011
569.4349	0.0003
569.6283	0.0062
569.8216	0.0072
570.0149	-0.0066
570.2082	0.0145
570.4015	0.0098
570.5947	0.0132
570.788	0.0072
570.9812	0.0029
571.1744	-0.0003
571.3676	-0.0045
571.5608	0.0039
571.754	0.0031
571.9471	0.0034
572.1402	0.0047
572.3333	-0.004
572.5264	-0.0016
572.7195	0.0059
572.9126	0.0016
573.1057	0.004
573.2987	-0.0057
573.4917	0.0071
573.6847	-0.0103
573.8777	0.0054
574.0707	0.0073
574.2636	-0.006
574.4566	-0.0003
574.6495	0.0053
574.8424	0.0031
575.0353	0.0033
575.2281	0.0048
575.421	0.0025
575.6138	0.0032
575.8067	0.0019
575.9995	-0.0006
576.1923	0.0031
576.385	-0.0018
576.5778	-0.0034
576.7706	0
576.9633	0.0003
577.156	0.0029
577.3487	-0.0001
577.5414	0.0025
577.734	-0.0037
577.9267	0.0007
578.1193	-0.0093
578.3119	-0.0054
578.5045	-0.0014
578.6971	0.0002
578.8897	0.0062
579.0822	-0.001
579.2747	-0.0008
579.4673	-0.0033
579.6598	-0.008
579.8522	-0.0041
580.0447	0.0039
580.2372	-0.0022
580.4296	0.005
580.622	-0.0015
580.8144	-0.0014
581.0068	0.0019
581.1992	-0.015
581.3915	-0.0088
581.5839	-0.0003
581.7762	-0.0108
581.9685	-0.005
582.1608	0.003
582.353	-0.0007
582.5453	-0.0053
582.7375	0.0085
582.9298	0.0035
583.122	-0.0062
583.3142	0.0067
583.5063	0.0019
583.6985	0.001
583.8906	0.0016
584.0827	-0.0084
584.2749	-0.0006
584.4669	0.0044
584.659	-0.0031
584.8511	0.0025
585.0431	0.0005
585.2352	0.0076
585.4272	-0.0013
585.6192	0.003
585.8111	0.0051
586.0031	0.004
586.195	0.0014
586.387	0.0035
586.5789	0.0004
586.7708	0.0075
586.9627	0.0011
587.1545	-0.0025
587.3464	0.0012
587.5382	0.0024
587.73	-0.0001
587.9218	0.0057
588.1136	0.0029
588.3053	0.0016
588.4971	-0.0009
588.6888	-0.0037
588.8805	0.0002
589.0722	0.0094
589.2639	0.007
589.4556	0.0045
589.6472	-0.0056
589.8389	-0.0009
590.0305	-0.0061
590.2221	-0.0029
590.4137	-0.0125
590.6052	0.0027
590.7968	-0.011
590.9883	-0.0013
591.1798	-0.0036
591.3713	0.0042
591.5628	-0.0009
591.7543	0.0073
591.9458	-0.0026
592.1372	0.0071
592.3286	0.01
592.52	0.004
592.7114	-0.005
592.9028	-0.0011
593.0941	-0.0027
593.2855	0.0057
593.4768	-0.0055
593.6681	-0.0071
593.8594	-0.0036
594.0506	-0.0019
594.2419	0.0056
594.4331	0.0022
594.6244	0.0074
594.8156	-0.0051
595.0067	0.0035
595.1979	0.0032
595.3891	0.0023
595.5802	-0.004
595.7713	-0.0009
595.9624	-0.0015
596.1535	0.0092
596.3446	0.0063
596.5357	0.006
596.7267	0.0062
596.9177	0.0034
597.1087	-0.0048
597.2997	-0.0076
597.4907	0.0103
597.6817	-0.0024
597.8726	0.0038
598.0635	-0.0049
598.2544	-0.0026
598.4453	0.0027
598.6362	-0.0043
598.827	-0.0028
599.0179	0.0056
599.2087	0.0043
599.3995	-0.0009
599.5903	0.0014
599.7811	-0.0024
599.9718	0.0036
600.1626	-0.0028
600.3533	-0.004
600.544	0.0077
600.7347	-0.0001
600.9254	0.0025
601.116	-0.0086
601.3067	-0.0005
601.4973	-0.006
601.6879	0.0039
601.8785	-0.0079
602.0691	0.0069
602.2596	0.0025
602.4502	0.0078
602.6407	0.002
602.8312	0.0019
603.0217	-0.0063
603.2122	0.0027
603.4027	0.0117
603.5931	-0.0059
603.7835	-0.0018
603.9739	-0.0027
604.1643	0.0005
604.3547	-0.0004
604.5451	0.0079
604.7354	0.0007
604.9257	0.0023
605.116	-0.0105
605.3063	-0.0027
605.4966	0.0037
605.6869	0.0077
605.8771	-0.0009
606.0673	0.0073
606.2575	-0
606.4477	0.0092
606.6379	0.0029
606.8281	-0.0038
607.0182	-0.0074
607.2083	0.0084
607.3985	0.0002
607.5885	0.0016
607.7786	-0.0006
607.9687	-0.0021
608.1587	0.0007
608.3488	0.0052
608.5388	0.0015
608.7288	-0.0025
608.9187	0.0025
609.1087	-0.0105
609.2986	-0.0025
609.4886	0.0044
609.6785	-0.005
609.8684	0.0038
610.0582	0.002
610.2481	0.005
610.4379	-0.0015
610.6278	0.0005
610.8176	0.0014
611.0074	0.0007
611.1971	-0.0013
611.3869	0.0065
611.5766	-0.0053
611.7664	0.0053
611.9561	0.0029
612.1458	-0.0024
612.3354	-0.0044
612.5251	0.0008
612.7147	0.0006
612.9044	0.0032
613.094	-0.0082
613.2836	0.0096
613.4731	-0.0002
613.6627	0.0008
613.8522	0.0018
614.0417	0.0039
614.2313	-0.0028
614.4207	-0.0048
614.6102	0.0061
614.7997	-0.004
614.9891	-0.0006
615.1785	0.0056
615.3679	-0.0005
615.5573	0.0118
615.7467	0.0056
615.9361	0.001
616.1254	0.0047
616.3147	0.0056
616.504	0.0021
616.6933	0.0065
616.8826	0.0081
617.0718	0.0111
617.2611	0.0015
617.4503	-0.0032
617.6395	-0.0012
617.8287	0.0007
618.0179	0.0023
618.207	0.0121
618.3961	0.0059
618.5853	0.0011
618.7744	0.0094
618.9634	0.006
619.1525	0.0047
619.3416	-0.002
619.5306	0.0078
619.7196	0.0037
619.9086	-0.0021
620.0976	0.0088
620.2866	0.0065
620.4755	0.0078
620.6645	0.0076
620.8534	0.0066
621.0423	0.0075
621.2312	0.0095
621.42	0.003
621.6089	0.0025
621.7977	0.0084
621.9865	0.0008
622.1753	0.0121
622.3641	0.0057
622.5529	0.0116
622.7416	0.0056
622.9303	-0.0006
623.1191	0.0068
623.3078	0.0009
623.4964	0.0056
623.6851	-0.0038
623.8737	0.0011
624.0624	0.0004
624.251	-0.0013
624.4396	-0.0002
624.6282	-0.0021
624.8167	0.0042
625.0053	0.0009
625.1938	0.0137
625.3823	0.0088
625.5708	-0.0007
625.7593	-0.0002
625.9477	-0.001
626.1362	0.0032
626.3246	0.0012
626.513	0.002
626.7014	0.0101
626.8898	-0.0029
627.0781	0.0042
627.2665	0.0017
627.4548	0.0095
627.6431	0.0084
627.8314	0.0073
628.0197	0.0167
628.2079	-0.0037
628.3962	0.0009
628.5844	0.007
628.7726	0.0051
628.9608	0.0063
629.1489	0.0029
629.3371	0.0047
629.5252	-0.0046
629.7134	0.0041
629.9015	0.0028
630.0895	0.005
630.2776	0.0077
630.4657	0.0062
630.6537	0.0077
630.8417	-0.0039
631.0297	0.0005
631.2177	-0.0009
631.4057	-0.0039
631.5936	-0.0028
631.7815	0.0013
631.9695	0.0065
632.1574	0.0108
632.3452	0.0111
632.5331	0.0066
632.7209	0.0023
632.9088	0.0104
633.0966	0.0158
633.2844	0.0002
633.4722	0.0017
633.6599	0.0062
633.8477	0.0054
634.0354	0.0097
634.2231	0.0071
634.4108	0.0073
634.5985	0.0085
634.7861	0.0109
634.9738	0.0021
635.1614	0.0073
635.349	0.0013
635.5366	-0.0004
635.7242	0.0014
635.9117	0.0146
636.0993	0.0043
636.2868	0.004
636.4743	0.0049
636.6618	0.0119
636.8492	0.0056
637.0367	0.0124
637.2241	0.0026
637.4115	0.0005
637.5989	0.0023
637.7863	-0.0034
637.9737	-0.0002
638.161	0.0034
638.3484	0.0018
638.5357	0.0076
638.723	-0.0046
638.9103	0.0085
639.0975	0.0022
639.2848	0.0123
639.472	0.0037
639.6592	0.007
639.8464	0.0015
640.0336	0.0115
640.2208	-0.0054
640.4079	0.0039
640.595	-0.0019
640.7821	0.0069
640.9692	0.0065
641.1563	0.0072
641.3434	0.0025
641.5304	0.005
641.7174	0.0066
641.9044	-0.0039
642.0914	0.003
642.2784	0.0044
642.4653	0.0104
642.6523	-0.0019
642.8392	0.0061
643.0261	0.0077
643.213	0.0076
643.3999	0.0014
643.5867	-0.0018
643.7735	0.0005
643.9604	-0.004
644.1472	0.0038
644.3339	0.0069
644.5207	0.0107
644.7075	0.0047
644.8942	0.0119
645.0809	0.0175
645.2676	0.0091
645.4543	0.0058
645.6409	0.0135
645.8276	0.0013
646.0142	0.0113
646.2008	0.0007
646.3874	0.0003
646.574	0.0041
646.7605	0.0002
646.9471	-0.0097
647.1336	0.0012
647.3201	0.006
647.5066	-0.0041
647.6931	0.0036
647.8795	-0.0014
648.0659	0.0052
648.2524	0.0027
648.4388	-0.0022
648.6252	0.0022
648.8115	0.0019
648.9979	0.0033
649.1842	0.0017
649.3705	0.0032
649.5568	0.0045
649.7431	0.0101
649.9294	-0.0017
650.1156	0.0118
650.3018	-0
650.488	0.0072
650.6742	0.0109
650.8604	0.0029
651.0466	0.0037
651.2327	-0.0014
651.4188	0.0078
651.6049	0.0032
651.791	0.0023
651.9771	0.0094
652.1632	0.0063
652.3492	0.0068
652.5352	0.0041
652.7212	0.009
652.9072	0.0146
653.0932	0.0059
653.2791	-0.0033
653.465	0.0025
653.651	0.0005
653.8369	-0.0013
654.0227	0.0026
654.2086	0.009
654.3944	0.0011
654.5803	0.001
654.7661	0.0051
654.9519	0.0022
655.1377	-0.0014
655.3234	0.0036
655.5092	-0.0032
655.6949	-0.0062
655.8806	-0.0043
656.0663	-0.0037
656.2519	0.003
656.4376	0.0027
656.6232	-0
656.8088	0.0036
656.9945	0.004
657.18	0.0042
657.3656	0.0001
657.5511	-0.0003
657.7367	-0.0094
657.9222	0.0071
658.1077	-0.0003
658.2932	0.0061
658.4786	-0.0033
658.6641	0.001
658.8495	0.0016
659.0349	-0.0088
659.2203	0.0071
659.4057	-0.001
659.591	0.0017
659.7764	0.0045
659.9617	0.0028
660.147	0.0035
660.3323	0.0053
660.5176	0.0049
660.7028	0.0107
660.888	0.0101
661.0733	0.0137
661.2585	0.0039
661.4436	-0.0038
661.6288	0.0025
661.8139	-0.0002
661.9991	0.0037
662.1842	-0.0007
662.3693	0.0051
662.5544	-0.0012
662.7394	0.0034
662.9245	-0.0027
663.1095	0.0029
663.2945	0.0014
663.4795	-0.0025
663.6644	-0.0035
663.8494	0.0001
664.0343	0.0039
664.2193	-0.0101
664.4042	0.0086
664.589	-0.0061
664.7739	0.0004
664.9587	-0.006
665.1436	-0.0017
665.3284	0.0014
665.5132	-0.0013
665.698	0.0091
665.8827	0.0025
666.0675	0.002
666.2522	-0.0066
666.4369	0.005
666.6216	0.0023
666.8063	0.0004
666.9909	-0.001
667.1756	0.0017
667.3602	0.009
667.5448	0.0005
667.7294	0.0088
667.9139	0.0073
668.0985	0.0184
668.283	0.0008
668.4675	0.0055
668.652	0.0014
668.8365	0.0038
669.0209	0.016
669.2054	0.0112
669.3898	0.0066
669.5742	0.0116
669.7586	0.0092
669.943	0.0102
670.1273	0.0087
670.3117	0.003
670.496	0.0058
670.6803	0.0093
670.8646	0.0102
671.0488	0.0005
671.2331	0.0059
671.4173	0.0042
671.6015	0.0031
671.7857	0.0093
671.9699	0.0137
672.1541	0.0069
672.3382	0.0081
672.5223	0.0079
672.7064	0.0052
672.8905	0.0023
673.0746	0.0034
673.2587	0.0009
673.4427	0.0046
673.6267	0.0135
673.8107	0.008
673.9947	0.007
674.1787	0.0059
674.3626	0.0004
674.5465	0.0066
674.7304	0.0057
674.9143	0.0089
675.0982	0.0107
675.2821	-0.0071
675.4659	0.0022
675.6497	0.0073
675.8335	0.0039
676.0173	0.0081
676.2011	0.006
676.3849	0.0042
676.5686	-0.0007
676.7523	0.0007
676.936	0.0013
677.1197	-0.0057
677.3034	-0.003
677.487	0.0095
677.6706	-0.0009
677.8542	-0.0045
678.0378	0.0053
678.2214	0.0036
678.405	0.0037
678.5885	-0.0041
678.772	0.0059
678.9555	-0.0051
679.139	0.0016
679.3225	0.0065
679.5059	0.0018
679.6894	0.0032
679.8728	0.0062
680.0562	-0.0075
680.2395	-0.0034
680.4229	0.0012
680.6062	0.0015
680.7896	-0.0044
680.9729	-0.0066
681.1562	0.0011
681.3394	0.0062
681.5227	-0.0071
681.7059	-0.0046
681.8891	0.0003
682.0723	0.0064
682.2555	-0.0019
682.4387	0.0029
682.6218	-0.0077
682.805	0.0123
682.9881	0.0039
683.1712	0.0021
683.3542	-0.0027
683.5373	0.0009
683.7203	0.0001
683.9034	0.0016
684.0864	-0.0073
684.2694	-0.003
684.4523	0.0096
684.6353	-0.0016
684.8182	0.0061
685.0011	0.0005
685.184	0.0047
685.3669	0.0047
685.5498	0.0024
685.7326	0.0033
685.9154	-0.0027
686.0982	0.0102
686.281	0.0093
686.4638	0.0081
686.6465	0.0073
686.8293	0.0006
687.012	0.0009
687.1947	-0.0007
687.3774	-0.004
687.56	-0.0004
687.7427	0.0052
687.9253	0.0038
688.1079	0.0034
688.2905	0.0127
688.4731	0.001
688.6556	0.0025
688.8382	-0.0015
689.0207	0.0074
689.2032	-0.0111
689.3857	-0.0017
689.5681	0.0001
689.7506	-0.0044
689.933	-0.0127
690.1154	-0.0043
690.2978	-0.0124
690.4802	-0.0021
690.6626	-0.0095
690.8449	-0.0072
691.0272	0.0051
691.2095	-0.0098
691.3918	-0.0051
691.5741	-0.0059
691.7563	0
691.9386	0.0083
692.1208	0.0012
692.303	0.0047
692.4852	0.0064
692.6673	0.0038
692.8495	0.0023
693.0316	-0.0035
693.2137	0.0076
693.3958	0.0035
693.5778	0.0023
693.7599	0.0041
693.9419	0.0056
694.1239	-0.0001
694.3059	0.0001
694.4879	0.0058
694.6699	0.0073
694.8518	0.0075
695.0337	-0.0046
695.2157	0.0128
695.3975	0.0037
695.5794	0.0106
695.7613	0.0095
695.9431	-0.0006
696.1249	0.0056
696.3067	0.0085
696.4885	0.01
696.6703	-0.0033
696.852	0.0075
697.0337	0.0021
697.2154	0.0046
697.3971	0.0103
697.5788	0.0081
697.7605	0.0014
697.9421	0.0111
698.1237	0.0095
698.3053	0.0094
698.4869	-0.0023
698.6685	-0.0032
698.85	-0.0054
699.0315	0.0052
699.213	0.0021
699.3945	0.0036
699.576	0.008
699.7575	0.0181
699.9389	0.0173
700.1203	0.0016
700.3017	-0.0022
700.4831	-0.0035
700.6645	0.0025
700.8458	0.0088
701.0271	0.0048
701.2084	0.0113
701.3897	0.0018
701.571	0.004
701.7523	-0.0044
701.9335	0.0072
702.1147	-0.0015
702.2959	0.0078
702.4771	0.0017
702.6583	0.0041
702.8394	-0.0016
703.0205	0.005
703.2016	0.0017
703.3827	-0.001
703.5638	0.0089
703.7449	0.0068
703.9259	0.0137
704.1069	-0.0054
704.2879	0.0106
704.4689	0.0039
704.6499	0.0066
704.8308	0.0054
705.0117	0.0009
705.1927	0.0028
705.3735	0.0037
705.5544	-0.0019
705.7353	-0.0024
705.9161	0.0047
706.0969	-0.0054
706.2777	0.0061
706.4585	-0.0054
706.6393	0.0004
706.82	-0.0046
707.0007	0.0047
707.1815	0.0038
707.3621	0.0031
707.5428	-0.0003
707.7235	0.0055
707.9041	-0.0027
708.0847	-0.0036
708.2653	-0.0115
708.4459	-0.0172
708.6265	-0.0046
708.807	-0.0088
708.9875	-0.0039
709.168	-0.0069
709.3485	-0.0033
709.529	-0.0081
709.7095	-0.0129
709.8899	-0.0007
710.0703	-0.0067
710.2507	-0.0031
710.4311	-0.0002
710.6115	-0.0094
710.7918	-0.0026
710.9721	-0.0114
711.1524	-0.0062
711.3327	-0.0057
711.513	0.0041
711.6932	0.0001
711.8735	0.0113
712.0537	0.0052
712.2339	-0.0046
712.4141	-0.0043
712.5942	0.001
712.7744	0.0033
712.9545	-0.0059
713.1346	-0.0025
713.3147	0.0025
713.4947	-0.0002
713.6748	-0.0038
713.8548	-0.0027
714.0348	-0.0026
714.2148	-0.0049
714.3948	0.0056
714.5748	-0.0023
714.7547	0.0055
714.9346	0.0116
715.1145	0.001
715.2944	0.0076
715.4743	0.0022
715.6541	0.0039
715.834	0.0081
716.0138	-0.0055
716.1936	-0.0084
716.3733	-0.0067
716.5531	0.0022
716.7328	-0.0066
716.9126	-0.0022
717.0923	0.0062
717.2719	0.0006
717.4516	-0.0009
717.6312	0.0007
717.8109	-0.0097
717.9905	-0.006
718.1701	-0.0081
718.3496	-0.0058
718.5292	-0.0044
718.7087	0
718.8882	-0.001
719.0677	0.0073
719.2472	-0.0014
719.4267	0.0064
719.6061	0.0004
719.7856	0.0052
719.965	0.0043
720.1443	-0.0021
720.3237	0.0134
720.5031	0.0025
720.6824	0.0089
720.8617	-0.004
721.041	0.003
721.2203	0.0098
721.3995	0.0102
721.5788	-0.0016
721.758	0.0127
721.9372	0.0022
722.1164	0.0025
722.2956	0.0049
722.4747	0.0138
722.6538	0.003
722.8329	0.0129
723.012	0.0087
723.1911	0.0025
723.3702	-0.0013
723.5492	0.0035
723.7282	-0.0002
723.9072	-0.002
724.0862	0.0008
724.2652	-0.0062
724.4441	0.0022
724.623	-0.0037
724.8019	0.0009
724.9808	0.0013
725.1597	-0.001
725.3385	-0.0001
725.5174	-0.003
725.6962	0.0031
725.875	-0.0021
726.0538	0.0098
726.2325	-0.005
726.4112	-0.0033
726.59	-0.0023
726.7687	-0.0038
726.9474	0.0022
727.126	-0.0018
727.3047	0.0069
727.4833	-0.0023
727.6619	-0.0023
727.8405	-0.0064
728.0191	0.0006
728.1976	0.0037
728.3762	0.0047
728.5547	-0.0033
728.7332	-0.0144
728.9116	-0.0002
729.0901	0.0006
729.2686	-0.0032
729.447	0.0012
729.6254	0.002
729.8038	0.0047
729.9821	-0.0022
730.1605	0.0056
730.3388	-0.0025
730.5171	0.0054
730.6954	-0.0074
730.8737	0.0047
731.0519	0.0086
731.2302	0.0078
731.4084	0.0108
731.5866	0.0095
731.7648	0.001
731.9429	0.0094
732.1211	-0.0038
732.2992	0.0017
732.4773	-0.0027
732.6554	0.0005
732.8335	0.0012
733.0115	0.0026
733.1896	0.017
733.3676	-0.0112
733.5456	0.0028
733.7235	0.0047
733.9015	-0
734.0794	0.0017
734.2574	0.0029
734.4353	0.0085
734.6131	0.006
734.791	0.0132
734.9689	-0.0007
735.1467	0.0062
735.3245	0.0066
735.5023	-0.0025
735.68	0.0099
735.8578	0.0106
736.0355	-0.0246
736.2132	-0.0046
736.3909	-0.002
736.5686	0.0045
736.7463	0.0049
736.9239	0.0025
737.1015	-0.0006
737.2791	0.0081
737.4567	0.0049
737.6343	0.0044
737.8118	0.0048
737.9894	0.0072
738.1669	-0.0076
738.3444	-0.0022
738.5218	-0.0012
738.6993	0.0032
738.8767	-0.0042
739.0541	0.0054
739.2315	-0.0038
739.4089	-0.0055
739.5863	0.005
739.7636	-0.0115
739.9409	0.0034
740.1182	0.0062
740.2955	0.0054
740.4728	0.0045
740.65	-0.0097
740.8272	-0.0043
741.0044	-0.0014
741.1816	0.0036
741.3588	0.0042
741.5359	-0.0011
741.7131	-0.0055
741.8902	-0.0004
742.0673	0.0058
742.2444	-0.0037
742.4214	-0.0057
742.5985	0.0007
742.7755	-0.0077
742.9525	-0.0078
743.1295	-0.0086
743.3064	-0.0049
743.4834	0.0135
743.6603	-0.0008
743.8372	-0.0037
744.0141	0.0087
744.191	0.0066
744.3678	-0.0036
744.5446	0.0026
744.7215	0.0155
744.8982	0.0076
745.075	-0.0032
745.2518	0.007
745.4285	0.0094
745.6052	0.0019
745.7819	0.0082
745.9586	-0.0021
746.1353	-0.0032
746.3119	0.0005
746.4885	-0.0046
746.6651	-0.0055
746.8417	-0.0016
747.0183	0.004
747.1948	0.0014
747.3714	0.0001
747.5479	-0.0011
747.7244	-0.01
747.9008	0.0147
748.0773	0.0043
748.2537	0.0045
748.4301	0
748.6065	0.0066
748.7829	0.007
748.9593	0.0029
749.1356	-0.0036
749.3119	0.01
749.4882	-0.0081
749.6645	0.0022
749.8408	-0.0109
750.017	-0.0054
750.1933	-0.0052
750.3695	-0.0092
750.5457	0.0028
750.7218	0.0056
750.898	0.0024
751.0741	-0.0024
751.2502	0.0074
751.4263	0.0032
751.6024	0.0039
751.7784	0.0017
751.9545	-0.012
752.1305	-0.0069
752.3065	0.0024
752.4825	0.008
752.6584	-0.0067
752.8344	-0.0119
753.0103	-0.0089
753.1862	-0.0088
753.3621	-0.0058
753.5379	-0.0016
753.7138	-0.004
753.8896	0.0026
754.0654	0.0098
754.2412	0.0118
754.417	-0.0022
754.5927	-0.0054
754.7685	-0.0043
754.9442	0.0031
755.1199	0.0155
755.2956	0.0049
755.4712	0.0093
755.6469	0.0062
755.8225	0.0012
755.9981	-0.0061
756.1736	0.0091
756.3492	0.0139
756.5248	-0.0056
756.7003	0.0092
756.8758	0.0105
757.0513	-0
757.2267	0.0036
757.4022	0.0093
757.5776	0.0043
757.753	0.0048
757.9284	0.0065
758.1038	0.0064
758.2791	0.0091
758.4545	-0.0115
758.6298	-0.0021
758.8051	0.0055
758.9803	0.0011
759.1556	0.0025
759.3308	-0.0079
759.506	0.0112
759.6812	0.0075
759.8564	0.0073
760.0316	0.0044
760.2067	0.0085
760.3819	-0.0051
760.557	0.0109
760.732	0.0065
760.9071	-0.0052
761.0821	0.009
761.2572	0.0101
761.4322	0.0017
761.6072	-0.0027
761.7821	0.0044
761.9571	0.0057
762.132	0
762.3069	-0.0032
762.4818	-0.0003
762.6567	0.0053
762.8316	0.0076
763.0064	-0.0067
763.1812	-0.0016
763.356	-0.0116
763.5308	0.0006
763.7055	0.0053
763.8803	-0.0021
764.055	-0.006
764.2297	-0.0043
764.4044	-0.0052
764.579	-0.0094
764.7537	-0.0098
764.9283	-0.0046
765.1029	-0.0069
765.2775	-0.0067
765.4521	-0.0175
765.6266	-0.0105
765.8011	-0.0102
765.9756	-0.0061
766.1501	0.0049
766.3246	-0.0014
766.4991	-0.0013
766.6735	0.0074
766.8479	0.0028
767.0223	0.0142
767.1967	0.0092
767.371	-0.0049
767.5454	0.0022
767.7197	0.0032
767.894	-0.0009
768.0683	-0.0076
768.2425	-0.0001
768.4168	0.0068
768.591	0.005
768.7652	0.0084
768.9394	0.0028
769.1135	-0.0036
769.2877	0.0129
769.4618	0.0031
769.6359	-0.0018
769.81	-0.0014
769.984	0.0011
770.1581	-0.0122
770.3321	-0.0003
770.5061	0.0012
770.6801	-0.0038
770.8541	-0.0033
771.028	0.0073
771.202	-0.0054
771.3759	-0.002
771.5498	-0.0039
771.7236	0.0016
771.8975	0.0022
772.0713	-0.0021
772.2451	-0.0079
772.4189	0.002
772.5927	0.0072
772.7665	-0.0005
772.9402	-0.0017
773.1139	0.0001
773.2876	0.0013
773.4613	0.0058
773.635	0.011
773.8086	-0.0039
773.9822	-0.0086
774.1558	0.0127
774.3294	-0.0102
774.503	-0.0014
774.6765	0.0081
774.8501	0.0146
775.0236	0.0123
775.1971	0.0189
775.3705	-0.0036
775.544	0.0149
775.7174	-0.0012
775.8908	0.0029
776.0642	0.0062
776.2376	0.009
776.4109	-0.0033
776.5843	0.0002
776.7576	0.0119
776.9309	0.0084
777.1041	0.0081
777.2774	0.0151
777.4506	-0.0032
777.6238	-0.0028
777.797	-0.0079
777.9702	0.0108
778.1434	-0.0022
778.3165	-0.0125
778.4896	-0.008
778.6627	0.0046
778.8358	-0.0003
779.0089	-0.0013
779.1819	0.0061
779.3549	0.0221
779.5279	0.0058
779.7009	-0.0011
779.8739	-0.0028
780.0468	-0.0006
780.2197	0.0071
780.3926	0.0072
780.5655	-0.0049
780.7384	0.0022
780.9112	0.0091
781.0841	0.0026
781.2569	0.0043
781.4297	-0.002
781.6024	0.0109
781.7752	0.0036
781.9479	0.0043
782.1206	0.0021
782.2933	-0.0104
782.466	0.0068
782.6386	-0.0013
782.8113	0.0004
782.9839	0.0116
783.1565	0.0075
783.329	0.0057
783.5016	0.003
783.6741	0.0108
783.8466	0.0002
784.0191	0.0096
784.1916	-0.0099
784.3641	-0.0082
784.5365	0.0017
784.7089	-0.0095
784.8813	0.0033
785.0537	-0.003
785.2261	-0.0082
785.3984	-0.0094
785.5707	-0.0059
785.743	-0.0026
785.9153	-0.0013
786.0876	0.0044
786.2598	-0.0159
786.432	-0.0259
786.6042	0.0034
786.7764	0.0019
786.9486	-0.0016
787.1207	-0.0097
787.2928	0.0152
787.4649	0.0048
787.637	-0.0063
787.8091	-0.0028
787.9811	-0.0099
788.1532	0.0042
788.3252	0.0121
788.4972	0.0036
788.6691	-0.0047
788.8411	-0.0021
789.013	-0.0078
789.1849	-0.002
789.3568	0.0011
789.5287	-0.0091
789.7005	-0.0059
789.8723	0.0073
790.0442	0.0049
790.2159	0.001
790.3877	-0.006
790.5595	-0.025
790.7312	0.0043
790.9029	-0.003
791.0746	-0.0041
791.2463	-0.0027
791.4179	-0.0087
791.5896	0.0049
791.7612	0.0032
791.9328	0.003
792.1044	-0.0191
792.2759	-0.0165
792.4474	-0.0052
792.619	0.0065
792.7905	-0.0009
792.9619	0.0013
793.1334	0.0051
793.3048	0.0135
793.4762	0.0077
793.6476	0.0058
793.819	-0.0143
793.9904	0.0095
794.1617	0.0026
794.333	-0.0128
794.5043	-0.0154
794.6756	-0.0032
794.8469	0.0088
795.0181	0.001
795.1893	0.0031
795.3605	0.0005
795.5317	-0.0083
795.7029	-0.0086
795.874	0.0002
796.0452	0.0016
796.2163	-0.0041
796.3873	0.0212
796.5584	0.0073
796.7294	-0.0015
796.9005	-0.0006
797.0715	-0.0058
797.2425	-0.0114
797.4134	-0.0059
797.5844	0.0051
797.7553	-0.0014
797.9262	-0.0106
798.0971	-0.006
798.2679	-0.0029
798.4388	-0.0226
798.6096	-0.0018
798.7804	-0.0081
798.9512	0.0042
799.122	0.0104
799.2927	0.0101
799.4635	0.0182
799.6342	-0.0197
799.8049	0.001
799.9755	0.018
800.1462	0.0098
800.3168	0.0098
800.4874	0.0014
800.658	0.028
800.8286	0.0247
800.9991	0.001
801.1696	0.0146
801.3402	0.0106
801.5106	-0.0068
801.6811	-0.0015
801.8516	0.0193
802.022	-0.0056
802.1924	0.0019
802.3628	0.0072
802.5332	0.015
802.7035	0.0268
802.8739	-0.0133
803.0442	-0.0025
803.2145	0.0019
803.3847	-0.0094
803.555	0.0072
803.7252	-0.0012
803.8954	-0.0232
804.0656	-0.0077
804.2358	-0.003
804.4059	0.0144
804.5761	0.0068
804.7462	0.0076
804.9163	0.0036
805.0864	-0.0161
805.2564	0.0021
805.4264	0.0123
805.5965	-0.0015
805.7665	-0.0021
805.9364	-0.0037
806.1064	0.0158
806.2763	0.0009
806.4462	0.0236
806.6161	-0.01
806.786	0.0062
806.9559	0.0012
807.1257	-0.0045
807.2955	0.0017
807.4653	-0.0033
807.6351	-0.0056
807.8048	0.0217
807.9746	0.0048
808.1443	0.01
808.314	-0.0061
808.4837	0.002
808.6533	-0.0021
808.8229	0.0275
808.9926	0.0078
809.1622	0.0076
809.3317	0.0091
809.5013	-0.0017
809.6708	0.0273
809.8403	0.0169
810.0098	-0.0163
810.1793	0.0016
810.3488	0.0029
810.5182	-0.0204
810.6876	0.0057
810.857	-0.019
811.0264	0.0278
811.1958	0.0105
811.3651	0.0001
811.5344	0.003
811.7037	-0.0033
811.873	-0.0119
812.0422	-0.0031
812.2115	0.0023
812.3807	-0.0167
812.5499	0.0182
812.7191	0.0041
812.8882	-0.0161
813.0574	-0.0021
813.2265	-0.0075
813.3956	0.002
813.5646	0.0004
813.7337	-0.0267
813.9027	0.0028
814.0718	0.0169
814.2407	0.005
814.4097	-0.0174
814.5787	-0.0028
814.7476	-0.0103
814.9165	0.0131
815.0854	-0.0066
815.2543	0.0007
815.4232	-0.0014
815.592	0.0074
815.7608	0.0136
815.9296	0.0196
816.0984	0.0022
816.2671	-0.0087
816.4359	0.0102
816.6046	0.0186
816.7733	0.0311
816.942	-0.0193
817.1106	0.0157
817.2793	0.0074
817.4479	-0.0002
817.6165	0.0167
817.785	0.0004
817.9536	-0.0169
818.1221	0.002
818.2906	0.0072
818.4591	-0.0048
818.6276	0.0062
818.7961	0.0031
818.9645	0.0112
819.1329	0.0188
819.3013	0.0195
819.4697	0.026
819.638	-0.008
819.8064	0.0239
819.9747	0.0132
820.143	0.0066
820.3113	-0.0075
820.4795	0.0216
820.6477	0.0242
820.816	0.0271
820.9842	-0.0144
821.1523	0.0052
821.3205	-0.0097
821.4886	-0.0028
821.6567	-0.0049
821.8248	0.0365
821.9929	-0.0009
822.1609	0.0289
822.329	0.0147
822.497	0.0221
822.665	-0.0046
822.833	-0.0192
823.0009	0.0365
823.1688	0.0209
823.3367	0.039
823.5046	0.0254
823.6725	0.0259
823.8404	0.0089
824.0082	0.0037
824.176	0.0166
824.3438	0.034
824.5116	0.0001
824.6793	0.0199
824.847	0.0076
825.0147	-0.0045
825.1824	0.0089
825.3501	0.0146
825.5177	-0.0056
825.6854	-0.0155
825.853	0.012
826.0206	-0.0256
826.1881	0.0053
826.3557	-0.0335
826.5232	0.0396
826.6907	-0.0184
826.8582	-0.0043
827.0257	-0.0117
827.1931	-0.0128
827.3605	-0.0114
827.528	0.0053
827.6953	-0.0232
827.8627	-0.0204
828.03	0.0382
828.1974	0.0278
828.3647	-0.02
828.532	0.0081
828.6992	0.0209
828.8665	0.0059
829.0337	0.0053
829.2009	-0.0018
829.3681	-0.0019
829.5352	0.0394
829.7024	-0.0188
829.8695	-0.0026
830.0366	0.0306
830.2037	-0.0139
830.3707	0.0071
830.5378	-0.0104
830.7048	0.0062
830.8718	0.0062
831.0388	-0.0577
831.2057	0.026
831.3727	-0.006
831.5396	0.0088
831.7065	0.0342
831.8734	0.0089
832.0402	0.0104
832.2071	-0.0175
832.3739	-0.0022
832.5407	0.0148
832.7075	-0.006
832.8742	-0.0357
833.041	-0.0155
833.2077	0.0138
833.3744	-0.0068
833.541	-0.0088
833.7077	0.009
833.8743	-0.0203
834.0409	-0.0004
834.2075	0.025
834.3741	0.0045
834.5407	-0.0129
834.7072	-0.0197
834.8737	-0.033
835.0402	0.005
835.2067	0.0483
835.3731	0.0123
835.5395	0.0239
835.706	-0.0062
835.8723	0.0401
836.0387	0.0673
836.2051	0.0094
836.3714	0.0044
836.5377	-0.0219
836.704	0.0267
836.8703	0.0003
837.0365	-0.0274
837.2027	0.0102
837.3689	0.0255
837.5351	-0.0343
837.7013	-0.0213
837.8674	-0.043
838.0335	-0.0173
838.1997	-0.0157
838.3657	-0.0153
838.5318	-0.0259
838.6978	0.0347
838.8639	0.0565
839.0299	0.0197
839.1958	-0.0204
839.3618	-0.0429
839.5277	-0.014
839.6937	0.0069
839.8596	-0.042
840.0254	0.0163
840.1913	0.0355
840.3571	-0.0058
840.523	-0.0211
840.6888	-0.0144
840.8545	-0.0427
841.0203	0.0074
841.186	0.0098
841.3517	-0.0006
841.5174	0.0073
841.6831	-0.0099
841.8488	0.0094
842.0144	-0.0331
842.18	-0.0067
842.3456	-0.0199
842.5112	-0.0338
842.6767	-0.0328
842.8422	-0.0154
843.0077	-0.0017
843.1732	-0.0212
843.3387	0.0061
843.5042	-0.0201
843.6696	0.0053
843.835	-0.0238
844.0004	0.0223
844.1657	-0.0278
844.3311	-0.0451
844.4964	-0.0584
844.6617	-0.04
844.827	-0.0255
844.9923	-0.0326
845.1575	-0.0043
845.3227	0.0074
845.4879	-0.0118
845.6531	-0.0281
845.8183	-0.0667
845.9834	0.0157
846.1485	-0.026
846.3136	-0.0279
846.4787	-0.0618
846.6438	0.0632
846.8088	-0.0581
846.9738	-0.0304
847.1388	0.0545
847.3038	-0.0495
847.4687	-0.1192
847.6337	-0.0198
847.7986	0.0153
847.9635	-0.028
848.1284	0.088
848.2932	0.0691
848.458	0.0006
848.6228	0.0761
848.7876	0.064
848.9524	-0.0708
849.1172	-0.0893
849.2819	-0.024
849.4466	-0.083
849.6113	-0.0875
849.7759	-0.0208
849.9406	-0.0163
850.1052	0.031
850.2698	-0.0287
850.4344	0.0106
850.599	-0.0433
850.7635	0.0732
850.928	-0.0217
851.0925	0.0084
851.257	-0.0134
851.4215	-0.023
851.5859	-0.0606
851.7503	-0.0086
851.9147	-0.0027
852.0791	-0.0445
852.2434	0.0404
852.4078	0.0089
852.5721	0.0087
852.7364	-0.0792
852.9007	-0.2268
853.0649	-0.0943
853.2291	0.0059
853.3934	-0.0812
853.5575	0.0296
853.7217	-0.0977
853.8859	-0.1408
854.05	0.0035
854.2141	-0.0883
854.3782	-0.0345
854.5423	-0.0753
854.7063	0.1054
854.8703	-0.0018
855.0343	-0.1311
855.1983	-0.1581
855.3623	0.1181
855.5262	-0.0258
855.6901	0.0472
855.854	-0.0351
856.0179	0.1084
856.1818	0.0039
856.3456	-0.1145
856.5094	-0.1126
856.6732	-0.1567
856.837	-0.0877
857.0008	0.0393
857.1645	-0.0368
857.3282	-0.1539
857.4919	-0.0856
857.6556	-0.1379
857.8192	0.0213
857.9828	-0.0673
858.1465	0.0381
858.31	-0.1286
858.4736	0.0016
858.6372	-0.3694
858.8007	-0.154
858.9642	0.025
859.1277	-0.0265
859.2911	-0.0668
859.4546	-0.0213
859.618	-0.4136
859.7814	-0.0282
859.9448	0.2311
860.1081	0.0125
860.2715	0.1251
860.4348	-0.0493
860.5981	-0.0169
860.7614	0.2694
860.9246	0.2075
861.0879	-0.2312
861.2511	0.0431
861.4143	-0.1696
861.5774	0.0304
861.7406	-0.1858
861.9037	-0.0405
862.0668	-0.1247
862.2299	-0.2111
862.393	-0.4048
862.556	-0.0131
862.7191	0.0282
862.8821	-0.3478
863.0451	-0.1178
863.208	0.1495
863.371	0.0746
863.5339	0.0927
863.6968	0.4563
863.8597	-0.1574
864.0225	0.2225
864.1854	0.1534
864.3482	0.7924
864.511	0.0834
864.6737	0.0816
864.8365	-0.132
864.9992	-0.3868
865.1619	-0.5122
865.3246	-0.4439
865.4873	0.0377
865.65	-0.2114
865.8126	-0.1266
865.9752	0.079
866.1378	0.0693
866.3004	-0.0955
866.4629	0.2409
866.6254	0.9238
866.7879	0.1385
866.9504	0.1999
867.1129	-0
867.2753	0.3985
867.4377	0.0468
867.6001	-0.2176
867.7625	0.3045
867.9249	-0.4465
868.0872	1.1168
868.2495	0.1193
868.4118	0.9974
868.5741	-0.5364
868.7363	0.1461
868.8986	0.3132
869.0608	0.5544
869.223	-0.0226
869.3851	-0.1633
869.5473	-0
869.7094	0.2292
869.8715	-0.4311
870.0336	-1.2025
870.1957	-0.6246
870.3577	-0
870.5197	-0.2178
870.6817	0.0507
870.8437	-0.0658
871.0057	-0.3854
871.1676	-0.3319
871.3295	-0.0798
871.4914	-0
871.6533	0.2945
871.8151	-0.2943
871.977	-0
872.1388	-0
872.3006	-0
872.4623	-0
872.6241	-0
872.7858	0.6728
872.9475	-0.0455
873.1092	-0.195
873.2709	-0
873.4325	-0.2657
873.5941	0.1018
873.7557	-0
873.9173	-0.4317
874.0789	-0.3643
874.2404	0.5921
874.4019	0.6377
874.5634	0.3624
874.7249	-0.0151
874.8863	0.0386
875.0478	-0.1381
875.2092	-0
875.3706	-0.0695
875.5319	-1.1182
875.6933	-0
875.8546	-0.5087
876.0159	-0.1821
876.1772	-0.005
876.3385	-0
876.4997	0.5773
876.6609	-0.3929
876.8221	-0
876.9833	0.7642
877.1445	-0
877.3056	0.2533
877.4667	0.3407
877.6278	-0
877.7889	-0.7175
877.9499	-0.7286
878.111	-0.8288
878.272	-0
878.433	0.9154
878.5939	-0
878.7549	0.029
878.9158	-0
879.0767	0.025
879.2376	-0
879.3984	-0.5058
879.5593	-0
879.7201	0.1811
879.8809	-0.699
880.0417	0.0726
880.2024	0.1511
880.3632	-0.699
880.5239	0.2081
880.6846	0.4605
880.8452	-2.1367
881.0059	-0
881.1665	0.1894
881.3271	-0
881.4877	-0.0276
881.6483	-0.0215
881.8088	-0.3631
881.9693	-0
882.1298	-0
882.2903	-0
