Data from MonoPyChalIsomerACN10uM440nmA_Absorbance_15-27-16-494.txt Node
Date: Fri Jul 05 15:27:16 BST 2024
User: LASERRRRR
Spectrometer: FLMT03099
Trigger mode: 0
Integration Time (sec): 1.000000E-1
Scans to average: 1
Electric dark correction enabled: true
Nonlinearity correction enabled: false
Boxcar width: 0
XAxis mode: Wavelengths
Number of Pixels in Spectrum: 3648
>>>>>Begin Spectral Data<<<<<
179.3399	-0
179.5586	-0
179.7771	-0
179.9957	1.2986
180.2143	-0
180.4329	-0.2759
180.6514	0.507
180.8699	-0
181.0885	-0.2199
181.307	0.3093
181.5255	-0
181.744	-0.3829
181.9625	-0
182.181	-0.7611
182.3994	-0
182.6179	-0
182.8363	-0.0781
183.0547	-0.3514
183.2732	0.0823
183.4916	0.2636
183.71	0.1567
183.9284	0.2974
184.1467	-0.0429
184.3651	0.0381
184.5835	-0.0833
184.8018	-0.0701
185.0201	-0.1235
185.2385	0.1414
185.4568	0.0809
185.6751	0.034
185.8934	0.0374
186.1117	-0.1182
186.3299	-0.0746
186.5482	0.1332
186.7664	-0.1491
186.9847	-0.1437
187.2029	-0.0264
187.4211	0.1438
187.6393	0.1258
187.8575	0.035
188.0757	0.1788
188.2939	0.1362
188.512	0.0854
188.7302	0.1419
188.9483	0.1052
189.1665	0.1506
189.3846	-0.3021
189.6027	0.169
189.8208	0.1902
190.0389	0.1343
190.257	0.0803
190.475	0.1693
190.6931	0.2008
190.9111	0.4402
191.1292	0.1403
191.3472	0.437
191.5652	0.2939
191.7832	0.326
192.0012	0.6983
192.2192	0.2795
192.4371	0.386
192.6551	0.3756
192.873	0.4901
193.091	0.3668
193.3089	0.5636
193.5268	0.4917
193.7447	0.5268
193.9626	0.4419
194.1805	0.614
194.3984	0.7396
194.6162	0.4539
194.8341	0.6035
195.0519	0.5175
195.2697	0.8284
195.4875	0.6205
195.7054	0.7126
195.9231	0.6043
196.1409	0.4564
196.3587	0.5992
196.5765	0.5968
196.7942	0.6422
197.012	0.4936
197.2297	0.4613
197.4474	0.6688
197.6651	0.5404
197.8828	0.5185
198.1005	0.8142
198.3182	0.78
198.5358	0.7911
198.7535	0.6077
198.9711	0.6361
199.1888	0.5939
199.4064	0.7454
199.624	0.5019
199.8416	0.4996
200.0592	0.6337
200.2767	0.6391
200.4943	0.7098
200.7119	0.7688
200.9294	0.5888
201.1469	0.5869
201.3645	0.6187
201.582	0.5972
201.7995	0.7245
202.017	0.7235
202.2344	0.5722
202.4519	0.6207
202.6694	0.7383
202.8868	0.5538
203.1042	0.6685
203.3217	0.776
203.5391	0.5764
203.7565	0.5888
203.9739	0.6295
204.1913	0.5998
204.4086	0.6402
204.626	0.6525
204.8433	0.6686
205.0607	0.619
205.278	0.5896
205.4953	0.7017
205.7126	0.6008
205.9299	0.6768
206.1472	0.6893
206.3644	0.6159
206.5817	0.6207
206.7989	0.7167
207.0162	0.6776
207.2334	0.6334
207.4506	0.7004
207.6678	0.62
207.885	0.6177
208.1022	0.601
208.3194	0.6591
208.5365	0.6646
208.7537	0.7017
208.9708	0.5823
209.1879	0.6573
209.405	0.6383
209.6222	0.6462
209.8392	0.6092
210.0563	0.624
210.2734	0.6699
210.4905	0.6837
210.7075	0.6144
210.9245	0.6027
211.1416	0.6788
211.3586	0.6317
211.5756	0.5715
211.7926	0.6512
212.0096	0.6641
212.2265	0.6075
212.4435	0.5828
212.6604	0.6151
212.8774	0.6228
213.0943	0.5627
213.3112	0.5613
213.5281	0.5016
213.745	0.5153
213.9619	0.5001
214.1788	0.4656
214.3956	0.4888
214.6125	0.4609
214.8293	0.4763
215.0461	0.5013
215.2629	0.4604
215.4798	0.4962
215.6965	0.4165
215.9133	0.4432
216.1301	0.4149
216.3469	0.4192
216.5636	0.4333
216.7803	0.3635
216.9971	0.4247
217.2138	0.3617
217.4305	0.3776
217.6472	0.3636
217.8639	0.3865
218.0805	0.3378
218.2972	0.326
218.5138	0.34
218.7305	0.3086
218.9471	0.2994
219.1637	0.2858
219.3803	0.2684
219.5969	0.2884
219.8135	0.2475
220.0301	0.2685
220.2466	0.2654
220.4632	0.2607
220.6797	0.2332
220.8962	0.2473
221.1127	0.2539
221.3292	0.2371
221.5457	0.2195
221.7622	0.2362
221.9787	0.2478
222.1951	0.2578
222.4116	0.2428
222.628	0.2277
222.8444	0.2436
223.0608	0.2561
223.2772	0.2361
223.4936	0.238
223.71	0.2348
223.9264	0.2748
224.1427	0.243
224.3591	0.2364
224.5754	0.2441
224.7917	0.2538
225.008	0.2442
225.2243	0.2513
225.4406	0.2957
225.6569	0.2798
225.8732	0.2529
226.0894	0.2536
226.3057	0.2576
226.5219	0.2777
226.7381	0.252
226.9543	0.275
227.1705	0.2834
227.3867	0.2658
227.6029	0.3032
227.8191	0.307
228.0352	0.2846
228.2513	0.3241
228.4675	0.3157
228.6836	0.2783
228.8997	0.2738
229.1158	0.2914
229.3319	0.3102
229.548	0.3131
229.764	0.3137
229.9801	0.3332
230.1961	0.3385
230.4121	0.3206
230.6282	0.325
230.8442	0.3057
231.0602	0.3631
231.2761	0.3507
231.4921	0.3473
231.7081	0.3533
231.924	0.3415
232.14	0.3613
232.3559	0.3406
232.5718	0.3551
232.7877	0.3564
233.0036	0.3332
233.2195	0.3585
233.4353	0.3307
233.6512	0.3395
233.867	0.3676
234.0829	0.346
234.2987	0.3582
234.5145	0.3839
234.7303	0.3728
234.9461	0.3435
235.1619	0.3883
235.3776	0.3929
235.5934	0.3793
235.8091	0.3726
236.0249	0.3661
236.2406	0.3787
236.4563	0.3773
236.672	0.391
236.8877	0.3903
237.1034	0.3858
237.319	0.3914
237.5347	0.4129
237.7503	0.4004
237.966	0.3932
238.1816	0.407
238.3972	0.3798
238.6128	0.3957
238.8284	0.4009
239.0439	0.4018
239.2595	0.4013
239.475	0.4067
239.6906	0.4139
239.9061	0.3907
240.1216	0.3952
240.3371	0.41
240.5526	0.3978
240.7681	0.4167
240.9836	0.3826
241.199	0.3832
241.4145	0.384
241.6299	0.3626
241.8453	0.3645
242.0607	0.3741
242.2761	0.3684
242.4915	0.371
242.7069	0.3623
242.9223	0.3538
243.1376	0.3507
243.353	0.3499
243.5683	0.3526
243.7836	0.327
243.9989	0.3363
244.2142	0.3196
244.4295	0.3246
244.6448	0.2937
244.86	0.298
245.0753	0.2918
245.2905	0.2801
245.5057	0.271
245.721	0.2733
245.9362	0.2636
246.1514	0.2774
246.3665	0.2495
246.5817	0.2659
246.7969	0.251
247.012	0.2443
247.2271	0.2319
247.4423	0.2407
247.6574	0.2397
247.8725	0.2414
248.0876	0.2227
248.3026	0.2139
248.5177	0.2218
248.7328	0.2243
248.9478	0.2046
249.1628	0.2148
249.3779	0.217
249.5929	0.198
249.8079	0.2271
250.0228	0.2006
250.2378	0.2064
250.4528	0.2032
250.6677	0.1941
250.8827	0.2012
251.0976	0.1942
251.3125	0.1911
251.5274	0.1774
251.7423	0.1699
251.9572	0.1706
252.172	0.1726
252.3869	0.1827
252.6017	0.1756
252.8166	0.177
253.0314	0.1486
253.2462	0.153
253.461	0.1749
253.6758	0.1702
253.8906	0.1758
254.1053	0.1563
254.3201	0.163
254.5348	0.1726
254.7496	0.188
254.9643	0.1609
255.179	0.1677
255.3937	0.1619
255.6083	0.1615
255.823	0.1789
256.0377	0.1657
256.2523	0.1686
256.467	0.1465
256.6816	0.178
256.8962	0.1686
257.1108	0.1605
257.3254	0.1676
257.54	0.154
257.7545	0.1603
257.9691	0.1696
258.1836	0.171
258.3981	0.1719
258.6127	0.1771
258.8272	0.1701
259.0417	0.1464
259.2561	0.1672
259.4706	0.1719
259.6851	0.1673
259.8995	0.152
260.114	0.165
260.3284	0.1542
260.5428	0.1654
260.7572	0.1546
260.9716	0.1659
261.186	0.1614
261.4003	0.1769
261.6147	0.1636
261.829	0.154
262.0433	0.1628
262.2577	0.1529
262.472	0.1874
262.6863	0.1572
262.9005	0.1658
263.1148	0.1687
263.3291	0.1411
263.5433	0.1581
263.7576	0.1582
263.9718	0.1525
264.186	0.1695
264.4002	0.1532
264.6144	0.1519
264.8286	0.1737
265.0427	0.1622
265.2569	0.1638
265.471	0.1556
265.6851	0.155
265.8993	0.1566
266.1134	0.1551
266.3275	0.1649
266.5415	0.158
266.7556	0.1576
266.9697	0.1749
267.1837	0.1707
267.3978	0.1671
267.6118	0.1609
267.8258	0.1765
268.0398	0.1469
268.2538	0.1647
268.4677	0.1752
268.6817	0.1615
268.8957	0.166
269.1096	0.1588
269.3235	0.177
269.5374	0.1533
269.7514	0.1629
269.9652	0.1524
270.1791	0.1457
270.393	0.1485
270.6068	0.1598
270.8207	0.16
271.0345	0.1349
271.2483	0.1562
271.4622	0.1405
271.676	0.1508
271.8897	0.1609
272.1035	0.1366
272.3173	0.1537
272.531	0.1491
272.7448	0.1477
272.9585	0.1379
273.1722	0.1471
273.3859	0.1593
273.5996	0.1355
273.8133	0.1504
274.0269	0.1412
274.2406	0.1422
274.4542	0.1339
274.6679	0.1317
274.8815	0.1512
275.0951	0.1524
275.3087	0.1495
275.5223	0.145
275.7358	0.1438
275.9494	0.1564
276.1629	0.1538
276.3765	0.1415
276.59	0.1503
276.8035	0.1488
277.017	0.1503
277.2305	0.1411
277.444	0.1589
277.6574	0.14
277.8709	0.1527
278.0843	0.1494
278.2978	0.1591
278.5112	0.1514
278.7246	0.1588
278.938	0.1539
279.1513	0.158
279.3647	0.1577
279.5781	0.144
279.7914	0.1515
280.0047	0.1592
280.2181	0.1509
280.4314	0.1553
280.6447	0.1569
280.8579	0.1537
281.0712	0.1585
281.2845	0.1528
281.4977	0.1517
281.711	0.1538
281.9242	0.1473
282.1374	0.1587
282.3506	0.1472
282.5638	0.1617
282.7769	0.163
282.9901	0.1501
283.2033	0.1649
283.4164	0.1708
283.6295	0.158
283.8426	0.1541
284.0557	0.1558
284.2688	0.1623
284.4819	0.1672
284.695	0.1597
284.908	0.162
285.1211	0.1487
285.3341	0.1575
285.5471	0.1662
285.7601	0.155
285.9731	0.1534
286.1861	0.148
286.3991	0.1691
286.612	0.1578
286.825	0.1627
287.0379	0.1578
287.2508	0.1533
287.4637	0.164
287.6766	0.1421
287.8895	0.1623
288.1024	0.1787
288.3152	0.1592
288.5281	0.1576
288.7409	0.1708
288.9538	0.1662
289.1666	0.1568
289.3794	0.1552
289.5922	0.1558
289.8049	0.1487
290.0177	0.1575
290.2304	0.1584
290.4432	0.1611
290.6559	0.1631
290.8686	0.161
291.0813	0.161
291.294	0.1631
291.5067	0.1671
291.7194	0.16
291.932	0.1708
292.1447	0.165
292.3573	0.1569
292.5699	0.1536
292.7825	0.1666
292.9951	0.1527
293.2077	0.1573
293.4203	0.168
293.6328	0.1414
293.8454	0.1599
294.0579	0.1612
294.2704	0.166
294.4829	0.1545
294.6954	0.1739
294.9079	0.1596
295.1204	0.1608
295.3328	0.1504
295.5453	0.1585
295.7577	0.1635
295.9701	0.1559
296.1825	0.1601
296.3949	0.1582
296.6073	0.1544
296.8197	0.1507
297.0321	0.178
297.2444	0.1537
297.4567	0.1638
297.6691	0.1661
297.8814	0.1571
298.0937	0.1565
298.306	0.1558
298.5182	0.151
298.7305	0.164
298.9428	0.1547
299.155	0.1644
299.3672	0.1502
299.5794	0.1531
299.7916	0.1561
300.0038	0.17
300.216	0.1536
300.4282	0.1655
300.6403	0.153
300.8525	0.1677
301.0646	0.1556
301.2767	0.1638
301.4888	0.1561
301.7009	0.1636
301.913	0.1586
302.125	0.1629
302.3371	0.1559
302.5491	0.1597
302.7612	0.1717
302.9732	0.1561
303.1852	0.1468
303.3972	0.1681
303.6092	0.155
303.8211	0.1512
304.0331	0.1401
304.245	0.1429
304.457	0.1511
304.6689	0.1488
304.8808	0.1652
305.0927	0.1488
305.3046	0.1521
305.5164	0.1583
305.7283	0.1532
305.9401	0.1449
306.152	0.1383
306.3638	0.1383
306.5756	0.1461
306.7874	0.1406
306.9992	0.1417
307.2109	0.1306
307.4227	0.1259
307.6344	0.1402
307.8462	0.128
308.0579	0.1317
308.2696	0.1228
308.4813	0.1346
308.693	0.1321
308.9046	0.1273
309.1163	0.1219
309.328	0.1202
309.5396	0.124
309.7512	0.1119
309.9628	0.1206
310.1744	0.1128
310.386	0.1187
310.5976	0.1223
310.8091	0.1207
311.0207	0.1257
311.2322	0.1239
311.4437	0.1169
311.6552	0.1096
311.8667	0.1102
312.0782	0.102
312.2897	0.1031
312.5012	0.1117
312.7126	0.1078
312.924	0.0982
313.1355	0.1064
313.3469	0.1187
313.5583	0.1178
313.7696	0.105
313.981	0.1066
314.1924	0.0976
314.4037	0.104
314.6151	0.1059
314.8264	0.0945
315.0377	0.1031
315.249	0.1073
315.4603	0.1108
315.6716	0.1004
315.8828	0.1035
316.0941	0.0984
316.3053	0.099
316.5165	0.094
316.7277	0.0839
316.9389	0.1049
317.1501	0.093
317.3613	0.1045
317.5724	0.0966
317.7836	0.1067
317.9947	0.0941
318.2058	0.0972
318.417	0.0945
318.6281	0.0882
318.8391	0.1032
319.0502	0.0946
319.2613	0.0952
319.4723	0.0971
319.6834	0.1046
319.8944	0.0889
320.1054	0.1056
320.3164	0.1127
320.5274	0.0842
320.7383	0.0982
320.9493	0.106
321.1602	0.1045
321.3712	0.093
321.5821	0.0849
321.793	0.099
322.0039	0.098
322.2148	0.0955
322.4257	0.097
322.6365	0.105
322.8474	0.0954
323.0582	0.1134
323.269	0.1025
323.4798	0.1131
323.6906	0.0946
323.9014	0.0952
324.1122	0.1105
324.3229	0.0919
324.5337	0.0974
324.7444	0.0927
324.9551	0.1071
325.1658	0.1005
325.3765	0.1081
325.5872	0.1
325.7979	0.0994
326.0085	0.1062
326.2192	0.1042
326.4298	0.1077
326.6404	0.1006
326.851	0.0949
327.0616	0.0927
327.2722	0.1187
327.4828	0.1087
327.6933	0.0998
327.9039	0.1088
328.1144	0.1207
328.3249	0.1138
328.5354	0.1033
328.7459	0.1032
328.9564	0.1032
329.1669	0.0944
329.3773	0.1074
329.5878	0.1138
329.7982	0.1021
330.0086	0.1044
330.219	0.1087
330.4294	0.1067
330.6398	0.1049
330.8502	0.0966
331.0605	0.1015
331.2708	0.1057
331.4812	0.1054
331.6915	0.1168
331.9018	0.1159
332.1121	0.1001
332.3224	0.1174
332.5326	0.1056
332.7429	0.111
332.9531	0.1159
333.1633	0.1126
333.3735	0.1034
333.5837	0.1098
333.7939	0.0892
334.0041	0.1195
334.2143	0.1152
334.4244	0.1123
334.6346	0.0904
334.8447	0.1255
335.0548	0.0989
335.2649	0.0969
335.475	0.1145
335.685	0.103
335.8951	0.1228
336.1051	0.1252
336.3152	0.1115
336.5252	0.1039
336.7352	0.106
336.9452	0.1273
337.1552	0.1082
337.3652	0.1127
337.5751	0.1188
337.7851	0.1116
337.995	0.1044
338.2049	0.1211
338.4148	0.1098
338.6247	0.1187
338.8346	0.1063
339.0445	0.0979
339.2543	0.119
339.4642	0.1148
339.674	0.1122
339.8838	0.1096
340.0936	0.1189
340.3034	0.1308
340.5132	0.1155
340.7229	0.123
340.9327	0.1158
341.1424	0.1075
341.3522	0.1289
341.5619	0.1295
341.7716	0.1221
341.9813	0.1144
342.1909	0.1195
342.4006	0.1261
342.6102	0.1341
342.8199	0.1249
343.0295	0.1204
343.2391	0.1339
343.4487	0.1409
343.6583	0.121
343.8679	0.1206
344.0774	0.1367
344.287	0.129
344.4965	0.1252
344.706	0.1374
344.9155	0.1352
345.125	0.1262
345.3345	0.1355
345.544	0.1208
345.7534	0.1242
345.9629	0.124
346.1723	0.1341
346.3817	0.1303
346.5911	0.1263
346.8005	0.1407
347.0099	0.1179
347.2193	0.1357
347.4286	0.1343
347.638	0.1347
347.8473	0.1363
348.0566	0.1397
348.2659	0.1326
348.4752	0.1316
348.6845	0.1364
348.8937	0.1295
349.103	0.1376
349.3122	0.1325
349.5214	0.1303
349.7306	0.1389
349.9398	0.1325
350.149	0.1413
350.3582	0.1404
350.5674	0.162
350.7765	0.1378
350.9856	0.1318
351.1948	0.1588
351.4039	0.133
351.613	0.1369
351.822	0.1512
352.0311	0.1421
352.2402	0.1477
352.4492	0.1401
352.6582	0.1499
352.8672	0.1535
353.0762	0.1575
353.2852	0.1417
353.4942	0.1378
353.7032	0.1458
353.9121	0.1613
354.1211	0.147
354.33	0.1455
354.5389	0.1484
354.7478	0.1519
354.9567	0.1414
355.1655	0.1544
355.3744	0.164
355.5833	0.1555
355.7921	0.1783
356.0009	0.1547
356.2097	0.1609
356.4185	0.1659
356.6273	0.1697
356.8361	0.1664
357.0448	0.1503
357.2536	0.1554
357.4623	0.156
357.671	0.1622
357.8797	0.1635
358.0884	0.1563
358.2971	0.1618
358.5057	0.1664
358.7144	0.1778
358.923	0.1751
359.1316	0.1716
359.3402	0.1754
359.5488	0.1633
359.7574	0.1678
359.966	0.1744
360.1746	0.1709
360.3831	0.1826
360.5916	0.1652
360.8002	0.1539
361.0087	0.1833
361.2172	0.1798
361.4256	0.1782
361.6341	0.1675
361.8426	0.1846
362.051	0.1736
362.2594	0.1828
362.4678	0.1669
362.6762	0.2014
362.8846	0.189
363.093	0.1827
363.3014	0.1693
363.5097	0.1615
363.718	0.2021
363.9264	0.186
364.1347	0.1677
364.343	0.1883
364.5513	0.1917
364.7595	0.1956
364.9678	0.1896
365.176	0.2111
365.3842	0.1797
365.5925	0.1853
365.8007	0.1852
366.0089	0.1902
366.217	0.1754
366.4252	0.2124
366.6333	0.2145
366.8415	0.2017
367.0496	0.182
367.2577	0.2165
367.4658	0.2146
367.6739	0.1981
367.882	0.2155
368.09	0.1899
368.2981	0.2085
368.5061	0.1952
368.7141	0.2058
368.9221	0.2185
369.1301	0.1986
369.3381	0.188
369.5461	0.2089
369.754	0.2017
369.962	0.2279
370.1699	0.1929
370.3778	0.2233
370.5857	0.1942
370.7936	0.2109
371.0015	0.2195
371.2093	0.2204
371.4172	0.2227
371.625	0.1874
371.8328	0.1989
372.0406	0.2072
372.2484	0.2112
372.4562	0.2346
372.664	0.2138
372.8717	0.2189
373.0795	0.2081
373.2872	0.2252
373.4949	0.2194
373.7026	0.2092
373.9103	0.2138
374.118	0.2346
374.3256	0.2274
374.5333	0.2159
374.7409	0.211
374.9485	0.2349
375.1561	0.2229
375.3637	0.2139
375.5713	0.2313
375.7789	0.2297
375.9864	0.2416
376.194	0.2329
376.4015	0.2274
376.609	0.2294
376.8165	0.231
377.024	0.2184
377.2315	0.2027
377.4389	0.2303
377.6464	0.2365
377.8538	0.2365
378.0612	0.2075
378.2686	0.2374
378.476	0.239
378.6834	0.2355
378.8908	0.2344
379.0981	0.2444
379.3055	0.2393
379.5128	0.2247
379.7201	0.2375
379.9274	0.2334
380.1347	0.235
380.342	0.2571
380.5492	0.2319
380.7565	0.2293
380.9637	0.2392
381.1709	0.2401
381.3781	0.2444
381.5853	0.2526
381.7925	0.2422
381.9997	0.2387
382.2068	0.2512
382.4139	0.246
382.6211	0.2423
382.8282	0.2374
383.0353	0.2392
383.2424	0.2474
383.4494	0.2473
383.6565	0.238
383.8635	0.2533
384.0706	0.2412
384.2776	0.2503
384.4846	0.236
384.6916	0.2463
384.8986	0.237
385.1055	0.2558
385.3125	0.2359
385.5194	0.2247
385.7263	0.2413
385.9333	0.2381
386.1402	0.2444
386.347	0.2482
386.5539	0.2391
386.7608	0.2417
386.9676	0.2355
387.1744	0.2343
387.3813	0.2338
387.5881	0.2444
387.7948	0.2489
388.0016	0.2332
388.2084	0.2343
388.4151	0.2361
388.6219	0.2278
388.8286	0.2302
389.0353	0.2588
389.242	0.2289
389.4487	0.2351
389.6553	0.2286
389.862	0.22
390.0686	0.231
390.2753	0.24
390.4819	0.2317
390.6885	0.2208
390.8951	0.2209
391.1016	0.2182
391.3082	0.2207
391.5147	0.217
391.7213	0.2365
391.9278	0.2311
392.1343	0.2222
392.3408	0.2258
392.5473	0.2171
392.7537	0.2161
392.9602	0.226
393.1666	0.2227
393.373	0.2182
393.5794	0.2221
393.7858	0.2236
393.9922	0.1904
394.1986	0.2227
394.4049	0.228
394.6113	0.226
394.8176	0.2014
395.0239	0.219
395.2302	0.2049
395.4365	0.2177
395.6428	0.2155
395.8491	0.201
396.0553	0.2183
396.2615	0.2143
396.4678	0.1983
396.674	0.1909
396.8802	0.2039
397.0863	0.2123
397.2925	0.1989
397.4987	0.1984
397.7048	0.2001
397.9109	0.2018
398.117	0.1896
398.3231	0.185
398.5292	0.1999
398.7353	0.21
398.9413	0.2073
399.1474	0.1981
399.3534	0.2095
399.5594	0.1861
399.7654	0.207
399.9714	0.223
400.1774	0.2063
400.3833	0.1943
400.5893	0.1968
400.7952	0.2038
401.0011	0.1907
401.207	0.1949
401.4129	0.1873
401.6188	0.2055
401.8247	0.2073
402.0305	0.1965
402.2364	0.1795
402.4422	0.2219
402.648	0.2148
402.8538	0.2135
403.0596	0.1967
403.2654	0.2027
403.4711	0.1914
403.6768	0.2072
403.8826	0.1952
404.0883	0.1918
404.294	0.207
404.4997	0.2101
404.7054	0.2078
404.911	0.1979
405.1167	0.1817
405.3223	0.2078
405.5279	0.2044
405.7335	0.2019
405.9391	0.2081
406.1447	0.1936
406.3502	0.2163
406.5558	0.1998
406.7613	0.2101
406.9668	0.2049
407.1724	0.2024
407.3778	0.1974
407.5833	0.1975
407.7888	0.2023
407.9942	0.2001
408.1997	0.1798
408.4051	0.1996
408.6105	0.2012
408.8159	0.1852
409.0213	0.1838
409.2267	0.2097
409.432	0.1989
409.6374	0.1976
409.8427	0.1916
410.048	0.2013
410.2533	0.186
410.4586	0.1856
410.6639	0.1823
410.8691	0.1875
411.0744	0.1932
411.2796	0.1831
411.4848	0.1942
411.69	0.1958
411.8952	0.2109
412.1004	0.1846
412.3056	0.1978
412.5107	0.1815
412.7158	0.1975
412.921	0.2003
413.1261	0.1869
413.3312	0.1852
413.5362	0.186
413.7413	0.192
413.9464	0.1703
414.1514	0.1984
414.3564	0.199
414.5614	0.1845
414.7664	0.1923
414.9714	0.2204
415.1764	0.1844
415.3813	0.2092
415.5863	0.1975
415.7912	0.1906
415.9961	0.2074
416.201	0.1798
416.4059	0.194
416.6108	0.1886
416.8156	0.2064
417.0205	0.1855
417.2253	0.1769
417.4301	0.2004
417.6349	0.1834
417.8397	0.1844
418.0445	0.1903
418.2492	0.1865
418.454	0.1984
418.6587	0.188
418.8634	0.1818
419.0681	0.1716
419.2728	0.1801
419.4775	0.1785
419.6822	0.1729
419.8868	0.1598
420.0915	0.1991
420.2961	0.1733
420.5007	0.1649
420.7053	0.1726
420.9099	0.2025
421.1144	0.1835
421.319	0.1758
421.5235	0.1809
421.728	0.1946
421.9325	0.1914
422.137	0.1914
422.3415	0.1764
422.546	0.1654
422.7504	0.1649
422.9549	0.1832
423.1593	0.1776
423.3637	0.1734
423.5681	0.1676
423.7725	0.1665
423.9769	0.1461
424.1812	0.1676
424.3856	0.152
424.5899	0.1673
424.7942	0.1508
424.9985	0.1736
425.2028	0.1533
425.4071	0.1845
425.6113	0.159
425.8156	0.1656
426.0198	0.1791
426.224	0.1675
426.4282	0.1596
426.6324	0.1441
426.8366	0.1522
427.0407	0.1594
427.2449	0.1536
427.449	0.1581
427.6531	0.132
427.8572	0.1412
428.0613	0.1505
428.2654	0.1409
428.4694	0.127
428.6735	0.1383
428.8775	0.1613
429.0815	0.15
429.2855	0.1238
429.4895	0.1668
429.6935	0.1402
429.8975	0.1342
430.1014	0.1328
430.3053	0.1282
430.5093	0.1393
430.7132	0.1166
430.9171	0.1323
431.1209	0.1247
431.3248	0.1242
431.5286	0.141
431.7325	0.1248
431.9363	0.1206
432.1401	0.1232
432.3439	0.1184
432.5477	0.1166
432.7514	0.1145
432.9552	0.1274
433.1589	0.1187
433.3627	0.1017
433.5664	0.107
433.7701	0.1079
433.9737	0.1127
434.1774	0.0937
434.3811	0.1011
434.5847	0.1132
434.7883	0.1036
434.9919	0.1101
435.1955	0.1064
435.3991	0.0979
435.6027	0.0939
435.8062	0.0905
436.0098	0.0926
436.2133	0.1058
436.4168	0.0757
436.6203	0.0836
436.8238	0.1028
437.0272	0.0989
437.2307	0.0905
437.4341	0.0941
437.6375	0.0899
437.841	0.0784
438.0443	0.0835
438.2477	0.0804
438.4511	0.081
438.6545	0.0971
438.8578	0.0956
439.0611	0.0708
439.2644	0.0831
439.4677	0.0669
439.671	0.0714
439.8743	0.0653
440.0775	0.0776
440.2808	0.0682
440.484	0.046
440.6872	0.055
440.8904	0.0621
441.0936	0.0943
441.2967	0.0568
441.4999	0.066
441.703	0.07
441.9062	0.0652
442.1093	0.0628
442.3124	0.0637
442.5155	0.038
442.7185	0.0589
442.9216	0.0438
443.1246	0.072
443.3276	0.0475
443.5307	0.0465
443.7337	0.0471
443.9366	0.0601
444.1396	0.0576
444.3426	0.0479
444.5455	0.052
444.7484	0.0498
444.9513	0.0417
445.1542	0.0683
445.3571	0.0378
445.56	0.0476
445.7628	0.0481
445.9657	0.0335
446.1685	0.0527
446.3713	0.0277
446.5741	0.032
446.7769	0.0245
446.9797	0.0464
447.1824	0.0476
447.3852	0.0377
447.5879	0.053
447.7906	0.0424
447.9933	0.0257
448.196	0.032
448.3986	0.0441
448.6013	0.0438
448.8039	0.005
449.0066	0.0265
449.2092	0.035
449.4118	0.0284
449.6143	0.0308
449.8169	0.0327
450.0195	0.0305
450.222	0.0107
450.4245	0.0226
450.627	0.0296
450.8295	0.0103
451.032	0.036
451.2345	0.0269
451.4369	0.022
451.6394	0.0186
451.8418	0.0049
452.0442	0.0147
452.2466	0.0308
452.449	0.0066
452.6513	0.0304
452.8537	0.02
453.056	0.0028
453.2583	0.019
453.4607	0.0102
453.663	0.0194
453.8652	0.0218
454.0675	0.0008
454.2697	0.0248
454.472	0.0048
454.6742	0.0319
454.8764	0.0239
455.0786	0.0145
455.2808	-0.0002
455.4829	0.0131
455.6851	0.0184
455.8872	0.0163
456.0893	0.0216
456.2915	-0.0044
456.4935	0.02
456.6956	0.0028
456.8977	0.0154
457.0997	0.0082
457.3018	-0.0066
457.5038	0.0151
457.7058	-0.0009
457.9078	-0.0044
458.1098	0.0231
458.3117	0.0017
458.5137	0.0122
458.7156	0.008
458.9175	-0.0054
459.1194	0.0063
459.3213	0.0023
459.5232	-0.0012
459.725	-0.0092
459.9269	0.0101
460.1287	-0.007
460.3305	0.0181
460.5323	0.0086
460.7341	0.0025
460.9359	0.0004
461.1376	0.0217
461.3394	0.013
461.5411	0.0065
461.7428	-0.007
461.9445	0.0134
462.1462	0.0187
462.3479	0.003
462.5495	-0.0027
462.7512	0.0038
462.9528	-0.0028
463.1544	-0.0114
463.356	0.015
463.5576	0.0126
463.7592	-0.0062
463.9607	0.013
464.1623	0.0156
464.3638	0.0171
464.5653	-0.0056
464.7668	0.0018
464.9683	0.009
465.1697	0.012
465.3712	-0.0054
465.5726	-0.021
465.7741	0.0032
465.9755	0.0006
466.1769	-0.0063
466.3782	0.0014
466.5796	-0.011
466.7809	0.0001
466.9823	-0.0029
467.1836	0.003
467.3849	0.0041
467.5862	0.0022
467.7875	0.0085
467.9887	0.0159
468.19	-0.0052
468.3912	0.0019
468.5924	-0.0069
468.7936	-0.0001
468.9948	0.0024
469.196	0.0006
469.3972	-0.007
469.5983	-0.0017
469.7994	-0.0075
470.0006	-0.0055
470.2017	-0.006
470.4027	0.0063
470.6038	-0.0011
470.8049	-0.0118
471.0059	0.0006
471.2069	-0.0299
471.408	0.009
471.6089	0.0031
471.8099	-0.0053
472.0109	0.0113
472.2119	0.0072
472.4128	-0.0081
472.6137	-0.001
472.8146	-0.0203
473.0155	0.0012
473.2164	-0.006
473.4173	0.0132
473.6181	0.0024
473.819	0.0085
474.0198	-0.0016
474.2206	-0.0015
474.4214	-0.012
474.6222	0.0001
474.8229	-0.0154
475.0237	-0.0174
475.2244	-0.0116
475.4251	0.0018
475.6258	-0.0023
475.8265	-0.0107
476.0272	0.0152
476.2278	-0.0106
476.4285	0.0001
476.6291	-0.0089
476.8297	0.0008
477.0303	-0.0126
477.2309	0.0054
477.4315	-0.0031
477.632	0.0008
477.8326	0.0062
478.0331	0.0103
478.2336	0.0078
478.4341	-0.0031
478.6346	-0.0039
478.8351	-0.0007
479.0355	0.0053
479.236	-0.0121
479.4364	0.0075
479.6368	-0
479.8372	-0.0062
480.0376	-0.0067
480.2379	-0.0162
480.4383	-0.0007
480.6386	0.0078
480.8389	0.0003
481.0392	-0.0144
481.2395	-0.0164
481.4398	0.0164
481.6401	-0.0013
481.8403	-0.0042
482.0405	-0.0038
482.2408	-0.0021
482.441	0.0192
482.6411	-0.01
482.8413	-0.0084
483.0415	-0.0098
483.2416	-0.015
483.4417	-0.0045
483.6419	-0.0033
483.8419	-0.0047
484.042	-0.0001
484.2421	0.0029
484.4422	0.0105
484.6422	-0.003
484.8422	0.0009
485.0422	0.0003
485.2422	-0.0026
485.4422	-0.0133
485.6422	-0.0156
485.8421	-0.0046
486.042	-0.0071
486.242	-0.0088
486.4419	-0.0047
486.6417	-0.0076
486.8416	0.004
487.0415	-0.0078
487.2413	-0.0057
487.4411	-0.0064
487.641	-0.0001
487.8408	0.0074
488.0405	-0.0067
488.2403	0.0018
488.4401	0.0126
488.6398	-0.002
488.8395	-0.0088
489.0392	0.0068
489.2389	-0.0052
489.4386	-0.0075
489.6383	-0.0053
489.8379	0.0034
490.0376	0.0064
490.2372	-0.0157
490.4368	-0.0041
490.6364	-0.0093
490.836	-0.0044
491.0355	0.0009
491.2351	0.0016
491.4346	-0.0008
491.6341	-0.0132
491.8336	0.0048
492.0331	-0.0049
492.2326	-0.018
492.432	-0.0023
492.6315	0.0026
492.8309	-0.0135
493.0303	-0.0151
493.2297	-0.0056
493.4291	-0.007
493.6284	-0.0066
493.8278	-0.0043
494.0271	-0.0031
494.2264	0.0041
494.4257	-0.0147
494.625	-0.0055
494.8243	-0.0068
495.0236	-0.009
495.2228	-0.0061
495.422	-0.0043
495.6213	-0.0058
495.8205	-0.0026
496.0196	-0.0101
496.2188	0.0038
496.418	-0.0081
496.6171	-0.0088
496.8162	-0.0192
497.0153	-0.0008
497.2144	-0.0051
497.4135	-0.0141
497.6126	-0.0095
497.8116	-0.0024
498.0107	0.0039
498.2097	-0.005
498.4087	-0.0055
498.6077	-0.0035
498.8067	-0.014
499.0056	0.0005
499.2046	-0.0103
499.4035	-0.0098
499.6024	-0.0016
499.8013	-0.0012
500.0002	-0.0134
500.199	-0.0051
500.3979	-0.0007
500.5967	-0.0106
500.7956	0.0045
500.9944	-0.005
501.1932	-0.0091
501.3919	-0.0093
501.5907	-0.0079
501.7895	-0.0012
501.9882	-0.0085
502.1869	-0.0018
502.3856	-0.0066
502.5843	-0.0086
502.783	-0.0101
502.9816	-0.0061
503.1803	-0.009
503.3789	-0.0095
503.5775	0.0079
503.7761	-0.0145
503.9747	-0.0016
504.1732	0.0011
504.3718	-0.0044
504.5703	0.0006
504.7689	0.0001
504.9674	0.0046
505.1658	-0.0174
505.3643	-0.0034
505.5628	-0.005
505.7612	-0.0089
505.9597	0.0059
506.1581	-0.0079
506.3565	0.0116
506.5549	0.0017
506.7532	-0.0111
506.9516	-0.0092
507.1499	-0.0014
507.3482	-0.0094
507.5465	-0.0139
507.7448	-0.0002
507.9431	-0.0014
508.1414	0.0003
508.3396	-0.0078
508.5379	-0.0057
508.7361	-0.0045
508.9343	-0.0058
509.1325	-0.0013
509.3306	-0.0088
509.5288	-0.0113
509.7269	-0.0039
509.9251	0.0079
510.1232	-0.004
510.3213	-0.0087
510.5193	0.0066
510.7174	-0.0123
510.9154	-0.0052
511.1135	-0.0133
511.3115	-0.0104
511.5095	-0.007
511.7075	-0.003
511.9055	-0.0106
512.1034	-0.0038
512.3014	0.0024
512.4993	0.0036
512.6972	-0.0046
512.8951	-0.0111
513.093	0.0049
513.2908	-0.0003
513.4887	0.0084
513.6865	-0.0022
513.8844	-0.008
514.0822	-0.0024
514.2799	-0.0092
514.4777	-0.0071
514.6755	-0.0054
514.8732	-0.0058
515.0709	-0.004
515.2687	0.0005
515.4664	0.0036
515.664	0.0005
515.8617	0.0004
516.0594	-0.0077
516.257	-0.0055
516.4546	-0.0078
516.6522	0.0105
516.8498	-0.001
517.0474	0.0034
517.2449	-0.0075
517.4425	-0.0079
517.64	0.0056
517.8375	0.0136
518.035	0.0016
518.2325	-0.0064
518.43	-0.0064
518.6274	-0.0021
518.8249	-0.0158
519.0223	0.0057
519.2197	-0.0013
519.4171	-0.0071
519.6145	-0.0089
519.8118	0.0137
520.0092	-0.0041
520.2065	-0.014
520.4038	-0.0088
520.6011	0.0002
520.7984	-0.006
520.9956	-0.0148
521.1929	-0.0119
521.3901	0.0088
521.5874	-0.0026
521.7846	-0.0055
521.9818	-0.0072
522.1789	-0.0051
522.3761	-0.005
522.5732	-0.0049
522.7704	-0.006
522.9675	0.0052
523.1646	-0.0115
523.3617	0.0058
523.5587	-0.0074
523.7558	0.0024
523.9528	-0.0133
524.1498	0.0038
524.3468	0.0031
524.5438	-0.0095
524.7408	-0.0037
524.9378	0.0114
525.1347	0.0024
525.3316	0.0061
525.5285	-0.0056
525.7254	-0.0007
525.9223	-0.0035
526.1192	-0.0045
526.316	-0.0116
526.5129	0.0116
526.7097	0.0062
526.9065	0.0002
527.1033	-0.0037
527.3	0.0087
527.4968	-0.0005
527.6935	0.0016
527.8903	-0.0107
528.087	-0.0051
528.2837	0.0061
528.4804	-0.0017
528.677	-0.005
528.8737	0.0087
529.0703	0.0048
529.2669	-0.0006
529.4635	-0.0077
529.6601	-0.0034
529.8567	-0.0022
530.0532	-0.0095
530.2498	0.0001
530.4463	0.0084
530.6428	-0.0093
530.8393	0.007
531.0358	-0.0021
531.2322	-0.0087
531.4287	-0.01
531.6251	-0.01
531.8215	0.0044
532.0179	0.0106
532.2143	0.0002
532.4107	-0.0063
532.607	-0.0019
532.8034	0.0045
532.9997	0.0023
533.196	-0.0002
533.3923	-0.0055
533.5886	0.0061
533.7848	0.0027
533.9811	0.0033
534.1773	-0.0009
534.3735	0.0089
534.5697	0.0042
534.7659	-0.0081
534.9621	0.0116
535.1582	-0.0013
535.3544	-0.0007
535.5505	-0.0096
535.7466	-0.0018
535.9427	0.0042
536.1387	-0.003
536.3348	-0.0035
536.5308	0.002
536.7269	-0.0068
536.9229	0.0093
537.1189	0.001
537.3148	-0.0012
537.5108	-0.0072
537.7068	-0.0018
537.9027	0.0014
538.0986	-0.0015
538.2945	0.0067
538.4904	0.0003
538.6863	-0.0049
538.8821	0.0007
539.078	-0.0063
539.2738	-0.0023
539.4696	-0.0056
539.6654	0.0153
539.8611	0.0121
540.0569	-0.0056
540.2526	-0.0028
540.4484	-0.0017
540.6441	0.0072
540.8398	0.0049
541.0355	-0.0022
541.2311	-0.0061
541.4268	-0.0185
541.6224	0.0062
541.818	-0.0033
542.0136	-0.0077
542.2092	0.0083
542.4048	-0.0036
542.6003	0.0069
542.7959	0.0014
542.9914	0.001
543.1869	0.0017
543.3824	0.0005
543.5779	-0.0007
543.7734	-0.0017
543.9688	-0.0039
544.1642	0.0122
544.3596	-0.0045
544.555	-0.0055
544.7504	-0.0023
544.9458	-0.0097
545.1411	0.0012
545.3365	0.002
545.5318	-0.0052
545.7271	-0.0011
545.9224	-0.0045
546.1177	0.0068
546.3129	-0.0056
546.5081	-0.0015
546.7034	-0.0024
546.8986	-0.0057
547.0938	-0.0028
547.289	-0.0085
547.4841	-0.0025
547.6793	0.0107
547.8744	-0.002
548.0695	0.0102
548.2646	-0.0065
548.4597	-0.0036
548.6548	-0.0022
548.8498	0.0053
549.0448	0.0045
549.2399	-0.0021
549.4349	0.0055
549.6298	0.0034
549.8248	0.0047
550.0198	0.0026
550.2147	-0.003
550.4096	-0.0014
550.6045	-0.0019
550.7994	0.0056
550.9943	-0.0033
551.1892	-0.001
551.384	0.0042
551.5788	-0.0085
551.7737	0.0026
551.9685	0.0015
552.1632	0.0086
552.358	-0.0126
552.5528	0.0021
552.7475	-0.0016
552.9422	0.0014
553.1369	0.0013
553.3316	0.0054
553.5263	-0.0044
553.7209	0.01
553.9156	-0.0042
554.1102	-0.003
554.3048	-0.0074
554.4994	0.0061
554.694	0.0012
554.8885	0.0037
555.0831	-0.0024
555.2776	-0.0059
555.4721	-0.0026
555.6666	-0.0004
555.8611	0.0076
556.0555	0.0028
556.25	0.0008
556.4444	-0.0033
556.6388	-0.0059
556.8332	-0.0032
557.0276	-0.0044
557.222	-0.0046
557.4163	0.0017
557.6107	-0.0039
557.805	-0
557.9993	-0.0038
558.1936	0.0064
558.3879	0.0042
558.5821	-0.0032
558.7764	0.0031
558.9706	0.0024
559.1648	0.0085
559.359	-0.0023
559.5532	-0.0104
559.7473	0.0046
559.9415	0.0026
560.1356	-0.0052
560.3297	0.0014
560.5238	-0.0015
560.7179	0.0114
560.9119	-0.0044
561.106	-0.0025
561.3	-0.0083
561.494	-0.0025
561.688	0.0013
561.882	-0.0035
562.076	-0.0114
562.2699	0.0121
562.4639	-0.0067
562.6578	0.0027
562.8517	-0.001
563.0456	0.0007
563.2395	0.0045
563.4333	0.007
563.6272	0.0036
563.821	-0.0091
564.0148	0.0044
564.2086	-0.0108
564.4024	0.0001
564.5961	-0.0084
564.7899	0.0031
564.9836	0.0042
565.1773	-0.0009
565.371	0.0046
565.5647	0.0076
565.7584	0.0042
565.952	0.0047
566.1456	-0.0027
566.3393	0.0012
566.5329	-0.0064
566.7264	-0.0001
566.92	-0.0066
567.1136	0.0057
567.3071	0.0003
567.5006	0.0074
567.6941	0.0024
567.8876	0.0039
568.0811	0.0011
568.2745	0.0029
568.468	0.0042
568.6614	0.0068
568.8548	-0.0012
569.0482	-0.0071
569.2416	-0.0026
569.4349	-0.0012
569.6283	0.0123
569.8216	-0.0007
570.0149	-0.0007
570.2082	0.0077
570.4015	0.0127
570.5947	0.0075
570.788	0.0102
570.9812	0.0068
571.1744	-0.0069
571.3676	-0.0106
571.5608	-0.0037
571.754	0.0025
571.9471	0.0031
572.1402	0.0002
572.3333	-0.0024
572.5264	-0.006
572.7195	-0.0027
572.9126	0.001
573.1057	-0.0013
573.2987	0.0004
573.4917	0.0098
573.6847	-0.0095
573.8777	0.0026
574.0707	0.0057
574.2636	-0.003
574.4566	-0.001
574.6495	-0.0003
574.8424	-0.002
575.0353	0.0053
575.2281	0.01
575.421	0.0083
575.6138	0.0018
575.8067	0.0024
575.9995	0.0027
576.1923	-0.0012
576.385	0.0054
576.5778	0.0035
576.7706	0.0003
576.9633	0.0033
577.156	-0
577.3487	-0.0035
577.5414	-0.0011
577.734	-0.0027
577.9267	0.0023
578.1193	-0.009
578.3119	-0.0119
578.5045	0.0009
578.6971	-0.0017
578.8897	0.0059
579.0822	0.0023
579.2747	0.0036
579.4673	-0.0014
579.6598	-0.0024
579.8522	-0.0045
580.0447	-0.0043
580.2372	-0.0034
580.4296	0.0079
580.622	-0.0006
580.8144	0.0015
581.0068	-0.0013
581.1992	-0.0094
581.3915	-0.0085
581.5839	-0.0035
581.7762	-0.0062
581.9685	0.0003
582.1608	0.0065
582.353	-0.006
582.5453	-0.001
582.7375	0.0024
582.9298	0.0064
583.122	0.0042
583.3142	0.008
583.5063	0.0017
583.6985	0.0006
583.8906	-0.0055
584.0827	-0.0033
584.2749	0.0054
584.4669	0.008
584.659	-0.0009
584.8511	0.0033
585.0431	-0.005
585.2352	-0.0024
585.4272	-0.0027
585.6192	0.0065
585.8111	-0.0001
586.0031	0.0025
586.195	0.0054
586.387	0.0011
586.5789	0.0031
586.7708	0.0065
586.9627	0.0008
587.1545	-0.0036
587.3464	-0.0012
587.5382	0.0025
587.73	0.0021
587.9218	0.007
588.1136	0.0007
588.3053	0.0084
588.4971	-0.004
588.6888	-0.0064
588.8805	0.0079
589.0722	0.0053
589.2639	-0.0013
589.4556	-0.0019
589.6472	-0.0031
589.8389	-0.0049
590.0305	-0.0056
590.2221	0.0072
590.4137	-0.0042
590.6052	0.0038
590.7968	-0.0013
590.9883	0.0033
591.1798	-0.0013
591.3713	-0.0028
591.5628	0.0024
591.7543	0.0046
591.9458	0.003
592.1372	0.0086
592.3286	0.01
592.52	0.0026
592.7114	-0.0047
592.9028	0.0022
593.0941	0.0006
593.2855	0.0048
593.4768	-0.0044
593.6681	-0.0025
593.8594	-0.0039
594.0506	0.0017
594.2419	0.0104
594.4331	0.0024
594.6244	0.0046
594.8156	-0.001
595.0067	0.0054
595.1979	0.0055
595.3891	0.0038
595.5802	-0.007
595.7713	0.0018
595.9624	-0.0018
596.1535	0.0074
596.3446	0.0031
596.5357	0.0055
596.7267	0.0092
596.9177	0.0029
597.1087	-0.0003
597.2997	-0.0004
597.4907	0.0056
597.6817	0.0016
597.8726	0.0064
598.0635	-0.0042
598.2544	-0.0006
598.4453	0.001
598.6362	-0.0009
598.827	0.0033
599.0179	0.0075
599.2087	0.007
599.3995	0.0029
599.5903	-0.0008
599.7811	0.0064
599.9718	0.002
600.1626	0.003
600.3533	-0.0042
600.544	0.003
600.7347	-0.0047
600.9254	0.005
601.116	-0.0102
601.3067	-0.001
601.4973	-0.0006
601.6879	0.0054
601.8785	0.0027
602.0691	0.0043
602.2596	0.0037
602.4502	0.0042
602.6407	0.0034
602.8312	0.0058
603.0217	-0.0011
603.2122	-0.001
603.4027	0.0023
603.5931	0.0033
603.7835	-0.0053
603.9739	-0.0049
604.1643	0.0039
604.3547	-0.0034
604.5451	-0.0031
604.7354	-0.0063
604.9257	-0.0021
605.116	-0.0012
605.3063	0.0033
605.4966	0.0011
605.6869	0.0002
605.8771	0.008
606.0673	0.0092
606.2575	0.0018
606.4477	0.0048
606.6379	0.0117
606.8281	0.0033
607.0182	-0.0021
607.2083	0.0108
607.3985	-0.0029
607.5885	-0.0025
607.7786	0.0032
607.9687	-0.0037
608.1587	0.005
608.3488	0.0035
608.5388	0.0004
608.7288	0.0006
608.9187	-0.0031
609.1087	-0.0098
609.2986	-0.0035
609.4886	0.0001
609.6785	0.0022
609.8684	0.008
610.0582	0.0085
610.2481	0.0045
610.4379	0.0036
610.6278	0.0085
610.8176	0.0025
611.0074	-0.003
611.1971	0.0049
611.3869	-0.0051
611.5766	0.0007
611.7664	0.0059
611.9561	-0.0004
612.1458	0.0047
612.3354	0.0006
612.5251	0.0031
612.7147	0.007
612.9044	0.0082
613.094	-0.0084
613.2836	0.0081
613.4731	0.0032
613.6627	-0.0051
613.8522	0.0034
614.0417	0.0069
614.2313	0.0032
614.4207	-0.0042
614.6102	0.0032
614.7997	0.005
614.9891	-0.0001
615.1785	0.0027
615.3679	0.0011
615.5573	0.0056
615.7467	0.0052
615.9361	0.0055
616.1254	0.0021
616.3147	0.0086
616.504	0.0038
616.6933	0.0003
616.8826	0.0049
617.0718	0.0131
617.2611	0.0084
617.4503	-0.0018
617.6395	0.0043
617.8287	0.0016
618.0179	0.0001
618.207	0.013
618.3961	0.0057
618.5853	-0
618.7744	0.0063
618.9634	0.0105
619.1525	0.0074
619.3416	0.0064
619.5306	0.0052
619.7196	0.0049
619.9086	0.0025
620.0976	0.0108
620.2866	0.0023
620.4755	0.0002
620.6645	0.012
620.8534	0.0013
621.0423	0.0068
621.2312	0.007
621.42	0.001
621.6089	0.0005
621.7977	0.0115
621.9865	-0.0007
622.1753	0.0027
622.3641	-0.0002
622.5529	0.0126
622.7416	0.0108
622.9303	-0.0025
623.1191	0.011
623.3078	0.0128
623.4964	0.0039
623.6851	0.0043
623.8737	0.0092
624.0624	0.0103
624.251	0.0008
624.4396	0.0006
624.6282	-0.0044
624.8167	0.0022
625.0053	-0.0006
625.1938	0.0053
625.3823	-0.0009
625.5708	-0.0022
625.7593	-0.0031
625.9477	-0.0002
626.1362	-0.0022
626.3246	0.0015
626.513	0.0061
626.7014	0.012
626.8898	-0
627.0781	0.0113
627.2665	0.0066
627.4548	0.0107
627.6431	0.0101
627.8314	0.0064
628.0197	0.0147
628.2079	0
628.3962	-0.0037
628.5844	0.0131
628.7726	0.0048
628.9608	0.0073
629.1489	-0.0019
629.3371	0.0046
629.5252	-0.0033
629.7134	0.0083
629.9015	-0.0012
630.0895	-0.0005
630.2776	0.0081
630.4657	0.0056
630.6537	0.0068
630.8417	-0
631.0297	0.0027
631.2177	0.0043
631.4057	-0.0083
631.5936	0.0067
631.7815	0.005
631.9695	0.0055
632.1574	0.0072
632.3452	0.0154
632.5331	0.007
632.7209	0.0018
632.9088	0.0136
633.0966	0.0126
633.2844	0.0019
633.4722	0.0013
633.6599	0.0116
633.8477	0.0002
634.0354	0.0075
634.2231	0.0012
634.4108	0.0086
634.5985	0.0113
634.7861	0.012
634.9738	0.0068
635.1614	0.0048
635.349	0.0089
635.5366	0.0026
635.7242	0.009
635.9117	0.0069
636.0993	0.0092
636.2868	0.0141
636.4743	0.0044
636.6618	0.0144
636.8492	0.005
637.0367	0.0125
637.2241	-0.0023
637.4115	0.0027
637.5989	0.0045
637.7863	0.0029
637.9737	-0.0033
638.161	0.0044
638.3484	0.0025
638.5357	0.0119
638.723	0.0007
638.9103	0.01
639.0975	0.0055
639.2848	0.0047
639.472	0.0115
639.6592	0.0128
639.8464	0.0096
640.0336	0.007
640.2208	-0.0051
640.4079	-0.002
640.595	0.0094
640.7821	0.0022
640.9692	0.0072
641.1563	0.0076
641.3434	0.0046
641.5304	0.006
641.7174	0.0034
641.9044	0.0045
642.0914	0.0068
642.2784	0.0125
642.4653	0.0082
642.6523	0.0105
642.8392	-0
643.0261	0.0078
643.213	0.0056
643.3999	0.0021
643.5867	-0
643.7735	-0.0011
643.9604	-0.0037
644.1472	0.0032
644.3339	0.0139
644.5207	0.009
644.7075	0.0093
644.8942	0.0052
645.0809	0.0075
645.2676	0.007
645.4543	0.0111
645.6409	0.0099
645.8276	0.0077
646.0142	0.0087
646.2008	-0.0018
646.3874	0.0007
646.574	0.0005
646.7605	-0.0041
646.9471	-0.0095
647.1336	-0.003
647.3201	0.011
647.5066	-0.0061
647.6931	0.0079
647.8795	-0.0017
648.0659	0.0038
648.2524	0.0105
648.4388	-0.0002
648.6252	0.0035
648.8115	0.0015
648.9979	-0.0046
649.1842	0.001
649.3705	-0.0024
649.5568	0.0079
649.7431	0.0102
649.9294	-0.0003
650.1156	0.0055
650.3018	-0.0037
650.488	0.0094
650.6742	0.0024
650.8604	0.0073
651.0466	-0.0008
651.2327	0.0099
651.4188	0.0005
651.6049	0.0067
651.791	0.0015
651.9771	0.0088
652.1632	0.0097
652.3492	0.0098
652.5352	0.0057
652.7212	-0.0046
652.9072	0.012
653.0932	0.0023
653.2791	0.0029
653.465	0.0045
653.651	-0.0015
653.8369	0.0047
654.0227	0.0042
654.2086	0.005
654.3944	0.0155
654.5803	0.0056
654.7661	0.0013
654.9519	0.0023
655.1377	0.0047
655.3234	0.003
655.5092	-0.0026
655.6949	-0.0063
655.8806	-0.0049
656.0663	-0.0011
656.2519	-0.0025
656.4376	0.0009
656.6232	0.0014
656.8088	0.0012
656.9945	0.0056
657.18	0.004
657.3656	0.0062
657.5511	0.0051
657.7367	-0.0012
657.9222	0.0077
658.1077	0.0087
658.2932	0.004
658.4786	-0.0002
658.6641	-0.0012
658.8495	-0.0014
659.0349	-0.0045
659.2203	0.0074
659.4057	0.0057
659.591	0.0064
659.7764	-0.0002
659.9617	0.0058
660.147	0.0034
660.3323	0.0081
660.5176	0.0103
660.7028	0.0077
660.888	0.0076
661.0733	0.0037
661.2585	0.0013
661.4436	0.0007
661.6288	-0.0008
661.8139	-0.0009
661.9991	0.0054
662.1842	0.0003
662.3693	0.0033
662.5544	0.0003
662.7394	-0.0033
662.9245	0.0003
663.1095	0.0067
663.2945	0.0044
663.4795	0.0029
663.6644	0.006
663.8494	0.0071
664.0343	0.0067
664.2193	-0.008
664.4042	0.0049
664.589	-0.0028
664.7739	0.0012
664.9587	0.0034
665.1436	0.0034
665.3284	0.0053
665.5132	-0
665.698	0.0062
665.8827	0.0028
666.0675	-0.0016
666.2522	-0.0049
666.4369	0.0067
666.6216	0.0019
666.8063	0.0031
666.9909	-0.002
667.1756	0.0009
667.3602	0.007
667.5448	-0.0007
667.7294	0.0152
667.9139	0.0051
668.0985	0.0175
668.283	0.0046
668.4675	0.0073
668.652	0.0021
668.8365	0.0025
669.0209	0.0139
669.2054	0.0134
669.3898	0.01
669.5742	0.0151
669.7586	0.0142
669.943	0.0173
670.1273	0.012
670.3117	0.0052
670.496	0.0151
670.6803	0.0124
670.8646	0.0096
671.0488	0.0016
671.2331	0.0114
671.4173	-0.0011
671.6015	0.0035
671.7857	0.0009
671.9699	0.0115
672.1541	0.0087
672.3382	0.0095
672.5223	0.0071
672.7064	0.0053
672.8905	0.0105
673.0746	0.0079
673.2587	-0.0049
673.4427	0.0052
673.6267	0.0093
673.8107	0.0091
673.9947	0.0059
674.1787	0.0053
674.3626	0.0068
674.5465	0.0134
674.7304	0.0099
674.9143	0.0078
675.0982	0.0122
675.2821	-0.0032
675.4659	0.0152
675.6497	0.0117
675.8335	0.0023
676.0173	0.0106
676.2011	0.0032
676.3849	0.0012
676.5686	-0.0001
676.7523	0.0039
676.936	-0.0056
677.1197	0.005
677.3034	-0.0018
677.487	0.0058
677.6706	0.0022
677.8542	0.0044
678.0378	0.0052
678.2214	0.0021
678.405	0.0117
678.5885	-0.008
678.772	0.0078
678.9555	-0.0021
679.139	0.0014
679.3225	0.0052
679.5059	-0.0001
679.6894	0.0055
679.8728	-0.0025
680.0562	-0.002
680.2395	0.0003
680.4229	-0.0003
680.6062	0.0103
680.7896	0.0007
680.9729	-0.0029
681.1562	0.0037
681.3394	-0.0019
681.5227	-0.0011
681.7059	-0.0014
681.8891	0.006
682.0723	0.0062
682.2555	0.0084
682.4387	-0.002
682.6218	0.0044
682.805	0.0082
682.9881	0.002
683.1712	0.0029
683.3542	-0.0024
683.5373	0.0072
683.7203	-0.0045
683.9034	0.0004
684.0864	-0.0005
684.2694	0.0061
684.4523	0.0098
684.6353	-0.0043
684.8182	0.0105
685.0011	0.0012
685.184	0.0059
685.3669	-0.0062
685.5498	0.0036
685.7326	-0.0015
685.9154	0.0006
686.0982	0.0088
686.281	-0.0004
686.4638	0.0036
686.6465	0.0002
686.8293	0.0028
687.012	0.0062
687.1947	-0.0046
687.3774	0.0035
687.56	0.0015
687.7427	0.0046
687.9253	0.002
688.1079	0.0048
688.2905	0.0117
688.4731	-0.0009
688.6556	-0.0004
688.8382	0.0043
689.0207	0.004
689.2032	-0.0092
689.3857	-0.0007
689.5681	0.0022
689.7506	-0.0126
689.933	-0.0027
690.1154	-0.0092
690.2978	-0.0065
690.4802	0
690.6626	-0.0094
690.8449	-0.0082
691.0272	0.0091
691.2095	-0.0103
691.3918	-0.002
691.5741	0.0077
691.7563	0.001
691.9386	0.0015
692.1208	0.0034
692.303	0.003
692.4852	0.0044
692.6673	0.0053
692.8495	-0.0016
693.0316	0.0032
693.2137	0.0057
693.3958	0.0079
693.5778	0.0016
693.7599	0.0032
693.9419	0.0097
694.1239	0.0061
694.3059	-0.0001
694.4879	0.0135
694.6699	0.0042
694.8518	0.005
695.0337	-0.0006
695.2157	0.0108
695.3975	0.0076
695.5794	0.013
695.7613	0.0073
695.9431	-0.0036
696.1249	0.0099
696.3067	0.0044
696.4885	0.0134
696.6703	0.001
696.852	0.0035
697.0337	0.0048
697.2154	0.0029
697.3971	0.0043
697.5788	0.011
697.7605	0.0073
697.9421	0.002
698.1237	0.0069
698.3053	-0.0002
698.4869	0.0009
698.6685	0.0003
698.85	0.0016
699.0315	0.0049
699.213	-0.0023
699.3945	0.0075
699.576	0.0042
699.7575	0.0073
699.9389	0.0117
700.1203	-0.0049
700.3017	-0.0052
700.4831	-0.0056
700.6645	0.0023
700.8458	0.0104
701.0271	0.0033
701.2084	0.0084
701.3897	0.0064
701.571	0.0077
701.7523	-0.0043
701.9335	0.0103
702.1147	0.0031
702.2959	0.0021
702.4771	0.0078
702.6583	0.0075
702.8394	-0.0045
703.0205	0.0095
703.2016	-0.0036
703.3827	-0.003
703.5638	0.0097
703.7449	0.0071
703.9259	0.0081
704.1069	-0.0027
704.2879	0.0097
704.4689	0.0107
704.6499	0.0039
704.8308	0.0028
705.0117	0.0026
705.1927	0.0091
705.3735	0.0038
705.5544	-0.0002
705.7353	-0.0026
705.9161	-0.003
706.0969	-0.009
706.2777	-0.003
706.4585	0.0006
706.6393	-0.0003
706.82	-0.0065
707.0007	-0.0041
707.1815	0
707.3621	0.0013
707.5428	-0.0031
707.7235	0.0014
707.9041	0.0006
708.0847	-0.0045
708.2653	-0.009
708.4459	-0.0169
708.6265	-0.0033
708.807	0.0007
708.9875	-0.0063
709.168	-0.0058
709.3485	-0.0102
709.529	-0.0096
709.7095	-0.0154
709.8899	-0.0067
710.0703	-0.012
710.2507	0.0026
710.4311	-0.004
710.6115	-0.0062
710.7918	-0.0065
710.9721	0.0016
711.1524	-0.004
711.3327	-0.0013
711.513	0.0041
711.6932	-0.0028
711.8735	0.0117
712.0537	0.0057
712.2339	-0.0073
712.4141	-0.0081
712.5942	-0.0063
712.7744	0.0029
712.9545	-0.0058
713.1346	-0.0075
713.3147	0.0025
713.4947	-0.0071
713.6748	-0.0048
713.8548	-0.001
714.0348	0.0012
714.2148	-0.0016
714.3948	0.0044
714.5748	0.006
714.7547	0.0012
714.9346	0.0028
715.1145	-0.0023
715.2944	0.0025
715.4743	-0.0025
715.6541	0.0055
715.834	-0.0031
716.0138	-0.0054
716.1936	-0.0154
716.3733	-0.0025
716.5531	0.0042
716.7328	-0.0015
716.9126	-0.0013
717.0923	0.0026
717.2719	-0.0037
717.4516	0.0029
717.6312	0.0041
717.8109	-0.004
717.9905	-0.0037
718.1701	-0.0037
718.3496	-0.0046
718.5292	0.0027
718.7087	-0.0021
718.8882	0.001
719.0677	0.0031
719.2472	0.0002
719.4267	0.001
719.6061	-0.0004
719.7856	0.003
719.965	0.0052
720.1443	-0.0039
720.3237	0.0056
720.5031	0.0078
720.6824	0.001
720.8617	-0.0039
721.041	0.004
721.2203	0.0124
721.3995	-0.0038
721.5788	-0.0004
721.758	0.0167
721.9372	0.0011
722.1164	0.0009
722.2956	0.0036
722.4747	0.0023
722.6538	0.0051
722.8329	0.0061
723.012	0.0014
723.1911	-0.0059
723.3702	0.001
723.5492	0.0039
723.7282	-0.0091
723.9072	0.003
724.0862	-0.0011
724.2652	-0.0084
724.4441	0.0097
724.623	0.0026
724.8019	-0.0067
724.9808	0.0129
725.1597	-0.006
725.3385	0.0055
725.5174	-0.0003
725.6962	-0.0037
725.875	0.0037
726.0538	0.0089
726.2325	-0.0052
726.4112	0.0048
726.59	-0.0119
726.7687	-0.003
726.9474	0.0044
727.126	-0.0035
727.3047	0.0015
727.4833	0.0001
727.6619	0.0005
727.8405	-0.007
728.0191	0.0057
728.1976	0.0092
728.3762	0.0066
728.5547	-0.0045
728.7332	-0.0135
728.9116	0.0024
729.0901	-0.0006
729.2686	-0.0044
729.447	0.0062
729.6254	0.009
729.8038	-0
729.9821	-0.0023
730.1605	0.003
730.3388	0.0026
730.5171	0.0049
730.6954	0.0065
730.8737	0.0085
731.0519	0.0107
731.2302	0.0115
731.4084	0.0079
731.5866	0.0131
731.7648	0.0004
731.9429	0.0055
732.1211	-0.0016
732.2992	-0.0009
732.4773	-0.0031
732.6554	-0.0013
732.8335	-0.0002
733.0115	0.011
733.1896	0.0118
733.3676	-0.0057
733.5456	0
733.7235	0.0006
733.9015	0.0029
734.0794	-0.0002
734.2574	-0.0011
734.4353	0.0131
734.6131	0.0014
734.791	0.0127
734.9689	0.0091
735.1467	0.0063
735.3245	-0.0024
735.5023	-0.0036
735.68	0.0014
735.8578	0.0083
736.0355	-0.0088
736.2132	0.0005
736.3909	0.0014
736.5686	-0.003
736.7463	0.0093
736.9239	-0.0054
737.1015	-0.0009
737.2791	0.0049
737.4567	0.0092
737.6343	0.0073
737.8118	0.0081
737.9894	0.0032
738.1669	0.0009
738.3444	0.0077
738.5218	0.0014
738.6993	0.0002
738.8767	-0.0061
739.0541	0.0175
739.2315	-0.0145
739.4089	0.007
739.5863	0.0058
739.7636	-0.0013
739.9409	0.0104
740.1182	0.0022
740.2955	0.0131
740.4728	0.0067
740.65	-0.0066
740.8272	-0.0017
741.0044	-0.0057
741.1816	0.0024
741.3588	-0.0089
741.5359	0.0004
741.7131	-0.0163
741.8902	0.0039
742.0673	0.0062
742.2444	-0.0064
742.4214	0.0038
742.5985	-0.0111
742.7755	-0.0102
742.9525	-0.0084
743.1295	-0.0013
743.3064	0.0019
743.4834	0.0119
743.6603	0.0066
743.8372	-0.0052
744.0141	0.0084
744.191	0.0142
744.3678	0.0045
744.5446	0.0049
744.7215	0.0081
744.8982	0.0019
745.075	-0.0002
745.2518	-0.0018
745.4285	0.0093
745.6052	0.0048
745.7819	0.0006
745.9586	-0.0013
746.1353	-0.0026
746.3119	-0.0091
746.4885	-0.0046
746.6651	-0.0074
746.8417	-0.0048
747.0183	-0.0039
747.1948	0.0013
747.3714	0.0093
747.5479	0.0021
747.7244	-0.0017
747.9008	0.0099
748.0773	0.0036
748.2537	0.0077
748.4301	-0.0083
748.6065	0.011
748.7829	0.0052
748.9593	-0.0082
749.1356	-0.0003
749.3119	0.0099
749.4882	-0.0053
749.6645	0.0044
749.8408	-0.014
750.017	-0.0057
750.1933	-0.0018
750.3695	-0.0118
750.5457	0.0053
750.7218	0.003
750.898	0.008
751.0741	0.0041
751.2502	0.0036
751.4263	0.0072
751.6024	0.0042
751.7784	0.0009
751.9545	-0.003
752.1305	-0.0028
752.3065	-0.0063
752.4825	-0.0003
752.6584	0.0009
752.8344	-0.0102
753.0103	-0.0117
753.1862	-0.0059
753.3621	-0.002
753.5379	-0.0059
753.7138	0.0014
753.8896	-0.0016
754.0654	0.0046
754.2412	0.0102
754.417	0.0028
754.5927	-0.0001
754.7685	-0.001
754.9442	0.0103
755.1199	0.0042
755.2956	-0.0018
755.4712	0.006
755.6469	0.0062
755.8225	0.0043
755.9981	-0.0061
756.1736	0.0044
756.3492	0.0035
756.5248	0.0044
756.7003	0.0059
756.8758	0.0118
757.0513	-0.0064
757.2267	-0.0003
757.4022	0.0108
757.5776	-0.0059
757.753	0.0105
757.9284	0.0062
758.1038	0.0212
758.2791	0.0124
758.4545	-0.0101
758.6298	0.011
758.8051	0.0106
758.9803	0.0028
759.1556	-0.0023
759.3308	-0.0062
759.506	0.0105
759.6812	0.0041
759.8564	0.0117
760.0316	0.0084
760.2067	0.0142
760.3819	0.0185
760.557	0.0125
760.732	-0.0015
760.9071	0.0023
761.0821	0.0053
761.2572	0.0118
761.4322	0.0004
761.6072	0.0079
761.7821	0.0039
761.9571	0.0077
762.132	-0.0026
762.3069	-0.0069
762.4818	0.0017
762.6567	0.0031
762.8316	-0.0065
763.0064	-0.0105
763.1812	0.0044
763.356	-0.0108
763.5308	0.0018
763.7055	0.0044
763.8803	-0.0043
764.055	0.0036
764.2297	0.0032
764.4044	-0.0033
764.579	-0.0114
764.7537	-0.0059
764.9283	0.0034
765.1029	-0.0001
765.2775	-0.0086
765.4521	-0.0071
765.6266	-0.0011
765.8011	0.0027
765.9756	0.0009
766.1501	0.0053
766.3246	0.0065
766.4991	-0.0051
766.6735	0.0037
766.8479	-0.0044
767.0223	0.0135
767.1967	0.0097
767.371	0.0072
767.5454	-0.008
767.7197	-0.001
767.894	-0.0058
768.0683	-0.0095
768.2425	0.0106
768.4168	0.0035
768.591	0.0038
768.7652	0.0031
768.9394	0.0012
769.1135	0.0053
769.2877	0.007
769.4618	0.0001
769.6359	0.0019
769.81	-0.0025
769.984	-0.0023
770.1581	0.0001
770.3321	-0.0016
770.5061	-0.0014
770.6801	-0.0105
770.8541	-0.0074
771.028	0.0042
771.202	-0.0176
771.3759	0.0029
771.5498	-0.0045
771.7236	0.0079
771.8975	-0.0064
772.0713	0.0025
772.2451	0.0024
772.4189	0.0166
772.5927	0.0034
772.7665	0.0021
772.9402	-0.006
773.1139	0.0014
773.2876	-0.0095
773.4613	0.0087
773.635	0.0196
773.8086	-0.0122
773.9822	0.0057
774.1558	0.0066
774.3294	0.0005
774.503	0.0029
774.6765	0.0037
774.8501	0.0092
775.0236	0.0057
775.1971	0.0083
775.3705	-0
775.544	0.0098
775.7174	-0.0058
775.8908	0.0107
776.0642	-0.0027
776.2376	0.0052
776.4109	-0.0031
776.5843	-0.0087
776.7576	0.0133
776.9309	0.0046
777.1041	0.0108
777.2774	0.0116
777.4506	0.0052
777.6238	-0.0041
777.797	-0.0016
777.9702	-0.0034
778.1434	-0.014
778.3165	-0.0171
778.4896	-0.0023
778.6627	-0.0038
778.8358	-0.0058
779.0089	-0.0025
779.1819	-0.0023
779.3549	0.0064
779.5279	0.0028
779.7009	-0.0032
779.8739	0.0046
780.0468	-0.0002
780.2197	0.0048
780.3926	-0.0066
780.5655	-0.0078
780.7384	0.0083
780.9112	0.0056
781.0841	0.0107
781.2569	-0.0016
781.4297	0.0025
781.6024	0.006
781.7752	-0.0004
781.9479	0.0089
782.1206	0.0001
782.2933	-0.0136
782.466	0.0018
782.6386	-0.0108
782.8113	0.0012
782.9839	0.0029
783.1565	0.0086
783.329	0.0011
783.5016	0.006
783.6741	-0.0091
783.8466	-0.0126
784.0191	0.0183
784.1916	-0.0022
784.3641	-0.0181
784.5365	0.0028
784.7089	-0.0143
784.8813	-0.0097
785.0537	0.0008
785.2261	0.0139
785.3984	-0.0146
785.5707	0.0005
785.743	0.0064
785.9153	-0.0166
786.0876	-0.0093
786.2598	-0.0043
786.432	-0.0101
786.6042	0.003
786.7764	-0.0012
786.9486	0.0157
787.1207	-0.0127
787.2928	0.007
787.4649	-0.0033
787.637	0.0022
787.8091	-0.0143
787.9811	-0.0121
788.1532	-0.0044
788.3252	0.0106
788.4972	0.0005
788.6691	0.0072
788.8411	0.0045
789.013	-0.0105
789.1849	-0.004
789.3568	-0.0015
789.5287	0.005
789.7005	-0.0023
789.8723	-0.0023
790.0442	0.005
790.2159	0.0078
790.3877	-0.0002
790.5595	-0.0164
790.7312	0.008
790.9029	-0.0063
791.0746	-0.0022
791.2463	-0.0031
791.4179	-0.0105
791.5896	-0.0174
791.7612	-0.0019
791.9328	-0.0024
792.1044	-0.0097
792.2759	-0.0052
792.4474	-0.0058
792.619	-0.0013
792.7905	0.001
792.9619	-0.0016
793.1334	0.0111
793.3048	0.0088
793.4762	0.0073
793.6476	-0.0036
793.819	-0.0084
793.9904	0.0079
794.1617	-0.0211
794.333	-0.0094
794.5043	-0.0192
794.6756	-0.0103
794.8469	-0.0059
795.0181	0.0107
795.1893	-0.0017
795.3605	0.004
795.5317	-0.0134
795.7029	-0.0096
795.874	-0.0029
796.0452	-0.0023
796.2163	-0.0058
796.3873	0.0076
796.5584	0.0056
796.7294	-0.013
796.9005	0.0061
797.0715	0.0068
797.2425	-0.0159
797.4134	0.0051
797.5844	-0.0024
797.7553	-0.0127
797.9262	0.0131
798.0971	-0.0212
798.2679	-0.0056
798.4388	-0.0223
798.6096	0.0084
798.7804	-0.007
798.9512	-0.0012
799.122	0.0013
799.2927	0.0067
799.4635	0.0062
799.6342	-0.0183
799.8049	0.0048
799.9755	-0.0108
800.1462	0.004
800.3168	0.0135
800.4874	0.0013
800.658	0.0238
800.8286	0.0308
800.9991	0.0023
801.1696	0.0033
801.3402	0.0152
801.5106	0.002
801.6811	-0.003
801.8516	0.0156
802.022	-0.0134
802.1924	-0.008
802.3628	0.0034
802.5332	0.0138
802.7035	0.0064
802.8739	0.001
803.0442	0.0038
803.2145	0.0125
803.3847	-0.0178
803.555	0.0016
803.7252	-0.0242
803.8954	-0.0099
804.0656	-0.0063
804.2358	0.0021
804.4059	0.0118
804.5761	-0.0044
804.7462	-0.0077
804.9163	-0.0138
805.0864	-0.0252
805.2564	-0.0014
805.4264	-0.0023
805.5965	0.0004
805.7665	-0.0136
805.9364	0.0049
806.1064	0.0181
806.2763	-0.0066
806.4462	0.0248
806.6161	0.0021
806.786	0.0184
806.9559	0.0091
807.1257	-0.0124
807.2955	-0.005
807.4653	-0.0008
807.6351	0.0004
807.8048	-0.0066
807.9746	0.0021
808.1443	0.008
808.314	0.0096
808.4837	-0.0105
808.6533	0.0047
808.8229	0.0441
808.9926	0.0087
809.1622	0.015
809.3317	0.0041
809.5013	-0.0134
809.6708	0.0058
809.8403	0.0031
810.0098	0.0007
810.1793	0.0027
810.3488	-0.0008
810.5182	-0.0053
810.6876	0.0058
810.857	-0.0158
811.0264	0.0142
811.1958	0.0191
811.3651	-0.0043
811.5344	0.0058
811.7037	-0.0171
811.873	-0.0009
812.0422	0.0052
812.2115	-0.0086
812.3807	-0.028
812.5499	-0.0073
812.7191	-0.0033
812.8882	-0.0007
813.0574	-0.0028
813.2265	-0.009
813.3956	0.0015
813.5646	0.0043
813.7337	-0.0084
813.9027	0.0264
814.0718	0.0243
814.2407	0.02
814.4097	0.0084
814.5787	-0.0158
814.7476	0.0008
814.9165	-0.0023
815.0854	-0.0231
815.2543	0.0025
815.4232	0.0038
815.592	0.0221
815.7608	-0.0042
815.9296	0.0136
816.0984	0.0221
816.2671	-0.0004
816.4359	0.0184
816.6046	0.0059
816.7733	-0.0118
816.942	-0.0029
817.1106	0.0133
817.2793	0.0237
817.4479	-0.0019
817.6165	-0.0053
817.785	0.0246
817.9536	-0.0034
818.1221	-0.0068
818.2906	0.0252
818.4591	0.0058
818.6276	-0.0048
818.7961	0.0049
818.9645	0.0154
819.1329	-0.011
819.3013	0.0399
819.4697	0.0299
819.638	0.0149
819.8064	0.0169
819.9747	0.0016
820.143	-0.015
820.3113	-0.0055
820.4795	0.0062
820.6477	0.0072
820.816	0.0239
820.9842	0.0209
821.1523	0.0112
821.3205	-0.0319
821.4886	0.0153
821.6567	-0.0086
821.8248	0.0125
821.9929	0.0128
822.1609	0.0214
822.329	0.0392
822.497	0.0259
822.665	-0.0001
822.833	0.0081
823.0009	-0.0009
823.1688	0.0094
823.3367	0.0459
823.5046	0.0275
823.6725	-0.0016
823.8404	-0.0037
824.0082	-0.0001
824.176	-0.0021
824.3438	0.0215
824.5116	-0.006
824.6793	0.0407
824.847	-0.0235
825.0147	0.0016
825.1824	0.0274
825.3501	0.0131
825.5177	-0.0076
825.6854	0.002
825.853	-0.0149
826.0206	-0.0355
826.1881	-0.0141
826.3557	-0.0294
826.5232	0.0167
826.6907	-0.0405
826.8582	-0.0069
827.0257	-0.0402
827.1931	0.0108
827.3605	-0.0095
827.528	-0.0276
827.6953	-0.0082
827.8627	-0.0269
828.03	0.029
828.1974	-0.0067
828.3647	-0.0678
828.532	0.0053
828.6992	-0.037
828.8665	-0.0059
829.0337	-0.0146
829.2009	0.0434
829.3681	-0.0032
829.5352	0.0426
829.7024	-0.0201
829.8695	-0.0459
830.0366	0.05
830.2037	0.0255
830.3707	0.0195
830.5378	0.009
830.7048	-0.0104
830.8718	0.0009
831.0388	-0.0581
831.2057	0.0411
831.3727	0.0114
831.5396	-0.0245
831.7065	0.0168
831.8734	0.0108
832.0402	-0.0182
832.2071	0.0049
832.3739	-0.0167
832.5407	-0.0061
832.7075	0.0048
832.8742	-0.0045
833.041	-0.0445
833.2077	0.0059
833.3744	0.0197
833.541	-0.0237
833.7077	0.0105
833.8743	-0.0086
834.0409	-0.014
834.2075	0.0068
834.3741	-0.0027
834.5407	0.0055
834.7072	-0.0084
834.8737	-0.0216
835.0402	-0.0238
835.2067	-0.0002
835.3731	0.032
835.5395	-0.004
835.706	-0.0259
835.8723	-0.0199
836.0387	0.0334
836.2051	-0.0064
836.3714	-0.005
836.5377	-0.0237
836.704	-0.0059
836.8703	-0.0343
837.0365	-0.0118
837.2027	0.023
837.3689	-0.0086
837.5351	-0.0032
837.7013	-0.0369
837.8674	-0.009
838.0335	-0.0402
838.1997	0.0163
838.3657	-0.0175
838.5318	-0.0153
838.6978	0.0181
838.8639	0.011
839.0299	0.083
839.1958	-0.0049
839.3618	0.0199
839.5277	0.0057
839.6937	0.0183
839.8596	-0.078
840.0254	0.0106
840.1913	0.0123
840.3571	-0.0046
840.523	0.0169
840.6888	0.012
840.8545	-0.0629
841.0203	0.0148
841.186	0.0317
841.3517	-0.0012
841.5174	0.0023
841.6831	-0.0285
841.8488	-0.029
842.0144	-0.0199
842.18	0.0033
842.3456	0.0277
842.5112	0.0194
842.6767	-0.0352
842.8422	-0.0243
843.0077	-0.0224
843.1732	-0.0456
843.3387	-0.0225
843.5042	-0.0742
843.6696	-0.061
843.835	-0.0204
844.0004	0.0065
844.1657	-0.0549
844.3311	-0.0763
844.4964	-0.0911
844.6617	-0.0387
844.827	-0.0197
844.9923	-0.0237
845.1575	-0.0004
845.3227	-0.0151
845.4879	-0.0286
845.6531	-0.0352
845.8183	-0.0297
845.9834	0.0148
846.1485	0.0051
846.3136	-0.054
846.4787	-0.1122
846.6438	0.0129
846.8088	-0.0644
846.9738	-0.1044
847.1388	-0.0446
847.3038	-0.0765
847.4687	-0.1637
847.6337	0.0022
847.7986	-0.0262
847.9635	0.0221
848.1284	0.0106
848.2932	0.0484
848.458	-0.0123
848.6228	0.0108
848.7876	0.0346
848.9524	-0.0932
849.1172	-0.0787
849.2819	-0.034
849.4466	-0.1618
849.6113	-0.0974
849.7759	-0.0202
849.9406	-0.0928
850.1052	-0.008
850.2698	-0.0768
850.4344	-0.0103
850.599	-0.077
850.7635	0.14
850.928	-0.0821
851.0925	0.0312
851.257	0.058
851.4215	0.0626
851.5859	-0.0007
851.7503	-0.0156
851.9147	-0.0352
852.0791	-0.1278
852.2434	-0.0369
852.4078	0.0912
852.5721	-0.0117
852.7364	-0.097
852.9007	-0.2842
853.0649	-0.0524
853.2291	-0.0718
853.3934	0.0253
853.5575	0.0414
853.7217	-0.1719
853.8859	-0.0829
854.05	-0.1261
854.2141	0.0017
854.3782	-0.168
854.5423	-0.13
854.7063	0.0682
854.8703	-0.1101
855.0343	0.0816
855.1983	-0.202
855.3623	0.0806
855.5262	0.0363
855.6901	-0.0425
855.854	0.0119
856.0179	0.0981
856.1818	0.1
856.3456	-0.0669
856.5094	-0.1539
856.6732	-0.1768
856.837	-0.0225
857.0008	-0.1141
857.1645	-0.013
857.3282	-0.0949
857.4919	0.0021
857.6556	-0.0134
857.8192	0.0738
857.9828	0.0164
858.1465	-0.1258
858.31	-0.0865
858.4736	-0.0999
858.6372	-0.1208
858.8007	-0.2887
858.9642	-0.0105
859.1277	-0.1924
859.2911	0.1921
859.4546	0.0077
859.618	-0.2176
859.7814	-0.0365
859.9448	0.0117
860.1081	-0.0653
860.2715	0.1228
860.4348	0.1358
860.5981	-0.1409
860.7614	0.0847
860.9246	-0.3055
861.0879	-0.3376
861.2511	0.1224
861.4143	0.1162
861.5774	0.0317
861.7406	-0.2113
861.9037	0.1899
862.0668	-0.1521
862.2299	-0.1915
862.393	-0.53
862.556	-0.0531
862.7191	-0.3463
862.8821	-0.064
863.0451	-0.0283
863.208	0.1341
863.371	-0.0713
863.5339	0.1925
863.6968	0.2969
863.8597	-0.0364
864.0225	-0.2057
864.1854	-0.0536
864.3482	-0.186
864.511	0.3783
864.6737	-0.1062
864.8365	1.3667
864.9992	-0.3937
865.1619	-0.4937
865.3246	-0.2151
865.4873	0.0341
865.65	0.138
865.8126	-0.0811
865.9752	-0.033
866.1378	-0.2234
866.3004	-0
866.4629	0.104
866.6254	-0.2128
866.7879	-0.1809
866.9504	-0
867.1129	-0
867.2753	-0
867.4377	0.0342
867.6001	-0.4323
867.7625	-0.0421
867.9249	-0.4771
868.0872	-0.1832
868.2495	-0.0685
868.4118	-0.1683
868.5741	-0.5114
868.7363	-0.0334
868.8986	-0.4174
869.0608	-0.2544
869.223	0.086
869.3851	-0
869.5473	-0
869.7094	0.2679
869.8715	-0.2859
870.0336	-0
870.1957	-0.5783
870.3577	-0
870.5197	0.033
870.6817	0.0139
870.8437	-0.1881
871.0057	-0
871.1676	-0.3994
871.3295	0.6061
871.4914	-0
871.6533	-0.5187
871.8151	0.0473
871.977	-0
872.1388	-0
872.3006	-0.1588
872.4623	-0
872.6241	0.5476
872.7858	0.2402
872.9475	-0.1468
873.1092	0.0704
873.2709	-0.1568
873.4325	-0.0393
873.5941	-0.464
873.7557	-0
873.9173	-0
874.0789	-0.6101
874.2404	-0.6566
874.4019	-0
874.5634	-0.3146
874.7249	0.3412
874.8863	0.0075
875.0478	0.2218
875.2092	-0
875.3706	0.0376
875.5319	-0.8942
875.6933	-0
875.8546	-0
876.0159	-0
876.1772	-0.052
876.3385	-0
876.4997	0.1002
876.6609	-0.1797
876.8221	-0
876.9833	-0
877.1445	-0
877.3056	0.0481
877.4667	-0.1545
877.6278	-0
877.7889	-0.5497
877.9499	0.7533
878.111	-0
878.272	-0
878.433	0.4383
878.5939	-0
878.7549	0.1518
878.9158	-0.9725
879.0767	-0
879.2376	0.5203
879.3984	0.1953
879.5593	-0
879.7201	-0.0157
879.8809	-0.26
880.0417	-0.1091
880.2024	-0.1822
880.3632	-0
880.5239	0.0878
880.6846	-0
880.8452	-2.5145
881.0059	-1.1399
881.1665	0.2425
881.3271	-0.0111
881.4877	-0.5179
881.6483	-0.5663
881.8088	-0.351
881.9693	-0
882.1298	-0
882.2903	-0
