Data from MonoPyChalIsomerACN10uM440nmA_Absorbance_15-27-12-494.txt Node
Date: Fri Jul 05 15:27:12 BST 2024
User: LASERRRRR
Spectrometer: FLMT03099
Trigger mode: 0
Integration Time (sec): 1.000000E-1
Scans to average: 1
Electric dark correction enabled: true
Nonlinearity correction enabled: false
Boxcar width: 0
XAxis mode: Wavelengths
Number of Pixels in Spectrum: 3648
>>>>>Begin Spectral Data<<<<<
179.3399	-0.2676
179.5586	-0.2676
179.7771	-0.2676
179.9957	0.0148
180.2143	-0.0326
180.4329	-0.2728
180.6514	-0
180.8699	-0
181.0885	-0.2399
181.307	0.1686
181.5255	-0
181.744	-0
181.9625	0.5195
182.181	0.2688
182.3994	-0.0436
182.6179	-0
182.8363	-0
183.0547	-0.0146
183.2732	-0
183.4916	0.0467
183.71	0.1998
183.9284	0.0913
184.1467	0.2589
184.3651	-0.1377
184.5835	0.0328
184.8018	-0.0222
185.0201	0.08
185.2385	-0.0199
185.4568	0.2556
185.6751	0.3553
185.8934	0.2548
186.1117	-0.0626
186.3299	-0.0797
186.5482	0.0045
186.7664	-0.1547
186.9847	-0.0752
187.2029	0.0669
187.4211	-0.0479
187.6393	0.0273
187.8575	0.0996
188.0757	0.2264
188.2939	0.0334
188.512	-0.0309
188.7302	-0.08
188.9483	0.0998
189.1665	0.0915
189.3846	-0.0703
189.6027	0.127
189.8208	0.1192
190.0389	0.1477
190.257	0.2888
190.475	0.364
190.6931	0.5027
190.9111	0.2362
191.1292	0.165
191.3472	0.4905
191.5652	0.2667
191.7832	0.206
192.0012	0.4239
192.2192	0.2773
192.4371	0.6746
192.6551	0.6221
192.873	0.4202
193.091	0.4579
193.3089	0.5741
193.5268	0.4635
193.7447	0.5158
193.9626	0.4459
194.1805	0.53
194.3984	0.7567
194.6162	0.4819
194.8341	0.5546
195.0519	0.6509
195.2697	0.6277
195.4875	0.5532
195.7054	0.6484
195.9231	0.4149
196.1409	0.5519
196.3587	0.6301
196.5765	0.6473
196.7942	0.6306
197.012	0.5271
197.2297	0.5576
197.4474	0.7671
197.6651	0.4823
197.8828	0.5874
198.1005	0.4814
198.3182	0.5074
198.5358	0.7881
198.7535	0.6416
198.9711	0.6198
199.1888	0.5761
199.4064	0.7007
199.624	0.5788
199.8416	0.5661
200.0592	0.7132
200.2767	0.7399
200.4943	0.6979
200.7119	0.8529
200.9294	0.605
201.1469	0.6227
201.3645	0.6733
201.582	0.5463
201.7995	0.7621
202.017	0.5613
202.2344	0.5708
202.4519	0.7903
202.6694	0.6597
202.8868	0.6324
203.1042	0.6936
203.3217	0.7704
203.5391	0.6007
203.7565	0.6156
203.9739	0.643
204.1913	0.5604
204.4086	0.7144
204.626	0.826
204.8433	0.6715
205.0607	0.6257
205.278	0.6199
205.4953	0.6057
205.7126	0.6473
205.9299	0.7386
206.1472	0.7176
206.3644	0.6165
206.5817	0.6661
206.7989	0.6932
207.0162	0.6654
207.2334	0.6118
207.4506	0.7087
207.6678	0.6405
207.885	0.6568
208.1022	0.7086
208.3194	0.6794
208.5365	0.6481
208.7537	0.6306
208.9708	0.5634
209.1879	0.6143
209.405	0.5805
209.6222	0.6652
209.8392	0.6642
210.0563	0.5914
210.2734	0.6456
210.4905	0.6153
210.7075	0.6551
210.9245	0.6517
211.1416	0.7191
211.3586	0.7192
211.5756	0.5594
211.7926	0.6752
212.0096	0.6313
212.2265	0.5369
212.4435	0.6004
212.6604	0.5862
212.8774	0.6268
213.0943	0.5794
213.3112	0.5577
213.5281	0.5653
213.745	0.5516
213.9619	0.4708
214.1788	0.5004
214.3956	0.4727
214.6125	0.4583
214.8293	0.4442
215.0461	0.486
215.2629	0.47
215.4798	0.498
215.6965	0.4413
215.9133	0.4682
216.1301	0.3949
216.3469	0.4314
216.5636	0.4329
216.7803	0.3839
216.9971	0.4059
217.2138	0.3822
217.4305	0.4063
217.6472	0.3551
217.8639	0.4017
218.0805	0.3497
218.2972	0.3243
218.5138	0.3304
218.7305	0.3274
218.9471	0.3255
219.1637	0.2698
219.3803	0.287
219.5969	0.2904
219.8135	0.2443
220.0301	0.2815
220.2466	0.3139
220.4632	0.2641
220.6797	0.2252
220.8962	0.2343
221.1127	0.251
221.3292	0.224
221.5457	0.2293
221.7622	0.233
221.9787	0.2572
222.1951	0.2294
222.4116	0.2521
222.628	0.262
222.8444	0.2527
223.0608	0.2698
223.2772	0.2422
223.4936	0.257
223.71	0.2453
223.9264	0.2675
224.1427	0.2575
224.3591	0.249
224.5754	0.2488
224.7917	0.2548
225.008	0.2581
225.2243	0.2519
225.4406	0.2937
225.6569	0.2676
225.8732	0.2613
226.0894	0.2651
226.3057	0.2602
226.5219	0.2671
226.7381	0.2746
226.9543	0.2855
227.1705	0.2768
227.3867	0.284
227.6029	0.293
227.8191	0.2885
228.0352	0.2775
228.2513	0.2979
228.4675	0.3108
228.6836	0.3109
228.8997	0.2875
229.1158	0.3039
229.3319	0.2981
229.548	0.3085
229.764	0.3255
229.9801	0.3191
230.1961	0.3155
230.4121	0.3266
230.6282	0.341
230.8442	0.3098
231.0602	0.3541
231.2761	0.3427
231.4921	0.3392
231.7081	0.3332
231.924	0.3496
232.14	0.3402
232.3559	0.3225
232.5718	0.3588
232.7877	0.3557
233.0036	0.321
233.2195	0.3588
233.4353	0.3452
233.6512	0.3634
233.867	0.3724
234.0829	0.3665
234.2987	0.3636
234.5145	0.3765
234.7303	0.3712
234.9461	0.3931
235.1619	0.3895
235.3776	0.3645
235.5934	0.3841
235.8091	0.3822
236.0249	0.3798
236.2406	0.385
236.4563	0.3867
236.672	0.3852
236.8877	0.3914
237.1034	0.3819
237.319	0.4016
237.5347	0.4097
237.7503	0.3884
237.966	0.3949
238.1816	0.4104
238.3972	0.4204
238.6128	0.4144
238.8284	0.4044
239.0439	0.4043
239.2595	0.3872
239.475	0.4182
239.6906	0.4204
239.9061	0.392
240.1216	0.3962
240.3371	0.4148
240.5526	0.3966
240.7681	0.3834
240.9836	0.3898
241.199	0.3972
241.4145	0.3883
241.6299	0.38
241.8453	0.3831
242.0607	0.3837
242.2761	0.3657
242.4915	0.3697
242.7069	0.3511
242.9223	0.3503
243.1376	0.3321
243.353	0.3342
243.5683	0.3386
243.7836	0.3139
243.9989	0.3226
244.2142	0.2965
244.4295	0.2988
244.6448	0.3072
244.86	0.2917
245.0753	0.2875
245.2905	0.2975
245.5057	0.2709
245.721	0.2644
245.9362	0.2685
246.1514	0.2568
246.3665	0.2569
246.5817	0.2473
246.7969	0.2409
247.012	0.2436
247.2271	0.2363
247.4423	0.244
247.6574	0.2398
247.8725	0.2313
248.0876	0.2291
248.3026	0.223
248.5177	0.2168
248.7328	0.2259
248.9478	0.2105
249.1628	0.2182
249.3779	0.2136
249.5929	0.2086
249.8079	0.2142
250.0228	0.1964
250.2378	0.1967
250.4528	0.2047
250.6677	0.1732
250.8827	0.1903
251.0976	0.2019
251.3125	0.186
251.5274	0.1713
251.7423	0.1798
251.9572	0.1709
252.172	0.1734
252.3869	0.1759
252.6017	0.177
252.8166	0.1765
253.0314	0.1645
253.2462	0.1704
253.461	0.1534
253.6758	0.1709
253.8906	0.1716
254.1053	0.1701
254.3201	0.175
254.5348	0.1818
254.7496	0.1782
254.9643	0.1658
255.179	0.1755
255.3937	0.1623
255.6083	0.1666
255.823	0.17
256.0377	0.1725
256.2523	0.1681
256.467	0.1569
256.6816	0.1724
256.8962	0.1579
257.1108	0.1523
257.3254	0.173
257.54	0.1576
257.7545	0.1616
257.9691	0.1626
258.1836	0.1627
258.3981	0.1691
258.6127	0.1715
258.8272	0.1611
259.0417	0.1528
259.2561	0.166
259.4706	0.1573
259.6851	0.1739
259.8995	0.1609
260.114	0.1548
260.3284	0.1503
260.5428	0.147
260.7572	0.1737
260.9716	0.1679
261.186	0.1602
261.4003	0.1706
261.6147	0.1636
261.829	0.1608
262.0433	0.1525
262.2577	0.1566
262.472	0.1686
262.6863	0.153
262.9005	0.1563
263.1148	0.1635
263.3291	0.1436
263.5433	0.1644
263.7576	0.1622
263.9718	0.1641
264.186	0.1606
264.4002	0.1588
264.6144	0.1585
264.8286	0.1742
265.0427	0.1475
265.2569	0.1506
265.471	0.158
265.6851	0.1466
265.8993	0.1548
266.1134	0.1381
266.3275	0.1559
266.5415	0.1461
266.7556	0.167
266.9697	0.1651
267.1837	0.162
267.3978	0.149
267.6118	0.1591
267.8258	0.1819
268.0398	0.1541
268.2538	0.1659
268.4677	0.1527
268.6817	0.1475
268.8957	0.1534
269.1096	0.1563
269.3235	0.1559
269.5374	0.152
269.7514	0.1463
269.9652	0.1551
270.1791	0.1489
270.393	0.1359
270.6068	0.1507
270.8207	0.1435
271.0345	0.1362
271.2483	0.1433
271.4622	0.1451
271.676	0.1578
271.8897	0.1363
272.1035	0.1253
272.3173	0.1293
272.531	0.1327
272.7448	0.1468
272.9585	0.1387
273.1722	0.1436
273.3859	0.1478
273.5996	0.1314
273.8133	0.1373
274.0269	0.1307
274.2406	0.1305
274.4542	0.139
274.6679	0.1193
274.8815	0.1375
275.0951	0.1402
275.3087	0.1462
275.5223	0.146
275.7358	0.1391
275.9494	0.134
276.1629	0.1363
276.3765	0.135
276.59	0.1329
276.8035	0.1391
277.017	0.1424
277.2305	0.1399
277.444	0.1461
277.6574	0.1357
277.8709	0.1337
278.0843	0.1326
278.2978	0.133
278.5112	0.1399
278.7246	0.1445
278.938	0.1403
279.1513	0.1547
279.3647	0.1584
279.5781	0.1428
279.7914	0.1424
280.0047	0.1557
280.2181	0.1446
280.4314	0.1456
280.6447	0.1408
280.8579	0.1488
281.0712	0.1532
281.2845	0.1536
281.4977	0.1458
281.711	0.1343
281.9242	0.1517
282.1374	0.1472
282.3506	0.1394
282.5638	0.14
282.7769	0.1492
282.9901	0.1528
283.2033	0.1614
283.4164	0.1605
283.6295	0.1394
283.8426	0.1526
284.0557	0.1543
284.2688	0.1559
284.4819	0.1559
284.695	0.1374
284.908	0.1437
285.1211	0.1525
285.3341	0.1512
285.5471	0.1591
285.7601	0.1664
285.9731	0.1484
286.1861	0.1464
286.3991	0.1662
286.612	0.167
286.825	0.1547
287.0379	0.1704
287.2508	0.1516
287.4637	0.1509
287.6766	0.1491
287.8895	0.1606
288.1024	0.1717
288.3152	0.165
288.5281	0.1565
288.7409	0.169
288.9538	0.16
289.1666	0.1619
289.3794	0.159
289.5922	0.1512
289.8049	0.1587
290.0177	0.1616
290.2304	0.1741
290.4432	0.1782
290.6559	0.1612
290.8686	0.1726
291.0813	0.1639
291.294	0.1603
291.5067	0.1678
291.7194	0.162
291.932	0.1832
292.1447	0.1665
292.3573	0.1513
292.5699	0.1695
292.7825	0.1635
292.9951	0.1444
293.2077	0.1587
293.4203	0.1591
293.6328	0.1567
293.8454	0.1788
294.0579	0.1646
294.2704	0.1645
294.4829	0.1496
294.6954	0.1712
294.9079	0.1698
295.1204	0.1585
295.3328	0.1556
295.5453	0.1576
295.7577	0.1652
295.9701	0.1621
296.1825	0.1742
296.3949	0.1605
296.6073	0.1588
296.8197	0.1599
297.0321	0.1612
297.2444	0.1641
297.4567	0.1621
297.6691	0.1664
297.8814	0.1529
298.0937	0.1626
298.306	0.1723
298.5182	0.1668
298.7305	0.1801
298.9428	0.1602
299.155	0.1709
299.3672	0.1628
299.5794	0.1535
299.7916	0.1651
300.0038	0.1615
300.216	0.1703
300.4282	0.1676
300.6403	0.1616
300.8525	0.1673
301.0646	0.1608
301.2767	0.1647
301.4888	0.1699
301.7009	0.1608
301.913	0.1613
302.125	0.1618
302.3371	0.1555
302.5491	0.1649
302.7612	0.1617
302.9732	0.1552
303.1852	0.1638
303.3972	0.1607
303.6092	0.1621
303.8211	0.1515
304.0331	0.1499
304.245	0.1516
304.457	0.1534
304.6689	0.1574
304.8808	0.1599
305.0927	0.148
305.3046	0.1569
305.5164	0.1537
305.7283	0.1518
305.9401	0.1487
306.152	0.1515
306.3638	0.1469
306.5756	0.1462
306.7874	0.1465
306.9992	0.1526
307.2109	0.1399
307.4227	0.1319
307.6344	0.1415
307.8462	0.1278
308.0579	0.1321
308.2696	0.1296
308.4813	0.1304
308.693	0.1217
308.9046	0.1371
309.1163	0.1176
309.328	0.122
309.5396	0.129
309.7512	0.1164
309.9628	0.1235
310.1744	0.1196
310.386	0.1219
310.5976	0.1169
310.8091	0.114
311.0207	0.1222
311.2322	0.1245
311.4437	0.123
311.6552	0.1166
311.8667	0.1109
312.0782	0.0999
312.2897	0.0989
312.5012	0.1216
312.7126	0.0934
312.924	0.0966
313.1355	0.107
313.3469	0.1046
313.5583	0.1126
313.7696	0.1061
313.981	0.094
314.1924	0.1056
314.4037	0.0972
314.6151	0.1112
314.8264	0.0923
315.0377	0.0992
315.249	0.1042
315.4603	0.1138
315.6716	0.096
315.8828	0.0894
316.0941	0.0899
316.3053	0.0876
316.5165	0.093
316.7277	0.0902
316.9389	0.0968
317.1501	0.1014
317.3613	0.0953
317.5724	0.0832
317.7836	0.0962
317.9947	0.0905
318.2058	0.0924
318.417	0.0778
318.6281	0.0864
318.8391	0.094
319.0502	0.0855
319.2613	0.1
319.4723	0.1002
319.6834	0.0896
319.8944	0.0834
320.1054	0.098
320.3164	0.1031
320.5274	0.087
320.7383	0.091
320.9493	0.0921
321.1602	0.1021
321.3712	0.0837
321.5821	0.0975
321.793	0.0918
322.0039	0.0817
322.2148	0.0909
322.4257	0.0917
322.6365	0.0958
322.8474	0.0998
323.0582	0.0958
323.269	0.1022
323.4798	0.0992
323.6906	0.0959
323.9014	0.0921
324.1122	0.0914
324.3229	0.091
324.5337	0.0947
324.7444	0.088
324.9551	0.1016
325.1658	0.101
325.3765	0.1027
325.5872	0.096
325.7979	0.1037
326.0085	0.0936
326.2192	0.0933
326.4298	0.1042
326.6404	0.092
326.851	0.0888
327.0616	0.0871
327.2722	0.0976
327.4828	0.1085
327.6933	0.0967
327.9039	0.0918
328.1144	0.1031
328.3249	0.0939
328.5354	0.088
328.7459	0.0927
328.9564	0.0927
329.1669	0.0927
329.3773	0.0919
329.5878	0.0879
329.7982	0.1065
330.0086	0.1024
330.219	0.1115
330.4294	0.0937
330.6398	0.0928
330.8502	0.0932
331.0605	0.1047
331.2708	0.1043
331.4812	0.107
331.6915	0.1042
331.9018	0.1005
332.1121	0.0951
332.3224	0.1126
332.5326	0.0973
332.7429	0.1055
332.9531	0.1194
333.1633	0.1217
333.3735	0.0914
333.5837	0.0992
333.7939	0.105
334.0041	0.1107
334.2143	0.1125
334.4244	0.102
334.6346	0.0873
334.8447	0.1221
335.0548	0.0898
335.2649	0.1001
335.475	0.1138
335.685	0.109
335.8951	0.1131
336.1051	0.1092
336.3152	0.1017
336.5252	0.0957
336.7352	0.1078
336.9452	0.1064
337.1552	0.119
337.3652	0.1026
337.5751	0.1008
337.7851	0.1206
337.995	0.0879
338.2049	0.1031
338.4148	0.1068
338.6247	0.1159
338.8346	0.1046
339.0445	0.0977
339.2543	0.0952
339.4642	0.1101
339.674	0.1137
339.8838	0.1171
340.0936	0.1088
340.3034	0.1328
340.5132	0.1171
340.7229	0.1156
340.9327	0.1085
341.1424	0.1114
341.3522	0.1243
341.5619	0.1188
341.7716	0.1194
341.9813	0.1228
342.1909	0.1144
342.4006	0.1291
342.6102	0.1081
342.8199	0.12
343.0295	0.1095
343.2391	0.1177
343.4487	0.1128
343.6583	0.1122
343.8679	0.1203
344.0774	0.1264
344.287	0.1181
344.4965	0.1226
344.706	0.1236
344.9155	0.1188
345.125	0.1248
345.3345	0.1341
345.544	0.1271
345.7534	0.1211
345.9629	0.1075
346.1723	0.1249
346.3817	0.1288
346.5911	0.1222
346.8005	0.1384
347.0099	0.1265
347.2193	0.1256
347.4286	0.1232
347.638	0.1307
347.8473	0.1261
348.0566	0.1301
348.2659	0.1427
348.4752	0.1326
348.6845	0.1245
348.8937	0.138
349.103	0.1381
349.3122	0.1217
349.5214	0.1065
349.7306	0.1454
349.9398	0.1243
350.149	0.1395
350.3582	0.1284
350.5674	0.1508
350.7765	0.1373
350.9856	0.1348
351.1948	0.1337
351.4039	0.1255
351.613	0.1334
351.822	0.1338
352.0311	0.1455
352.2402	0.1536
352.4492	0.1376
352.6582	0.1523
352.8672	0.1359
353.0762	0.1436
353.2852	0.1482
353.4942	0.1453
353.7032	0.1594
353.9121	0.1463
354.1211	0.1448
354.33	0.1534
354.5389	0.1491
354.7478	0.1592
354.9567	0.1458
355.1655	0.1447
355.3744	0.1502
355.5833	0.1531
355.7921	0.1708
356.0009	0.1563
356.2097	0.1651
356.4185	0.1743
356.6273	0.1498
356.8361	0.159
357.0448	0.1566
357.2536	0.156
357.4623	0.1532
357.671	0.1653
357.8797	0.1592
358.0884	0.1563
358.2971	0.1691
358.5057	0.1688
358.7144	0.1745
358.923	0.1737
359.1316	0.1477
359.3402	0.1516
359.5488	0.1687
359.7574	0.1529
359.966	0.1759
360.1746	0.1778
360.3831	0.1823
360.5916	0.1548
360.8002	0.1575
361.0087	0.1928
361.2172	0.176
361.4256	0.1726
361.6341	0.1881
361.8426	0.1707
362.051	0.1857
362.2594	0.182
362.4678	0.1773
362.6762	0.1985
362.8846	0.186
363.093	0.1764
363.3014	0.1884
363.5097	0.1858
363.718	0.1942
363.9264	0.1754
364.1347	0.1653
364.343	0.1955
364.5513	0.2018
364.7595	0.1985
364.9678	0.2012
365.176	0.2008
365.3842	0.2049
365.5925	0.189
365.8007	0.1836
366.0089	0.1988
366.217	0.1783
366.4252	0.2209
366.6333	0.2081
366.8415	0.199
367.0496	0.1994
367.2577	0.2177
367.4658	0.2176
367.6739	0.216
367.882	0.2112
368.09	0.2051
368.2981	0.2281
368.5061	0.2058
368.7141	0.2165
368.9221	0.2129
369.1301	0.2089
369.3381	0.2084
369.5461	0.2078
369.754	0.2167
369.962	0.2526
370.1699	0.2243
370.3778	0.2271
370.5857	0.2109
370.7936	0.2314
371.0015	0.2126
371.2093	0.223
371.4172	0.2288
371.625	0.2326
371.8328	0.211
372.0406	0.2334
372.2484	0.2214
372.4562	0.2206
372.664	0.2145
372.8717	0.2244
373.0795	0.2146
373.2872	0.236
373.4949	0.2295
373.7026	0.2282
373.9103	0.2344
374.118	0.2375
374.3256	0.2356
374.5333	0.224
374.7409	0.2262
374.9485	0.2522
375.1561	0.2224
375.3637	0.2353
375.5713	0.2255
375.7789	0.2304
375.9864	0.241
376.194	0.206
376.4015	0.259
376.609	0.2382
376.8165	0.2369
377.024	0.2327
377.2315	0.2267
377.4389	0.2478
377.6464	0.2493
377.8538	0.2457
378.0612	0.2408
378.2686	0.2537
378.476	0.2715
378.6834	0.2605
378.8908	0.2468
379.0981	0.2655
379.3055	0.2665
379.5128	0.2538
379.7201	0.241
379.9274	0.2475
380.1347	0.2482
380.342	0.27
380.5492	0.246
380.7565	0.2528
380.9637	0.2599
381.1709	0.2325
381.3781	0.2498
381.5853	0.2721
381.7925	0.2618
381.9997	0.2553
382.2068	0.2597
382.4139	0.2461
382.6211	0.2397
382.8282	0.2629
383.0353	0.2595
383.2424	0.2511
383.4494	0.2617
383.6565	0.2611
383.8635	0.2489
384.0706	0.2658
384.2776	0.2732
384.4846	0.2659
384.6916	0.2617
384.8986	0.2748
385.1055	0.2689
385.3125	0.2755
385.5194	0.2554
385.7263	0.2748
385.9333	0.2755
386.1402	0.2659
386.347	0.2708
386.5539	0.2626
386.7608	0.2793
386.9676	0.2503
387.1744	0.2649
387.3813	0.2506
387.5881	0.2445
387.7948	0.2575
388.0016	0.2606
388.2084	0.266
388.4151	0.2537
388.6219	0.2582
388.8286	0.2489
389.0353	0.2784
389.242	0.2571
389.4487	0.2479
389.6553	0.2602
389.862	0.2524
390.0686	0.2502
390.2753	0.2645
390.4819	0.2623
390.6885	0.2403
390.8951	0.2521
391.1016	0.259
391.3082	0.2439
391.5147	0.2413
391.7213	0.2477
391.9278	0.2429
392.1343	0.2341
392.3408	0.2475
392.5473	0.2454
392.7537	0.2335
392.9602	0.2291
393.1666	0.2234
393.373	0.2359
393.5794	0.2465
393.7858	0.2374
393.9922	0.2217
394.1986	0.2513
394.4049	0.2309
394.6113	0.2259
394.8176	0.2221
395.0239	0.2204
395.2302	0.2319
395.4365	0.2135
395.6428	0.2353
395.8491	0.2229
396.0553	0.2159
396.2615	0.2218
396.4678	0.2216
396.674	0.2223
396.8802	0.2353
397.0863	0.2463
397.2925	0.2171
397.4987	0.2221
397.7048	0.2117
397.9109	0.2236
398.117	0.2107
398.3231	0.2151
398.5292	0.2492
398.7353	0.2209
398.9413	0.2142
399.1474	0.2247
399.3534	0.2112
399.5594	0.2074
399.7654	0.21
399.9714	0.2376
400.1774	0.2129
400.3833	0.1887
400.5893	0.2231
400.7952	0.2246
401.0011	0.2045
401.207	0.233
401.4129	0.2117
401.6188	0.2224
401.8247	0.2174
402.0305	0.211
402.2364	0.2194
402.4422	0.2156
402.648	0.2105
402.8538	0.2228
403.0596	0.2177
403.2654	0.2225
403.4711	0.2137
403.6768	0.2056
403.8826	0.2248
404.0883	0.2339
404.294	0.2325
404.4997	0.2256
404.7054	0.2204
404.911	0.2026
405.1167	0.2221
405.3223	0.2234
405.5279	0.2206
405.7335	0.2296
405.9391	0.2204
406.1447	0.223
406.3502	0.2405
406.5558	0.2111
406.7613	0.2158
406.9668	0.2198
407.1724	0.2042
407.3778	0.2247
407.5833	0.2112
407.7888	0.2173
407.9942	0.2236
408.1997	0.2016
408.4051	0.2197
408.6105	0.2159
408.8159	0.2146
409.0213	0.212
409.2267	0.2251
409.432	0.2199
409.6374	0.2231
409.8427	0.2215
410.048	0.2253
410.2533	0.2093
410.4586	0.2087
410.6639	0.2144
410.8691	0.2194
411.0744	0.2056
411.2796	0.2091
411.4848	0.2141
411.69	0.1986
411.8952	0.229
412.1004	0.2024
412.3056	0.2238
412.5107	0.2279
412.7158	0.2344
412.921	0.2055
413.1261	0.2162
413.3312	0.2053
413.5362	0.2246
413.7413	0.2156
413.9464	0.2025
414.1514	0.1936
414.3564	0.2015
414.5614	0.2086
414.7664	0.2003
414.9714	0.2006
415.1764	0.2318
415.3813	0.2173
415.5863	0.2119
415.7912	0.22
415.9961	0.2092
416.201	0.1998
416.4059	0.2096
416.6108	0.2049
416.8156	0.2156
417.0205	0.2096
417.2253	0.1941
417.4301	0.2132
417.6349	0.2101
417.8397	0.2024
418.0445	0.2106
418.2492	0.2311
418.454	0.2264
418.6587	0.1963
418.8634	0.2
419.0681	0.206
419.2728	0.1943
419.4775	0.196
419.6822	0.1906
419.8868	0.1857
420.0915	0.2068
420.2961	0.1765
420.5007	0.1811
420.7053	0.2015
420.9099	0.1926
421.1144	0.1928
421.319	0.2171
421.5235	0.1894
421.728	0.1924
421.9325	0.2118
422.137	0.2092
422.3415	0.1932
422.546	0.2062
422.7504	0.2064
422.9549	0.1976
423.1593	0.187
423.3637	0.2037
423.5681	0.2009
423.7725	0.1796
423.9769	0.1857
424.1812	0.1717
424.3856	0.1832
424.5899	0.1827
424.7942	0.1913
424.9985	0.1818
425.2028	0.1851
425.4071	0.2022
425.6113	0.1599
425.8156	0.184
426.0198	0.1744
426.224	0.1659
426.4282	0.1863
426.6324	0.1678
426.8366	0.1715
427.0407	0.1694
427.2449	0.1644
427.449	0.1708
427.6531	0.149
427.8572	0.1657
428.0613	0.1756
428.2654	0.1605
428.4694	0.146
428.6735	0.171
428.8775	0.17
429.0815	0.1767
429.2855	0.154
429.4895	0.1604
429.6935	0.1532
429.8975	0.1513
430.1014	0.1425
430.3053	0.1398
430.5093	0.1594
430.7132	0.1366
430.9171	0.1379
431.1209	0.1395
431.3248	0.1483
431.5286	0.1431
431.7325	0.144
431.9363	0.1344
432.1401	0.1433
432.3439	0.1308
432.5477	0.1313
432.7514	0.1301
432.9552	0.1332
433.1589	0.1311
433.3627	0.1187
433.5664	0.1311
433.7701	0.1217
433.9737	0.1147
434.1774	0.115
434.3811	0.1098
434.5847	0.1219
434.7883	0.1097
434.9919	0.1327
435.1955	0.1276
435.3991	0.1172
435.6027	0.1191
435.8062	0.1222
436.0098	0.1054
436.2133	0.0877
436.4168	0.1056
436.6203	0.0941
436.8238	0.1037
437.0272	0.099
437.2307	0.0936
437.4341	0.0966
437.6375	0.1003
437.841	0.0993
438.0443	0.1209
438.2477	0.1067
438.4511	0.0972
438.6545	0.0901
438.8578	0.0899
439.0611	0.1012
439.2644	0.0898
439.4677	0.0786
439.671	0.0657
439.8743	0.0863
440.0775	0.0996
440.2808	0.0622
440.484	0.0674
440.6872	0.0645
440.8904	0.075
441.0936	0.0909
441.2967	0.0682
441.4999	0.0785
441.703	0.0837
441.9062	0.0821
442.1093	0.0597
442.3124	0.0727
442.5155	0.0528
442.7185	0.0705
442.9216	0.0335
443.1246	0.0695
443.3276	0.0574
443.5307	0.0688
443.7337	0.055
443.9366	0.0602
444.1396	0.0591
444.3426	0.0543
444.5455	0.0449
444.7484	0.0443
444.9513	0.0577
445.1542	0.0439
445.3571	0.0625
445.56	0.0663
445.7628	0.0325
445.9657	0.0516
446.1685	0.0489
446.3713	0.0512
446.5741	0.0416
446.7769	0.0272
446.9797	0.0505
447.1824	0.0564
447.3852	0.0311
447.5879	0.0507
447.7906	0.0412
447.9933	0.0336
448.196	0.0254
448.3986	0.0469
448.6013	0.02
448.8039	0.0259
449.0066	0.0287
449.2092	0.029
449.4118	0.0351
449.6143	0.0382
449.8169	0.036
450.0195	0.0135
450.222	0.0049
450.4245	0.0249
450.627	0.0352
450.8295	0.0216
451.032	0.0269
451.2345	0.0248
451.4369	0.0216
451.6394	0.0291
451.8418	0.0111
452.0442	0.017
452.2466	0.0285
452.449	0.0057
452.6513	0.016
452.8537	0.0117
453.056	0.0088
453.2583	0.0027
453.4607	0.0194
453.663	0.0104
453.8652	0.0202
454.0675	-0.0007
454.2697	0.0107
454.472	0.0056
454.6742	0.0184
454.8764	0.026
455.0786	0.0142
455.2808	0.0012
455.4829	0.0148
455.6851	0.0309
455.8872	0.0301
456.0893	0.0201
456.2915	-0.0083
456.4935	0.0314
456.6956	0.021
456.8977	0.0149
457.0997	-0.0056
457.3018	0.0039
457.5038	0.0227
457.7058	-0.0002
457.9078	0.0022
458.1098	0.0101
458.3117	0.0169
458.5137	0.0066
458.7156	0.0057
458.9175	-0.0063
459.1194	-0.0005
459.3213	0.0127
459.5232	0.0117
459.725	-0.0017
459.9269	0.0046
460.1287	0.0021
460.3305	0.0077
460.5323	0.0025
460.7341	0.0046
460.9359	0.0035
461.1376	0.0194
461.3394	-0.0031
461.5411	0.0005
461.7428	-0.0009
461.9445	0.0069
462.1462	-0.0007
462.3479	0.0011
462.5495	0.0009
462.7512	0.0132
462.9528	-0.0061
463.1544	0.0024
463.356	-0.0033
463.5576	0.0002
463.7592	-0.0129
463.9607	0.0067
464.1623	0.0149
464.3638	0.0131
464.5653	-0.0022
464.7668	0.0084
464.9683	0.0026
465.1697	0.0106
465.3712	-0.0052
465.5726	-0.0192
465.7741	-0.002
465.9755	-0.012
466.1769	0.0035
466.3782	-0.0016
466.5796	-0.004
466.7809	0.0108
466.9823	-0.0057
467.1836	0.005
467.3849	-0.0093
467.5862	-0.0052
467.7875	-0.0068
467.9887	0.0045
468.19	-0.0083
468.3912	0.0011
468.5924	-0.014
468.7936	0.0074
468.9948	0.0098
469.196	0.0098
469.3972	-0.0124
469.5983	0.0014
469.7994	0.0036
470.0006	0.0047
470.2017	-0.0069
470.4027	-0.0073
470.6038	0.0088
470.8049	-0.0181
471.0059	-0.007
471.2069	-0.0102
471.408	0.0075
471.6089	0.0116
471.8099	-0.0088
472.0109	0.0058
472.2119	-0.011
472.4128	-0.0167
472.6137	0.0094
472.8146	-0.023
473.0155	-0.0031
473.2164	-0.0114
473.4173	0.0042
473.6181	0.0161
473.819	0.0005
474.0198	-0.0101
474.2206	0.0116
474.4214	-0.0094
474.6222	-0.0034
474.8229	-0.0064
475.0237	-0.0068
475.2244	-0.0076
475.4251	0.0105
475.6258	0.0014
475.8265	-0.0035
476.0272	-0.0005
476.2278	-0.0006
476.4285	0.0107
476.6291	-0.0076
476.8297	-0.0048
477.0303	-0.0059
477.2309	0.0021
477.4315	-0.0218
477.632	-0.006
477.8326	0.0094
478.0331	0.0071
478.2336	0.0068
478.4341	-0.002
478.6346	-0.0069
478.8351	0.0009
479.0355	-0.0199
479.236	-0.0078
479.4364	0.0062
479.6368	-0.0073
479.8372	0.0007
480.0376	-0.0022
480.2379	-0.0166
480.4383	-0.0179
480.6386	0.005
480.8389	-0.0006
481.0392	-0.003
481.2395	-0.0151
481.4398	0.0089
481.6401	-0.0036
481.8403	0.0021
482.0405	-0.0043
482.2408	-0.0039
482.441	0.0043
482.6411	-0.0028
482.8413	-0.0065
483.0415	-0.0023
483.2416	-0.0132
483.4417	-0.0098
483.6419	-0.0067
483.8419	-0.0093
484.042	0.0063
484.2421	0.0048
484.4422	0.0019
484.6422	-0.0088
484.8422	-0.0071
485.0422	-0.0088
485.2422	-0.0022
485.4422	-0.0127
485.6422	-0.0212
485.8421	-0.0012
486.042	0.0021
486.242	-0.0129
486.4419	-0.017
486.6417	-0.0054
486.8416	0.0012
487.0415	-0.0087
487.2413	-0.0086
487.4411	0.0015
487.641	-0.0048
487.8408	0.0058
488.0405	-0.0066
488.2403	-0.0077
488.4401	0.0089
488.6398	-0.001
488.8395	-0.0055
489.0392	-0.0006
489.2389	-0.0027
489.4386	-0.0006
489.6383	0.003
489.8379	0.0022
490.0376	-0.0167
490.2372	-0.0192
490.4368	-0.0048
490.6364	-0.0115
490.836	-0.0073
491.0355	0.003
491.2351	-0.0089
491.4346	-0.0026
491.6341	-0.012
491.8336	0.0133
492.0331	-0.0183
492.2326	-0.0089
492.432	0.0014
492.6315	-0.0065
492.8309	-0.0032
493.0303	-0.004
493.2297	-0.0157
493.4291	-0.0037
493.6284	-0.0092
493.8278	0.0039
494.0271	0.0029
494.2264	0.0069
494.4257	-0.0113
494.625	-0.0185
494.8243	-0.0096
495.0236	-0.0115
495.2228	-0.0127
495.422	0.0073
495.6213	-0.0028
495.8205	0.0009
496.0196	-0.0019
496.2188	-0.0011
496.418	-0.0182
496.6171	-0.0142
496.8162	-0.0287
497.0153	0.0031
497.2144	-0.005
497.4135	-0.0001
497.6126	-0.0139
497.8116	-0.0128
498.0107	0.0025
498.2097	-0.0061
498.4087	-0.0062
498.6077	-0.0014
498.8067	-0.0086
499.0056	-0.0029
499.2046	-0.0047
499.4035	-0.0195
499.6024	-0.0028
499.8013	0.0004
500.0002	0.0013
500.199	-0.0061
500.3979	-0.0042
500.5967	-0.0135
500.7956	0.0049
500.9944	-0.0015
501.1932	-0.0025
501.3919	-0.0079
501.5907	-0.0124
501.7895	-0.0008
501.9882	-0.0127
502.1869	-0.0078
502.3856	-0.0028
502.5843	-0.0135
502.783	-0.005
502.9816	-0.0004
503.1803	-0.0111
503.3789	-0.0111
503.5775	0.0057
503.7761	-0.0088
503.9747	0.0017
504.1732	-0.0104
504.3718	-0.0063
504.5703	-0.0052
504.7689	-0.0144
504.9674	-0.0026
505.1658	-0.0106
505.3643	-0.0075
505.5628	-0.0071
505.7612	-0.0094
505.9597	-0.001
506.1581	-0.0006
506.3565	0.0043
506.5549	0.0025
506.7532	-0.0132
506.9516	0.0093
507.1499	0.0026
507.3482	-0.0127
507.5465	-0.0046
507.7448	-0.0056
507.9431	0.0038
508.1414	-0.0022
508.3396	-0.0063
508.5379	-0.0003
508.7361	-0.0058
508.9343	-0.0064
509.1325	0.0068
509.3306	-0.0056
509.5288	-0.0051
509.7269	-0.0122
509.9251	-0.0048
510.1232	-0.0044
510.3213	-0
510.5193	0.0024
510.7174	-0.0178
510.9154	-0.0044
511.1135	-0.0053
511.3115	-0.0046
511.5095	-0.0012
511.7075	-0.0038
511.9055	-0.0049
512.1034	-0.0082
512.3014	-0.0073
512.4993	-0.0049
512.6972	-0.0082
512.8951	-0.0136
513.093	0.0047
513.2908	0.0055
513.4887	0.0029
513.6865	-0.0029
513.8844	-0.0078
514.0822	0.003
514.2799	-0.0164
514.4777	-0.0073
514.6755	-0
514.8732	-0.0087
515.0709	-0.0017
515.2687	-0.0085
515.4664	-0.0072
515.664	-0.0015
515.8617	-0.0097
516.0594	-0.0167
516.257	0.0006
516.4546	-0.0103
516.6522	0.003
516.8498	-0.0017
517.0474	0.0015
517.2449	0.0041
517.4425	-0.0173
517.64	-0.0051
517.8375	0.0154
518.035	-0.0044
518.2325	-0.0115
518.43	-0.0104
518.6274	-0.0078
518.8249	-0.0128
519.0223	-0.0033
519.2197	-0.01
519.4171	-0.0039
519.6145	-0.0034
519.8118	-0.0032
520.0092	-0.0058
520.2065	-0.0064
520.4038	-0.0214
520.6011	-0.0013
520.7984	-0.0041
520.9956	-0.0079
521.1929	-0.012
521.3901	0.0009
521.5874	-0.005
521.7846	0.0027
521.9818	-0.0148
522.1789	-0.0067
522.3761	-0.0074
522.5732	-0.0051
522.7704	0.0028
522.9675	-0.0003
523.1646	-0.009
523.3617	0.0007
523.5587	-0.0001
523.7558	-0.0065
523.9528	-0.0149
524.1498	-0.0055
524.3468	-0.0078
524.5438	-0.0123
524.7408	-0.0003
524.9378	0.0026
525.1347	-0.0028
525.3316	-0.004
525.5285	-0.0098
525.7254	-0.0098
525.9223	-0.0022
526.1192	0.0019
526.316	-0.0114
526.5129	-0.0019
526.7097	0.0038
526.9065	-0.0096
527.1033	-0.0063
527.3	0.0024
527.4968	-0.0056
527.6935	0.001
527.8903	-0.0195
528.087	-0.0016
528.2837	-0.0104
528.4804	-0.0054
528.677	-0.0005
528.8737	0.0047
529.0703	-0.0042
529.2669	-0.0053
529.4635	-0.014
529.6601	-0.0098
529.8567	-0.0037
530.0532	-0.0087
530.2498	0.0029
530.4463	0.002
530.6428	0.0004
530.8393	0.0038
531.0358	-0.0031
531.2322	-0.0049
531.4287	-0.004
531.6251	-0.0047
531.8215	0.0112
532.0179	-0.0081
532.2143	0.0035
532.4107	0.0028
532.607	0.0009
532.8034	-0.002
532.9997	-0.0031
533.196	0.0075
533.3923	-0.0083
533.5886	0.0013
533.7848	0.0076
533.9811	-0
534.1773	-0.0005
534.3735	0.0069
534.5697	-0.0032
534.7659	0.0002
534.9621	-0.0021
535.1582	-0.0069
535.3544	0.0007
535.5505	-0.01
535.7466	-0.003
535.9427	0.0018
536.1387	0.0041
536.3348	-0.0017
536.5308	0.0088
536.7269	-0.0114
536.9229	0.009
537.1189	0.0039
537.3148	0.0007
537.5108	-0.0102
537.7068	0.0022
537.9027	-0.0018
538.0986	-0.0011
538.2945	-0.0026
538.4904	-0.0042
538.6863	0.0034
538.8821	0.0002
539.078	-0.0036
539.2738	0.0039
539.4696	-0.0063
539.6654	0.01
539.8611	0.0094
540.0569	-0.0031
540.2526	-0.0007
540.4484	-0.0005
540.6441	0.0022
540.8398	0.0015
541.0355	0.0103
541.2311	-0.008
541.4268	-0.0135
541.6224	-0.0069
541.818	0.001
542.0136	-0.005
542.2092	0.0011
542.4048	-0.0013
542.6003	0.0034
542.7959	0.0077
542.9914	-0.0022
543.1869	0.0072
543.3824	0.0005
543.5779	-0.0009
543.7734	-0.0019
543.9688	-0.0064
544.1642	0.0098
544.3596	0.0041
544.555	-0.0102
544.7504	0.0062
544.9458	-0.0091
545.1411	0.0035
545.3365	-0.0063
545.5318	-0.006
545.7271	0.0005
545.9224	-0.0007
546.1177	-0.002
546.3129	0.0028
546.5081	-0.004
546.7034	-0.008
546.8986	-0.0076
547.0938	-0.0077
547.289	0.0089
547.4841	-0.0004
547.6793	0.0063
547.8744	-0.0067
548.0695	0.0006
548.2646	-0.0063
548.4597	0.0044
548.6548	-0.0006
548.8498	0.0058
549.0448	0.0055
549.2399	0.0091
549.4349	0.0069
549.6298	-0.0023
549.8248	-0.0026
550.0198	0.0042
550.2147	-0.0037
550.4096	-0.0058
550.6045	-0.0017
550.7994	0.006
550.9943	0.0039
551.1892	0.0009
551.384	0.0069
551.5788	-0.0095
551.7737	0.0043
551.9685	0.0026
552.1632	0.0044
552.358	-0.0057
552.5528	-0.002
552.7475	0.0015
552.9422	0.0053
553.1369	0.0096
553.3316	0.0034
553.5263	-0.0035
553.7209	0.0039
553.9156	0.0007
554.1102	0.001
554.3048	-0.0038
554.4994	0.0096
554.694	-0.0006
554.8885	-0.003
555.0831	-0.0126
555.2776	-0.0088
555.4721	-0.0033
555.6666	-0.008
555.8611	0.0108
556.0555	-0.0056
556.25	-0.0034
556.4444	-0.0077
556.6388	-0.0004
556.8332	0.0015
557.0276	0.0001
557.222	-0.0066
557.4163	-0.0004
557.6107	-0.0081
557.805	0.0056
557.9993	-0.0086
558.1936	0.0033
558.3879	0.005
558.5821	0.0062
558.7764	-0.0024
558.9706	0.0048
559.1648	-0.0023
559.359	-0.0015
559.5532	-0.0074
559.7473	0.0041
559.9415	-0.0078
560.1356	-0.0025
560.3297	-0.0083
560.5238	-0.0056
560.7179	-0.0022
560.9119	-0.002
561.106	0.0005
561.3	-0.0012
561.494	0.0012
561.688	-0.0105
561.882	-0.0061
562.076	-0.0029
562.2699	0.0051
562.4639	0.0016
562.6578	0.0072
562.8517	0.0024
563.0456	0.0002
563.2395	0.0078
563.4333	-0.0001
563.6272	0.012
563.821	0.0024
564.0148	0.0039
564.2086	-0.0057
564.4024	-0.0033
564.5961	-0.0094
564.7899	0.0031
564.9836	0.0054
565.1773	-0.0026
565.371	0.0053
565.5647	0.0095
565.7584	0.0061
565.952	-0.0006
566.1456	0.0053
566.3393	0.0002
566.5329	-0.0073
566.7264	0.0031
566.92	-0.0085
567.1136	0.0003
567.3071	-0
567.5006	0.0071
567.6941	0.0088
567.8876	-0.0035
568.0811	-0.0063
568.2745	-0.002
568.468	0.0059
568.6614	-0.0023
568.8548	0.0005
569.0482	-0.0047
569.2416	0.0048
569.4349	0.003
569.6283	0.0022
569.8216	0.0017
570.0149	-0.0034
570.2082	0.0083
570.4015	0.0077
570.5947	0.0039
570.788	0.0027
570.9812	0.003
571.1744	0.0021
571.3676	-0.0085
571.5608	-0.0042
571.754	-0.0058
571.9471	0.0011
572.1402	-0.0012
572.3333	0.0027
572.5264	-0.0038
572.7195	-0.0047
572.9126	0.0065
573.1057	0.0005
573.2987	-0.0062
573.4917	0.0037
573.6847	-0.0099
573.8777	0.0071
574.0707	0.0049
574.2636	-0.0033
574.4566	-0.0067
574.6495	0.0105
574.8424	0.0002
575.0353	0.0044
575.2281	0.0075
575.421	0.0071
575.6138	0.0044
575.8067	0.0008
575.9995	0.0075
576.1923	0.0042
576.385	0.001
576.5778	-0.0048
576.7706	-0.0015
576.9633	0.002
577.156	0.0029
577.3487	-0.0025
577.5414	-0.0006
577.734	0.0014
577.9267	0.0055
578.1193	-0.007
578.3119	-0.0067
578.5045	-0.0032
578.6971	0.001
578.8897	0.0079
579.0822	0.0026
579.2747	-0.0023
579.4673	-0.0033
579.6598	-0.002
579.8522	-0.0035
580.0447	0.0024
580.2372	-0.0034
580.4296	-0.0009
580.622	0.0049
580.8144	0.001
581.0068	-0.0026
581.1992	-0.013
581.3915	-0.0025
581.5839	-0.0067
581.7762	-0.0054
581.9685	-0.0028
582.1608	0.0019
582.353	0.005
582.5453	0.0006
582.7375	-0.0033
582.9298	-0.0015
583.122	0.002
583.3142	-0.0019
583.5063	0.0036
583.6985	0.0007
583.8906	-0.0022
584.0827	-0.003
584.2749	0.0051
584.4669	0.0057
584.659	0.0086
584.8511	-0.0007
585.0431	0.0005
585.2352	0.0012
585.4272	0.0054
585.6192	0.0009
585.8111	-0.0053
586.0031	0.0036
586.195	0.0006
586.387	-0.0018
586.5789	0.0005
586.7708	0.0052
586.9627	-0.0005
587.1545	-0.0033
587.3464	0.002
587.5382	-0.0009
587.73	0.0071
587.9218	0.0028
588.1136	-0.0016
588.3053	0.0082
588.4971	-0.0017
588.6888	-0.0065
588.8805	0.0017
589.0722	0.0033
589.2639	0.0044
589.4556	0.0032
589.6472	0.0045
589.8389	-0.0025
590.0305	-0.0103
590.2221	0.0027
590.4137	-0.0079
590.6052	0.002
590.7968	-0.0002
590.9883	0.0013
591.1798	-0.0083
591.3713	-0.0095
591.5628	-0.001
591.7543	0.0056
591.9458	0.0003
592.1372	0.0104
592.3286	0.0089
592.52	0.0077
592.7114	-0.0045
592.9028	-0.0049
593.0941	0.0012
593.2855	0.0023
593.4768	-0.0046
593.6681	-0.0096
593.8594	0.0008
594.0506	0.0051
594.2419	0.0136
594.4331	0.0029
594.6244	0.0044
594.8156	-0.0088
595.0067	0.0069
595.1979	0.0057
595.3891	0.0091
595.5802	-0.0024
595.7713	0.0015
595.9624	-0.0024
596.1535	0.0055
596.3446	0.0036
596.5357	-0.0002
596.7267	0.0116
596.9177	0.0054
597.1087	-0.0077
597.2997	0.003
597.4907	0.0031
597.6817	0.0008
597.8726	0.0025
598.0635	-0.0043
598.2544	0.0001
598.4453	0.0017
598.6362	-0.0063
598.827	-0.0078
599.0179	-0.0019
599.2087	0.0021
599.3995	0.0008
599.5903	0.0101
599.7811	0.0013
599.9718	0.0008
600.1626	-0.0029
600.3533	-0.0024
600.544	-0.0019
600.7347	0.0047
600.9254	-0.0002
601.116	-0.0053
601.3067	-0.001
601.4973	-0.0058
601.6879	0.003
601.8785	-0.0058
602.0691	0.0047
602.2596	0
602.4502	0.0092
602.6407	0.0022
602.8312	0.0076
603.0217	-0.0069
603.2122	0.0006
603.4027	-0
603.5931	0.0083
603.7835	-0.002
603.9739	-0.0026
604.1643	-0.0028
604.3547	-0.0069
604.5451	0.0026
604.7354	-0.005
604.9257	0.0026
605.116	-0.0029
605.3063	0.0054
605.4966	-0.0039
605.6869	-0.0007
605.8771	0.0083
606.0673	0.0007
606.2575	0.0068
606.4477	0.0018
606.6379	0.0063
606.8281	0.0036
607.0182	-0.0015
607.2083	0.0156
607.3985	-0.0019
607.5885	0.0003
607.7786	0.0091
607.9687	-0.0047
608.1587	0.0066
608.3488	0.0048
608.5388	-0.0042
608.7288	-0.001
608.9187	-0.0028
609.1087	0.0005
609.2986	-0.0026
609.4886	0.0024
609.6785	0.0003
609.8684	0.0026
610.0582	0.001
610.2481	0.0054
610.4379	0.0073
610.6278	-0.0043
610.8176	0.002
611.0074	0.0051
611.1971	-0.0022
611.3869	0.0013
611.5766	-0.0054
611.7664	0.0118
611.9561	0.0148
612.1458	0.0002
612.3354	-0.0072
612.5251	0.0048
612.7147	0.0043
612.9044	0.0087
613.094	-0.0114
613.2836	0.0083
613.4731	0.0022
613.6627	-0.0086
613.8522	0.0052
614.0417	0.0073
614.2313	-0.0041
614.4207	-0.0039
614.6102	0.0011
614.7997	-0.0013
614.9891	0.0015
615.1785	0.0044
615.3679	-0
615.5573	0.0068
615.7467	-0.0003
615.9361	-0.0005
616.1254	0.0024
616.3147	0.0091
616.504	0.0012
616.6933	0.0112
616.8826	0.0038
617.0718	0.0038
617.2611	0.0025
617.4503	0.0018
617.6395	0.0003
617.8287	0.0005
618.0179	0.0044
618.207	0.0128
618.3961	0.0067
618.5853	0.0001
618.7744	0.0028
618.9634	0.0073
619.1525	0.0032
619.3416	0.0062
619.5306	0.0066
619.7196	-0.0001
619.9086	0.003
620.0976	0.0057
620.2866	0.0034
620.4755	0.007
620.6645	0.0015
620.8534	0.0049
621.0423	0.0049
621.2312	0.0107
621.42	0.0073
621.6089	-0.002
621.7977	0.006
621.9865	-0.0003
622.1753	0.0021
622.3641	0.0022
622.5529	0.0128
622.7416	0.0052
622.9303	0.0014
623.1191	0.0053
623.3078	0.0003
623.4964	0.007
623.6851	0.0044
623.8737	-0.0025
624.0624	0.0076
624.251	0.0027
624.4396	0.0037
624.6282	-0.0007
624.8167	0.0008
625.0053	0.0037
625.1938	0.0049
625.3823	-0.0001
625.5708	-0.0038
625.7593	0.0018
625.9477	-0.003
626.1362	0.0005
626.3246	-0.0011
626.513	0.0042
626.7014	0.0134
626.8898	0.0045
627.0781	0.0048
627.2665	0.0009
627.4548	0.0164
627.6431	0.009
627.8314	0.009
628.0197	0.008
628.2079	-0.0066
628.3962	-0.0025
628.5844	0.0066
628.7726	0.0046
628.9608	0.0021
629.1489	0.0028
629.3371	0.0084
629.5252	-0.0006
629.7134	0.011
629.9015	0.0054
630.0895	0.0051
630.2776	0.0117
630.4657	0.0036
630.6537	0.0074
630.8417	0.0021
631.0297	-0.0038
631.2177	0.007
631.4057	0.0026
631.5936	0.0058
631.7815	0.0142
631.9695	0.0045
632.1574	0.0148
632.3452	0.0193
632.5331	0.0075
632.7209	0.0087
632.9088	0.0126
633.0966	0.0144
633.2844	0.0001
633.4722	0.0072
633.6599	0.0132
633.8477	0.0061
634.0354	0.0078
634.2231	-0.0016
634.4108	0.0081
634.5985	0.0125
634.7861	0.0068
634.9738	0.0027
635.1614	0.0125
635.349	0.0078
635.5366	0.0014
635.7242	0.0056
635.9117	0.0073
636.0993	0.0012
636.2868	0.0057
636.4743	0.0048
636.6618	0.0159
636.8492	0.0092
637.0367	0.0072
637.2241	0.0071
637.4115	-0.0034
637.5989	0.0072
637.7863	0.003
637.9737	-0.0003
638.161	0.004
638.3484	0.006
638.5357	0.0051
638.723	0.0014
638.9103	0.0037
639.0975	0.0117
639.2848	0.0145
639.472	0.0058
639.6592	0.0099
639.8464	0.0122
640.0336	0.0097
640.2208	0.0024
640.4079	0
640.595	-0.0037
640.7821	-0.0028
640.9692	0.0062
641.1563	0.0047
641.3434	0.0131
641.5304	0.0029
641.7174	0.0008
641.9044	0.0085
642.0914	0.0118
642.2784	0.0102
642.4653	0.0113
642.6523	0.0038
642.8392	-0.0032
643.0261	0.0032
643.213	0.0071
643.3999	0.0029
643.5867	-0.0012
643.7735	0.0065
643.9604	0.0005
644.1472	0.0058
644.3339	0.0083
644.5207	0.0101
644.7075	0.0022
644.8942	0.0129
645.0809	0.0105
645.2676	0.0174
645.4543	0.007
645.6409	0.0083
645.8276	0.0025
646.0142	0.0104
646.2008	-0.0048
646.3874	0.0007
646.574	0.0022
646.7605	-0.0045
646.9471	-0.0048
647.1336	0.0005
647.3201	0.0055
647.5066	0.0002
647.6931	0.0016
647.8795	-0.0033
648.0659	0.0073
648.2524	0.0043
648.4388	-0.0016
648.6252	0.0006
648.8115	0.0037
648.9979	-0.0032
649.1842	-0.001
649.3705	0.003
649.5568	0.0089
649.7431	0.011
649.9294	-0.0013
650.1156	0.0073
650.3018	0.0001
650.488	0.0063
650.6742	0.0028
650.8604	0.0026
651.0466	-0.0028
651.2327	0.007
651.4188	0.0119
651.6049	0.0007
651.791	0.0009
651.9771	0.0031
652.1632	0.011
652.3492	0.0145
652.5352	0.0073
652.7212	0.0008
652.9072	0.0127
653.0932	0.0081
653.2791	-0.0025
653.465	0.0049
653.651	-0.0008
653.8369	0.0014
654.0227	0.0013
654.2086	0.0081
654.3944	0.0101
654.5803	0.0005
654.7661	0.0025
654.9519	0.0046
655.1377	0.0005
655.3234	0.0027
655.5092	-0.0024
655.6949	-0.008
655.8806	-0.0053
656.0663	-0.0017
656.2519	-0.0031
656.4376	-0.0033
656.6232	0.0066
656.8088	0.0013
656.9945	0.0039
657.18	0.0036
657.3656	0.0068
657.5511	0.0033
657.7367	-0.0018
657.9222	0.0078
658.1077	0.0003
658.2932	0.0034
658.4786	-0.0057
658.6641	-0.0026
658.8495	0.0035
659.0349	0.0005
659.2203	0.0063
659.4057	-0.0007
659.591	0.003
659.7764	0.0005
659.9617	-0.0004
660.147	0.0021
660.3323	0.007
660.5176	0.0143
660.7028	0.0097
660.888	0.0104
661.0733	0.0024
661.2585	0.0002
661.4436	0.0008
661.6288	-0.0034
661.8139	0.0036
661.9991	0.0048
662.1842	0.0047
662.3693	0.0031
662.5544	-0.0001
662.7394	0.0005
662.9245	-0.002
663.1095	-0.0026
663.2945	-0.005
663.4795	-0.0083
663.6644	0.0113
663.8494	0.0056
664.0343	0.0052
664.2193	-0.0037
664.4042	0.0037
664.589	-0.0027
664.7739	0.0058
664.9587	-0.0044
665.1436	0.0011
665.3284	0.0002
665.5132	-0.0089
665.698	0.0016
665.8827	0.0012
666.0675	0.0031
666.2522	-0.0018
666.4369	-0.0002
666.6216	0.0121
666.8063	-0.001
666.9909	0.0008
667.1756	0.001
667.3602	0.0035
667.5448	0.0071
667.7294	0.0102
667.9139	0.0093
668.0985	0.0157
668.283	0.0036
668.4675	0.0066
668.652	0.0095
668.8365	0.0029
669.0209	0.0127
669.2054	0.015
669.3898	0.0054
669.5742	0.0152
669.7586	0.0122
669.943	0.009
670.1273	0.0091
670.3117	0.0116
670.496	0.0112
670.6803	0.0216
670.8646	0.0132
671.0488	-0.0001
671.2331	0.0097
671.4173	0.0068
671.6015	-0.0014
671.7857	0.0048
671.9699	0.0071
672.1541	0.0064
672.3382	0.0029
672.5223	0.0087
672.7064	0.0023
672.8905	0.0037
673.0746	0.0033
673.2587	-0.0076
673.4427	0.0019
673.6267	0.005
673.8107	0.0078
673.9947	0.0059
674.1787	0.0062
674.3626	0.0003
674.5465	0.0116
674.7304	0.0104
674.9143	0.0096
675.0982	0.01
675.2821	0.0018
675.4659	0.0083
675.6497	0.0058
675.8335	0.0078
676.0173	0.001
676.2011	0.0019
676.3849	0.0067
676.5686	-0.0035
676.7523	0.0071
676.936	-0.0026
677.1197	-0.002
677.3034	-0.002
677.487	0.0058
677.6706	0.0019
677.8542	-0.0031
678.0378	0.0088
678.2214	0.0042
678.405	0.0071
678.5885	-0.0035
678.772	0.0028
678.9555	-0.0011
679.139	0.0001
679.3225	0.0002
679.5059	-0.0026
679.6894	-0.0011
679.8728	0.0048
680.0562	-0.004
680.2395	-0.0034
680.4229	0.0025
680.6062	0.0064
680.7896	0.0002
680.9729	-0.0084
681.1562	0.0038
681.3394	0.0012
681.5227	-0.0091
681.7059	-0.0069
681.8891	0.0063
682.0723	0.0135
682.2555	0.0074
682.4387	-0.0001
682.6218	-0.0003
682.805	0.0042
682.9881	0.0039
683.1712	-0.0012
683.3542	0.0001
683.5373	0.0068
683.7203	-0.0031
683.9034	0.0014
684.0864	0.0003
684.2694	0.0017
684.4523	0.0098
684.6353	0.0003
684.8182	0.0065
685.0011	-0.0036
685.184	0.007
685.3669	0.0034
685.5498	-0.0002
685.7326	-0.0033
685.9154	-0.004
686.0982	0.0117
686.281	0.0059
686.4638	0.0009
686.6465	-0.0015
686.8293	-0.0034
687.012	0.003
687.1947	-0.0022
687.3774	0.0049
687.56	-0.0028
687.7427	0.0097
687.9253	-0.0041
688.1079	0.001
688.2905	0.0089
688.4731	0.0034
688.6556	0.0053
688.8382	0.0005
689.0207	0.0029
689.2032	-0.0001
689.3857	-0.0041
689.5681	-0.003
689.7506	-0.0093
689.933	-0.0044
690.1154	0.001
690.2978	0.0007
690.4802	-0.0003
690.6626	-0.0167
690.8449	-0.0049
691.0272	0.0033
691.2095	-0.002
691.3918	-0.0077
691.5741	0.0006
691.7563	0.0011
691.9386	0.0031
692.1208	-0
692.303	0.0039
692.4852	-0.0004
692.6673	-0.0024
692.8495	-0.0014
693.0316	0.0058
693.2137	0.0021
693.3958	0.0122
693.5778	0.0079
693.7599	0.0116
693.9419	-0.0015
694.1239	0.0046
694.3059	-0.0006
694.4879	0.0121
694.6699	0.0123
694.8518	0.0054
695.0337	-0.0028
695.2157	0.0094
695.3975	0.0024
695.5794	0.0128
695.7613	0.0086
695.9431	0.0006
696.1249	0.0096
696.3067	0.0108
696.4885	0.0109
696.6703	-0.0033
696.852	0.0063
697.0337	0.0002
697.2154	-0.0004
697.3971	0.0116
697.5788	0.01
697.7605	0.0023
697.9421	0.0083
698.1237	0.004
698.3053	0.0041
698.4869	-0.0009
698.6685	-0.0053
698.85	-0.0003
699.0315	0.0094
699.213	0.0026
699.3945	0.0036
699.576	0.0084
699.7575	0.0021
699.9389	0.0095
700.1203	0.0069
700.3017	-0.0027
700.4831	-0.0008
700.6645	-0.0038
700.8458	0.0077
701.0271	-0.0019
701.2084	0.0085
701.3897	0.0038
701.571	0.0031
701.7523	0.0008
701.9335	0.0006
702.1147	0.0034
702.2959	-0.0003
702.4771	0.0049
702.6583	-0.0023
702.8394	0.0097
703.0205	0.0041
703.2016	-0.0041
703.3827	0.0045
703.5638	0.0041
703.7449	0.0018
703.9259	0.0128
704.1069	-0.0016
704.2879	0.0035
704.4689	0.0084
704.6499	0.0062
704.8308	-0.0047
705.0117	0.0053
705.1927	0.0023
705.3735	0.0027
705.5544	-0.004
705.7353	0.0046
705.9161	0.0043
706.0969	-0.008
706.2777	0.0052
706.4585	-0.0014
706.6393	0.0047
706.82	-0.0022
707.0007	0.0002
707.1815	0.0069
707.3621	0.003
707.5428	0.0023
707.7235	-0
707.9041	-0.0035
708.0847	-0.0139
708.2653	-0.0034
708.4459	-0.0142
708.6265	-0.0001
708.807	-0.0061
708.9875	-0.009
709.168	-0.002
709.3485	-0.0113
709.529	-0.0027
709.7095	-0.0068
709.8899	-0.0005
710.0703	-0.013
710.2507	-0.0011
710.4311	-0.0001
710.6115	-0.0095
710.7918	-0.0098
710.9721	0.0044
711.1524	-0.0033
711.3327	0.0054
711.513	-0.0004
711.6932	0.0016
711.8735	0.0096
712.0537	0.0031
712.2339	-0.0005
712.4141	-0.0074
712.5942	-0.0069
712.7744	-0.0027
712.9545	-0.0062
713.1346	-0.0049
713.3147	-0.0044
713.4947	-0.0048
713.6748	0.0001
713.8548	-0.0004
714.0348	0.002
714.2148	-0.0016
714.3948	0.0078
714.5748	-0.0015
714.7547	0.0025
714.9346	0.0073
715.1145	0.0023
715.2944	-0.0061
715.4743	0.0013
715.6541	-0.0004
715.834	0.0017
716.0138	-0.0053
716.1936	-0.0065
716.3733	-0.0069
716.5531	0.007
716.7328	-0.0046
716.9126	-0.0048
717.0923	-0.0002
717.2719	0.0013
717.4516	0.0002
717.6312	-0.0027
717.8109	-0.0012
717.9905	0.0043
718.1701	-0.0005
718.3496	-0.0036
718.5292	-0.0005
718.7087	-0.0028
718.8882	-0.0015
719.0677	0.0035
719.2472	-0.0021
719.4267	0.0048
719.6061	0.0022
719.7856	0.0038
719.965	0.007
720.1443	-0.0042
720.3237	0.0137
720.5031	-0.0049
720.6824	0.0051
720.8617	0.0047
721.041	0.0015
721.2203	0.0067
721.3995	0.006
721.5788	0.0018
721.758	0.0082
721.9372	-0.0037
722.1164	-0.0006
722.2956	0.0162
722.4747	-0.0017
722.6538	-0.0009
722.8329	0.0101
723.012	0.0018
723.1911	-0.0053
723.3702	0.0045
723.5492	0.0029
723.7282	-0.0089
723.9072	0.0036
724.0862	-0.0016
724.2652	0.0015
724.4441	0.0043
724.623	0.0062
724.8019	-0.0016
724.9808	-0.0017
725.1597	-0.0154
725.3385	0.0038
725.5174	0.0082
725.6962	0.0032
725.875	0.0076
726.0538	0.0059
726.2325	0.0047
726.4112	0.0035
726.59	0.0034
726.7687	-0.0081
726.9474	0.0028
727.126	0.0053
727.3047	-0.0012
727.4833	-0.0027
727.6619	-0.0069
727.8405	-0.004
728.0191	-0.0014
728.1976	0.0085
728.3762	0.0039
728.5547	0.0024
728.7332	-0.0017
728.9116	-0.0009
729.0901	0.0082
729.2686	-0.0044
729.447	0.0045
729.6254	0.006
729.8038	0.0063
729.9821	-0.0108
730.1605	0.0042
730.3388	-0.0003
730.5171	0.012
730.6954	0.0007
730.8737	0.0067
731.0519	0.0124
731.2302	0.0061
731.4084	0.0167
731.5866	0.0149
731.7648	-0.0023
731.9429	0.0008
732.1211	-0.0033
732.2992	-0.0054
732.4773	-0.0041
732.6554	-0.0011
732.8335	-0.0008
733.0115	0.0073
733.1896	0.006
733.3676	-0.0059
733.5456	0.005
733.7235	0.0099
733.9015	-0.0009
734.0794	-0.0033
734.2574	0.0004
734.4353	0.0034
734.6131	0.0068
734.791	0.0134
734.9689	0.0018
735.1467	0.0013
735.3245	-0.006
735.5023	-0.0038
735.68	-0.0001
735.8578	0.0035
736.0355	-0.0122
736.2132	-0.0017
736.3909	0.002
736.5686	-0.0103
736.7463	-0.004
736.9239	-0.0021
737.1015	-0.0067
737.2791	0.01
737.4567	0.004
737.6343	-0.0013
737.8118	0.0086
737.9894	0.0117
738.1669	0.0003
738.3444	0.0025
738.5218	0.009
738.6993	0.0062
738.8767	0.0013
739.0541	0.008
739.2315	-0.0198
739.4089	-0.0031
739.5863	0.006
739.7636	-0.0016
739.9409	-0.0048
740.1182	0.006
740.2955	0.0099
740.4728	-0.0081
740.65	0.0036
740.8272	-0.0004
741.0044	-0.0119
741.1816	0.0028
741.3588	0.0057
741.5359	0.0058
741.7131	-0.0005
741.8902	0.0019
742.0673	0.005
742.2444	-0.0012
742.4214	-0.0109
742.5985	-0.0009
742.7755	-0.0025
742.9525	-0.0104
743.1295	-0.0024
743.3064	0.0042
743.4834	0.0099
743.6603	0.0073
743.8372	0.006
744.0141	0.0128
744.191	0.0124
744.3678	0.0019
744.5446	0.0034
744.7215	0.0017
744.8982	-0.0042
745.075	-0.0085
745.2518	0.0079
745.4285	0.0063
745.6052	0.0028
745.7819	-0.003
745.9586	-0.0015
746.1353	0.0032
746.3119	-0.0048
746.4885	-0.0046
746.6651	-0.0025
746.8417	-0.0032
747.0183	-0.0016
747.1948	-0.0031
747.3714	0.0063
747.5479	0.0069
747.7244	0.0046
747.9008	0.0123
748.0773	0.002
748.2537	0.004
748.4301	-0.009
748.6065	0.0065
748.7829	0.0043
748.9593	0.0037
749.1356	0.0069
749.3119	0.0089
749.4882	-0.0108
749.6645	0.0026
749.8408	-0.0054
750.017	-0.0033
750.1933	-0.0021
750.3695	-0.0077
750.5457	0.0054
750.7218	-0.0056
750.898	0.0018
751.0741	-0.0013
751.2502	0.0026
751.4263	0.0022
751.6024	-0.0029
751.7784	0.0015
751.9545	-0.0022
752.1305	0.0015
752.3065	-0.0032
752.4825	0.0071
752.6584	-0.0144
752.8344	-0.008
753.0103	-0.0053
753.1862	-0.004
753.3621	-0.0107
753.5379	-0.012
753.7138	0.0035
753.8896	0.0046
754.0654	0.0044
754.2412	0.0167
754.417	0.0089
754.5927	0.0055
754.7685	0.0017
754.9442	0.006
755.1199	0.008
755.2956	0.0012
755.4712	0.0137
755.6469	0.0016
755.8225	0.0014
755.9981	0.0052
756.1736	0.0078
756.3492	0.0025
756.5248	-0.0025
756.7003	0.0083
756.8758	0.0154
757.0513	-0.0051
757.2267	-0.0017
757.4022	-0.0028
757.5776	-0.0096
757.753	0.0075
757.9284	0.0002
758.1038	0.0103
758.2791	0.0097
758.4545	-0.0046
758.6298	-0.0028
758.8051	-0.0053
758.9803	-0.0017
759.1556	0.0005
759.3308	-0.0021
759.506	0.0061
759.6812	0.0135
759.8564	0.0199
760.0316	-0.0007
760.2067	0.0123
760.3819	0.0032
760.557	0.0181
760.732	0.0033
760.9071	0.0002
761.0821	0.0102
761.2572	0.0197
761.4322	0.0057
761.6072	0.0073
761.7821	0.0031
761.9571	0.0108
762.132	0.0014
762.3069	-0.0027
762.4818	-0.0038
762.6567	-0.0018
762.8316	0.0062
763.0064	0.0019
763.1812	-0.0017
763.356	-0.0075
763.5308	-0.004
763.7055	-0.0059
763.8803	0.0008
764.055	-0.0071
764.2297	0.0038
764.4044	-0.0117
764.579	-0.0172
764.7537	-0.0146
764.9283	0.0065
765.1029	-0.0006
765.2775	-0.0163
765.4521	-0.0003
765.6266	-0.0016
765.8011	0.0032
765.9756	0.0042
766.1501	0.0081
766.3246	0.0012
766.4991	0.0058
766.6735	0.0061
766.8479	-0.0071
767.0223	0.0016
767.1967	0.0015
767.371	0.009
767.5454	0.0044
767.7197	0.0051
767.894	-0.0088
768.0683	-0.0093
768.2425	0.0097
768.4168	0.0059
768.591	0.0066
768.7652	0.0024
768.9394	0.0011
769.1135	0.0038
769.2877	0.0046
769.4618	-0.0034
769.6359	0.0002
769.81	0.0057
769.984	-0.0003
770.1581	-0.0036
770.3321	-0.0026
770.5061	0.013
770.6801	-0.015
770.8541	0.0024
771.028	-0.0089
771.202	-0.0192
771.3759	0.0005
771.5498	-0.0081
771.7236	0.0058
771.8975	-0.0002
772.0713	0.0043
772.2451	0.0002
772.4189	0.0097
772.5927	0.0111
772.7665	-0.0007
772.9402	0.0054
773.1139	-0.0047
773.2876	-0.0123
773.4613	0.012
773.635	0.0192
773.8086	0.0013
773.9822	0.0103
774.1558	0.01
774.3294	-0.0203
774.503	-0.0008
774.6765	0.0078
774.8501	0.0065
775.0236	0.0114
775.1971	0.0113
775.3705	-0.0124
775.544	0.0076
775.7174	-0.0058
775.8908	0.0015
776.0642	-0.0066
776.2376	0.0055
776.4109	-0.0065
776.5843	0.0079
776.7576	0.0088
776.9309	0.007
777.1041	0.0088
777.2774	-0.0005
777.4506	-0.0124
777.6238	-0.0058
777.797	-0.0004
777.9702	-0.0081
778.1434	0.0036
778.3165	-0.0171
778.4896	-0.0055
778.6627	0.007
778.8358	0.0018
779.0089	-0.0032
779.1819	-0.0088
779.3549	0.0149
779.5279	0.0108
779.7009	-0.0085
779.8739	-0.0045
780.0468	0.005
780.2197	0.0062
780.3926	-0.0021
780.5655	-0.004
780.7384	0.0032
780.9112	0.0021
781.0841	0.0011
781.2569	0.0019
781.4297	0.0069
781.6024	0.017
781.7752	0.0127
781.9479	0.0096
782.1206	0.0007
782.2933	-0
782.466	0.0095
782.6386	0.005
782.8113	-0.0004
782.9839	0.0106
783.1565	0.0125
783.329	0.0075
783.5016	0.0131
783.6741	-0
783.8466	-0.0041
784.0191	0.0017
784.1916	-0.0114
784.3641	0.0021
784.5365	-0.0148
784.7089	-0.0072
784.8813	-0.0117
785.0537	-0.0159
785.2261	-0.0142
785.3984	-0.0135
785.5707	-0.0088
785.743	0.0013
785.9153	-0.009
786.0876	0.0045
786.2598	-0.0056
786.432	-0.0153
786.6042	-0.0083
786.7764	-0.0135
786.9486	0.0037
787.1207	-0.0198
787.2928	0.0092
787.4649	0.0157
787.637	-0.0022
787.8091	-0.0091
787.9811	-0.0014
788.1532	0.0021
788.3252	0.0098
788.4972	-0.0079
788.6691	0.0074
788.8411	-0.0025
789.013	-0.0186
789.1849	-0.0018
789.3568	0.0063
789.5287	-0.0066
789.7005	-0.0052
789.8723	-0.0018
790.0442	0.0116
790.2159	0.01
790.3877	0.0117
790.5595	-0.0056
790.7312	0.0104
790.9029	-0.0177
791.0746	-0.0119
791.2463	-0.0104
791.4179	-0.0091
791.5896	-0.016
791.7612	0.005
791.9328	0.0086
792.1044	-0.0147
792.2759	-0.0218
792.4474	-0.0065
792.619	0.0029
792.7905	0.0075
792.9619	-0.0044
793.1334	0.0086
793.3048	0.0076
793.4762	0.01
793.6476	-0.0132
793.819	-0.0054
793.9904	0.0145
794.1617	-0.0114
794.333	0.0016
794.5043	-0.014
794.6756	-0.0037
794.8469	-0.007
795.0181	-0.0116
795.1893	-0.0015
795.3605	0.0031
795.5317	0.0027
795.7029	-0.0183
795.874	-0.0071
796.0452	-0.0099
796.2163	-0.0042
796.3873	0.0066
796.5584	0.0025
796.7294	-0.0051
796.9005	0.0072
797.0715	-0.0097
797.2425	-0.0182
797.4134	-0.0078
797.5844	-0.0054
797.7553	-0.0043
797.9262	-0.0011
798.0971	-0.021
798.2679	-0.0002
798.4388	-0.012
798.6096	-0.004
798.7804	-0.0058
798.9512	0.0052
799.122	0.0127
799.2927	0.0054
799.4635	0.0096
799.6342	-0.0188
799.8049	-0.0058
799.9755	-0.0119
800.1462	0.0117
800.3168	0.0047
800.4874	0.0092
800.658	0.0255
800.8286	0.0035
800.9991	0.0031
801.1696	0.0103
801.3402	0.0144
801.5106	-0.0004
801.6811	0.0054
801.8516	0.0289
802.022	-0.0053
802.1924	0.0047
802.3628	0.0117
802.5332	0.0103
802.7035	0.0253
802.8739	0.0062
803.0442	-0.0083
803.2145	0.01
803.3847	-0.0194
803.555	-0.0038
803.7252	0.0033
803.8954	0.0024
804.0656	-0.0084
804.2358	-0.0086
804.4059	0.0104
804.5761	0.0039
804.7462	0.0082
804.9163	0.0099
805.0864	-0.0027
805.2564	-0.004
805.4264	0.0015
805.5965	-0.0132
805.7665	0.0069
805.9364	0.0104
806.1064	0.0108
806.2763	-0.0034
806.4462	0.0202
806.6161	0.0065
806.786	0.0139
806.9559	-0.0052
807.1257	0.0185
807.2955	0.0131
807.4653	-0.0016
807.6351	-0.0042
807.8048	-0.0065
807.9746	0.0112
808.1443	0.0041
808.314	0.001
808.4837	0.0215
808.6533	0.0057
808.8229	0.032
808.9926	0.019
809.1622	-0.001
809.3317	0.003
809.5013	-0.0104
809.6708	0.0027
809.8403	0.0153
810.0098	0.0031
810.1793	0
810.3488	0.0068
810.5182	-0.0167
810.6876	0.0013
810.857	-0.0147
811.0264	0.0306
811.1958	0.0221
811.3651	0.0053
811.5344	0.0019
811.7037	-0.0134
811.873	-0.0272
812.0422	-0.0063
812.2115	0.0022
812.3807	0.0121
812.5499	0.0005
812.7191	0.0049
812.8882	0
813.0574	-0.0157
813.2265	0.0063
813.3956	-0.0008
813.5646	0.0008
813.7337	0.0006
813.9027	0.0041
814.0718	0.0195
814.2407	0.0112
814.4097	-0.0107
814.5787	-0.0118
814.7476	-0.0042
814.9165	-0.0019
815.0854	0.0024
815.2543	-0.0077
815.4232	-0.0012
815.592	0.0129
815.7608	0.016
815.9296	-0
816.0984	0.0041
816.2671	0.0114
816.4359	0.0191
816.6046	0.0159
816.7733	-0.0049
816.942	-0.0034
817.1106	-0.0074
817.2793	0.0111
817.4479	0.0178
817.6165	0.0012
817.785	0.0041
817.9536	0.0049
818.1221	-0.0064
818.2906	0.0133
818.4591	0.0053
818.6276	-0.0013
818.7961	0.0043
818.9645	0.0067
819.1329	0.0159
819.3013	0.0027
819.4697	0.0182
819.638	-0.0122
819.8064	0.0117
819.9747	0.0276
820.143	-0.0078
820.3113	0.0073
820.4795	0.0092
820.6477	0.0143
820.816	0.0153
820.9842	0.0076
821.1523	0.0043
821.3205	0.0046
821.4886	0.0029
821.6567	-0.0057
821.8248	0.0286
821.9929	0.0133
822.1609	-0.0166
822.329	0.0101
822.497	0.0253
822.665	0.0096
822.833	-0.0141
823.0009	0.0172
823.1688	0.0106
823.3367	0.0355
823.5046	-0.0068
823.6725	0.0277
823.8404	0.0251
824.0082	0.035
824.176	0.0189
824.3438	0.0233
824.5116	-0.0046
824.6793	0.0215
824.847	0.0004
825.0147	-0.0273
825.1824	0.0045
825.3501	0.0177
825.5177	-0.0254
825.6854	0.0043
825.853	0.0106
826.0206	0.0152
826.1881	0.0248
826.3557	-0.0385
826.5232	0.0074
826.6907	-0.0375
826.8582	-0.0107
827.0257	-0.0198
827.1931	-0.0014
827.3605	-0.0013
827.528	0.0363
827.6953	-0.0072
827.8627	-0.0009
828.03	0.0165
828.1974	-0.0206
828.3647	-0.0211
828.532	-0.0277
828.6992	-0.016
828.8665	0.0225
829.0337	-0.0446
829.2009	0.0076
829.3681	0.0301
829.5352	0.0071
829.7024	0.0081
829.8695	-0.0457
830.0366	0.0439
830.2037	-0.0005
830.3707	0.027
830.5378	0.0125
830.7048	0.0218
830.8718	-0.0253
831.0388	-0.0305
831.2057	0.007
831.3727	0.0409
831.5396	-0.014
831.7065	-0
831.8734	0.0071
832.0402	-0.0254
832.2071	0.0202
832.3739	-0
832.5407	0.0146
832.7075	-0.0129
832.8742	-0.0085
833.041	-0.0176
833.2077	-0.0061
833.3744	0.023
833.541	-0.0006
833.7077	-0.0141
833.8743	-0
834.0409	0.0043
834.2075	-0.0119
834.3741	-0.0049
834.5407	0.0083
834.7072	0.0181
834.8737	-0.0169
835.0402	-0.0342
835.2067	0.0217
835.3731	0.028
835.5395	0
835.706	-0.0171
835.8723	-0.0007
836.0387	0.0116
836.2051	-0.0137
836.3714	-0
836.5377	0.0069
836.704	-0.0216
836.8703	-0.0129
837.0365	-0.0364
837.2027	-0.003
837.3689	0.0164
837.5351	-0.0074
837.7013	-0.0167
837.8674	0.0071
838.0335	-0.0034
838.1997	-0.0144
838.3657	0.0026
838.5318	-0.0157
838.6978	0.036
838.8639	0.0453
839.0299	-0.0371
839.1958	-0.0116
839.3618	0.0026
839.5277	0.0052
839.6937	-0.0041
839.8596	-0.0584
840.0254	0.0126
840.1913	0.0317
840.3571	0.028
840.523	0.0193
840.6888	-0.0342
840.8545	-0.0482
841.0203	-0.0337
841.186	-0.0118
841.3517	0.0296
841.5174	0.0187
841.6831	-0.0309
841.8488	-0.0089
842.0144	-0.0117
842.18	0.0126
842.3456	0.0133
842.5112	-0.036
842.6767	-0.0294
842.8422	-0.0379
843.0077	-0.0132
843.1732	-0.0126
843.3387	-0.0513
843.5042	-0.0422
843.6696	-0.0403
843.835	-0.0107
844.0004	0.0199
844.1657	-0.0328
844.3311	-0.009
844.4964	-0.0679
844.6617	-0.0033
844.827	-0
844.9923	-0.0547
845.1575	-0.0012
845.3227	-0.0603
845.4879	0.0255
845.6531	-0.0132
845.8183	-0.0256
845.9834	0.0257
846.1485	-0.0665
846.3136	-0.0353
846.4787	-0.1058
846.6438	0.0399
846.8088	-0.0475
846.9738	-0.083
847.1388	-0.0233
847.3038	-0.0119
847.4687	-0.1396
847.6337	-0.0324
847.7986	-0.0295
847.9635	0.0227
848.1284	0.0908
848.2932	0.0141
848.458	-0.0118
848.6228	0.0674
848.7876	0.0602
848.9524	-0.1401
849.1172	-0.0926
849.2819	0.0127
849.4466	-0.1061
849.6113	-0.1491
849.7759	-0.0234
849.9406	-0.0502
850.1052	0.0278
850.2698	-0.0112
850.4344	-0.0739
850.599	-0.0423
850.7635	0.1313
850.928	-0.11
851.0925	0.0257
851.257	0.0428
851.4215	0.0809
851.5859	-0.0817
851.7503	0.0697
851.9147	0.0202
852.0791	-0.0823
852.2434	0.0096
852.4078	0.0547
852.5721	0.0952
852.7364	-0.0352
852.9007	-0.193
853.0649	0.0588
853.2291	-0.0123
853.3934	0.0165
853.5575	0.018
853.7217	-0.1093
853.8859	-0.1786
854.05	-0.0499
854.2141	-0.0782
854.3782	-0.094
854.5423	-0.1116
854.7063	0.0924
854.8703	0.0405
855.0343	-0.0981
855.1983	-0.1066
855.3623	0.0814
855.5262	-0.0082
855.6901	-0.0167
855.854	0.019
856.0179	0.0345
856.1818	0.1012
856.3456	-0.1455
856.5094	-0.1338
856.6732	-0.0985
856.837	-0.0705
857.0008	0.0476
857.1645	-0.0647
857.3282	-0.089
857.4919	0.0297
857.6556	-0.0428
857.8192	0.0133
857.9828	-0.0084
858.1465	-0.0685
858.31	-0.0399
858.4736	0.0565
858.6372	-0.4047
858.8007	-0.1335
858.9642	0.1201
859.1277	0.1698
859.2911	0.1216
859.4546	-0
859.618	-0.3003
859.7814	-0.0261
859.9448	-0.0791
860.1081	-0.1758
860.2715	0.0375
860.4348	-0.0354
860.5981	-0.1565
860.7614	0.0127
860.9246	-0.138
861.0879	-0.0547
861.2511	-0.0239
861.4143	-0.3639
861.5774	0.1212
861.7406	-0.2672
861.9037	-0.0453
862.0668	0.1995
862.2299	-0.1081
862.393	-0.5705
862.556	-0.1969
862.7191	-0.3601
862.8821	-0.281
863.0451	-0.0565
863.208	-0.1646
863.371	0.1802
863.5339	-0.3537
863.6968	0.0254
863.8597	-0.1678
864.0225	-0
864.1854	-0
864.3482	-0.1421
864.511	0.296
864.6737	0.0341
864.8365	-0
864.9992	-0.347
865.1619	-0.4104
865.3246	-0.1848
865.4873	0.0992
865.65	0.4426
865.8126	0.0243
865.9752	-0.0745
866.1378	-0.0234
866.3004	0.0759
866.4629	0.1876
866.6254	0.6521
866.7879	-0
866.9504	-0.1831
867.1129	-0
867.2753	0.1199
867.4377	-0.0043
867.6001	-0.1121
867.7625	0.3758
867.9249	-0.5377
868.0872	-0.1519
868.2495	0.2334
868.4118	-0.3438
868.5741	0.7494
868.7363	0.0309
868.8986	0.9235
869.0608	-0.1674
869.223	0.1909
869.3851	0.8115
869.5473	0.0642
869.7094	0.271
869.8715	-0.4222
870.0336	-0.9427
870.1957	-0.7933
870.3577	-0
870.5197	0.7884
870.6817	-0.168
870.8437	-0.2435
871.0057	-0.375
871.1676	-0.7345
871.3295	-0.5548
871.4914	-0.2097
871.6533	-0.394
871.8151	-0.5251
871.977	-0
872.1388	-0
872.3006	-0
872.4623	0.9363
872.6241	-0
872.7858	0.2727
872.9475	0.4355
873.1092	0.259
873.2709	-0.2249
873.4325	0.3949
873.5941	-0.0372
873.7557	0.3085
873.9173	-0.381
874.0789	-0.3861
874.2404	-0
874.4019	-0.0612
874.5634	-0.4117
874.7249	-0.0268
874.8863	0.2281
875.0478	-0
875.2092	-0
875.3706	0.2802
875.5319	-0.7045
875.6933	-0.0365
875.8546	-0.4091
876.0159	-0
876.1772	0.2337
876.3385	-0
876.4997	0.2484
876.6609	-0.1603
876.8221	-0
876.9833	0.9707
877.1445	-0
877.3056	0.0503
877.4667	1.1677
877.6278	-0
877.7889	-0.4027
877.9499	-0
878.111	0.2126
878.272	-0
878.433	-0
878.5939	0.2378
878.7549	0.5104
878.9158	-0.8685
879.0767	-0
879.2376	-0
879.3984	-0
879.5593	-0
879.7201	-0.106
879.8809	0.1519
880.0417	0.8451
880.2024	-0.1366
880.3632	-0.9899
880.5239	0.1062
880.6846	-0
880.8452	-2.4786
881.0059	-1.6902
881.1665	-0.0236
881.3271	-0.1421
881.4877	0.1519
881.6483	-0.5449
881.8088	-0.416
881.9693	-0
882.1298	-0
882.2903	-0
