Data from MonoPyChalIsomerACN10uM440nmA_Absorbance_15-27-11-394.txt Node
Date: Fri Jul 05 15:27:11 BST 2024
User: LASERRRRR
Spectrometer: FLMT03099
Trigger mode: 0
Integration Time (sec): 1.000000E-1
Scans to average: 1
Electric dark correction enabled: true
Nonlinearity correction enabled: false
Boxcar width: 0
XAxis mode: Wavelengths
Number of Pixels in Spectrum: 3648
>>>>>Begin Spectral Data<<<<<
179.3399	-0.2032
179.5586	-0.2032
179.7771	-0.2032
179.9957	-0.006
180.2143	0.5965
180.4329	0.0073
180.6514	0.1931
180.8699	-0
181.0885	0.0086
181.307	0.5206
181.5255	-0.3287
181.744	-0
181.9625	-0
182.181	-0.6532
182.3994	0.6614
182.6179	-0.1069
182.8363	0.3185
183.0547	-0.2231
183.2732	0.0266
183.4916	0.1422
183.71	0.0787
183.9284	0.3403
184.1467	-0.1633
184.3651	-0.0766
184.5835	-0.0953
184.8018	-0.1704
185.0201	0.1887
185.2385	-0.008
185.4568	0.167
185.6751	0.1971
185.8934	0.581
186.1117	-0.0547
186.3299	0.1042
186.5482	0.3085
186.7664	-0.0519
186.9847	0.0065
187.2029	0.1126
187.4211	0.089
187.6393	0.5977
187.8575	-0.0374
188.0757	0.5258
188.2939	-0.0095
188.512	0.3402
188.7302	-0.1416
188.9483	0.0952
189.1665	-0.0197
189.3846	-0.3282
189.6027	0.1938
189.8208	0.0304
190.0389	0.2111
190.257	0.1531
190.475	0.1829
190.6931	0.3441
190.9111	0.4627
191.1292	0.1707
191.3472	0.4869
191.5652	0.4146
191.7832	0.2035
192.0012	0.4878
192.2192	0.4685
192.4371	0.5987
192.6551	0.479
192.873	0.4625
193.091	0.5188
193.3089	0.7309
193.5268	0.6496
193.7447	0.5517
193.9626	0.61
194.1805	0.6066
194.3984	0.8159
194.6162	0.4042
194.8341	0.6023
195.0519	0.4883
195.2697	0.6881
195.4875	0.6831
195.7054	0.6054
195.9231	0.4916
196.1409	0.6353
196.3587	0.4906
196.5765	0.7742
196.7942	0.6683
197.012	0.4816
197.2297	0.6286
197.4474	0.6582
197.6651	0.6503
197.8828	0.6592
198.1005	0.5383
198.3182	0.6056
198.5358	0.8488
198.7535	0.5884
198.9711	0.5988
199.1888	0.6576
199.4064	0.7209
199.624	0.559
199.8416	0.6116
200.0592	0.6753
200.2767	0.8017
200.4943	0.6363
200.7119	0.7318
200.9294	0.6986
201.1469	0.6109
201.3645	0.5993
201.582	0.5517
201.7995	0.659
202.017	0.8457
202.2344	0.6725
202.4519	0.7177
202.6694	0.7094
202.8868	0.575
203.1042	0.7323
203.3217	0.6425
203.5391	0.6506
203.7565	0.6021
203.9739	0.7431
204.1913	0.5525
204.4086	0.7259
204.626	0.7448
204.8433	0.5953
205.0607	0.6843
205.278	0.6967
205.4953	0.6406
205.7126	0.6563
205.9299	0.785
206.1472	0.6806
206.3644	0.7206
206.5817	0.6809
206.7989	0.7204
207.0162	0.698
207.2334	0.7032
207.4506	0.6547
207.6678	0.6278
207.885	0.7228
208.1022	0.685
208.3194	0.6554
208.5365	0.6711
208.7537	0.6673
208.9708	0.6335
209.1879	0.6393
209.405	0.7129
209.6222	0.6925
209.8392	0.6648
210.0563	0.6949
210.2734	0.6477
210.4905	0.6439
210.7075	0.6084
210.9245	0.6085
211.1416	0.6644
211.3586	0.5924
211.5756	0.6096
211.7926	0.6161
212.0096	0.6106
212.2265	0.5736
212.4435	0.6153
212.6604	0.6242
212.8774	0.6036
213.0943	0.5991
213.3112	0.6048
213.5281	0.5506
213.745	0.525
213.9619	0.5667
214.1788	0.4685
214.3956	0.4612
214.6125	0.4931
214.8293	0.4123
215.0461	0.492
215.2629	0.4681
215.4798	0.4914
215.6965	0.4389
215.9133	0.4521
216.1301	0.438
216.3469	0.4507
216.5636	0.4408
216.7803	0.4067
216.9971	0.4632
217.2138	0.3929
217.4305	0.3808
217.6472	0.3569
217.8639	0.3891
218.0805	0.3282
218.2972	0.3263
218.5138	0.326
218.7305	0.3204
218.9471	0.3189
219.1637	0.3069
219.3803	0.2897
219.5969	0.2676
219.8135	0.2619
220.0301	0.2754
220.2466	0.2945
220.4632	0.2577
220.6797	0.223
220.8962	0.2324
221.1127	0.2608
221.3292	0.2353
221.5457	0.2626
221.7622	0.227
221.9787	0.2417
222.1951	0.2415
222.4116	0.2337
222.628	0.2413
222.8444	0.2488
223.0608	0.242
223.2772	0.2328
223.4936	0.259
223.71	0.246
223.9264	0.2426
224.1427	0.2441
224.3591	0.2473
224.5754	0.2574
224.7917	0.2769
225.008	0.2782
225.2243	0.2404
225.4406	0.2851
225.6569	0.2617
225.8732	0.2864
226.0894	0.246
226.3057	0.2635
226.5219	0.2975
226.7381	0.2781
226.9543	0.2918
227.1705	0.2811
227.3867	0.2755
227.6029	0.2866
227.8191	0.294
228.0352	0.3088
228.2513	0.3398
228.4675	0.3051
228.6836	0.2942
228.8997	0.2953
229.1158	0.3151
229.3319	0.3087
229.548	0.3065
229.764	0.3073
229.9801	0.3215
230.1961	0.3156
230.4121	0.3359
230.6282	0.3411
230.8442	0.3136
231.0602	0.3545
231.2761	0.3357
231.4921	0.3369
231.7081	0.336
231.924	0.3469
232.14	0.384
232.3559	0.3598
232.5718	0.3743
232.7877	0.35
233.0036	0.3412
233.2195	0.3579
233.4353	0.3603
233.6512	0.3562
233.867	0.3662
234.0829	0.3446
234.2987	0.3608
234.5145	0.3716
234.7303	0.3705
234.9461	0.3879
235.1619	0.3776
235.3776	0.3749
235.5934	0.3745
235.8091	0.3664
236.0249	0.3944
236.2406	0.3662
236.4563	0.4033
236.672	0.4064
236.8877	0.3897
237.1034	0.3817
237.319	0.4036
237.5347	0.4109
237.7503	0.399
237.966	0.4164
238.1816	0.4143
238.3972	0.4183
238.6128	0.3974
238.8284	0.3925
239.0439	0.413
239.2595	0.3969
239.475	0.4183
239.6906	0.4156
239.9061	0.3968
240.1216	0.3951
240.3371	0.4005
240.5526	0.3875
240.7681	0.4112
240.9836	0.4
241.199	0.3913
241.4145	0.3798
241.6299	0.3723
241.8453	0.3766
242.0607	0.3875
242.2761	0.3654
242.4915	0.3411
242.7069	0.3588
242.9223	0.3391
243.1376	0.346
243.353	0.3469
243.5683	0.3549
243.7836	0.3234
243.9989	0.327
244.2142	0.2972
244.4295	0.2998
244.6448	0.3169
244.86	0.2974
245.0753	0.2764
245.2905	0.281
245.5057	0.2655
245.721	0.2655
245.9362	0.2601
246.1514	0.2663
246.3665	0.2416
246.5817	0.2582
246.7969	0.2408
247.012	0.2343
247.2271	0.231
247.4423	0.2423
247.6574	0.2334
247.8725	0.2263
248.0876	0.2185
248.3026	0.2254
248.5177	0.2149
248.7328	0.2072
248.9478	0.2016
249.1628	0.1973
249.3779	0.2115
249.5929	0.1822
249.8079	0.2103
250.0228	0.1963
250.2378	0.1988
250.4528	0.1912
250.6677	0.1816
250.8827	0.18
251.0976	0.1915
251.3125	0.179
251.5274	0.1687
251.7423	0.1792
251.9572	0.182
252.172	0.1744
252.3869	0.1808
252.6017	0.1823
252.8166	0.1596
253.0314	0.1738
253.2462	0.1646
253.461	0.179
253.6758	0.1637
253.8906	0.174
254.1053	0.1645
254.3201	0.1561
254.5348	0.1704
254.7496	0.1681
254.9643	0.1652
255.179	0.168
255.3937	0.1694
255.6083	0.1648
255.823	0.168
256.0377	0.1653
256.2523	0.1821
256.467	0.1569
256.6816	0.1714
256.8962	0.1757
257.1108	0.1445
257.3254	0.1698
257.54	0.1537
257.7545	0.1644
257.9691	0.1722
258.1836	0.1513
258.3981	0.1694
258.6127	0.1736
258.8272	0.1476
259.0417	0.1666
259.2561	0.1654
259.4706	0.1546
259.6851	0.1664
259.8995	0.1624
260.114	0.1615
260.3284	0.1651
260.5428	0.1537
260.7572	0.1669
260.9716	0.1674
261.186	0.1567
261.4003	0.1571
261.6147	0.1575
261.829	0.155
262.0433	0.1631
262.2577	0.1435
262.472	0.166
262.6863	0.1553
262.9005	0.1651
263.1148	0.1692
263.3291	0.1255
263.5433	0.1709
263.7576	0.167
263.9718	0.1558
264.186	0.158
264.4002	0.1666
264.6144	0.1582
264.8286	0.1669
265.0427	0.154
265.2569	0.1431
265.471	0.1553
265.6851	0.1349
265.8993	0.1568
266.1134	0.1573
266.3275	0.1506
266.5415	0.149
266.7556	0.164
266.9697	0.1547
267.1837	0.1643
267.3978	0.1505
267.6118	0.1566
267.8258	0.1651
268.0398	0.1472
268.2538	0.1621
268.4677	0.1551
268.6817	0.1535
268.8957	0.1618
269.1096	0.1474
269.3235	0.1693
269.5374	0.1504
269.7514	0.1522
269.9652	0.1493
270.1791	0.1485
270.393	0.1386
270.6068	0.1474
270.8207	0.1337
271.0345	0.1307
271.2483	0.1357
271.4622	0.1401
271.676	0.1392
271.8897	0.1255
272.1035	0.1292
272.3173	0.1416
272.531	0.1345
272.7448	0.1349
272.9585	0.1257
273.1722	0.1436
273.3859	0.1274
273.5996	0.1196
273.8133	0.1334
274.0269	0.1312
274.2406	0.1224
274.4542	0.134
274.6679	0.1271
274.8815	0.1273
275.0951	0.1389
275.3087	0.1437
275.5223	0.1473
275.7358	0.1265
275.9494	0.1337
276.1629	0.1162
276.3765	0.1327
276.59	0.1417
276.8035	0.132
277.017	0.1369
277.2305	0.1244
277.444	0.1444
277.6574	0.1292
277.8709	0.1388
278.0843	0.1295
278.2978	0.1302
278.5112	0.1438
278.7246	0.1421
278.938	0.1391
279.1513	0.1493
279.3647	0.1451
279.5781	0.1361
279.7914	0.1476
280.0047	0.1349
280.2181	0.1359
280.4314	0.1449
280.6447	0.1383
280.8579	0.1453
281.0712	0.1484
281.2845	0.1541
281.4977	0.1481
281.711	0.1353
281.9242	0.1421
282.1374	0.1595
282.3506	0.1396
282.5638	0.1527
282.7769	0.1402
282.9901	0.1437
283.2033	0.1486
283.4164	0.1419
283.6295	0.1408
283.8426	0.1483
284.0557	0.1396
284.2688	0.1651
284.4819	0.1581
284.695	0.1523
284.908	0.157
285.1211	0.1375
285.3341	0.1588
285.5471	0.1613
285.7601	0.1586
285.9731	0.1413
286.1861	0.1403
286.3991	0.1512
286.612	0.1623
286.825	0.1531
287.0379	0.1601
287.2508	0.1519
287.4637	0.158
287.6766	0.1473
287.8895	0.1598
288.1024	0.1628
288.3152	0.1667
288.5281	0.1554
288.7409	0.1645
288.9538	0.1634
289.1666	0.1673
289.3794	0.167
289.5922	0.1581
289.8049	0.1566
290.0177	0.1631
290.2304	0.1602
290.4432	0.1641
290.6559	0.1614
290.8686	0.1696
291.0813	0.1706
291.294	0.177
291.5067	0.1755
291.7194	0.1704
291.932	0.1773
292.1447	0.1671
292.3573	0.1609
292.5699	0.1726
292.7825	0.1629
292.9951	0.1491
293.2077	0.1632
293.4203	0.1661
293.6328	0.1484
293.8454	0.1812
294.0579	0.1674
294.2704	0.1689
294.4829	0.1568
294.6954	0.1696
294.9079	0.1568
295.1204	0.1694
295.3328	0.1638
295.5453	0.16
295.7577	0.1681
295.9701	0.1627
296.1825	0.152
296.3949	0.1653
296.6073	0.1589
296.8197	0.1571
297.0321	0.1807
297.2444	0.1506
297.4567	0.1669
297.6691	0.1705
297.8814	0.1543
298.0937	0.1595
298.306	0.1667
298.5182	0.1644
298.7305	0.1693
298.9428	0.1686
299.155	0.165
299.3672	0.1572
299.5794	0.1652
299.7916	0.1499
300.0038	0.1686
300.216	0.1615
300.4282	0.1627
300.6403	0.1548
300.8525	0.1653
301.0646	0.1594
301.2767	0.1649
301.4888	0.1648
301.7009	0.1682
301.913	0.159
302.125	0.1729
302.3371	0.164
302.5491	0.1696
302.7612	0.1699
302.9732	0.1687
303.1852	0.1719
303.3972	0.1558
303.6092	0.1665
303.8211	0.1549
304.0331	0.1555
304.245	0.1475
304.457	0.1534
304.6689	0.1548
304.8808	0.1781
305.0927	0.1507
305.3046	0.1507
305.5164	0.1599
305.7283	0.1513
305.9401	0.139
306.152	0.1438
306.3638	0.1548
306.5756	0.1535
306.7874	0.1406
306.9992	0.1483
307.2109	0.1426
307.4227	0.1282
307.6344	0.132
307.8462	0.1301
308.0579	0.1292
308.2696	0.131
308.4813	0.1334
308.693	0.1163
308.9046	0.1319
309.1163	0.131
309.328	0.1322
309.5396	0.1261
309.7512	0.1169
309.9628	0.1273
310.1744	0.1058
310.386	0.1255
310.5976	0.1219
310.8091	0.1105
311.0207	0.1185
311.2322	0.1125
311.4437	0.1098
311.6552	0.108
311.8667	0.1096
312.0782	0.0905
312.2897	0.0981
312.5012	0.1043
312.7126	0.1039
312.924	0.1003
313.1355	0.1116
313.3469	0.1072
313.5583	0.104
313.7696	0.1133
313.981	0.0919
314.1924	0.1089
314.4037	0.0995
314.6151	0.1051
314.8264	0.0945
315.0377	0.0978
315.249	0.1002
315.4603	0.1028
315.6716	0.0958
315.8828	0.0852
316.0941	0.0919
316.3053	0.0934
316.5165	0.0837
316.7277	0.086
316.9389	0.1039
317.1501	0.0895
317.3613	0.0983
317.5724	0.0803
317.7836	0.0887
317.9947	0.0858
318.2058	0.0868
318.417	0.085
318.6281	0.0856
318.8391	0.0867
319.0502	0.0857
319.2613	0.086
319.4723	0.0973
319.6834	0.0859
319.8944	0.0795
320.1054	0.0923
320.3164	0.0845
320.5274	0.0962
320.7383	0.0824
320.9493	0.0884
321.1602	0.0978
321.3712	0.0737
321.5821	0.0927
321.793	0.0917
322.0039	0.0881
322.2148	0.0878
322.4257	0.0856
322.6365	0.1009
322.8474	0.1028
323.0582	0.0875
323.269	0.0964
323.4798	0.1058
323.6906	0.0958
323.9014	0.0906
324.1122	0.0936
324.3229	0.0869
324.5337	0.0858
324.7444	0.0862
324.9551	0.1035
325.1658	0.0969
325.3765	0.0878
325.5872	0.1016
325.7979	0.0802
326.0085	0.0928
326.2192	0.0997
326.4298	0.1036
326.6404	0.0933
326.851	0.0805
327.0616	0.0821
327.2722	0.101
327.4828	0.1
327.6933	0.0862
327.9039	0.104
328.1144	0.0967
328.3249	0.0882
328.5354	0.0802
328.7459	0.1002
328.9564	0.089
329.1669	0.0851
329.3773	0.1008
329.5878	0.0967
329.7982	0.0914
330.0086	0.0989
330.219	0.1089
330.4294	0.0945
330.6398	0.0947
330.8502	0.0944
331.0605	0.0991
331.2708	0.0919
331.4812	0.0917
331.6915	0.0973
331.9018	0.0898
332.1121	0.0936
332.3224	0.0938
332.5326	0.1047
332.7429	0.0913
332.9531	0.11
333.1633	0.0922
333.3735	0.0925
333.5837	0.101
333.7939	0.093
334.0041	0.1078
334.2143	0.1132
334.4244	0.1019
334.6346	0.0775
334.8447	0.1058
335.0548	0.0906
335.2649	0.0939
335.475	0.1039
335.685	0.1014
335.8951	0.1099
336.1051	0.0982
336.3152	0.1021
336.5252	0.0874
336.7352	0.1045
336.9452	0.1006
337.1552	0.1107
337.3652	0.0874
337.5751	0.1015
337.7851	0.1097
337.995	0.0866
338.2049	0.1088
338.4148	0.0937
338.6247	0.109
338.8346	0.098
339.0445	0.1079
339.2543	0.1008
339.4642	0.1018
339.674	0.085
339.8838	0.1135
340.0936	0.0988
340.3034	0.1153
340.5132	0.1169
340.7229	0.1068
340.9327	0.11
341.1424	0.0962
341.3522	0.1209
341.5619	0.106
341.7716	0.1187
341.9813	0.1145
342.1909	0.1173
342.4006	0.1129
342.6102	0.1202
342.8199	0.1133
343.0295	0.1081
343.2391	0.1219
343.4487	0.1193
343.6583	0.1126
343.8679	0.1027
344.0774	0.1272
344.287	0.1138
344.4965	0.1176
344.706	0.1242
344.9155	0.1275
345.125	0.1244
345.3345	0.119
345.544	0.1291
345.7534	0.1095
345.9629	0.1163
346.1723	0.1246
346.3817	0.1135
346.5911	0.1155
346.8005	0.1179
347.0099	0.1222
347.2193	0.1324
347.4286	0.1104
347.638	0.1291
347.8473	0.1292
348.0566	0.1358
348.2659	0.1196
348.4752	0.1299
348.6845	0.1179
348.8937	0.1317
349.103	0.1357
349.3122	0.1252
349.5214	0.1181
349.7306	0.1331
349.9398	0.1211
350.149	0.1312
350.3582	0.118
350.5674	0.1481
350.7765	0.1403
350.9856	0.1261
351.1948	0.1308
351.4039	0.1088
351.613	0.1265
351.822	0.1445
352.0311	0.1397
352.2402	0.1346
352.4492	0.1376
352.6582	0.1452
352.8672	0.142
353.0762	0.1391
353.2852	0.1438
353.4942	0.1276
353.7032	0.1475
353.9121	0.1519
354.1211	0.1511
354.33	0.1497
354.5389	0.1657
354.7478	0.1437
354.9567	0.1445
355.1655	0.1388
355.3744	0.1501
355.5833	0.1652
355.7921	0.1663
356.0009	0.1523
356.2097	0.1754
356.4185	0.1578
356.6273	0.1556
356.8361	0.1691
357.0448	0.1616
357.2536	0.1357
357.4623	0.1538
357.671	0.165
357.8797	0.161
358.0884	0.1591
358.2971	0.1508
358.5057	0.1619
358.7144	0.1739
358.923	0.163
359.1316	0.1767
359.3402	0.1839
359.5488	0.1643
359.7574	0.1624
359.966	0.1851
360.1746	0.1689
360.3831	0.1714
360.5916	0.1549
360.8002	0.1703
361.0087	0.1795
361.2172	0.1771
361.4256	0.1778
361.6341	0.187
361.8426	0.1755
362.051	0.1705
362.2594	0.1711
362.4678	0.1703
362.6762	0.2005
362.8846	0.19
363.093	0.1837
363.3014	0.1828
363.5097	0.1765
363.718	0.188
363.9264	0.1845
364.1347	0.1793
364.343	0.1963
364.5513	0.2105
364.7595	0.1881
364.9678	0.195
365.176	0.1827
365.3842	0.188
365.5925	0.1946
365.8007	0.1996
366.0089	0.2
366.217	0.204
366.4252	0.2139
366.6333	0.2194
366.8415	0.1959
367.0496	0.1915
367.2577	0.2197
367.4658	0.2114
367.6739	0.2115
367.882	0.2101
368.09	0.205
368.2981	0.2171
368.5061	0.2049
368.7141	0.2242
368.9221	0.2112
369.1301	0.2121
369.3381	0.2172
369.5461	0.2214
369.754	0.2227
369.962	0.2293
370.1699	0.2136
370.3778	0.237
370.5857	0.2053
370.7936	0.2053
371.0015	0.2221
371.2093	0.214
371.4172	0.2421
371.625	0.2114
371.8328	0.2152
372.0406	0.2409
372.2484	0.226
372.4562	0.2233
372.664	0.2159
372.8717	0.2395
373.0795	0.2199
373.2872	0.2391
373.4949	0.2125
373.7026	0.2262
373.9103	0.2425
374.118	0.2206
374.3256	0.2316
374.5333	0.2341
374.7409	0.2257
374.9485	0.2338
375.1561	0.2426
375.3637	0.2496
375.5713	0.245
375.7789	0.2358
375.9864	0.2292
376.194	0.2456
376.4015	0.2485
376.609	0.2427
376.8165	0.2415
377.024	0.2432
377.2315	0.2412
377.4389	0.2621
377.6464	0.2565
377.8538	0.2317
378.0612	0.259
378.2686	0.2607
378.476	0.259
378.6834	0.2508
378.8908	0.262
379.0981	0.2632
379.3055	0.2503
379.5128	0.2482
379.7201	0.2776
379.9274	0.2427
380.1347	0.267
380.342	0.2675
380.5492	0.2532
380.7565	0.2668
380.9637	0.265
381.1709	0.2461
381.3781	0.2439
381.5853	0.2674
381.7925	0.2619
381.9997	0.2579
382.2068	0.2664
382.4139	0.2566
382.6211	0.242
382.8282	0.2785
383.0353	0.2568
383.2424	0.2543
383.4494	0.2829
383.6565	0.2527
383.8635	0.2578
384.0706	0.2683
384.2776	0.2774
384.4846	0.2447
384.6916	0.2644
384.8986	0.2545
385.1055	0.2555
385.3125	0.2733
385.5194	0.2393
385.7263	0.2628
385.9333	0.2612
386.1402	0.266
386.347	0.2646
386.5539	0.2516
386.7608	0.2744
386.9676	0.2612
387.1744	0.2509
387.3813	0.259
387.5881	0.2667
387.7948	0.2618
388.0016	0.2605
388.2084	0.252
388.4151	0.2645
388.6219	0.266
388.8286	0.2432
389.0353	0.2761
389.242	0.2622
389.4487	0.2589
389.6553	0.248
389.862	0.2421
390.0686	0.2456
390.2753	0.2639
390.4819	0.2627
390.6885	0.2554
390.8951	0.2724
391.1016	0.2642
391.3082	0.2355
391.5147	0.2641
391.7213	0.2606
391.9278	0.2295
392.1343	0.2524
392.3408	0.2499
392.5473	0.2574
392.7537	0.2379
392.9602	0.2384
393.1666	0.2383
393.373	0.2256
393.5794	0.266
393.7858	0.2549
393.9922	0.2205
394.1986	0.2631
394.4049	0.2484
394.6113	0.2315
394.8176	0.2454
395.0239	0.2376
395.2302	0.2315
395.4365	0.2266
395.6428	0.2347
395.8491	0.2179
396.0553	0.2304
396.2615	0.214
396.4678	0.2288
396.674	0.2059
396.8802	0.233
397.0863	0.2436
397.2925	0.2263
397.4987	0.217
397.7048	0.2123
397.9109	0.2342
398.117	0.2229
398.3231	0.2057
398.5292	0.2372
398.7353	0.2311
398.9413	0.2153
399.1474	0.2223
399.3534	0.2208
399.5594	0.2179
399.7654	0.235
399.9714	0.2339
400.1774	0.2105
400.3833	0.2175
400.5893	0.2329
400.7952	0.2261
401.0011	0.2054
401.207	0.2334
401.4129	0.2262
401.6188	0.2335
401.8247	0.2189
402.0305	0.2318
402.2364	0.231
402.4422	0.2332
402.648	0.2272
402.8538	0.2245
403.0596	0.2205
403.2654	0.2313
403.4711	0.2086
403.6768	0.235
403.8826	0.2433
404.0883	0.2462
404.294	0.2399
404.4997	0.2314
404.7054	0.2301
404.911	0.2196
405.1167	0.2224
405.3223	0.2289
405.5279	0.2308
405.7335	0.2427
405.9391	0.2369
406.1447	0.2121
406.3502	0.2596
406.5558	0.2245
406.7613	0.2198
406.9668	0.2527
407.1724	0.2194
407.3778	0.2163
407.5833	0.2198
407.7888	0.2159
407.9942	0.2453
408.1997	0.2138
408.4051	0.2228
408.6105	0.2277
408.8159	0.2336
409.0213	0.2201
409.2267	0.2255
409.432	0.211
409.6374	0.2192
409.8427	0.2117
410.048	0.2191
410.2533	0.2342
410.4586	0.2361
410.6639	0.2027
410.8691	0.21
411.0744	0.226
411.2796	0.2212
411.4848	0.2183
411.69	0.2281
411.8952	0.2435
412.1004	0.2201
412.3056	0.2382
412.5107	0.2209
412.7158	0.2241
412.921	0.2193
413.1261	0.2221
413.3312	0.2204
413.5362	0.2202
413.7413	0.2104
413.9464	0.2301
414.1514	0.23
414.3564	0.2204
414.5614	0.2048
414.7664	0.2353
414.9714	0.2256
415.1764	0.2149
415.3813	0.2438
415.5863	0.2135
415.7912	0.2272
415.9961	0.2115
416.201	0.2172
416.4059	0.2121
416.6108	0.2032
416.8156	0.2167
417.0205	0.2229
417.2253	0.2124
417.4301	0.2146
417.6349	0.2197
417.8397	0.2142
418.0445	0.2273
418.2492	0.228
418.454	0.2062
418.6587	0.205
418.8634	0.2261
419.0681	0.2004
419.2728	0.1983
419.4775	0.1969
419.6822	0.1934
419.8868	0.192
420.0915	0.2064
420.2961	0.1969
420.5007	0.1983
420.7053	0.2011
420.9099	0.2099
421.1144	0.2071
421.319	0.2093
421.5235	0.2115
421.728	0.203
421.9325	0.2054
422.137	0.1907
422.3415	0.1954
422.546	0.1871
422.7504	0.2037
422.9549	0.211
423.1593	0.1997
423.3637	0.2016
423.5681	0.1837
423.7725	0.191
423.9769	0.191
424.1812	0.1841
424.3856	0.2004
424.5899	0.1863
424.7942	0.1923
424.9985	0.1868
425.2028	0.1868
425.4071	0.1957
425.6113	0.1687
425.8156	0.1907
426.0198	0.1877
426.224	0.1595
426.4282	0.1786
426.6324	0.1708
426.8366	0.1728
427.0407	0.1702
427.2449	0.1645
427.449	0.1873
427.6531	0.1538
427.8572	0.1633
428.0613	0.1743
428.2654	0.1719
428.4694	0.1716
428.6735	0.1624
428.8775	0.184
429.0815	0.1547
429.2855	0.1543
429.4895	0.1693
429.6935	0.1662
429.8975	0.1707
430.1014	0.1593
430.3053	0.1375
430.5093	0.1642
430.7132	0.1493
430.9171	0.1515
431.1209	0.1491
431.3248	0.1459
431.5286	0.1459
431.7325	0.1394
431.9363	0.1358
432.1401	0.1518
432.3439	0.1305
432.5477	0.1219
432.7514	0.1439
432.9552	0.152
433.1589	0.1249
433.3627	0.1179
433.5664	0.1235
433.7701	0.1224
433.9737	0.1219
434.1774	0.1223
434.3811	0.1345
434.5847	0.1335
434.7883	0.1318
434.9919	0.1275
435.1955	0.1318
435.3991	0.1117
435.6027	0.122
435.8062	0.111
436.0098	0.1008
436.2133	0.1111
436.4168	0.1011
436.6203	0.098
436.8238	0.1233
437.0272	0.1091
437.2307	0.1011
437.4341	0.1143
437.6375	0.116
437.841	0.0856
438.0443	0.1127
438.2477	0.0914
438.4511	0.094
438.6545	0.0943
438.8578	0.0808
439.0611	0.0923
439.2644	0.0774
439.4677	0.0726
439.671	0.0665
439.8743	0.0826
440.0775	0.0853
440.2808	0.0794
440.484	0.0687
440.6872	0.0568
440.8904	0.0729
441.0936	0.0984
441.2967	0.0805
441.4999	0.0786
441.703	0.0618
441.9062	0.0547
442.1093	0.0752
442.3124	0.0753
442.5155	0.0599
442.7185	0.0602
442.9216	0.029
443.1246	0.0777
443.3276	0.0628
443.5307	0.0707
443.7337	0.0584
443.9366	0.0473
444.1396	0.0656
444.3426	0.0606
444.5455	0.053
444.7484	0.0511
444.9513	0.0471
445.1542	0.0705
445.3571	0.0459
445.56	0.0621
445.7628	0.0392
445.9657	0.0393
446.1685	0.07
446.3713	0.0482
446.5741	0.0453
446.7769	0.0373
446.9797	0.0402
447.1824	0.0411
447.3852	0.023
447.5879	0.0424
447.7906	0.0547
447.9933	0.0383
448.196	0.0338
448.3986	0.0352
448.6013	0.0289
448.8039	0.0174
449.0066	0.0214
449.2092	0.0399
449.4118	0.0417
449.6143	0.0207
449.8169	0.0251
450.0195	0.0258
450.222	0.0129
450.4245	0.0206
450.627	0.039
450.8295	0.0183
451.032	0.0152
451.2345	0.0197
451.4369	0.034
451.6394	0.0353
451.8418	0.0109
452.0442	0.0225
452.2466	0.0302
452.449	0.0064
452.6513	0.023
452.8537	0.0138
453.056	0.0038
453.2583	0.0141
453.4607	0.0087
453.663	0.0172
453.8652	0.0321
454.0675	0.0025
454.2697	0.0189
454.472	0.0121
454.6742	0.0122
454.8764	0.0105
455.0786	0.0104
455.2808	0.0016
455.4829	0.0056
455.6851	0.0234
455.8872	0.0254
456.0893	0.0221
456.2915	0.0012
456.4935	0.0111
456.6956	0.0043
456.8977	0.0251
457.0997	0.0071
457.3018	-0.0083
457.5038	0.0193
457.7058	-0.0105
457.9078	0.0059
458.1098	0.0217
458.3117	0.007
458.5137	0.0117
458.7156	0.0131
458.9175	-0.0115
459.1194	0.0191
459.3213	0.0009
459.5232	-0.0003
459.725	-0.0053
459.9269	-0.01
460.1287	0.0055
460.3305	-0.0013
460.5323	0.0199
460.7341	0.0118
460.9359	0.0071
461.1376	0.0028
461.3394	-0.0012
461.5411	0.0031
461.7428	0.0136
461.9445	0.0127
462.1462	0.0247
462.3479	0.0098
462.5495	0.0162
462.7512	0.0064
462.9528	-0.0154
463.1544	-0.0109
463.356	0.0061
463.5576	0.0038
463.7592	0.0006
463.9607	-0.0032
464.1623	0.0151
464.3638	0.0319
464.5653	-0.0135
464.7668	-0.0095
464.9683	0.0042
465.1697	0.0149
465.3712	-0.0129
465.5726	-0.007
465.7741	-0.0124
465.9755	-0.0092
466.1769	-0.0017
466.3782	-0.001
466.5796	-0.0061
466.7809	0.0125
466.9823	-0.0022
467.1836	-0.0056
467.3849	-0.0108
467.5862	0.0079
467.7875	-0.0057
467.9887	0.0066
468.19	0.0002
468.3912	-0.0081
468.5924	-0.0162
468.7936	-0.0074
468.9948	-0.0046
469.196	0.0107
469.3972	-0.0152
469.5983	0.0063
469.7994	-0.0075
470.0006	-0.0082
470.2017	-0.0259
470.4027	-0.0075
470.6038	0.0007
470.8049	-0.0075
471.0059	-0.0144
471.2069	-0.0332
471.408	-0.007
471.6089	0.0102
471.8099	-0.0008
472.0109	0.0094
472.2119	-0.0184
472.4128	-0.0132
472.6137	0.002
472.8146	-0.0276
473.0155	-0.0004
473.2164	0.0031
473.4173	0.0005
473.6181	0.0008
473.819	0.0022
474.0198	-0.0146
474.2206	-0.02
474.4214	0.0031
474.6222	0.0042
474.8229	-0.0066
475.0237	-0.0113
475.2244	-0.0055
475.4251	-0.0077
475.6258	-0.0111
475.8265	0.0094
476.0272	-0.0045
476.2278	-0.0016
476.4285	-0.0051
476.6291	-0.0062
476.8297	0.0005
477.0303	-0.0037
477.2309	-0.0034
477.4315	-0.0026
477.632	-0.0021
477.8326	-0.0091
478.0331	0.0051
478.2336	0.001
478.4341	-0.0085
478.6346	0.0072
478.8351	-0.0151
479.0355	-0.005
479.236	-0.011
479.4364	0.0089
479.6368	0.0029
479.8372	-0.0136
480.0376	-0.0055
480.2379	-0.0283
480.4383	-0.0084
480.6386	0.0003
480.8389	-0.0033
481.0392	-0.0198
481.2395	-0.0011
481.4398	0.0079
481.6401	-0.0013
481.8403	-0.0111
482.0405	-0.0093
482.2408	0.0081
482.441	0.0034
482.6411	-0.0053
482.8413	-0.0018
483.0415	-0.0089
483.2416	-0.012
483.4417	-0.0121
483.6419	0.0014
483.8419	-0.0013
484.042	0.0113
484.2421	-0.0052
484.4422	0.003
484.6422	-0.0043
484.8422	-0.0046
485.0422	-0.0082
485.2422	0.0013
485.4422	-0.0102
485.6422	-0.0072
485.8421	-0.0073
486.042	-0.0081
486.242	-0.0023
486.4419	-0.0088
486.6417	-0.0102
486.8416	-0.0044
487.0415	-0.0031
487.2413	-0.0127
487.4411	-0.001
487.641	-0.0088
487.8408	-0.0025
488.0405	-0.0116
488.2403	-0.0135
488.4401	0.0034
488.6398	-0.0103
488.8395	-0.0117
489.0392	-0.0063
489.2389	-0.0136
489.4386	-0.0093
489.6383	0.0009
489.8379	-0.0009
490.0376	0.0032
490.2372	-0.0257
490.4368	-0.0171
490.6364	-0.0018
490.836	-0.0097
491.0355	-0.0159
491.2351	-0.0095
491.4346	-0.0059
491.6341	-0.0062
491.8336	0.0109
492.0331	-0.0151
492.2326	-0.0076
492.432	-0.0039
492.6315	-0.0095
492.8309	-0.0087
493.0303	-0.009
493.2297	-0.0018
493.4291	-0.0068
493.6284	-0.0091
493.8278	-0.0086
494.0271	-0.0003
494.2264	0.0063
494.4257	-0.0126
494.625	-0.0117
494.8243	-0.015
495.0236	-0.0069
495.2228	-0.0101
495.422	-0.0015
495.6213	-0.0025
495.8205	-0.0041
496.0196	-0.0082
496.2188	-0.0019
496.418	-0.0117
496.6171	-0.0004
496.8162	-0.0128
497.0153	0.0026
497.2144	-0.0112
497.4135	-0.0048
497.6126	-0.0102
497.8116	-0.0079
498.0107	-0.0011
498.2097	-0.0137
498.4087	-0.0106
498.6077	-0.0032
498.8067	-0.0168
499.0056	0.0119
499.2046	-0.0045
499.4035	-0.02
499.6024	0.0047
499.8013	-0.0077
500.0002	-0.0041
500.199	-0.0054
500.3979	-0.0014
500.5967	-0.0106
500.7956	0.0029
500.9944	-0.0116
501.1932	-0.0085
501.3919	-0.0174
501.5907	-0.0104
501.7895	-0.0101
501.9882	-0.0165
502.1869	-0.0145
502.3856	-0.0053
502.5843	-0.0117
502.783	-0.0073
502.9816	-0.004
503.1803	-0.0103
503.3789	-0.0153
503.5775	-0.0028
503.7761	-0.0147
503.9747	-0.0074
504.1732	-0.008
504.3718	-0.0012
504.5703	-0.0058
504.7689	-0.0108
504.9674	-0.0091
505.1658	-0.0109
505.3643	-0.0035
505.5628	-0.0097
505.7612	-0.0013
505.9597	-0.0011
506.1581	-0.0097
506.3565	0.0051
506.5549	0.0054
506.7532	-0.0137
506.9516	-0.0067
507.1499	0.002
507.3482	-0.0149
507.5465	-0.0145
507.7448	-0.0051
507.9431	-0.0071
508.1414	-0.0002
508.3396	0.0029
508.5379	-0.0068
508.7361	-0.0045
508.9343	-0.0018
509.1325	0.0016
509.3306	-0.006
509.5288	-0.0107
509.7269	-0.0124
509.9251	-0.0068
510.1232	-0.0123
510.3213	-0.0046
510.5193	-0.0056
510.7174	-0.0146
510.9154	-0.0143
511.1135	0.0011
511.3115	-0.0106
511.5095	-0.0036
511.7075	-0.008
511.9055	-0.0124
512.1034	-0.0118
512.3014	-0.0001
512.4993	-0.0068
512.6972	-0.0136
512.8951	-0.0089
513.093	-0.0033
513.2908	-0.0039
513.4887	-0.0038
513.6865	-0.0047
513.8844	-0.0065
514.0822	-0.0074
514.2799	-0.0198
514.4777	-0.0052
514.6755	-0.0067
514.8732	-0.0005
515.0709	-0.0087
515.2687	-0.0023
515.4664	-0.0002
515.664	-0.0103
515.8617	-0.011
516.0594	-0.0098
516.257	0.0035
516.4546	-0.011
516.6522	-0.0061
516.8498	-0.0077
517.0474	-0.0031
517.2449	-0.001
517.4425	-0.0155
517.64	-0.0102
517.8375	0.0041
518.035	0.0003
518.2325	-0.0064
518.43	-0.0034
518.6274	-0.0037
518.8249	-0.0097
519.0223	-0.0005
519.2197	-0.0195
519.4171	-0.0071
519.6145	-0.0045
519.8118	0.0022
520.0092	-0.0053
520.2065	-0.0168
520.4038	-0.0116
520.6011	-0.0048
520.7984	-0.0143
520.9956	-0.002
521.1929	0.0015
521.3901	0.0056
521.5874	-0.0022
521.7846	-0.0053
521.9818	-0.0092
522.1789	-0.0048
522.3761	-0.0083
522.5732	0.0067
522.7704	-0.0066
522.9675	0.0015
523.1646	-0.0153
523.3617	-0.005
523.5587	-0.0063
523.7558	-0.0063
523.9528	-0.0088
524.1498	0.0043
524.3468	-0.0059
524.5438	-0.0083
524.7408	0.0029
524.9378	0.0108
525.1347	-0.0013
525.3316	0.0069
525.5285	-0.0079
525.7254	-0.0062
525.9223	-0.0081
526.1192	-0.001
526.316	0.0002
526.5129	-0.0001
526.7097	-0.0003
526.9065	-0.0046
527.1033	-0.0096
527.3	0.0027
527.4968	-0.0029
527.6935	0.004
527.8903	-0.0105
528.087	-0.0104
528.2837	-0.0049
528.4804	-0.0087
528.677	-0.0065
528.8737	0.0019
529.0703	0.0017
529.2669	-0.0091
529.4635	-0.0026
529.6601	-0.0047
529.8567	-0.0093
530.0532	-0.0114
530.2498	-0.0052
530.4463	0.0045
530.6428	-0.0026
530.8393	0.0019
531.0358	0.004
531.2322	-0.0085
531.4287	-0.0006
531.6251	-0.0052
531.8215	-0.0034
532.0179	-0.0058
532.2143	0.0077
532.4107	-0.0032
532.607	-0.0001
532.8034	0.0027
532.9997	-0.0071
533.196	-0.0022
533.3923	-0.0158
533.5886	-0.0003
533.7848	-0.0035
533.9811	-0.0048
534.1773	0.0018
534.3735	0.0037
534.5697	-0.0108
534.7659	0
534.9621	0.0096
535.1582	-0.0211
535.3544	-0.0062
535.5505	-0.0069
535.7466	-0.0006
535.9427	-0.0056
536.1387	-0.0011
536.3348	-0.0002
536.5308	0.0001
536.7269	-0.015
536.9229	0.0107
537.1189	-0.0044
537.3148	-0.0084
537.5108	-0.0155
537.7068	-0.0008
537.9027	0.0073
538.0986	-0.0035
538.2945	-0.0074
538.4904	-0.007
538.6863	-0.0061
538.8821	-0
539.078	-0.003
539.2738	0.0038
539.4696	-0.0046
539.6654	0.0053
539.8611	0.0049
540.0569	-0.0011
540.2526	-0.0073
540.4484	-0.0044
540.6441	0.0036
540.8398	-0.0018
541.0355	0.002
541.2311	-0.0007
541.4268	-0.0129
541.6224	0.0009
541.818	-0.0037
542.0136	-0.008
542.2092	-0.005
542.4048	-0.0134
542.6003	-0.0012
542.7959	-0.0048
542.9914	-0.0127
543.1869	0.0014
543.3824	-0.0019
543.5779	-0.0076
543.7734	-0.0024
543.9688	-0.0059
544.1642	0.0007
544.3596	-0.0073
544.555	-0.0026
544.7504	-0.0063
544.9458	-0.0073
545.1411	-0.0046
545.3365	-0.0055
545.5318	-0.0066
545.7271	-0.0114
545.9224	-0.0082
546.1177	-0.001
546.3129	0.0022
546.5081	-0.008
546.7034	-0.0018
546.8986	-0.0075
547.0938	-0.0051
547.289	-0.0008
547.4841	0.0018
547.6793	0.005
547.8744	-0.0044
548.0695	-0.0011
548.2646	-0.0122
548.4597	0.0026
548.6548	-0.0039
548.8498	-0.0079
549.0448	0.0061
549.2399	-0.0047
549.4349	0.0072
549.6298	0.0008
549.8248	-0.0007
550.0198	0.0056
550.2147	0.0045
550.4096	-0.0152
550.6045	-0.0027
550.7994	0.0037
550.9943	0.0088
551.1892	0.0015
551.384	0.0099
551.5788	-0.0146
551.7737	-0.0025
551.9685	-0.0089
552.1632	0.0021
552.358	-0.0038
552.5528	-0
552.7475	-0.0028
552.9422	0.0074
553.1369	-0.001
553.3316	0.0052
553.5263	-0.0105
553.7209	0.0012
553.9156	-0.0063
554.1102	-0.0041
554.3048	-0.0144
554.4994	0.0034
554.694	-0.0052
554.8885	-0.0099
555.0831	-0.0054
555.2776	-0.0045
555.4721	-0.0028
555.6666	-0.0014
555.8611	0.0099
556.0555	0.0023
556.25	-0.0063
556.4444	-0.0134
556.6388	0.0029
556.8332	-0.0077
557.0276	-0.0058
557.222	-0.0055
557.4163	-0.0043
557.6107	-0.0148
557.805	0.0058
557.9993	-0.0132
558.1936	-0.001
558.3879	-0.0029
558.5821	0.0054
558.7764	-0.0049
558.9706	-0.0067
559.1648	0.0078
559.359	-0.0036
559.5532	-0.0119
559.7473	-0.0019
559.9415	-0.0049
560.1356	-0.0067
560.3297	-0.0093
560.5238	-0.0076
560.7179	-0.0031
560.9119	-0.0118
561.106	-0.0003
561.3	-0.0015
561.494	-0.0067
561.688	0.002
561.882	-0.005
562.076	0.003
562.2699	0.0068
562.4639	-0.0047
562.6578	-0.0006
562.8517	0.0035
563.0456	-0.0007
563.2395	0.0023
563.4333	0.0003
563.6272	-0.0018
563.821	-0.0053
564.0148	-0.0023
564.2086	-0.008
564.4024	0.0004
564.5961	-0.0035
564.7899	0.0128
564.9836	0.0057
565.1773	0.0015
565.371	-0.0002
565.5647	0.0042
565.7584	0.0031
565.952	-0.012
566.1456	0.0008
566.3393	0.0032
566.5329	-0.0033
566.7264	-0.0119
566.92	0.0029
567.1136	0.0025
567.3071	0.004
567.5006	-0.0017
567.6941	0.0028
567.8876	-0.0013
568.0811	-0.0014
568.2745	0.0057
568.468	0.0005
568.6614	0.0073
568.8548	0.0031
569.0482	-0.0062
569.2416	0.0022
569.4349	-0.0034
569.6283	0.0057
569.8216	0.0035
570.0149	-0.0041
570.2082	0.0063
570.4015	0.0114
570.5947	0.0047
570.788	0.0016
570.9812	0.0092
571.1744	0.0025
571.3676	-0.0038
571.5608	-0.0056
571.754	0.004
571.9471	0.0012
572.1402	0.0023
572.3333	-0.0055
572.5264	-0.0048
572.7195	0.0025
572.9126	0.0005
573.1057	0.002
573.2987	-0.0005
573.4917	0.0045
573.6847	-0.0151
573.8777	0.0038
574.0707	-0.0011
574.2636	-0.0046
574.4566	-0.0066
574.6495	0.0031
574.8424	0.0018
575.0353	-0.0033
575.2281	0.0036
575.421	0.0025
575.6138	0.0032
575.8067	-0.0062
575.9995	0.0021
576.1923	0.007
576.385	0.002
576.5778	-0.0063
576.7706	-0.0059
576.9633	-0.0006
577.156	-0.0009
577.3487	-0.0009
577.5414	-0.0002
577.734	-0.0074
577.9267	-0
578.1193	-0.0089
578.3119	-0.0036
578.5045	-0.0019
578.6971	0.0006
578.8897	0.0066
579.0822	-0.0038
579.2747	0.0018
579.4673	-0.0108
579.6598	-0.001
579.8522	-0.0034
580.0447	-0.0055
580.2372	-0.0077
580.4296	0.002
580.622	0.0002
580.8144	0.0031
581.0068	0.0017
581.1992	-0.0136
581.3915	-0.0067
581.5839	-0.0053
581.7762	-0.0082
581.9685	-0.0043
582.1608	0.0047
582.353	0.0016
582.5453	-0.0033
582.7375	-0.0029
582.9298	-0.004
583.122	0.0037
583.3142	-0.0033
583.5063	0.0024
583.6985	-0.0023
583.8906	0.0042
584.0827	-0.0075
584.2749	0.0014
584.4669	0.0016
584.659	-0.0037
584.8511	-0.0012
585.0431	-0.0001
585.2352	0.0057
585.4272	0.001
585.6192	0.0022
585.8111	-0.002
586.0031	0.0014
586.195	-0.0042
586.387	0.0096
586.5789	-0.0017
586.7708	0.0013
586.9627	0.0032
587.1545	-0.0059
587.3464	0.0012
587.5382	0.0012
587.73	-0.0023
587.9218	0.0065
588.1136	-0.0063
588.3053	0.0028
588.4971	-0.008
588.6888	-0.0123
588.8805	-0.0012
589.0722	-0.0008
589.2639	0.0062
589.4556	-0.0002
589.6472	0.0018
589.8389	-0.0071
590.0305	-0.0061
590.2221	-0.0026
590.4137	-0.01
590.6052	0.0062
590.7968	-0.0102
590.9883	0.0008
591.1798	-0.0043
591.3713	0.0023
591.5628	-0.0003
591.7543	0.0037
591.9458	0.0025
592.1372	0.0065
592.3286	0.0063
592.52	0.0074
592.7114	0.003
592.9028	0.0027
593.0941	-0.0001
593.2855	-0.0033
593.4768	-0.0051
593.6681	-0.006
593.8594	-0.0078
594.0506	-0.0027
594.2419	0.0087
594.4331	-0.0061
594.6244	0.0022
594.8156	-0.0099
595.0067	-0.0081
595.1979	0.0009
595.3891	0.0007
595.5802	-0.0049
595.7713	-0.0034
595.9624	0.0028
596.1535	0.0025
596.3446	-0.0003
596.5357	-0.0066
596.7267	0.0087
596.9177	-0.0024
597.1087	-0.0073
597.2997	-0.0068
597.4907	0.0064
597.6817	-0.0003
597.8726	0.0021
598.0635	-0.0021
598.2544	0.0023
598.4453	0.0008
598.6362	-0.001
598.827	0.0004
599.0179	0.005
599.2087	0.0063
599.3995	0.0021
599.5903	0.0013
599.7811	-0.002
599.9718	0.0009
600.1626	-0.0029
600.3533	-0.0047
600.544	-0.0023
600.7347	0.0006
600.9254	0.0009
601.116	-0.0064
601.3067	-0.0042
601.4973	0.0022
601.6879	0.0119
601.8785	-0.0032
602.0691	0.0056
602.2596	-0.0002
602.4502	0.0035
602.6407	0.0072
602.8312	-0.0017
603.0217	-0.0104
603.2122	-0.007
603.4027	0.0035
603.5931	0.0001
603.7835	0.0014
603.9739	-0.0023
604.1643	-0.0023
604.3547	-0.0044
604.5451	-0.002
604.7354	-0.0039
604.9257	-0.0075
605.116	-0.0035
605.3063	0.004
605.4966	-0.0008
605.6869	-0.0028
605.8771	-0.0004
606.0673	0.0029
606.2575	0.0073
606.4477	0.0092
606.6379	-0.0026
606.8281	-0.0039
607.0182	-0.0027
607.2083	0.0087
607.3985	-0.0044
607.5885	-0.0032
607.7786	-0.0003
607.9687	-0.0054
608.1587	0.0034
608.3488	0.0023
608.5388	0.0002
608.7288	-0.0007
608.9187	-0.0018
609.1087	-0.0027
609.2986	0.0019
609.4886	-0.0067
609.6785	-0.0002
609.8684	0.003
610.0582	0.0032
610.2481	-0.0022
610.4379	-0.001
610.6278	0.0011
610.8176	-0.0031
611.0074	0.0009
611.1971	-0.0066
611.3869	-0.0004
611.5766	-0.0047
611.7664	0.0017
611.9561	0.0022
612.1458	0.002
612.3354	-0.0025
612.5251	0.0004
612.7147	0.001
612.9044	0.011
613.094	0.0013
613.2836	0.0041
613.4731	0.0037
613.6627	-0.0023
613.8522	0.0036
614.0417	0.0075
614.2313	0.0041
614.4207	-0.0053
614.6102	0.0013
614.7997	0.0006
614.9891	0.0046
615.1785	0.0035
615.3679	-0.0069
615.5573	0.0086
615.7467	0.0001
615.9361	0.0014
616.1254	0.0044
616.3147	0.0012
616.504	0.0033
616.6933	0.0076
616.8826	0.0082
617.0718	0.008
617.2611	0.007
617.4503	-0.0009
617.6395	-0.0008
617.8287	0.0011
618.0179	0.0027
618.207	0.01
618.3961	0.002
618.5853	-0.0014
618.7744	0.0034
618.9634	0.0096
619.1525	0.0045
619.3416	0.0087
619.5306	0.0008
619.7196	0.0021
619.9086	-0.0035
620.0976	0.0047
620.2866	0.0055
620.4755	0.0067
620.6645	0.0044
620.8534	0.0061
621.0423	0.0038
621.2312	0.0055
621.42	-0.002
621.6089	-0.0001
621.7977	0.0067
621.9865	-0.0034
622.1753	0.0061
622.3641	0.0006
622.5529	0.0095
622.7416	0.0089
622.9303	-0.0029
623.1191	0.0018
623.3078	-0.0024
623.4964	-0.0006
623.6851	0.004
623.8737	0.0031
624.0624	0.0012
624.251	0.0003
624.4396	-0.0023
624.6282	-0.0053
624.8167	0.0018
625.0053	-0.0044
625.1938	-0.0034
625.3823	0.0062
625.5708	-0.0056
625.7593	-0.0038
625.9477	0
626.1362	-0.0035
626.3246	0.0009
626.513	0.0016
626.7014	0.0057
626.8898	-0.0031
627.0781	0.0075
627.2665	-0.0034
627.4548	0.0084
627.6431	0.0044
627.8314	0.0065
628.0197	0.0098
628.2079	-0.0061
628.3962	-0.0004
628.5844	0.0077
628.7726	0.0012
628.9608	0.0042
629.1489	0.0035
629.3371	0.0009
629.5252	-0.0021
629.7134	0.0036
629.9015	0.0033
630.0895	-0.0043
630.2776	0.0087
630.4657	0.0074
630.6537	0.0036
630.8417	0.0034
631.0297	0.0025
631.2177	-0.0017
631.4057	-0.0014
631.5936	0.0038
631.7815	0.0068
631.9695	-0.0016
632.1574	0.0161
632.3452	0.0117
632.5331	0.0045
632.7209	0.0049
632.9088	0.0129
633.0966	0.0164
633.2844	-0.0032
633.4722	0.0092
633.6599	0.0028
633.8477	0.0067
634.0354	0.0006
634.2231	0.0004
634.4108	0.0086
634.5985	0.0074
634.7861	0.01
634.9738	0.0094
635.1614	0.0026
635.349	0.0002
635.5366	0.0058
635.7242	0.0024
635.9117	0.0185
636.0993	-0.0009
636.2868	0.0056
636.4743	0.0009
636.6618	0.0123
636.8492	0.0053
637.0367	0.0009
637.2241	0.002
637.4115	-0.0039
637.5989	0.0007
637.7863	0.0048
637.9737	-0.0032
638.161	0.0038
638.3484	0.0023
638.5357	0.0099
638.723	0.0046
638.9103	0.004
639.0975	0.0075
639.2848	0.0048
639.472	0.0057
639.6592	0.0085
639.8464	0.0117
640.0336	0.0123
640.2208	0.0012
640.4079	0.0009
640.595	0.001
640.7821	0.0089
640.9692	0.0042
641.1563	0.0011
641.3434	0.009
641.5304	0.0032
641.7174	0.0041
641.9044	0.003
642.0914	0.0024
642.2784	0.0092
642.4653	0.0082
642.6523	0.0012
642.8392	-0.0037
643.0261	0.0061
643.213	0.0062
643.3999	-0.0015
643.5867	-0.0029
643.7735	0.0053
643.9604	-0.0006
644.1472	0.0048
644.3339	0.0101
644.5207	0.008
644.7075	0.004
644.8942	0.0128
645.0809	0.0085
645.2676	0.0068
645.4543	0.0028
645.6409	-0.0027
645.8276	0.0041
646.0142	0.0073
646.2008	-0.0084
646.3874	0.0005
646.574	-0.0019
646.7605	-0.005
646.9471	-0.0142
647.1336	-0
647.3201	0.0041
647.5066	0.0002
647.6931	0.0032
647.8795	0.0058
648.0659	0.0077
648.2524	0.0034
648.4388	-0.0047
648.6252	0.0059
648.8115	0.0018
648.9979	0.0046
649.1842	-0.002
649.3705	0.0082
649.5568	0.0015
649.7431	-0.0006
649.9294	0.0024
650.1156	0.0011
650.3018	-0.006
650.488	0.0038
650.6742	0.006
650.8604	0.0062
651.0466	-0.0034
651.2327	0.0013
651.4188	0.0008
651.6049	-0.0011
651.791	0.0078
651.9771	0.0073
652.1632	0.0094
652.3492	0.0003
652.5352	0.0043
652.7212	-0.0014
652.9072	0.0071
653.0932	-0.001
653.2791	0.0002
653.465	0.003
653.651	-0.0038
653.8369	-0.0036
654.0227	0.0063
654.2086	0.0054
654.3944	0.0072
654.5803	-0.0001
654.7661	0.0021
654.9519	0.0074
655.1377	-0.0093
655.3234	-0
655.5092	-0.0044
655.6949	-0.0064
655.8806	-0.0015
656.0663	-0.0025
656.2519	-0.0019
656.4376	-0.0022
656.6232	0.0049
656.8088	0.0006
656.9945	0.0047
657.18	0.0016
657.3656	0.0024
657.5511	-0.0006
657.7367	-0.0026
657.9222	0.0073
658.1077	-0.0003
658.2932	0.0061
658.4786	-0.0062
658.6641	0.0014
658.8495	-0.0025
659.0349	0.0014
659.2203	0.001
659.4057	0.001
659.591	0.0039
659.7764	-0.0007
659.9617	0.0064
660.147	-0.0016
660.3323	0.0061
660.5176	0.0102
660.7028	0.011
660.888	0.0085
661.0733	0.0073
661.2585	-0.0098
661.4436	-0.005
661.6288	-0.0016
661.8139	-0.0008
661.9991	0.0056
662.1842	-0.0009
662.3693	0.0001
662.5544	-0.0031
662.7394	-0.0012
662.9245	0.0044
663.1095	-0.0003
663.2945	0.0035
663.4795	-0.0014
663.6644	0.0024
663.8494	0.0074
664.0343	0.0049
664.2193	0.0032
664.4042	0.0084
664.589	-0.0065
664.7739	0.0016
664.9587	-0.006
665.1436	-0.0041
665.3284	-0.0021
665.5132	-0.0005
665.698	0.0015
665.8827	0.008
666.0675	0.0026
666.2522	-0.0014
666.4369	0.0007
666.6216	0.0019
666.8063	0.006
666.9909	0.0017
667.1756	-0.0041
667.3602	0.003
667.5448	0.0039
667.7294	0.0139
667.9139	0.0072
668.0985	0.0181
668.283	0.0055
668.4675	0.007
668.652	0.0011
668.8365	0.0086
669.0209	0.0107
669.2054	0.014
669.3898	0.0006
669.5742	0.0088
669.7586	0.0094
669.943	0.0096
670.1273	0.0044
670.3117	0.0107
670.496	0.0144
670.6803	0.0118
670.8646	0.011
671.0488	0.0021
671.2331	0.0093
671.4173	0.004
671.6015	-0.0037
671.7857	0.0091
671.9699	0.0026
672.1541	0.0061
672.3382	0.0046
672.5223	0.0068
672.7064	0.0067
672.8905	0.0029
673.0746	0.0058
673.2587	-0.0053
673.4427	0.0021
673.6267	0.0124
673.8107	0.0102
673.9947	0.0071
674.1787	0.0094
674.3626	-0.0058
674.5465	0.0049
674.7304	0.0028
674.9143	0.0113
675.0982	0.0107
675.2821	-0.0003
675.4659	0.0077
675.6497	0.0053
675.8335	0.0045
676.0173	0.0019
676.2011	0.0047
676.3849	0.0046
676.5686	-0.0031
676.7523	0.0033
676.936	-0.0039
677.1197	0.0047
677.3034	0.0014
677.487	0.0075
677.6706	-0.0012
677.8542	0.0064
678.0378	0.0061
678.2214	0.0018
678.405	0.0005
678.5885	-0.0048
678.772	0.0076
678.9555	-0.0028
679.139	-0.0067
679.3225	0.0047
679.5059	-0.0031
679.6894	0.0078
679.8728	0.0087
680.0562	-0.0003
680.2395	-0.0109
680.4229	0.0023
680.6062	0.0018
680.7896	0.006
680.9729	-0.0075
681.1562	0.0007
681.3394	0.0045
681.5227	-0.002
681.7059	0.0003
681.8891	-0.0041
682.0723	0.0083
682.2555	0.0105
682.4387	0.0041
682.6218	0.0002
682.805	-0.0007
682.9881	0.0079
683.1712	0.0049
683.3542	0.0013
683.5373	0.0017
683.7203	-0.0079
683.9034	0.0015
684.0864	-0.0019
684.2694	-0.0026
684.4523	-0.0002
684.6353	-0.0021
684.8182	0.0052
685.0011	-0.0053
685.184	0.0096
685.3669	-0.0014
685.5498	0.008
685.7326	0.0001
685.9154	-0.0034
686.0982	0.0073
686.281	0.0032
686.4638	0.0049
686.6465	-0.0075
686.8293	0.0006
687.012	-0.0038
687.1947	-0.0055
687.3774	-0.0006
687.56	-0.0053
687.7427	0.0012
687.9253	-0.0031
688.1079	-0.0054
688.2905	0.0069
688.4731	0.0017
688.6556	0.0024
688.8382	0.0034
689.0207	0.0097
689.2032	-0.0065
689.3857	-0.0025
689.5681	-0.0105
689.7506	-0.0041
689.933	-0.0135
690.1154	0.0023
690.2978	0.0021
690.4802	-0.0019
690.6626	-0.0123
690.8449	-0.0017
691.0272	0.0031
691.2095	-0.0035
691.3918	-0.0004
691.5741	0.0036
691.7563	-0.0034
691.9386	-0.0018
692.1208	0.0004
692.303	0.0041
692.4852	-0.0002
692.6673	-0.002
692.8495	-0.0034
693.0316	0.0062
693.2137	0.007
693.3958	0.0054
693.5778	0.0022
693.7599	0.0035
693.9419	0.003
694.1239	-0.003
694.3059	0.0064
694.4879	0.0134
694.6699	0.007
694.8518	0.008
695.0337	-0.002
695.2157	0.0049
695.3975	0.0075
695.5794	0.0045
695.7613	0.0045
695.9431	0.0028
696.1249	-0.0006
696.3067	0.001
696.4885	0.0164
696.6703	0.0002
696.852	0.0061
697.0337	0.003
697.2154	0.0038
697.3971	0.0057
697.5788	0.008
697.7605	0.0023
697.9421	0.0093
698.1237	-0.0032
698.3053	0.0155
698.4869	0.0012
698.6685	0.0022
698.85	-0.003
699.0315	0.011
699.213	0.0029
699.3945	0.0051
699.576	0.0053
699.7575	0.0041
699.9389	0.0112
700.1203	-0.0004
700.3017	-0.0063
700.4831	-0.0033
700.6645	0.0009
700.8458	0.0036
701.0271	-0.0053
701.2084	0.0086
701.3897	0.0019
701.571	0.0022
701.7523	-0.0046
701.9335	0.0047
702.1147	-0.0003
702.2959	0.0002
702.4771	0.0062
702.6583	-0.0078
702.8394	-0.002
703.0205	0.008
703.2016	-0.0035
703.3827	0.0046
703.5638	0.0074
703.7449	0.0043
703.9259	0.0124
704.1069	-0.0067
704.2879	0.0053
704.4689	0.0007
704.6499	-0.004
704.8308	0.0028
705.0117	0.0018
705.1927	0.0102
705.3735	-0.0021
705.5544	0.003
705.7353	0.0079
705.9161	0.0007
706.0969	-0.0022
706.2777	-0.0019
706.4585	-0.0029
706.6393	0.0014
706.82	-0.002
707.0007	0.0013
707.1815	-0.0018
707.3621	0.0058
707.5428	0.0011
707.7235	0.0115
707.9041	0.0025
708.0847	-0.0125
708.2653	0.0018
708.4459	-0.0187
708.6265	-0.0013
708.807	-0.0068
708.9875	-0.0062
709.168	-0.0152
709.3485	-0.0138
709.529	-0.006
709.7095	-0.0066
709.8899	-0.0075
710.0703	-0.0096
710.2507	-0.0042
710.4311	-0.007
710.6115	-0.0118
710.7918	-0.0098
710.9721	-0.0018
711.1524	-0.0022
711.3327	-0.0046
711.513	0.0007
711.6932	0.0021
711.8735	0.006
712.0537	0.0046
712.2339	0.0004
712.4141	-0.0056
712.5942	0.0026
712.7744	0.008
712.9545	-0.0067
713.1346	-0.0044
713.3147	-0.0103
713.4947	-0.0037
713.6748	-0.0052
713.8548	-0.0024
714.0348	-0.0002
714.2148	-0.0081
714.3948	0.0068
714.5748	-0.0031
714.7547	-0.0017
714.9346	0.0002
715.1145	0.0014
715.2944	-0.005
715.4743	-0.0038
715.6541	-0.0039
715.834	0.0028
716.0138	-0.0026
716.1936	-0.0076
716.3733	-0.0018
716.5531	0.0054
716.7328	-0.0057
716.9126	-0.0046
717.0923	-0.0075
717.2719	-0.0018
717.4516	0.0012
717.6312	0.0001
717.8109	-0.0086
717.9905	0.0057
718.1701	-0.0076
718.3496	-0.0071
718.5292	-0.0013
718.7087	-0.0032
718.8882	-0.0062
719.0677	0.0044
719.2472	-0.006
719.4267	0.0029
719.6061	-0.004
719.7856	0.0006
719.965	0.0051
720.1443	0.0017
720.3237	0.0054
720.5031	0.0075
720.6824	0.0026
720.8617	-0.0038
721.041	-0.0054
721.2203	0.012
721.3995	0.0076
721.5788	0.0014
721.758	0.0022
721.9372	0.0005
722.1164	-0.0008
722.2956	0.008
722.4747	-0.008
722.6538	0.0064
722.8329	0.0134
723.012	0.0058
723.1911	0.0001
723.3702	0
723.5492	0.0129
723.7282	0.0029
723.9072	-0.0041
724.0862	-0.0039
724.2652	0.0019
724.4441	-0.0002
724.623	-0.0092
724.8019	-0.005
724.9808	0.0002
725.1597	-0.0112
725.3385	0.0051
725.5174	0.0065
725.6962	0.0075
725.875	0.0018
726.0538	0.0042
726.2325	-0.0053
726.4112	0.0015
726.59	-0.0038
726.7687	-0.0093
726.9474	-0.0038
727.126	-0.0097
727.3047	0.0017
727.4833	-0.0004
727.6619	-0.0041
727.8405	-0.0089
728.0191	-0.0077
728.1976	0.0035
728.3762	0.0084
728.5547	-0.0032
728.7332	-0.0081
728.9116	-0.0001
729.0901	0.0073
729.2686	0.0011
729.447	-0.0007
729.6254	0.0023
729.8038	-0.0035
729.9821	-0.0072
730.1605	0.0027
730.3388	-0.0016
730.5171	0.0027
730.6954	-0.0098
730.8737	0.0027
731.0519	0.0002
731.2302	0.0069
731.4084	0.003
731.5866	0.0087
731.7648	-0.0002
731.9429	-0.0007
732.1211	-0.0007
732.2992	0.0004
732.4773	0.0014
732.6554	-0.0024
732.8335	0.0055
733.0115	0.0052
733.1896	0.0068
733.3676	-0.0044
733.5456	-0.0031
733.7235	0.0063
733.9015	0.0017
734.0794	0.0049
734.2574	0.0037
734.4353	-0.0005
734.6131	0.0068
734.791	0.0046
734.9689	0.0033
735.1467	0.011
735.3245	-0.0005
735.5023	-0.0035
735.68	-0.0047
735.8578	0.001
736.0355	-0.0159
736.2132	-0.0044
736.3909	-0.0045
736.5686	-0.007
736.7463	-0.0073
736.9239	-0.0008
737.1015	-0.0051
737.2791	0.0034
737.4567	0.0018
737.6343	-0.0024
737.8118	0.0086
737.9894	0.0034
738.1669	0.0009
738.3444	-0.0005
738.5218	0.0084
738.6993	0.0051
738.8767	-0.0052
739.0541	0.0146
739.2315	-0.0093
739.4089	0.0011
739.5863	0.0076
739.7636	0.0007
739.9409	0.0051
740.1182	0.005
740.2955	0.006
740.4728	-0.0003
740.65	-0.0058
740.8272	-0.0027
741.0044	0.0018
741.1816	0.0043
741.3588	-0.0059
741.5359	-0.0007
741.7131	-0.0041
741.8902	-0.0021
742.0673	0.0031
742.2444	-0.0047
742.4214	-0.0048
742.5985	-0.0077
742.7755	-0.0081
742.9525	-0.0125
743.1295	0.0092
743.3064	0.0036
743.4834	0.0072
743.6603	-0.0056
743.8372	0.007
744.0141	0.0148
744.191	0.0117
744.3678	0.0018
744.5446	0.0074
744.7215	0.0051
744.8982	0.0059
745.075	-0.011
745.2518	-0.0065
745.4285	0.005
745.6052	-0.0058
745.7819	0.0002
745.9586	0.0086
746.1353	-0.0024
746.3119	-0.0075
746.4885	-0.0074
746.6651	-0.002
746.8417	-0.0069
747.0183	-0.0037
747.1948	-0
747.3714	0.0024
747.5479	0.0105
747.7244	0
747.9008	0.0105
748.0773	0.0009
748.2537	0.0013
748.4301	-0.0066
748.6065	-0.0019
748.7829	0.0039
748.9593	0.0017
749.1356	-0.0064
749.3119	0.0033
749.4882	-0.0136
749.6645	0.0024
749.8408	-0.0102
750.017	-0.0063
750.1933	0.0008
750.3695	-0.01
750.5457	0.0132
750.7218	-0.0009
750.898	0.0008
751.0741	0.0045
751.2502	0.0014
751.4263	-0.0039
751.6024	0.0009
751.7784	0.0036
751.9545	-0.0101
752.1305	-0.0004
752.3065	-0.0004
752.4825	-0.0003
752.6584	-0.0107
752.8344	-0.0059
753.0103	-0.012
753.1862	-0.0046
753.3621	-0.0042
753.5379	-0.002
753.7138	-0.0038
753.8896	-0.0092
754.0654	0.0027
754.2412	0.0055
754.417	0.0028
754.5927	-0.0042
754.7685	-0.0159
754.9442	-0.0025
755.1199	0.0113
755.2956	0.0053
755.4712	0.0084
755.6469	0.0081
755.8225	-0.0014
755.9981	0.0048
756.1736	0.0067
756.3492	0.0055
756.5248	0.0009
756.7003	-0.0009
756.8758	0.0171
757.0513	-0.0067
757.2267	0.0006
757.4022	0.0062
757.5776	-0.0081
757.753	0.0087
757.9284	0.0101
758.1038	0.0021
758.2791	-0.0002
758.4545	-0.0067
758.6298	-0.0012
758.8051	0.002
758.9803	-0.0022
759.1556	-0.0033
759.3308	-0.0071
759.506	0.005
759.6812	0.0166
759.8564	0.0038
760.0316	0.0103
760.2067	0.006
760.3819	0.008
760.557	0.0149
760.732	0.0025
760.9071	0.0057
761.0821	0.0086
761.2572	0.0096
761.4322	0.0018
761.6072	0.007
761.7821	-0.0017
761.9571	0.0069
762.132	-0.0014
762.3069	-0.0107
762.4818	0.0001
762.6567	0.0022
762.8316	-0.0024
763.0064	-0.0067
763.1812	0.0038
763.356	-0.0076
763.5308	0.0039
763.7055	0
763.8803	-0.0093
764.055	-0.0061
764.2297	-0.0029
764.4044	-0.0062
764.579	-0.0106
764.7537	-0.0022
764.9283	0.0057
765.1029	-0.0082
765.2775	-0.0041
765.4521	-0.0063
765.6266	0.0024
765.8011	0.004
765.9756	-0.0011
766.1501	0.008
766.3246	-0.0057
766.4991	0.0014
766.6735	0.005
766.8479	-0.0057
767.0223	0.016
767.1967	-0.0041
767.371	-0.0055
767.5454	-0.0041
767.7197	0.0049
767.894	0.0066
768.0683	-0.0047
768.2425	0.0083
768.4168	0.0033
768.591	0.0076
768.7652	0.0129
768.9394	-0.0012
769.1135	-0.0023
769.2877	0.0089
769.4618	-0.0003
769.6359	0.005
769.81	0.003
769.984	0.0093
770.1581	-0.0172
770.3321	-0.0054
770.5061	-0.0144
770.6801	0.001
770.8541	0.0022
771.028	-0.0028
771.202	-0.0076
771.3759	0.0076
771.5498	-0.0044
771.7236	0.0076
771.8975	-0.0024
772.0713	0.0012
772.2451	-0.0018
772.4189	0.003
772.5927	0.0045
772.7665	-0.0007
772.9402	0.0003
773.1139	0.001
773.2876	-0.0051
773.4613	0.0165
773.635	0.0132
773.8086	-0.0058
773.9822	-0.0026
774.1558	-0.0008
774.3294	-0.0177
774.503	0.0107
774.6765	0.0073
774.8501	0.0063
775.0236	-0.0006
775.1971	0.012
775.3705	-0.0191
775.544	0.0033
775.7174	-0.0025
775.8908	0.0045
776.0642	-0.0105
776.2376	0.0039
776.4109	-0.004
776.5843	-0.0053
776.7576	0.008
776.9309	0.0082
777.1041	0.0009
777.2774	-0.0023
777.4506	0.0023
777.6238	-0.0002
777.797	-0.0082
777.9702	-0.0021
778.1434	-0.0033
778.3165	-0.0134
778.4896	-0.0101
778.6627	-0.003
778.8358	0.0049
779.0089	-0.0053
779.1819	-0.0076
779.3549	0.011
779.5279	-0.0018
779.7009	-0.0042
779.8739	-0.0031
780.0468	-0.0006
780.2197	0.0028
780.3926	-0.0123
780.5655	-0.001
780.7384	0.0033
780.9112	0.0022
781.0841	-0.0102
781.2569	-0.0008
781.4297	0.0037
781.6024	0.0115
781.7752	0.0013
781.9479	0.0014
782.1206	-0.0033
782.2933	-0.0062
782.466	0.0004
782.6386	-0.0062
782.8113	-0.0002
782.9839	-0.0046
783.1565	0.0003
783.329	0.009
783.5016	0.0052
783.6741	0.0022
783.8466	-0.0063
784.0191	0.0136
784.1916	0.0001
784.3641	-0.0125
784.5365	-0.0041
784.7089	0.0044
784.8813	-0.0066
785.0537	-0.0033
785.2261	-0.0001
785.3984	-0.0228
785.5707	-0.0062
785.743	-0.0068
785.9153	-0.019
786.0876	-0.0024
786.2598	-0.0054
786.432	-0.0123
786.6042	0.0064
786.7764	-0.0183
786.9486	-0.0057
787.1207	-0.0232
787.2928	-0.0013
787.4649	-0.0038
787.637	0.003
787.8091	-0.0064
787.9811	-0.0126
788.1532	-0.007
788.3252	0.0084
788.4972	-0.0001
788.6691	-0.0117
788.8411	-0.0059
789.013	-0.0082
789.1849	0.0006
789.3568	0.006
789.5287	-0.0041
789.7005	-0.0044
789.8723	0.0017
790.0442	0.0095
790.2159	0.016
790.3877	0.0011
790.5595	-0.011
790.7312	0.0049
790.9029	-0.0103
791.0746	-0.0153
791.2463	-0.014
791.4179	0.0017
791.5896	-0.013
791.7612	-0.001
791.9328	0.0091
792.1044	0.0027
792.2759	-0.0179
792.4474	-0.0191
792.619	-0.0092
792.7905	0.0026
792.9619	0.0009
793.1334	0.0079
793.3048	0.013
793.4762	-0.0037
793.6476	0.0153
793.819	-0.0014
793.9904	0.0095
794.1617	-0.0156
794.333	-0.0074
794.5043	-0.0206
794.6756	-0.0045
794.8469	0.0037
795.0181	-0.0098
795.1893	-0.0023
795.3605	0.0036
795.5317	-0.0129
795.7029	-0.0101
795.874	0.0008
796.0452	-0.0088
796.2163	-0.002
796.3873	0.0127
796.5584	-0.0047
796.7294	-0.0026
796.9005	0.011
797.0715	0.005
797.2425	-0.0112
797.4134	-0.0041
797.5844	0.0086
797.7553	-0.0081
797.9262	-0.0057
798.0971	-0.0116
798.2679	-0.0035
798.4388	-0.0136
798.6096	-0.0118
798.7804	-0.0125
798.9512	-0.0115
799.122	-0.0087
799.2927	0.0082
799.4635	0.0102
799.6342	-0.0072
799.8049	0.0042
799.9755	-0.0179
800.1462	0.0034
800.3168	0.0051
800.4874	0.0211
800.658	0.035
800.8286	0.0036
800.9991	0.0156
801.1696	0.0032
801.3402	0.0181
801.5106	0.0005
801.6811	0.0013
801.8516	0.005
802.022	0.0021
802.1924	-0.0046
802.3628	0.0054
802.5332	0.0121
802.7035	0.0143
802.8739	-0.0114
803.0442	-0.0099
803.2145	0.0158
803.3847	-0.0205
803.555	0.0009
803.7252	-0.0127
803.8954	-0.0192
804.0656	-0.0113
804.2358	-0.0124
804.4059	0.0109
804.5761	0.0152
804.7462	-0.0012
804.9163	-0.0081
805.0864	-0.0178
805.2564	-0.0057
805.4264	0.0165
805.5965	-0.0202
805.7665	0.0042
805.9364	0.0087
806.1064	0.0266
806.2763	0.0116
806.4462	0.0064
806.6161	0.0097
806.786	-0.0145
806.9559	-0.0031
807.1257	0.0008
807.2955	-0.018
807.4653	-0.0056
807.6351	-0.0109
807.8048	0.0017
807.9746	0.0135
808.1443	0.0068
808.314	-0.0018
808.4837	-0.0044
808.6533	0.0266
808.8229	0.0273
808.9926	0.0083
809.1622	-0.0009
809.3317	-0.0133
809.5013	-0.0034
809.6708	0.0211
809.8403	0.0043
810.0098	0.0019
810.1793	-0.0047
810.3488	0.0118
810.5182	-0.0103
810.6876	-0.0032
810.857	-0.0207
811.0264	0.0205
811.1958	0.019
811.3651	-0.0064
811.5344	-0.0067
811.7037	-0.0097
811.873	-0.0145
812.0422	-0.0092
812.2115	-0.024
812.3807	-0.0412
812.5499	0.0072
812.7191	0.0091
812.8882	-0.0382
813.0574	-0.0046
813.2265	0.0061
813.3956	0.0075
813.5646	-0.0018
813.7337	-0.0108
813.9027	0.0155
814.0718	0.0245
814.2407	0.0199
814.4097	-0.009
814.5787	-0.0134
814.7476	-0.0004
814.9165	-0.012
815.0854	-0.0092
815.2543	0.0013
815.4232	0.0177
815.592	0.0175
815.7608	0.013
815.9296	0.0215
816.0984	0.012
816.2671	-0.0193
816.4359	0.0025
816.6046	-0.0048
816.7733	-0.0125
816.942	-0.0092
817.1106	0.0041
817.2793	-0.0002
817.4479	-0.0026
817.6165	0.0051
817.785	-0.0049
817.9536	-0.0118
818.1221	-0.0125
818.2906	0.0046
818.4591	0.0104
818.6276	-0.0119
818.7961	0.0156
818.9645	0.0329
819.1329	0.0255
819.3013	0.0281
819.4697	0.0271
819.638	0.0025
819.8064	0.007
819.9747	0.0026
820.143	0.0067
820.3113	-0.0002
820.4795	0.0129
820.6477	-0.0029
820.816	-0.0082
820.9842	-0.0161
821.1523	-0.0147
821.3205	-0.0055
821.4886	0.0002
821.6567	-0.0094
821.8248	-0.0023
821.9929	0.0088
822.1609	0.0066
822.329	0.0158
822.497	0.017
822.665	0.0021
822.833	-0.0257
823.0009	0.0245
823.1688	0.0108
823.3367	0.0428
823.5046	0.0398
823.6725	0.0251
823.8404	0.017
824.0082	-0.0256
824.176	0.038
824.3438	0.0114
824.5116	0.0052
824.6793	0.0182
824.847	-0.008
825.0147	-0.0045
825.1824	0.0493
825.3501	0.0017
825.5177	-0.0051
825.6854	-0.0338
825.853	0.0039
826.0206	-0.0377
826.1881	0.0049
826.3557	-0.0374
826.5232	-0.0011
826.6907	-0.0422
826.8582	0.0075
827.0257	-0.0197
827.1931	-0.0153
827.3605	0.0344
827.528	-0.0149
827.6953	-0.0034
827.8627	0.0016
828.03	0.0497
828.1974	0.0026
828.3647	-0.019
828.532	-0.0233
828.6992	0.0122
828.8665	-0.0041
829.0337	0.0017
829.2009	0.0165
829.3681	0.0002
829.5352	0.0203
829.7024	0.0067
829.8695	-0.0525
830.0366	0.0404
830.2037	-0.0182
830.3707	0.0077
830.5378	-0.0247
830.7048	0.0169
830.8718	-0.0246
831.0388	-0.0188
831.2057	0.0154
831.3727	0.0033
831.5396	-0.0003
831.7065	-0.0292
831.8734	0.0293
832.0402	-0.0319
832.2071	0.0042
832.3739	-0.0254
832.5407	-0.0242
832.7075	-0.0187
832.8742	-0.0288
833.041	-0.0154
833.2077	0.0064
833.3744	-0.0027
833.541	0.0322
833.7077	-0.0193
833.8743	-0.0139
834.0409	0.0605
834.2075	-0.0085
834.3741	0.0283
834.5407	-0.0178
834.7072	0.0009
834.8737	-0.0286
835.0402	0.0016
835.2067	0.0407
835.3731	0.0123
835.5395	-0.0191
835.706	0.0466
835.8723	0.0039
836.0387	0.0217
836.2051	-0.0018
836.3714	-0.0396
836.5377	0.0287
836.704	-0.0199
836.8703	-0.0104
837.0365	-0.0246
837.2027	-0.0175
837.3689	-0.0004
837.5351	-0.0012
837.7013	-0.0355
837.8674	-0.0437
838.0335	-0.0005
838.1997	-0.0219
838.3657	-0.0335
838.5318	-0.0154
838.6978	0.0572
838.8639	0.0154
839.0299	0.0289
839.1958	-0.0609
839.3618	0.0389
839.5277	-0.0278
839.6937	-0.0198
839.8596	-0.0525
840.0254	0.0095
840.1913	0.0493
840.3571	0.0101
840.523	-0.0075
840.6888	0.0235
840.8545	-0.0129
841.0203	0.0182
841.186	0.0125
841.3517	-0.0041
841.5174	0.0191
841.6831	-0.0217
841.8488	0.0235
842.0144	0.0096
842.18	0.0148
842.3456	0.0245
842.5112	-0.0046
842.6767	-0.0198
842.8422	-0.0335
843.0077	-0.0256
843.1732	-0.049
843.3387	-0.0151
843.5042	-0.0133
843.6696	0.0103
843.835	-0.006
844.0004	0.0348
844.1657	0.0024
844.3311	-0.0403
844.4964	-0.0651
844.6617	0.0016
844.827	-0.0144
844.9923	-0.0283
845.1575	0.0301
845.3227	0.0086
845.4879	0.0621
845.6531	-0.0618
845.8183	-0.1076
845.9834	-0.0081
846.1485	-0.0229
846.3136	-0.0218
846.4787	-0.1149
846.6438	0.0592
846.8088	-0.0675
846.9738	-0.074
847.1388	-0.0174
847.3038	-0.0692
847.4687	-0.1746
847.6337	0.0879
847.7986	-0.0087
847.9635	-0.0572
848.1284	0.0362
848.2932	0.0567
848.458	-0.043
848.6228	0.0368
848.7876	0.0357
848.9524	-0.0678
849.1172	-0.0791
849.2819	0.037
849.4466	-0.0797
849.6113	-0.0802
849.7759	-0.0466
849.9406	0.0111
850.1052	0.0149
850.2698	-0.051
850.4344	-0.0332
850.599	-0.0447
850.7635	-0.0102
850.928	-0.086
851.0925	-0.0143
851.257	0.0061
851.4215	0.0319
851.5859	0.0328
851.7503	0.0687
851.9147	-0.0123
852.0791	-0.0529
852.2434	-0.0123
852.4078	-0.014
852.5721	0.0431
852.7364	-0.0344
852.9007	-0.1329
853.0649	-0.0562
853.2291	-0.028
853.3934	-0.0451
853.5575	-0.0899
853.7217	-0.1376
853.8859	-0.1802
854.05	-0.1364
854.2141	-0.1511
854.3782	-0.0622
854.5423	-0.0267
854.7063	0.0658
854.8703	0.0239
855.0343	0.0045
855.1983	-0.1555
855.3623	0.1109
855.5262	0.0696
855.6901	-0.0811
855.854	0.0199
856.0179	0.0144
856.1818	0.0314
856.3456	-0.142
856.5094	-0.1416
856.6732	-0.2032
856.837	-0.0692
857.0008	0.0244
857.1645	-0.1638
857.3282	-0.268
857.4919	0.0668
857.6556	0.2354
857.8192	0.0807
857.9828	-0.0523
858.1465	0.03
858.31	-0.2285
858.4736	-0.0123
858.6372	-0.4353
858.8007	-0.109
858.9642	-0.2589
859.1277	0.0726
859.2911	0.0257
859.4546	0.0217
859.618	-0.5471
859.7814	-0.0495
859.9448	-0.0475
860.1081	-0.0031
860.2715	0.0988
860.4348	-0.0318
860.5981	-0.1244
860.7614	0.0076
860.9246	0.0891
861.0879	0.0967
861.2511	0.0788
861.4143	-0.0264
861.5774	0.3365
861.7406	-0.0508
861.9037	0.0057
862.0668	0.0601
862.2299	-0.0825
862.393	-0.6469
862.556	-0.0961
862.7191	-0.1266
862.8821	-0.364
863.0451	-0.1047
863.208	0.0017
863.371	-0.0797
863.5339	-0.3903
863.6968	-0.0707
863.8597	0.0407
864.0225	-0.1077
864.1854	0.1175
864.3482	0.0174
864.511	0.0531
864.6737	0.1067
864.8365	0.144
864.9992	-0.1589
865.1619	-0.8057
865.3246	0.5902
865.4873	0.0491
865.65	-0.3338
865.8126	-0.3104
865.9752	0.1901
866.1378	-0.2252
866.3004	0.734
866.4629	0.729
866.6254	0.4019
866.7879	0.3378
866.9504	-0.4351
867.1129	-0
867.2753	0.2783
867.4377	0.0668
867.6001	-0.4157
867.7625	0.5963
867.9249	-0.6981
868.0872	0.3834
868.2495	0.082
868.4118	-0.2642
868.5741	0.0962
868.7363	-0.166
868.8986	-0.4629
869.0608	-0.0434
869.223	-0.0316
869.3851	0.2412
869.5473	1.9412
869.7094	0.1814
869.8715	0.0151
870.0336	-0
870.1957	0.0652
870.3577	-0
870.5197	-0.038
870.6817	-0.295
870.8437	0.0601
871.0057	-0
871.1676	-0.1901
871.3295	-0.1164
871.4914	-0.0359
871.6533	-0.2177
871.8151	-0.2187
871.977	-0
872.1388	-0
872.3006	-0
872.4623	-0
872.6241	0.1557
872.7858	-0.1716
872.9475	0.4507
873.1092	0.0202
873.2709	-0
873.4325	-0.0848
873.5941	0.2186
873.7557	-0.5021
873.9173	-0
874.0789	-0.4256
874.2404	-0.4402
874.4019	0.927
874.5634	0.1766
874.7249	-0.2646
874.8863	-0.1039
875.0478	-0
875.2092	-0
875.3706	0.5751
875.5319	-0.9836
875.6933	-0.1222
875.8546	0.0333
876.0159	-0
876.1772	0.4938
876.3385	-0
876.4997	0.0547
876.6609	-0.2106
876.8221	-0.5807
876.9833	-0
877.1445	-0
877.3056	0.088
877.4667	-0.2532
877.6278	-0
877.7889	-0.7346
877.9499	-0
878.111	0.4702
878.272	-0
878.433	-0
878.5939	-0
878.7549	-0.041
878.9158	-0.8751
879.0767	0.3866
879.2376	-0
879.3984	-0.0679
879.5593	-0
879.7201	-0.0623
879.8809	-0.7692
880.0417	-0
880.2024	-0.2783
880.3632	-1.2295
880.5239	0.1989
880.6846	0.2844
880.8452	-2.4385
881.0059	-0.9956
881.1665	-0.0611
881.3271	0.29
881.4877	-0
881.6483	-0.5313
881.8088	-0.0313
881.9693	-0
882.1298	-0
882.2903	-0
