Data from MonoPyChalIsomerACN10uM440nmA_Absorbance_15-27-14-294.txt Node
Date: Fri Jul 05 15:27:14 BST 2024
User: LASERRRRR
Spectrometer: FLMT03099
Trigger mode: 0
Integration Time (sec): 1.000000E-1
Scans to average: 1
Electric dark correction enabled: true
Nonlinearity correction enabled: false
Boxcar width: 0
XAxis mode: Wavelengths
Number of Pixels in Spectrum: 3648
>>>>>Begin Spectral Data<<<<<
179.3399	-0
179.5586	-0
179.7771	-0
179.9957	0.3778
180.2143	-0
180.4329	-0.1615
180.6514	-0
180.8699	-0
181.0885	-0.1328
181.307	0.0264
181.5255	-0.0435
181.744	-0.2623
181.9625	0.3112
182.181	-0.6419
182.3994	0.4165
182.6179	0.1027
182.8363	0.1772
183.0547	-0.0602
183.2732	-0.0881
183.4916	0.3636
183.71	0.1797
183.9284	0.0162
184.1467	-0.0429
184.3651	-0.1027
184.5835	0.0122
184.8018	0.2963
185.0201	0.1982
185.2385	-0.1011
185.4568	0.4143
185.6751	-0.0076
185.8934	0.1851
186.1117	-0.0086
186.3299	0.0447
186.5482	0.349
186.7664	0.0434
186.9847	-0.0105
187.2029	0.1924
187.4211	0.0456
187.6393	0.0854
187.8575	0.0898
188.0757	0.2296
188.2939	0.0324
188.512	-0.188
188.7302	0.0813
188.9483	0.1218
189.1665	0.2635
189.3846	0.8804
189.6027	0.2847
189.8208	0.2715
190.0389	0.1036
190.257	0.1987
190.475	0.0738
190.6931	0.1003
190.9111	0.1744
191.1292	0.4174
191.3472	0.4591
191.5652	0.3698
191.7832	0.1452
192.0012	0.6477
192.2192	0.2602
192.4371	0.4431
192.6551	0.3707
192.873	0.3749
193.091	0.3628
193.3089	0.3658
193.5268	0.8563
193.7447	0.636
193.9626	0.4702
194.1805	0.7601
194.3984	1.391
194.6162	0.443
194.8341	0.4138
195.0519	0.7954
195.2697	0.9033
195.4875	0.6567
195.7054	0.4269
195.9231	0.643
196.1409	0.479
196.3587	0.5911
196.5765	0.6302
196.7942	0.9324
197.012	0.5612
197.2297	0.6646
197.4474	0.9488
197.6651	0.587
197.8828	0.5663
198.1005	0.7287
198.3182	0.5258
198.5358	0.8245
198.7535	0.6473
198.9711	0.5138
199.1888	0.649
199.4064	0.7747
199.624	0.5597
199.8416	0.6065
200.0592	0.8463
200.2767	0.6481
200.4943	0.6629
200.7119	0.9096
200.9294	0.6173
201.1469	0.6297
201.3645	0.689
201.582	0.5545
201.7995	0.6509
202.017	0.6469
202.2344	0.6469
202.4519	0.7126
202.6694	0.6105
202.8868	0.6882
203.1042	0.7271
203.3217	0.6849
203.5391	0.5621
203.7565	0.6678
203.9739	0.6444
204.1913	0.6697
204.4086	0.7484
204.626	0.7203
204.8433	0.6518
205.0607	0.6055
205.278	0.6829
205.4953	0.4906
205.7126	0.6062
205.9299	0.6746
206.1472	0.7279
206.3644	0.7076
206.5817	0.6557
206.7989	0.749
207.0162	0.6684
207.2334	0.7563
207.4506	0.6432
207.6678	0.7
207.885	0.6401
208.1022	0.6746
208.3194	0.628
208.5365	0.6698
208.7537	0.6912
208.9708	0.5398
209.1879	0.6573
209.405	0.7057
209.6222	0.7433
209.8392	0.68
210.0563	0.6377
210.2734	0.6667
210.4905	0.7253
210.7075	0.6989
210.9245	0.6379
211.1416	0.6663
211.3586	0.6882
211.5756	0.6547
211.7926	0.6202
212.0096	0.6133
212.2265	0.5933
212.4435	0.575
212.6604	0.67
212.8774	0.6425
213.0943	0.5469
213.3112	0.5505
213.5281	0.5251
213.745	0.4661
213.9619	0.4842
214.1788	0.4924
214.3956	0.4598
214.6125	0.508
214.8293	0.4731
215.0461	0.4571
215.2629	0.4676
215.4798	0.4992
215.6965	0.4234
215.9133	0.4323
216.1301	0.4277
216.3469	0.4337
216.5636	0.4327
216.7803	0.3826
216.9971	0.424
217.2138	0.4068
217.4305	0.3716
217.6472	0.3421
217.8639	0.356
218.0805	0.374
218.2972	0.3358
218.5138	0.3225
218.7305	0.2924
218.9471	0.3106
219.1637	0.2935
219.3803	0.3011
219.5969	0.267
219.8135	0.2635
220.0301	0.2818
220.2466	0.2717
220.4632	0.2658
220.6797	0.237
220.8962	0.2463
221.1127	0.2633
221.3292	0.2535
221.5457	0.2188
221.7622	0.2205
221.9787	0.2433
222.1951	0.246
222.4116	0.2505
222.628	0.2495
222.8444	0.2622
223.0608	0.2352
223.2772	0.2334
223.4936	0.256
223.71	0.2313
223.9264	0.2653
224.1427	0.2433
224.3591	0.2621
224.5754	0.2435
224.7917	0.2449
225.008	0.2476
225.2243	0.2609
225.4406	0.2879
225.6569	0.2807
225.8732	0.2612
226.0894	0.2785
226.3057	0.2708
226.5219	0.283
226.7381	0.2705
226.9543	0.2604
227.1705	0.2803
227.3867	0.2742
227.6029	0.2892
227.8191	0.2808
228.0352	0.2849
228.2513	0.313
228.4675	0.3107
228.6836	0.2913
228.8997	0.2915
229.1158	0.3143
229.3319	0.3175
229.548	0.315
229.764	0.3143
229.9801	0.3244
230.1961	0.3333
230.4121	0.3382
230.6282	0.3453
230.8442	0.3336
231.0602	0.3375
231.2761	0.3412
231.4921	0.353
231.7081	0.3558
231.924	0.3429
232.14	0.3758
232.3559	0.3445
232.5718	0.3649
232.7877	0.3613
233.0036	0.3511
233.2195	0.3723
233.4353	0.343
233.6512	0.37
233.867	0.3603
234.0829	0.3604
234.2987	0.3603
234.5145	0.3876
234.7303	0.3647
234.9461	0.3938
235.1619	0.3596
235.3776	0.36
235.5934	0.391
235.8091	0.3463
236.0249	0.3708
236.2406	0.387
236.4563	0.3737
236.672	0.391
236.8877	0.3884
237.1034	0.3983
237.319	0.4111
237.5347	0.3876
237.7503	0.3996
237.966	0.4005
238.1816	0.4219
238.3972	0.4028
238.6128	0.3931
238.8284	0.4131
239.0439	0.4247
239.2595	0.4031
239.475	0.4086
239.6906	0.3991
239.9061	0.4177
240.1216	0.3926
240.3371	0.3932
240.5526	0.4075
240.7681	0.4029
240.9836	0.4101
241.199	0.3941
241.4145	0.3794
241.6299	0.3683
241.8453	0.388
242.0607	0.3779
242.2761	0.3556
242.4915	0.3654
242.7069	0.3441
242.9223	0.3593
243.1376	0.3533
243.353	0.351
243.5683	0.3454
243.7836	0.3247
243.9989	0.3242
244.2142	0.3084
244.4295	0.3132
244.6448	0.3107
244.86	0.3075
245.0753	0.2889
245.2905	0.292
245.5057	0.2676
245.721	0.2777
245.9362	0.265
246.1514	0.2767
246.3665	0.2587
246.5817	0.2541
246.7969	0.2534
247.012	0.25
247.2271	0.2359
247.4423	0.2468
247.6574	0.2329
247.8725	0.2462
248.0876	0.2224
248.3026	0.2228
248.5177	0.2225
248.7328	0.2062
248.9478	0.2111
249.1628	0.217
249.3779	0.2177
249.5929	0.2085
249.8079	0.2229
250.0228	0.1954
250.2378	0.1945
250.4528	0.2048
250.6677	0.1855
250.8827	0.1907
251.0976	0.195
251.3125	0.1892
251.5274	0.1821
251.7423	0.1772
251.9572	0.1748
252.172	0.1757
252.3869	0.1883
252.6017	0.1818
252.8166	0.1683
253.0314	0.1759
253.2462	0.1667
253.461	0.1747
253.6758	0.1876
253.8906	0.1749
254.1053	0.1613
254.3201	0.1745
254.5348	0.1681
254.7496	0.1675
254.9643	0.1672
255.179	0.1778
255.3937	0.1633
255.6083	0.1799
255.823	0.159
256.0377	0.1644
256.2523	0.1683
256.467	0.1559
256.6816	0.174
256.8962	0.161
257.1108	0.159
257.3254	0.1735
257.54	0.1611
257.7545	0.1682
257.9691	0.1752
258.1836	0.1634
258.3981	0.1763
258.6127	0.1714
258.8272	0.1526
259.0417	0.1684
259.2561	0.1571
259.4706	0.1667
259.6851	0.1677
259.8995	0.1651
260.114	0.1554
260.3284	0.1516
260.5428	0.1582
260.7572	0.1631
260.9716	0.1585
261.186	0.1582
261.4003	0.1625
261.6147	0.1632
261.829	0.1618
262.0433	0.1547
262.2577	0.1615
262.472	0.1652
262.6863	0.1631
262.9005	0.161
263.1148	0.1645
263.3291	0.1544
263.5433	0.1669
263.7576	0.1678
263.9718	0.1559
264.186	0.1622
264.4002	0.1559
264.6144	0.1589
264.8286	0.1653
265.0427	0.1612
265.2569	0.1528
265.471	0.161
265.6851	0.1554
265.8993	0.1641
266.1134	0.1522
266.3275	0.1668
266.5415	0.1575
266.7556	0.1565
266.9697	0.1618
267.1837	0.1508
267.3978	0.1634
267.6118	0.1692
267.8258	0.1605
268.0398	0.1525
268.2538	0.1673
268.4677	0.1613
268.6817	0.1466
268.8957	0.1547
269.1096	0.1637
269.3235	0.1604
269.5374	0.1565
269.7514	0.1555
269.9652	0.1478
270.1791	0.1437
270.393	0.1511
270.6068	0.1538
270.8207	0.1466
271.0345	0.1306
271.2483	0.1491
271.4622	0.147
271.676	0.1522
271.8897	0.1385
272.1035	0.1363
272.3173	0.142
272.531	0.1461
272.7448	0.1432
272.9585	0.1434
273.1722	0.1578
273.3859	0.144
273.5996	0.1298
273.8133	0.142
274.0269	0.1338
274.2406	0.1413
274.4542	0.1362
274.6679	0.1488
274.8815	0.1399
275.0951	0.1464
275.3087	0.1529
275.5223	0.1495
275.7358	0.1395
275.9494	0.1415
276.1629	0.134
276.3765	0.1548
276.59	0.1448
276.8035	0.1406
277.017	0.1376
277.2305	0.145
277.444	0.1493
277.6574	0.1311
277.8709	0.1661
278.0843	0.1296
278.2978	0.1368
278.5112	0.139
278.7246	0.1554
278.938	0.1545
279.1513	0.1488
279.3647	0.1593
279.5781	0.1539
279.7914	0.1481
280.0047	0.1463
280.2181	0.17
280.4314	0.156
280.6447	0.1502
280.8579	0.1545
281.0712	0.1475
281.2845	0.146
281.4977	0.1562
281.711	0.1392
281.9242	0.1542
282.1374	0.1535
282.3506	0.1574
282.5638	0.16
282.7769	0.1612
282.9901	0.1526
283.2033	0.165
283.4164	0.1531
283.6295	0.1414
283.8426	0.1544
284.0557	0.1567
284.2688	0.173
284.4819	0.1625
284.695	0.1565
284.908	0.1561
285.1211	0.1555
285.3341	0.1529
285.5471	0.16
285.7601	0.1563
285.9731	0.1491
286.1861	0.1516
286.3991	0.1667
286.612	0.165
286.825	0.1657
287.0379	0.1599
287.2508	0.1569
287.4637	0.1643
287.6766	0.1515
287.8895	0.1694
288.1024	0.1765
288.3152	0.1622
288.5281	0.1572
288.7409	0.1601
288.9538	0.1648
289.1666	0.1624
289.3794	0.1658
289.5922	0.1556
289.8049	0.1584
290.0177	0.1533
290.2304	0.1644
290.4432	0.1579
290.6559	0.167
290.8686	0.175
291.0813	0.1659
291.294	0.1748
291.5067	0.1701
291.7194	0.1556
291.932	0.1712
292.1447	0.1685
292.3573	0.1482
292.5699	0.1697
292.7825	0.1615
292.9951	0.1519
293.2077	0.1554
293.4203	0.157
293.6328	0.1597
293.8454	0.1652
294.0579	0.1619
294.2704	0.1575
294.4829	0.1496
294.6954	0.1675
294.9079	0.1632
295.1204	0.1708
295.3328	0.1573
295.5453	0.1722
295.7577	0.1673
295.9701	0.1551
296.1825	0.168
296.3949	0.1447
296.6073	0.1651
296.8197	0.1484
297.0321	0.1728
297.2444	0.1523
297.4567	0.1568
297.6691	0.1724
297.8814	0.1556
298.0937	0.165
298.306	0.1522
298.5182	0.1518
298.7305	0.17
298.9428	0.1625
299.155	0.1687
299.3672	0.1629
299.5794	0.1601
299.7916	0.1578
300.0038	0.1611
300.216	0.1627
300.4282	0.158
300.6403	0.1551
300.8525	0.1634
301.0646	0.1507
301.2767	0.1617
301.4888	0.1613
301.7009	0.1628
301.913	0.1586
302.125	0.1601
302.3371	0.1535
302.5491	0.1601
302.7612	0.1794
302.9732	0.1559
303.1852	0.1734
303.3972	0.1586
303.6092	0.1498
303.8211	0.1424
304.0331	0.1562
304.245	0.1609
304.457	0.1668
304.6689	0.1487
304.8808	0.1665
305.0927	0.145
305.3046	0.1491
305.5164	0.1573
305.7283	0.1445
305.9401	0.1476
306.152	0.1532
306.3638	0.1567
306.5756	0.1412
306.7874	0.1448
306.9992	0.1494
307.2109	0.1339
307.4227	0.1238
307.6344	0.1401
307.8462	0.1258
308.0579	0.1401
308.2696	0.1264
308.4813	0.1318
308.693	0.1324
308.9046	0.1367
309.1163	0.1293
309.328	0.1242
309.5396	0.113
309.7512	0.1264
309.9628	0.1157
310.1744	0.1197
310.386	0.119
310.5976	0.1187
310.8091	0.1197
311.0207	0.1216
311.2322	0.1254
311.4437	0.0991
311.6552	0.1083
311.8667	0.117
312.0782	0.0924
312.2897	0.1043
312.5012	0.1145
312.7126	0.109
312.924	0.097
313.1355	0.1145
313.3469	0.1061
313.5583	0.1093
313.7696	0.1124
313.981	0.1045
314.1924	0.0978
314.4037	0.1046
314.6151	0.114
314.8264	0.1008
315.0377	0.1042
315.249	0.1025
315.4603	0.0982
315.6716	0.1031
315.8828	0.094
316.0941	0.094
316.3053	0.0857
316.5165	0.0837
316.7277	0.0978
316.9389	0.11
317.1501	0.0878
317.3613	0.1029
317.5724	0.0842
317.7836	0.101
317.9947	0.102
318.2058	0.1019
318.417	0.0845
318.6281	0.0944
318.8391	0.0873
319.0502	0.0967
319.2613	0.0876
319.4723	0.1058
319.6834	0.0993
319.8944	0.0929
320.1054	0.095
320.3164	0.0903
320.5274	0.094
320.7383	0.0989
320.9493	0.0954
321.1602	0.1124
321.3712	0.0848
321.5821	0.0958
321.793	0.1111
322.0039	0.0915
322.2148	0.0894
322.4257	0.0955
322.6365	0.1069
322.8474	0.1049
323.0582	0.0959
323.269	0.1087
323.4798	0.1023
323.6906	0.0961
323.9014	0.1051
324.1122	0.0972
324.3229	0.0911
324.5337	0.1071
324.7444	0.0862
324.9551	0.1132
325.1658	0.0996
325.3765	0.1034
325.5872	0.0996
325.7979	0.1041
326.0085	0.0994
326.2192	0.1061
326.4298	0.0975
326.6404	0.0973
326.851	0.1043
327.0616	0.1014
327.2722	0.1016
327.4828	0.1089
327.6933	0.102
327.9039	0.1072
328.1144	0.1031
328.3249	0.115
328.5354	0.0993
328.7459	0.0983
328.9564	0.0922
329.1669	0.1092
329.3773	0.0968
329.5878	0.1013
329.7982	0.1003
330.0086	0.101
330.219	0.1096
330.4294	0.1082
330.6398	0.0994
330.8502	0.1004
331.0605	0.106
331.2708	0.1096
331.4812	0.1153
331.6915	0.1119
331.9018	0.1109
332.1121	0.1048
332.3224	0.1132
332.5326	0.115
332.7429	0.1016
332.9531	0.1146
333.1633	0.1177
333.3735	0.1069
333.5837	0.1124
333.7939	0.1033
334.0041	0.1125
334.2143	0.1173
334.4244	0.1133
334.6346	0.0996
334.8447	0.1201
335.0548	0.1004
335.2649	0.1033
335.475	0.1166
335.685	0.105
335.8951	0.118
336.1051	0.1112
336.3152	0.1137
336.5252	0.0938
336.7352	0.1172
336.9452	0.1057
337.1552	0.1136
337.3652	0.1147
337.5751	0.1195
337.7851	0.1121
337.995	0.1085
338.2049	0.1226
338.4148	0.1206
338.6247	0.13
338.8346	0.1028
339.0445	0.1077
339.2543	0.1106
339.4642	0.1158
339.674	0.095
339.8838	0.1142
340.0936	0.1131
340.3034	0.1268
340.5132	0.1161
340.7229	0.1156
340.9327	0.1221
341.1424	0.1179
341.3522	0.1289
341.5619	0.1209
341.7716	0.1246
341.9813	0.1267
342.1909	0.1206
342.4006	0.1348
342.6102	0.1263
342.8199	0.1201
343.0295	0.1175
343.2391	0.1225
343.4487	0.1339
343.6583	0.1155
343.8679	0.123
344.0774	0.1276
344.287	0.1335
344.4965	0.1237
344.706	0.1345
344.9155	0.1205
345.125	0.1258
345.3345	0.1239
345.544	0.1194
345.7534	0.1341
345.9629	0.1356
346.1723	0.1227
346.3817	0.1198
346.5911	0.1162
346.8005	0.1296
347.0099	0.1364
347.2193	0.1267
347.4286	0.13
347.638	0.1505
347.8473	0.1432
348.0566	0.1368
348.2659	0.1372
348.4752	0.1268
348.6845	0.122
348.8937	0.1225
349.103	0.136
349.3122	0.1277
349.5214	0.1229
349.7306	0.1388
349.9398	0.138
350.149	0.14
350.3582	0.1245
350.5674	0.1433
350.7765	0.1457
350.9856	0.1355
351.1948	0.1412
351.4039	0.1173
351.613	0.1331
351.822	0.1421
352.0311	0.1543
352.2402	0.14
352.4492	0.1474
352.6582	0.1591
352.8672	0.1444
353.0762	0.1404
353.2852	0.1492
353.4942	0.1296
353.7032	0.1415
353.9121	0.1447
354.1211	0.1446
354.33	0.1467
354.5389	0.155
354.7478	0.1543
354.9567	0.1479
355.1655	0.1375
355.3744	0.161
355.5833	0.1504
355.7921	0.1808
356.0009	0.1617
356.2097	0.169
356.4185	0.1662
356.6273	0.1678
356.8361	0.1675
357.0448	0.1548
357.2536	0.1499
357.4623	0.1648
357.671	0.1619
357.8797	0.1644
358.0884	0.1667
358.2971	0.1679
358.5057	0.1827
358.7144	0.1748
358.923	0.1624
359.1316	0.1613
359.3402	0.1786
359.5488	0.1644
359.7574	0.1616
359.966	0.1638
360.1746	0.1618
360.3831	0.1771
360.5916	0.1592
360.8002	0.1714
361.0087	0.1785
361.2172	0.1763
361.4256	0.1903
361.6341	0.1872
361.8426	0.1799
362.051	0.1807
362.2594	0.183
362.4678	0.1741
362.6762	0.2007
362.8846	0.2007
363.093	0.1683
363.3014	0.1892
363.5097	0.1674
363.718	0.1834
363.9264	0.1882
364.1347	0.1742
364.343	0.2096
364.5513	0.1989
364.7595	0.2077
364.9678	0.1771
365.176	0.198
365.3842	0.181
365.5925	0.1962
365.8007	0.1917
366.0089	0.1982
366.217	0.1928
366.4252	0.2146
366.6333	0.2143
366.8415	0.192
367.0496	0.1825
367.2577	0.2052
367.4658	0.2026
367.6739	0.2114
367.882	0.2009
368.09	0.1882
368.2981	0.2019
368.5061	0.2082
368.7141	0.201
368.9221	0.224
369.1301	0.2184
369.3381	0.2085
369.5461	0.205
369.754	0.2143
369.962	0.2161
370.1699	0.2169
370.3778	0.2237
370.5857	0.2035
370.7936	0.2072
371.0015	0.2095
371.2093	0.2177
371.4172	0.2173
371.625	0.1966
371.8328	0.2077
372.0406	0.2287
372.2484	0.2166
372.4562	0.2201
372.664	0.2195
372.8717	0.2352
373.0795	0.2011
373.2872	0.2258
373.4949	0.2194
373.7026	0.2195
373.9103	0.241
374.118	0.2348
374.3256	0.2314
374.5333	0.2328
374.7409	0.2221
374.9485	0.2471
375.1561	0.2411
375.3637	0.2413
375.5713	0.2347
375.7789	0.2424
375.9864	0.2212
376.194	0.2275
376.4015	0.2481
376.609	0.2448
376.8165	0.2249
377.024	0.2286
377.2315	0.2243
377.4389	0.2506
377.6464	0.2527
377.8538	0.2432
378.0612	0.2326
378.2686	0.2414
378.476	0.2462
378.6834	0.253
378.8908	0.2439
379.0981	0.2477
379.3055	0.2354
379.5128	0.2617
379.7201	0.2448
379.9274	0.2446
380.1347	0.2514
380.342	0.275
380.5492	0.2399
380.7565	0.2611
380.9637	0.2468
381.1709	0.2568
381.3781	0.2559
381.5853	0.2677
381.7925	0.2525
381.9997	0.2718
382.2068	0.2565
382.4139	0.2556
382.6211	0.2437
382.8282	0.2635
383.0353	0.2352
383.2424	0.2587
383.4494	0.2587
383.6565	0.2418
383.8635	0.2552
384.0706	0.2701
384.2776	0.2606
384.4846	0.252
384.6916	0.2597
384.8986	0.2608
385.1055	0.2433
385.3125	0.2726
385.5194	0.2509
385.7263	0.2657
385.9333	0.2496
386.1402	0.2654
386.347	0.2573
386.5539	0.2384
386.7608	0.2689
386.9676	0.2546
387.1744	0.2594
387.3813	0.234
387.5881	0.2675
387.7948	0.2489
388.0016	0.2408
388.2084	0.2471
388.4151	0.2375
388.6219	0.2526
388.8286	0.2501
389.0353	0.2611
389.242	0.2608
389.4487	0.2414
389.6553	0.2341
389.862	0.2157
390.0686	0.2408
390.2753	0.2484
390.4819	0.2449
390.6885	0.2689
390.8951	0.2478
391.1016	0.2298
391.3082	0.2424
391.5147	0.2461
391.7213	0.2397
391.9278	0.2205
392.1343	0.2449
392.3408	0.2333
392.5473	0.2419
392.7537	0.2328
392.9602	0.2201
393.1666	0.2287
393.373	0.2506
393.5794	0.234
393.7858	0.2315
393.9922	0.2196
394.1986	0.2288
394.4049	0.2339
394.6113	0.2071
394.8176	0.2185
395.0239	0.227
395.2302	0.2303
395.4365	0.2112
395.6428	0.2207
395.8491	0.2177
396.0553	0.2203
396.2615	0.2168
396.4678	0.2095
396.674	0.2029
396.8802	0.2253
397.0863	0.2158
397.2925	0.2035
397.4987	0.2069
397.7048	0.1943
397.9109	0.2253
398.117	0.1996
398.3231	0.2093
398.5292	0.2327
398.7353	0.2183
398.9413	0.2118
399.1474	0.2023
399.3534	0.2248
399.5594	0.2095
399.7654	0.2241
399.9714	0.2191
400.1774	0.205
400.3833	0.2069
400.5893	0.2237
400.7952	0.2142
401.0011	0.2293
401.207	0.2349
401.4129	0.2255
401.6188	0.2128
401.8247	0.2023
402.0305	0.2162
402.2364	0.2196
402.4422	0.2219
402.648	0.2209
402.8538	0.2211
403.0596	0.2054
403.2654	0.2122
403.4711	0.2026
403.6768	0.2152
403.8826	0.2233
404.0883	0.2192
404.294	0.2174
404.4997	0.2175
404.7054	0.2208
404.911	0.2023
405.1167	0.2092
405.3223	0.205
405.5279	0.2076
405.7335	0.2262
405.9391	0.2327
406.1447	0.2111
406.3502	0.2354
406.5558	0.2028
406.7613	0.2258
406.9668	0.2167
407.1724	0.2175
407.3778	0.2141
407.5833	0.2196
407.7888	0.1964
407.9942	0.2185
408.1997	0.2152
408.4051	0.2149
408.6105	0.2133
408.8159	0.1991
409.0213	0.2037
409.2267	0.2238
409.432	0.1891
409.6374	0.2178
409.8427	0.2079
410.048	0.2068
410.2533	0.2105
410.4586	0.2164
410.6639	0.1897
410.8691	0.1965
411.0744	0.2082
411.2796	0.1955
411.4848	0.2067
411.69	0.1997
411.8952	0.2232
412.1004	0.2046
412.3056	0.2022
412.5107	0.2038
412.7158	0.2313
412.921	0.2097
413.1261	0.1933
413.3312	0.2111
413.5362	0.1989
413.7413	0.208
413.9464	0.1979
414.1514	0.2169
414.3564	0.2044
414.5614	0.2073
414.7664	0.2014
414.9714	0.2168
415.1764	0.2142
415.3813	0.2071
415.5863	0.2227
415.7912	0.2005
415.9961	0.2209
416.201	0.2165
416.4059	0.2194
416.6108	0.1855
416.8156	0.203
417.0205	0.1977
417.2253	0.1887
417.4301	0.2144
417.6349	0.1911
417.8397	0.193
418.0445	0.2055
418.2492	0.2013
418.454	0.1922
418.6587	0.1985
418.8634	0.1997
419.0681	0.1808
419.2728	0.1838
419.4775	0.1997
419.6822	0.2044
419.8868	0.1682
420.0915	0.1897
420.2961	0.1813
420.5007	0.1812
420.7053	0.1971
420.9099	0.1817
421.1144	0.2086
421.319	0.195
421.5235	0.2059
421.728	0.1973
421.9325	0.1818
422.137	0.1933
422.3415	0.1776
422.546	0.1839
422.7504	0.1842
422.9549	0.2018
423.1593	0.1882
423.3637	0.2034
423.5681	0.1948
423.7725	0.1895
423.9769	0.1564
424.1812	0.1902
424.3856	0.1663
424.5899	0.1853
424.7942	0.1839
424.9985	0.1882
425.2028	0.1626
425.4071	0.1953
425.6113	0.1578
425.8156	0.1639
426.0198	0.1789
426.224	0.1547
426.4282	0.1757
426.6324	0.162
426.8366	0.1716
427.0407	0.1758
427.2449	0.1491
427.449	0.1632
427.6531	0.1478
427.8572	0.1689
428.0613	0.1618
428.2654	0.1685
428.4694	0.1568
428.6735	0.1482
428.8775	0.1659
429.0815	0.1719
429.2855	0.1521
429.4895	0.1651
429.6935	0.1402
429.8975	0.1715
430.1014	0.1478
430.3053	0.137
430.5093	0.1413
430.7132	0.138
430.9171	0.1465
431.1209	0.1601
431.3248	0.1494
431.5286	0.1428
431.7325	0.1493
431.9363	0.1226
432.1401	0.1388
432.3439	0.1325
432.5477	0.1209
432.7514	0.1163
432.9552	0.1375
433.1589	0.1081
433.3627	0.116
433.5664	0.1106
433.7701	0.1205
433.9737	0.1179
434.1774	0.1127
434.3811	0.1085
434.5847	0.1241
434.7883	0.1144
434.9919	0.1038
435.1955	0.1236
435.3991	0.1204
435.6027	0.1149
435.8062	0.0971
436.0098	0.0831
436.2133	0.1061
436.4168	0.0949
436.6203	0.0907
436.8238	0.1124
437.0272	0.0972
437.2307	0.087
437.4341	0.0989
437.6375	0.0939
437.841	0.0756
438.0443	0.0982
438.2477	0.0933
438.4511	0.0743
438.6545	0.0753
438.8578	0.0987
439.0611	0.101
439.2644	0.0928
439.4677	0.0759
439.671	0.0547
439.8743	0.082
440.0775	0.0784
440.2808	0.0869
440.484	0.066
440.6872	0.0506
440.8904	0.0659
441.0936	0.0784
441.2967	0.0784
441.4999	0.0705
441.703	0.0756
441.9062	0.0669
442.1093	0.0736
442.3124	0.061
442.5155	0.0487
442.7185	0.0672
442.9216	0.0255
443.1246	0.0764
443.3276	0.0678
443.5307	0.055
443.7337	0.0593
443.9366	0.065
444.1396	0.0574
444.3426	0.0554
444.5455	0.0439
444.7484	0.0493
444.9513	0.0417
445.1542	0.0536
445.3571	0.0378
445.56	0.0516
445.7628	0.0369
445.9657	0.0491
446.1685	0.0604
446.3713	0.04
446.5741	0.0562
446.7769	0.0248
446.9797	0.0531
447.1824	0.0321
447.3852	0.0318
447.5879	0.0504
447.7906	0.0373
447.9933	0.0453
448.196	0.0253
448.3986	0.0336
448.6013	0.0305
448.8039	0.0126
449.0066	0.0349
449.2092	0.0444
449.4118	0.0364
449.6143	0.0323
449.8169	0.0421
450.0195	0.0173
450.222	0.0129
450.4245	0.0266
450.627	0.0419
450.8295	0.0285
451.032	0.0294
451.2345	0.035
451.4369	0.0359
451.6394	0.0255
451.8418	0.0163
452.0442	0.0121
452.2466	0.0342
452.449	0.0139
452.6513	0.0306
452.8537	0.0177
453.056	0.0145
453.2583	0.0243
453.4607	0.0133
453.663	0.0086
453.8652	0.0429
454.0675	0.0087
454.2697	0.0047
454.472	-0.0031
454.6742	0.0192
454.8764	0.0017
455.0786	0.0225
455.2808	0.0245
455.4829	0.018
455.6851	0.0152
455.8872	0.0144
456.0893	0.0177
456.2915	0.0045
456.4935	0.0264
456.6956	0.0141
456.8977	0.016
457.0997	0.0047
457.3018	0.0018
457.5038	0.0107
457.7058	0.0007
457.9078	0.0097
458.1098	0.0185
458.3117	0.0048
458.5137	0.0106
458.7156	0.0162
458.9175	-0.0057
459.1194	0.0126
459.3213	0.0035
459.5232	0.0145
459.725	0.0018
459.9269	0.0032
460.1287	-0.0001
460.3305	0.01
460.5323	0.0034
460.7341	0.0197
460.9359	-0.0029
461.1376	0.0039
461.3394	0.0082
461.5411	0.0204
461.7428	0.0126
461.9445	0.0216
462.1462	0.0164
462.3479	0.0049
462.5495	0.0022
462.7512	0.0071
462.9528	-0.0055
463.1544	-0.0129
463.356	0.0098
463.5576	-0.008
463.7592	-0.0054
463.9607	0.0092
464.1623	0.0255
464.3638	0.0157
464.5653	-0.017
464.7668	0.0091
464.9683	0.0097
465.1697	0.0158
465.3712	0.001
465.5726	-0.0045
465.7741	0.0005
465.9755	-0.0059
466.1769	0.0001
466.3782	0.0001
466.5796	-0.0036
466.7809	0.0094
466.9823	-0.0016
467.1836	-0.0079
467.3849	0.0029
467.5862	-0.0001
467.7875	-0.0047
467.9887	0.0105
468.19	-0.0119
468.3912	-0.0106
468.5924	0.0025
468.7936	0.0134
468.9948	-0.0042
469.196	0.0085
469.3972	-0.0123
469.5983	0.0075
469.7994	-0.0103
470.0006	-0.0057
470.2017	-0.0123
470.4027	-0.0093
470.6038	0.0065
470.8049	-0.0236
471.0059	-0.0088
471.2069	-0.0054
471.408	0.0009
471.6089	0.0161
471.8099	-0.0064
472.0109	0.0146
472.2119	-0.003
472.4128	-0.0073
472.6137	0.0048
472.8146	-0.0047
473.0155	-0.0045
473.2164	-0.0014
473.4173	0.0069
473.6181	0.0019
473.819	-0.0104
474.0198	-0.0065
474.2206	-0.0005
474.4214	0.003
474.6222	-0.0046
474.8229	-0.0002
475.0237	-0.0079
475.2244	-0.0031
475.4251	-0
475.6258	0.006
475.8265	0.002
476.0272	0.011
476.2278	0.0158
476.4285	-0.0027
476.6291	0.0025
476.8297	-0.0027
477.0303	-0.0057
477.2309	-0.0012
477.4315	-0.0058
477.632	-0.0041
477.8326	0.0008
478.0331	0.0094
478.2336	-0.0002
478.4341	-0.0076
478.6346	-0.0071
478.8351	-0.0032
479.0355	0.0036
479.236	-0.0118
479.4364	0.0068
479.6368	0.0128
479.8372	-0.0188
480.0376	0.0006
480.2379	-0.0198
480.4383	-0.0075
480.6386	0.0029
480.8389	-0.0012
481.0392	-0.0075
481.2395	-0.0095
481.4398	0.0133
481.6401	0.0039
481.8403	-0.005
482.0405	-0.0006
482.2408	0.0044
482.441	0.0071
482.6411	-0.0054
482.8413	-0.0057
483.0415	-0.0113
483.2416	-0.0131
483.4417	-0.0072
483.6419	-0.0026
483.8419	-0.0051
484.042	0.0056
484.2421	0.0141
484.4422	0.0019
484.6422	-0.0023
484.8422	0.0134
485.0422	-0.0068
485.2422	0.0049
485.4422	-0.0185
485.6422	-0.0073
485.8421	-0.0068
486.042	-0.0073
486.242	0.0002
486.4419	-0.0053
486.6417	-0.0107
486.8416	0.0002
487.0415	-0.0078
487.2413	-0.0084
487.4411	-0.0099
487.641	-0.0076
487.8408	0.0041
488.0405	-0.0059
488.2403	-0.0024
488.4401	-0.0062
488.6398	-0.0021
488.8395	-0.0079
489.0392	-0.008
489.2389	-0.0009
489.4386	-0.0026
489.6383	0.0079
489.8379	0.0055
490.0376	-0.0098
490.2372	-0.0077
490.4368	0.0022
490.6364	-0.0035
490.836	-0.0091
491.0355	-0.002
491.2351	-0.0056
491.4346	0.0008
491.6341	-0.0169
491.8336	0.0087
492.0331	-0.014
492.2326	-0.0124
492.432	0.0007
492.6315	-0.0001
492.8309	-0.0082
493.0303	-0.0122
493.2297	-0.0075
493.4291	-0.0056
493.6284	-0.0097
493.8278	0.0054
494.0271	-0.0012
494.2264	-0.0032
494.4257	-0.0122
494.625	0.0025
494.8243	-0.0151
495.0236	-0.013
495.2228	-0.013
495.422	-0.002
495.6213	-0.0032
495.8205	-0.0027
496.0196	-0.0025
496.2188	0.0034
496.418	-0.0018
496.6171	-0.004
496.8162	-0.013
497.0153	-0.0004
497.2144	-0.0059
497.4135	-0.0027
497.6126	-0.0006
497.8116	-0.0009
498.0107	0.0006
498.2097	-0.0117
498.4087	-0.0072
498.6077	0.0046
498.8067	-0.006
499.0056	0.0051
499.2046	-0.0006
499.4035	-0.0113
499.6024	-0.0033
499.8013	0.0003
500.0002	-0.0038
500.199	0.0036
500.3979	-0.0069
500.5967	-0.0169
500.7956	0.0099
500.9944	0.0082
501.1932	-0.0183
501.3919	-0.0026
501.5907	0.0012
501.7895	-0.0051
501.9882	-0.0075
502.1869	-0.0064
502.3856	-0.0009
502.5843	-0.0043
502.783	-0.0054
502.9816	-0.0074
503.1803	-0.0152
503.3789	-0.0108
503.5775	0.0041
503.7761	-0.0016
503.9747	-0.0022
504.1732	-0.0009
504.3718	-0.0015
504.5703	-0.0053
504.7689	-0.0087
504.9674	0.0017
505.1658	-0.007
505.3643	-0.0055
505.5628	-0.0045
505.7612	-0.012
505.9597	0.0015
506.1581	-0.0047
506.3565	0.0147
506.5549	-0.0074
506.7532	-0.0054
506.9516	-0.0053
507.1499	-0.0037
507.3482	-0.0056
507.5465	-0.0096
507.7448	-0.0052
507.9431	0.0012
508.1414	-0.0051
508.3396	-0
508.5379	-0.0045
508.7361	-0.0119
508.9343	0.0015
509.1325	0.0053
509.3306	-0.0054
509.5288	-0.0123
509.7269	-0.0116
509.9251	-0.0088
510.1232	-0.0079
510.3213	0.0006
510.5193	0.0038
510.7174	-0.0092
510.9154	-0.0112
511.1135	-0.0072
511.3115	-0.0023
511.5095	-0.0114
511.7075	0.003
511.9055	-0.0011
512.1034	-0.0061
512.3014	0.0106
512.4993	0.0005
512.6972	-0.01
512.8951	-0.0174
513.093	0.006
513.2908	0.0053
513.4887	0.0016
513.6865	-0.0056
513.8844	-0.0094
514.0822	-0.0077
514.2799	-0.0163
514.4777	-0.0076
514.6755	-0.007
514.8732	-0.0084
515.0709	-0.0022
515.2687	-0.0013
515.4664	0.0043
515.664	-0.0007
515.8617	0.0032
516.0594	-0.0157
516.257	0.0008
516.4546	-0.0135
516.6522	-0.0049
516.8498	-0.0054
517.0474	0.0097
517.2449	0.011
517.4425	-0.0204
517.64	-0.0003
517.8375	0.0003
518.035	0.0004
518.2325	-0.0119
518.43	-0.0002
518.6274	0.0076
518.8249	-0.0135
519.0223	0.0023
519.2197	-0.0123
519.4171	-0.0016
519.6145	-0.0076
519.8118	-0.0027
520.0092	-0.0027
520.2065	-0.0132
520.4038	-0.008
520.6011	-0.0001
520.7984	-0.0104
520.9956	-0.0013
521.1929	-0.0065
521.3901	-0.0004
521.5874	0.0062
521.7846	-0.0001
521.9818	-0.0083
522.1789	-0.0121
522.3761	-0.0058
522.5732	0.0015
522.7704	-0.0001
522.9675	0.0039
523.1646	0.0009
523.3617	-0.0022
523.5587	0.0106
523.7558	-0.0027
523.9528	-0.0024
524.1498	0.002
524.3468	-0.0019
524.5438	-0.0021
524.7408	-0.0048
524.9378	0.0074
525.1347	-0.0019
525.3316	-0.004
525.5285	0.0011
525.7254	-0.0064
525.9223	-0.0053
526.1192	0.0063
526.316	-0.003
526.5129	-0.0048
526.7097	-0.0009
526.9065	0.0037
527.1033	0.0053
527.3	0.0023
527.4968	-0.0069
527.6935	0.0109
527.8903	-0.0074
528.087	-0.016
528.2837	0.0078
528.4804	-0.0004
528.677	-0.0038
528.8737	0.0128
529.0703	0.0048
529.2669	-0.0058
529.4635	0.0035
529.6601	-0.008
529.8567	-0.0073
530.0532	-0.0047
530.2498	0.001
530.4463	0.007
530.6428	0.0037
530.8393	0.0029
531.0358	-0.0033
531.2322	-0.0098
531.4287	-0.0098
531.6251	-0.012
531.8215	0.0066
532.0179	-0.0022
532.2143	0.0119
532.4107	-0.0041
532.607	-0.0086
532.8034	0.0099
532.9997	0.006
533.196	0.0025
533.3923	-0.0036
533.5886	0.0015
533.7848	-0.0008
533.9811	-0.0084
534.1773	-0.0003
534.3735	0.0025
534.5697	0.0078
534.7659	0.0001
534.9621	0.0014
535.1582	-0.001
535.3544	-0.0024
535.5505	-0.0031
535.7466	0.0082
535.9427	-0.0034
536.1387	0.0057
536.3348	-0.0023
536.5308	0.0056
536.7269	-0.0131
536.9229	0.006
537.1189	0.0026
537.3148	-0.0111
537.5108	-0.0055
537.7068	-0.0008
537.9027	0.0056
538.0986	-0.0048
538.2945	-0.0055
538.4904	-0.0071
538.6863	-0.0042
538.8821	-0.0032
539.078	-0.0084
539.2738	0.001
539.4696	0.0042
539.6654	0.0026
539.8611	0.0004
540.0569	0.0013
540.2526	-0.0082
540.4484	-0.0053
540.6441	0.0106
540.8398	0.0056
541.0355	0.0033
541.2311	0.0001
541.4268	-0.004
541.6224	0.005
541.818	-0.0024
542.0136	-0.003
542.2092	-0.0003
542.4048	0.0042
542.6003	-0.0001
542.7959	0.0078
542.9914	-0.0002
543.1869	0.0086
543.3824	-0.0024
543.5779	-0.0015
543.7734	-0.0054
543.9688	0.002
544.1642	-0.0004
544.3596	-0.0038
544.555	-0.007
544.7504	0.0045
544.9458	-0.0069
545.1411	0.0011
545.3365	-0.0013
545.5318	-0.0053
545.7271	-0.0029
545.9224	-0.0056
546.1177	-0.0031
546.3129	0.0042
546.5081	-0
546.7034	0.0016
546.8986	-0.0061
547.0938	-0.0013
547.289	-0.0023
547.4841	-0.0005
547.6793	0.0043
547.8744	-0.0082
548.0695	-0.0028
548.2646	-0.0012
548.4597	0.0018
548.6548	0.0097
548.8498	-0.002
549.0448	0.0082
549.2399	0.0068
549.4349	0.0042
549.6298	0.0015
549.8248	0.0029
550.0198	-0.0013
550.2147	-0.0006
550.4096	0.0076
550.6045	0.0031
550.7994	-0.0014
550.9943	0.0053
551.1892	-0.0009
551.384	0.0118
551.5788	-0.0057
551.7737	0.0074
551.9685	-0.0022
552.1632	-0.0055
552.358	-0.0061
552.5528	-0.0004
552.7475	0.0003
552.9422	-0.0025
553.1369	0.0028
553.3316	0.0057
553.5263	-0.0072
553.7209	0.0073
553.9156	0.0026
554.1102	-0.0041
554.3048	-0.0003
554.4994	0.017
554.694	-0.0095
554.8885	0.008
555.0831	-0.0035
555.2776	0.001
555.4721	-0.0045
555.6666	-0.007
555.8611	0.0119
556.0555	0.0027
556.25	-0.0001
556.4444	-0.0091
556.6388	0.0036
556.8332	0.0007
557.0276	0.0017
557.222	0
557.4163	-0.0019
557.6107	-0.0057
557.805	0.0045
557.9993	-0.0066
558.1936	0.005
558.3879	0.0084
558.5821	0.0049
558.7764	-0.0072
558.9706	0.0032
559.1648	0.0038
559.359	-0.0084
559.5532	-0.0065
559.7473	-0.0048
559.9415	0.0049
560.1356	-0.0019
560.3297	-0.003
560.5238	-0.0046
560.7179	-0.0057
560.9119	-0.0063
561.106	0.0012
561.3	-0
561.494	0.0019
561.688	0.0024
561.882	-0.0098
562.076	-0.0075
562.2699	-0.0029
562.4639	0.0022
562.6578	0.0024
562.8517	0.0023
563.0456	0.0002
563.2395	0.0028
563.4333	0.006
563.6272	0.0093
563.821	-0.0053
564.0148	0.0033
564.2086	-0.0008
564.4024	-0.0002
564.5961	-0.0081
564.7899	0.0023
564.9836	0.0042
565.1773	0.0076
565.371	0.0095
565.5647	0.0095
565.7584	-0
565.952	-0.0015
566.1456	0.0011
566.3393	0.0003
566.5329	-0.0021
566.7264	0.0024
566.92	-0.001
567.1136	0.0061
567.3071	-0.005
567.5006	0.0065
567.6941	0.0114
567.8876	0.0014
568.0811	-0.0028
568.2745	0.0004
568.468	0.0032
568.6614	0.0056
568.8548	-0.0045
569.0482	0.0046
569.2416	-0.0018
569.4349	0.0044
569.6283	0.0055
569.8216	0.002
570.0149	0.0008
570.2082	0.0117
570.4015	0.0119
570.5947	0.0094
570.788	0.0047
570.9812	0.0087
571.1744	0.0008
571.3676	-0.0033
571.5608	-0.001
571.754	0.0035
571.9471	0.0006
572.1402	0.0011
572.3333	-0.0001
572.5264	0.0018
572.7195	-0.0021
572.9126	0.0055
573.1057	0.0014
573.2987	-0.0015
573.4917	0.0067
573.6847	-0.0078
573.8777	0.0076
574.0707	0.0088
574.2636	-0.0093
574.4566	-0.0028
574.6495	0.0056
574.8424	0.0022
575.0353	0.0017
575.2281	0.0078
575.421	0.0085
575.6138	0.0022
575.8067	0.0062
575.9995	0.0019
576.1923	0.0087
576.385	0.0003
576.5778	-0.0019
576.7706	-0.0072
576.9633	0.0012
577.156	0.0039
577.3487	-0.0017
577.5414	0.0032
577.734	0.0011
577.9267	0.0066
578.1193	-0.0036
578.3119	-0.0062
578.5045	-0.0039
578.6971	0.0006
578.8897	0.0041
579.0822	0.0019
579.2747	0.002
579.4673	-0.0019
579.6598	-0.005
579.8522	0.0083
580.0447	-0.0029
580.2372	0.0046
580.4296	0.0104
580.622	0.0019
580.8144	-0.0007
581.0068	0.0015
581.1992	-0.0128
581.3915	-0.0042
581.5839	-0.0019
581.7762	-0.0032
581.9685	-0.0001
582.1608	0.0035
582.353	-0.0006
582.5453	0.0013
582.7375	-0.004
582.9298	0.0022
583.122	0.0042
583.3142	0.0047
583.5063	0.0021
583.6985	0.0045
583.8906	-0.0028
584.0827	-0.0059
584.2749	0.0075
584.4669	0.0068
584.659	-0.0001
584.8511	0.0039
585.0431	-0.0028
585.2352	0.0094
585.4272	0.0075
585.6192	0.0031
585.8111	0.0013
586.0031	0.0004
586.195	-0.0035
586.387	0.0074
586.5789	-0.004
586.7708	0.0038
586.9627	0.0007
587.1545	-0.0032
587.3464	-0.0034
587.5382	0.0067
587.73	0.0071
587.9218	0.0088
588.1136	-0.0025
588.3053	0.0054
588.4971	-0.0069
588.6888	0.0015
588.8805	-0.0015
589.0722	0.0016
589.2639	0.0039
589.4556	-0.0039
589.6472	-0.0005
589.8389	-0.0156
590.0305	-0.0097
590.2221	0.0003
590.4137	-0.0058
590.6052	0.009
590.7968	0.0009
590.9883	0.0032
591.1798	0.0031
591.3713	-0.0005
591.5628	0.0091
591.7543	0.0113
591.9458	0.0052
592.1372	0.0082
592.3286	0.0063
592.52	0.0055
592.7114	-0.0011
592.9028	0.0031
593.0941	0.0062
593.2855	0.0068
593.4768	-0.0046
593.6681	-0.0047
593.8594	-0.0048
594.0506	0.0101
594.2419	0.0069
594.4331	0.006
594.6244	0.0068
594.8156	-0.0068
595.0067	0.0037
595.1979	0.0021
595.3891	0.0001
595.5802	0.0042
595.7713	0.0014
595.9624	0.0065
596.1535	0.0114
596.3446	0.0002
596.5357	0.0002
596.7267	0.008
596.9177	0.0055
597.1087	0.0001
597.2997	-0.0043
597.4907	0.0054
597.6817	-0.0043
597.8726	0.0038
598.0635	-0.0006
598.2544	0.0013
598.4453	-0.0019
598.6362	0.0011
598.827	-0.0056
599.0179	0.0076
599.2087	0.0079
599.3995	0.001
599.5903	0.0077
599.7811	0.0043
599.9718	0.0003
600.1626	0.0042
600.3533	-0.0069
600.544	0.0079
600.7347	0.0034
600.9254	0.0059
601.116	-0.0067
601.3067	-0.0008
601.4973	0.0034
601.6879	0.0109
601.8785	0.0025
602.0691	0.0033
602.2596	0.0043
602.4502	0.0068
602.6407	0.0113
602.8312	0.0062
603.0217	-0.0002
603.2122	0.0055
603.4027	0.0031
603.5931	0.0034
603.7835	-0.0062
603.9739	-0.0024
604.1643	-0.0046
604.3547	-0.0039
604.5451	-0.0038
604.7354	0.0006
604.9257	0.0003
605.116	0.0044
605.3063	0.0076
605.4966	-0.0019
605.6869	0.0017
605.8771	0.0099
606.0673	0.0064
606.2575	0.0034
606.4477	0.0051
606.6379	0.0046
606.8281	0.0018
607.0182	0.0051
607.2083	0.0106
607.3985	0.0013
607.5885	0.0018
607.7786	0.0033
607.9687	0.0014
608.1587	0.0025
608.3488	0.0021
608.5388	0.0022
608.7288	-0.0004
608.9187	0.0021
609.1087	-0.0005
609.2986	-0.0056
609.4886	-0.0002
609.6785	0.0053
609.8684	0.0041
610.0582	0.0092
610.2481	0.0031
610.4379	0.0055
610.6278	0.0024
610.8176	0.0027
611.0074	-0.0073
611.1971	0.0033
611.3869	0.0065
611.5766	-0.0009
611.7664	0.0093
611.9561	0.0097
612.1458	0.0041
612.3354	-0.0077
612.5251	0.0004
612.7147	0.0051
612.9044	0.0108
613.094	-0.0034
613.2836	0.0122
613.4731	-0.0027
613.6627	0.0023
613.8522	0.005
614.0417	0.0102
614.2313	-0.0031
614.4207	-0.0078
614.6102	0.0043
614.7997	-0.0018
614.9891	0.0049
615.1785	0.0027
615.3679	0.0024
615.5573	0.01
615.7467	-0.0007
615.9361	0.0041
616.1254	0.0023
616.3147	0.0033
616.504	0.0072
616.6933	0.0137
616.8826	0.0115
617.0718	0.0127
617.2611	0.0071
617.4503	0.0028
617.6395	0.0048
617.8287	0.0064
618.0179	0.0167
618.207	0.0109
618.3961	0.0009
618.5853	0.002
618.7744	0.0134
618.9634	0.007
619.1525	0.0057
619.3416	0.0036
619.5306	0.0099
619.7196	0.0074
619.9086	0.0046
620.0976	0.0123
620.2866	0.0039
620.4755	0.0076
620.6645	0.0032
620.8534	0.0088
621.0423	0.0074
621.2312	0.009
621.42	0.0016
621.6089	0.0024
621.7977	0.0069
621.9865	-0.0016
622.1753	0.0074
622.3641	0.0014
622.5529	0.0129
622.7416	0.0068
622.9303	0.0059
623.1191	0.0098
623.3078	0.0002
623.4964	0.0077
623.6851	0.0038
623.8737	0.0053
624.0624	0.0158
624.251	0.0039
624.4396	0.0067
624.6282	0.0046
624.8167	0.0027
625.0053	0.0045
625.1938	0.011
625.3823	0.0061
625.5708	0.0068
625.7593	0.0001
625.9477	-0.0029
626.1362	0.0019
626.3246	-0.0012
626.513	0.0067
626.7014	0.0133
626.8898	0.0077
627.0781	0.0046
627.2665	0.0052
627.4548	0.0132
627.6431	0.0061
627.8314	0.0099
628.0197	0.0142
628.2079	0.0012
628.3962	0.0012
628.5844	0.0065
628.7726	0.008
628.9608	0.0021
629.1489	0.0034
629.3371	0.0027
629.5252	-0.0002
629.7134	0.009
629.9015	-0.0001
630.0895	0.0015
630.2776	0.0094
630.4657	-0.0029
630.6537	0.0086
630.8417	0.0002
631.0297	0.002
631.2177	-0.0014
631.4057	-0.0063
631.5936	0.0016
631.7815	0.0065
631.9695	0.002
632.1574	0.0099
632.3452	0.018
632.5331	0.0012
632.7209	0.0057
632.9088	0.0153
633.0966	0.0129
633.2844	0.007
633.4722	0.0096
633.6599	0.0132
633.8477	0.0078
634.0354	0.0034
634.2231	0.0067
634.4108	0.0051
634.5985	0.0097
634.7861	0.0056
634.9738	0.0086
635.1614	0.0101
635.349	0.0053
635.5366	0.0059
635.7242	0.0052
635.9117	0.015
636.0993	0.0019
636.2868	0.0131
636.4743	-0.0006
636.6618	0.0109
636.8492	0.0057
637.0367	0.0091
637.2241	0.0085
637.4115	0
637.5989	0.0056
637.7863	0.0071
637.9737	0.0028
638.161	0.006
638.3484	0.0045
638.5357	-0.0009
638.723	0.0039
638.9103	0.0026
639.0975	0.0113
639.2848	0.0059
639.472	-0.0011
639.6592	-0.0005
639.8464	0.014
640.0336	0.0112
640.2208	0.0016
640.4079	0.0038
640.595	0.0042
640.7821	0.0024
640.9692	0.0033
641.1563	0.0111
641.3434	0.0111
641.5304	0.0049
641.7174	0.0072
641.9044	0.0067
642.0914	0.011
642.2784	0.0077
642.4653	0.0101
642.6523	0.0035
642.8392	0.0033
643.0261	0.0123
643.213	0.008
643.3999	0.0028
643.5867	0.0089
643.7735	0.0055
643.9604	-0.0014
644.1472	0.0009
644.3339	0.0017
644.5207	0.0122
644.7075	0.0032
644.8942	0.0124
645.0809	0.0136
645.2676	0.0075
645.4543	0.01
645.6409	0.0095
645.8276	0.0087
646.0142	0.0083
646.2008	-0.0048
646.3874	-0.0017
646.574	0.0062
646.7605	0.0068
646.9471	-0.0085
647.1336	0.0008
647.3201	-0.0005
647.5066	-0.0025
647.6931	0.0067
647.8795	0.0045
648.0659	0.0081
648.2524	0.0044
648.4388	-0.0012
648.6252	0.0047
648.8115	0.0081
648.9979	0.0074
649.1842	0.0055
649.3705	0.0047
649.5568	0.007
649.7431	0.0037
649.9294	0.0048
650.1156	0.0071
650.3018	-0.0015
650.488	0.007
650.6742	0.009
650.8604	0.0053
651.0466	0.0006
651.2327	0.0066
651.4188	0.0118
651.6049	0.0027
651.791	0.0095
651.9771	0.0091
652.1632	0.0072
652.3492	0.0049
652.5352	0.0099
652.7212	0.0077
652.9072	0.0152
653.0932	0.0064
653.2791	0.0014
653.465	0.004
653.651	-0.0012
653.8369	0.0029
654.0227	0.0074
654.2086	0.0116
654.3944	0.0066
654.5803	0.0059
654.7661	0.0062
654.9519	0.0041
655.1377	-0.0004
655.3234	-0.0002
655.5092	-0.0032
655.6949	-0.0029
655.8806	-0.0037
656.0663	-0.002
656.2519	-0.0016
656.4376	0.0014
656.6232	0.005
656.8088	-0.0031
656.9945	0.0024
657.18	0.0066
657.3656	0.0006
657.5511	0.0036
657.7367	-0.0005
657.9222	0.0134
658.1077	0.0045
658.2932	0.0054
658.4786	0.0006
658.6641	0.0043
658.8495	-0.0066
659.0349	0.0026
659.2203	0.0044
659.4057	0.0105
659.591	0.0114
659.7764	0.0038
659.9617	0.0096
660.147	0.0035
660.3323	0.0052
660.5176	0.0136
660.7028	0.0178
660.888	0.0104
661.0733	0.0077
661.2585	-0.0005
661.4436	0.0043
661.6288	-0.0031
661.8139	-0.0017
661.9991	0.0029
662.1842	0.005
662.3693	0.0002
662.5544	0.0012
662.7394	0.0053
662.9245	-0.0035
663.1095	0.0022
663.2945	0.0068
663.4795	0.0029
663.6644	0.0073
663.8494	-0.0006
664.0343	0.006
664.2193	0.0035
664.4042	-0.0008
664.589	0.0018
664.7739	-0
664.9587	0.0009
665.1436	0.0005
665.3284	0.0067
665.5132	0.0035
665.698	0.0049
665.8827	0.0142
666.0675	0.0056
666.2522	-0.0047
666.4369	0.0093
666.6216	0.0086
666.8063	0.0047
666.9909	0.008
667.1756	0.0041
667.3602	-0.0017
667.5448	0.0086
667.7294	0.0157
667.9139	0.0123
668.0985	0.0187
668.283	0.0013
668.4675	0.0111
668.652	0.0053
668.8365	0.0079
669.0209	0.0151
669.2054	0.0103
669.3898	0.0125
669.5742	0.0019
669.7586	0.0115
669.943	0.0198
670.1273	0.0129
670.3117	0.0152
670.496	0.0099
670.6803	0.0159
670.8646	0.005
671.0488	0.0001
671.2331	0.0139
671.4173	0.0099
671.6015	0.0071
671.7857	0.0074
671.9699	0.0059
672.1541	0.0041
672.3382	0.0098
672.5223	0.0056
672.7064	0.0091
672.8905	0.007
673.0746	0.0063
673.2587	0.0007
673.4427	0.0035
673.6267	0.0128
673.8107	0.0129
673.9947	0.0077
674.1787	0.007
674.3626	0.0009
674.5465	0.0179
674.7304	0.0077
674.9143	0.0078
675.0982	0.0149
675.2821	0.0086
675.4659	0.0086
675.6497	0.0096
675.8335	0.0082
676.0173	0.0047
676.2011	0.0053
676.3849	0.0004
676.5686	0.0027
676.7523	0.0058
676.936	-0.002
677.1197	-0.0019
677.3034	-0.0023
677.487	0.0013
677.6706	0.0092
677.8542	0.0056
678.0378	0.0013
678.2214	-0.0004
678.405	0.0044
678.5885	-0.0041
678.772	0.0091
678.9555	0.0009
679.139	0.0042
679.3225	0.0046
679.5059	-0.0018
679.6894	0.0025
679.8728	0.0026
680.0562	0.0008
680.2395	-0.0015
680.4229	0.004
680.6062	0.0082
680.7896	0.0112
680.9729	0.001
681.1562	0.0058
681.3394	0.0015
681.5227	-0.0078
681.7059	-0.0008
681.8891	0.0006
682.0723	0.0098
682.2555	0.0043
682.4387	0.0028
682.6218	-0.0067
682.805	0.0082
682.9881	0.0076
683.1712	-0.0033
683.3542	-0.0038
683.5373	0.0081
683.7203	0.0015
683.9034	0.0034
684.0864	0.0016
684.2694	-0.0002
684.4523	0.0087
684.6353	-0.0019
684.8182	0.0036
685.0011	-0.0024
685.184	0.0013
685.3669	0.0052
685.5498	0.0092
685.7326	0.0056
685.9154	0.0009
686.0982	0.0129
686.281	0.0092
686.4638	0.0061
686.6465	0.0027
686.8293	-0.0002
687.012	0.0046
687.1947	-0.0033
687.3774	0.0106
687.56	0.0009
687.7427	0.0084
687.9253	0.0054
688.1079	0.0008
688.2905	0.0124
688.4731	0.0066
688.6556	0.0039
688.8382	0.0038
689.0207	0.0058
689.2032	-0.0065
689.3857	-0.0027
689.5681	-0.0021
689.7506	-0.0043
689.933	-0.0096
690.1154	-0.0032
690.2978	-0.0026
690.4802	-0.0032
690.6626	-0.0063
690.8449	-0.0037
691.0272	0.0047
691.2095	-0.0038
691.3918	0.0008
691.5741	0.0069
691.7563	0.0013
691.9386	0.0015
692.1208	0.002
692.303	-0.0013
692.4852	-0.0056
692.6673	0.002
692.8495	0.0044
693.0316	0.0048
693.2137	0.0073
693.3958	0.0057
693.5778	-0.0003
693.7599	0.0067
693.9419	0.0081
694.1239	0.01
694.3059	0.006
694.4879	0.0125
694.6699	0.0125
694.8518	0.0048
695.0337	-0.0029
695.2157	0.0164
695.3975	0.0045
695.5794	0.0104
695.7613	0.0062
695.9431	0.0025
696.1249	0.0105
696.3067	0.0081
696.4885	0.0153
696.6703	-0.0061
696.852	0.0014
697.0337	0.0038
697.2154	0.0012
697.3971	0.0035
697.5788	0.0071
697.7605	0.0006
697.9421	0.0044
698.1237	0.0078
698.3053	0.0123
698.4869	-0.0014
698.6685	-0.0086
698.85	0.0001
699.0315	0.0131
699.213	0.0013
699.3945	0.0014
699.576	0.0076
699.7575	0.013
699.9389	0.0145
700.1203	-0.0019
700.3017	-0.0038
700.4831	0.0002
700.6645	0.006
700.8458	0.0049
701.0271	0.0006
701.2084	0.0171
701.3897	0.0057
701.571	0.009
701.7523	0.0015
701.9335	-0.0031
702.1147	0.0033
702.2959	0.0057
702.4771	0.0086
702.6583	0.0033
702.8394	-0.0068
703.0205	0.008
703.2016	0.0006
703.3827	0.0038
703.5638	0.0084
703.7449	0.0009
703.9259	0.0188
704.1069	0.0025
704.2879	0.0008
704.4689	0.0094
704.6499	0.0089
704.8308	0.0069
705.0117	0.0036
705.1927	0.0022
705.3735	0.0108
705.5544	-0.0017
705.7353	-0.0038
705.9161	-0.0062
706.0969	-0.0049
706.2777	0.005
706.4585	0.0028
706.6393	-0.0007
706.82	0.0017
707.0007	0.0066
707.1815	-0.0001
707.3621	0.0089
707.5428	0.0036
707.7235	0.0028
707.9041	-0.0009
708.0847	-0.0073
708.2653	-0.009
708.4459	-0.0149
708.6265	0.0005
708.807	-0.0073
708.9875	-0.0016
709.168	-0.0021
709.3485	0.0028
709.529	-0.0014
709.7095	-0.0145
709.8899	-0.0027
710.0703	-0.0044
710.2507	-0.0028
710.4311	-0.0005
710.6115	-0.0067
710.7918	-0.0015
710.9721	-0.0002
711.1524	-0.0043
711.3327	0.0002
711.513	-0.0013
711.6932	0.0014
711.8735	0.0149
712.0537	0.0014
712.2339	0.0052
712.4141	-0.0093
712.5942	-0.0026
712.7744	0.0057
712.9545	-0.006
713.1346	-0.0083
713.3147	0.0045
713.4947	-0.0069
713.6748	0.0001
713.8548	-0.0022
714.0348	0.0004
714.2148	-0.0032
714.3948	0.0086
714.5748	0.0013
714.7547	-0.0038
714.9346	0.0099
715.1145	-0.0026
715.2944	-0.0013
715.4743	0.011
715.6541	0.0021
715.834	0.0074
716.0138	-0.0029
716.1936	-0.0087
716.3733	-0.0062
716.5531	0.0082
716.7328	0.0007
716.9126	-0.0013
717.0923	0.0056
717.2719	-0.0001
717.4516	-0.0021
717.6312	0.0012
717.8109	-0.0091
717.9905	0.0067
718.1701	-0.0021
718.3496	-0.0143
718.5292	-0.001
718.7087	-0.0036
718.8882	-0.0019
719.0677	0.0077
719.2472	0.0005
719.4267	0.0048
719.6061	0.0002
719.7856	0.0086
719.965	0.0094
720.1443	-0.0053
720.3237	0.0097
720.5031	0.0021
720.6824	0.005
720.8617	-0.0066
721.041	0.0068
721.2203	0.0118
721.3995	0.008
721.5788	0.0062
721.758	0.0075
721.9372	0.0035
722.1164	0.0041
722.2956	0.01
722.4747	0.004
722.6538	0.013
722.8329	0.0084
723.012	0.0029
723.1911	-0.0011
723.3702	0.0008
723.5492	0.0078
723.7282	0.0009
723.9072	-0.008
724.0862	-0.0044
724.2652	-0.0009
724.4441	-0.0008
724.623	0.0024
724.8019	-0.0051
724.9808	-0.0003
725.1597	-0.0051
725.3385	0.0038
725.5174	0.0034
725.6962	0.0008
725.875	-0.005
726.0538	0.0114
726.2325	-0.0036
726.4112	-0.0056
726.59	-0.0038
726.7687	-0.0015
726.9474	0.0112
727.126	0.0019
727.3047	0.0015
727.4833	0.0027
727.6619	-0.0043
727.8405	-0.0036
728.0191	0.0001
728.1976	0.0035
728.3762	-0.0011
728.5547	0.0049
728.7332	-0.0093
728.9116	0.006
729.0901	0.0112
729.2686	-0.0008
729.447	0.0027
729.6254	-0.0021
729.8038	0.0013
729.9821	-0.003
730.1605	-0.0059
730.3388	-0.0002
730.5171	0.0081
730.6954	0.0016
730.8737	0.0038
731.0519	0.0076
731.2302	0.012
731.4084	0.0092
731.5866	0.0095
731.7648	0.003
731.9429	0.0004
732.1211	-0.0075
732.2992	0.0023
732.4773	-0.0041
732.6554	0.0016
732.8335	-0.0034
733.0115	0.0092
733.1896	0.0124
733.3676	-0.0055
733.5456	0.0028
733.7235	0.0061
733.9015	-0.0064
734.0794	0.0063
734.2574	-0.0013
734.4353	0.0048
734.6131	0.0154
734.791	0.005
734.9689	0.0025
735.1467	0.0044
735.3245	-0.0003
735.5023	0.0004
735.68	0.0085
735.8578	0.0163
736.0355	-0.0175
736.2132	-0.0001
736.3909	-0.0006
736.5686	-0.0043
736.7463	0.0108
736.9239	0.0007
737.1015	0.0026
737.2791	0.0128
737.4567	0.0054
737.6343	0.0031
737.8118	0.0049
737.9894	0.0091
738.1669	-0.0087
738.3444	0.0017
738.5218	0.0086
738.6993	-0.0004
738.8767	0.0085
739.0541	0.0039
739.2315	-0.0065
739.4089	0.0034
739.5863	0.0127
739.7636	-0.0092
739.9409	-0.0015
740.1182	0.0061
740.2955	0.0056
740.4728	-0.0003
740.65	0.0035
740.8272	0.0015
741.0044	-0.0034
741.1816	0.0075
741.3588	0.0008
741.5359	0.0057
741.7131	-0.0105
741.8902	-0.0014
742.0673	0.0053
742.2444	-0.0016
742.4214	-0.0049
742.5985	-0.0005
742.7755	0.0003
742.9525	-0.0042
743.1295	0.0022
743.3064	0.0071
743.4834	0.0094
743.6603	-0.0038
743.8372	0.0065
744.0141	0.0141
744.191	0.0078
744.3678	0.0035
744.5446	0.0067
744.7215	0.0067
744.8982	0.0057
745.075	0.0005
745.2518	0.0093
745.4285	0.0036
745.6052	-0.0048
745.7819	0.0068
745.9586	-0.0068
746.1353	0.0003
746.3119	-0.0002
746.4885	0.001
746.6651	-0.0041
746.8417	0.0043
747.0183	-0.0065
747.1948	0.0056
747.3714	0.0075
747.5479	0.0058
747.7244	0.0044
747.9008	0.0213
748.0773	0.008
748.2537	0.0027
748.4301	-0.0057
748.6065	0.0097
748.7829	0.0132
748.9593	0.0039
749.1356	-0.0015
749.3119	0.0091
749.4882	-0.0006
749.6645	0.0038
749.8408	-0.0018
750.017	-0.0034
750.1933	-0.0079
750.3695	-0.0108
750.5457	0.0058
750.7218	-0.0008
750.898	0.0022
751.0741	-0.0056
751.2502	0.0059
751.4263	0.005
751.6024	0.0058
751.7784	0.0044
751.9545	-0.002
752.1305	0.0027
752.3065	-0.0094
752.4825	0.0087
752.6584	-0.0004
752.8344	0.0033
753.0103	-0.0046
753.1862	0.0016
753.3621	0.0056
753.5379	0.0017
753.7138	0.0021
753.8896	0.0025
754.0654	0.008
754.2412	0.0115
754.417	0.0077
754.5927	0.0001
754.7685	0.0065
754.9442	-0.0055
755.1199	0.0112
755.2956	-0.0034
755.4712	0.0145
755.6469	0.0002
755.8225	0.0013
755.9981	-0.0033
756.1736	0.0058
756.3492	0.0063
756.5248	0.0071
756.7003	0.0045
756.8758	0.0065
757.0513	-0.0096
757.2267	0.0022
757.4022	0.0037
757.5776	0.0034
757.753	-0.0014
757.9284	0.0046
758.1038	0.0181
758.2791	0.009
758.4545	-0.0122
758.6298	0.0022
758.8051	0.0004
758.9803	0.0043
759.1556	-0.0038
759.3308	-0.002
759.506	0.0113
759.6812	0.0055
759.8564	0.0052
760.0316	0.0104
760.2067	0.0042
760.3819	0.016
760.557	0.0248
760.732	0.0083
760.9071	0.0035
761.0821	0.0063
761.2572	0.0074
761.4322	0.0058
761.6072	-0.0077
761.7821	-0.0056
761.9571	0.0034
762.132	0.0065
762.3069	-0.002
762.4818	-0.0097
762.6567	-0.0062
762.8316	-0.0021
763.0064	-0.0007
763.1812	-0.0038
763.356	-0.0085
763.5308	-0.0026
763.7055	0.0054
763.8803	-0.0033
764.055	0.001
764.2297	0.0062
764.4044	-0.0127
764.579	-0.0124
764.7537	-0.0076
764.9283	0.0102
765.1029	-0.0057
765.2775	-0.0002
765.4521	-0.0084
765.6266	-0.0083
765.8011	0.0025
765.9756	-0.0006
766.1501	0.0031
766.3246	0.0058
766.4991	-0.0103
766.6735	0.0074
766.8479	0.0019
767.0223	0.0168
767.1967	-0.0012
767.371	0.0031
767.5454	0.0019
767.7197	0.0092
767.894	-0.0005
768.0683	-0.0036
768.2425	0.0022
768.4168	0.0129
768.591	0.0116
768.7652	0.0018
768.9394	-0.0018
769.1135	0.006
769.2877	0.0098
769.4618	0.0118
769.6359	0.002
769.81	0.0036
769.984	0.0006
770.1581	-0.009
770.3321	0.004
770.5061	-0.0028
770.6801	-0.0038
770.8541	0.0069
771.028	0.0106
771.202	-0.016
771.3759	0.001
771.5498	-0.0031
771.7236	-0.0028
771.8975	-0.01
772.0713	0.0112
772.2451	0.0041
772.4189	0.0078
772.5927	0.0046
772.7665	0.0028
772.9402	0.009
773.1139	0.0082
773.2876	-0.0049
773.4613	0.0179
773.635	0.0109
773.8086	-0.0003
773.9822	0.003
774.1558	0.0077
774.3294	-0.0092
774.503	0.0009
774.6765	0.0071
774.8501	0.0073
775.0236	0.0083
775.1971	0.0104
775.3705	-0.0019
775.544	-0.0003
775.7174	-0.0109
775.8908	0.0046
776.0642	0.0065
776.2376	0.0048
776.4109	0.0012
776.5843	-0.0005
776.7576	0.0009
776.9309	0.005
777.1041	0.0048
777.2774	0.0042
777.4506	0.0029
777.6238	0.0029
777.797	0.0043
777.9702	0.0017
778.1434	-0.0062
778.3165	-0.013
778.4896	-0.0048
778.6627	0.0056
778.8358	-0.0056
779.0089	-0.0083
779.1819	0.0027
779.3549	0.0068
779.5279	0.0069
779.7009	0.0024
779.8739	0.003
780.0468	-0.0094
780.2197	0.0011
780.3926	0.0045
780.5655	0.0045
780.7384	0.0002
780.9112	0.0013
781.0841	-0.0069
781.2569	-0.0039
781.4297	0.0144
781.6024	0.0077
781.7752	0.0124
781.9479	0.0112
782.1206	0.0021
782.2933	-0.0041
782.466	0.0182
782.6386	-0.002
782.8113	0.0048
782.9839	0.0022
783.1565	0.0037
783.329	0.0114
783.5016	0.0059
783.6741	0.0093
783.8466	-0.0112
784.0191	0.0039
784.1916	-0.0013
784.3641	-0.0015
784.5365	-0.0027
784.7089	-0.0004
784.8813	-0.0146
785.0537	-0.0116
785.2261	0.0054
785.3984	-0.0075
785.5707	-0.0092
785.743	0.0022
785.9153	-0.0244
786.0876	-0.0022
786.2598	-0
786.432	-0.0151
786.6042	0.0063
786.7764	-0.0122
786.9486	-0.0064
787.1207	-0.0152
787.2928	-0.0077
787.4649	-0.0035
787.637	0.005
787.8091	0.0041
787.9811	-0.0122
788.1532	-0.0079
788.3252	0.0074
788.4972	-0.0078
788.6691	-0.0059
788.8411	-0.0015
789.013	0.0014
789.1849	-0.0033
789.3568	0.002
789.5287	0.0027
789.7005	0.0078
789.8723	-0.007
790.0442	0.0219
790.2159	-0.0047
790.3877	0.001
790.5595	-0.0196
790.7312	0.0015
790.9029	-0.0044
791.0746	-0.0016
791.2463	0.0073
791.4179	-0.0034
791.5896	-0.0134
791.7612	0.0024
791.9328	-0.0127
792.1044	-0.0111
792.2759	-0.0161
792.4474	0.0011
792.619	-0.0026
792.7905	0.0072
792.9619	0.0036
793.1334	0.0211
793.3048	0.001
793.4762	0.0187
793.6476	0.0065
793.819	-0.0056
793.9904	0.0024
794.1617	-0.0243
794.333	0.0037
794.5043	-0.0216
794.6756	-0.0023
794.8469	-0.0001
795.0181	-0.001
795.1893	0.0004
795.3605	0.0055
795.5317	-0.0021
795.7029	-0.0159
795.874	-0.0043
796.0452	-0.002
796.2163	-0.0041
796.3873	0.0052
796.5584	0.0225
796.7294	0.0128
796.9005	0.0192
797.0715	-0.0073
797.2425	-0.0154
797.4134	-0.0055
797.5844	0.0037
797.7553	-0.0086
797.9262	-0.0087
798.0971	-0.0038
798.2679	-0.0032
798.4388	-0.0093
798.6096	-0.0037
798.7804	0.0047
798.9512	-0.0089
799.122	-0.0021
799.2927	0.004
799.4635	0.014
799.6342	-0.0071
799.8049	0.0011
799.9755	0.016
800.1462	0.0141
800.3168	0.0131
800.4874	0.0048
800.658	0.0197
800.8286	0.0082
800.9991	0.0231
801.1696	0.0064
801.3402	0.0019
801.5106	-0.0001
801.6811	0.0102
801.8516	0.0165
802.022	0.0141
802.1924	0.0224
802.3628	0.0057
802.5332	0.0143
802.7035	0.0139
802.8739	-0.0045
803.0442	-0.0122
803.2145	0.0102
803.3847	0.0056
803.555	-0.0001
803.7252	-0.0137
803.8954	-0.0177
804.0656	-0.0175
804.2358	-0.0027
804.4059	0.0157
804.5761	0.0051
804.7462	0.0077
804.9163	-0.0115
805.0864	-0.0127
805.2564	0.0044
805.4264	-0.0068
805.5965	-0.0161
805.7665	0.0071
805.9364	-0.0039
806.1064	0.0168
806.2763	0.0004
806.4462	0.0138
806.6161	-0.0133
806.786	0.0081
806.9559	0.0015
807.1257	-0.0138
807.2955	0.0114
807.4653	0.0061
807.6351	-0.0024
807.8048	-0.0082
807.9746	0.0133
808.1443	0.0004
808.314	0.0094
808.4837	-0.0112
808.6533	0.0382
808.8229	0.0183
808.9926	0.012
809.1622	0.0228
809.3317	0.0117
809.5013	-0.008
809.6708	0.015
809.8403	0.0168
810.0098	0.0045
810.1793	0.0032
810.3488	0.0096
810.5182	-0.0048
810.6876	0.0145
810.857	-0.0104
811.0264	0.0134
811.1958	0.0228
811.3651	0.0007
811.5344	-0.0048
811.7037	-0.0155
811.873	-0.0142
812.0422	-0.0009
812.2115	-0.0178
812.3807	-0.0237
812.5499	0.013
812.7191	0.0083
812.8882	-0.013
813.0574	0.0128
813.2265	-0.0052
813.3956	0.0018
813.5646	0.0074
813.7337	-0.0158
813.9027	0.0253
814.0718	0.0364
814.2407	0.0105
814.4097	0.0007
814.5787	-0.0105
814.7476	-0.0148
814.9165	0.0058
815.0854	-0.0206
815.2543	0.0282
815.4232	0.006
815.592	0.0221
815.7608	0.0053
815.9296	-0.0059
816.0984	0.0055
816.2671	-0.0025
816.4359	0.0014
816.6046	0.0081
816.7733	0.0247
816.942	-0.006
817.1106	0.006
817.2793	0.0145
817.4479	0.0235
817.6165	0.0287
817.785	0.0327
817.9536	-0.0289
818.1221	-0.0106
818.2906	-0.0124
818.4591	0.0048
818.6276	-0.0078
818.7961	0.0106
818.9645	0.0036
819.1329	-0.0014
819.3013	0.0311
819.4697	0.042
819.638	0.0099
819.8064	0.0334
819.9747	0.018
820.143	-0.0044
820.3113	-0.0137
820.4795	-0.0064
820.6477	0.0221
820.816	0.0181
820.9842	0.0042
821.1523	-0.0125
821.3205	0.0049
821.4886	-0.0062
821.6567	0.0133
821.8248	0.0051
821.9929	0.0269
822.1609	0.0048
822.329	0.0407
822.497	0.0171
822.665	-0.0005
822.833	0.0038
823.0009	0.0206
823.1688	0.0175
823.3367	0.0219
823.5046	0.0095
823.6725	0.0431
823.8404	0.0192
824.0082	0.011
824.176	0.0242
824.3438	0.0227
824.5116	-0.0068
824.6793	0.0069
824.847	0.0069
825.0147	0.005
825.1824	0.0226
825.3501	0.0323
825.5177	0.0134
825.6854	-0.0112
825.853	0.0545
826.0206	-0.0179
826.1881	0.0099
826.3557	-0.0218
826.5232	0.0042
826.6907	-0.0042
826.8582	-0.0064
827.0257	0.005
827.1931	-0.0046
827.3605	0.0159
827.528	-0.0052
827.6953	-0.0126
827.8627	0.0107
828.03	0.0384
828.1974	-0.0172
828.3647	-0.0367
828.532	-0.0128
828.6992	-0.018
828.8665	0.0134
829.0337	0.0127
829.2009	0.0261
829.3681	0.0343
829.5352	0.0324
829.7024	-0.0055
829.8695	-0.0013
830.0366	0.038
830.2037	0.0217
830.3707	0.0278
830.5378	0.0106
830.7048	0.0314
830.8718	0.0244
831.0388	-0.0002
831.2057	0.0222
831.3727	0.0003
831.5396	-0.0272
831.7065	0.0252
831.8734	0.0152
832.0402	0.0034
832.2071	0.0124
832.3739	0.0188
832.5407	-0.016
832.7075	0.001
832.8742	0.0066
833.041	-0.036
833.2077	0.0204
833.3744	-0.0095
833.541	-0.0014
833.7077	0.0209
833.8743	-0.0188
834.0409	-0.0354
834.2075	-0.0272
834.3741	-0.0141
834.5407	-0.0164
834.7072	0.0107
834.8737	-0.0419
835.0402	-0.0095
835.2067	0.0137
835.3731	0.0139
835.5395	0.0088
835.706	0.0129
835.8723	0.031
836.0387	0.0248
836.2051	-0.003
836.3714	0.0074
836.5377	0.013
836.704	-0.0045
836.8703	-0.0049
837.0365	-0.016
837.2027	-0.0158
837.3689	0.0307
837.5351	-0.0002
837.7013	-0.0446
837.8674	0.0032
838.0335	-0.051
838.1997	-0.0123
838.3657	-0.0073
838.5318	0.0237
838.6978	0.0181
838.8639	0.0451
839.0299	0.0032
839.1958	-0.0118
839.3618	0.0476
839.5277	0.0032
839.6937	0.0278
839.8596	0.0116
840.0254	0.0288
840.1913	-0.0212
840.3571	0.0277
840.523	-0.0366
840.6888	-0.0328
840.8545	-0.0079
841.0203	0.0157
841.186	-0.0011
841.3517	0.0006
841.5174	0.0212
841.6831	0.017
841.8488	0.0402
842.0144	-0.0084
842.18	0.0234
842.3456	0.042
842.5112	0.0027
842.6767	-0.0495
842.8422	-0.0263
843.0077	-0.0396
843.1732	-0.0329
843.3387	-0.0192
843.5042	-0.0108
843.6696	-0.0088
843.835	-0.0255
844.0004	0.0588
844.1657	0.0047
844.3311	-0.0641
844.4964	-0.0569
844.6617	-0.0015
844.827	-0.0252
844.9923	-0.0354
845.1575	0.0178
845.3227	-0.005
845.4879	-0.0297
845.6531	-0.011
845.8183	-0.0198
845.9834	0.0292
846.1485	0.0254
846.3136	-0.0322
846.4787	-0.1299
846.6438	0.0317
846.8088	-0.0322
846.9738	-0.0905
847.1388	-0.0356
847.3038	0.0524
847.4687	-0.0627
847.6337	0.0167
847.7986	-0.0274
847.9635	-0.0684
848.1284	0.0106
848.2932	0.0332
848.458	0.0423
848.6228	0.0604
848.7876	0.0845
848.9524	-0.0384
849.1172	-0.1218
849.2819	0.0137
849.4466	-0.0947
849.6113	-0.0556
849.7759	-0.0905
849.9406	-0.0304
850.1052	0.0192
850.2698	-0.0299
850.4344	0.0448
850.599	-0.0595
850.7635	-0.0072
850.928	-0.0957
851.0925	0.048
851.257	-0.0313
851.4215	0.0389
851.5859	-0.0444
851.7503	-0.0358
851.9147	0.0499
852.0791	-0.0607
852.2434	-0.0736
852.4078	0.0215
852.5721	0.073
852.7364	-0.0578
852.9007	-0.2283
853.0649	0.0717
853.2291	-0.0524
853.3934	-0.0862
853.5575	0.0791
853.7217	-0.0601
853.8859	-0.2516
854.05	-0.1261
854.2141	-0.0613
854.3782	-0.1015
854.5423	-0.0009
854.7063	0.1187
854.8703	-0.0064
855.0343	-0.04
855.1983	-0.1548
855.3623	0.0946
855.5262	-0.0249
855.6901	-0.0866
855.854	-0.0494
856.0179	0.0337
856.1818	0.1847
856.3456	-0.0726
856.5094	-0.0928
856.6732	-0.1649
856.837	-0.0715
857.0008	0.0465
857.1645	0.1086
857.3282	-0.1164
857.4919	0.2561
857.6556	0.011
857.8192	0.1411
857.9828	0.0935
858.1465	-0.0986
858.31	-0.1273
858.4736	-0.0682
858.6372	-0.2743
858.8007	-0.2215
858.9642	0.1005
859.1277	0.1584
859.2911	0.0681
859.4546	-0.0094
859.618	-0.2691
859.7814	-0.0334
859.9448	0.0393
860.1081	-0.0322
860.2715	0.0655
860.4348	0.3215
860.5981	-0.1544
860.7614	0.1457
860.9246	-0.1563
861.0879	-0.1991
861.2511	0.0178
861.4143	-0.3655
861.5774	0.3787
861.7406	-0.1935
861.9037	-0.0674
862.0668	-0.028
862.2299	-0.2521
862.393	-0.3118
862.556	-0.0115
862.7191	-0.2842
862.8821	-0.2193
863.0451	0.1867
863.208	0.0287
863.371	-0.0636
863.5339	-0.2726
863.6968	0.085
863.8597	0.1751
864.0225	-0.1111
864.1854	-0.1529
864.3482	0.8179
864.511	0.3197
864.6737	-0.1901
864.8365	-0.0646
864.9992	-0.2202
865.1619	-0.3508
865.3246	0.2892
865.4873	0.2335
865.65	-0
865.8126	-0.1363
865.9752	-0.076
866.1378	-0.0802
866.3004	-0.0046
866.4629	0.1511
866.6254	-0.3346
866.7879	0.9145
866.9504	-0.0553
867.1129	0.7533
867.2753	0.0415
867.4377	0.068
867.6001	-0.4496
867.7625	0.2195
867.9249	0.368
868.0872	0.093
868.2495	0.3333
868.4118	-0.4166
868.5741	-0
868.7363	-0.0334
868.8986	0.1986
869.0608	-0.1908
869.223	0.0567
869.3851	0.1776
869.5473	-0
869.7094	0.1757
869.8715	-0
870.0336	-0
870.1957	-0.4626
870.3577	-0.1347
870.5197	-0.1224
870.6817	-0.3324
870.8437	-0.0463
871.0057	0.5898
871.1676	-0.382
871.3295	0.3299
871.4914	-0
871.6533	-0.3572
871.8151	-0.0814
871.977	-0
872.1388	-0
872.3006	0.2954
872.4623	-0
872.6241	0.2107
872.7858	0.8542
872.9475	-0.1178
873.1092	-0.0686
873.2709	-0.4538
873.4325	0.2561
873.5941	-0.5144
873.7557	-0
873.9173	-0.1272
874.0789	-0.2421
874.2404	-0
874.4019	0.3518
874.5634	0.2012
874.7249	0.1618
874.8863	-0.285
875.0478	-0.0037
875.2092	-0.3765
875.3706	-0
875.5319	-0.9152
875.6933	0.4292
875.8546	-0.4458
876.0159	1.5984
876.1772	-0
876.3385	-0
876.4997	0.2782
876.6609	0.6514
876.8221	-0.2324
876.9833	0.0994
877.1445	-0
877.3056	0.1442
877.4667	1.0586
877.6278	0.1905
877.7889	-0
877.9499	-0
878.111	-0.2645
878.272	-0
878.433	-0
878.5939	-0
878.7549	0.2259
878.9158	-0
879.0767	-0.1433
879.2376	-0
879.3984	0.1643
879.5593	-0
879.7201	0.06
879.8809	-0.6603
880.0417	-0.3931
880.2024	0.1939
880.3632	-0
880.5239	0.1453
880.6846	0.1444
880.8452	-2.5145
881.0059	-0
881.1665	-0
881.3271	-0
881.4877	0.0778
881.6483	-0.1923
881.8088	-0.3776
881.9693	0.2673
882.1298	0.2673
882.2903	0.2673
