Data from MonoPyChalIsomerACN10uM440nmA_Absorbance_15-27-11-994.txt Node
Date: Fri Jul 05 15:27:11 BST 2024
User: LASERRRRR
Spectrometer: FLMT03099
Trigger mode: 0
Integration Time (sec): 1.000000E-1
Scans to average: 1
Electric dark correction enabled: true
Nonlinearity correction enabled: false
Boxcar width: 0
XAxis mode: Wavelengths
Number of Pixels in Spectrum: 3648
>>>>>Begin Spectral Data<<<<<
179.3399	0.1392
179.5586	0.1392
179.7771	0.1392
179.9957	0.4857
180.2143	-0
180.4329	-0.2736
180.6514	0.2565
180.8699	-0
181.0885	0.4857
181.307	0.1192
181.5255	-0
181.744	-0.3342
181.9625	-0
182.181	-0
182.3994	0.5465
182.6179	0.9565
182.8363	-0
183.0547	-0.0158
183.2732	0.2064
183.4916	-0.0344
183.71	-0.0003
183.9284	-0.0571
184.1467	-0.1264
184.3651	-0.0369
184.5835	0.0523
184.8018	-0.0879
185.0201	0.2239
185.2385	-0.0576
185.4568	-0.0576
185.6751	0.0053
185.8934	0.0507
186.1117	-0.0222
186.3299	0.2962
186.5482	-0.2063
186.7664	-0.1777
186.9847	-0.0094
187.2029	0.0197
187.4211	0.1723
187.6393	0.068
187.8575	-0.0814
188.0757	0.1112
188.2939	0.1877
188.512	-0.2312
188.7302	0.0361
188.9483	0.1155
189.1665	0.1926
189.3846	0.1145
189.6027	0.3432
189.8208	0.2001
190.0389	0.1274
190.257	0.0884
190.475	0.1562
190.6931	0.0476
190.9111	0.1842
191.1292	0.1013
191.3472	0.4329
191.5652	0.4027
191.7832	0.1499
192.0012	0.5876
192.2192	0.3289
192.4371	0.5044
192.6551	0.3576
192.873	0.2519
193.091	0.4239
193.3089	0.6924
193.5268	0.4583
193.7447	0.5407
193.9626	0.4876
194.1805	0.5704
194.3984	0.495
194.6162	0.5933
194.8341	0.4825
195.0519	0.5859
195.2697	0.4973
195.4875	0.5975
195.7054	0.7423
195.9231	0.5263
196.1409	0.5178
196.3587	0.5802
196.5765	0.5666
196.7942	0.5414
197.012	0.5269
197.2297	0.4885
197.4474	0.7051
197.6651	0.4685
197.8828	0.4472
198.1005	0.6004
198.3182	0.4537
198.5358	0.8567
198.7535	0.5634
198.9711	0.5467
199.1888	0.6406
199.4064	0.8311
199.624	0.6783
199.8416	0.676
200.0592	0.6314
200.2767	0.6738
200.4943	0.5729
200.7119	0.8711
200.9294	0.7741
201.1469	0.4799
201.3645	0.4855
201.582	0.5855
201.7995	0.5614
202.017	0.6532
202.2344	0.5948
202.4519	0.8042
202.6694	0.5854
202.8868	0.6511
203.1042	0.7887
203.3217	0.6171
203.5391	0.5918
203.7565	0.543
203.9739	0.6883
204.1913	0.6177
204.4086	0.6608
204.626	0.6902
204.8433	0.6934
205.0607	0.6397
205.278	0.63
205.4953	0.6881
205.7126	0.6512
205.9299	0.6623
206.1472	0.6042
206.3644	0.5952
206.5817	0.6601
206.7989	0.7193
207.0162	0.6459
207.2334	0.6841
207.4506	0.6386
207.6678	0.6472
207.885	0.6387
208.1022	0.5999
208.3194	0.6546
208.5365	0.6756
208.7537	0.6275
208.9708	0.5892
209.1879	0.6464
209.405	0.7062
209.6222	0.7277
209.8392	0.5928
210.0563	0.6184
210.2734	0.6425
210.4905	0.5787
210.7075	0.6381
210.9245	0.6018
211.1416	0.7385
211.3586	0.6361
211.5756	0.6152
211.7926	0.6954
212.0096	0.576
212.2265	0.6213
212.4435	0.5797
212.6604	0.5873
212.8774	0.6194
213.0943	0.567
213.3112	0.5118
213.5281	0.5581
213.745	0.5008
213.9619	0.4844
214.1788	0.4893
214.3956	0.4623
214.6125	0.4639
214.8293	0.4456
215.0461	0.4852
215.2629	0.4634
215.4798	0.4866
215.6965	0.423
215.9133	0.4278
216.1301	0.4397
216.3469	0.4639
216.5636	0.4379
216.7803	0.4196
216.9971	0.4198
217.2138	0.3691
217.4305	0.3428
217.6472	0.3642
217.8639	0.3856
218.0805	0.3565
218.2972	0.3354
218.5138	0.3005
218.7305	0.332
218.9471	0.2927
219.1637	0.2906
219.3803	0.2825
219.5969	0.2571
219.8135	0.2512
220.0301	0.2639
220.2466	0.2636
220.4632	0.2714
220.6797	0.2259
220.8962	0.2467
221.1127	0.2544
221.3292	0.2484
221.5457	0.2485
221.7622	0.2372
221.9787	0.2598
222.1951	0.2389
222.4116	0.2565
222.628	0.2536
222.8444	0.2642
223.0608	0.244
223.2772	0.24
223.4936	0.2515
223.71	0.2184
223.9264	0.2693
224.1427	0.2448
224.3591	0.2612
224.5754	0.2465
224.7917	0.2606
225.008	0.2619
225.2243	0.2425
225.4406	0.3013
225.6569	0.2568
225.8732	0.2649
226.0894	0.272
226.3057	0.2789
226.5219	0.2939
226.7381	0.2672
226.9543	0.2612
227.1705	0.2824
227.3867	0.2822
227.6029	0.2993
227.8191	0.2928
228.0352	0.2793
228.2513	0.3128
228.4675	0.3158
228.6836	0.2998
228.8997	0.2982
229.1158	0.3098
229.3319	0.3028
229.548	0.3088
229.764	0.3177
229.9801	0.3222
230.1961	0.3204
230.4121	0.3282
230.6282	0.3207
230.8442	0.3103
231.0602	0.3593
231.2761	0.3443
231.4921	0.3301
231.7081	0.3509
231.924	0.3432
232.14	0.3548
232.3559	0.3401
232.5718	0.3698
232.7877	0.3671
233.0036	0.3343
233.2195	0.382
233.4353	0.3693
233.6512	0.3448
233.867	0.3674
234.0829	0.3529
234.2987	0.3585
234.5145	0.3539
234.7303	0.3629
234.9461	0.3756
235.1619	0.3734
235.3776	0.3692
235.5934	0.381
235.8091	0.3576
236.0249	0.3667
236.2406	0.385
236.4563	0.3774
236.672	0.3878
236.8877	0.3997
237.1034	0.4067
237.319	0.387
237.5347	0.4016
237.7503	0.3794
237.966	0.4212
238.1816	0.4134
238.3972	0.3933
238.6128	0.388
238.8284	0.4078
239.0439	0.414
239.2595	0.3874
239.475	0.4254
239.6906	0.4147
239.9061	0.3905
240.1216	0.4008
240.3371	0.4158
240.5526	0.3981
240.7681	0.4072
240.9836	0.377
241.199	0.4018
241.4145	0.3804
241.6299	0.3565
241.8453	0.3805
242.0607	0.3643
242.2761	0.3506
242.4915	0.354
242.7069	0.3609
242.9223	0.337
243.1376	0.3496
243.353	0.3486
243.5683	0.3448
243.7836	0.3249
243.9989	0.3084
244.2142	0.307
244.4295	0.3006
244.6448	0.3001
244.86	0.2938
245.0753	0.2996
245.2905	0.284
245.5057	0.2789
245.721	0.2505
245.9362	0.2527
246.1514	0.2617
246.3665	0.2529
246.5817	0.2416
246.7969	0.241
247.012	0.2492
247.2271	0.2512
247.4423	0.2336
247.6574	0.2236
247.8725	0.2176
248.0876	0.2068
248.3026	0.2188
248.5177	0.2117
248.7328	0.2055
248.9478	0.2026
249.1628	0.2168
249.3779	0.2086
249.5929	0.188
249.8079	0.216
250.0228	0.1946
250.2378	0.1929
250.4528	0.2138
250.6677	0.1841
250.8827	0.1989
251.0976	0.1785
251.3125	0.1754
251.5274	0.1662
251.7423	0.1741
251.9572	0.1837
252.172	0.1736
252.3869	0.1812
252.6017	0.1735
252.8166	0.1627
253.0314	0.1684
253.2462	0.1669
253.461	0.1769
253.6758	0.1486
253.8906	0.174
254.1053	0.173
254.3201	0.157
254.5348	0.1741
254.7496	0.1768
254.9643	0.1585
255.179	0.165
255.3937	0.166
255.6083	0.1657
255.823	0.1779
256.0377	0.1631
256.2523	0.1626
256.467	0.1527
256.6816	0.1763
256.8962	0.1552
257.1108	0.153
257.3254	0.1667
257.54	0.1536
257.7545	0.1645
257.9691	0.17
258.1836	0.1621
258.3981	0.1743
258.6127	0.1693
258.8272	0.156
259.0417	0.158
259.2561	0.1645
259.4706	0.1604
259.6851	0.1567
259.8995	0.155
260.114	0.1551
260.3284	0.1573
260.5428	0.1499
260.7572	0.166
260.9716	0.1675
261.186	0.1449
261.4003	0.1611
261.6147	0.1527
261.829	0.1672
262.0433	0.1549
262.2577	0.1451
262.472	0.1649
262.6863	0.1489
262.9005	0.1677
263.1148	0.1693
263.3291	0.1385
263.5433	0.169
263.7576	0.1617
263.9718	0.1511
264.186	0.1575
264.4002	0.1531
264.6144	0.1485
264.8286	0.1657
265.0427	0.1526
265.2569	0.1554
265.471	0.149
265.6851	0.1537
265.8993	0.1558
266.1134	0.148
266.3275	0.1548
266.5415	0.1517
266.7556	0.1627
266.9697	0.1543
267.1837	0.154
267.3978	0.1676
267.6118	0.1575
267.8258	0.1651
268.0398	0.1586
268.2538	0.1475
268.4677	0.1609
268.6817	0.1519
268.8957	0.1684
269.1096	0.1543
269.3235	0.163
269.5374	0.147
269.7514	0.1424
269.9652	0.1318
270.1791	0.142
270.393	0.1402
270.6068	0.1515
270.8207	0.1327
271.0345	0.1453
271.2483	0.1269
271.4622	0.1387
271.676	0.1357
271.8897	0.1385
272.1035	0.1297
272.3173	0.126
272.531	0.134
272.7448	0.1372
272.9585	0.1196
273.1722	0.1386
273.3859	0.1347
273.5996	0.1273
273.8133	0.1453
274.0269	0.1324
274.2406	0.1379
274.4542	0.1301
274.6679	0.1174
274.8815	0.1357
275.0951	0.1354
275.3087	0.1423
275.5223	0.1423
275.7358	0.1371
275.9494	0.1362
276.1629	0.1214
276.3765	0.1335
276.59	0.1315
276.8035	0.1244
277.017	0.1433
277.2305	0.1311
277.444	0.136
277.6574	0.1217
277.8709	0.1395
278.0843	0.1318
278.2978	0.1418
278.5112	0.1268
278.7246	0.1293
278.938	0.1431
279.1513	0.1367
279.3647	0.1347
279.5781	0.1391
279.7914	0.141
280.0047	0.1431
280.2181	0.1519
280.4314	0.1509
280.6447	0.1453
280.8579	0.149
281.0712	0.1547
281.2845	0.1374
281.4977	0.1454
281.711	0.1333
281.9242	0.1333
282.1374	0.1424
282.3506	0.1324
282.5638	0.1497
282.7769	0.1483
282.9901	0.1473
283.2033	0.1635
283.4164	0.1537
283.6295	0.1342
283.8426	0.1435
284.0557	0.1447
284.2688	0.1648
284.4819	0.154
284.695	0.1548
284.908	0.1566
285.1211	0.1374
285.3341	0.1479
285.5471	0.1504
285.7601	0.1417
285.9731	0.1475
286.1861	0.1501
286.3991	0.1651
286.612	0.1624
286.825	0.1615
287.0379	0.1562
287.2508	0.1548
287.4637	0.1616
287.6766	0.1537
287.8895	0.1603
288.1024	0.1739
288.3152	0.1674
288.5281	0.1663
288.7409	0.1572
288.9538	0.1583
289.1666	0.1602
289.3794	0.1643
289.5922	0.1516
289.8049	0.1502
290.0177	0.1543
290.2304	0.1661
290.4432	0.1654
290.6559	0.1669
290.8686	0.1724
291.0813	0.1571
291.294	0.1547
291.5067	0.1662
291.7194	0.1526
291.932	0.1745
292.1447	0.1699
292.3573	0.1679
292.5699	0.1614
292.7825	0.1639
292.9951	0.1651
293.2077	0.1643
293.4203	0.1633
293.6328	0.1567
293.8454	0.1693
294.0579	0.1619
294.2704	0.1693
294.4829	0.171
294.6954	0.1638
294.9079	0.1499
295.1204	0.177
295.3328	0.1616
295.5453	0.1653
295.7577	0.1828
295.9701	0.1536
296.1825	0.1635
296.3949	0.1611
296.6073	0.1629
296.8197	0.1677
297.0321	0.1878
297.2444	0.1658
297.4567	0.1608
297.6691	0.1576
297.8814	0.1641
298.0937	0.1648
298.306	0.1689
298.5182	0.1698
298.7305	0.17
298.9428	0.1568
299.155	0.1622
299.3672	0.155
299.5794	0.1582
299.7916	0.159
300.0038	0.1588
300.216	0.1565
300.4282	0.1732
300.6403	0.1486
300.8525	0.157
301.0646	0.1584
301.2767	0.1556
301.4888	0.1623
301.7009	0.1657
301.913	0.1626
302.125	0.164
302.3371	0.1622
302.5491	0.1669
302.7612	0.1721
302.9732	0.1726
303.1852	0.1676
303.3972	0.1565
303.6092	0.1632
303.8211	0.1509
304.0331	0.1591
304.245	0.1495
304.457	0.1532
304.6689	0.1533
304.8808	0.1543
305.0927	0.1454
305.3046	0.1453
305.5164	0.1602
305.7283	0.1397
305.9401	0.1592
306.152	0.1481
306.3638	0.156
306.5756	0.1427
306.7874	0.1543
306.9992	0.1486
307.2109	0.1461
307.4227	0.1255
307.6344	0.1426
307.8462	0.1331
308.0579	0.1454
308.2696	0.1286
308.4813	0.1357
308.693	0.1456
308.9046	0.1428
309.1163	0.1236
309.328	0.125
309.5396	0.1265
309.7512	0.1173
309.9628	0.1173
310.1744	0.1242
310.386	0.1108
310.5976	0.1175
310.8091	0.1183
311.0207	0.1168
311.2322	0.122
311.4437	0.0966
311.6552	0.1039
311.8667	0.1096
312.0782	0.0928
312.2897	0.1005
312.5012	0.1016
312.7126	0.0988
312.924	0.0947
313.1355	0.0991
313.3469	0.1036
313.5583	0.1058
313.7696	0.0991
313.981	0.1003
314.1924	0.0959
314.4037	0.0973
314.6151	0.1073
314.8264	0.0875
315.0377	0.0906
315.249	0.0968
315.4603	0.109
315.6716	0.0902
315.8828	0.0929
316.0941	0.0941
316.3053	0.0798
316.5165	0.0986
316.7277	0.0779
316.9389	0.1089
317.1501	0.087
317.3613	0.092
317.5724	0.082
317.7836	0.0965
317.9947	0.0818
318.2058	0.0877
318.417	0.0789
318.6281	0.0815
318.8391	0.1013
319.0502	0.083
319.2613	0.1017
319.4723	0.106
319.6834	0.1019
319.8944	0.0818
320.1054	0.0836
320.3164	0.0963
320.5274	0.091
320.7383	0.0934
320.9493	0.0918
321.1602	0.092
321.3712	0.0821
321.5821	0.1046
321.793	0.0871
322.0039	0.0916
322.2148	0.0994
322.4257	0.0976
322.6365	0.1001
322.8474	0.0932
323.0582	0.0952
323.269	0.0962
323.4798	0.1067
323.6906	0.0912
323.9014	0.0938
324.1122	0.0943
324.3229	0.0916
324.5337	0.0847
324.7444	0.0881
324.9551	0.098
325.1658	0.0928
325.3765	0.0875
325.5872	0.0865
325.7979	0.092
326.0085	0.1006
326.2192	0.0911
326.4298	0.096
326.6404	0.0893
326.851	0.0915
327.0616	0.0887
327.2722	0.1021
327.4828	0.1034
327.6933	0.0943
327.9039	0.1032
328.1144	0.1075
328.3249	0.0997
328.5354	0.0935
328.7459	0.1011
328.9564	0.089
329.1669	0.1002
329.3773	0.1018
329.5878	0.094
329.7982	0.0899
330.0086	0.093
330.219	0.0916
330.4294	0.0915
330.6398	0.1167
330.8502	0.0863
331.0605	0.105
331.2708	0.099
331.4812	0.1054
331.6915	0.1081
331.9018	0.1031
332.1121	0.0914
332.3224	0.1017
332.5326	0.1054
332.7429	0.1026
332.9531	0.1109
333.1633	0.1101
333.3735	0.1075
333.5837	0.0923
333.7939	0.0862
334.0041	0.1114
334.2143	0.1154
334.4244	0.1093
334.6346	0.0762
334.8447	0.1151
335.0548	0.0921
335.2649	0.0981
335.475	0.1025
335.685	0.0913
335.8951	0.109
336.1051	0.1005
336.3152	0.1025
336.5252	0.0936
336.7352	0.0922
336.9452	0.1169
337.1552	0.1076
337.3652	0.0975
337.5751	0.108
337.7851	0.1087
337.995	0.0924
338.2049	0.0989
338.4148	0.1108
338.6247	0.1072
338.8346	0.1081
339.0445	0.1054
339.2543	0.0996
339.4642	0.1087
339.674	0.1055
339.8838	0.0989
340.0936	0.108
340.3034	0.1206
340.5132	0.1077
340.7229	0.1191
340.9327	0.0998
341.1424	0.1124
341.3522	0.1203
341.5619	0.1125
341.7716	0.1182
341.9813	0.1115
342.1909	0.1092
342.4006	0.1119
342.6102	0.1251
342.8199	0.1184
343.0295	0.1107
343.2391	0.115
343.4487	0.1191
343.6583	0.1111
343.8679	0.1115
344.0774	0.1212
344.287	0.1166
344.4965	0.1089
344.706	0.1345
344.9155	0.1243
345.125	0.119
345.3345	0.1276
345.544	0.1144
345.7534	0.1155
345.9629	0.1193
346.1723	0.1251
346.3817	0.122
346.5911	0.1305
346.8005	0.131
347.0099	0.1222
347.2193	0.1262
347.4286	0.1098
347.638	0.1351
347.8473	0.1217
348.0566	0.1298
348.2659	0.1234
348.4752	0.1239
348.6845	0.1293
348.8937	0.1348
349.103	0.1398
349.3122	0.1302
349.5214	0.1312
349.7306	0.132
349.9398	0.1348
350.149	0.1372
350.3582	0.1294
350.5674	0.1354
350.7765	0.1328
350.9856	0.1354
351.1948	0.1477
351.4039	0.1122
351.613	0.1342
351.822	0.1443
352.0311	0.1524
352.2402	0.1372
352.4492	0.1362
352.6582	0.1575
352.8672	0.1271
353.0762	0.1415
353.2852	0.1457
353.4942	0.1353
353.7032	0.1518
353.9121	0.1439
354.1211	0.1501
354.33	0.148
354.5389	0.1381
354.7478	0.1433
354.9567	0.149
355.1655	0.146
355.3744	0.1483
355.5833	0.1512
355.7921	0.1768
356.0009	0.152
356.2097	0.1721
356.4185	0.1619
356.6273	0.1539
356.8361	0.1556
357.0448	0.1537
357.2536	0.1352
357.4623	0.1477
357.671	0.1629
357.8797	0.1515
358.0884	0.155
358.2971	0.1596
358.5057	0.1615
358.7144	0.1639
358.923	0.1597
359.1316	0.1688
359.3402	0.168
359.5488	0.1673
359.7574	0.1635
359.966	0.1728
360.1746	0.1735
360.3831	0.1689
360.5916	0.1668
360.8002	0.1611
361.0087	0.1952
361.2172	0.1758
361.4256	0.1812
361.6341	0.1924
361.8426	0.1703
362.051	0.168
362.2594	0.1728
362.4678	0.1731
362.6762	0.2065
362.8846	0.1829
363.093	0.1767
363.3014	0.187
363.5097	0.1619
363.718	0.1853
363.9264	0.1792
364.1347	0.1799
364.343	0.188
364.5513	0.1925
364.7595	0.2091
364.9678	0.1883
365.176	0.1947
365.3842	0.1838
365.5925	0.1969
365.8007	0.2031
366.0089	0.1966
366.217	0.1855
366.4252	0.2005
366.6333	0.2102
366.8415	0.2071
367.0496	0.1867
367.2577	0.2049
367.4658	0.218
367.6739	0.217
367.882	0.1992
368.09	0.1991
368.2981	0.215
368.5061	0.2107
368.7141	0.1962
368.9221	0.2187
369.1301	0.2196
369.3381	0.208
369.5461	0.2105
369.754	0.2155
369.962	0.2121
370.1699	0.23
370.3778	0.2192
370.5857	0.2096
370.7936	0.2298
371.0015	0.2173
371.2093	0.218
371.4172	0.2259
371.625	0.2133
371.8328	0.2086
372.0406	0.2213
372.2484	0.229
372.4562	0.2357
372.664	0.2294
372.8717	0.2327
373.0795	0.2032
373.2872	0.2192
373.4949	0.233
373.7026	0.2305
373.9103	0.2419
374.118	0.2276
374.3256	0.2454
374.5333	0.2164
374.7409	0.226
374.9485	0.2393
375.1561	0.2337
375.3637	0.2453
375.5713	0.2255
375.7789	0.24
375.9864	0.233
376.194	0.2239
376.4015	0.248
376.609	0.2626
376.8165	0.256
377.024	0.2383
377.2315	0.2453
377.4389	0.2471
377.6464	0.2468
377.8538	0.2393
378.0612	0.2566
378.2686	0.2439
378.476	0.2618
378.6834	0.2453
378.8908	0.2587
379.0981	0.2613
379.3055	0.2637
379.5128	0.2463
379.7201	0.2625
379.9274	0.2501
380.1347	0.2449
380.342	0.2781
380.5492	0.2515
380.7565	0.2572
380.9637	0.2602
381.1709	0.2624
381.3781	0.2491
381.5853	0.2687
381.7925	0.2624
381.9997	0.2725
382.2068	0.2624
382.4139	0.2681
382.6211	0.2406
382.8282	0.2521
383.0353	0.2604
383.2424	0.2683
383.4494	0.2768
383.6565	0.2629
383.8635	0.2541
384.0706	0.2536
384.2776	0.2715
384.4846	0.2468
384.6916	0.2849
384.8986	0.2548
385.1055	0.2549
385.3125	0.26
385.5194	0.2354
385.7263	0.2876
385.9333	0.2518
386.1402	0.2803
386.347	0.2809
386.5539	0.2591
386.7608	0.2705
386.9676	0.2441
387.1744	0.2587
387.3813	0.2618
387.5881	0.2634
387.7948	0.2474
388.0016	0.27
388.2084	0.246
388.4151	0.2439
388.6219	0.2673
388.8286	0.2553
389.0353	0.2674
389.242	0.2631
389.4487	0.2559
389.6553	0.2544
389.862	0.2377
390.0686	0.2416
390.2753	0.2616
390.4819	0.2531
390.6885	0.2479
390.8951	0.2439
391.1016	0.2498
391.3082	0.2415
391.5147	0.2464
391.7213	0.2528
391.9278	0.2366
392.1343	0.2323
392.3408	0.2326
392.5473	0.2342
392.7537	0.2423
392.9602	0.2427
393.1666	0.2257
393.373	0.2285
393.5794	0.238
393.7858	0.2455
393.9922	0.2306
394.1986	0.236
394.4049	0.2384
394.6113	0.2194
394.8176	0.2307
395.0239	0.225
395.2302	0.2198
395.4365	0.2286
395.6428	0.2314
395.8491	0.2274
396.0553	0.2305
396.2615	0.2183
396.4678	0.2424
396.674	0.2225
396.8802	0.2402
397.0863	0.2338
397.2925	0.2139
397.4987	0.2147
397.7048	0.219
397.9109	0.2304
398.117	0.2164
398.3231	0.2083
398.5292	0.2247
398.7353	0.2342
398.9413	0.2123
399.1474	0.2051
399.3534	0.2104
399.5594	0.1927
399.7654	0.221
399.9714	0.241
400.1774	0.2164
400.3833	0.2218
400.5893	0.2247
400.7952	0.2074
401.0011	0.2254
401.207	0.2306
401.4129	0.2163
401.6188	0.211
401.8247	0.2183
402.0305	0.2174
402.2364	0.2017
402.4422	0.2259
402.648	0.2354
402.8538	0.2406
403.0596	0.2216
403.2654	0.2241
403.4711	0.2147
403.6768	0.2121
403.8826	0.2377
404.0883	0.2186
404.294	0.2402
404.4997	0.227
404.7054	0.2356
404.911	0.206
405.1167	0.2319
405.3223	0.2206
405.5279	0.24
405.7335	0.2277
405.9391	0.2179
406.1447	0.2232
406.3502	0.2488
406.5558	0.2271
406.7613	0.2316
406.9668	0.2142
407.1724	0.2173
407.3778	0.2252
407.5833	0.2237
407.7888	0.1997
407.9942	0.2352
408.1997	0.2331
408.4051	0.2105
408.6105	0.2198
408.8159	0.2136
409.0213	0.2246
409.2267	0.2416
409.432	0.2131
409.6374	0.2255
409.8427	0.2073
410.048	0.2016
410.2533	0.228
410.4586	0.1946
410.6639	0.2036
410.8691	0.2138
411.0744	0.2075
411.2796	0.2046
411.4848	0.2254
411.69	0.2107
411.8952	0.2338
412.1004	0.2176
412.3056	0.2243
412.5107	0.2044
412.7158	0.2271
412.921	0.2153
413.1261	0.214
413.3312	0.2063
413.5362	0.2136
413.7413	0.2173
413.9464	0.2074
414.1514	0.2164
414.3564	0.2025
414.5614	0.1959
414.7664	0.204
414.9714	0.2252
415.1764	0.2206
415.3813	0.2281
415.5863	0.2327
415.7912	0.2058
415.9961	0.222
416.201	0.2094
416.4059	0.22
416.6108	0.2007
416.8156	0.2242
417.0205	0.1948
417.2253	0.1945
417.4301	0.2387
417.6349	0.2083
417.8397	0.2151
418.0445	0.2147
418.2492	0.2075
418.454	0.2003
418.6587	0.2104
418.8634	0.2015
419.0681	0.1789
419.2728	0.2023
419.4775	0.2192
419.6822	0.2131
419.8868	0.1773
420.0915	0.2034
420.2961	0.2018
420.5007	0.2031
420.7053	0.1965
420.9099	0.1977
421.1144	0.19
421.319	0.1906
421.5235	0.1861
421.728	0.1947
421.9325	0.2029
422.137	0.1889
422.3415	0.1957
422.546	0.1978
422.7504	0.1938
422.9549	0.2065
423.1593	0.1998
423.3637	0.1894
423.5681	0.1892
423.7725	0.1826
423.9769	0.1807
424.1812	0.1827
424.3856	0.1853
424.5899	0.1771
424.7942	0.1858
424.9985	0.1798
425.2028	0.1664
425.4071	0.2046
425.6113	0.1798
425.8156	0.1932
426.0198	0.1815
426.224	0.1687
426.4282	0.1942
426.6324	0.1747
426.8366	0.1672
427.0407	0.1692
427.2449	0.1618
427.449	0.1649
427.6531	0.1546
427.8572	0.1504
428.0613	0.1678
428.2654	0.165
428.4694	0.1798
428.6735	0.1801
428.8775	0.1815
429.0815	0.1657
429.2855	0.1382
429.4895	0.1598
429.6935	0.1484
429.8975	0.1478
430.1014	0.1533
430.3053	0.1451
430.5093	0.1444
430.7132	0.1345
430.9171	0.1405
431.1209	0.1484
431.3248	0.1303
431.5286	0.1542
431.7325	0.15
431.9363	0.1505
432.1401	0.1521
432.3439	0.1355
432.5477	0.1251
432.7514	0.1242
432.9552	0.1362
433.1589	0.1106
433.3627	0.1141
433.5664	0.1221
433.7701	0.1086
433.9737	0.1222
434.1774	0.1102
434.3811	0.126
434.5847	0.1147
434.7883	0.112
434.9919	0.1257
435.1955	0.1114
435.3991	0.1145
435.6027	0.1149
435.8062	0.1204
436.0098	0.1151
436.2133	0.103
436.4168	0.0928
436.6203	0.082
436.8238	0.1134
437.0272	0.0982
437.2307	0.1065
437.4341	0.1096
437.6375	0.1082
437.841	0.0781
438.0443	0.1061
438.2477	0.1016
438.4511	0.0841
438.6545	0.0944
438.8578	0.0876
439.0611	0.1022
439.2644	0.0852
439.4677	0.077
439.671	0.0707
439.8743	0.0769
440.0775	0.0775
440.2808	0.0877
440.484	0.0815
440.6872	0.0685
440.8904	0.0562
441.0936	0.1018
441.2967	0.0701
441.4999	0.061
441.703	0.083
441.9062	0.0667
442.1093	0.0689
442.3124	0.0687
442.5155	0.0464
442.7185	0.0655
442.9216	0.0437
443.1246	0.0666
443.3276	0.0682
443.5307	0.0507
443.7337	0.0652
443.9366	0.053
444.1396	0.0514
444.3426	0.0603
444.5455	0.0531
444.7484	0.0509
444.9513	0.0414
445.1542	0.0509
445.3571	0.0515
445.56	0.0627
445.7628	0.0346
445.9657	0.0503
446.1685	0.0588
446.3713	0.0565
446.5741	0.0451
446.7769	0.0387
446.9797	0.0515
447.1824	0.0544
447.3852	0.0234
447.5879	0.0486
447.7906	0.0341
447.9933	0.0377
448.196	0.0361
448.3986	0.0279
448.6013	0.0259
448.8039	0.0145
449.0066	0.0348
449.2092	0.0414
449.4118	0.0309
449.6143	0.0413
449.8169	0.034
450.0195	0.0261
450.222	0.0138
450.4245	0.0123
450.627	0.0381
450.8295	0.0288
451.032	0.0208
451.2345	0.0235
451.4369	0.0307
451.6394	0.0211
451.8418	0.0121
452.0442	0.006
452.2466	0.028
452.449	0.0128
452.6513	0.0241
452.8537	0.0223
453.056	0.0145
453.2583	0.0277
453.4607	0.0037
453.663	0.0233
453.8652	0.0229
454.0675	0.001
454.2697	0.0213
454.472	0.0092
454.6742	0.0143
454.8764	0.0111
455.0786	0.0094
455.2808	0.0146
455.4829	0.0161
455.6851	0.0108
455.8872	0.0181
456.0893	0.0223
456.2915	0.0008
456.4935	0.0331
456.6956	0.0178
456.8977	0.0103
457.0997	-0.0012
457.3018	0.0065
457.5038	0.0131
457.7058	-0.0007
457.9078	-0.0005
458.1098	0.0197
458.3117	0.0171
458.5137	0.0001
458.7156	0.0067
458.9175	0.0115
459.1194	0.008
459.3213	0.0137
459.5232	-0.011
459.725	-0.0047
459.9269	0.0178
460.1287	0.0048
460.3305	0.0119
460.5323	-0.0022
460.7341	0.0042
460.9359	0.0043
461.1376	0.0016
461.3394	0.0076
461.5411	0.0088
461.7428	-0.0082
461.9445	0.0134
462.1462	0.0241
462.3479	0.0111
462.5495	-0.0105
462.7512	0.0038
462.9528	0.0062
463.1544	-0.0132
463.356	0.0069
463.5576	0.0025
463.7592	-0.0035
463.9607	0.0078
464.1623	0.0112
464.3638	0.0148
464.5653	-0.0036
464.7668	0.008
464.9683	0.0081
465.1697	0.0185
465.3712	-0.0102
465.5726	-0.002
465.7741	0.007
465.9755	-0.0055
466.1769	0.0067
466.3782	0.0115
466.5796	-0.0108
466.7809	0.0126
466.9823	-0.0065
467.1836	0.0021
467.3849	-0.0062
467.5862	0.0122
467.7875	-0.0037
467.9887	0.0114
468.19	-0.0019
468.3912	-0.0086
468.5924	-0.0026
468.7936	-0.0023
468.9948	0.0103
469.196	0.0098
469.3972	-0.0153
469.5983	0.0068
469.7994	0.0007
470.0006	-0.0051
470.2017	-0.0193
470.4027	0.0035
470.6038	0.0045
470.8049	-0.0065
471.0059	-0.005
471.2069	-0.019
471.408	0.0193
471.6089	0.0071
471.8099	-0.0025
472.0109	-0.0046
472.2119	-0.0146
472.4128	-0.0106
472.6137	-0.0203
472.8146	-0.0178
473.0155	0.0012
473.2164	-0.0014
473.4173	0.0053
473.6181	0.0042
473.819	0.0067
474.0198	-0.0128
474.2206	-0.003
474.4214	0.0012
474.6222	-0.0059
474.8229	-0.008
475.0237	-0.0138
475.2244	-0.0051
475.4251	-0.0066
475.6258	-0.0029
475.8265	-0.0043
476.0272	0.0016
476.2278	-0.0124
476.4285	-0.0055
476.6291	-0.0117
476.8297	-0.0022
477.0303	0.0087
477.2309	-0.0132
477.4315	-0.014
477.632	-0.004
477.8326	-0.0078
478.0331	0.0038
478.2336	0.0029
478.4341	-0.0001
478.6346	-0.0063
478.8351	0.0003
479.0355	-0.0007
479.236	-0.0062
479.4364	0.0019
479.6368	-0.0047
479.8372	-0.016
480.0376	0.0021
480.2379	-0.0286
480.4383	-0.0123
480.6386	0.0025
480.8389	-0.0118
481.0392	-0.0119
481.2395	-0.0194
481.4398	0.0046
481.6401	-0.0039
481.8403	-0.0171
482.0405	-0.004
482.2408	-0.0069
482.441	0.0063
482.6411	-0.0111
482.8413	0.0029
483.0415	-0.018
483.2416	-0.0063
483.4417	-0.0069
483.6419	-0.0058
483.8419	-0.0068
484.042	-0.0035
484.2421	0.0077
484.4422	0.0047
484.6422	-0.0036
484.8422	-0.0044
485.0422	-0.0097
485.2422	-0.0022
485.4422	-0.0066
485.6422	-0.0021
485.8421	0.0013
486.042	-0.0071
486.242	-0.0039
486.4419	-0.0023
486.6417	-0.0112
486.8416	-0.0058
487.0415	-0.0056
487.2413	-0.0166
487.4411	-0.0027
487.641	-0.0053
487.8408	0.0081
488.0405	-0.0028
488.2403	-0.0107
488.4401	-0.0006
488.6398	0.009
488.8395	-0.0185
489.0392	-0.0008
489.2389	-0.0048
489.4386	-0.0016
489.6383	-0.0052
489.8379	0.0039
490.0376	-0.004
490.2372	-0.0092
490.4368	-0.018
490.6364	-0.0048
490.836	-0.0082
491.0355	-0.0065
491.2351	-0.0041
491.4346	-0.0072
491.6341	-0.0089
491.8336	0.0038
492.0331	-0.0096
492.2326	-0.0096
492.432	-0.003
492.6315	-0.0061
492.8309	-0.0168
493.0303	-0.0095
493.2297	-0.0074
493.4291	-0.0123
493.6284	-0.004
493.8278	-0.0113
494.0271	-0.0061
494.2264	0.0043
494.4257	-0.0064
494.625	-0.0071
494.8243	-0.0155
495.0236	-0.0162
495.2228	-0.0232
495.422	-0.003
495.6213	-0.0028
495.8205	-0.0055
496.0196	-0.0072
496.2188	0.0097
496.418	-0.0097
496.6171	-0.0071
496.8162	-0.0131
497.0153	-0.0038
497.2144	-0.003
497.4135	-0.0011
497.6126	-0.0058
497.8116	-0.0002
498.0107	0.0021
498.2097	-0.012
498.4087	-0.0012
498.6077	0.0019
498.8067	-0.0116
499.0056	0.0004
499.2046	-0.0055
499.4035	-0.0218
499.6024	0.0025
499.8013	-0.0083
500.0002	-0.001
500.199	0.0035
500.3979	-0.0155
500.5967	-0.0217
500.7956	-0.0078
500.9944	0.0004
501.1932	-0.0091
501.3919	-0.0062
501.5907	-0.0155
501.7895	-0.009
501.9882	-0.0102
502.1869	-0.0149
502.3856	-0.0085
502.5843	-0.0103
502.783	-0.0042
502.9816	-0.0046
503.1803	-0.0168
503.3789	-0.0097
503.5775	0.0016
503.7761	-0.0006
503.9747	-0.0011
504.1732	-0.0148
504.3718	-0.0035
504.5703	-0.0095
504.7689	-0.002
504.9674	-0.0082
505.1658	-0.0199
505.3643	-0.01
505.5628	-0.0152
505.7612	-0.0061
505.9597	0.0004
506.1581	-0.0058
506.3565	0.0007
506.5549	-0.0028
506.7532	-0.0161
506.9516	-0.0022
507.1499	-0.0048
507.3482	-0.0156
507.5465	-0.0093
507.7448	-0.0065
507.9431	-0.0121
508.1414	0.0103
508.3396	-0.006
508.5379	-0.004
508.7361	-0.0145
508.9343	-0.0048
509.1325	0.0033
509.3306	-0.0068
509.5288	-0.0081
509.7269	-0.013
509.9251	0.0015
510.1232	-0.0029
510.3213	-0.005
510.5193	0.0018
510.7174	-0.021
510.9154	-0.0075
511.1135	-0.0156
511.3115	-0.0093
511.5095	-0.0078
511.7075	-0.0014
511.9055	-0.0092
512.1034	-0.0105
512.3014	0.0043
512.4993	0.0025
512.6972	0.0032
512.8951	-0.0212
513.093	0.0005
513.2908	0.0057
513.4887	-0.0095
513.6865	-0.0011
513.8844	-0.0183
514.0822	-0.008
514.2799	-0.0147
514.4777	-0.0025
514.6755	-0.0049
514.8732	-0.0052
515.0709	0.0013
515.2687	-0.0122
515.4664	0.0001
515.664	-0.0128
515.8617	-0.0121
516.0594	-0.0226
516.257	-0.0006
516.4546	-0.0179
516.6522	-0.0021
516.8498	-0.0025
517.0474	-0.0057
517.2449	-0.0028
517.4425	-0.0027
517.64	0.0009
517.8375	-0.0039
518.035	-0.0023
518.2325	-0.0077
518.43	-0.0073
518.6274	-0.0042
518.8249	-0.0187
519.0223	0.0074
519.2197	-0.0038
519.4171	-0.0128
519.6145	-0.0079
519.8118	-0.0033
520.0092	-0.0086
520.2065	-0.0159
520.4038	-0.0191
520.6011	-0.0032
520.7984	-0.014
520.9956	-0.0122
521.1929	-0.0132
521.3901	-0.0063
521.5874	-0.0015
521.7846	-0.0106
521.9818	-0.0137
522.1789	-0.0129
522.3761	-0.0043
522.5732	-0.0063
522.7704	-0.0102
522.9675	-0.0027
523.1646	-0.0062
523.3617	-0.006
523.5587	-0.0019
523.7558	-0.0065
523.9528	-0.0058
524.1498	0.0035
524.3468	-0.0105
524.5438	-0.0079
524.7408	-0.0124
524.9378	0.0095
525.1347	0.0024
525.3316	-0.0026
525.5285	-0.0124
525.7254	0.0025
525.9223	-0.0019
526.1192	-0.0032
526.316	-0.0054
526.5129	0.0066
526.7097	-0.0085
526.9065	-0.0109
527.1033	-0.0043
527.3	0.0102
527.4968	-0.0139
527.6935	-0.0041
527.8903	-0.0059
528.087	-0.0024
528.2837	-0.0039
528.4804	0.0019
528.677	-0.0122
528.8737	0.0006
529.0703	-0.0028
529.2669	-0.0092
529.4635	-0.0068
529.6601	-0.0066
529.8567	-0.0027
530.0532	-0.0153
530.2498	-0.0037
530.4463	0.0144
530.6428	-0.0074
530.8393	0.0021
531.0358	-0.0121
531.2322	-0.0005
531.4287	-0.0129
531.6251	-0.0152
531.8215	0.0026
532.0179	0.0083
532.2143	-0.0004
532.4107	-0.0044
532.607	-0.0045
532.8034	0.0005
532.9997	0.0092
533.196	-0.0036
533.3923	-0.0122
533.5886	0.0063
533.7848	0.0071
533.9811	-0.0056
534.1773	-0.0026
534.3735	0.0053
534.5697	-0.0008
534.7659	0.0007
534.9621	-0
535.1582	-0.0055
535.3544	-0.0022
535.5505	-0.0141
535.7466	-0.0115
535.9427	0.003
536.1387	-0.0118
536.3348	-0.0035
536.5308	-0.0013
536.7269	-0.0128
536.9229	0.0002
537.1189	0.004
537.3148	-0.0035
537.5108	-0.0029
537.7068	-0
537.9027	0.0029
538.0986	0.0026
538.2945	-0.0015
538.4904	0.0044
538.6863	-0.0002
538.8821	0.0056
539.078	-0.0068
539.2738	-0.0027
539.4696	-0.0017
539.6654	0.0068
539.8611	0.0054
540.0569	-0.0012
540.2526	-0.0041
540.4484	0.0059
540.6441	0.0125
540.8398	0.0096
541.0355	-0.0013
541.2311	-0.0043
541.4268	-0.0111
541.6224	0.0075
541.818	-0.0035
542.0136	-0.0079
542.2092	-0.0015
542.4048	-0.0069
542.6003	-0.0029
542.7959	0.0009
542.9914	-0.0032
543.1869	0.0016
543.3824	0.0005
543.5779	-0.0017
543.7734	-0.0073
543.9688	-0.0099
544.1642	-0.0001
544.3596	-0.0033
544.555	0.0042
544.7504	-0.0093
544.9458	-0.0102
545.1411	-0.0077
545.3365	-0.0023
545.5318	-0.0025
545.7271	-0.0048
545.9224	0.0009
546.1177	0.004
546.3129	0.0002
546.5081	-0.0073
546.7034	-0.0019
546.8986	-0.0007
547.0938	-0.0047
547.289	0.0032
547.4841	0.0045
547.6793	0.0086
547.8744	-0.0039
548.0695	-0.0044
548.2646	-0.0068
548.4597	0.0061
548.6548	0.0041
548.8498	-0.0008
549.0448	0.0073
549.2399	0.0064
549.4349	0.0077
549.6298	-0.0095
549.8248	0.0048
550.0198	-0.0063
550.2147	0.0042
550.4096	-0.005
550.6045	-0.0017
550.7994	0.004
550.9943	0.0017
551.1892	-0.0052
551.384	-0.0026
551.5788	-0.0087
551.7737	-0.0038
551.9685	-0.0066
552.1632	0.0028
552.358	-0.0066
552.5528	0.0007
552.7475	-0.0061
552.9422	-0.0029
553.1369	-0.0009
553.3316	0.0021
553.5263	-0.0079
553.7209	0.0077
553.9156	0.0006
554.1102	-0.0057
554.3048	-0.0079
554.4994	0.0073
554.694	-0.0086
554.8885	-0.0068
555.0831	0.0012
555.2776	-0.0053
555.4721	0.0033
555.6666	-0.0014
555.8611	0.0059
556.0555	-0.0007
556.25	-0.0013
556.4444	-0.0074
556.6388	-0.0017
556.8332	-0.0039
557.0276	-0.0015
557.222	0.0003
557.4163	-0.0081
557.6107	-0.0026
557.805	0.0129
557.9993	0.0051
558.1936	0.0094
558.3879	0.0088
558.5821	-0.0043
558.7764	-0.0016
558.9706	0.0037
559.1648	0.0122
559.359	-0.0092
559.5532	-0.0107
559.7473	-0.0036
559.9415	-0.002
560.1356	-0.0082
560.3297	-0.0119
560.5238	0.0073
560.7179	0.0004
560.9119	0.0047
561.106	0.0053
561.3	-0.0054
561.494	-0.0005
561.688	0.0006
561.882	-0.007
562.076	-0
562.2699	0.0049
562.4639	-0.0035
562.6578	-0.0043
562.8517	0.0029
563.0456	0.0032
563.2395	-0.0012
563.4333	0.0076
563.6272	0.0036
563.821	-0.0072
564.0148	0.0021
564.2086	-0.0045
564.4024	-0.0098
564.5961	-0.003
564.7899	0.0082
564.9836	0.0001
565.1773	0.0015
565.371	0.0006
565.5647	0.0059
565.7584	0.0058
565.952	-0.0012
566.1456	-0.0026
566.3393	0.0008
566.5329	-0.0009
566.7264	0.0002
566.92	-0.0021
567.1136	0.0051
567.3071	-0.0029
567.5006	0.0036
567.6941	0.0052
567.8876	0.0125
568.0811	-0.0013
568.2745	0.0041
568.468	0.0043
568.6614	-0.0004
568.8548	-0.0021
569.0482	-0.0054
569.2416	0.0053
569.4349	0.0044
569.6283	0.0106
569.8216	0.0023
570.0149	0.0011
570.2082	0.011
570.4015	0.005
570.5947	0.0069
570.788	0.0116
570.9812	0.0025
571.1744	-0.0033
571.3676	-0.0051
571.5608	-0.002
571.754	-0.0034
571.9471	0.0016
572.1402	-0.001
572.3333	-0.002
572.5264	-0.003
572.7195	0.0048
572.9126	-0.0019
573.1057	0.0011
573.2987	-0.004
573.4917	0.0115
573.6847	0.0024
573.8777	0.0015
574.0707	0.0026
574.2636	-0.0044
574.4566	-0.0043
574.6495	0.0018
574.8424	0.0022
575.0353	0.0018
575.2281	0.0108
575.421	0.003
575.6138	0.0018
575.8067	-0.002
575.9995	0.0054
576.1923	0.0077
576.385	0.001
576.5778	0.0019
576.7706	-0.0015
576.9633	-0.0016
577.156	0.0062
577.3487	-0.0001
577.5414	-0.0002
577.734	-0.0027
577.9267	-0.0016
578.1193	-0.0101
578.3119	-0.0054
578.5045	0.001
578.6971	-0.0018
578.8897	0.0015
579.0822	0.0024
579.2747	-0.0023
579.4673	-0.0029
579.6598	0.0014
579.8522	-0.0011
580.0447	-0.0005
580.2372	-0.0036
580.4296	0.0056
580.622	0.0027
580.8144	-0.0004
581.0068	-0.0025
581.1992	-0.0079
581.3915	-0.0027
581.5839	-0.0061
581.7762	-0.0119
581.9685	-0.001
582.1608	0.005
582.353	-0.0003
582.5453	0.0029
582.7375	-0.0023
582.9298	0
583.122	-0.0021
583.3142	-0.0027
583.5063	0.0008
583.6985	-0.004
583.8906	-0.0023
584.0827	-0.0007
584.2749	0.0048
584.4669	0.0024
584.659	0.0035
584.8511	0.0039
585.0431	-0.0029
585.2352	-0.0001
585.4272	0.0011
585.6192	0.0034
585.8111	0.0074
586.0031	0.0015
586.195	-0.0028
586.387	0.0033
586.5789	0.0046
586.7708	0.0069
586.9627	0.0045
587.1545	-0.0018
587.3464	0.0051
587.5382	0.004
587.73	-0.0002
587.9218	0.0067
588.1136	0.0031
588.3053	0.0034
588.4971	-0.0049
588.6888	-0.0102
588.8805	0.0014
589.0722	0.0071
589.2639	0.0068
589.4556	-0.0007
589.6472	-0.0031
589.8389	-0.0124
590.0305	-0.0036
590.2221	-0.0021
590.4137	-0.0092
590.6052	0.0076
590.7968	0.0032
590.9883	-0.0016
591.1798	-0.0003
591.3713	0.0011
591.5628	-0.0052
591.7543	0.005
591.9458	0.0044
592.1372	0.0037
592.3286	0.0089
592.52	-0.0005
592.7114	-0.0031
592.9028	-0.0029
593.0941	-0.0058
593.2855	0.0039
593.4768	-0.0024
593.6681	0.0001
593.8594	-0.0039
594.0506	-0.0046
594.2419	0.0089
594.4331	0.0074
594.6244	0.0018
594.8156	-0.0048
595.0067	0.0001
595.1979	0.0056
595.3891	0.0092
595.5802	-0.0031
595.7713	-0.0027
595.9624	-0.0002
596.1535	0.0044
596.3446	0.0006
596.5357	-0.0001
596.7267	0.0032
596.9177	-0.0004
597.1087	-0.0018
597.2997	-0.0007
597.4907	-0.0011
597.6817	-0.0058
597.8726	-0.0001
598.0635	0.0019
598.2544	-0.0071
598.4453	-0.0015
598.6362	-0.0043
598.827	-0.0042
599.0179	0.0021
599.2087	0.0024
599.3995	-0.0033
599.5903	0.0027
599.7811	0.0046
599.9718	-0.0026
600.1626	-0
600.3533	-0.0058
600.544	-0.0066
600.7347	0.0059
600.9254	0.0005
601.116	-0.0055
601.3067	0.0015
601.4973	-0.0045
601.6879	0.0026
601.8785	-0.0003
602.0691	0.0109
602.2596	-0.0009
602.4502	0.0021
602.6407	0.0071
602.8312	0.0014
603.0217	-0.0086
603.2122	-0.0006
603.4027	0.0027
603.5931	0.004
603.7835	-0.0026
603.9739	-0.0001
604.1643	-0.0006
604.3547	-0.0078
604.5451	0.0032
604.7354	-0.0099
604.9257	0.0026
605.116	-0.0072
605.3063	-0.0052
605.4966	-0.0041
605.6869	0.003
605.8771	0.0043
606.0673	0.004
606.2575	0.0049
606.4477	0.0038
606.6379	0.0032
606.8281	-0.0032
607.0182	-0.0027
607.2083	0.0116
607.3985	-0.0025
607.5885	-0.0005
607.7786	0.0072
607.9687	-0.0039
608.1587	0.0003
608.3488	0.0016
608.5388	0.0013
608.7288	-0.0019
608.9187	-0.0057
609.1087	0.0009
609.2986	-0.0093
609.4886	0.0033
609.6785	-0.0008
609.8684	0.0038
610.0582	0.0045
610.2481	-0.0019
610.4379	-0.0032
610.6278	-0.004
610.8176	0.0017
611.0074	-0.005
611.1971	-0.0011
611.3869	0.0039
611.5766	0.0015
611.7664	0.0031
611.9561	0.0088
612.1458	0.0079
612.3354	-0.0103
612.5251	0.0053
612.7147	0.0022
612.9044	0.0068
613.094	-0.003
613.2836	0.0092
613.4731	0.0058
613.6627	0.0004
613.8522	0.003
614.0417	0.0026
614.2313	-0.0026
614.4207	-0.0039
614.6102	0.004
614.7997	0.0007
614.9891	-0.0024
615.1785	0.0045
615.3679	-0.0006
615.5573	0.0001
615.7467	0.0006
615.9361	0.0031
616.1254	0.0038
616.3147	0.0055
616.504	0.0077
616.6933	0.0059
616.8826	0.0061
617.0718	0.0069
617.2611	0.0075
617.4503	-0.0024
617.6395	0.0006
617.8287	0.0023
618.0179	-0.002
618.207	0.0101
618.3961	0.0022
618.5853	0.001
618.7744	0.0081
618.9634	0.002
619.1525	0.0055
619.3416	-0.004
619.5306	0.0039
619.7196	0.0012
619.9086	-0.0026
620.0976	0.0042
620.2866	0.0012
620.4755	0.0044
620.6645	0.0052
620.8534	0.0032
621.0423	0.0092
621.2312	0.0037
621.42	0.0022
621.6089	0.0017
621.7977	0.0074
621.9865	0.0006
622.1753	0.0028
622.3641	0.0001
622.5529	0.0032
622.7416	0.0056
622.9303	-0.0021
623.1191	0.0094
623.3078	-0.0018
623.4964	0.0018
623.6851	-0.0052
623.8737	0.0039
624.0624	0.0027
624.251	-0.0041
624.4396	-0.0037
624.6282	-0.0056
624.8167	0.0022
625.0053	0.0023
625.1938	0.0049
625.3823	0.0006
625.5708	0.0013
625.7593	0.0007
625.9477	-0.0063
626.1362	-0.0008
626.3246	0.0026
626.513	0.0089
626.7014	0.0083
626.8898	0.0026
627.0781	-0.001
627.2665	0.0028
627.4548	0.0041
627.6431	0.0069
627.8314	0.0041
628.0197	0.0049
628.2079	-0.0072
628.3962	-0.0006
628.5844	0.0079
628.7726	0.003
628.9608	0.0049
629.1489	0.0048
629.3371	0.0016
629.5252	-0.0019
629.7134	0.0029
629.9015	0.0007
630.0895	0.0074
630.2776	0.0063
630.4657	0.0017
630.6537	0.0023
630.8417	0.0019
631.0297	-0.0012
631.2177	0.0058
631.4057	-0.0044
631.5936	0.0043
631.7815	0.0028
631.9695	0.0068
632.1574	0.0057
632.3452	0.0133
632.5331	0.0059
632.7209	0.0019
632.9088	0.0127
633.0966	0.0117
633.2844	-0.002
633.4722	0.0031
633.6599	0.0039
633.8477	0.009
634.0354	0.0044
634.2231	0.0052
634.4108	0.005
634.5985	0.0081
634.7861	0.0122
634.9738	0.0017
635.1614	-0.0005
635.349	0.0024
635.5366	0.009
635.7242	0.0069
635.9117	0.0056
636.0993	0.0041
636.2868	0.0111
636.4743	-0.0038
636.6618	0.0172
636.8492	0.0042
637.0367	0.0032
637.2241	0.0065
637.4115	-0.0047
637.5989	0.0037
637.7863	-0.0004
637.9737	0.0028
638.161	0.0023
638.3484	-0.0021
638.5357	0.0072
638.723	0.0064
638.9103	0.01
639.0975	0.0065
639.2848	0.0031
639.472	0.0039
639.6592	-0.0008
639.8464	0.0167
640.0336	0.0049
640.2208	-0.0017
640.4079	-0.0003
640.595	0.0014
640.7821	0.0025
640.9692	0.0051
641.1563	0.0066
641.3434	0.0116
641.5304	0.002
641.7174	0.0046
641.9044	-0.0014
642.0914	0.0074
642.2784	0.0087
642.4653	0.0033
642.6523	0.0007
642.8392	0.0004
643.0261	0.0077
643.213	0.0068
643.3999	0.003
643.5867	-0.002
643.7735	0.0006
643.9604	-0.0039
644.1472	0.0067
644.3339	0.0083
644.5207	0.0056
644.7075	0.0054
644.8942	0.0019
645.0809	0.0086
645.2676	0.0104
645.4543	0.0045
645.6409	0.0065
645.8276	-0.0024
646.0142	0.0105
646.2008	-0.0007
646.3874	-0.003
646.574	-0.0036
646.7605	-0.0033
646.9471	-0.0125
647.1336	0.0012
647.3201	0.0076
647.5066	-0.0008
647.6931	0.0062
647.8795	-0.0021
648.0659	0.0025
648.2524	0.0074
648.4388	-0.0047
648.6252	-0.0041
648.8115	-0.0039
648.9979	-0.0013
649.1842	0.0023
649.3705	-0.0023
649.5568	0.0049
649.7431	0.0108
649.9294	-0.0058
650.1156	0.0079
650.3018	-0.0032
650.488	0.0064
650.6742	0.0054
650.8604	-0.001
651.0466	-0.0015
651.2327	0.0064
651.4188	-0.0029
651.6049	-0.0002
651.791	0.0033
651.9771	0.0121
652.1632	0.0092
652.3492	0.007
652.5352	0.0063
652.7212	-0.0006
652.9072	0.0136
653.0932	0.0001
653.2791	-0.0041
653.465	0.0025
653.651	-0.0038
653.8369	0.0025
654.0227	-0.001
654.2086	0.0038
654.3944	0.0086
654.5803	0.0006
654.7661	0.0011
654.9519	0.0052
655.1377	-0.0021
655.3234	-0.0011
655.5092	-0.0053
655.6949	-0.0071
655.8806	-0.0029
656.0663	-0.003
656.2519	0.0024
656.4376	-0.0008
656.6232	0.0044
656.8088	-0.0048
656.9945	0.0014
657.18	0.003
657.3656	0.004
657.5511	-0.0001
657.7367	-0.0032
657.9222	0.0073
658.1077	0.002
658.2932	-0.0015
658.4786	-0.0047
658.6641	0.0035
658.8495	-0.0015
659.0349	-0.0013
659.2203	0.0088
659.4057	0.0138
659.591	0.0062
659.7764	0.0031
659.9617	0.0065
660.147	0.0035
660.3323	0.011
660.5176	0.0075
660.7028	0.0075
660.888	0.0091
661.0733	0.0025
661.2585	0.0024
661.4436	-0.0002
661.6288	-0.0025
661.8139	-0.0011
661.9991	0.0029
662.1842	-0.0011
662.3693	0.0058
662.5544	-0.0039
662.7394	0.0045
662.9245	-0.002
663.1095	-0.0004
663.2945	0.0049
663.4795	-0.0021
663.6644	0.007
663.8494	-0.0035
664.0343	0.0033
664.2193	-0.0028
664.4042	0.001
664.589	-0.0086
664.7739	-0.0005
664.9587	-0.0132
665.1436	-0.0028
665.3284	0.002
665.5132	-0.0033
665.698	-0.0053
665.8827	0.0012
666.0675	-0.0034
666.2522	-0.006
666.4369	0.0011
666.6216	0.0001
666.8063	0.0015
666.9909	0.0001
667.1756	0.0006
667.3602	0.006
667.5448	-0.0025
667.7294	0.0088
667.9139	0.0118
668.0985	0.0162
668.283	0.0009
668.4675	0.0112
668.652	0.0028
668.8365	0.0033
669.0209	0.0086
669.2054	0.013
669.3898	0.0056
669.5742	0.0077
669.7586	0.0137
669.943	0.0116
670.1273	0.0127
670.3117	0.0092
670.496	0.0047
670.6803	0.0112
670.8646	0.0103
671.0488	0.0032
671.2331	0.0044
671.4173	0.0051
671.6015	-0.0013
671.7857	0.0091
671.9699	0.0033
672.1541	0.0097
672.3382	0.0047
672.5223	0.0037
672.7064	0.0043
672.8905	0.0051
673.0746	0.0009
673.2587	-0.0044
673.4427	0.0036
673.6267	0.0035
673.8107	0.009
673.9947	0.0038
674.1787	0.0017
674.3626	0.0008
674.5465	0.0103
674.7304	0.0049
674.9143	0.0098
675.0982	0.01
675.2821	-0.0011
675.4659	0.0048
675.6497	0.0023
675.8335	0.0052
676.0173	0.0061
676.2011	0.0103
676.3849	0.0007
676.5686	-0
676.7523	0.0024
676.936	-0.0045
677.1197	-0.0028
677.3034	-0.0022
677.487	-0.0012
677.6706	0.0005
677.8542	0.0005
678.0378	0.0103
678.2214	0.0009
678.405	0.0008
678.5885	-0.0011
678.772	0.0018
678.9555	0.004
679.139	0
679.3225	0.0041
679.5059	0.0004
679.6894	0.0065
679.8728	-0.004
680.0562	-0.0026
680.2395	-0.0048
680.4229	0.0008
680.6062	0.0029
680.7896	0.0029
680.9729	-0.0082
681.1562	0.0081
681.3394	-0.0034
681.5227	-0.0062
681.7059	-0.0016
681.8891	-0.001
682.0723	0.0113
682.2555	0.0109
682.4387	0.0024
682.6218	-0.0011
682.805	-0.0004
682.9881	0.0051
683.1712	-0.0002
683.3542	0.0002
683.5373	0.0051
683.7203	-0.0002
683.9034	0.0024
684.0864	-0.0021
684.2694	-0.0006
684.4523	0.0023
684.6353	0.0003
684.8182	0.0018
685.0011	-0.0039
685.184	-0.0016
685.3669	-0.0003
685.5498	0.0056
685.7326	0.0004
685.9154	0.0004
686.0982	0.012
686.281	0.0004
686.4638	0.002
686.6465	-0.0046
686.8293	-0.004
687.012	0.0082
687.1947	0.0018
687.3774	0.0032
687.56	-0.0031
687.7427	0.0082
687.9253	-0.0008
688.1079	-0.0014
688.2905	0.0085
688.4731	0.0025
688.6556	0.0039
688.8382	-0.0011
689.0207	0.003
689.2032	-0.0055
689.3857	-0.0107
689.5681	0.0032
689.7506	-0.0088
689.933	-0.0082
690.1154	-0.0001
690.2978	-0.008
690.4802	-0.0044
690.6626	-0.0133
690.8449	-0.0019
691.0272	0.0056
691.2095	-0.0089
691.3918	-0.0042
691.5741	0.0047
691.7563	0.0009
691.9386	0.0027
692.1208	0.0003
692.303	-0.0032
692.4852	-0.0015
692.6673	0.0043
692.8495	0.0025
693.0316	0.0036
693.2137	0.0005
693.3958	-0.0026
693.5778	0.0032
693.7599	0.0004
693.9419	0.0007
694.1239	-0.0026
694.3059	0.0015
694.4879	0.0044
694.6699	0.0102
694.8518	0.0055
695.0337	0.0091
695.2157	0.0108
695.3975	0.0075
695.5794	0.0085
695.7613	0.008
695.9431	0.0054
696.1249	0.0041
696.3067	0.0144
696.4885	0.0052
696.6703	-0.0039
696.852	0.0091
697.0337	0.0047
697.2154	0.0039
697.3971	0.0075
697.5788	0.0037
697.7605	0.0081
697.9421	0.0105
698.1237	-0.0007
698.3053	0.0076
698.4869	0.0008
698.6685	-0.0039
698.85	0.0045
699.0315	0.0089
699.213	0.0076
699.3945	0.0017
699.576	0.0116
699.7575	0.0128
699.9389	0.0133
700.1203	0.0031
700.3017	-0.0055
700.4831	-0.0001
700.6645	-0.0011
700.8458	0.0108
701.0271	0.0006
701.2084	0.0049
701.3897	0.0012
701.571	0.003
701.7523	0.001
701.9335	0.0153
702.1147	-0.0015
702.2959	0.0036
702.4771	0.0042
702.6583	0.0016
702.8394	-0.0025
703.0205	0.0047
703.2016	-0.0016
703.3827	0.0051
703.5638	0.0121
703.7449	0.0024
703.9259	0.005
704.1069	-0.0008
704.2879	0.0009
704.4689	0.0059
704.6499	0.0019
704.8308	-0.0035
705.0117	0.0055
705.1927	-0.0034
705.3735	-0.0015
705.5544	0.0007
705.7353	0.0045
705.9161	-0.0006
706.0969	0.0004
706.2777	0.0009
706.4585	-0.0044
706.6393	0.0064
706.82	-0.0033
707.0007	0.0025
707.1815	0.001
707.3621	0.0005
707.5428	0.0048
707.7235	0.0013
707.9041	-0.0013
708.0847	-0.0188
708.2653	-0.0108
708.4459	-0.013
708.6265	0.0016
708.807	-0.0055
708.9875	-0.0069
709.168	-0.0017
709.3485	-0.0102
709.529	-0.0091
709.7095	-0.013
709.8899	-0.0008
710.0703	-0.0163
710.2507	0.0069
710.4311	0.0012
710.6115	-0.0046
710.7918	-0.0048
710.9721	-0.006
711.1524	-0.0113
711.3327	-0.0042
711.513	0.0017
711.6932	-0.0034
711.8735	0.012
712.0537	0.0003
712.2339	0.0004
712.4141	-0.0078
712.5942	-0.0031
712.7744	0.0025
712.9545	-0.0049
713.1346	-0.0002
713.3147	0.0011
713.4947	-0.0055
713.6748	-0.0041
713.8548	-0.0078
714.0348	0.001
714.2148	0.0019
714.3948	0.0045
714.5748	-0.003
714.7547	-0.0014
714.9346	0.0093
715.1145	0.004
715.2944	-0.0012
715.4743	0.0013
715.6541	-0.0046
715.834	0.0035
716.0138	-0.0043
716.1936	-0.0077
716.3733	-0.0027
716.5531	-0.0031
716.7328	0.0003
716.9126	0.0016
717.0923	0.0004
717.2719	-0.0039
717.4516	-0.001
717.6312	-0.0057
717.8109	0.0002
717.9905	-0.0033
718.1701	-0.0004
718.3496	-0.0038
718.5292	-0.0034
718.7087	-0.0009
718.8882	-0.0021
719.0677	0.0017
719.2472	-0.0045
719.4267	0.0062
719.6061	0.0013
719.7856	0.0026
719.965	0.0059
720.1443	-0.001
720.3237	0.0076
720.5031	0.0029
720.6824	0.0076
720.8617	-0.0013
721.041	-0.0018
721.2203	0.0142
721.3995	-0.0019
721.5788	0.0014
721.758	0.0032
721.9372	-0.0019
722.1164	-0.0005
722.2956	0.0029
722.4747	0.0026
722.6538	0.0044
722.8329	0.011
723.012	0.0032
723.1911	-0.0024
723.3702	-0.0011
723.5492	0.0015
723.7282	-0.0024
723.9072	0.0076
724.0862	-0.0009
724.2652	-0.0056
724.4441	-0.0025
724.623	-0.0009
724.8019	-0.0014
724.9808	-0.0033
725.1597	0.0001
725.3385	0.0062
725.5174	-0.0055
725.6962	0.0003
725.875	0.0011
726.0538	0.0037
726.2325	-0.0034
726.4112	0.0065
726.59	-0.0036
726.7687	-0.0033
726.9474	0.0021
727.126	-0.0017
727.3047	-0.008
727.4833	0.0007
727.6619	-0.0028
727.8405	-0.0114
728.0191	-0.0029
728.1976	0.0085
728.3762	0.0003
728.5547	-0.0018
728.7332	-0.012
728.9116	-0.0059
729.0901	0.0052
729.2686	-0.0043
729.447	-0.0074
729.6254	0.0005
729.8038	0.0025
729.9821	0.0012
730.1605	-0.0029
730.3388	0.0065
730.5171	0.0003
730.6954	-0.0021
730.8737	0.01
731.0519	0.001
731.2302	0.0014
731.4084	0.0088
731.5866	0.0028
731.7648	0.003
731.9429	0.0049
732.1211	-0.0088
732.2992	-0.0031
732.4773	-0.0004
732.6554	-0.0036
732.8335	-0.0003
733.0115	0.0031
733.1896	0.009
733.3676	-0.0094
733.5456	-0.0001
733.7235	-0.001
733.9015	0.0043
734.0794	0.0002
734.2574	0.0039
734.4353	0.0035
734.6131	0.0146
734.791	0.0018
734.9689	-0.0032
735.1467	-0.0036
735.3245	-0.0065
735.5023	-0.0032
735.68	-0.0002
735.8578	0.0039
736.0355	-0.0138
736.2132	-0.0087
736.3909	-0.0027
736.5686	-0.0096
736.7463	0.0058
736.9239	-0.0006
737.1015	-0.0018
737.2791	0.0104
737.4567	0.0046
737.6343	0.0061
737.8118	0.0096
737.9894	0.0144
738.1669	-0.01
738.3444	0.0033
738.5218	-0.0037
738.6993	0.0043
738.8767	-0.007
739.0541	0.015
739.2315	-0.0052
739.4089	0.0025
739.5863	-0.0046
739.7636	-0.0091
739.9409	-0.0099
740.1182	0.0098
740.2955	0.0001
740.4728	-0.0003
740.65	-0.0081
740.8272	0.0025
741.0044	0.0007
741.1816	-0
741.3588	-0.0023
741.5359	0.0003
741.7131	-0.0006
741.8902	-0.0016
742.0673	-0.0023
742.2444	-0.0045
742.4214	0.0011
742.5985	-0.0142
742.7755	-0.0098
742.9525	-0.0116
743.1295	0.0061
743.3064	0.0029
743.4834	0.0099
743.6603	0.0011
743.8372	0.0018
744.0141	0.0144
744.191	0.0113
744.3678	-0.0021
744.5446	0.0044
744.7215	0.0006
744.8982	-0.0065
745.075	0.0015
745.2518	0.0042
745.4285	-0.0022
745.6052	-0.0036
745.7819	0.0075
745.9586	-0.0026
746.1353	-0.0044
746.3119	-0.0024
746.4885	-0.0049
746.6651	-0.0129
746.8417	-0.0007
747.0183	0.0007
747.1948	0.0042
747.3714	0.0013
747.5479	0.004
747.7244	0.0037
747.9008	0.0151
748.0773	-0.0076
748.2537	0.001
748.4301	-0.0061
748.6065	0.0109
748.7829	0.0045
748.9593	0.0003
749.1356	0.0013
749.3119	0.0104
749.4882	-0.0101
749.6645	0.0005
749.8408	-0.0106
750.017	-0.0113
750.1933	0.0069
750.3695	-0.0015
750.5457	0.005
750.7218	-0.0009
750.898	0.0081
751.0741	-0.003
751.2502	0.0039
751.4263	-0.0037
751.6024	0.0031
751.7784	-0.0007
751.9545	-0.0041
752.1305	-0.0007
752.3065	-0.0069
752.4825	0.0046
752.6584	-0.0052
752.8344	-0.0083
753.0103	-0.0062
753.1862	-0.0111
753.3621	0.0031
753.5379	-0.0014
753.7138	0.002
753.8896	-0.002
754.0654	-0.0001
754.2412	0.0062
754.417	-0.0048
754.5927	-0.0082
754.7685	-0.0103
754.9442	-0.0021
755.1199	0.0084
755.2956	-0.0002
755.4712	0.006
755.6469	0.0019
755.8225	-0.0027
755.9981	-0.0013
756.1736	0.0028
756.3492	0.0021
756.5248	0.0039
756.7003	-0.0049
756.8758	0.0108
757.0513	-0.0094
757.2267	0.0023
757.4022	0.0097
757.5776	-0.0055
757.753	0.0095
757.9284	0.0017
758.1038	0.0112
758.2791	0.0065
758.4545	-0.0048
758.6298	0.0038
758.8051	-0.0013
758.9803	0.0042
759.1556	-0.0046
759.3308	0.0066
759.506	0.0045
759.6812	0.0054
759.8564	0.0059
760.0316	-0.0087
760.2067	0.0128
760.3819	0.012
760.557	0.015
760.732	0.0056
760.9071	-0.0045
761.0821	0.0103
761.2572	0.0102
761.4322	0.0035
761.6072	-0.0008
761.7821	-0.003
761.9571	0.0077
762.132	0.0009
762.3069	-0.0043
762.4818	-0.001
762.6567	-0.002
762.8316	-0.0055
763.0064	-0.0045
763.1812	0.0054
763.356	-0.0181
763.5308	-0.0008
763.7055	0.0004
763.8803	-0.0033
764.055	-0.0099
764.2297	0.0031
764.4044	-0.0085
764.579	-0.0049
764.7537	-0.0133
764.9283	0.0025
765.1029	-0.0128
765.2775	-0.0105
765.4521	-0.0059
765.6266	-0.0062
765.8011	-0.0058
765.9756	-0.0008
766.1501	0.0064
766.3246	0.0026
766.4991	-0.0002
766.6735	0.0009
766.8479	-0.0072
767.0223	0.0188
767.1967	0.0033
767.371	0.0132
767.5454	-0.0135
767.7197	0.0052
767.894	-0.0005
768.0683	-0.0094
768.2425	0.0029
768.4168	-0.0007
768.591	-0.0009
768.7652	0.0041
768.9394	0.0074
769.1135	0.003
769.2877	0.0019
769.4618	-0.0058
769.6359	0.0026
769.81	0.0053
769.984	-0.0049
770.1581	-0.0084
770.3321	0.0042
770.5061	0.0009
770.6801	-0.0144
770.8541	-0.0084
771.028	-0.0082
771.202	-0.022
771.3759	-0.0018
771.5498	-0.0043
771.7236	0.0003
771.8975	-0.0062
772.0713	-0.0052
772.2451	0.0097
772.4189	-0.0115
772.5927	0.0074
772.7665	-0.0025
772.9402	-0.0015
773.1139	-0.0063
773.2876	-0.0014
773.4613	0.0105
773.635	0.0073
773.8086	-0.0075
773.9822	-0.0004
774.1558	0.0047
774.3294	-0.0136
774.503	-0.0028
774.6765	-0.0006
774.8501	0.0098
775.0236	0.003
775.1971	0.0145
775.3705	-0.0115
775.544	0.001
775.7174	-0.0019
775.8908	-0.0015
776.0642	0.0005
776.2376	0.0061
776.4109	-0.0102
776.5843	-0.0013
776.7576	-0.0015
776.9309	0.0101
777.1041	-0.0002
777.2774	0.0155
777.4506	-0.0077
777.6238	-0.0015
777.797	-0.0104
777.9702	-0.0105
778.1434	-0.016
778.3165	-0.0157
778.4896	-0.0068
778.6627	0.0097
778.8358	-0.004
779.0089	-0.0107
779.1819	-0.006
779.3549	0.0096
779.5279	0.0121
779.7009	0.0004
779.8739	0.0044
780.0468	0.0035
780.2197	0.0071
780.3926	-0.0027
780.5655	0.0006
780.7384	0.0037
780.9112	0.0049
781.0841	-0.011
781.2569	0.0025
781.4297	0.0029
781.6024	0.0123
781.7752	0.0133
781.9479	0.0121
782.1206	-0.0017
782.2933	-0.0065
782.466	0.002
782.6386	-0.0045
782.8113	-0.0035
782.9839	0.0014
783.1565	0.0125
783.329	0.0014
783.5016	-0.0008
783.6741	-0.0081
783.8466	-0.0118
784.0191	-0.0003
784.1916	-0.0087
784.3641	-0.0076
784.5365	-0.0035
784.7089	-0.0084
784.8813	-0.0038
785.0537	-0.0068
785.2261	-0.0165
785.3984	-0.013
785.5707	0.0024
785.743	-0.0085
785.9153	-0.011
786.0876	-0.0102
786.2598	-0.0045
786.432	-0.0144
786.6042	-0.0034
786.7764	-0.0079
786.9486	0.009
787.1207	-0.0062
787.2928	0.0065
787.4649	-0.0002
787.637	0.0043
787.8091	-0.0071
787.9811	-0.0094
788.1532	-0.0097
788.3252	-0.0128
788.4972	-0.0111
788.6691	0.0008
788.8411	-0.0012
789.013	-0.0142
789.1849	-0.0077
789.3568	-0.014
789.5287	-0.0024
789.7005	-0.0155
789.8723	-0.009
790.0442	0.0034
790.2159	-0.0087
790.3877	0.0058
790.5595	-0.0089
790.7312	-0.0011
790.9029	0.002
791.0746	-0.0252
791.2463	-0.0063
791.4179	-0.0023
791.5896	-0.0079
791.7612	-0.0025
791.9328	-0.0026
792.1044	-0.0151
792.2759	-0.0161
792.4474	-0.0107
792.619	0.0006
792.7905	0.0001
792.9619	-0.0067
793.1334	0.0039
793.3048	0.0202
793.4762	0.0066
793.6476	0.0085
793.819	-0.0076
793.9904	0.007
794.1617	-0.0127
794.333	-0.0174
794.5043	-0.0228
794.6756	-0.0061
794.8469	-0.0098
795.0181	-0.0018
795.1893	-0.0152
795.3605	0.0144
795.5317	-0.014
795.7029	-0.0067
795.874	0.0065
796.0452	0.0015
796.2163	-0.0052
796.3873	0.0042
796.5584	-0
796.7294	-0.0044
796.9005	0.0014
797.0715	-0
797.2425	-0.0115
797.4134	-0.0111
797.5844	0.0041
797.7553	-0.0093
797.9262	-0.0071
798.0971	-0.0168
798.2679	-0.0013
798.4388	-0.0173
798.6096	-0.0063
798.7804	-0.0011
798.9512	0.0007
799.122	-0.0049
799.2927	-0.0083
799.4635	0.015
799.6342	-0.0176
799.8049	0.0035
799.9755	0.0036
800.1462	0.0072
800.3168	0.0097
800.4874	-0.0084
800.658	0.0226
800.8286	-0.0014
800.9991	0.0062
801.1696	0.0089
801.3402	0.005
801.5106	0.0117
801.6811	-0.0008
801.8516	0.0069
802.022	0.0062
802.1924	0.0055
802.3628	0.0128
802.5332	0.007
802.7035	0.0125
802.8739	-0.0125
803.0442	-0.0028
803.2145	0.0079
803.3847	-0.0246
803.555	-0.0045
803.7252	-0
803.8954	-0.0185
804.0656	-0.0194
804.2358	-0.005
804.4059	0.0147
804.5761	-0.003
804.7462	0.0042
804.9163	-0.0169
805.0864	0.005
805.2564	-0.0054
805.4264	-0.0013
805.5965	-0.006
805.7665	0.0021
805.9364	-0.0097
806.1064	0.0194
806.2763	0.0006
806.4462	0.0264
806.6161	-0.0071
806.786	0.0017
806.9559	-0.0065
807.1257	0.0039
807.2955	-0.0083
807.4653	-0.0088
807.6351	-0.0085
807.8048	-0.0058
807.9746	-0.007
808.1443	0.0132
808.314	0.0063
808.4837	0.0078
808.6533	-0.0279
808.8229	0.0113
808.9926	0.0161
809.1622	0.0058
809.3317	-0.0103
809.5013	0.016
809.6708	0.0051
809.8403	0.0173
810.0098	-0.0203
810.1793	0.0188
810.3488	-0.0053
810.5182	-0.0245
810.6876	0.0138
810.857	-0.0061
811.0264	0.0191
811.1958	0.0064
811.3651	0.0204
811.5344	-0.0138
811.7037	-0.0104
811.873	-0.0227
812.0422	-0.0135
812.2115	0.0087
812.3807	-0.022
812.5499	0.007
812.7191	0.0048
812.8882	-0.0189
813.0574	-0.0263
813.2265	-0.0049
813.3956	0.0038
813.5646	0.0005
813.7337	-0.0035
813.9027	0.0358
814.0718	0.0181
814.2407	0.0156
814.4097	-0.0067
814.5787	-0.0258
814.7476	-0.0169
814.9165	-0.0121
815.0854	-0.0065
815.2543	-0.0017
815.4232	-0.023
815.592	-0.0038
815.7608	0.015
815.9296	0.0068
816.0984	-0
816.2671	0.0117
816.4359	0.0119
816.6046	-0.0068
816.7733	-0.0046
816.942	0.0066
817.1106	-0.0033
817.2793	0.0382
817.4479	0.0108
817.6165	0.0068
817.785	-0.0063
817.9536	-0.0148
818.1221	-0.0139
818.2906	-0.0067
818.4591	-0.01
818.6276	-0.011
818.7961	0.0113
818.9645	0.0073
819.1329	0.0111
819.3013	0.0054
819.4697	0.0286
819.638	0.0062
819.8064	0.0187
819.9747	0.0155
820.143	0.0025
820.3113	-0.0076
820.4795	0.0189
820.6477	0.0059
820.816	-0.0014
820.9842	0.0069
821.1523	0.0032
821.3205	-0.0235
821.4886	-0.017
821.6567	0.0043
821.8248	0.0059
821.9929	0.0118
822.1609	-0.0134
822.329	0.0014
822.497	0.0014
822.665	-0
822.833	-0.0178
823.0009	-0.0086
823.1688	0.0129
823.3367	0.0334
823.5046	0.0042
823.6725	0.0149
823.8404	0.021
824.0082	0.0241
824.176	0.0023
824.3438	-0.006
824.5116	0.0145
824.6793	0.0137
824.847	0.0012
825.0147	-0.0301
825.1824	0.0083
825.3501	0.0185
825.5177	-0.0334
825.6854	-0.0098
825.853	0.0054
826.0206	-0.0315
826.1881	0.0126
826.3557	-0.0333
826.5232	-0.0278
826.6907	-0.0168
826.8582	-0.0032
827.0257	-0.0363
827.1931	0.0004
827.3605	-0.0112
827.528	-0.0404
827.6953	-0.0389
827.8627	0.008
828.03	0.0256
828.1974	-0.0033
828.3647	-0.0451
828.532	-0.0074
828.6992	-0.003
828.8665	-0.001
829.0337	-0.0208
829.2009	0.0429
829.3681	0.001
829.5352	0.0422
829.7024	-0.0512
829.8695	-0.0512
830.0366	0.0464
830.2037	-0.0046
830.3707	0.0264
830.5378	0.0269
830.7048	-0.0092
830.8718	-0.0243
831.0388	-0.0348
831.2057	0.0207
831.3727	0.0471
831.5396	-0.0017
831.7065	0.014
831.8734	0.029
832.0402	-0.0198
832.2071	0.0114
832.3739	0.0196
832.5407	-0.0159
832.7075	-0.0208
832.8742	-0.0302
833.041	-0.0437
833.2077	0.003
833.3744	0.0305
833.541	-0.0247
833.7077	0.0088
833.8743	-0.0161
834.0409	-0.0145
834.2075	0.007
834.3741	-0.0152
834.5407	0.0019
834.7072	-0.0007
834.8737	0.0259
835.0402	-0.0368
835.2067	-0.0007
835.3731	0.0113
835.5395	0.0366
835.706	-0.0065
835.8723	0.0021
836.0387	-0.0357
836.2051	-0.011
836.3714	-0.0181
836.5377	-0.0055
836.704	-0.0297
836.8703	0.0015
837.0365	-0.0215
837.2027	-0.0193
837.3689	0.0333
837.5351	0.0136
837.7013	-0.0536
837.8674	-0.0206
838.0335	-0.011
838.1997	0.0182
838.3657	-0.0282
838.5318	-0.013
838.6978	0.0415
838.8639	0.0143
839.0299	0.0104
839.1958	-0.0101
839.3618	-0.0018
839.5277	-0.0448
839.6937	-0.0155
839.8596	-0.0256
840.0254	-0.0187
840.1913	0.0168
840.3571	0.0196
840.523	-0.0233
840.6888	-0.001
840.8545	-0.0189
841.0203	0.0412
841.186	0.0042
841.3517	0.0071
841.5174	-0.0027
841.6831	-0.0549
841.8488	0.0035
842.0144	-0.0001
842.18	-0.0157
842.3456	0.0391
842.5112	-0.0285
842.6767	-0.0221
842.8422	-0.0096
843.0077	-0.0082
843.1732	-0.0206
843.3387	-0.0544
843.5042	-0.0885
843.6696	-0.0155
843.835	-0.0273
844.0004	0.067
844.1657	0.0019
844.3311	-0.0559
844.4964	-0.1137
844.6617	-0.0884
844.827	-0.0216
844.9923	-0.0147
845.1575	-0.0333
845.3227	-0.0291
845.4879	-0.0294
845.6531	-0.0081
845.8183	-0.0977
845.9834	-0.0638
846.1485	0.0109
846.3136	-0.0151
846.4787	-0.1143
846.6438	0.0477
846.8088	-0.0587
846.9738	0.0072
847.1388	-0.0493
847.3038	-0.08
847.4687	-0.1332
847.6337	-0.024
847.7986	-0.0664
847.9635	-0.0743
848.1284	0.0252
848.2932	0.0045
848.458	-0.0453
848.6228	0.0125
848.7876	0.0971
848.9524	-0.1198
849.1172	-0.0635
849.2819	0.0112
849.4466	-0.1375
849.6113	-0.1157
849.7759	-0.065
849.9406	-0.0812
850.1052	0.0373
850.2698	-0.0417
850.4344	0.022
850.599	-0.1292
850.7635	0.0429
850.928	-0.0381
851.0925	-0.0189
851.257	-0.0192
851.4215	0.0075
851.5859	0.0042
851.7503	0.0029
851.9147	0.0065
852.0791	-0.0705
852.2434	-0.1188
852.4078	-0.0259
852.5721	0.0716
852.7364	-0.0966
852.9007	-0.1583
853.0649	-0.0673
853.2291	0.1163
853.3934	-0.0914
853.5575	0.0023
853.7217	-0.0807
853.8859	-0.1537
854.05	-0.1654
854.2141	-0.0784
854.3782	-0.0683
854.5423	-0.1158
854.7063	0.0803
854.8703	-0.0571
855.0343	-0.0932
855.1983	-0.1364
855.3623	0.0439
855.5262	0.0109
855.6901	-0.0615
855.854	0.0061
856.0179	-0.0111
856.1818	0.0362
856.3456	-0.0916
856.5094	-0.1112
856.6732	-0.1934
856.837	-0.1549
857.0008	0.1079
857.1645	-0.1586
857.3282	-0.2925
857.4919	0.1884
857.6556	0.0079
857.8192	-0.038
857.9828	0.0171
858.1465	-0.0655
858.31	-0.1813
858.4736	0.0143
858.6372	-0.3772
858.8007	0.0046
858.9642	-0.0639
859.1277	-0.1309
859.2911	0.0432
859.4546	0.0743
859.618	-0.4516
859.7814	-0.0069
859.9448	-0.0174
860.1081	0.0806
860.2715	0.1237
860.4348	-0.2029
860.5981	-0.0738
860.7614	0.3094
860.9246	-0.2429
861.0879	-0.1591
861.2511	-0.0413
861.4143	-0.2443
861.5774	0.186
861.7406	-0.2398
861.9037	-0.0384
862.0668	0.2202
862.2299	-0.1949
862.393	-0.3853
862.556	-0.0151
862.7191	-0.0658
862.8821	-0.3496
863.0451	0.0709
863.208	0.2031
863.371	-0.1979
863.5339	-0.1107
863.6968	-0.0931
863.8597	0.1463
864.0225	0.0564
864.1854	-0.3436
864.3482	0.1073
864.511	0.0812
864.6737	0.0335
864.8365	-0.0565
864.9992	-0.3125
865.1619	-0.3701
865.3246	-0.1664
865.4873	-0.0971
865.65	-0.2684
865.8126	-0.342
865.9752	0.2029
866.1378	0.0776
866.3004	-0
866.4629	0.1415
866.6254	0.1227
866.7879	-0
866.9504	-0.3364
867.1129	-0
867.2753	-0.0075
867.4377	0.0544
867.6001	-0.4482
867.7625	-0.0531
867.9249	-0.2988
868.0872	-0.2404
868.2495	0.1748
868.4118	-0.26
868.5741	0.4568
868.7363	-0.1177
868.8986	-0.1761
869.0608	-0.1332
869.223	0.3044
869.3851	-0.1582
869.5473	-0
869.7094	0.0046
869.8715	-0.2622
870.0336	-0
870.1957	0.4953
870.3577	-0
870.5197	-0.1703
870.6817	-0.209
870.8437	-0.1739
871.0057	-0
871.1676	-0
871.3295	-0.5619
871.4914	-0
871.6533	-0.4347
871.8151	-0.3852
871.977	-0
872.1388	-0
872.3006	-0
872.4623	-0
872.6241	0.073
872.7858	-0.0273
872.9475	0.04
873.1092	-0.1522
873.2709	-0
873.4325	-0.025
873.5941	-0.3543
873.7557	-0.3643
873.9173	-0
874.0789	-0.4031
874.2404	0.2269
874.4019	1.4799
874.5634	-0.1675
874.7249	-0.1541
874.8863	-0.2778
875.0478	0.2456
875.2092	-0
875.3706	-0.2594
875.5319	-1.1516
875.6933	-0
875.8546	-0.4099
876.0159	0.0482
876.1772	-0
876.3385	-0
876.4997	0.2264
876.6609	-0.3413
876.8221	-0
876.9833	0.9803
877.1445	-0
877.3056	0.0916
877.4667	-0.4577
877.6278	-0
877.7889	-0.7559
877.9499	-0
878.111	-0.6532
878.272	-0
878.433	0.1457
878.5939	-0
878.7549	-0.0571
878.9158	-0.0069
879.0767	-0
879.2376	0.5894
879.3984	-0
879.5593	-0
879.7201	-0.0675
879.8809	-0.5521
880.0417	-0.3409
880.2024	0.4239
880.3632	-0
880.5239	0.2688
880.6846	0.0675
880.8452	-2.404
881.0059	-0
881.1665	-0
881.3271	1.1691
881.4877	-0
881.6483	-0
881.8088	-0.4889
881.9693	-0
882.1298	-0
882.2903	-0
