Data from MonoPyChalIsomerACN10uM440nmA_Absorbance_15-27-10-394.txt Node
Date: Fri Jul 05 15:27:10 BST 2024
User: LASERRRRR
Spectrometer: FLMT03099
Trigger mode: 0
Integration Time (sec): 1.000000E-1
Scans to average: 1
Electric dark correction enabled: true
Nonlinearity correction enabled: false
Boxcar width: 0
XAxis mode: Wavelengths
Number of Pixels in Spectrum: 3648
>>>>>Begin Spectral Data<<<<<
179.3399	1.6463
179.5586	1.6463
179.7771	1.6463
179.9957	1.2751
180.2143	-0
180.4329	-0.0823
180.6514	-0
180.8699	-0
181.0885	0.7278
181.307	1.0598
181.5255	0.1174
181.744	-0
181.9625	-0
182.181	-0
182.3994	0.0029
182.6179	-0
182.8363	-0
183.0547	-0.3889
183.2732	-0.0779
183.4916	0.1031
183.71	0.0573
183.9284	0.1291
184.1467	-0.1189
184.3651	-0.0152
184.5835	-0.0521
184.8018	0.0219
185.0201	0.0086
185.2385	-0.1128
185.4568	0.3801
185.6751	0.4074
185.8934	0.0984
186.1117	-0.0854
186.3299	0.0658
186.5482	0.0218
186.7664	-0.0243
186.9847	0.1068
187.2029	0.1402
187.4211	0.1576
187.6393	-0.0013
187.8575	-0.1288
188.0757	0.1835
188.2939	0.0503
188.512	-0.0253
188.7302	0.0225
188.9483	0.0899
189.1665	0.051
189.3846	-0.0156
189.6027	0.2919
189.8208	0.2317
190.0389	0.263
190.257	0.3766
190.475	0.115
190.6931	0.28
190.9111	0.6153
191.1292	0.1973
191.3472	0.3962
191.5652	0.1904
191.7832	0.1456
192.0012	0.3641
192.2192	0.3357
192.4371	0.3281
192.6551	0.3521
192.873	0.2186
193.091	0.4667
193.3089	0.6412
193.5268	0.439
193.7447	0.4988
193.9626	0.4184
194.1805	0.7953
194.3984	1.1708
194.6162	0.5725
194.8341	0.5849
195.0519	0.4894
195.2697	0.6965
195.4875	0.7273
195.7054	0.5699
195.9231	0.569
196.1409	0.5833
196.3587	0.5494
196.5765	0.6007
196.7942	0.6169
197.012	0.5649
197.2297	0.6217
197.4474	0.6551
197.6651	0.699
197.8828	0.4511
198.1005	0.5856
198.3182	0.7557
198.5358	0.8401
198.7535	0.6143
198.9711	0.5298
199.1888	0.6462
199.4064	0.7665
199.624	0.6478
199.8416	0.6335
200.0592	0.7432
200.2767	0.6575
200.4943	0.7304
200.7119	0.8003
200.9294	0.6283
201.1469	0.5105
201.3645	0.6311
201.582	0.5159
201.7995	0.6816
202.017	0.5992
202.2344	0.6176
202.4519	0.7099
202.6694	0.6755
202.8868	0.6459
203.1042	0.6534
203.3217	0.6962
203.5391	0.6392
203.7565	0.5427
203.9739	0.5376
204.1913	0.6882
204.4086	0.6536
204.626	0.7061
204.8433	0.6458
205.0607	0.6056
205.278	0.6297
205.4953	0.5665
205.7126	0.6509
205.9299	0.6995
206.1472	0.7607
206.3644	0.6615
206.5817	0.6298
206.7989	0.7582
207.0162	0.5516
207.2334	0.7102
207.4506	0.68
207.6678	0.6755
207.885	0.6732
208.1022	0.7024
208.3194	0.7444
208.5365	0.7009
208.7537	0.6455
208.9708	0.5411
209.1879	0.6776
209.405	0.702
209.6222	0.7497
209.8392	0.6638
210.0563	0.6167
210.2734	0.6637
210.4905	0.6029
210.7075	0.6394
210.9245	0.6446
211.1416	0.7239
211.3586	0.6003
211.5756	0.6001
211.7926	0.6304
212.0096	0.5815
212.2265	0.5807
212.4435	0.6013
212.6604	0.5896
212.8774	0.6063
213.0943	0.6083
213.3112	0.5307
213.5281	0.549
213.745	0.4998
213.9619	0.5138
214.1788	0.5079
214.3956	0.4614
214.6125	0.4732
214.8293	0.4826
215.0461	0.4402
215.2629	0.45
215.4798	0.5094
215.6965	0.4029
215.9133	0.4502
216.1301	0.3893
216.3469	0.4707
216.5636	0.4271
216.7803	0.3897
216.9971	0.4362
217.2138	0.369
217.4305	0.3782
217.6472	0.3476
217.8639	0.3822
218.0805	0.3176
218.2972	0.3205
218.5138	0.3335
218.7305	0.3228
218.9471	0.3164
219.1637	0.3197
219.3803	0.2931
219.5969	0.2663
219.8135	0.2571
220.0301	0.2844
220.2466	0.2721
220.4632	0.2542
220.6797	0.2339
220.8962	0.2474
221.1127	0.255
221.3292	0.2532
221.5457	0.2259
221.7622	0.2346
221.9787	0.2472
222.1951	0.2263
222.4116	0.2721
222.628	0.248
222.8444	0.2539
223.0608	0.2515
223.2772	0.2608
223.4936	0.2368
223.71	0.2266
223.9264	0.268
224.1427	0.2648
224.3591	0.237
224.5754	0.2599
224.7917	0.2405
225.008	0.2548
225.2243	0.2669
225.4406	0.2879
225.6569	0.2649
225.8732	0.2491
226.0894	0.2519
226.3057	0.2528
226.5219	0.2898
226.7381	0.2569
226.9543	0.2674
227.1705	0.2804
227.3867	0.2796
227.6029	0.2853
227.8191	0.2792
228.0352	0.3007
228.2513	0.3038
228.4675	0.3169
228.6836	0.2742
228.8997	0.2956
229.1158	0.3233
229.3319	0.3088
229.548	0.3175
229.764	0.3289
229.9801	0.3247
230.1961	0.3143
230.4121	0.3301
230.6282	0.3312
230.8442	0.315
231.0602	0.3469
231.2761	0.3379
231.4921	0.3562
231.7081	0.3294
231.924	0.3331
232.14	0.3537
232.3559	0.3335
232.5718	0.3829
232.7877	0.3597
233.0036	0.3511
233.2195	0.3623
233.4353	0.3351
233.6512	0.3636
233.867	0.3542
234.0829	0.3588
234.2987	0.3732
234.5145	0.3685
234.7303	0.3584
234.9461	0.3804
235.1619	0.3667
235.3776	0.3631
235.5934	0.3798
235.8091	0.3697
236.0249	0.368
236.2406	0.3733
236.4563	0.3843
236.672	0.3835
236.8877	0.3829
237.1034	0.3969
237.319	0.3776
237.5347	0.3997
237.7503	0.3722
237.966	0.3969
238.1816	0.3948
238.3972	0.3979
238.6128	0.3837
238.8284	0.4131
239.0439	0.4137
239.2595	0.4078
239.475	0.4223
239.6906	0.3983
239.9061	0.3909
240.1216	0.4121
240.3371	0.4068
240.5526	0.3825
240.7681	0.4077
240.9836	0.385
241.199	0.3956
241.4145	0.3714
241.6299	0.3741
241.8453	0.3646
242.0607	0.3597
242.2761	0.3514
242.4915	0.3615
242.7069	0.3527
242.9223	0.3418
243.1376	0.3327
243.353	0.3346
243.5683	0.348
243.7836	0.3068
243.9989	0.3211
244.2142	0.3047
244.4295	0.3029
244.6448	0.3036
244.86	0.2825
245.0753	0.2829
245.2905	0.2729
245.5057	0.2793
245.721	0.2564
245.9362	0.2445
246.1514	0.2568
246.3665	0.2433
246.5817	0.2485
246.7969	0.2495
247.012	0.227
247.2271	0.226
247.4423	0.2392
247.6574	0.2399
247.8725	0.2308
248.0876	0.2248
248.3026	0.2124
248.5177	0.2109
248.7328	0.193
248.9478	0.2022
249.1628	0.2005
249.3779	0.2024
249.5929	0.188
249.8079	0.2044
250.0228	0.1909
250.2378	0.1907
250.4528	0.1937
250.6677	0.1879
250.8827	0.188
251.0976	0.1997
251.3125	0.1811
251.5274	0.1609
251.7423	0.1605
251.9572	0.1841
252.172	0.1636
252.3869	0.1721
252.6017	0.1846
252.8166	0.1671
253.0314	0.1638
253.2462	0.1641
253.461	0.1674
253.6758	0.1643
253.8906	0.1705
254.1053	0.1683
254.3201	0.1667
254.5348	0.1779
254.7496	0.179
254.9643	0.1643
255.179	0.1637
255.3937	0.1533
255.6083	0.1648
255.823	0.1718
256.0377	0.1512
256.2523	0.1649
256.467	0.1528
256.6816	0.1664
256.8962	0.1645
257.1108	0.1601
257.3254	0.1682
257.54	0.1611
257.7545	0.1611
257.9691	0.1625
258.1836	0.1616
258.3981	0.1706
258.6127	0.1712
258.8272	0.1584
259.0417	0.1605
259.2561	0.1599
259.4706	0.158
259.6851	0.1586
259.8995	0.1588
260.114	0.1626
260.3284	0.1556
260.5428	0.1608
260.7572	0.1712
260.9716	0.1719
261.186	0.1571
261.4003	0.1596
261.6147	0.1621
261.829	0.1633
262.0433	0.1574
262.2577	0.1501
262.472	0.1539
262.6863	0.157
262.9005	0.1575
263.1148	0.1579
263.3291	0.1431
263.5433	0.1634
263.7576	0.1642
263.9718	0.1542
264.186	0.1564
264.4002	0.1612
264.6144	0.1552
264.8286	0.164
265.0427	0.1655
265.2569	0.1554
265.471	0.1466
265.6851	0.1511
265.8993	0.1427
266.1134	0.1428
266.3275	0.1411
266.5415	0.1391
266.7556	0.1556
266.9697	0.1454
267.1837	0.1498
267.3978	0.1466
267.6118	0.1603
267.8258	0.1604
268.0398	0.1307
268.2538	0.1561
268.4677	0.1564
268.6817	0.1342
268.8957	0.1569
269.1096	0.1558
269.3235	0.1602
269.5374	0.1428
269.7514	0.1486
269.9652	0.1455
270.1791	0.1396
270.393	0.1361
270.6068	0.1487
270.8207	0.1334
271.0345	0.127
271.2483	0.1328
271.4622	0.1364
271.676	0.1434
271.8897	0.1336
272.1035	0.1329
272.3173	0.1362
272.531	0.1442
272.7448	0.134
272.9585	0.1288
273.1722	0.1283
273.3859	0.1309
273.5996	0.1263
273.8133	0.1287
274.0269	0.1289
274.2406	0.1264
274.4542	0.131
274.6679	0.1146
274.8815	0.1316
275.0951	0.1457
275.3087	0.1381
275.5223	0.1385
275.7358	0.1284
275.9494	0.1395
276.1629	0.1314
276.3765	0.1302
276.59	0.1213
276.8035	0.131
277.017	0.1289
277.2305	0.133
277.444	0.1375
277.6574	0.1328
277.8709	0.1312
278.0843	0.1248
278.2978	0.1279
278.5112	0.1133
278.7246	0.1351
278.938	0.1298
279.1513	0.1393
279.3647	0.1446
279.5781	0.1349
279.7914	0.1317
280.0047	0.1532
280.2181	0.1307
280.4314	0.1436
280.6447	0.1392
280.8579	0.1442
281.0712	0.135
281.2845	0.1382
281.4977	0.1402
281.711	0.1248
281.9242	0.1476
282.1374	0.141
282.3506	0.143
282.5638	0.1476
282.7769	0.1371
282.9901	0.1364
283.2033	0.1487
283.4164	0.1424
283.6295	0.1362
283.8426	0.1341
284.0557	0.1467
284.2688	0.1577
284.4819	0.1518
284.695	0.1486
284.908	0.1592
285.1211	0.1423
285.3341	0.1496
285.5471	0.153
285.7601	0.163
285.9731	0.1443
286.1861	0.1459
286.3991	0.1587
286.612	0.1639
286.825	0.1488
287.0379	0.1596
287.2508	0.1538
287.4637	0.1505
287.6766	0.1411
287.8895	0.1662
288.1024	0.1801
288.3152	0.1721
288.5281	0.1503
288.7409	0.1644
288.9538	0.1558
289.1666	0.1582
289.3794	0.1542
289.5922	0.152
289.8049	0.1648
290.0177	0.1435
290.2304	0.1717
290.4432	0.1699
290.6559	0.1631
290.8686	0.1778
291.0813	0.166
291.294	0.1752
291.5067	0.1691
291.7194	0.1789
291.932	0.1716
292.1447	0.1709
292.3573	0.159
292.5699	0.1675
292.7825	0.1758
292.9951	0.1644
293.2077	0.1668
293.4203	0.1622
293.6328	0.157
293.8454	0.1676
294.0579	0.1558
294.2704	0.1632
294.4829	0.1554
294.6954	0.164
294.9079	0.1711
295.1204	0.1696
295.3328	0.1632
295.5453	0.1594
295.7577	0.159
295.9701	0.1628
296.1825	0.1694
296.3949	0.1679
296.6073	0.1645
296.8197	0.1607
297.0321	0.1769
297.2444	0.1591
297.4567	0.1648
297.6691	0.1764
297.8814	0.1623
298.0937	0.1691
298.306	0.1671
298.5182	0.1652
298.7305	0.1666
298.9428	0.1594
299.155	0.1675
299.3672	0.1729
299.5794	0.1563
299.7916	0.164
300.0038	0.1609
300.216	0.1712
300.4282	0.1815
300.6403	0.1535
300.8525	0.1773
301.0646	0.1603
301.2767	0.1699
301.4888	0.1616
301.7009	0.1713
301.913	0.1642
302.125	0.1589
302.3371	0.1584
302.5491	0.1674
302.7612	0.1713
302.9732	0.1745
303.1852	0.1736
303.3972	0.1544
303.6092	0.1592
303.8211	0.1567
304.0331	0.1556
304.245	0.1545
304.457	0.148
304.6689	0.1513
304.8808	0.1618
305.0927	0.1525
305.3046	0.1586
305.5164	0.1609
305.7283	0.1474
305.9401	0.1399
306.152	0.1506
306.3638	0.1524
306.5756	0.1417
306.7874	0.1494
306.9992	0.1494
307.2109	0.1473
307.4227	0.1263
307.6344	0.1376
307.8462	0.1352
308.0579	0.1458
308.2696	0.132
308.4813	0.1312
308.693	0.1234
308.9046	0.1257
309.1163	0.1339
309.328	0.1257
309.5396	0.1222
309.7512	0.1205
309.9628	0.1174
310.1744	0.1217
310.386	0.12
310.5976	0.1162
310.8091	0.1164
311.0207	0.107
311.2322	0.1117
311.4437	0.1081
311.6552	0.0956
311.8667	0.1078
312.0782	0.0927
312.2897	0.0966
312.5012	0.0944
312.7126	0.1029
312.924	0.0927
313.1355	0.1032
313.3469	0.1067
313.5583	0.1017
313.7696	0.0977
313.981	0.1011
314.1924	0.0954
314.4037	0.087
314.6151	0.1038
314.8264	0.0943
315.0377	0.0896
315.249	0.1017
315.4603	0.099
315.6716	0.0857
315.8828	0.0895
316.0941	0.0917
316.3053	0.0811
316.5165	0.0864
316.7277	0.0834
316.9389	0.0838
317.1501	0.0931
317.3613	0.0826
317.5724	0.0664
317.7836	0.0892
317.9947	0.0904
318.2058	0.0898
318.417	0.0862
318.6281	0.0751
318.8391	0.09
319.0502	0.0862
319.2613	0.092
319.4723	0.0895
319.6834	0.0827
319.8944	0.0791
320.1054	0.0866
320.3164	0.0911
320.5274	0.0719
320.7383	0.0842
320.9493	0.096
321.1602	0.0956
321.3712	0.0787
321.5821	0.0832
321.793	0.0893
322.0039	0.0862
322.2148	0.0804
322.4257	0.0845
322.6365	0.0952
322.8474	0.0887
323.0582	0.0918
323.269	0.0861
323.4798	0.0871
323.6906	0.0917
323.9014	0.0934
324.1122	0.1007
324.3229	0.0892
324.5337	0.0925
324.7444	0.0812
324.9551	0.1051
325.1658	0.0974
325.3765	0.0902
325.5872	0.0815
325.7979	0.0768
326.0085	0.0896
326.2192	0.0971
326.4298	0.0922
326.6404	0.0904
326.851	0.0807
327.0616	0.075
327.2722	0.0913
327.4828	0.0901
327.6933	0.0817
327.9039	0.0922
328.1144	0.0894
328.3249	0.0968
328.5354	0.0798
328.7459	0.0964
328.9564	0.0923
329.1669	0.0996
329.3773	0.0921
329.5878	0.0909
329.7982	0.0825
330.0086	0.0916
330.219	0.0939
330.4294	0.0923
330.6398	0.0835
330.8502	0.0908
331.0605	0.0967
331.2708	0.0967
331.4812	0.0963
331.6915	0.1016
331.9018	0.0874
332.1121	0.0943
332.3224	0.0928
332.5326	0.0983
332.7429	0.1007
332.9531	0.1107
333.1633	0.1049
333.3735	0.0984
333.5837	0.0897
333.7939	0.0963
334.0041	0.1057
334.2143	0.096
334.4244	0.0964
334.6346	0.0874
334.8447	0.0962
335.0548	0.0994
335.2649	0.0862
335.475	0.0955
335.685	0.0949
335.8951	0.1087
336.1051	0.1036
336.3152	0.1056
336.5252	0.1004
336.7352	0.1113
336.9452	0.1013
337.1552	0.1003
337.3652	0.1026
337.5751	0.1033
337.7851	0.1048
337.995	0.0909
338.2049	0.1095
338.4148	0.1008
338.6247	0.1056
338.8346	0.1028
339.0445	0.0878
339.2543	0.0939
339.4642	0.1016
339.674	0.0937
339.8838	0.1152
340.0936	0.106
340.3034	0.1126
340.5132	0.1011
340.7229	0.1042
340.9327	0.1031
341.1424	0.1091
341.3522	0.1249
341.5619	0.1112
341.7716	0.1055
341.9813	0.1082
342.1909	0.1079
342.4006	0.119
342.6102	0.1178
342.8199	0.1115
343.0295	0.1073
343.2391	0.1074
343.4487	0.1122
343.6583	0.1064
343.8679	0.1133
344.0774	0.1159
344.287	0.126
344.4965	0.1156
344.706	0.1268
344.9155	0.1116
345.125	0.1218
345.3345	0.1161
345.544	0.1189
345.7534	0.1285
345.9629	0.1076
346.1723	0.1146
346.3817	0.1064
346.5911	0.1174
346.8005	0.1136
347.0099	0.1179
347.2193	0.1194
347.4286	0.108
347.638	0.1223
347.8473	0.1258
348.0566	0.1229
348.2659	0.1392
348.4752	0.1331
348.6845	0.1142
348.8937	0.1295
349.103	0.1381
349.3122	0.1155
349.5214	0.1085
349.7306	0.1191
349.9398	0.1326
350.149	0.1215
350.3582	0.1306
350.5674	0.1415
350.7765	0.1285
350.9856	0.1214
351.1948	0.1438
351.4039	0.1205
351.613	0.1224
351.822	0.1364
352.0311	0.1355
352.2402	0.1304
352.4492	0.1415
352.6582	0.1401
352.8672	0.1341
353.0762	0.1399
353.2852	0.1332
353.4942	0.1285
353.7032	0.1456
353.9121	0.1439
354.1211	0.1412
354.33	0.15
354.5389	0.1483
354.7478	0.1351
354.9567	0.1461
355.1655	0.144
355.3744	0.1522
355.5833	0.1519
355.7921	0.1459
356.0009	0.1437
356.2097	0.1642
356.4185	0.1626
356.6273	0.1475
356.8361	0.1545
357.0448	0.1441
357.2536	0.1448
357.4623	0.1425
357.671	0.1551
357.8797	0.1394
358.0884	0.1608
358.2971	0.1533
358.5057	0.1625
358.7144	0.1513
358.923	0.1546
359.1316	0.1637
359.3402	0.1702
359.5488	0.1552
359.7574	0.1486
359.966	0.1714
360.1746	0.1812
360.3831	0.1805
360.5916	0.1617
360.8002	0.1639
361.0087	0.1857
361.2172	0.1811
361.4256	0.1878
361.6341	0.1908
361.8426	0.1826
362.051	0.1767
362.2594	0.179
362.4678	0.1788
362.6762	0.1986
362.8846	0.1904
363.093	0.1836
363.3014	0.1837
363.5097	0.1702
363.718	0.1995
363.9264	0.1959
364.1347	0.1691
364.343	0.2043
364.5513	0.1937
364.7595	0.1843
364.9678	0.187
365.176	0.2002
365.3842	0.1847
365.5925	0.1877
365.8007	0.1947
366.0089	0.2029
366.217	0.1917
366.4252	0.2012
366.6333	0.2122
366.8415	0.1989
367.0496	0.2121
367.2577	0.2099
367.4658	0.2169
367.6739	0.2114
367.882	0.2248
368.09	0.2137
368.2981	0.2116
368.5061	0.1837
368.7141	0.2022
368.9221	0.1989
369.1301	0.2176
369.3381	0.2133
369.5461	0.2141
369.754	0.2192
369.962	0.2269
370.1699	0.2265
370.3778	0.2146
370.5857	0.2115
370.7936	0.2388
371.0015	0.2075
371.2093	0.2194
371.4172	0.2324
371.625	0.2114
371.8328	0.2246
372.0406	0.2234
372.2484	0.2248
372.4562	0.2338
372.664	0.2274
372.8717	0.2286
373.0795	0.209
373.2872	0.2304
373.4949	0.2266
373.7026	0.2412
373.9103	0.2354
374.118	0.2348
374.3256	0.254
374.5333	0.2321
374.7409	0.2366
374.9485	0.2549
375.1561	0.2555
375.3637	0.2439
375.5713	0.2369
375.7789	0.2387
375.9864	0.245
376.194	0.2249
376.4015	0.2495
376.609	0.2432
376.8165	0.2536
377.024	0.2406
377.2315	0.2388
377.4389	0.2621
377.6464	0.2584
377.8538	0.2496
378.0612	0.2486
378.2686	0.2597
378.476	0.2634
378.6834	0.2553
378.8908	0.2524
379.0981	0.267
379.3055	0.2619
379.5128	0.2636
379.7201	0.2594
379.9274	0.2425
380.1347	0.26
380.342	0.2753
380.5492	0.2417
380.7565	0.2731
380.9637	0.2604
381.1709	0.2507
381.3781	0.2573
381.5853	0.2692
381.7925	0.2605
381.9997	0.262
382.2068	0.2825
382.4139	0.2755
382.6211	0.2659
382.8282	0.2696
383.0353	0.2592
383.2424	0.2614
383.4494	0.2782
383.6565	0.2521
383.8635	0.2626
384.0706	0.2636
384.2776	0.2782
384.4846	0.268
384.6916	0.2637
384.8986	0.2721
385.1055	0.2775
385.3125	0.2795
385.5194	0.2485
385.7263	0.2748
385.9333	0.2785
386.1402	0.2784
386.347	0.2664
386.5539	0.2645
386.7608	0.2702
386.9676	0.2665
387.1744	0.2743
387.3813	0.2665
387.5881	0.274
387.7948	0.268
388.0016	0.2832
388.2084	0.2712
388.4151	0.255
388.6219	0.2654
388.8286	0.2658
389.0353	0.2889
389.242	0.2683
389.4487	0.2682
389.6553	0.2604
389.862	0.2489
390.0686	0.2592
390.2753	0.2763
390.4819	0.2571
390.6885	0.2369
390.8951	0.2792
391.1016	0.25
391.3082	0.2513
391.5147	0.2709
391.7213	0.2578
391.9278	0.2406
392.1343	0.2564
392.3408	0.237
392.5473	0.2495
392.7537	0.247
392.9602	0.242
393.1666	0.2497
393.373	0.2468
393.5794	0.2604
393.7858	0.2457
393.9922	0.245
394.1986	0.2678
394.4049	0.2473
394.6113	0.25
394.8176	0.224
395.0239	0.2339
395.2302	0.22
395.4365	0.2314
395.6428	0.2287
395.8491	0.2269
396.0553	0.2233
396.2615	0.2484
396.4678	0.2277
396.674	0.2143
396.8802	0.216
397.0863	0.2518
397.2925	0.2232
397.4987	0.2188
397.7048	0.2205
397.9109	0.2163
398.117	0.2143
398.3231	0.2141
398.5292	0.2257
398.7353	0.2196
398.9413	0.229
399.1474	0.2265
399.3534	0.2257
399.5594	0.2145
399.7654	0.2375
399.9714	0.2446
400.1774	0.216
400.3833	0.2248
400.5893	0.2222
400.7952	0.229
401.0011	0.2189
401.207	0.2294
401.4129	0.2388
401.6188	0.2416
401.8247	0.218
402.0305	0.2174
402.2364	0.2273
402.4422	0.2371
402.648	0.2407
402.8538	0.243
403.0596	0.2066
403.2654	0.2369
403.4711	0.2238
403.6768	0.2304
403.8826	0.2284
404.0883	0.2267
404.294	0.2457
404.4997	0.2281
404.7054	0.2346
404.911	0.2336
405.1167	0.2234
405.3223	0.2278
405.5279	0.2407
405.7335	0.2472
405.9391	0.2353
406.1447	0.2269
406.3502	0.2457
406.5558	0.2429
406.7613	0.2472
406.9668	0.2315
407.1724	0.2255
407.3778	0.2352
407.5833	0.2263
407.7888	0.2177
407.9942	0.2332
408.1997	0.2219
408.4051	0.2257
408.6105	0.2291
408.8159	0.2219
409.0213	0.2197
409.2267	0.2317
409.432	0.2277
409.6374	0.2692
409.8427	0.2168
410.048	0.2324
410.2533	0.2357
410.4586	0.2391
410.6639	0.2191
410.8691	0.2213
411.0744	0.2212
411.2796	0.2086
411.4848	0.222
411.69	0.2209
411.8952	0.2397
412.1004	0.2028
412.3056	0.2267
412.5107	0.2146
412.7158	0.2527
412.921	0.2226
413.1261	0.2269
413.3312	0.2089
413.5362	0.209
413.7413	0.1942
413.9464	0.2335
414.1514	0.2102
414.3564	0.2342
414.5614	0.2211
414.7664	0.2178
414.9714	0.2119
415.1764	0.2299
415.3813	0.2343
415.5863	0.2225
415.7912	0.2129
415.9961	0.2304
416.201	0.2158
416.4059	0.233
416.6108	0.2347
416.8156	0.2373
417.0205	0.231
417.2253	0.21
417.4301	0.2353
417.6349	0.2266
417.8397	0.2148
418.0445	0.2232
418.2492	0.2046
418.454	0.2316
418.6587	0.2101
418.8634	0.2108
419.0681	0.1925
419.2728	0.2057
419.4775	0.2088
419.6822	0.1975
419.8868	0.1923
420.0915	0.2
420.2961	0.2047
420.5007	0.1975
420.7053	0.1989
420.9099	0.2116
421.1144	0.2074
421.319	0.2033
421.5235	0.2085
421.728	0.2063
421.9325	0.2111
422.137	0.2107
422.3415	0.2008
422.546	0.1944
422.7504	0.184
422.9549	0.2027
423.1593	0.1975
423.3637	0.2041
423.5681	0.1959
423.7725	0.1791
423.9769	0.1791
424.1812	0.1868
424.3856	0.1865
424.5899	0.1906
424.7942	0.1871
424.9985	0.1936
425.2028	0.1679
425.4071	0.2233
425.6113	0.1815
425.8156	0.1957
426.0198	0.202
426.224	0.1754
426.4282	0.1804
426.6324	0.1835
426.8366	0.1736
427.0407	0.1756
427.2449	0.1618
427.449	0.1908
427.6531	0.1525
427.8572	0.1792
428.0613	0.1825
428.2654	0.1971
428.4694	0.1701
428.6735	0.16
428.8775	0.1945
429.0815	0.1634
429.2855	0.1568
429.4895	0.168
429.6935	0.167
429.8975	0.1659
430.1014	0.1497
430.3053	0.1469
430.5093	0.1578
430.7132	0.1536
430.9171	0.143
431.1209	0.1416
431.3248	0.1422
431.5286	0.1672
431.7325	0.1575
431.9363	0.1429
432.1401	0.1443
432.3439	0.149
432.5477	0.1239
432.7514	0.1223
432.9552	0.1475
433.1589	0.1292
433.3627	0.12
433.5664	0.1148
433.7701	0.1193
433.9737	0.1279
434.1774	0.1015
434.3811	0.1134
434.5847	0.1235
434.7883	0.1166
434.9919	0.1055
435.1955	0.1168
435.3991	0.1314
435.6027	0.1179
435.8062	0.1275
436.0098	0.1016
436.2133	0.105
436.4168	0.1096
436.6203	0.0989
436.8238	0.1224
437.0272	0.1084
437.2307	0.0984
437.4341	0.0984
437.6375	0.1041
437.841	0.0899
438.0443	0.1089
438.2477	0.0957
438.4511	0.1065
438.6545	0.0908
438.8578	0.102
439.0611	0.0891
439.2644	0.1031
439.4677	0.0891
439.671	0.0648
439.8743	0.0758
440.0775	0.0727
440.2808	0.0896
440.484	0.0878
440.6872	0.0623
440.8904	0.0672
441.0936	0.0734
441.2967	0.0685
441.4999	0.0673
441.703	0.0727
441.9062	0.0624
442.1093	0.0607
442.3124	0.0644
442.5155	0.0609
442.7185	0.0537
442.9216	0.0561
443.1246	0.0803
443.3276	0.0754
443.5307	0.0496
443.7337	0.074
443.9366	0.0566
444.1396	0.0619
444.3426	0.0622
444.5455	0.0657
444.7484	0.0415
444.9513	0.0433
445.1542	0.0533
445.3571	0.0576
445.56	0.0545
445.7628	0.0452
445.9657	0.0379
446.1685	0.04
446.3713	0.0516
446.5741	0.0493
446.7769	0.0414
446.9797	0.0574
447.1824	0.0421
447.3852	0.0426
447.5879	0.0498
447.7906	0.0425
447.9933	0.0412
448.196	0.0262
448.3986	0.0504
448.6013	0.0331
448.8039	0.0093
449.0066	0.0376
449.2092	0.0365
449.4118	0.0472
449.6143	0.0296
449.8169	0.0332
450.0195	0.0317
450.222	0.012
450.4245	0.0358
450.627	0.0279
450.8295	0.0296
451.032	0.0209
451.2345	0.0341
451.4369	0.0349
451.6394	0.0265
451.8418	0.0062
452.0442	0.0222
452.2466	0.0174
452.449	0.0003
452.6513	0.0161
452.8537	0.016
453.056	-0.0021
453.2583	0.0153
453.4607	0.0096
453.663	-0.0013
453.8652	0.0191
454.0675	0.0059
454.2697	0.0094
454.472	-0.0061
454.6742	0.0118
454.8764	0.0113
455.0786	0.0307
455.2808	0.0008
455.4829	0.0211
455.6851	0.0205
455.8872	0.0142
456.0893	0.0239
456.2915	0.0047
456.4935	0.0193
456.6956	0.0168
456.8977	0.0081
457.0997	0.0037
457.3018	0.001
457.5038	0.0007
457.7058	0.0095
457.9078	-0.0037
458.1098	0.0082
458.3117	0.0138
458.5137	0.0078
458.7156	0.0147
458.9175	0.0001
459.1194	0.0063
459.3213	0.0102
459.5232	0.0064
459.725	-0.0158
459.9269	0.0013
460.1287	-0.0027
460.3305	0.0094
460.5323	0.0007
460.7341	0.0106
460.9359	-0.0057
461.1376	0.0071
461.3394	-0.0027
461.5411	0.0133
461.7428	0.0111
461.9445	0.0065
462.1462	0.0227
462.3479	0.0019
462.5495	-0
462.7512	0.0167
462.9528	0.0026
463.1544	-0.0079
463.356	-0.0033
463.5576	0.0067
463.7592	-0.0089
463.9607	-0.0092
464.1623	0.0211
464.3638	0.0101
464.5653	-0.0021
464.7668	0.008
464.9683	0.0123
465.1697	0.0032
465.3712	-0.0134
465.5726	-0.0133
465.7741	-0.0055
465.9755	-0.0084
466.1769	-0.0088
466.3782	-0.0072
466.5796	-0.0067
466.7809	-0.0002
466.9823	-0.0117
467.1836	0.0077
467.3849	-0.0015
467.5862	-0.0083
467.7875	-0.007
467.9887	0.0006
468.19	-0.002
468.3912	-0.0079
468.5924	-0.0079
468.7936	-0.0059
468.9948	0.0086
469.196	0.0022
469.3972	-0.0078
469.5983	0.0055
469.7994	-0.0143
470.0006	-0.0057
470.2017	-0.0179
470.4027	0.0025
470.6038	0.0123
470.8049	-0.0244
471.0059	-0.0124
471.2069	-0.0194
471.408	-0.0031
471.6089	0.0006
471.8099	0.0051
472.0109	0.0093
472.2119	-0.007
472.4128	-0.0313
472.6137	0.0015
472.8146	-0.0092
473.0155	-0.0207
473.2164	-0.0111
473.4173	-0.0017
473.6181	0.0047
473.819	0.012
474.0198	-0.0041
474.2206	-0.0055
474.4214	-0.0011
474.6222	0.0141
474.8229	-0.0145
475.0237	-0.0099
475.2244	-0.006
475.4251	0.0006
475.6258	0.0026
475.8265	-0.0021
476.0272	-0.0099
476.2278	-0.0038
476.4285	0.0054
476.6291	-0.0103
476.8297	-0.0105
477.0303	-0.0018
477.2309	-0.0055
477.4315	-0.0118
477.632	-0.0073
477.8326	-0.0065
478.0331	0.0072
478.2336	-0.0029
478.4341	-0.0123
478.6346	0.0074
478.8351	-0.0111
479.0355	-0.006
479.236	-0.0063
479.4364	0.0058
479.6368	0.0043
479.8372	-0.0131
480.0376	-0.0015
480.2379	-0.0188
480.4383	-0.0136
480.6386	0.001
480.8389	-0.0052
481.0392	-0.0189
481.2395	-0.019
481.4398	0.0057
481.6401	-0.0069
481.8403	-0.014
482.0405	-0.0033
482.2408	-0.0016
482.441	0.0061
482.6411	-0.016
482.8413	-0.0083
483.0415	-0.009
483.2416	-0.0059
483.4417	0.002
483.6419	-0.0034
483.8419	-0.0065
484.042	-0.005
484.2421	-0.0052
484.4422	-0.004
484.6422	-0.0113
484.8422	0.0004
485.0422	-0.0146
485.2422	-0.0036
485.4422	-0.0185
485.6422	-0.0155
485.8421	-0.0064
486.042	0.0018
486.242	-0.0097
486.4419	-0.0118
486.6417	-0.0175
486.8416	-0.0119
487.0415	-0.0137
487.2413	-0.0006
487.4411	-0.0114
487.641	-0.0132
487.8408	0.0082
488.0405	0.0027
488.2403	-0.0065
488.4401	-0.0009
488.6398	0.0005
488.8395	-0.0165
489.0392	-0.0018
489.2389	-0.0035
489.4386	0.0028
489.6383	-0.0039
489.8379	-0.0072
490.0376	-0.0068
490.2372	-0.0066
490.4368	-0.0122
490.6364	-0.0048
490.836	-0.0273
491.0355	-0.0059
491.2351	-0.0061
491.4346	-0.0053
491.6341	-0.0262
491.8336	-0.0068
492.0331	-0.0093
492.2326	-0.0151
492.432	-0.0085
492.6315	-0.0112
492.8309	-0.0116
493.0303	-0.0143
493.2297	-0.0096
493.4291	0.0007
493.6284	-0.0007
493.8278	-0.0032
494.0271	0.0068
494.2264	0.002
494.4257	-0.021
494.625	-0.0084
494.8243	-0.0186
495.0236	-0.0004
495.2228	-0.0159
495.422	0.0031
495.6213	-0.0037
495.8205	-0.0035
496.0196	-0.0092
496.2188	-0.0053
496.418	-0.0122
496.6171	-0.0082
496.8162	-0.0113
497.0153	0.002
497.2144	-0.0104
497.4135	-0.0102
497.6126	-0.0074
497.8116	-0.0113
498.0107	0.0039
498.2097	-0.005
498.4087	-0.0124
498.6077	-0.0082
498.8067	-0.0032
499.0056	0.002
499.2046	-0.0103
499.4035	-0.0236
499.6024	-0.0038
499.8013	0.0008
500.0002	0.002
500.199	0.0008
500.3979	-0.0006
500.5967	-0.0226
500.7956	-0.0046
500.9944	-0.0046
501.1932	-0.0082
501.3919	-0.0109
501.5907	-0.017
501.7895	-0.0076
501.9882	-0.0105
502.1869	-0.0064
502.3856	-0.0058
502.5843	-0.0128
502.783	-0.0165
502.9816	-0.0003
503.1803	-0.0169
503.3789	-0.0149
503.5775	-0.0002
503.7761	-0.0137
503.9747	0.003
504.1732	-0.0054
504.3718	0.0036
504.5703	-0.0128
504.7689	-0.0154
504.9674	-0.0011
505.1658	-0.0136
505.3643	-0.0092
505.5628	0.0025
505.7612	-0.0127
505.9597	0.0004
506.1581	-0.0049
506.3565	0.0003
506.5549	-0.004
506.7532	-0.0167
506.9516	-0.0062
507.1499	0.0006
507.3482	-0.018
507.5465	-0.0123
507.7448	-0.0011
507.9431	-0.0041
508.1414	-0.0007
508.3396	0.0016
508.5379	-0.0078
508.7361	-0.0109
508.9343	-0.0026
509.1325	-0.0065
509.3306	-0.0156
509.5288	-0.0115
509.7269	-0.0069
509.9251	-0.0011
510.1232	-0.0123
510.3213	-0.0038
510.5193	0.0054
510.7174	-0.0072
510.9154	-0.014
511.1135	-0.007
511.3115	-0.0153
511.5095	-0.0131
511.7075	-0.0048
511.9055	-0.0014
512.1034	-0.019
512.3014	-0.0025
512.4993	-0.0033
512.6972	-0.0115
512.8951	-0.0176
513.093	-0.0081
513.2908	-0.0053
513.4887	-0.0074
513.6865	-0.0037
513.8844	-0.0163
514.0822	-0.0106
514.2799	-0.0145
514.4777	-0.0108
514.6755	-0.0146
514.8732	-0.0093
515.0709	-0.0141
515.2687	-0.0115
515.4664	-0.0031
515.664	-0.0073
515.8617	-0.0101
516.0594	-0.0176
516.257	-0.0108
516.4546	-0.0149
516.6522	-0.0053
516.8498	-0.0085
517.0474	0.0004
517.2449	-0
517.4425	-0.0099
517.64	-0.0014
517.8375	0.0057
518.035	0.002
518.2325	-0.0008
518.43	-0.0106
518.6274	-0.007
518.8249	-0.0107
519.0223	-0.0052
519.2197	-0.0008
519.4171	-0.0127
519.6145	-0.0104
519.8118	-0.0003
520.0092	-0.0166
520.2065	-0.0154
520.4038	-0.0181
520.6011	-0.0055
520.7984	-0.0161
520.9956	-0.012
521.1929	-0.0122
521.3901	0.0024
521.5874	-0.0072
521.7846	0.0035
521.9818	-0.0111
522.1789	-0.0071
522.3761	-0.0033
522.5732	0.0011
522.7704	-0.0058
522.9675	0.0083
523.1646	-0.0086
523.3617	-0.0067
523.5587	0.0021
523.7558	-0.0085
523.9528	-0.0059
524.1498	-0.0023
524.3468	-0.006
524.5438	-0.0052
524.7408	-0.002
524.9378	-0.003
525.1347	-0.0072
525.3316	-0.009
525.5285	-0.014
525.7254	-0.0045
525.9223	-0.0069
526.1192	-0.0059
526.316	-0.0114
526.5129	-0.0021
526.7097	-0.0001
526.9065	-0.0043
527.1033	-0.0112
527.3	-0.0059
527.4968	-0.002
527.6935	-0.0029
527.8903	-0.016
528.087	-0.0021
528.2837	-0.0042
528.4804	-0.0049
528.677	0.0009
528.8737	0.0005
529.0703	0.0012
529.2669	0.0009
529.4635	-0.0069
529.6601	0.0019
529.8567	-0.0016
530.0532	-0.0109
530.2498	0.0136
530.4463	0.0017
530.6428	-0.0071
530.8393	0.0037
531.0358	-0.0048
531.2322	-0.0054
531.4287	-0.0045
531.6251	-0.0169
531.8215	-0.0003
532.0179	-0.0059
532.2143	0.0032
532.4107	-0.0079
532.607	0.002
532.8034	0.0053
532.9997	-0.0056
533.196	-0.0148
533.3923	-0.0026
533.5886	0.0043
533.7848	-0.005
533.9811	-0.0023
534.1773	0.0053
534.3735	0.0007
534.5697	-0.0088
534.7659	-0.0068
534.9621	-0.003
535.1582	-0.0104
535.3544	-0.0085
535.5505	0.0001
535.7466	-0.0026
535.9427	-0.0062
536.1387	-0.0105
536.3348	-0.0042
536.5308	0.0011
536.7269	-0.0088
536.9229	0.0004
537.1189	-0.0051
537.3148	-0.0073
537.5108	-0.0049
537.7068	-0
537.9027	-0.0111
538.0986	-0.0117
538.2945	-0.0117
538.4904	-0.0139
538.6863	-0.0065
538.8821	-0.0083
539.078	-0.0031
539.2738	-0.0048
539.4696	-0.0034
539.6654	-0.0001
539.8611	0.0125
540.0569	-0.005
540.2526	-0.0094
540.4484	0.0019
540.6441	0.0051
540.8398	0.0017
541.0355	-0.0025
541.2311	-0.0015
541.4268	-0.015
541.6224	-0.0017
541.818	-0.0047
542.0136	-0.0053
542.2092	-0.0021
542.4048	-0.0002
542.6003	-0.0064
542.7959	-0.0037
542.9914	0.0016
543.1869	-0.0043
543.3824	0.002
543.5779	0.0005
543.7734	-0.0048
543.9688	-0.0114
544.1642	-0.004
544.3596	-0.0062
544.555	-0.0065
544.7504	-0.0033
544.9458	-0.0042
545.1411	-0.0076
545.3365	-0.0051
545.5318	-0.002
545.7271	-0.0017
545.9224	0.0007
546.1177	0.0012
546.3129	-0.0067
546.5081	-0.0091
546.7034	-0.004
546.8986	-0.0037
547.0938	-0.0067
547.289	0.0064
547.4841	-0.0071
547.6793	0.0029
547.8744	-0.011
548.0695	0.0032
548.2646	-0.0068
548.4597	-0.0024
548.6548	-0.0051
548.8498	-0.0014
549.0448	0.0055
549.2399	-0.0092
549.4349	0.0017
549.6298	0.0032
549.8248	-0.0046
550.0198	-0.0023
550.2147	-0.0013
550.4096	-0.0121
550.6045	-0.0066
550.7994	-0.0004
550.9943	-0.0011
551.1892	-0.0014
551.384	0.0023
551.5788	-0.0081
551.7737	0.002
551.9685	-0.0036
552.1632	-0.0013
552.358	-0.0075
552.5528	0.0008
552.7475	-0.005
552.9422	-0.0046
553.1369	-0.0073
553.3316	0.0036
553.5263	-0.0115
553.7209	0.0048
553.9156	-0.0021
554.1102	-0.006
554.3048	-0.0062
554.4994	0.0025
554.694	-0.0089
554.8885	-0.0024
555.0831	-0.0107
555.2776	-0.0088
555.4721	0.0014
555.6666	-0.0097
555.8611	0.0073
556.0555	-0.0054
556.25	-0.0041
556.4444	-0.0156
556.6388	0.0024
556.8332	0.0014
557.0276	-0.008
557.222	-0.0059
557.4163	-0.0028
557.6107	-0.015
557.805	0.0055
557.9993	-0.0112
558.1936	-0.0048
558.3879	0.001
558.5821	0.0041
558.7764	-0.0041
558.9706	-0.0036
559.1648	0.0077
559.359	-0
559.5532	-0.0148
559.7473	-0.0038
559.9415	-0.007
560.1356	-0.0024
560.3297	-0.0039
560.5238	-0.0077
560.7179	0.0006
560.9119	-0.0101
561.106	-0.0079
561.3	-0.0121
561.494	-0.0096
561.688	-0.0099
561.882	-0.0024
562.076	-0.01
562.2699	-0.0017
562.4639	-0.0038
562.6578	-0.0127
562.8517	-0.0033
563.0456	0.0003
563.2395	0.0084
563.4333	-0.0092
563.6272	0.0087
563.821	-0.0012
564.0148	-0.008
564.2086	-0.0122
564.4024	-0.0044
564.5961	-0.0069
564.7899	0.0048
564.9836	0.0021
565.1773	0.0081
565.371	0.0043
565.5647	-0.0016
565.7584	0.0017
565.952	0.0018
566.1456	0.0012
566.3393	-0.0114
566.5329	0.0012
566.7264	-0.007
566.92	-0.0093
567.1136	-0.0033
567.3071	-0.0041
567.5006	0.0139
567.6941	0.0038
567.8876	-0.0017
568.0811	-0.0048
568.2745	0.0004
568.468	0
568.6614	0.0069
568.8548	0.0013
569.0482	-0.0009
569.2416	-0.0009
569.4349	0.0038
569.6283	0.0068
569.8216	-0.0058
570.0149	-0.0052
570.2082	0.0038
570.4015	0.0039
570.5947	0.007
570.788	0.0033
570.9812	0.0027
571.1744	-0.0052
571.3676	-0.0101
571.5608	-0.0001
571.754	-0.0038
571.9471	-0.0034
572.1402	-0.0003
572.3333	-0.0008
572.5264	-0.002
572.7195	-0.0041
572.9126	0.0061
573.1057	0.0022
573.2987	-0.0022
573.4917	-0.0015
573.6847	-0.0059
573.8777	0.0055
574.0707	-0.0047
574.2636	0.0004
574.4566	-0.0042
574.6495	0.0034
574.8424	0.0004
575.0353	-0.0033
575.2281	0.0104
575.421	0.0005
575.6138	-0.0016
575.8067	0.0003
575.9995	-0.0082
576.1923	0.0025
576.385	0.0003
576.5778	-0.0008
576.7706	-0.0016
576.9633	0.0007
577.156	-0.0003
577.3487	-0.0014
577.5414	0.0037
577.734	-0.0065
577.9267	0.0029
578.1193	-0.0042
578.3119	-0.002
578.5045	-0.0028
578.6971	-0.0052
578.8897	0.0035
579.0822	-0.0072
579.2747	-0.0002
579.4673	-0.0094
579.6598	0.0026
579.8522	-0.0045
580.0447	-0.0101
580.2372	-0.0069
580.4296	0.0011
580.622	-0.0077
580.8144	-0.0028
581.0068	-0.0098
581.1992	-0.0152
581.3915	-0.0056
581.5839	-0.0038
581.7762	-0.0092
581.9685	-0.0022
582.1608	0.0028
582.353	-0.0054
582.5453	-0.0039
582.7375	0.0001
582.9298	0.0033
583.122	-0.0073
583.3142	-0.0072
583.5063	-0.0021
583.6985	0.0028
583.8906	-0.0024
584.0827	-0.0112
584.2749	0.0052
584.4669	0.0006
584.659	-0.0029
584.8511	-0.0073
585.0431	-0.0004
585.2352	0.002
585.4272	0.001
585.6192	-0.0014
585.8111	0.0032
586.0031	0.0023
586.195	-0.004
586.387	0.0025
586.5789	-0.0002
586.7708	0.005
586.9627	-0.0031
587.1545	-0.0035
587.3464	-0.0007
587.5382	0.002
587.73	0.0016
587.9218	0.0076
588.1136	0.0008
588.3053	0.003
588.4971	-0.0011
588.6888	-0.005
588.8805	0.004
589.0722	0.0044
589.2639	0.0008
589.4556	-0.0056
589.6472	-0
589.8389	-0.0023
590.0305	-0.0115
590.2221	0.0003
590.4137	-0.0126
590.6052	-0.0057
590.7968	-0.0018
590.9883	-0.004
591.1798	-0.0011
591.3713	-0.005
591.5628	0.0007
591.7543	0.0038
591.9458	-0.002
592.1372	0.0033
592.3286	0.0068
592.52	0.0059
592.7114	-0.0023
592.9028	0.0035
593.0941	-0.0038
593.2855	-0.0003
593.4768	-0.0085
593.6681	-0.0055
593.8594	-0.0072
594.0506	-0.0037
594.2419	0.0128
594.4331	0.0009
594.6244	0.0018
594.8156	-0.0047
595.0067	0.0028
595.1979	-0.0005
595.3891	0.004
595.5802	-0.0069
595.7713	-0.0074
595.9624	-0.0067
596.1535	0.0037
596.3446	0.0148
596.5357	0.0015
596.7267	0.0035
596.9177	0.0009
597.1087	0.0043
597.2997	-0.0058
597.4907	0.0052
597.6817	-0.0063
597.8726	0.0041
598.0635	-0.0031
598.2544	0.0027
598.4453	0.001
598.6362	-0.0021
598.827	-0.0053
599.0179	0.0024
599.2087	0.0086
599.3995	-0.0013
599.5903	0.0005
599.7811	0.0027
599.9718	0.0011
600.1626	-0.0068
600.3533	-0.0088
600.544	-0.0004
600.7347	-0.0062
600.9254	0.0023
601.116	-0.009
601.3067	-0.0056
601.4973	-0.0057
601.6879	0.0067
601.8785	-0.0102
602.0691	0.0053
602.2596	0.002
602.4502	0.0057
602.6407	0.0046
602.8312	0.001
603.0217	-0.0065
603.2122	0.003
603.4027	-0.0028
603.5931	0.0029
603.7835	-0.0033
603.9739	-0.0013
604.1643	-0.0063
604.3547	-0.0092
604.5451	-0.0029
604.7354	-0.0101
604.9257	-0.0023
605.116	-0.0064
605.3063	0.0043
605.4966	0.0014
605.6869	-0.0017
605.8771	0.0015
606.0673	0.0014
606.2575	0.0042
606.4477	0.0081
606.6379	-0.0032
606.8281	-0.0049
607.0182	-0.0083
607.2083	0.0101
607.3985	-0.0065
607.5885	0.0042
607.7786	-0.0007
607.9687	-0.0042
608.1587	0.0031
608.3488	0.0085
608.5388	-0.003
608.7288	-0.0025
608.9187	-0.005
609.1087	-0.0049
609.2986	-0.0082
609.4886	-0.0033
609.6785	-0.0021
609.8684	0.0035
610.0582	0.0049
610.2481	0.0008
610.4379	-0.0037
610.6278	-0.0047
610.8176	0.0017
611.0074	-0.0023
611.1971	-0.0011
611.3869	-0.0005
611.5766	-0.0034
611.7664	0.0049
611.9561	0.0002
612.1458	0.0028
612.3354	-0.0045
612.5251	0.0037
612.7147	0.0085
612.9044	0.006
613.094	-0.0085
613.2836	0.004
613.4731	0.0046
613.6627	-0.0023
613.8522	0.0021
614.0417	0.0025
614.2313	-0.0055
614.4207	-0.0089
614.6102	0.0029
614.7997	-0.0014
614.9891	-0.0033
615.1785	0.0017
615.3679	-0.0038
615.5573	0.0075
615.7467	-0.002
615.9361	-0.0009
616.1254	0.0011
616.3147	0.0051
616.504	0.0074
616.6933	0.011
616.8826	0.0099
617.0718	0.0116
617.2611	0.0105
617.4503	-0.0014
617.6395	0.0002
617.8287	-0.0037
618.0179	0.0005
618.207	0.0106
618.3961	0.0026
618.5853	0.0009
618.7744	-0.0002
618.9634	0.0069
619.1525	-0.0003
619.3416	0.0072
619.5306	0.0011
619.7196	0.0042
619.9086	-0.0049
620.0976	0.0058
620.2866	-0.0026
620.4755	0.0013
620.6645	0.0067
620.8534	0.0068
621.0423	0.004
621.2312	0.0105
621.42	0.0024
621.6089	0.0072
621.7977	-0.0001
621.9865	0.0008
622.1753	0.0079
622.3641	0.0049
622.5529	0.0075
622.7416	0.0046
622.9303	-0.0008
623.1191	0.0098
623.3078	-0.0046
623.4964	0.0053
623.6851	-0.003
623.8737	0.0023
624.0624	0.008
624.251	-0.0096
624.4396	-0.0013
624.6282	-0.0082
624.8167	0.0018
625.0053	0.0087
625.1938	0.0016
625.3823	0.0055
625.5708	-0.0012
625.7593	-0.005
625.9477	-0.0095
626.1362	0.0034
626.3246	0.001
626.513	0.0079
626.7014	0.0017
626.8898	-0.0007
627.0781	-0.0038
627.2665	-0.0001
627.4548	0.0074
627.6431	0.0051
627.8314	0.0073
628.0197	0.0056
628.2079	-0.0034
628.3962	0.0005
628.5844	0.0134
628.7726	0.0049
628.9608	0.0128
629.1489	-0.0029
629.3371	0.004
629.5252	-0.0028
629.7134	0.0007
629.9015	-0.0043
630.0895	0.0011
630.2776	-0.0006
630.4657	0.0015
630.6537	-0.0058
630.8417	0.0041
631.0297	-0.0006
631.2177	-0.004
631.4057	-0.0031
631.5936	-0.0019
631.7815	-0.0037
631.9695	0.0025
632.1574	0.0041
632.3452	0.0084
632.5331	0.004
632.7209	-0.002
632.9088	0.0124
633.0966	0.0086
633.2844	-0.0053
633.4722	0.0026
633.6599	0.0021
633.8477	0.0041
634.0354	0.0061
634.2231	-0.0011
634.4108	-0.004
634.5985	0.0069
634.7861	0.003
634.9738	0.0036
635.1614	0.0066
635.349	0.0044
635.5366	0.0076
635.7242	0.0006
635.9117	0.0049
636.0993	-0.0039
636.2868	0.0086
636.4743	0.0063
636.6618	0.0083
636.8492	0.0075
637.0367	0.0061
637.2241	-0.001
637.4115	-0.0025
637.5989	0.0026
637.7863	-0.0004
637.9737	-0.0033
638.161	0.0048
638.3484	0.0028
638.5357	0.0079
638.723	-0.0025
638.9103	0.0036
639.0975	0.0123
639.2848	0.0043
639.472	-0.0015
639.6592	0.0039
639.8464	0.0111
640.0336	0.0016
640.2208	-0.0024
640.4079	-0.0068
640.595	-0.0006
640.7821	0.0015
640.9692	0.001
641.1563	0.0022
641.3434	0.0009
641.5304	0.0014
641.7174	0.0014
641.9044	-0.0026
642.0914	0.0013
642.2784	0.0047
642.4653	0.0042
642.6523	0.0031
642.8392	-0.0023
643.0261	0.0013
643.213	0.0016
643.3999	0.0034
643.5867	-0.0025
643.7735	-0.0008
643.9604	0.0017
644.1472	-0.0002
644.3339	0.0013
644.5207	0.0048
644.7075	0.003
644.8942	0.0121
645.0809	0.0048
645.2676	0.0076
645.4543	0.0002
645.6409	0.0034
645.8276	0.0031
646.0142	0.0041
646.2008	-0.0074
646.3874	-0.0038
646.574	0.0037
646.7605	-0.0031
646.9471	-0.0095
647.1336	-0.007
647.3201	0.0054
647.5066	-0.0035
647.6931	0.0054
647.8795	0.0035
648.0659	0.0074
648.2524	0.0069
648.4388	-0.0068
648.6252	-0.0019
648.8115	-0.0006
648.9979	-0.0033
649.1842	0.0045
649.3705	0.0029
649.5568	-0.0005
649.7431	0.005
649.9294	0.0038
650.1156	0.008
650.3018	-0.0021
650.488	0.0073
650.6742	-0.0009
650.8604	-0.0006
651.0466	-0.0052
651.2327	-0.0021
651.4188	0.0139
651.6049	-0.0014
651.791	0.0016
651.9771	0.0034
652.1632	0.0078
652.3492	0.005
652.5352	-0.0001
652.7212	0.0005
652.9072	0.0088
653.0932	0.0003
653.2791	-0.0008
653.465	-0.0009
653.651	0.0021
653.8369	0.0023
654.0227	-0.0012
654.2086	0.006
654.3944	0.0042
654.5803	-0.0004
654.7661	-0.0112
654.9519	0.0061
655.1377	-0.0005
655.3234	-0.0028
655.5092	-0.0078
655.6949	-0.0065
655.8806	-0.0101
656.0663	-0.0021
656.2519	-0.0022
656.4376	-0.0035
656.6232	0.0047
656.8088	-0.0022
656.9945	-0.0021
657.18	-0.0014
657.3656	-0.0002
657.5511	-0.004
657.7367	-0.0082
657.9222	0.002
658.1077	0.0021
658.2932	0.0007
658.4786	-0.004
658.6641	-0.0056
658.8495	-0.0009
659.0349	-0.0019
659.2203	-0.0006
659.4057	0.0002
659.591	0
659.7764	0.0007
659.9617	0.0036
660.147	-0.001
660.3323	0.0028
660.5176	0.0119
660.7028	0.0057
660.888	0.0003
661.0733	0.0071
661.2585	0.0019
661.4436	0
661.6288	0.0025
661.8139	-0.0049
661.9991	0.0059
662.1842	-0.0081
662.3693	0.0031
662.5544	0.0021
662.7394	-0.0038
662.9245	0.0014
663.1095	-0.0028
663.2945	-0.0022
663.4795	-0.0058
663.6644	0.0028
663.8494	0.0054
664.0343	-0.0002
664.2193	0.003
664.4042	-0.0002
664.589	-0.0049
664.7739	-0.0072
664.9587	-0.0044
665.1436	-0.0042
665.3284	-0.0007
665.5132	0.0009
665.698	-0.0084
665.8827	0.0015
666.0675	-0.0022
666.2522	-0.0039
666.4369	0.0034
666.6216	0.0056
666.8063	-0.0028
666.9909	0.0029
667.1756	0.0036
667.3602	0.0046
667.5448	-0.0012
667.7294	0.0089
667.9139	0.0091
668.0985	0.0107
668.283	0.0027
668.4675	0.0009
668.652	-0.0016
668.8365	0.0022
669.0209	0.0095
669.2054	0.009
669.3898	-0.0008
669.5742	0.0095
669.7586	0.0064
669.943	0.0059
670.1273	0.0083
670.3117	0.0068
670.496	0.0104
670.6803	0.0139
670.8646	0.0081
671.0488	0.0014
671.2331	0.0105
671.4173	0.007
671.6015	-0.0045
671.7857	0.0111
671.9699	0.0017
672.1541	0.0038
672.3382	0.0033
672.5223	0.0049
672.7064	0.0051
672.8905	0.0089
673.0746	0.001
673.2587	-0.0102
673.4427	0.0027
673.6267	0.0018
673.8107	0.012
673.9947	0.0058
674.1787	0.0061
674.3626	-0.0054
674.5465	0.0081
674.7304	0.0067
674.9143	0.0082
675.0982	0.0116
675.2821	0.0033
675.4659	0.0013
675.6497	0.0059
675.8335	0.0056
676.0173	-0.0019
676.2011	0.0004
676.3849	-0.0088
676.5686	-0.0045
676.7523	-0.0026
676.936	-0.0051
677.1197	-0.0017
677.3034	-0.0063
677.487	-0.0011
677.6706	0.0003
677.8542	0.0023
678.0378	0.0008
678.2214	-0.0034
678.405	-0.0013
678.5885	-0.0069
678.772	0.0054
678.9555	-0.0051
679.139	0.0017
679.3225	0.0049
679.5059	-0.0023
679.6894	0.0058
679.8728	-0.0029
680.0562	-0.0086
680.2395	-0.0069
680.4229	-0.0069
680.6062	0.004
680.7896	-0.0001
680.9729	-0.0089
681.1562	0.0025
681.3394	-0.002
681.5227	-0.0055
681.7059	-0.0005
681.8891	0.0052
682.0723	0.011
682.2555	0.004
682.4387	-0.0015
682.6218	-0.0015
682.805	0.0055
682.9881	-0.0011
683.1712	0.0015
683.3542	-0.0041
683.5373	0.0069
683.7203	-0.0039
683.9034	0.0081
684.0864	-0.0024
684.2694	-0.0013
684.4523	0.0036
684.6353	-0.0015
684.8182	-0.0047
685.0011	-0.0035
685.184	0.003
685.3669	-0.0026
685.5498	0.0071
685.7326	-0.0028
685.9154	-0.0034
686.0982	0.0092
686.281	0.0089
686.4638	0.0032
686.6465	-0.0011
686.8293	0.0023
687.012	-0.0059
687.1947	-0.0105
687.3774	0.0053
687.56	-0.0046
687.7427	0.0042
687.9253	-0.0003
688.1079	-0.001
688.2905	0.0061
688.4731	0.0003
688.6556	-0.0016
688.8382	-0.004
689.0207	0.0025
689.2032	-0.006
689.3857	-0.0063
689.5681	-0.0006
689.7506	-0.0039
689.933	-0.0064
690.1154	-0.0028
690.2978	-0.0012
690.4802	-0.0041
690.6626	-0.0172
690.8449	-0.0079
691.0272	0.0097
691.2095	-0.0122
691.3918	-0.0066
691.5741	-0.0005
691.7563	-0.0064
691.9386	0.0046
692.1208	0.001
692.303	0.0068
692.4852	-0.0029
692.6673	0
692.8495	-0.0023
693.0316	0.0046
693.2137	-0.0003
693.3958	0.002
693.5778	-0.0001
693.7599	0.0034
693.9419	-0.0039
694.1239	0.0031
694.3059	-0.0014
694.4879	0.0063
694.6699	0.0064
694.8518	0.0039
695.0337	0.0034
695.2157	0.0131
695.3975	0.0064
695.5794	0.0082
695.7613	0.0038
695.9431	0.001
696.1249	0.0075
696.3067	0.006
696.4885	0.0029
696.6703	-0.0029
696.852	0.0052
697.0337	0.0008
697.2154	-0.0041
697.3971	0.0019
697.5788	0.0065
697.7605	0.0004
697.9421	0.008
698.1237	0.0062
698.3053	0.0038
698.4869	0.001
698.6685	-0.0036
698.85	-0.0053
699.0315	0.013
699.213	-0.0036
699.3945	0.0029
699.576	0.0163
699.7575	0.0042
699.9389	0.0053
700.1203	-0.0019
700.3017	-0.0105
700.4831	-0.0096
700.6645	-0.0045
700.8458	0.0066
701.0271	-0.0045
701.2084	0.0056
701.3897	-0.0032
701.571	0.0099
701.7523	-0.0129
701.9335	-0.0002
702.1147	0.0063
702.2959	0.0044
702.4771	-0.0023
702.6583	-0.0015
702.8394	-0.0041
703.0205	0.0036
703.2016	-0.004
703.3827	0.0033
703.5638	0.0086
703.7449	0.0068
703.9259	0.0034
704.1069	0.0038
704.2879	0.0047
704.4689	0.0021
704.6499	0.0022
704.8308	0.0021
705.0117	-0.0011
705.1927	-0.0028
705.3735	-0.0032
705.5544	-0.0019
705.7353	0.0025
705.9161	-0.011
706.0969	-0.0028
706.2777	-0.0019
706.4585	-0.0011
706.6393	-0.004
706.82	-0.0018
707.0007	-0.0033
707.1815	0.001
707.3621	0.0044
707.5428	-0.0033
707.7235	0.0022
707.9041	0.0046
708.0847	-0.0207
708.2653	-0.0074
708.4459	-0.0138
708.6265	-0.002
708.807	-0.005
708.9875	-0.0013
709.168	-0.0056
709.3485	-0.0075
709.529	-0.0116
709.7095	-0.0091
709.8899	-0.0012
710.0703	-0.0157
710.2507	-0.002
710.4311	-0.0023
710.6115	-0.0061
710.7918	-0.0072
710.9721	-0.0073
711.1524	-0.0163
711.3327	-0.0052
711.513	0.0024
711.6932	-0.0027
711.8735	0.0042
712.0537	-0.0021
712.2339	-0.002
712.4141	-0.0089
712.5942	-0.005
712.7744	-0.0007
712.9545	-0.0082
713.1346	-0.0084
713.3147	-0.0025
713.4947	0.0046
713.6748	0.0024
713.8548	-0.0052
714.0348	-0.0075
714.2148	-0.0052
714.3948	0.0049
714.5748	-0.0023
714.7547	0.0017
714.9346	0.0048
715.1145	-0.0028
715.2944	-0.0126
715.4743	0.0004
715.6541	-0.0124
715.834	0.0079
716.0138	-0.0088
716.1936	-0.0084
716.3733	-0.0047
716.5531	0.0123
716.7328	-0.0004
716.9126	0.0004
717.0923	0.0043
717.2719	0.0001
717.4516	0.0006
717.6312	0.0002
717.8109	0.004
717.9905	-0.0026
718.1701	-0.0086
718.3496	-0.0104
718.5292	-0.0016
718.7087	-0.0006
718.8882	-0.0046
719.0677	-0.0063
719.2472	-0.0084
719.4267	0.0008
719.6061	0.0008
719.7856	-0.0001
719.965	0.0002
720.1443	-0.0085
720.3237	0.0075
720.5031	-0.0006
720.6824	0.0056
720.8617	-0.0002
721.041	-0.0033
721.2203	0.0021
721.3995	-0.0022
721.5788	-0.0013
721.758	0.0041
721.9372	0.0021
722.1164	-0.0022
722.2956	-0.0009
722.4747	-0.0043
722.6538	-0.0016
722.8329	0.0028
723.012	0.0029
723.1911	-0.0009
723.3702	-0.007
723.5492	0.002
723.7282	-0.0025
723.9072	-0.0024
724.0862	-0.0061
724.2652	-0.0038
724.4441	-0.0002
724.623	0.0026
724.8019	-0.002
724.9808	0.0037
725.1597	-0.0054
725.3385	0.0052
725.5174	0.0043
725.6962	-0.0019
725.875	-0.0078
726.0538	0.0064
726.2325	0.0058
726.4112	-0.0001
726.59	-0.0043
726.7687	-0.0066
726.9474	0.0028
727.126	-0.0014
727.3047	-0.0115
727.4833	-0.0032
727.6619	-0.0044
727.8405	-0.0114
728.0191	-0.005
728.1976	0.0121
728.3762	-0.0039
728.5547	0.0068
728.7332	-0.0022
728.9116	0.0024
729.0901	0.0002
729.2686	-0.0009
729.447	-0.0012
729.6254	-0.0029
729.8038	0.0042
729.9821	-0.0071
730.1605	-0.0015
730.3388	0.0043
730.5171	-0.0001
730.6954	-0.0105
730.8737	0.0036
731.0519	0.0096
731.2302	-0.0034
731.4084	0.002
731.5866	0.0034
731.7648	-0.0071
731.9429	-0.0046
732.1211	-0.0101
732.2992	-0.0045
732.4773	-0.0023
732.6554	-0.0073
732.8335	0.007
733.0115	0.0059
733.1896	0.0009
733.3676	-0.0093
733.5456	-0.0003
733.7235	0.0021
733.9015	0.0018
734.0794	-0.006
734.2574	-0.0038
734.4353	-0.0003
734.6131	0.0072
734.791	0.0025
734.9689	-0.0032
735.1467	-0.0012
735.3245	-0.0021
735.5023	-0.0107
735.68	-0.0085
735.8578	0.0044
736.0355	-0.0107
736.2132	-0.006
736.3909	-0.0011
736.5686	-0.0062
736.7463	-0.0005
736.9239	-0.0083
737.1015	0.005
737.2791	0.0017
737.4567	0.0011
737.6343	-0.0064
737.8118	0.0047
737.9894	0.0082
738.1669	0.0029
738.3444	0.0017
738.5218	-0.0018
738.6993	0.0024
738.8767	-0.001
739.0541	0.0136
739.2315	-0.0105
739.4089	0.0027
739.5863	0.0028
739.7636	-0.0048
739.9409	-0.0087
740.1182	0.0026
740.2955	0.0078
740.4728	-0.0003
740.65	-0.0016
740.8272	-0.0017
741.0044	0.0045
741.1816	-0.0026
741.3588	-0.0038
741.5359	0.0048
741.7131	-0.0176
741.8902	-0.0062
742.0673	-0.0062
742.2444	-0.0097
742.4214	-0.0093
742.5985	0.0015
742.7755	0.0006
742.9525	-0.0231
743.1295	-0.0009
743.3064	0.0012
743.4834	0.0084
743.6603	0.0017
743.8372	0.0015
744.0141	0.0091
744.191	0.0067
744.3678	0.0027
744.5446	-0.0005
744.7215	0.0087
744.8982	-0.0004
745.075	-0.0083
745.2518	0.009
745.4285	-0.0067
745.6052	-0.0066
745.7819	-0.0017
745.9586	-0.0005
746.1353	0.0024
746.3119	-0.0103
746.4885	-0.0102
746.6651	-0.0079
746.8417	0.0055
747.0183	-0.0104
747.1948	-0.0079
747.3714	-0.0007
747.5479	0.0053
747.7244	0.0017
747.9008	0.0057
748.0773	0.0015
748.2537	0.0017
748.4301	-0.013
748.6065	0.0069
748.7829	0.0047
748.9593	-0.0038
749.1356	-0.0009
749.3119	-0.008
749.4882	-0.01
749.6645	0.0041
749.8408	-0.0103
750.017	-0.009
750.1933	-0.0049
750.3695	-0.0082
750.5457	0.0161
750.7218	-0.0031
750.898	0.0011
751.0741	-0.0075
751.2502	-0.0068
751.4263	0.0018
751.6024	-0.0022
751.7784	-0.0031
751.9545	-0.0043
752.1305	0.0047
752.3065	-0.0004
752.4825	0.0075
752.6584	-0.0032
752.8344	-0.0045
753.0103	-0.004
753.1862	-0.0033
753.3621	-0.0036
753.5379	-0.0009
753.7138	0.0004
753.8896	-0.0051
754.0654	0.0054
754.2412	0.0056
754.417	0.0038
754.5927	-0.0077
754.7685	-0.0094
754.9442	0.0001
755.1199	0.0051
755.2956	0.0049
755.4712	0.0065
755.6469	0.0047
755.8225	-0
755.9981	-0.0057
756.1736	0.0025
756.3492	0.0003
756.5248	0.0024
756.7003	0.0022
756.8758	0.009
757.0513	-0.0066
757.2267	0.0084
757.4022	0.0036
757.5776	-0.0019
757.753	0.0113
757.9284	0.0016
758.1038	0.0027
758.2791	0.0072
758.4545	-0.0122
758.6298	-0.0064
758.8051	0.0012
758.9803	-0.0059
759.1556	-0.0075
759.3308	-0.0095
759.506	0.0065
759.6812	0.0055
759.8564	0.008
760.0316	0.004
760.2067	0.0105
760.3819	0.0063
760.557	0.0094
760.732	0.0056
760.9071	-0.0115
761.0821	0.0033
761.2572	0.0159
761.4322	0.0062
761.6072	0.0047
761.7821	-0.0022
761.9571	0.0053
762.132	-0.0045
762.3069	-0.0082
762.4818	-0.0054
762.6567	0.0006
762.8316	-0.0032
763.0064	-0.0113
763.1812	-0.0003
763.356	-0.0031
763.5308	-0.0028
763.7055	0.0079
763.8803	-0.0122
764.055	0.0033
764.2297	0.0001
764.4044	-0.0126
764.579	-0.012
764.7537	-0.0093
764.9283	0.0005
765.1029	0.0019
765.2775	-0.0091
765.4521	-0.0172
765.6266	-0.0127
765.8011	-0.0046
765.9756	-0.0029
766.1501	0.0086
766.3246	-0.0133
766.4991	0.0021
766.6735	0.0063
766.8479	-0.0092
767.0223	0.0071
767.1967	-0.0057
767.371	0.0084
767.5454	-0.0009
767.7197	0.0079
767.894	-0.0052
768.0683	-0.0112
768.2425	-0
768.4168	-0.0031
768.591	0.0067
768.7652	-0.007
768.9394	0.0028
769.1135	-0.0026
769.2877	0.0051
769.4618	-0.0008
769.6359	0.0061
769.81	0.0079
769.984	-0.0027
770.1581	-0.0115
770.3321	0.0005
770.5061	-0.0034
770.6801	-0.0124
770.8541	-0.0103
771.028	0.0039
771.202	-0.0136
771.3759	0.0017
771.5498	-0.0074
771.7236	-0.0023
771.8975	-0.0133
772.0713	-0.0012
772.2451	-0.0051
772.4189	0.0046
772.5927	0.0055
772.7665	0.0009
772.9402	-0.0115
773.1139	-0.0032
773.2876	-0.011
773.4613	0.0021
773.635	0.0046
773.8086	-0.0058
773.9822	-0.0031
774.1558	0.0069
774.3294	-0.0176
774.503	-0.0032
774.6765	-0.0001
774.8501	0.0058
775.0236	0.0151
775.1971	0.0048
775.3705	-0.0059
775.544	0.0082
775.7174	-0.0086
775.8908	0.0001
776.0642	-0.0109
776.2376	-0.0021
776.4109	-0.0035
776.5843	-0.0133
776.7576	0.0091
776.9309	-0
777.1041	0.0016
777.2774	0.0026
777.4506	0.0055
777.6238	-0.0117
777.797	0.0036
777.9702	-0.0001
778.1434	-0.0025
778.3165	-0.0193
778.4896	0.0036
778.6627	0.01
778.8358	-0.0114
779.0089	-0.0035
779.1819	-0.0073
779.3549	0.0081
779.5279	0.0009
779.7009	-0.0074
779.8739	0.0043
780.0468	-0.0031
780.2197	0.0041
780.3926	-0.0029
780.5655	0.0023
780.7384	0.0064
780.9112	0.0057
781.0841	-0.0093
781.2569	-0.0003
781.4297	0.0049
781.6024	-0.0019
781.7752	0.0003
781.9479	0.0021
782.1206	0.0017
782.2933	-0.0134
782.466	0.0066
782.6386	0.0054
782.8113	-0.0031
782.9839	0.0067
783.1565	0.0067
783.329	0.0113
783.5016	0.0019
783.6741	-0.0009
783.8466	-0.0077
784.0191	0.0018
784.1916	-0.0043
784.3641	0.0036
784.5365	-0.0016
784.7089	-0.0008
784.8813	-0.0027
785.0537	-0.0122
785.2261	-0.001
785.3984	-0.0139
785.5707	-0.0071
785.743	-0.0016
785.9153	-0.015
786.0876	0.0032
786.2598	0.0011
786.432	-0.0096
786.6042	0.0015
786.7764	-0.017
786.9486	-0.0116
787.1207	-0.0197
787.2928	-0.0005
787.4649	-0.0046
787.637	-0.0128
787.8091	-0.0023
787.9811	-0.0052
788.1532	-0.0051
788.3252	0.0001
788.4972	-0.0069
788.6691	-0.0048
788.8411	0.0033
789.013	-0.0223
789.1849	-0.0053
789.3568	-0.011
789.5287	0.003
789.7005	0.0043
789.8723	-0.0093
790.0442	0.0123
790.2159	-0.0034
790.3877	-0.0146
790.5595	-0.0233
790.7312	-0.0072
790.9029	-0.0017
791.0746	-0.0108
791.2463	-0.0115
791.4179	-0.0096
791.5896	-0.02
791.7612	0.0015
791.9328	-0.005
792.1044	-0.0144
792.2759	-0.0116
792.4474	-0.004
792.619	0.0014
792.7905	-0.0044
792.9619	-0.0005
793.1334	0.0039
793.3048	0.0201
793.4762	-0.0016
793.6476	0.0124
793.819	-0.0045
793.9904	-0.0012
794.1617	-0.018
794.333	-0.0057
794.5043	-0.0156
794.6756	-0.01
794.8469	-0.0123
795.0181	-0.0107
795.1893	-0.0075
795.3605	-0.0084
795.5317	-0.014
795.7029	-0.0024
795.874	-0.007
796.0452	-0.0152
796.2163	0.0074
796.3873	0.022
796.5584	-0.0051
796.7294	-0.0166
796.9005	-0.0009
797.0715	0.0045
797.2425	-0.0206
797.4134	-0.0092
797.5844	-0.0018
797.7553	-0.0121
797.9262	-0.0232
798.0971	-0.0094
798.2679	-0.0071
798.4388	-0.0221
798.6096	-0.0044
798.7804	-0.0141
798.9512	0.0097
799.122	-0.0115
799.2927	-0.0021
799.4635	0.0103
799.6342	-0.0083
799.8049	-0.0131
799.9755	0.0041
800.1462	-0.0012
800.3168	0.0044
800.4874	0.0113
800.658	0.02
800.8286	0.0118
800.9991	0.0062
801.1696	0.0056
801.3402	0.0222
801.5106	-0.0061
801.6811	-0.0075
801.8516	0.0044
802.022	-0.0216
802.1924	0.0111
802.3628	0.0154
802.5332	-0.0087
802.7035	0.0195
802.8739	-0.0115
803.0442	-0.0013
803.2145	-0.0072
803.3847	-0.0388
803.555	-0.0039
803.7252	-0.0156
803.8954	-0.0108
804.0656	-0.0297
804.2358	0.0039
804.4059	0.0221
804.5761	0.0038
804.7462	-0.0025
804.9163	-0.0061
805.0864	-0.0186
805.2564	-0.0034
805.4264	0.0115
805.5965	-0.0076
805.7665	-0.0204
805.9364	0.0002
806.1064	0.0192
806.2763	-0.0022
806.4462	0.0091
806.6161	0.0054
806.786	-0.0001
806.9559	0.0027
807.1257	-0.0042
807.2955	-0.0145
807.4653	-0.0064
807.6351	-0.0071
807.8048	-0.0137
807.9746	0.0151
808.1443	-0.0039
808.314	0.0045
808.4837	-0.001
808.6533	0.0067
808.8229	0.0206
808.9926	-0.0013
809.1622	-0.0074
809.3317	-0.0177
809.5013	-0.0028
809.6708	-0.001
809.8403	-0.0105
810.0098	0.003
810.1793	-0.0018
810.3488	0.0127
810.5182	-0.0055
810.6876	0.0107
810.857	-0.008
811.0264	0.0306
811.1958	0.0017
811.3651	0.0217
811.5344	-0.0102
811.7037	-0.014
811.873	-0.0155
812.0422	-0.0122
812.2115	0.0026
812.3807	-0.0091
812.5499	0.0078
812.7191	0.0075
812.8882	0.0011
813.0574	0.0046
813.2265	-0.021
813.3956	-0.0022
813.5646	0.008
813.7337	-0.0047
813.9027	-0.007
814.0718	0.013
814.2407	-0.0006
814.4097	-0.0133
814.5787	-0.0269
814.7476	-0.0074
814.9165	-0.0083
815.0854	-0.0135
815.2543	-0.0012
815.4232	-0.009
815.592	0.0028
815.7608	-0.0143
815.9296	0.0067
816.0984	0.0002
816.2671	0.0153
816.4359	-0.0052
816.6046	-0.001
816.7733	-0.0016
816.942	0.0088
817.1106	0.0118
817.2793	-0.0091
817.4479	-0.0049
817.6165	0.0133
817.785	-0.0162
817.9536	0.0002
818.1221	-0.0168
818.2906	0.0149
818.4591	0.0022
818.6276	0.0016
818.7961	0.0019
818.9645	0.0206
819.1329	0.0117
819.3013	0.0189
819.4697	0.0181
819.638	0.0188
819.8064	-0.0001
819.9747	0.0038
820.143	0.0156
820.3113	-0.0231
820.4795	-0.0046
820.6477	0.0247
820.816	0.0073
820.9842	0.0039
821.1523	-0.0174
821.3205	-0.0171
821.4886	0.0184
821.6567	-0.0093
821.8248	0.0266
821.9929	0.0009
822.1609	0.0063
822.329	0.0238
822.497	0.0102
822.665	-0.0332
822.833	-0.0104
823.0009	0.0022
823.1688	0.0129
823.3367	0.0069
823.5046	0.0171
823.6725	0.0051
823.8404	-0.0032
824.0082	0.0118
824.176	-0.0036
824.3438	0.0015
824.5116	-0.0336
824.6793	0.0078
824.847	-0.0155
825.0147	-0.0048
825.1824	-0.0009
825.3501	0.0285
825.5177	-0.0023
825.6854	-0.0301
825.853	-0.0034
826.0206	-0.0285
826.1881	0.0179
826.3557	-0.0118
826.5232	-0.0091
826.6907	-0.0437
826.8582	-0.0398
827.0257	-0.0056
827.1931	0.0085
827.3605	-0.0015
827.528	-0.0205
827.6953	-0.0251
827.8627	-0.0038
828.03	0.0207
828.1974	-0.0167
828.3647	-0.0343
828.532	-0.0142
828.6992	0.0094
828.8665	0.0305
829.0337	0.0004
829.2009	0.0187
829.3681	0.0139
829.5352	0.0375
829.7024	-0.0307
829.8695	-0.0356
830.0366	0.0273
830.2037	-0.0077
830.3707	0.0139
830.5378	0.024
830.7048	0.0031
830.8718	-0.0045
831.0388	-0.0333
831.2057	0.0206
831.3727	-0.0109
831.5396	-0.0287
831.7065	-0.0242
831.8734	0.0164
832.0402	-0.0061
832.2071	-0.0107
832.3739	-0.0189
832.5407	-0.0166
832.7075	-0.0286
832.8742	-0.0164
833.041	-0.0528
833.2077	-0.0175
833.3744	0.0016
833.541	0.0096
833.7077	-0.0088
833.8743	-0.0187
834.0409	-0.0128
834.2075	0.0213
834.3741	-0.0356
834.5407	-0.0267
834.7072	0.0005
834.8737	-0.0412
835.0402	-0.0028
835.2067	-0.0033
835.3731	0.0025
835.5395	0.0358
835.706	-0.0246
835.8723	-0.0066
836.0387	-0.0219
836.2051	-0.0303
836.3714	-0.0036
836.5377	-0.0083
836.704	-0.0204
836.8703	0.0228
837.0365	0.0124
837.2027	-0.0172
837.3689	0.0122
837.5351	-0.0214
837.7013	0.0153
837.8674	-0.0843
838.0335	-0.007
838.1997	-0.0185
838.3657	-0.0722
838.5318	-0.0418
838.6978	0.0265
838.8639	0.0346
839.0299	-0.0138
839.1958	-0.0426
839.3618	0.0253
839.5277	-0.0002
839.6937	0.0341
839.8596	-0.0206
840.0254	0.0553
840.1913	0.0183
840.3571	-0.0347
840.523	-0.0226
840.6888	-0.0447
840.8545	-0.0467
841.0203	-0.0002
841.186	0.0217
841.3517	-0.0263
841.5174	-0.0362
841.6831	-0.0058
841.8488	-0.0144
842.0144	0.009
842.18	0.006
842.3456	0.0131
842.5112	-0.0703
842.6767	-0.0241
842.8422	-0.0232
843.0077	-0.0329
843.1732	-0.0015
843.3387	-0.0495
843.5042	-0.054
843.6696	0.0094
843.835	-0.0888
844.0004	0.0289
844.1657	-0.0413
844.3311	-0.0193
844.4964	-0.067
844.6617	-0.0922
844.827	-0.0026
844.9923	0.016
845.1575	0.0069
845.3227	-0.025
845.4879	-0.0716
845.6531	-0.0556
845.8183	-0.0663
845.9834	0.0188
846.1485	-0.011
846.3136	-0.0758
846.4787	-0.0732
846.6438	0.0155
846.8088	-0.1259
846.9738	-0.12
847.1388	-0.029
847.3038	-0.0827
847.4687	-0.11
847.6337	0.0563
847.7986	0.0104
847.9635	-0.0867
848.1284	0.0502
848.2932	0.0316
848.458	-0.0547
848.6228	-0.0375
848.7876	0.0455
848.9524	-0.0889
849.1172	-0.0944
849.2819	-0.0181
849.4466	-0.1109
849.6113	-0.129
849.7759	0.022
849.9406	-0.049
850.1052	0.0061
850.2698	-0.0368
850.4344	-0.0326
850.599	-0.0826
850.7635	0.0472
850.928	-0.0479
851.0925	-0.0903
851.257	0.0462
851.4215	-0.0224
851.5859	0.0219
851.7503	-0.0169
851.9147	-0.0085
852.0791	-0.0867
852.2434	-0.0226
852.4078	0.0996
852.5721	0.0094
852.7364	-0.045
852.9007	-0.2214
853.0649	-0.0505
853.2291	-0.0105
853.3934	-0.0628
853.5575	-0.0703
853.7217	-0.1226
853.8859	-0.1214
854.05	-0.0734
854.2141	-0.0084
854.3782	-0.0386
854.5423	-0.0497
854.7063	-0.0257
854.8703	-0.0248
855.0343	-0.0808
855.1983	-0.2503
855.3623	0.029
855.5262	0.0132
855.6901	-0.0618
855.854	0.0163
856.0179	-0.0221
856.1818	0.0452
856.3456	-0.0142
856.5094	-0.0726
856.6732	-0.13
856.837	-0.1153
857.0008	-0.0035
857.1645	-0.0068
857.3282	-0.2134
857.4919	0.0756
857.6556	-0.1366
857.8192	-0.0415
857.9828	-0.0308
858.1465	-0.1371
858.31	-0.1643
858.4736	-0.1034
858.6372	-0.2086
858.8007	-0.2361
858.9642	-0.0566
859.1277	-0.086
859.2911	0.1201
859.4546	0.0108
859.618	-0.4584
859.7814	-0.1254
859.9448	-0.069
860.1081	-0.0828
860.2715	0.0903
860.4348	0.4084
860.5981	-0.1233
860.7614	0.1505
860.9246	0.0923
861.0879	-0.1049
861.2511	0.1028
861.4143	-0.327
861.5774	0.1391
861.7406	-0.0733
861.9037	-0.039
862.0668	-0.1374
862.2299	-0.2181
862.393	-0.5616
862.556	0.0296
862.7191	-0.0871
862.8821	-0.1708
863.0451	0.4299
863.208	0.0291
863.371	0.0822
863.5339	-0.085
863.6968	-0.1132
863.8597	-0.085
864.0225	-0.0822
864.1854	-0.3103
864.3482	-0.3249
864.511	0.1741
864.6737	-0.194
864.8365	0.0452
864.9992	-0.6311
865.1619	-0.153
865.3246	-0.105
865.4873	-0.1318
865.65	-0.3525
865.8126	0.1351
865.9752	0.1375
866.1378	0.0611
866.3004	-0.234
866.4629	0.0231
866.6254	-0.1303
866.7879	0.0172
866.9504	-0.3145
867.1129	-0
867.2753	-0.0287
867.4377	0.1893
867.6001	-0.1152
867.7625	0.1363
867.9249	-0.7818
868.0872	-0.1284
868.2495	-0.0361
868.4118	-0.3093
868.5741	-0.7625
868.7363	-0.2865
868.8986	-0.0289
869.0608	-0.2258
869.223	-0.0438
869.3851	0.7339
869.5473	-0
869.7094	0.1614
869.8715	-0.0737
870.0336	-0
870.1957	-0.7039
870.3577	-1.6321
870.5197	-0.251
870.6817	-0.1279
870.8437	-0.2368
871.0057	-0
871.1676	0.082
871.3295	-0.4074
871.4914	-0
871.6533	-0.2229
871.8151	-0.0566
871.977	-0
872.1388	-0
872.3006	-0.0555
872.4623	-0
872.6241	-0.1509
872.7858	0.2192
872.9475	0.0235
873.1092	0.0106
873.2709	-0.1051
873.4325	-0.1014
873.5941	-0.3572
873.7557	-0
873.9173	-0
874.0789	-0.4352
874.2404	0.4721
874.4019	-0
874.5634	-0.1423
874.7249	-0.0023
874.8863	-0.0243
875.0478	-0.0643
875.2092	-0
875.3706	0.0074
875.5319	-0.575
875.6933	-0
875.8546	-0.324
876.0159	-0
876.1772	-0
876.3385	-0
876.4997	0.0932
876.6609	-0.4065
876.8221	0.1549
876.9833	-0.1232
877.1445	-0
877.3056	0.3275
877.4667	-0.0063
877.6278	-0
877.7889	-0.1318
877.9499	-0
878.111	-0
878.272	-0
878.433	-0
878.5939	0.6706
878.7549	-0.0892
878.9158	-0.904
879.0767	-0
879.2376	-0
879.3984	-0.1279
879.5593	-0
879.7201	0.343
879.8809	-0.7594
880.0417	-0.5302
880.2024	0.3052
880.3632	-0.0474
880.5239	-0
880.6846	-0.0032
880.8452	-2.2753
881.0059	-1.2122
881.1665	1.1421
881.3271	0.2483
881.4877	-0.542
881.6483	-0.5744
881.8088	-0.4766
881.9693	-0
882.1298	-0
882.2903	-0
