Data from MonoPyChalIsomerACN10uM440nmA_Absorbance_15-27-17-494.txt Node
Date: Fri Jul 05 15:27:17 BST 2024
User: LASERRRRR
Spectrometer: FLMT03099
Trigger mode: 0
Integration Time (sec): 1.000000E-1
Scans to average: 1
Electric dark correction enabled: true
Nonlinearity correction enabled: false
Boxcar width: 0
XAxis mode: Wavelengths
Number of Pixels in Spectrum: 3648
>>>>>Begin Spectral Data<<<<<
179.3399	-0.1908
179.5586	-0.1908
179.7771	-0.1908
179.9957	-0
180.2143	-0
180.4329	-0.045
180.6514	-0
180.8699	0.0509
181.0885	0.0583
181.307	-0.0633
181.5255	-0.7277
181.744	-0.21
181.9625	0.5728
182.181	-0
182.3994	0.4292
182.6179	-0.0577
182.8363	2.6085
183.0547	-0.147
183.2732	0.1261
183.4916	0.0056
183.71	0.1488
183.9284	0.1884
184.1467	0.0984
184.3651	0.3172
184.5835	0.3211
184.8018	0.0562
185.0201	-0.0225
185.2385	-0.1225
185.4568	-0.0035
185.6751	0.2141
185.8934	0.5258
186.1117	0.028
186.3299	0.2572
186.5482	0.2722
186.7664	-0.0266
186.9847	0.0495
187.2029	0.0602
187.4211	0.0769
187.6393	0.3594
187.8575	-0.2288
188.0757	0.3078
188.2939	0.0831
188.512	0.3372
188.7302	0.4402
188.9483	0.42
189.1665	0.4546
189.3846	-0.272
189.6027	0.1471
189.8208	0.3625
190.0389	0.1487
190.257	0.302
190.475	0.1259
190.6931	0.1987
190.9111	0.351
191.1292	0.3484
191.3472	0.6808
191.5652	0.3227
191.7832	0.3019
192.0012	0.5069
192.2192	0.2781
192.4371	0.5431
192.6551	0.5523
192.873	0.4792
193.091	0.4118
193.3089	1.2317
193.5268	0.7381
193.7447	0.6027
193.9626	0.4956
194.1805	0.7174
194.3984	0.8319
194.6162	1.0781
194.8341	0.6581
195.0519	0.5916
195.2697	0.792
195.4875	0.7849
195.7054	0.5921
195.9231	0.7089
196.1409	0.6538
196.3587	0.7519
196.5765	0.768
196.7942	0.5496
197.012	0.5404
197.2297	0.5842
197.4474	0.7999
197.6651	0.5454
197.8828	0.525
198.1005	0.7566
198.3182	0.6367
198.5358	0.8375
198.7535	0.817
198.9711	0.5572
199.1888	0.6477
199.4064	0.6404
199.624	0.7651
199.8416	0.5694
200.0592	0.8244
200.2767	0.7189
200.4943	0.6141
200.7119	0.8023
200.9294	0.7178
201.1469	0.5515
201.3645	0.5787
201.582	0.7565
201.7995	0.6585
202.017	0.5437
202.2344	0.5821
202.4519	0.7085
202.6694	0.7467
202.8868	0.6423
203.1042	0.6807
203.3217	0.7149
203.5391	0.7435
203.7565	0.6691
203.9739	0.6307
204.1913	0.687
204.4086	0.7528
204.626	0.7242
204.8433	0.6328
205.0607	0.6509
205.278	0.724
205.4953	0.7129
205.7126	0.7202
205.9299	0.7244
206.1472	0.8107
206.3644	0.7089
206.5817	0.6705
206.7989	0.7138
207.0162	0.6677
207.2334	0.6968
207.4506	0.6476
207.6678	0.6655
207.885	0.6956
208.1022	0.6793
208.3194	0.6665
208.5365	0.687
208.7537	0.7153
208.9708	0.5575
209.1879	0.7762
209.405	0.7068
209.6222	0.7033
209.8392	0.6929
210.0563	0.6657
210.2734	0.738
210.4905	0.7479
210.7075	0.6253
210.9245	0.6258
211.1416	0.7596
211.3586	0.6366
211.5756	0.6312
211.7926	0.6272
212.0096	0.5866
212.2265	0.669
212.4435	0.6299
212.6604	0.6404
212.8774	0.5864
213.0943	0.6111
213.3112	0.5649
213.5281	0.5615
213.745	0.5045
213.9619	0.5246
214.1788	0.4972
214.3956	0.4835
214.6125	0.4678
214.8293	0.4444
215.0461	0.459
215.2629	0.43
215.4798	0.5012
215.6965	0.4348
215.9133	0.4735
216.1301	0.4072
216.3469	0.429
216.5636	0.4175
216.7803	0.4065
216.9971	0.42
217.2138	0.3829
217.4305	0.3644
217.6472	0.3558
217.8639	0.4287
218.0805	0.3545
218.2972	0.3144
218.5138	0.3169
218.7305	0.3395
218.9471	0.3428
219.1637	0.2916
219.3803	0.2855
219.5969	0.2755
219.8135	0.2618
220.0301	0.3054
220.2466	0.2831
220.4632	0.2671
220.6797	0.2348
220.8962	0.2448
221.1127	0.2576
221.3292	0.2576
221.5457	0.2346
221.7622	0.2216
221.9787	0.2576
222.1951	0.2402
222.4116	0.2451
222.628	0.243
222.8444	0.264
223.0608	0.2462
223.2772	0.2529
223.4936	0.2626
223.71	0.2533
223.9264	0.2861
224.1427	0.2411
224.3591	0.2488
224.5754	0.2624
224.7917	0.2517
225.008	0.2573
225.2243	0.2674
225.4406	0.2868
225.6569	0.2803
225.8732	0.2631
226.0894	0.2438
226.3057	0.2468
226.5219	0.2721
226.7381	0.2704
226.9543	0.2999
227.1705	0.273
227.3867	0.2864
227.6029	0.309
227.8191	0.3035
228.0352	0.2813
228.2513	0.3099
228.4675	0.3106
228.6836	0.3018
228.8997	0.2963
229.1158	0.3125
229.3319	0.3026
229.548	0.3216
229.764	0.3248
229.9801	0.2977
230.1961	0.3253
230.4121	0.3248
230.6282	0.3478
230.8442	0.3277
231.0602	0.3465
231.2761	0.3509
231.4921	0.3365
231.7081	0.3549
231.924	0.3533
232.14	0.3645
232.3559	0.3306
232.5718	0.3563
232.7877	0.3518
233.0036	0.3556
233.2195	0.3633
233.4353	0.3379
233.6512	0.3627
233.867	0.3714
234.0829	0.3552
234.2987	0.3701
234.5145	0.3782
234.7303	0.3713
234.9461	0.383
235.1619	0.3871
235.3776	0.3796
235.5934	0.3847
235.8091	0.3546
236.0249	0.3747
236.2406	0.3704
236.4563	0.3841
236.672	0.3839
236.8877	0.3833
237.1034	0.4048
237.319	0.3871
237.5347	0.413
237.7503	0.3861
237.966	0.4086
238.1816	0.4088
238.3972	0.4001
238.6128	0.3853
238.8284	0.4037
239.0439	0.4075
239.2595	0.3905
239.475	0.4174
239.6906	0.4256
239.9061	0.4127
240.1216	0.4045
240.3371	0.4133
240.5526	0.3946
240.7681	0.405
240.9836	0.3884
241.199	0.413
241.4145	0.4018
241.6299	0.3745
241.8453	0.3708
242.0607	0.384
242.2761	0.3694
242.4915	0.3665
242.7069	0.3625
242.9223	0.3501
243.1376	0.3276
243.353	0.3369
243.5683	0.3534
243.7836	0.324
243.9989	0.3316
244.2142	0.3218
244.4295	0.3358
244.6448	0.316
244.86	0.3042
245.0753	0.302
245.2905	0.3038
245.5057	0.2906
245.721	0.2741
245.9362	0.2624
246.1514	0.2827
246.3665	0.2642
246.5817	0.2564
246.7969	0.2481
247.012	0.241
247.2271	0.2417
247.4423	0.2595
247.6574	0.2608
247.8725	0.2509
248.0876	0.2373
248.3026	0.227
248.5177	0.2312
248.7328	0.2155
248.9478	0.2192
249.1628	0.22
249.3779	0.2127
249.5929	0.1991
249.8079	0.2227
250.0228	0.2033
250.2378	0.1952
250.4528	0.2139
250.6677	0.201
250.8827	0.2008
251.0976	0.1914
251.3125	0.2066
251.5274	0.184
251.7423	0.1925
251.9572	0.1904
252.172	0.1728
252.3869	0.1761
252.6017	0.1799
252.8166	0.1642
253.0314	0.1711
253.2462	0.1718
253.461	0.1817
253.6758	0.1893
253.8906	0.1879
254.1053	0.1689
254.3201	0.176
254.5348	0.1804
254.7496	0.1871
254.9643	0.1648
255.179	0.167
255.3937	0.1646
255.6083	0.1691
255.823	0.1756
256.0377	0.1763
256.2523	0.1762
256.467	0.152
256.6816	0.1702
256.8962	0.1681
257.1108	0.163
257.3254	0.1861
257.54	0.175
257.7545	0.1649
257.9691	0.1695
258.1836	0.1602
258.3981	0.1727
258.6127	0.1673
258.8272	0.1706
259.0417	0.1711
259.2561	0.1771
259.4706	0.1673
259.6851	0.1624
259.8995	0.1662
260.114	0.1673
260.3284	0.1533
260.5428	0.1583
260.7572	0.1695
260.9716	0.1776
261.186	0.1648
261.4003	0.1676
261.6147	0.1656
261.829	0.1586
262.0433	0.1615
262.2577	0.1502
262.472	0.1709
262.6863	0.1609
262.9005	0.1667
263.1148	0.1767
263.3291	0.1563
263.5433	0.1682
263.7576	0.1616
263.9718	0.1673
264.186	0.1598
264.4002	0.1478
264.6144	0.1556
264.8286	0.1694
265.0427	0.1657
265.2569	0.1573
265.471	0.1524
265.6851	0.1609
265.8993	0.1697
266.1134	0.1602
266.3275	0.1585
266.5415	0.1641
266.7556	0.1767
266.9697	0.1636
267.1837	0.1716
267.3978	0.1623
267.6118	0.1742
267.8258	0.1881
268.0398	0.1596
268.2538	0.1787
268.4677	0.1706
268.6817	0.151
268.8957	0.1661
269.1096	0.1638
269.3235	0.1709
269.5374	0.1586
269.7514	0.1546
269.9652	0.1486
270.1791	0.1473
270.393	0.1539
270.6068	0.1586
270.8207	0.1505
271.0345	0.1361
271.2483	0.161
271.4622	0.1453
271.676	0.1525
271.8897	0.1484
272.1035	0.1563
272.3173	0.1556
272.531	0.1526
272.7448	0.1501
272.9585	0.1512
273.1722	0.154
273.3859	0.1613
273.5996	0.1415
273.8133	0.1523
274.0269	0.1447
274.2406	0.1463
274.4542	0.155
274.6679	0.1407
274.8815	0.1538
275.0951	0.1483
275.3087	0.1557
275.5223	0.1559
275.7358	0.16
275.9494	0.1381
276.1629	0.1459
276.3765	0.1499
276.59	0.1505
276.8035	0.1398
277.017	0.1459
277.2305	0.1567
277.444	0.1516
277.6574	0.1518
277.8709	0.1524
278.0843	0.1396
278.2978	0.1476
278.5112	0.1333
278.7246	0.141
278.938	0.1562
279.1513	0.1574
279.3647	0.1577
279.5781	0.1516
279.7914	0.15
280.0047	0.158
280.2181	0.1557
280.4314	0.1673
280.6447	0.1441
280.8579	0.1447
281.0712	0.1693
281.2845	0.1654
281.4977	0.1591
281.711	0.1512
281.9242	0.1532
282.1374	0.1638
282.3506	0.1603
282.5638	0.1549
282.7769	0.1599
282.9901	0.1531
283.2033	0.1676
283.4164	0.1663
283.6295	0.1504
283.8426	0.1563
284.0557	0.1631
284.2688	0.1656
284.4819	0.1593
284.695	0.1571
284.908	0.1594
285.1211	0.1616
285.3341	0.164
285.5471	0.1634
285.7601	0.1683
285.9731	0.157
286.1861	0.1626
286.3991	0.1697
286.612	0.1585
286.825	0.155
287.0379	0.1627
287.2508	0.1509
287.4637	0.1535
287.6766	0.1564
287.8895	0.1717
288.1024	0.1889
288.3152	0.1677
288.5281	0.1551
288.7409	0.1593
288.9538	0.1654
289.1666	0.1608
289.3794	0.1668
289.5922	0.1598
289.8049	0.1656
290.0177	0.1562
290.2304	0.162
290.4432	0.1564
290.6559	0.1604
290.8686	0.172
291.0813	0.1544
291.294	0.1769
291.5067	0.175
291.7194	0.163
291.932	0.1752
292.1447	0.1624
292.3573	0.1547
292.5699	0.1557
292.7825	0.166
292.9951	0.1551
293.2077	0.1592
293.4203	0.1569
293.6328	0.1444
293.8454	0.159
294.0579	0.1636
294.2704	0.166
294.4829	0.1421
294.6954	0.1662
294.9079	0.1637
295.1204	0.1521
295.3328	0.1546
295.5453	0.161
295.7577	0.1627
295.9701	0.1499
296.1825	0.1556
296.3949	0.1649
296.6073	0.1424
296.8197	0.1587
297.0321	0.1682
297.2444	0.1354
297.4567	0.1644
297.6691	0.1653
297.8814	0.1556
298.0937	0.151
298.306	0.1669
298.5182	0.1549
298.7305	0.1628
298.9428	0.1487
299.155	0.1557
299.3672	0.1566
299.5794	0.1494
299.7916	0.1557
300.0038	0.1686
300.216	0.1567
300.4282	0.1723
300.6403	0.1501
300.8525	0.1551
301.0646	0.1498
301.2767	0.1562
301.4888	0.1543
301.7009	0.1562
301.913	0.1497
302.125	0.1664
302.3371	0.1486
302.5491	0.1586
302.7612	0.1701
302.9732	0.169
303.1852	0.1664
303.3972	0.1458
303.6092	0.146
303.8211	0.1551
304.0331	0.1435
304.245	0.1545
304.457	0.1399
304.6689	0.1504
304.8808	0.1612
305.0927	0.1446
305.3046	0.1446
305.5164	0.1438
305.7283	0.1394
305.9401	0.1452
306.152	0.1344
306.3638	0.1439
306.5756	0.1332
306.7874	0.1453
306.9992	0.1436
307.2109	0.1353
307.4227	0.1263
307.6344	0.1307
307.8462	0.1285
308.0579	0.13
308.2696	0.1304
308.4813	0.1256
308.693	0.1321
308.9046	0.1352
309.1163	0.1305
309.328	0.1202
309.5396	0.1226
309.7512	0.1254
309.9628	0.1248
310.1744	0.1158
310.386	0.112
310.5976	0.1213
310.8091	0.1224
311.0207	0.1085
311.2322	0.12
311.4437	0.112
311.6552	0.1092
311.8667	0.1204
312.0782	0.1088
312.2897	0.0931
312.5012	0.1214
312.7126	0.1055
312.924	0.1135
313.1355	0.1063
313.3469	0.1048
313.5583	0.1144
313.7696	0.1142
313.981	0.1045
314.1924	0.105
314.4037	0.1103
314.6151	0.1205
314.8264	0.091
315.0377	0.1035
315.249	0.1142
315.4603	0.1073
315.6716	0.099
315.8828	0.0998
316.0941	0.1013
316.3053	0.0998
316.5165	0.1002
316.7277	0.0955
316.9389	0.1043
317.1501	0.0998
317.3613	0.1003
317.5724	0.0823
317.7836	0.1053
317.9947	0.1074
318.2058	0.0982
318.417	0.0935
318.6281	0.0995
318.8391	0.0957
319.0502	0.0936
319.2613	0.1063
319.4723	0.1051
319.6834	0.1008
319.8944	0.1027
320.1054	0.1047
320.3164	0.1002
320.5274	0.097
320.7383	0.0993
320.9493	0.1097
321.1602	0.1025
321.3712	0.0882
321.5821	0.1083
321.793	0.1054
322.0039	0.1076
322.2148	0.0984
322.4257	0.1107
322.6365	0.1099
322.8474	0.1016
323.0582	0.1041
323.269	0.1089
323.4798	0.1059
323.6906	0.1059
323.9014	0.1095
324.1122	0.1072
324.3229	0.0997
324.5337	0.1033
324.7444	0.0934
324.9551	0.1182
325.1658	0.1065
325.3765	0.1143
325.5872	0.1052
325.7979	0.1015
326.0085	0.1122
326.2192	0.1216
326.4298	0.1176
326.6404	0.0987
326.851	0.0915
327.0616	0.1033
327.2722	0.1093
327.4828	0.1119
327.6933	0.1175
327.9039	0.1108
328.1144	0.1279
328.3249	0.1124
328.5354	0.1138
328.7459	0.111
328.9564	0.1023
329.1669	0.1139
329.3773	0.117
329.5878	0.0991
329.7982	0.1127
330.0086	0.1022
330.219	0.1174
330.4294	0.1031
330.6398	0.108
330.8502	0.1026
331.0605	0.1072
331.2708	0.1147
331.4812	0.114
331.6915	0.1038
331.9018	0.1004
332.1121	0.1103
332.3224	0.107
332.5326	0.1207
332.7429	0.1064
332.9531	0.1267
333.1633	0.1089
333.3735	0.1184
333.5837	0.1191
333.7939	0.1158
334.0041	0.1157
334.2143	0.1234
334.4244	0.1157
334.6346	0.0939
334.8447	0.1156
335.0548	0.1255
335.2649	0.1049
335.475	0.1224
335.685	0.1187
335.8951	0.1106
336.1051	0.1188
336.3152	0.1253
336.5252	0.1127
336.7352	0.1171
336.9452	0.1196
337.1552	0.108
337.3652	0.1144
337.5751	0.1123
337.7851	0.1262
337.995	0.108
338.2049	0.1185
338.4148	0.113
338.6247	0.122
338.8346	0.1055
339.0445	0.1242
339.2543	0.1023
339.4642	0.1362
339.674	0.1106
339.8838	0.1123
340.0936	0.115
340.3034	0.1428
340.5132	0.123
340.7229	0.124
340.9327	0.1126
341.1424	0.1105
341.3522	0.1283
341.5619	0.1264
341.7716	0.1363
341.9813	0.1243
342.1909	0.1185
342.4006	0.1376
342.6102	0.1303
342.8199	0.12
343.0295	0.1306
343.2391	0.1258
343.4487	0.1225
343.6583	0.1312
343.8679	0.1398
344.0774	0.1336
344.287	0.1324
344.4965	0.1257
344.706	0.1246
344.9155	0.1285
345.125	0.1222
345.3345	0.139
345.544	0.1191
345.7534	0.1293
345.9629	0.1117
346.1723	0.1275
346.3817	0.1231
346.5911	0.1396
346.8005	0.138
347.0099	0.1233
347.2193	0.1277
347.4286	0.1314
347.638	0.1431
347.8473	0.1415
348.0566	0.1467
348.2659	0.1402
348.4752	0.1279
348.6845	0.1382
348.8937	0.1405
349.103	0.1409
349.3122	0.1372
349.5214	0.1339
349.7306	0.1393
349.9398	0.1453
350.149	0.1332
350.3582	0.136
350.5674	0.1521
350.7765	0.1332
350.9856	0.1384
351.1948	0.1572
351.4039	0.124
351.613	0.1446
351.822	0.1422
352.0311	0.1503
352.2402	0.1419
352.4492	0.1526
352.6582	0.1616
352.8672	0.1448
353.0762	0.1521
353.2852	0.1427
353.4942	0.1326
353.7032	0.1538
353.9121	0.1628
354.1211	0.1485
354.33	0.1571
354.5389	0.1451
354.7478	0.1488
354.9567	0.1396
355.1655	0.1483
355.3744	0.1694
355.5833	0.1608
355.7921	0.1714
356.0009	0.162
356.2097	0.176
356.4185	0.1825
356.6273	0.1577
356.8361	0.1601
357.0448	0.1482
357.2536	0.1563
357.4623	0.16
357.671	0.1567
357.8797	0.165
358.0884	0.1604
358.2971	0.1693
358.5057	0.1662
358.7144	0.1665
358.923	0.1605
359.1316	0.1693
359.3402	0.1798
359.5488	0.1761
359.7574	0.1722
359.966	0.1833
360.1746	0.1714
360.3831	0.1829
360.5916	0.1687
360.8002	0.156
361.0087	0.1934
361.2172	0.175
361.4256	0.1811
361.6341	0.1802
361.8426	0.1872
362.051	0.1693
362.2594	0.1806
362.4678	0.1919
362.6762	0.2005
362.8846	0.195
363.093	0.1743
363.3014	0.1828
363.5097	0.1823
363.718	0.1844
363.9264	0.1836
364.1347	0.1849
364.343	0.1884
364.5513	0.2084
364.7595	0.1979
364.9678	0.1836
365.176	0.1868
365.3842	0.1818
365.5925	0.1831
365.8007	0.1786
366.0089	0.1953
366.217	0.1852
366.4252	0.2039
366.6333	0.2013
366.8415	0.191
367.0496	0.1972
367.2577	0.2
367.4658	0.2171
367.6739	0.2027
367.882	0.2129
368.09	0.1898
368.2981	0.2069
368.5061	0.2139
368.7141	0.2094
368.9221	0.2039
369.1301	0.207
369.3381	0.2019
369.5461	0.2098
369.754	0.2163
369.962	0.2154
370.1699	0.2105
370.3778	0.2327
370.5857	0.2004
370.7936	0.2043
371.0015	0.2049
371.2093	0.2117
371.4172	0.2281
371.625	0.2144
371.8328	0.2154
372.0406	0.2104
372.2484	0.2145
372.4562	0.2162
372.664	0.215
372.8717	0.2161
373.0795	0.1962
373.2872	0.2134
373.4949	0.2047
373.7026	0.1991
373.9103	0.2192
374.118	0.2185
374.3256	0.2231
374.5333	0.2046
374.7409	0.2306
374.9485	0.2249
375.1561	0.2114
375.3637	0.2163
375.5713	0.2378
375.7789	0.2175
375.9864	0.2366
376.194	0.2183
376.4015	0.2375
376.609	0.2546
376.8165	0.2249
377.024	0.2285
377.2315	0.224
377.4389	0.2354
377.6464	0.2294
377.8538	0.2435
378.0612	0.2237
378.2686	0.2444
378.476	0.2385
378.6834	0.2418
378.8908	0.2309
379.0981	0.2327
379.3055	0.2257
379.5128	0.2348
379.7201	0.2396
379.9274	0.2212
380.1347	0.2254
380.342	0.2362
380.5492	0.2195
380.7565	0.222
380.9637	0.244
381.1709	0.2535
381.3781	0.2343
381.5853	0.2536
381.7925	0.2213
381.9997	0.2572
382.2068	0.2359
382.4139	0.2371
382.6211	0.2288
382.8282	0.2391
383.0353	0.2296
383.2424	0.234
383.4494	0.2428
383.6565	0.2401
383.8635	0.2397
384.0706	0.249
384.2776	0.2488
384.4846	0.2354
384.6916	0.2455
384.8986	0.2438
385.1055	0.2451
385.3125	0.2511
385.5194	0.2267
385.7263	0.2509
385.9333	0.2499
386.1402	0.2436
386.347	0.2426
386.5539	0.2371
386.7608	0.2451
386.9676	0.2504
387.1744	0.2339
387.3813	0.2241
387.5881	0.2462
387.7948	0.2419
388.0016	0.234
388.2084	0.2388
388.4151	0.2212
388.6219	0.2512
388.8286	0.2424
389.0353	0.2558
389.242	0.246
389.4487	0.2306
389.6553	0.2245
389.862	0.2118
390.0686	0.2224
390.2753	0.2429
390.4819	0.2318
390.6885	0.2202
390.8951	0.2345
391.1016	0.2302
391.3082	0.2169
391.5147	0.2346
391.7213	0.224
391.9278	0.2154
392.1343	0.2206
392.3408	0.2222
392.5473	0.2324
392.7537	0.211
392.9602	0.2206
393.1666	0.2247
393.373	0.2129
393.5794	0.24
393.7858	0.2164
393.9922	0.2122
394.1986	0.2307
394.4049	0.2169
394.6113	0.1957
394.8176	0.1968
395.0239	0.2064
395.2302	0.2044
395.4365	0.2066
395.6428	0.2266
395.8491	0.1969
396.0553	0.2202
396.2615	0.2186
396.4678	0.1993
396.674	0.2075
396.8802	0.1984
397.0863	0.2276
397.2925	0.2019
397.4987	0.1926
397.7048	0.1902
397.9109	0.2065
398.117	0.1964
398.3231	0.1927
398.5292	0.1938
398.7353	0.2005
398.9413	0.1922
399.1474	0.198
399.3534	0.1853
399.5594	0.186
399.7654	0.2005
399.9714	0.2112
400.1774	0.2076
400.3833	0.1968
400.5893	0.2111
400.7952	0.1837
401.0011	0.182
401.207	0.1946
401.4129	0.1854
401.6188	0.1889
401.8247	0.2004
402.0305	0.1923
402.2364	0.1995
402.4422	0.2008
402.648	0.2054
402.8538	0.215
403.0596	0.1875
403.2654	0.2119
403.4711	0.2011
403.6768	0.2043
403.8826	0.1962
404.0883	0.1957
404.294	0.201
404.4997	0.1795
404.7054	0.2011
404.911	0.1845
405.1167	0.2119
405.3223	0.2143
405.5279	0.2173
405.7335	0.1985
405.9391	0.2125
406.1447	0.2118
406.3502	0.2159
406.5558	0.2037
406.7613	0.1865
406.9668	0.1979
407.1724	0.191
407.3778	0.1886
407.5833	0.2125
407.7888	0.2066
407.9942	0.2041
408.1997	0.1966
408.4051	0.191
408.6105	0.2023
408.8159	0.1898
409.0213	0.1764
409.2267	0.2002
409.432	0.1809
409.6374	0.2043
409.8427	0.1736
410.048	0.1959
410.2533	0.1859
410.4586	0.213
410.6639	0.1779
410.8691	0.1983
411.0744	0.1934
411.2796	0.1888
411.4848	0.1972
411.69	0.1882
411.8952	0.2092
412.1004	0.1889
412.3056	0.2171
412.5107	0.1902
412.7158	0.1997
412.921	0.1924
413.1261	0.188
413.3312	0.1853
413.5362	0.195
413.7413	0.1856
413.9464	0.1985
414.1514	0.1723
414.3564	0.1836
414.5614	0.1867
414.7664	0.1853
414.9714	0.1906
415.1764	0.19
415.3813	0.1885
415.5863	0.1942
415.7912	0.2009
415.9961	0.208
416.201	0.1946
416.4059	0.1897
416.6108	0.1867
416.8156	0.1843
417.0205	0.1832
417.2253	0.1713
417.4301	0.1983
417.6349	0.1792
417.8397	0.1594
418.0445	0.1977
418.2492	0.1919
418.454	0.179
418.6587	0.1994
418.8634	0.18
419.0681	0.1636
419.2728	0.1803
419.4775	0.1798
419.6822	0.1658
419.8868	0.1764
420.0915	0.1816
420.2961	0.1637
420.5007	0.1706
420.7053	0.1757
420.9099	0.19
421.1144	0.1802
421.319	0.1664
421.5235	0.1747
421.728	0.1682
421.9325	0.172
422.137	0.1854
422.3415	0.1589
422.546	0.1821
422.7504	0.1671
422.9549	0.1779
423.1593	0.1895
423.3637	0.1795
423.5681	0.1608
423.7725	0.1656
423.9769	0.1723
424.1812	0.1618
424.3856	0.1676
424.5899	0.1563
424.7942	0.1575
424.9985	0.1578
425.2028	0.1588
425.4071	0.1796
425.6113	0.1591
425.8156	0.1655
426.0198	0.1661
426.224	0.1601
426.4282	0.1667
426.6324	0.1594
426.8366	0.1503
427.0407	0.1473
427.2449	0.1461
427.449	0.1661
427.6531	0.1452
427.8572	0.1516
428.0613	0.1477
428.2654	0.1586
428.4694	0.1383
428.6735	0.1354
428.8775	0.1625
429.0815	0.1447
429.2855	0.1414
429.4895	0.1621
429.6935	0.1417
429.8975	0.1499
430.1014	0.1244
430.3053	0.138
430.5093	0.1311
430.7132	0.1359
430.9171	0.1263
431.1209	0.144
431.3248	0.1232
431.5286	0.1304
431.7325	0.1328
431.9363	0.1138
432.1401	0.1237
432.3439	0.1235
432.5477	0.1013
432.7514	0.1134
432.9552	0.1205
433.1589	0.0991
433.3627	0.1033
433.5664	0.1185
433.7701	0.1048
433.9737	0.1113
434.1774	0.0997
434.3811	0.0936
434.5847	0.1146
434.7883	0.1078
434.9919	0.1027
435.1955	0.1073
435.3991	0.0935
435.6027	0.0959
435.8062	0.1066
436.0098	0.0888
436.2133	0.0955
436.4168	0.0999
436.6203	0.0829
436.8238	0.0946
437.0272	0.0952
437.2307	0.1024
437.4341	0.0912
437.6375	0.088
437.841	0.0752
438.0443	0.0795
438.2477	0.0903
438.4511	0.0753
438.6545	0.0881
438.8578	0.078
439.0611	0.1013
439.2644	0.0785
439.4677	0.0786
439.671	0.0673
439.8743	0.0732
440.0775	0.0705
440.2808	0.0681
440.484	0.0685
440.6872	0.0518
440.8904	0.0658
441.0936	0.0711
441.2967	0.0648
441.4999	0.069
441.703	0.0716
441.9062	0.0716
442.1093	0.0645
442.3124	0.0704
442.5155	0.0474
442.7185	0.0519
442.9216	0.0307
443.1246	0.0607
443.3276	0.0576
443.5307	0.0547
443.7337	0.0481
443.9366	0.051
444.1396	0.0637
444.3426	0.0543
444.5455	0.0508
444.7484	0.0452
444.9513	0.0517
445.1542	0.0505
445.3571	0.0509
445.56	0.0467
445.7628	0.0254
445.9657	0.0554
446.1685	0.0415
446.3713	0.049
446.5741	0.0305
446.7769	0.0304
446.9797	0.0404
447.1824	0.0381
447.3852	0.0277
447.5879	0.0407
447.7906	0.0521
447.9933	0.0424
448.196	0.033
448.3986	0.0272
448.6013	0.0232
448.8039	0.028
449.0066	0.0259
449.2092	0.0338
449.4118	0.0408
449.6143	0.0405
449.8169	0.0308
450.0195	0.0184
450.222	0.0087
450.4245	0.0066
450.627	0.0306
450.8295	0.032
451.032	0.0294
451.2345	0.0256
451.4369	0.0333
451.6394	0.0288
451.8418	0.0214
452.0442	0.0184
452.2466	0.0341
452.449	0.0121
452.6513	0.0211
452.8537	0.0275
453.056	0.0099
453.2583	0.035
453.4607	0.011
453.663	0.0199
453.8652	0.0416
454.0675	0.0065
454.2697	0.0118
454.472	0.0222
454.6742	0.0213
454.8764	0.0105
455.0786	0.0272
455.2808	0.0095
455.4829	0.0184
455.6851	0.0339
455.8872	0.0206
456.0893	0.0314
456.2915	0.0019
456.4935	0.0225
456.6956	0.0048
456.8977	0.0249
457.0997	0.0176
457.3018	0.0126
457.5038	0.0214
457.7058	-0.0016
457.9078	0.0083
458.1098	0.013
458.3117	0.0086
458.5137	0.0144
458.7156	0.0033
458.9175	0.0056
459.1194	0.013
459.3213	0.0019
459.5232	0.0041
459.725	-0.0186
459.9269	-0.0097
460.1287	-0.0033
460.3305	0.0011
460.5323	0.0129
460.7341	0.0102
460.9359	0.0074
461.1376	0.015
461.3394	-0.0001
461.5411	0.0108
461.7428	0.0064
461.9445	0.0092
462.1462	0.0238
462.3479	-0.0037
462.5495	0.0162
462.7512	0.0165
462.9528	-0.004
463.1544	-0.0059
463.356	0.0064
463.5576	0.0169
463.7592	0
463.9607	0.0135
464.1623	0.0132
464.3638	0.0187
464.5653	-0.0042
464.7668	0.011
464.9683	0.0063
465.1697	0.0203
465.3712	0.0035
465.5726	-0.0154
465.7741	-0.0005
465.9755	-0.0124
466.1769	-0.0062
466.3782	0.0157
466.5796	-0.0096
466.7809	0.005
466.9823	0.0026
467.1836	0.0097
467.3849	-0.0108
467.5862	0.0111
467.7875	0.0084
467.9887	0.0236
468.19	-0.0092
468.3912	-0.0076
468.5924	-0.0019
468.7936	0.0052
468.9948	-0.0035
469.196	-0.0053
469.3972	0.0039
469.5983	0.0119
469.7994	-0.0176
470.0006	0.0044
470.2017	-0.0139
470.4027	-0.0008
470.6038	0.01
470.8049	-0.0054
471.0059	0.0036
471.2069	-0.0347
471.408	0.0124
471.6089	-0.0076
471.8099	-0.0042
472.0109	0.0054
472.2119	0.0014
472.4128	-0.016
472.6137	0.0058
472.8146	-0.0154
473.0155	-0.0082
473.2164	-0.0074
473.4173	0.0099
473.6181	0.0083
473.819	-0.0021
474.0198	-0.0064
474.2206	-0.0069
474.4214	0.0016
474.6222	-0.0008
474.8229	0.0114
475.0237	-0.0039
475.2244	-0.002
475.4251	0.0039
475.6258	0.0013
475.8265	-0.0047
476.0272	0.0136
476.2278	0.0006
476.4285	0.0025
476.6291	-0.0104
476.8297	-0.0008
477.0303	0.0026
477.2309	-0.0043
477.4315	-0.0157
477.632	0.0024
477.8326	-0.0159
478.0331	0.0073
478.2336	0.0094
478.4341	0.0028
478.6346	-0.0037
478.8351	-0.0018
479.0355	0.0029
479.236	0.0004
479.4364	-0.0005
479.6368	-0.0054
479.8372	-0.014
480.0376	0.0005
480.2379	-0.0194
480.4383	-0.0058
480.6386	0.0024
480.8389	0.0007
481.0392	-0.006
481.2395	-0.0087
481.4398	0.0088
481.6401	0.0056
481.8403	0.0001
482.0405	-0.0041
482.2408	-0.0016
482.441	0.0156
482.6411	-0.0008
482.8413	0.0019
483.0415	-0.0016
483.2416	0.0021
483.4417	0.0014
483.6419	0.0025
483.8419	0.0008
484.042	0.0037
484.2421	0.0051
484.4422	0.001
484.6422	0.0019
484.8422	-0.0005
485.0422	-0.0096
485.2422	-0.001
485.4422	-0.0128
485.6422	-0.0085
485.8421	0.0001
486.042	-0.0032
486.242	-0.0023
486.4419	-0.0122
486.6417	-0.0095
486.8416	0.011
487.0415	-0.0106
487.2413	-0.0082
487.4411	-0.003
487.641	-0.0102
487.8408	0.012
488.0405	-0.006
488.2403	-0.0069
488.4401	0.0063
488.6398	0.0035
488.8395	-0.0028
489.0392	0.0025
489.2389	-0.0119
489.4386	-0.0073
489.6383	-0.0044
489.8379	0.0046
490.0376	-0.0002
490.2372	-0.0109
490.4368	-0.0128
490.6364	0.0038
490.836	-0.0097
491.0355	-0.0024
491.2351	-0.0052
491.4346	0.0013
491.6341	-0.0198
491.8336	-0.0018
492.0331	-0.0152
492.2326	-0.0091
492.432	-0.0022
492.6315	0.001
492.8309	-0.0146
493.0303	-0.0019
493.2297	-0.0018
493.4291	-0.0067
493.6284	-0.0062
493.8278	-0.0025
494.0271	-0.0014
494.2264	0.0072
494.4257	-0.014
494.625	0.0061
494.8243	-0.0122
495.0236	-0.0105
495.2228	-0.012
495.422	-0.0036
495.6213	0.0041
495.8205	-0.0028
496.0196	-0.0064
496.2188	0.0037
496.418	-0.0123
496.6171	-0.004
496.8162	-0.0072
497.0153	0.006
497.2144	-0.0054
497.4135	0.0008
497.6126	-0.0179
497.8116	-0.0023
498.0107	0.0023
498.2097	-0.0091
498.4087	-0.0101
498.6077	0.0036
498.8067	-0.0128
499.0056	0.0014
499.2046	-0.0044
499.4035	-0.0135
499.6024	-0.0076
499.8013	0.0091
500.0002	-0.0105
500.199	-0.0007
500.3979	-0.011
500.5967	-0.0166
500.7956	-0.0023
500.9944	-0.0097
501.1932	0
501.3919	0.001
501.5907	-0.0073
501.7895	0.0029
501.9882	-0.0071
502.1869	-0.0019
502.3856	-0.009
502.5843	-0.0101
502.783	-0.0108
502.9816	-0.0171
503.1803	-0.0265
503.3789	-0.015
503.5775	0.0097
503.7761	-0.0066
503.9747	-0.0028
504.1732	-0.0068
504.3718	0.0036
504.5703	-0.0046
504.7689	-0.0006
504.9674	0.0038
505.1658	-0.0021
505.3643	-0.0048
505.5628	-0.0061
505.7612	0.001
505.9597	-0.0007
506.1581	0.0019
506.3565	0.0195
506.5549	-0.002
506.7532	-0.0129
506.9516	0.005
507.1499	-0.0004
507.3482	-0.0197
507.5465	-0.0138
507.7448	0.0035
507.9431	-0.0061
508.1414	0.0051
508.3396	-0.0029
508.5379	0.0032
508.7361	-0.0034
508.9343	0.0012
509.1325	-0.0036
509.3306	0.0048
509.5288	-0.0086
509.7269	-0.0028
509.9251	-0.0095
510.1232	-0.0088
510.3213	-0.0038
510.5193	-0.0013
510.7174	-0.0181
510.9154	-0.0122
511.1135	-0.009
511.3115	-0.006
511.5095	-0.0009
511.7075	-0.0036
511.9055	-0.0068
512.1034	-0.0076
512.3014	-0.0084
512.4993	-0.0071
512.6972	-0.004
512.8951	-0.0092
513.093	-0.0044
513.2908	-0.003
513.4887	-0.0042
513.6865	0.0005
513.8844	0.0014
514.0822	-0.0091
514.2799	-0.0169
514.4777	0.0015
514.6755	-0.0025
514.8732	-0.0041
515.0709	-0.0086
515.2687	-0.0064
515.4664	-0.0016
515.664	-0.0053
515.8617	-0.006
516.0594	-0.0192
516.257	-0.0022
516.4546	-0.007
516.6522	0.0073
516.8498	-0.004
517.0474	0.0127
517.2449	0.0012
517.4425	-0.0176
517.64	0.0006
517.8375	0.0024
518.035	-0.0097
518.2325	-0.0093
518.43	-0.008
518.6274	0.0031
518.8249	-0.0097
519.0223	0.0018
519.2197	-0.0141
519.4171	-0.0082
519.6145	-0.01
519.8118	0.0011
520.0092	0.0033
520.2065	-0.0082
520.4038	-0.0197
520.6011	0.001
520.7984	-0.008
520.9956	-0.0051
521.1929	-0.0062
521.3901	0.0067
521.5874	-0.0087
521.7846	-0.0057
521.9818	-0.0015
522.1789	-0.0002
522.3761	-0.0001
522.5732	-0.0082
522.7704	0.0006
522.9675	0.0066
523.1646	-0.0091
523.3617	0.0035
523.5587	-0.0003
523.7558	0.0001
523.9528	0.0019
524.1498	0.0078
524.3468	-0.0054
524.5438	0.004
524.7408	-0.0041
524.9378	0.0029
525.1347	0.0033
525.3316	-0.0064
525.5285	-0.0005
525.7254	-0.0042
525.9223	0.0053
526.1192	-0.0019
526.316	-0.0086
526.5129	0.0074
526.7097	-0.0025
526.9065	0.0058
527.1033	0.0033
527.3	0.0022
527.4968	0.002
527.6935	0.0096
527.8903	-0.016
528.087	-0.0067
528.2837	0.0011
528.4804	-0.0024
528.677	-0.0056
528.8737	0.0059
529.0703	0.0022
529.2669	-0.0028
529.4635	0.0001
529.6601	0.0028
529.8567	-0.006
530.0532	-0.0021
530.2498	0.0082
530.4463	0.0059
530.6428	-0.0008
530.8393	0.0016
531.0358	0.0007
531.2322	-0.0076
531.4287	0.0036
531.6251	-0.0186
531.8215	-0.0031
532.0179	-0.0096
532.2143	0.0019
532.4107	0.0046
532.607	-0.0157
532.8034	-0.0012
532.9997	0.0026
533.196	0.0023
533.3923	-0.0079
533.5886	0.0056
533.7848	0.0025
533.9811	0.0008
534.1773	0.0064
534.3735	0.0112
534.5697	-0.0008
534.7659	-0.0017
534.9621	0.0069
535.1582	-0.0033
535.3544	0.0023
535.5505	0.0004
535.7466	-0.0016
535.9427	-0.0033
536.1387	-0.0027
536.3348	-0.0043
536.5308	0.0097
536.7269	-0.0074
536.9229	-0.0046
537.1189	0.0061
537.3148	-0.0013
537.5108	-0.0079
537.7068	-0.0054
537.9027	-0.0003
538.0986	-0.0025
538.2945	0.0016
538.4904	-0.011
538.6863	-0.0023
538.8821	0.0047
539.078	-0.0015
539.2738	0.0102
539.4696	-0.0075
539.6654	0.0187
539.8611	0.0102
540.0569	0.0059
540.2526	-0.0008
540.4484	0.0029
540.6441	0.0025
540.8398	0.0027
541.0355	0.0007
541.2311	0.0034
541.4268	-0.0062
541.6224	0.0013
541.818	0.0041
542.0136	-0.0064
542.2092	-0.009
542.4048	0.0092
542.6003	-0.0036
542.7959	0.0024
542.9914	0.0011
543.1869	-0.003
543.3824	-0.0008
543.5779	-0.0024
543.7734	-0.0046
543.9688	-0.0093
544.1642	0.008
544.3596	-0.0003
544.555	0.0051
544.7504	0.001
544.9458	-0.002
545.1411	0.0019
545.3365	0.0048
545.5318	-0.003
545.7271	0.0003
545.9224	-0.0026
546.1177	0.0007
546.3129	0.0042
546.5081	0.0021
546.7034	-0.0047
546.8986	-0.0026
547.0938	-0.0046
547.289	-0.005
547.4841	0.0053
547.6793	0.0112
547.8744	-0.0093
548.0695	0.0027
548.2646	-0.0081
548.4597	-0.0063
548.6548	-0.002
548.8498	0.0052
549.0448	0.0052
549.2399	0.0067
549.4349	0.009
549.6298	-0.0029
549.8248	-0.0031
550.0198	-0.0034
550.2147	-0.0051
550.4096	0.0016
550.6045	-0.0031
550.7994	0.0046
550.9943	0.0036
551.1892	-0.0014
551.384	0.0053
551.5788	-0.0053
551.7737	0.0043
551.9685	0.0082
552.1632	-0.0001
552.358	-0.003
552.5528	0.0107
552.7475	-0.0008
552.9422	0.0008
553.1369	-0.0016
553.3316	0.0022
553.5263	-0.0062
553.7209	0.0039
553.9156	-0.0064
554.1102	-0.0064
554.3048	-0.012
554.4994	0.0078
554.694	-0.0006
554.8885	0.0042
555.0831	-0.0078
555.2776	-0.0004
555.4721	-0.0086
555.6666	-0.003
555.8611	0.0087
556.0555	-0.0031
556.25	-0.0014
556.4444	-0.0071
556.6388	0.0046
556.8332	-0.0009
557.0276	0.0041
557.222	-0.0042
557.4163	-0.0024
557.6107	-0.0062
557.805	0.004
557.9993	-0.0047
558.1936	0.0081
558.3879	0.0028
558.5821	0.019
558.7764	-0.0033
558.9706	0.0002
559.1648	0.0171
559.359	-0.0046
559.5532	-0.0018
559.7473	-0.008
559.9415	0.0019
560.1356	-0.002
560.3297	-0.0064
560.5238	-0.0006
560.7179	0.0003
560.9119	-0.0067
561.106	0.0029
561.3	-0.0017
561.494	0.0043
561.688	0.0024
561.882	-0.0111
562.076	-0.0006
562.2699	0.0085
562.4639	0.0013
562.6578	-0.0037
562.8517	0.0054
563.0456	0.0036
563.2395	0.0087
563.4333	0.006
563.6272	0.0072
563.821	-0.0011
564.0148	-0.0009
564.2086	-0.0036
564.4024	-0.0005
564.5961	-0.0041
564.7899	0.0056
564.9836	-0.0021
565.1773	0.0131
565.371	0.0046
565.5647	0.0108
565.7584	0.0065
565.952	0.0002
566.1456	-0.0033
566.3393	0.0038
566.5329	-0.0019
566.7264	0.0082
566.92	-0.0031
567.1136	0.0065
567.3071	-0.0028
567.5006	0.0094
567.6941	0.0102
567.8876	0.0073
568.0811	0.0073
568.2745	0.0045
568.468	0.0071
568.6614	0.0046
568.8548	0.0018
569.0482	0.0006
569.2416	0.0027
569.4349	0.003
569.6283	0.0119
569.8216	0.0024
570.0149	-0.001
570.2082	0.0095
570.4015	0.0099
570.5947	0.0111
570.788	0.0084
570.9812	0.0039
571.1744	-0.0014
571.3676	-0.0001
571.5608	0.0005
571.754	0.0095
571.9471	0.0004
572.1402	0.0044
572.3333	0.0043
572.5264	-0.0098
572.7195	-0.003
572.9126	0.0013
573.1057	-0.0005
573.2987	-0.0017
573.4917	0.0048
573.6847	-0.0045
573.8777	0.0074
574.0707	0.007
574.2636	-0.0073
574.4566	0.0003
574.6495	-0.0001
574.8424	0.0071
575.0353	-0.0069
575.2281	0.0178
575.421	0.0055
575.6138	0.0029
575.8067	-0.0034
575.9995	0.0048
576.1923	-0.0016
576.385	-0.0003
576.5778	-0.0022
576.7706	-0.0005
576.9633	0.0044
577.156	0.0051
577.3487	-0.0003
577.5414	0.0014
577.734	-0.0018
577.9267	0.0004
578.1193	-0.0124
578.3119	0.0025
578.5045	0.0006
578.6971	0.0023
578.8897	0.0048
579.0822	0.0034
579.2747	-0.0001
579.4673	-0.0036
579.6598	0.0036
579.8522	-0.0029
580.0447	0.0024
580.2372	-0.0006
580.4296	0.0088
580.622	-0.007
580.8144	0.0034
581.0068	-0
581.1992	-0.009
581.3915	-0.0054
581.5839	-0.0069
581.7762	-0.0124
581.9685	0.0034
582.1608	0.0063
582.353	-0.003
582.5453	0.0009
582.7375	0.0018
582.9298	0.0012
583.122	-0.0021
583.3142	-0.0037
583.5063	0.0029
583.6985	-0.0027
583.8906	-0.0019
584.0827	-0.0076
584.2749	0.0043
584.4669	0.0046
584.659	0.0025
584.8511	-0.0029
585.0431	0.0021
585.2352	0.0014
585.4272	0.0024
585.6192	-0
585.8111	0.0045
586.0031	-0.0015
586.195	0.007
586.387	0.0087
586.5789	-0.0025
586.7708	0.0095
586.9627	-0.0015
587.1545	-0.011
587.3464	0.0064
587.5382	0.0005
587.73	0.0006
587.9218	0.01
588.1136	0.0025
588.3053	0.0044
588.4971	0.002
588.6888	-0.0028
588.8805	0.0068
589.0722	0.0063
589.2639	0.0038
589.4556	0.0019
589.6472	0.0006
589.8389	-0.0079
590.0305	-0.0077
590.2221	0.0007
590.4137	-0.0071
590.6052	0.0051
590.7968	-0.001
590.9883	-0.0027
591.1798	-0.0006
591.3713	0.0025
591.5628	0.0047
591.7543	0.0001
591.9458	-0.0018
592.1372	0.0048
592.3286	0.0069
592.52	0.0079
592.7114	-0.0015
592.9028	-0.0034
593.0941	-0.0013
593.2855	-0.0002
593.4768	-0.005
593.6681	-0.0002
593.8594	-0.0045
594.0506	0.0004
594.2419	0.0112
594.4331	0.0035
594.6244	0.0051
594.8156	0.0011
595.0067	0.0027
595.1979	0.0044
595.3891	0.0009
595.5802	-0.0046
595.7713	0.002
595.9624	0.0058
596.1535	0.0086
596.3446	-0.0024
596.5357	0.008
596.7267	0.0103
596.9177	0.0017
597.1087	-0.0017
597.2997	0.0028
597.4907	0.0065
597.6817	-0.002
597.8726	0.0048
598.0635	-0.0016
598.2544	0
598.4453	-0.0033
598.6362	0.0013
598.827	0.0001
599.0179	0.0064
599.2087	0.0021
599.3995	0.005
599.5903	0.0011
599.7811	0.0033
599.9718	0.0052
600.1626	-0.0069
600.3533	-0.0028
600.544	0.0023
600.7347	-0.0004
600.9254	0.0029
601.116	-0.01
601.3067	-0.0011
601.4973	-0.0024
601.6879	0.0085
601.8785	-0.0012
602.0691	0.0031
602.2596	0.0032
602.4502	0.0052
602.6407	0.0091
602.8312	0.0014
603.0217	-0.0006
603.2122	0.005
603.4027	0.0047
603.5931	-0.0038
603.7835	-0.0009
603.9739	0.0019
604.1643	-0.0011
604.3547	0.0025
604.5451	0.0041
604.7354	0.0007
604.9257	-0.0033
605.116	-0.0047
605.3063	0.0008
605.4966	0.0054
605.6869	0.0008
605.8771	0.006
606.0673	0.0066
606.2575	0.0081
606.4477	0.0067
606.6379	0.006
606.8281	-0.003
607.0182	0.0013
607.2083	0.0081
607.3985	0.0031
607.5885	0.005
607.7786	0.0033
607.9687	-0.001
608.1587	0.0083
608.3488	-0.0006
608.5388	0.0056
608.7288	0.0015
608.9187	-0.0034
609.1087	-0.0053
609.2986	-0.0027
609.4886	0.0008
609.6785	0.0051
609.8684	0.0031
610.0582	0.0024
610.2481	0.0114
610.4379	0.0063
610.6278	0.0027
610.8176	0.0012
611.0074	0.0024
611.1971	-0.0002
611.3869	-0.0006
611.5766	-0.0022
611.7664	0.0107
611.9561	0.0088
612.1458	0.0075
612.3354	0.0021
612.5251	0.0016
612.7147	0.0114
612.9044	0.0119
613.094	-0.0026
613.2836	0.0034
613.4731	0.0028
613.6627	-0.0018
613.8522	0.0054
614.0417	0.0027
614.2313	-0.0059
614.4207	-0.0037
614.6102	-0.0015
614.7997	0.0001
614.9891	-0.0015
615.1785	0.0026
615.3679	0.0001
615.5573	0.0106
615.7467	0.0006
615.9361	0.001
616.1254	0.0033
616.3147	0.0009
616.504	0.0124
616.6933	0.0095
616.8826	0.0095
617.0718	0.0049
617.2611	0.0105
617.4503	0.0051
617.6395	0.0061
617.8287	0.0053
618.0179	0.0066
618.207	0.0092
618.3961	0.0081
618.5853	0.0056
618.7744	0.0072
618.9634	0.0059
619.1525	0.0067
619.3416	0.0092
619.5306	0.007
619.7196	0.0073
619.9086	-0.0043
620.0976	0.0107
620.2866	0.001
620.4755	0.0022
620.6645	0.0045
620.8534	0.0064
621.0423	0.0073
621.2312	0.0126
621.42	0.0092
621.6089	0.0044
621.7977	0.0088
621.9865	0.0051
622.1753	0.0119
622.3641	0.0044
622.5529	0.013
622.7416	0.0119
622.9303	-0.0021
623.1191	0.0096
623.3078	-0.0032
623.4964	0.007
623.6851	-0.0002
623.8737	0.0064
624.0624	0.0102
624.251	0.0063
624.4396	0.003
624.6282	-0.0039
624.8167	-0.0003
625.0053	0.0075
625.1938	0.0048
625.3823	0.0018
625.5708	0.001
625.7593	-0.0008
625.9477	0.0016
626.1362	-0.0059
626.3246	0.0058
626.513	0.0066
626.7014	0.0146
626.8898	0.0093
627.0781	0.0042
627.2665	-0.0017
627.4548	0.0105
627.6431	0.0075
627.8314	0.0094
628.0197	0.0127
628.2079	-0.0002
628.3962	-0.0009
628.5844	0.0024
628.7726	0.0056
628.9608	0.005
629.1489	0.0087
629.3371	0.0061
629.5252	0.0037
629.7134	0.0137
629.9015	-0.0072
630.0895	-0.0007
630.2776	0.0076
630.4657	0
630.6537	0.001
630.8417	0.0076
631.0297	-0.0018
631.2177	0.0023
631.4057	-0.0039
631.5936	-0.0007
631.7815	0.0103
631.9695	0.0034
632.1574	0.0072
632.3452	0.0171
632.5331	0.0063
632.7209	0.0026
632.9088	0.0098
633.0966	0.0131
633.2844	0.0015
633.4722	0.0053
633.6599	0.0103
633.8477	0.0114
634.0354	0.0074
634.2231	0.003
634.4108	0.0079
634.5985	0.007
634.7861	0.0005
634.9738	0.0078
635.1614	0.0043
635.349	0.0089
635.5366	0.0001
635.7242	-0.0008
635.9117	0.0081
636.0993	0.0043
636.2868	0.0139
636.4743	0.002
636.6618	0.0134
636.8492	0.0166
637.0367	0.0105
637.2241	0.0044
637.4115	0.0002
637.5989	0.0007
637.7863	0.0051
637.9737	0.0058
638.161	0.0081
638.3484	0.0005
638.5357	0.003
638.723	0.0066
638.9103	0.0123
639.0975	0.0121
639.2848	0.0075
639.472	0.0042
639.6592	0.0078
639.8464	0.0057
640.0336	0.0073
640.2208	0.0009
640.4079	-0.0044
640.595	0.0063
640.7821	0.0062
640.9692	0.0045
641.1563	0.0156
641.3434	0.0053
641.5304	0.004
641.7174	0.0076
641.9044	0.0038
642.0914	0.0079
642.2784	0.0108
642.4653	0.0067
642.6523	0.0081
642.8392	0.0053
643.0261	0.0055
643.213	0.0009
643.3999	0.0041
643.5867	0.0002
643.7735	0.005
643.9604	0.0024
644.1472	0.0081
644.3339	0.0137
644.5207	0.0086
644.7075	0.007
644.8942	0.0181
645.0809	0.0115
645.2676	0.0124
645.4543	0.0073
645.6409	0.0072
645.8276	0.0047
646.0142	0.0074
646.2008	-0.0035
646.3874	0.0025
646.574	-0.002
646.7605	-0.0032
646.9471	-0.0074
647.1336	-0.0032
647.3201	-0.0014
647.5066	-0.0012
647.6931	0.0056
647.8795	0.0046
648.0659	0.0055
648.2524	0.01
648.4388	-0.0049
648.6252	-0.0005
648.8115	-0.0013
648.9979	-0.0037
649.1842	0.0029
649.3705	0.0047
649.5568	0.0084
649.7431	0.0033
649.9294	0.0016
650.1156	0.0098
650.3018	-0.0015
650.488	0.0033
650.6742	0.01
650.8604	0.0015
651.0466	0.0009
651.2327	0.0076
651.4188	0.0086
651.6049	0.0022
651.791	0.0047
651.9771	0.0096
652.1632	0.0087
652.3492	0.0049
652.5352	0.0048
652.7212	0.0002
652.9072	0.0112
653.0932	0.005
653.2791	-0.0027
653.465	-0.0008
653.651	0.0025
653.8369	0.0013
654.0227	0.0026
654.2086	0.0096
654.3944	0.0102
654.5803	0.007
654.7661	0.0037
654.9519	0.0088
655.1377	-0.0019
655.3234	0.0008
655.5092	-0.0018
655.6949	-0.006
655.8806	-0.0012
656.0663	-0.004
656.2519	-0.0011
656.4376	-0.0032
656.6232	0.0037
656.8088	0.0008
656.9945	-0.0002
657.18	0.0026
657.3656	0.0066
657.5511	0.0023
657.7367	0.0033
657.9222	0.0043
658.1077	0.0062
658.2932	0.0059
658.4786	0.0026
658.6641	-0.0032
658.8495	-0.0011
659.0349	-0.0058
659.2203	0.0058
659.4057	0.0102
659.591	0.0049
659.7764	0.0055
659.9617	0.0075
660.147	0.0064
660.3323	0.0044
660.5176	0.0115
660.7028	0.01
660.888	0.008
661.0733	0.0096
661.2585	0.0002
661.4436	-0.0054
661.6288	-0.0063
661.8139	0.0042
661.9991	0.0018
662.1842	-0.0009
662.3693	0.0085
662.5544	-0.0049
662.7394	0.0052
662.9245	-0.0011
663.1095	-0.001
663.2945	0.0056
663.4795	-0.0011
663.6644	0.0064
663.8494	-0.0056
664.0343	-0.0021
664.2193	-0.0009
664.4042	0.0099
664.589	-0.003
664.7739	-0.004
664.9587	-0.0061
665.1436	0.008
665.3284	0.0053
665.5132	-0.003
665.698	0.0012
665.8827	0.0135
666.0675	0.0023
666.2522	0.0002
666.4369	-0.0002
666.6216	0.0087
666.8063	0.0025
666.9909	0.0072
667.1756	0.0005
667.3602	0.001
667.5448	-0.0012
667.7294	0.0165
667.9139	0.0102
668.0985	0.0157
668.283	0.0031
668.4675	0.0011
668.652	0.0065
668.8365	0.0028
669.0209	0.0152
669.2054	0.0128
669.3898	0.0125
669.5742	0.0115
669.7586	0.0124
669.943	0.013
670.1273	0.0123
670.3117	0.0128
670.496	0.0133
670.6803	0.0142
670.8646	0.0079
671.0488	0.0014
671.2331	0.0031
671.4173	-0.0001
671.6015	0.0072
671.7857	0.0075
671.9699	0.0082
672.1541	0.0083
672.3382	0.0065
672.5223	0.0025
672.7064	-0.0002
672.8905	0.0128
673.0746	0.0074
673.2587	0.0069
673.4427	0.0094
673.6267	0.0118
673.8107	0.0074
673.9947	0.0029
674.1787	0.0059
674.3626	-0.0011
674.5465	0.0076
674.7304	0.0045
674.9143	0.0072
675.0982	0.0039
675.2821	-0.0002
675.4659	0.0144
675.6497	0.0085
675.8335	0.0024
676.0173	-0.0004
676.2011	0.002
676.3849	0.0017
676.5686	-0.0017
676.7523	0.0079
676.936	-0.0029
677.1197	0.0001
677.3034	-0.0056
677.487	0.0108
677.6706	0.0052
677.8542	0.0053
678.0378	0.0037
678.2214	0.0014
678.405	0.0102
678.5885	-0.0008
678.772	0.0122
678.9555	0.0015
679.139	-0.0036
679.3225	0.002
679.5059	0.0083
679.6894	0.0068
679.8728	-0.0002
680.0562	-0.0073
680.2395	-0.0025
680.4229	-0.0072
680.6062	0.0119
680.7896	0.0045
680.9729	-0.0103
681.1562	0.003
681.3394	0.005
681.5227	-0.0037
681.7059	0.0027
681.8891	0.0048
682.0723	0.0086
682.2555	0.0117
682.4387	-0.0025
682.6218	-0.0019
682.805	0.0139
682.9881	0.0057
683.1712	-0.0039
683.3542	-0.0021
683.5373	0.0145
683.7203	-0.0018
683.9034	0.0027
684.0864	-0.0008
684.2694	0.0046
684.4523	0.0009
684.6353	-0.0066
684.8182	0.0098
685.0011	-0.002
685.184	0.0015
685.3669	-0.0005
685.5498	0.002
685.7326	0.004
685.9154	-0.0016
686.0982	0.0159
686.281	0.0046
686.4638	0.0037
686.6465	0.0096
686.8293	0.0035
687.012	0.0055
687.1947	-0.0074
687.3774	0.011
687.56	0.004
687.7427	0.0033
687.9253	-0.0048
688.1079	0.0026
688.2905	0.013
688.4731	0.0033
688.6556	0.0051
688.8382	0.0009
689.0207	0.0047
689.2032	-0.0056
689.3857	-0.0077
689.5681	-0.0036
689.7506	-0.0036
689.933	-0.0136
690.1154	-0.0095
690.2978	-0.002
690.4802	-0.0001
690.6626	-0.0139
690.8449	-0.0116
691.0272	-0.0001
691.2095	-0.0002
691.3918	0.0004
691.5741	0.0059
691.7563	0.0044
691.9386	0.0064
692.1208	0.0001
692.303	0.0055
692.4852	-0.0002
692.6673	0.0069
692.8495	-0.0022
693.0316	0.0096
693.2137	0.0002
693.3958	0.0017
693.5778	0.0026
693.7599	0.0108
693.9419	-0.0055
694.1239	0.0046
694.3059	-0.0062
694.4879	0.005
694.6699	0.0077
694.8518	0.0065
695.0337	0.0019
695.2157	0.0069
695.3975	0.0085
695.5794	0.0106
695.7613	0.004
695.9431	0.0106
696.1249	0.0133
696.3067	0.0112
696.4885	0.0125
696.6703	-0.0054
696.852	0.012
697.0337	0.0036
697.2154	0.002
697.3971	0.0045
697.5788	0.0071
697.7605	-0.0002
697.9421	0.0053
698.1237	-0.0013
698.3053	0.005
698.4869	0.0072
698.6685	-0.003
698.85	-0.0048
699.0315	0.0136
699.213	0.0013
699.3945	0.007
699.576	0.0047
699.7575	0.0093
699.9389	0.0086
700.1203	0.0055
700.3017	-0.0028
700.4831	0.0061
700.6645	0.0064
700.8458	0.0094
701.0271	0.0093
701.2084	0.009
701.3897	0.0034
701.571	0.0099
701.7523	-0.0019
701.9335	0.0004
702.1147	0.0033
702.2959	0.0097
702.4771	0.0066
702.6583	0.0055
702.8394	-0.0012
703.0205	0.008
703.2016	-0.0023
703.3827	0.0124
703.5638	0.0057
703.7449	-0.0042
703.9259	0.0076
704.1069	-0.001
704.2879	0.0073
704.4689	0.0123
704.6499	0.0063
704.8308	0.0055
705.0117	0.0011
705.1927	0.0094
705.3735	-0.0032
705.5544	-0.0095
705.7353	-0.0016
705.9161	-0.0041
706.0969	-0.0005
706.2777	0.0064
706.4585	0.001
706.6393	0.0035
706.82	0.0049
707.0007	-0.0037
707.1815	0.0051
707.3621	0.008
707.5428	0.0032
707.7235	-0.0058
707.9041	0.0038
708.0847	-0.0119
708.2653	-0.0078
708.4459	-0.0095
708.6265	-0.0037
708.807	-0.0026
708.9875	-0.0065
709.168	0.0013
709.3485	-0.0101
709.529	-0.0029
709.7095	-0.0125
709.8899	0.0048
710.0703	-0.0066
710.2507	0.0043
710.4311	-0.0043
710.6115	-0.008
710.7918	-0.0069
710.9721	-0.0019
711.1524	-0.0064
711.3327	-0.0021
711.513	-0.0031
711.6932	0.0009
711.8735	0.0104
712.0537	0.0043
712.2339	-0.0005
712.4141	-0.0061
712.5942	0.0048
712.7744	0.0007
712.9545	-0.0039
713.1346	-0.0025
713.3147	-0.0059
713.4947	-0.0036
713.6748	-0.0028
713.8548	-0.0016
714.0348	-0.0019
714.2148	0.0024
714.3948	0.0102
714.5748	0.0049
714.7547	-0.0027
714.9346	0.0102
715.1145	0.0008
715.2944	-0.0002
715.4743	0.0001
715.6541	0.0026
715.834	0.0046
716.0138	-0.0021
716.1936	-0.0128
716.3733	0.0015
716.5531	0.0022
716.7328	-0.0057
716.9126	-0.0017
717.0923	0.0024
717.2719	-0.0027
717.4516	0.0016
717.6312	0.0049
717.8109	-0.0147
717.9905	0.0002
718.1701	-0.004
718.3496	-0.0108
718.5292	-0.0107
718.7087	0.0004
718.8882	-0.0008
719.0677	0.0022
719.2472	0.0027
719.4267	0.0034
719.6061	0.0017
719.7856	0.0076
719.965	0.0143
720.1443	-0.0039
720.3237	0.0056
720.5031	0.0031
720.6824	0.009
720.8617	0.0046
721.041	0.001
721.2203	0.0129
721.3995	-0.0016
721.5788	0.0013
721.758	0.0079
721.9372	0.0091
722.1164	0.0013
722.2956	0.013
722.4747	0.0008
722.6538	0.007
722.8329	0.0082
723.012	-0.0014
723.1911	0.0016
723.3702	0.0011
723.5492	0.0036
723.7282	-0.0069
723.9072	-0.0018
724.0862	0.0008
724.2652	-0.0071
724.4441	0.003
724.623	0.0019
724.8019	-0.0043
724.9808	0.0088
725.1597	-0.0038
725.3385	0.0115
725.5174	0.0032
725.6962	-0.0016
725.875	0.0062
726.0538	0.0031
726.2325	-0.0029
726.4112	0.0036
726.59	-0.0015
726.7687	-0.0022
726.9474	0.0026
727.126	0.001
727.3047	-0.0006
727.4833	0.0026
727.6619	-0.0076
727.8405	-0.003
728.0191	-0.0111
728.1976	0.0078
728.3762	-0.0019
728.5547	0.0069
728.7332	-0.0113
728.9116	0.0055
729.0901	0.0045
729.2686	-0.0096
729.447	-0.0004
729.6254	0.0053
729.8038	0.0005
729.9821	-0.0083
730.1605	0.0079
730.3388	0.0021
730.5171	0.0099
730.6954	0.0092
730.8737	0.006
731.0519	0.0151
731.2302	0.0092
731.4084	0.0135
731.5866	0.0095
731.7648	0.0022
731.9429	0.0099
732.1211	-0.0085
732.2992	0.0021
732.4773	-0.0014
732.6554	-0.0103
732.8335	0.0043
733.0115	-0.0034
733.1896	0.0036
733.3676	-0.002
733.5456	0.0112
733.7235	0.0085
733.9015	0.0071
734.0794	0.0057
734.2574	-0.0026
734.4353	-0.0037
734.6131	0.0035
734.791	0.004
734.9689	0.0037
735.1467	0.0056
735.3245	-0.0042
735.5023	-0.004
735.68	0.003
735.8578	0.0013
736.0355	-0.011
736.2132	0.0042
736.3909	-0.0037
736.5686	-0.0082
736.7463	0.0055
736.9239	0.0002
737.1015	-0.0064
737.2791	0.0138
737.4567	0.0095
737.6343	0.0042
737.8118	0.0065
737.9894	0.0063
738.1669	-0.0039
738.3444	0.0046
738.5218	0.0049
738.6993	-0.0017
738.8767	-0.0051
739.0541	0.011
739.2315	-0.0077
739.4089	0.0002
739.5863	0.0029
739.7636	-0.0084
739.9409	-0.0026
740.1182	0.0056
740.2955	0.0059
740.4728	0.0038
740.65	0.0035
740.8272	0.0005
741.0044	-0.0031
741.1816	0.0025
741.3588	0.0044
741.5359	0.0069
741.7131	-0.0071
741.8902	0.0049
742.0673	0.0029
742.2444	-0.0055
742.4214	-0.0058
742.5985	-0.0083
742.7755	-0.0038
742.9525	-0.0188
743.1295	0.0075
743.3064	0.0021
743.4834	0.0083
743.6603	0.0062
743.8372	0.0047
744.0141	0.0173
744.191	0.0007
744.3678	-0.0038
744.5446	0.0093
744.7215	0.0133
744.8982	0.0055
745.075	-0.0093
745.2518	0.0144
745.4285	0.0011
745.6052	0.0093
745.7819	0.0007
745.9586	0.0005
746.1353	0.0027
746.3119	0.0005
746.4885	-0.0004
746.6651	-0.0012
746.8417	0.0049
747.0183	0.0059
747.1948	-0.0022
747.3714	0.0021
747.5479	0.0007
747.7244	-0.0005
747.9008	0.0099
748.0773	0.0067
748.2537	0.0042
748.4301	-0.0053
748.6065	0.0182
748.7829	0.0065
748.9593	-0.005
749.1356	0.0078
749.3119	0.0055
749.4882	-0.0032
749.6645	0.0101
749.8408	-0.0093
750.017	-0.001
750.1933	0.0053
750.3695	-0.0032
750.5457	0.0065
750.7218	-0.0075
750.898	0.0071
751.0741	-0.0006
751.2502	0.0034
751.4263	0.0021
751.6024	-0.0018
751.7784	0.0024
751.9545	0.013
752.1305	0.0006
752.3065	-0.0128
752.4825	0.0045
752.6584	-0.0124
752.8344	0.0006
753.0103	-0.0086
753.1862	-0.0058
753.3621	0.0024
753.5379	-0.0011
753.7138	0.0076
753.8896	-0.0041
754.0654	0.008
754.2412	-0.0012
754.417	0.0097
754.5927	0.0016
754.7685	0.0057
754.9442	-0.0006
755.1199	0.0085
755.2956	-0.0023
755.4712	0.0103
755.6469	0.0072
755.8225	0.0065
755.9981	-0.0041
756.1736	0.0136
756.3492	0.0022
756.5248	0.007
756.7003	0.0058
756.8758	0.0135
757.0513	0.0019
757.2267	0.0094
757.4022	0.0074
757.5776	-0.0035
757.753	0.012
757.9284	0.0119
758.1038	0.014
758.2791	0.0107
758.4545	-0.0055
758.6298	0.0026
758.8051	0.0067
758.9803	-0.0032
759.1556	-0.0013
759.3308	0.0001
759.506	0.0105
759.6812	0.0085
759.8564	0.0092
760.0316	-0.0004
760.2067	0.0159
760.3819	0.0101
760.557	0.0195
760.732	0.0016
760.9071	-0.007
761.0821	0.0087
761.2572	0.0113
761.4322	-0.0037
761.6072	0.0025
761.7821	-0.0017
761.9571	0.0031
762.132	0.0013
762.3069	0.003
762.4818	-0.003
762.6567	-0.0015
762.8316	0.0024
763.0064	-0.004
763.1812	0.0041
763.356	-0.0133
763.5308	0
763.7055	0.0006
763.8803	-0.0041
764.055	-0.0012
764.2297	-0.0044
764.4044	-0.0057
764.579	-0.0079
764.7537	-0.0092
764.9283	0.0048
765.1029	-0.007
765.2775	-0.0069
765.4521	0.0036
765.6266	-0.0086
765.8011	-0.0118
765.9756	0.006
766.1501	0.0121
766.3246	0.0007
766.4991	-0.0045
766.6735	0.0061
766.8479	-0.0059
767.0223	0.0112
767.1967	0.0032
767.371	-0.0013
767.5454	0.0045
767.7197	0.0074
767.894	0.0045
768.0683	-0.0058
768.2425	0.0006
768.4168	0.0061
768.591	0.0063
768.7652	0.0069
768.9394	0.0039
769.1135	-0.0008
769.2877	0.0138
769.4618	0.0075
769.6359	-0.0005
769.81	0.0042
769.984	0.0058
770.1581	-0.0023
770.3321	-0.0015
770.5061	-0.0023
770.6801	-0.008
770.8541	-0.0061
771.028	0.002
771.202	-0.0079
771.3759	0.0067
771.5498	-0.0109
771.7236	0.0024
771.8975	0.0054
772.0713	-0.0036
772.2451	0.0121
772.4189	0.0074
772.5927	0.0284
772.7665	-0.0012
772.9402	0.0011
773.1139	0.005
773.2876	0.0073
773.4613	0.0159
773.635	0.0119
773.8086	-0.0186
773.9822	0.0019
774.1558	0.0037
774.3294	-0.0093
774.503	0.0019
774.6765	0.0046
774.8501	0.0005
775.0236	0.0092
775.1971	0.0146
775.3705	-0.0102
775.544	0.0096
775.7174	-0.0015
775.8908	0.0048
776.0642	0.004
776.2376	0.0068
776.4109	0.004
776.5843	-0.0029
776.7576	0.011
776.9309	0.0135
777.1041	0.0128
777.2774	0.0105
777.4506	0.0027
777.6238	-0.008
777.797	0.0015
777.9702	-0.0002
778.1434	-0.0022
778.3165	0.0004
778.4896	-0.0106
778.6627	0.0105
778.8358	0.0026
779.0089	-0.0016
779.1819	-0.0049
779.3549	0.007
779.5279	0.0067
779.7009	0.0053
779.8739	0.0066
780.0468	-0.0016
780.2197	0.0137
780.3926	0.0032
780.5655	-0.0008
780.7384	-0.0078
780.9112	0.011
781.0841	-0.0038
781.2569	0.0133
781.4297	0.0083
781.6024	0.0115
781.7752	0.0138
781.9479	0.0083
782.1206	0.0045
782.2933	-0.0064
782.466	0.0056
782.6386	0.0089
782.8113	0.0025
782.9839	0.0013
783.1565	0.018
783.329	0.0075
783.5016	0.002
783.6741	0.0053
783.8466	0.0068
784.0191	0.0174
784.1916	-0.0037
784.3641	-0.0094
784.5365	0.0079
784.7089	-0.0029
784.8813	-0.0118
785.0537	0.0043
785.2261	-0.0048
785.3984	-0.0068
785.5707	-0.011
785.743	0.0091
785.9153	-0.0045
786.0876	-0.0032
786.2598	-0.004
786.432	-0.0083
786.6042	0.0013
786.7764	-0.0133
786.9486	-0.0018
787.1207	-0.0118
787.2928	0.0034
787.4649	0.0143
787.637	0.0062
787.8091	-0.0107
787.9811	-0.0096
788.1532	-0.0048
788.3252	-0.0096
788.4972	-0.0074
788.6691	0.0122
788.8411	0.0096
789.013	-0.0147
789.1849	0.0048
789.3568	0.0041
789.5287	-0.0036
789.7005	0.0067
789.8723	-0.0031
790.0442	0.016
790.2159	-0.0052
790.3877	-0.0036
790.5595	-0.0146
790.7312	-0.0022
790.9029	-0.0081
791.0746	-0.02
791.2463	-0.0064
791.4179	-0.0069
791.5896	-0.0079
791.7612	0.0008
791.9328	-0.0007
792.1044	-0.0038
792.2759	-0.0192
792.4474	-0.0025
792.619	0.0019
792.7905	-0.0038
792.9619	0.0036
793.1334	0.0128
793.3048	-0.0009
793.4762	0.0078
793.6476	0.0043
793.819	0.0058
793.9904	0.0043
794.1617	-0.0204
794.333	0.0002
794.5043	-0.0214
794.6756	-0.0067
794.8469	-0.0147
795.0181	0.001
795.1893	-0.0026
795.3605	0.0041
795.5317	-0.0063
795.7029	-0.0047
795.874	-0.0109
796.0452	-0.001
796.2163	-0.001
796.3873	0.0172
796.5584	0.0004
796.7294	-0.0058
796.9005	0.0064
797.0715	0.0146
797.2425	-0.0151
797.4134	-0.0204
797.5844	0.0006
797.7553	-0.0074
797.9262	0.0041
798.0971	-0.0048
798.2679	0.0015
798.4388	-0.0257
798.6096	-0.0011
798.7804	0.0004
798.9512	0.0081
799.122	-0.0037
799.2927	0.0162
799.4635	0.0224
799.6342	-0.0068
799.8049	0.0049
799.9755	-0.0056
800.1462	0.0088
800.3168	0.0168
800.4874	0.0078
800.658	0.0165
800.8286	0.0169
800.9991	0.0102
801.1696	0.0103
801.3402	0.0062
801.5106	0.0156
801.6811	-0.0082
801.8516	0.0225
802.022	0.004
802.1924	0.0096
802.3628	0.0122
802.5332	0.0212
802.7035	0.0104
802.8739	0.0058
803.0442	0.0048
803.2145	0.0124
803.3847	-0.0158
803.555	0.0239
803.7252	-0.0097
803.8954	-0.0028
804.0656	-0.0037
804.2358	-0.003
804.4059	0.015
804.5761	0.0077
804.7462	0.0205
804.9163	-0.001
805.0864	-0.0132
805.2564	0.005
805.4264	-0.0019
805.5965	-0.0112
805.7665	0.0138
805.9364	0.0057
806.1064	0.0241
806.2763	0.0046
806.4462	0.0225
806.6161	0.0059
806.786	0.0242
806.9559	-0.0109
807.1257	0.001
807.2955	0.0078
807.4653	0.0017
807.6351	-0.0061
807.8048	-0.0117
807.9746	0.0154
808.1443	0.0222
808.314	0.0066
808.4837	-0.0051
808.6533	0.02
808.8229	0.0388
808.9926	0.0229
809.1622	0.0244
809.3317	-0.0039
809.5013	0.0163
809.6708	0.0142
809.8403	0.0255
810.0098	0.0013
810.1793	0.0124
810.3488	-0.0034
810.5182	-0.0088
810.6876	0.0144
810.857	-0.01
811.0264	0.0273
811.1958	0.0102
811.3651	0.0169
811.5344	0.0081
811.7037	-0.0154
811.873	-0.0119
812.0422	0.0046
812.2115	-0.0024
812.3807	-0.0014
812.5499	0.0066
812.7191	-0.0013
812.8882	0.0012
813.0574	0.0048
813.2265	0.0042
813.3956	0.0003
813.5646	0.0144
813.7337	-0.0125
813.9027	0.0072
814.0718	0.0171
814.2407	0.0148
814.4097	0.0105
814.5787	-0.0145
814.7476	-0.0144
814.9165	0.0001
815.0854	0.0072
815.2543	0.0106
815.4232	-0.0107
815.592	0.0223
815.7608	0.0213
815.9296	0.0187
816.0984	0.0069
816.2671	0.0157
816.4359	0.0133
816.6046	0.0089
816.7733	0.0062
816.942	-0.0065
817.1106	0.0147
817.2793	0.0302
817.4479	-0.0078
817.6165	-0.0018
817.785	0.0158
817.9536	-0.0138
818.1221	-0.0057
818.2906	0.0141
818.4591	-0.0074
818.6276	0.0028
818.7961	0.0176
818.9645	0.0257
819.1329	0.0092
819.3013	0.048
819.4697	0.0213
819.638	0.028
819.8064	0.0293
819.9747	0.0096
820.143	0.0147
820.3113	0.0179
820.4795	0.0453
820.6477	0.0137
820.816	0.0234
820.9842	0.0015
821.1523	-0.0042
821.3205	0.0069
821.4886	0.022
821.6567	0.0073
821.8248	0.0195
821.9929	0.0319
822.1609	0.0073
822.329	0.0187
822.497	0.0136
822.665	-0.0027
822.833	-0.0412
823.0009	-0.0025
823.1688	0.0189
823.3367	0.0201
823.5046	0.0253
823.6725	0.0262
823.8404	0.0137
824.0082	0.0185
824.176	-0.0003
824.3438	0.0314
824.5116	-0.0098
824.6793	0.0101
824.847	0.0204
825.0147	-0.0062
825.1824	0.0299
825.3501	0.0402
825.5177	-0.0056
825.6854	0.0181
825.853	-0.0016
826.0206	-0.0114
826.1881	-0.0126
826.3557	-0.0143
826.5232	0.0027
826.6907	-0.0476
826.8582	0.0162
827.0257	-0.0099
827.1931	-0.015
827.3605	-0.011
827.528	0.0039
827.6953	-0.0266
827.8627	0.0356
828.03	0.0525
828.1974	-0.0032
828.3647	-0.0495
828.532	0.0066
828.6992	0.0152
828.8665	0.0212
829.0337	0.0187
829.2009	0.036
829.3681	0.0084
829.5352	0.0039
829.7024	-0.0025
829.8695	0.0046
830.0366	0.0688
830.2037	-0.0119
830.3707	0.0178
830.5378	-0.0099
830.7048	0.0335
830.8718	0.0514
831.0388	-0.0206
831.2057	0.0271
831.3727	0.0348
831.5396	0.0053
831.7065	-0.0123
831.8734	0.0252
832.0402	-0.0093
832.2071	0.056
832.3739	0.0123
832.5407	-0.0276
832.7075	-0.0023
832.8742	-0.0518
833.041	-0.0194
833.2077	-0.0113
833.3744	0.0226
833.541	0.0105
833.7077	-0.0152
833.8743	-0.0024
834.0409	0.0214
834.2075	-0.0099
834.3741	-0.0285
834.5407	-0.0142
834.7072	-0.0167
834.8737	0.0171
835.0402	-0.0493
835.2067	0.0372
835.3731	0.0136
835.5395	0.0293
835.706	-0.0024
835.8723	-0.0084
836.0387	0.0223
836.2051	-0.0155
836.3714	0.0183
836.5377	0.0106
836.704	0.0184
836.8703	0.0064
837.0365	-0.0013
837.2027	-0.0073
837.3689	0.0198
837.5351	0.0186
837.7013	-0.0181
837.8674	-0.0571
838.0335	-0.004
838.1997	0.0018
838.3657	0.0002
838.5318	-0.0428
838.6978	0.0912
838.8639	0.0632
839.0299	-0.0015
839.1958	-0.0037
839.3618	0.0054
839.5277	-0.0141
839.6937	0.0556
839.8596	-0.0034
840.0254	0.0355
840.1913	0.0119
840.3571	0.0673
840.523	0.0543
840.6888	0.0395
840.8545	-0.0036
841.0203	0.002
841.186	0.0204
841.3517	0.0586
841.5174	0.0329
841.6831	0.0117
841.8488	-0.0007
842.0144	0.0161
842.18	-0.0154
842.3456	0.0283
842.5112	-0.0215
842.6767	-0.0046
842.8422	-0.0444
843.0077	0.0345
843.1732	0.0367
843.3387	-0.0755
843.5042	-0.0535
843.6696	-0.0033
843.835	0.0068
844.0004	0.0431
844.1657	0.0135
844.3311	-0.0212
844.4964	-0.0653
844.6617	0.0326
844.827	-0.0201
844.9923	-0.0712
845.1575	0.0602
845.3227	0.0623
845.4879	0.0105
845.6531	-0.043
845.8183	-0.0165
845.9834	-0.018
846.1485	-0.0251
846.3136	-0.0545
846.4787	-0.0468
846.6438	0.0312
846.8088	-0.0609
846.9738	-0.0815
847.1388	0.0265
847.3038	0.0383
847.4687	-0.0499
847.6337	-0.0048
847.7986	0.0152
847.9635	0.0705
848.1284	0.1317
848.2932	0.0744
848.458	0.0004
848.6228	0.0945
848.7876	0.1047
848.9524	-0.0651
849.1172	-0.0823
849.2819	0.0352
849.4466	-0.0877
849.6113	-0.1282
849.7759	0.0316
849.9406	0.0215
850.1052	-0.0048
850.2698	-0.079
850.4344	0.0662
850.599	0.0454
850.7635	0.1336
850.928	-0.067
851.0925	0.0102
851.257	0.0279
851.4215	0.0284
851.5859	-0.1025
851.7503	0.0811
851.9147	-0.0094
852.0791	0.0078
852.2434	-0.0342
852.4078	0.1156
852.5721	0.0069
852.7364	-0.0116
852.9007	-0.1574
853.0649	-0.015
853.2291	-0.0811
853.3934	-0.0219
853.5575	0.1124
853.7217	0.0352
853.8859	-0.0741
854.05	-0.0768
854.2141	-0.0968
854.3782	-0.0021
854.5423	-0.0172
854.7063	0.0849
854.8703	-0.0364
855.0343	0.1154
855.1983	-0.0975
855.3623	0.02
855.5262	0.0888
855.6901	-0.0478
855.854	-0.0117
856.0179	0.1345
856.1818	0.0247
856.3456	0.1637
856.5094	-0.1354
856.6732	-0.0205
856.837	0.0679
857.0008	0.0879
857.1645	-0.0453
857.3282	0.0795
857.4919	0.0891
857.6556	0.1126
857.8192	0.0607
857.9828	0.1099
858.1465	0.1379
858.31	0.0816
858.4736	0.1632
858.6372	-0.2553
858.8007	-0.1018
858.9642	0.2802
859.1277	-0.1548
859.2911	0.0058
859.4546	0.0523
859.618	-0.3661
859.7814	-0.1061
859.9448	0.0821
860.1081	0.2527
860.2715	0.1458
860.4348	-0.0158
860.5981	-0.0521
860.7614	0.3733
860.9246	-0.0888
861.0879	-0.3076
861.2511	0.0229
861.4143	-0.1773
861.5774	0.2917
861.7406	-0.0703
861.9037	0.07
862.0668	-0.1398
862.2299	0.0899
862.393	-0.4054
862.556	0.0896
862.7191	-0.0522
862.8821	0.2343
863.0451	0.0417
863.208	0.278
863.371	0.1888
863.5339	-0.0896
863.6968	0.1751
863.8597	-0.1886
864.0225	0.052
864.1854	-0.1801
864.3482	0.2378
864.511	0.2567
864.6737	-0.0177
864.8365	1.4821
864.9992	-0.2412
865.1619	-0.497
865.3246	0.7879
865.4873	-0.0456
865.65	-0
865.8126	-0.0773
865.9752	0.018
866.1378	-0.2335
866.3004	-0
866.4629	0.2757
866.6254	0.0615
866.7879	-0
866.9504	-0
867.1129	-0
867.2753	0.2505
867.4377	0.0864
867.6001	-0.3212
867.7625	0.3324
867.9249	-0.3163
868.0872	-0.0232
868.2495	0.0076
868.4118	-0.1929
868.5741	-0.5953
868.7363	-0.0391
868.8986	-0
869.0608	0.2956
869.223	0.0217
869.3851	-0
869.5473	-0
869.7094	0.2285
869.8715	-0.0885
870.0336	-0.7262
870.1957	-0.4228
870.3577	-1.1695
870.5197	-0.1968
870.6817	-0.1044
870.8437	-0.0428
871.0057	-0.6335
871.1676	-0
871.3295	-0.0612
871.4914	-0
871.6533	-0.4566
871.8151	-0.3586
871.977	-0
872.1388	-0
872.3006	-0.1945
872.4623	-0
872.6241	0.1537
872.7858	-0
872.9475	-0
873.1092	0.1945
873.2709	-0.0776
873.4325	-0
873.5941	-0.5532
873.7557	-0.4067
873.9173	-0.3867
874.0789	-0
874.2404	-0.1828
874.4019	0.0062
874.5634	-0
874.7249	0.2949
874.8863	0.2142
875.0478	-0
875.2092	-0
875.3706	-0
875.5319	-0.4886
875.6933	0.2764
875.8546	-0.5743
876.0159	-0
876.1772	-0.0852
876.3385	-0
876.4997	0.2621
876.6609	-0.0919
876.8221	2.1139
876.9833	0.0217
877.1445	-0
877.3056	0.3741
877.4667	-0.3206
877.6278	-0
877.7889	0.1223
877.9499	-0
878.111	-0
878.272	-0
878.433	1.2165
878.5939	-0
878.7549	-0.1814
878.9158	-0.586
879.0767	0.2174
879.2376	-0
879.3984	-0
879.5593	-0
879.7201	0.2591
879.8809	-0.069
880.0417	-0
880.2024	-0
880.3632	-0
880.5239	0.1417
880.6846	-0
880.8452	-2.4764
881.0059	-1.5717
881.1665	-0.0698
881.3271	0.0882
881.4877	-0.5102
881.6483	-0.5029
881.8088	-0.0879
881.9693	-0.2349
882.1298	-0.2349
882.2903	-0.2349
