Data from MonoPyChalIsomerACN10uM440nmA_Absorbance_15-27-17-894.txt Node
Date: Fri Jul 05 15:27:17 BST 2024
User: LASERRRRR
Spectrometer: FLMT03099
Trigger mode: 0
Integration Time (sec): 1.000000E-1
Scans to average: 1
Electric dark correction enabled: true
Nonlinearity correction enabled: false
Boxcar width: 0
XAxis mode: Wavelengths
Number of Pixels in Spectrum: 3648
>>>>>Begin Spectral Data<<<<<
179.3399	-0.1491
179.5586	-0.1491
179.7771	-0.1491
179.9957	0.1052
180.2143	-0.5392
180.4329	-0.1742
180.6514	0.2904
180.8699	-0
181.0885	-0.163
181.307	0.421
181.5255	-0
181.744	-0.3534
181.9625	-0
182.181	-0
182.3994	-0
182.6179	-0
182.8363	-0.0437
183.0547	-0.2476
183.2732	0.1673
183.4916	0.1818
183.71	-0.0016
183.9284	0.0203
184.1467	0.0939
184.3651	-0.0067
184.5835	-0.1194
184.8018	0.1693
185.0201	0.0776
185.2385	0.024
185.4568	0.1284
185.6751	0.0866
185.8934	0.062
186.1117	-0.0126
186.3299	0.1003
186.5482	0.3792
186.7664	-0.1391
186.9847	0.3293
187.2029	0.0431
187.4211	0.0596
187.6393	0.0085
187.8575	0.1194
188.0757	0.3039
188.2939	0.0559
188.512	0.1473
188.7302	0.3069
188.9483	0.1471
189.1665	0.1816
189.3846	-0.1439
189.6027	0.0941
189.8208	0.2309
190.0389	0.0996
190.257	0.1755
190.475	0.2913
190.6931	0.1852
190.9111	0.7055
191.1292	0.2373
191.3472	0.6137
191.5652	0.3085
191.7832	0.1413
192.0012	0.3995
192.2192	0.4079
192.4371	0.4688
192.6551	0.4217
192.873	0.4383
193.091	0.3872
193.3089	0.5629
193.5268	0.5459
193.7447	0.5307
193.9626	0.4571
194.1805	0.5479
194.3984	-0
194.6162	0.5004
194.8341	0.485
195.0519	0.8704
195.2697	0.7566
195.4875	0.773
195.7054	0.4352
195.9231	0.6426
196.1409	0.5621
196.3587	0.8514
196.5765	0.4894
196.7942	0.6645
197.012	0.5049
197.2297	0.6876
197.4474	0.7247
197.6651	0.5661
197.8828	0.555
198.1005	0.5781
198.3182	0.6416
198.5358	0.6574
198.7535	0.7702
198.9711	0.7273
199.1888	0.7118
199.4064	0.9406
199.624	0.5624
199.8416	0.615
200.0592	0.7845
200.2767	0.7612
200.4943	0.6998
200.7119	0.7537
200.9294	0.6251
201.1469	0.6321
201.3645	0.5415
201.582	0.5658
201.7995	0.7277
202.017	0.5913
202.2344	0.5511
202.4519	0.7994
202.6694	0.7069
202.8868	0.704
203.1042	0.9627
203.3217	0.6957
203.5391	0.6898
203.7565	0.5925
203.9739	0.601
204.1913	0.6352
204.4086	0.5907
204.626	0.6804
204.8433	0.6276
205.0607	0.6349
205.278	0.6827
205.4953	0.5609
205.7126	0.7258
205.9299	0.8298
206.1472	0.6953
206.3644	0.7097
206.5817	0.759
206.7989	0.767
207.0162	0.6647
207.2334	0.7119
207.4506	0.7197
207.6678	0.6571
207.885	0.8025
208.1022	0.5861
208.3194	0.672
208.5365	0.6542
208.7537	0.6842
208.9708	0.5567
209.1879	0.6983
209.405	0.6961
209.6222	0.6594
209.8392	0.6119
210.0563	0.6564
210.2734	0.7258
210.4905	0.6559
210.7075	0.5646
210.9245	0.6149
211.1416	0.703
211.3586	0.6774
211.5756	0.6356
211.7926	0.5705
212.0096	0.559
212.2265	0.611
212.4435	0.564
212.6604	0.6217
212.8774	0.6605
213.0943	0.5667
213.3112	0.5553
213.5281	0.544
213.745	0.51
213.9619	0.5221
214.1788	0.5202
214.3956	0.4805
214.6125	0.4608
214.8293	0.449
215.0461	0.4905
215.2629	0.4478
215.4798	0.4695
215.6965	0.4196
215.9133	0.4607
216.1301	0.4401
216.3469	0.4267
216.5636	0.4141
216.7803	0.4036
216.9971	0.4419
217.2138	0.3825
217.4305	0.3683
217.6472	0.3893
217.8639	0.3892
218.0805	0.36
218.2972	0.3458
218.5138	0.3004
218.7305	0.3191
218.9471	0.3163
219.1637	0.2969
219.3803	0.266
219.5969	0.2658
219.8135	0.242
220.0301	0.2671
220.2466	0.2721
220.4632	0.2709
220.6797	0.2467
220.8962	0.2341
221.1127	0.2447
221.3292	0.2514
221.5457	0.2301
221.7622	0.2217
221.9787	0.2555
222.1951	0.2293
222.4116	0.2614
222.628	0.2151
222.8444	0.258
223.0608	0.2454
223.2772	0.2116
223.4936	0.2606
223.71	0.2452
223.9264	0.2686
224.1427	0.2324
224.3591	0.2411
224.5754	0.265
224.7917	0.2424
225.008	0.26
225.2243	0.2367
225.4406	0.284
225.6569	0.2609
225.8732	0.2387
226.0894	0.2567
226.3057	0.2673
226.5219	0.2777
226.7381	0.2618
226.9543	0.2728
227.1705	0.2987
227.3867	0.2664
227.6029	0.3012
227.8191	0.2977
228.0352	0.2705
228.2513	0.304
228.4675	0.2911
228.6836	0.2897
228.8997	0.2825
229.1158	0.2994
229.3319	0.3088
229.548	0.3248
229.764	0.2988
229.9801	0.3286
230.1961	0.3053
230.4121	0.3238
230.6282	0.3426
230.8442	0.3089
231.0602	0.3485
231.2761	0.3544
231.4921	0.3314
231.7081	0.3555
231.924	0.3304
232.14	0.3701
232.3559	0.3375
232.5718	0.3601
232.7877	0.3466
233.0036	0.342
233.2195	0.3437
233.4353	0.3667
233.6512	0.3543
233.867	0.3795
234.0829	0.3598
234.2987	0.36
234.5145	0.3739
234.7303	0.3692
234.9461	0.3814
235.1619	0.3853
235.3776	0.3659
235.5934	0.368
235.8091	0.3755
236.0249	0.3674
236.2406	0.3799
236.4563	0.3616
236.672	0.3845
236.8877	0.4073
237.1034	0.386
237.319	0.3864
237.5347	0.3986
237.7503	0.3799
237.966	0.4173
238.1816	0.4003
238.3972	0.3929
238.6128	0.3983
238.8284	0.3905
239.0439	0.4073
239.2595	0.4031
239.475	0.4329
239.6906	0.4159
239.9061	0.4069
240.1216	0.3969
240.3371	0.3924
240.5526	0.3921
240.7681	0.3936
240.9836	0.4036
241.199	0.4237
241.4145	0.3808
241.6299	0.3814
241.8453	0.3892
242.0607	0.3691
242.2761	0.3748
242.4915	0.3719
242.7069	0.3749
242.9223	0.3611
243.1376	0.3382
243.353	0.359
243.5683	0.348
243.7836	0.3297
243.9989	0.3468
244.2142	0.3069
244.4295	0.3145
244.6448	0.3251
244.86	0.3007
245.0753	0.3015
245.2905	0.2909
245.5057	0.2778
245.721	0.2902
245.9362	0.2733
246.1514	0.2827
246.3665	0.2653
246.5817	0.2648
246.7969	0.2718
247.012	0.2684
247.2271	0.2481
247.4423	0.2461
247.6574	0.2513
247.8725	0.2481
248.0876	0.2213
248.3026	0.2282
248.5177	0.2431
248.7328	0.2255
248.9478	0.2132
249.1628	0.2127
249.3779	0.2268
249.5929	0.2039
249.8079	0.2346
250.0228	0.2056
250.2378	0.2026
250.4528	0.2001
250.6677	0.1936
250.8827	0.2033
251.0976	0.1976
251.3125	0.2027
251.5274	0.1695
251.7423	0.1802
251.9572	0.1946
252.172	0.1716
252.3869	0.1787
252.6017	0.1774
252.8166	0.1628
253.0314	0.1675
253.2462	0.1688
253.461	0.1675
253.6758	0.1722
253.8906	0.1886
254.1053	0.1681
254.3201	0.173
254.5348	0.181
254.7496	0.172
254.9643	0.1594
255.179	0.1757
255.3937	0.1644
255.6083	0.1747
255.823	0.1778
256.0377	0.1537
256.2523	0.1734
256.467	0.161
256.6816	0.1677
256.8962	0.1652
257.1108	0.154
257.3254	0.175
257.54	0.1522
257.7545	0.1684
257.9691	0.1649
258.1836	0.1701
258.3981	0.1724
258.6127	0.1638
258.8272	0.1532
259.0417	0.1659
259.2561	0.1617
259.4706	0.1595
259.6851	0.1726
259.8995	0.1512
260.114	0.1521
260.3284	0.1614
260.5428	0.162
260.7572	0.1626
260.9716	0.1659
261.186	0.1594
261.4003	0.1565
261.6147	0.1579
261.829	0.1618
262.0433	0.1618
262.2577	0.1642
262.472	0.1727
262.6863	0.1682
262.9005	0.1612
263.1148	0.1683
263.3291	0.1529
263.5433	0.1603
263.7576	0.1608
263.9718	0.1626
264.186	0.1615
264.4002	0.1646
264.6144	0.1661
264.8286	0.1769
265.0427	0.1629
265.2569	0.1645
265.471	0.1445
265.6851	0.1597
265.8993	0.1735
266.1134	0.1467
266.3275	0.1493
266.5415	0.1588
266.7556	0.1653
266.9697	0.16
267.1837	0.1541
267.3978	0.1671
267.6118	0.1635
267.8258	0.1658
268.0398	0.1572
268.2538	0.1695
268.4677	0.1585
268.6817	0.1616
268.8957	0.1503
269.1096	0.1676
269.3235	0.1633
269.5374	0.1561
269.7514	0.1595
269.9652	0.159
270.1791	0.1421
270.393	0.1446
270.6068	0.1564
270.8207	0.1508
271.0345	0.1565
271.2483	0.1551
271.4622	0.1556
271.676	0.151
271.8897	0.1485
272.1035	0.1448
272.3173	0.1525
272.531	0.1417
272.7448	0.1487
272.9585	0.1421
273.1722	0.1483
273.3859	0.1561
273.5996	0.1425
273.8133	0.1508
274.0269	0.1504
274.2406	0.1369
274.4542	0.147
274.6679	0.1376
274.8815	0.1537
275.0951	0.1561
275.3087	0.1622
275.5223	0.156
275.7358	0.1491
275.9494	0.1454
276.1629	0.1443
276.3765	0.1512
276.59	0.1441
276.8035	0.1556
277.017	0.1517
277.2305	0.1458
277.444	0.1586
277.6574	0.1425
277.8709	0.1513
278.0843	0.1515
278.2978	0.1555
278.5112	0.1362
278.7246	0.1499
278.938	0.1525
279.1513	0.1601
279.3647	0.1664
279.5781	0.1494
279.7914	0.1512
280.0047	0.1598
280.2181	0.1597
280.4314	0.1569
280.6447	0.1528
280.8579	0.1688
281.0712	0.1706
281.2845	0.158
281.4977	0.1491
281.711	0.1549
281.9242	0.1601
282.1374	0.1486
282.3506	0.1547
282.5638	0.1587
282.7769	0.1592
282.9901	0.1662
283.2033	0.1629
283.4164	0.1609
283.6295	0.1548
283.8426	0.1445
284.0557	0.1553
284.2688	0.1654
284.4819	0.1543
284.695	0.1597
284.908	0.1653
285.1211	0.1492
285.3341	0.1585
285.5471	0.1561
285.7601	0.1544
285.9731	0.1574
286.1861	0.1412
286.3991	0.169
286.612	0.1635
286.825	0.1561
287.0379	0.1732
287.2508	0.161
287.4637	0.1578
287.6766	0.1612
287.8895	0.1701
288.1024	0.1783
288.3152	0.1665
288.5281	0.1626
288.7409	0.1545
288.9538	0.1584
289.1666	0.1617
289.3794	0.1595
289.5922	0.156
289.8049	0.153
290.0177	0.1648
290.2304	0.1529
290.4432	0.1562
290.6559	0.1617
290.8686	0.1588
291.0813	0.1566
291.294	0.1569
291.5067	0.1618
291.7194	0.1521
291.932	0.1694
292.1447	0.1539
292.3573	0.151
292.5699	0.1571
292.7825	0.1646
292.9951	0.1551
293.2077	0.1557
293.4203	0.1625
293.6328	0.1486
293.8454	0.1633
294.0579	0.1608
294.2704	0.1658
294.4829	0.1493
294.6954	0.1617
294.9079	0.154
295.1204	0.1482
295.3328	0.1539
295.5453	0.1469
295.7577	0.1593
295.9701	0.1493
296.1825	0.1566
296.3949	0.1438
296.6073	0.1579
296.8197	0.1387
297.0321	0.1661
297.2444	0.1447
297.4567	0.1504
297.6691	0.1534
297.8814	0.1459
298.0937	0.1551
298.306	0.1565
298.5182	0.1499
298.7305	0.1632
298.9428	0.1493
299.155	0.1523
299.3672	0.1439
299.5794	0.1505
299.7916	0.1445
300.0038	0.16
300.216	0.1644
300.4282	0.1523
300.6403	0.1495
300.8525	0.1585
301.0646	0.1463
301.2767	0.154
301.4888	0.1462
301.7009	0.1524
301.913	0.1477
302.125	0.157
302.3371	0.1457
302.5491	0.1498
302.7612	0.1542
302.9732	0.1595
303.1852	0.151
303.3972	0.1529
303.6092	0.143
303.8211	0.1429
304.0331	0.1515
304.245	0.144
304.457	0.1399
304.6689	0.1392
304.8808	0.1509
305.0927	0.1509
305.3046	0.1505
305.5164	0.1586
305.7283	0.1464
305.9401	0.1299
306.152	0.1488
306.3638	0.1451
306.5756	0.1284
306.7874	0.1503
306.9992	0.1447
307.2109	0.1362
307.4227	0.1141
307.6344	0.1279
307.8462	0.1345
308.0579	0.1302
308.2696	0.1156
308.4813	0.1181
308.693	0.1273
308.9046	0.1375
309.1163	0.1353
309.328	0.1221
309.5396	0.1251
309.7512	0.1214
309.9628	0.1223
310.1744	0.1272
310.386	0.1104
310.5976	0.1279
310.8091	0.12
311.0207	0.122
311.2322	0.1235
311.4437	0.1136
311.6552	0.1166
311.8667	0.1168
312.0782	0.1042
312.2897	0.1024
312.5012	0.1123
312.7126	0.0999
312.924	0.1068
313.1355	0.1183
313.3469	0.1106
313.5583	0.1127
313.7696	0.1055
313.981	0.1018
314.1924	0.1055
314.4037	0.1042
314.6151	0.1096
314.8264	0.1009
315.0377	0.0964
315.249	0.1096
315.4603	0.1106
315.6716	0.1012
315.8828	0.0891
316.0941	0.0963
316.3053	0.0889
316.5165	0.0959
316.7277	0.0883
316.9389	0.1126
317.1501	0.0969
317.3613	0.1048
317.5724	0.0926
317.7836	0.0934
317.9947	0.099
318.2058	0.1033
318.417	0.0948
318.6281	0.0942
318.8391	0.1016
319.0502	0.1035
319.2613	0.0941
319.4723	0.1056
319.6834	0.106
319.8944	0.1003
320.1054	0.0995
320.3164	0.1031
320.5274	0.0982
320.7383	0.0986
320.9493	0.1026
321.1602	0.1054
321.3712	0.0975
321.5821	0.1098
321.793	0.1006
322.0039	0.0955
322.2148	0.091
322.4257	0.1072
322.6365	0.1055
322.8474	0.1088
323.0582	0.0939
323.269	0.105
323.4798	0.1232
323.6906	0.0994
323.9014	0.1029
324.1122	0.111
324.3229	0.1029
324.5337	0.1094
324.7444	0.1013
324.9551	0.112
325.1658	0.1067
325.3765	0.1077
325.5872	0.1095
325.7979	0.1006
326.0085	0.0969
326.2192	0.1042
326.4298	0.1054
326.6404	0.1039
326.851	0.1153
327.0616	0.0954
327.2722	0.1179
327.4828	0.1149
327.6933	0.0974
327.9039	0.1159
328.1144	0.1168
328.3249	0.1136
328.5354	0.1093
328.7459	0.1094
328.9564	0.0989
329.1669	0.1051
329.3773	0.1107
329.5878	0.1066
329.7982	0.102
330.0086	0.1118
330.219	0.1047
330.4294	0.1105
330.6398	0.1063
330.8502	0.1019
331.0605	0.1089
331.2708	0.1152
331.4812	0.1088
331.6915	0.111
331.9018	0.1142
332.1121	0.1015
332.3224	0.1074
332.5326	0.117
332.7429	0.1112
332.9531	0.1214
333.1633	0.1178
333.3735	0.1184
333.5837	0.1136
333.7939	0.0969
334.0041	0.1213
334.2143	0.1227
334.4244	0.1199
334.6346	0.0951
334.8447	0.1161
335.0548	0.1135
335.2649	0.1059
335.475	0.1148
335.685	0.0992
335.8951	0.1276
336.1051	0.1195
336.3152	0.1203
336.5252	0.1174
336.7352	0.1181
336.9452	0.135
337.1552	0.1158
337.3652	0.1019
337.5751	0.1166
337.7851	0.1195
337.995	0.1003
338.2049	0.1219
338.4148	0.117
338.6247	0.1157
338.8346	0.1107
339.0445	0.1125
339.2543	0.1216
339.4642	0.1158
339.674	0.1121
339.8838	0.1073
340.0936	0.1278
340.3034	0.1269
340.5132	0.1177
340.7229	0.1275
340.9327	0.1161
341.1424	0.1161
341.3522	0.1321
341.5619	0.1252
341.7716	0.1204
341.9813	0.119
342.1909	0.1261
342.4006	0.117
342.6102	0.1252
342.8199	0.1146
343.0295	0.1253
343.2391	0.1368
343.4487	0.1365
343.6583	0.123
343.8679	0.1297
344.0774	0.142
344.287	0.1173
344.4965	0.133
344.706	0.1297
344.9155	0.1266
345.125	0.1203
345.3345	0.1334
345.544	0.1289
345.7534	0.134
345.9629	0.124
346.1723	0.138
346.3817	0.1211
346.5911	0.1229
346.8005	0.1427
347.0099	0.1257
347.2193	0.1378
347.4286	0.1363
347.638	0.1403
347.8473	0.1428
348.0566	0.1414
348.2659	0.1386
348.4752	0.1363
348.6845	0.1346
348.8937	0.139
349.103	0.1445
349.3122	0.1169
349.5214	0.1439
349.7306	0.1411
349.9398	0.1395
350.149	0.1383
350.3582	0.1317
350.5674	0.1535
350.7765	0.1534
350.9856	0.1322
351.1948	0.1368
351.4039	0.1456
351.613	0.1388
351.822	0.1538
352.0311	0.1406
352.2402	0.148
352.4492	0.1528
352.6582	0.1499
352.8672	0.1518
353.0762	0.1369
353.2852	0.1569
353.4942	0.1421
353.7032	0.1651
353.9121	0.146
354.1211	0.1548
354.33	0.1442
354.5389	0.1602
354.7478	0.1412
354.9567	0.1472
355.1655	0.1541
355.3744	0.1485
355.5833	0.1556
355.7921	0.1676
356.0009	0.158
356.2097	0.1779
356.4185	0.1577
356.6273	0.1588
356.8361	0.1584
357.0448	0.1574
357.2536	0.1406
357.4623	0.1499
357.671	0.1531
357.8797	0.1675
358.0884	0.1725
358.2971	0.1704
358.5057	0.1551
358.7144	0.1714
358.923	0.1603
359.1316	0.1719
359.3402	0.1635
359.5488	0.1597
359.7574	0.1653
359.966	0.1827
360.1746	0.1679
360.3831	0.1805
360.5916	0.1625
360.8002	0.1675
361.0087	0.1675
361.2172	0.1741
361.4256	0.1736
361.6341	0.1918
361.8426	0.2031
362.051	0.16
362.2594	0.1801
362.4678	0.1686
362.6762	0.2101
362.8846	0.1675
363.093	0.1731
363.3014	0.1774
363.5097	0.1551
363.718	0.1796
363.9264	0.1644
364.1347	0.1844
364.343	0.1885
364.5513	0.1962
364.7595	0.1858
364.9678	0.1977
365.176	0.2002
365.3842	0.1787
365.5925	0.1906
365.8007	0.1968
366.0089	0.1837
366.217	0.1877
366.4252	0.1963
366.6333	0.2012
366.8415	0.2016
367.0496	0.1883
367.2577	0.2168
367.4658	0.2099
367.6739	0.1845
367.882	0.2169
368.09	0.2041
368.2981	0.2131
368.5061	0.1985
368.7141	0.1905
368.9221	0.211
369.1301	0.2106
369.3381	0.1956
369.5461	0.2034
369.754	0.2065
369.962	0.2117
370.1699	0.1982
370.3778	0.1907
370.5857	0.2047
370.7936	0.2037
371.0015	0.2225
371.2093	0.2063
371.4172	0.2269
371.625	0.1874
371.8328	0.2111
372.0406	0.205
372.2484	0.2124
372.4562	0.2195
372.664	0.2021
372.8717	0.2133
373.0795	0.1936
373.2872	0.2128
373.4949	0.2185
373.7026	0.2136
373.9103	0.2314
374.118	0.2276
374.3256	0.2008
374.5333	0.2009
374.7409	0.2114
374.9485	0.2094
375.1561	0.2106
375.3637	0.2254
375.5713	0.2294
375.7789	0.2183
375.9864	0.2299
376.194	0.2257
376.4015	0.2215
376.609	0.2344
376.8165	0.2202
377.024	0.2242
377.2315	0.2288
377.4389	0.2134
377.6464	0.2492
377.8538	0.2311
378.0612	0.2137
378.2686	0.2258
378.476	0.248
378.6834	0.2392
378.8908	0.2426
379.0981	0.2234
379.3055	0.2263
379.5128	0.2209
379.7201	0.2271
379.9274	0.22
380.1347	0.2385
380.342	0.2436
380.5492	0.223
380.7565	0.2275
380.9637	0.2321
381.1709	0.2468
381.3781	0.2322
381.5853	0.237
381.7925	0.2406
381.9997	0.2467
382.2068	0.2381
382.4139	0.2506
382.6211	0.2219
382.8282	0.2447
383.0353	0.2374
383.2424	0.2291
383.4494	0.2455
383.6565	0.2293
383.8635	0.2303
384.0706	0.2274
384.2776	0.2462
384.4846	0.2209
384.6916	0.2351
384.8986	0.2412
385.1055	0.247
385.3125	0.234
385.5194	0.2145
385.7263	0.2426
385.9333	0.2235
386.1402	0.2368
386.347	0.2347
386.5539	0.2242
386.7608	0.2454
386.9676	0.2337
387.1744	0.24
387.3813	0.2136
387.5881	0.247
387.7948	0.2384
388.0016	0.2352
388.2084	0.2428
388.4151	0.2122
388.6219	0.2293
388.8286	0.2239
389.0353	0.2533
389.242	0.2563
389.4487	0.2079
389.6553	0.2174
389.862	0.2057
390.0686	0.2272
390.2753	0.2298
390.4819	0.2242
390.6885	0.2223
390.8951	0.238
391.1016	0.2105
391.3082	0.2093
391.5147	0.2243
391.7213	0.2152
391.9278	0.2125
392.1343	0.211
392.3408	0.2097
392.5473	0.2135
392.7537	0.2013
392.9602	0.2024
393.1666	0.213
393.373	0.214
393.5794	0.2307
393.7858	0.2125
393.9922	0.2134
394.1986	0.216
394.4049	0.217
394.6113	0.2008
394.8176	0.2057
395.0239	0.203
395.2302	0.1902
395.4365	0.1964
395.6428	0.1906
395.8491	0.1959
396.0553	0.1954
396.2615	0.1946
396.4678	0.1886
396.674	0.195
396.8802	0.1998
397.0863	0.2155
397.2925	0.191
397.4987	0.1907
397.7048	0.1798
397.9109	0.2066
398.117	0.1759
398.3231	0.1846
398.5292	0.2136
398.7353	0.2032
398.9413	0.1961
399.1474	0.1844
399.3534	0.19
399.5594	0.1848
399.7654	0.2057
399.9714	0.2037
400.1774	0.1896
400.3833	0.1882
400.5893	0.1881
400.7952	0.1812
401.0011	0.1899
401.207	0.1994
401.4129	0.192
401.6188	0.2114
401.8247	0.2085
402.0305	0.1808
402.2364	0.1878
402.4422	0.198
402.648	0.2043
402.8538	0.1991
403.0596	0.1903
403.2654	0.1963
403.4711	0.1938
403.6768	0.2046
403.8826	0.1989
404.0883	0.1912
404.294	0.2054
404.4997	0.1945
404.7054	0.1869
404.911	0.1853
405.1167	0.2016
405.3223	0.1977
405.5279	0.1911
405.7335	0.2071
405.9391	0.1947
406.1447	0.1927
406.3502	0.216
406.5558	0.1934
406.7613	0.2061
406.9668	0.1883
407.1724	0.1913
407.3778	0.1909
407.5833	0.1813
407.7888	0.1815
407.9942	0.2031
408.1997	0.1831
408.4051	0.1781
408.6105	0.1951
408.8159	0.1946
409.0213	0.1772
409.2267	0.1894
409.432	0.1807
409.6374	0.1999
409.8427	0.1834
410.048	0.2013
410.2533	0.1935
410.4586	0.2018
410.6639	0.1587
410.8691	0.1798
411.0744	0.1944
411.2796	0.1872
411.4848	0.1843
411.69	0.1812
411.8952	0.2168
412.1004	0.1853
412.3056	0.2062
412.5107	0.1811
412.7158	0.208
412.921	0.1827
413.1261	0.194
413.3312	0.1687
413.5362	0.1851
413.7413	0.1863
413.9464	0.1848
414.1514	0.1728
414.3564	0.1823
414.5614	0.1602
414.7664	0.2059
414.9714	0.1868
415.1764	0.1746
415.3813	0.194
415.5863	0.1914
415.7912	0.1913
415.9961	0.1793
416.201	0.1918
416.4059	0.182
416.6108	0.1795
416.8156	0.1811
417.0205	0.1778
417.2253	0.1956
417.4301	0.1891
417.6349	0.1662
417.8397	0.1726
418.0445	0.1949
418.2492	0.1863
418.454	0.1866
418.6587	0.189
418.8634	0.1789
419.0681	0.1639
419.2728	0.1638
419.4775	0.1789
419.6822	0.1602
419.8868	0.155
420.0915	0.1722
420.2961	0.1776
420.5007	0.159
420.7053	0.1711
420.9099	0.1891
421.1144	0.1787
421.319	0.1633
421.5235	0.1794
421.728	0.1675
421.9325	0.1616
422.137	0.1732
422.3415	0.1572
422.546	0.17
422.7504	0.1674
422.9549	0.1846
423.1593	0.1666
423.3637	0.1774
423.5681	0.1732
423.7725	0.1554
423.9769	0.1494
424.1812	0.1522
424.3856	0.1485
424.5899	0.1671
424.7942	0.1546
424.9985	0.1648
425.2028	0.1567
425.4071	0.1699
425.6113	0.1469
425.8156	0.1401
426.0198	0.1526
426.224	0.1579
426.4282	0.128
426.6324	0.1346
426.8366	0.1556
427.0407	0.1585
427.2449	0.1511
427.449	0.156
427.6531	0.1262
427.8572	0.1358
428.0613	0.1298
428.2654	0.1409
428.4694	0.1516
428.6735	0.1329
428.8775	0.1468
429.0815	0.1441
429.2855	0.1293
429.4895	0.1365
429.6935	0.1389
429.8975	0.1296
430.1014	0.1276
430.3053	0.1249
430.5093	0.1363
430.7132	0.128
430.9171	0.1332
431.1209	0.1168
431.3248	0.1223
431.5286	0.1306
431.7325	0.1275
431.9363	0.1102
432.1401	0.1299
432.3439	0.1135
432.5477	0.0816
432.7514	0.1062
432.9552	0.1261
433.1589	0.1017
433.3627	0.104
433.5664	0.1034
433.7701	0.1023
433.9737	0.1058
434.1774	0.0992
434.3811	0.0986
434.5847	0.1083
434.7883	0.1099
434.9919	0.1073
435.1955	0.1059
435.3991	0.0868
435.6027	0.0937
435.8062	0.0991
436.0098	0.0885
436.2133	0.0937
436.4168	0.0805
436.6203	0.0832
436.8238	0.0956
437.0272	0.0826
437.2307	0.0802
437.4341	0.0933
437.6375	0.0979
437.841	0.0795
438.0443	0.098
438.2477	0.0761
438.4511	0.0846
438.6545	0.0837
438.8578	0.0861
439.0611	0.0719
439.2644	0.0855
439.4677	0.0825
439.671	0.0729
439.8743	0.0765
440.0775	0.0825
440.2808	0.0673
440.484	0.0571
440.6872	0.0496
440.8904	0.0491
441.0936	0.072
441.2967	0.0658
441.4999	0.0622
441.703	0.0682
441.9062	0.0624
442.1093	0.0624
442.3124	0.0573
442.5155	0.0469
442.7185	0.0508
442.9216	0.032
443.1246	0.073
443.3276	0.0567
443.5307	0.0466
443.7337	0.0608
443.9366	0.0493
444.1396	0.0414
444.3426	0.0554
444.5455	0.0486
444.7484	0.0424
444.9513	0.0485
445.1542	0.0516
445.3571	0.0549
445.56	0.0415
445.7628	0.0503
445.9657	0.03
446.1685	0.0492
446.3713	0.0482
446.5741	0.0343
446.7769	0.0285
446.9797	0.0337
447.1824	0.0437
447.3852	0.0137
447.5879	0.0421
447.7906	0.0415
447.9933	0.0335
448.196	0.0322
448.3986	0.0264
448.6013	0.0209
448.8039	0.0117
449.0066	0.0171
449.2092	0.0306
449.4118	0.0357
449.6143	0.0268
449.8169	0.0385
450.0195	0.0228
450.222	0.0124
450.4245	0.0279
450.627	0.0277
450.8295	0.0288
451.032	0.0215
451.2345	0.0233
451.4369	0.0408
451.6394	0.0193
451.8418	0.007
452.0442	0.0126
452.2466	0.0417
452.449	-0.0005
452.6513	0.0176
452.8537	0.0111
453.056	0.002
453.2583	0.0302
453.4607	0.0094
453.663	0.0143
453.8652	0.0431
454.0675	0.0113
454.2697	0.0078
454.472	0.0066
454.6742	0.0317
454.8764	0.0069
455.0786	0.0287
455.2808	0.0226
455.4829	0.0147
455.6851	0.0245
455.8872	0.0281
456.0893	0.0263
456.2915	-0.0105
456.4935	0.0189
456.6956	0.0018
456.8977	0.0143
457.0997	0.0054
457.3018	-0.0131
457.5038	0.0157
457.7058	0.0059
457.9078	0.0053
458.1098	0.0147
458.3117	0.0104
458.5137	0.002
458.7156	0.0103
458.9175	-0.0057
459.1194	0.0009
459.3213	0.0155
459.5232	-0.0014
459.725	-0.0108
459.9269	-0.0032
460.1287	0.0006
460.3305	0.0023
460.5323	-0.0032
460.7341	0.0031
460.9359	0.0069
461.1376	0.0162
461.3394	0.0011
461.5411	0.0093
461.7428	-0.0103
461.9445	0.0031
462.1462	0.0051
462.3479	-0.0036
462.5495	0.0084
462.7512	0.0067
462.9528	0.0057
463.1544	-0.0042
463.356	0.0151
463.5576	0.0167
463.7592	-0.0118
463.9607	0.0036
464.1623	0.0088
464.3638	0.0152
464.5653	-0.0122
464.7668	0.0048
464.9683	0.0072
465.1697	0.0123
465.3712	0.0035
465.5726	-0.0129
465.7741	0.0021
465.9755	-0.0127
466.1769	0.0021
466.3782	-0.0013
466.5796	-0.0056
466.7809	0.0136
466.9823	0.0011
467.1836	0.0064
467.3849	-0.0035
467.5862	0.0092
467.7875	0.0101
467.9887	0.024
468.19	0.0089
468.3912	-0.0122
468.5924	-0.0055
468.7936	0.0059
468.9948	0.0024
469.196	-0.0044
469.3972	-0.015
469.5983	-0.0011
469.7994	-0.0262
470.0006	-0.0014
470.2017	-0.0103
470.4027	-0.0014
470.6038	-0.0031
470.8049	-0.0297
471.0059	-0.0169
471.2069	-0.0108
471.408	0.0184
471.6089	0.0052
471.8099	0.0036
472.0109	0.0008
472.2119	-0.008
472.4128	-0.0127
472.6137	-0.0005
472.8146	-0.0038
473.0155	-0.0037
473.2164	0.0079
473.4173	0.0123
473.6181	0.0146
473.819	0.0004
474.0198	-0.0041
474.2206	-0.0066
474.4214	0.0023
474.6222	0.0015
474.8229	-0.0042
475.0237	-0.0146
475.2244	-0.0066
475.4251	-0.0005
475.6258	-0.0005
475.8265	0.0038
476.0272	0.0172
476.2278	-0.0079
476.4285	-0.0048
476.6291	-0.0026
476.8297	-0.0098
477.0303	-0.0028
477.2309	-0.0076
477.4315	-0.0105
477.632	-0.0098
477.8326	-0.0158
478.0331	0.0047
478.2336	0.0121
478.4341	-0.0043
478.6346	0.0009
478.8351	-0.0024
479.0355	0.0036
479.236	-0.0153
479.4364	0.0045
479.6368	0.002
479.8372	-0.0047
480.0376	-0.0071
480.2379	-0.0146
480.4383	-0.0073
480.6386	0.0107
480.8389	0.006
481.0392	-0.0033
481.2395	-0.0134
481.4398	-0.0003
481.6401	-0.0039
481.8403	-0.0014
482.0405	-0.0125
482.2408	-0.0048
482.441	0.0105
482.6411	-0.0063
482.8413	-0.0067
483.0415	-0.0073
483.2416	-0.0122
483.4417	-0.0048
483.6419	-0.0133
483.8419	0.0027
484.042	0.0138
484.2421	0.0072
484.4422	0.0054
484.6422	0.0036
484.8422	-0.0073
485.0422	-0.0029
485.2422	0.0029
485.4422	-0.0094
485.6422	-0.016
485.8421	0.0025
486.042	-0.0007
486.242	0.0016
486.4419	-0.0123
486.6417	-0.0086
486.8416	0.0018
487.0415	-0.01
487.2413	-0.0023
487.4411	-0.0051
487.641	-0.0065
487.8408	0.0001
488.0405	0.0006
488.2403	0.0001
488.4401	-0.0042
488.6398	0.0031
488.8395	-0.0174
489.0392	-0.0049
489.2389	-0.0083
489.4386	-0.0066
489.6383	-0.0051
489.8379	0.0063
490.0376	-0.0037
490.2372	-0.0073
490.4368	-0.0079
490.6364	-0.0021
490.836	-0.0054
491.0355	-0.0032
491.2351	-0.0124
491.4346	-0.0115
491.6341	-0.0093
491.8336	0.0077
492.0331	-0.0111
492.2326	-0.0089
492.432	-0.0046
492.6315	-0.0092
492.8309	0.0002
493.0303	0.0022
493.2297	-0.0075
493.4291	-0.003
493.6284	-0.0044
493.8278	-0.0036
494.0271	-0.0049
494.2264	0.0065
494.4257	-0.0152
494.625	-0.0049
494.8243	-0.021
495.0236	-0.0184
495.2228	-0.0058
495.422	0.0101
495.6213	-0.0013
495.8205	-0.0038
496.0196	-0.012
496.2188	0.0058
496.418	-0.0048
496.6171	-0.0004
496.8162	-0.0073
497.0153	0.0037
497.2144	-0.0061
497.4135	0.0063
497.6126	-0.0068
497.8116	-0.005
498.0107	0.0006
498.2097	-0.0076
498.4087	-0.012
498.6077	0.0054
498.8067	-0.009
499.0056	0.0034
499.2046	0.0032
499.4035	-0.0148
499.6024	0.0072
499.8013	-0.0001
500.0002	-0.0132
500.199	-0.0018
500.3979	-0.0046
500.5967	-0.0126
500.7956	0.0045
500.9944	0.0084
501.1932	-0.0091
501.3919	-0.0072
501.5907	-0.005
501.7895	0.0046
501.9882	-0.01
502.1869	-0.0142
502.3856	-0.0028
502.5843	-0.01
502.783	-0.0078
502.9816	-0.0003
503.1803	-0.0115
503.3789	-0.007
503.5775	0.0099
503.7761	0.005
503.9747	0.0008
504.1732	-0.0052
504.3718	-0.0027
504.5703	-0.0046
504.7689	-0.0156
504.9674	0.0028
505.1658	-0.0037
505.3643	-0.0082
505.5628	0.0003
505.7612	-0.0055
505.9597	0.0065
506.1581	-0.0065
506.3565	0.0075
506.5549	-0.0009
506.7532	-0.0138
506.9516	-0.0013
507.1499	-0.0011
507.3482	-0.0117
507.5465	-0.0012
507.7448	-0.0022
507.9431	0.0076
508.1414	-0.0049
508.3396	-0.0052
508.5379	0.0065
508.7361	-0.0106
508.9343	-0.0023
509.1325	0.0129
509.3306	-0.0018
509.5288	-0.0089
509.7269	-0.0065
509.9251	-0.0047
510.1232	-0.0136
510.3213	0.006
510.5193	-0.0005
510.7174	-0.0128
510.9154	-0.0113
511.1135	-0.0111
511.3115	-0.007
511.5095	-0.0028
511.7075	-0.0051
511.9055	0.0034
512.1034	-0.0091
512.3014	-0.0003
512.4993	-0.003
512.6972	-0.0057
512.8951	-0.0098
513.093	-0.0002
513.2908	0.003
513.4887	-0.0099
513.6865	-0.0101
513.8844	-0.0129
514.0822	-0.0152
514.2799	-0.0062
514.4777	-0.0047
514.6755	-0.0128
514.8732	-0.0108
515.0709	-0.0069
515.2687	-0.0044
515.4664	0.0035
515.664	-0.0069
515.8617	-0.0028
516.0594	-0.0099
516.257	0.0016
516.4546	-0.0195
516.6522	0.0038
516.8498	-0.0002
517.0474	0.002
517.2449	0.012
517.4425	-0.0158
517.64	-0.0018
517.8375	-0.0012
518.035	0.0057
518.2325	-0.0062
518.43	-0.0038
518.6274	-0.0092
518.8249	-0.0058
519.0223	0.0021
519.2197	-0.0028
519.4171	-0.0041
519.6145	-0.0028
519.8118	-0.0035
520.0092	-0.0073
520.2065	-0.0132
520.4038	-0.0116
520.6011	0.0022
520.7984	-0.0113
520.9956	-0.0177
521.1929	-0.0078
521.3901	-0.0076
521.5874	0.0048
521.7846	-0.0075
521.9818	-0.0116
522.1789	-0.0138
522.3761	-0.0027
522.5732	-0.0039
522.7704	-0.0033
522.9675	0.0033
523.1646	0.0047
523.3617	0.0012
523.5587	-0
523.7558	-0.0035
523.9528	-0.0131
524.1498	-0.0003
524.3468	-0.0021
524.5438	-0.0047
524.7408	0.003
524.9378	-0.0003
525.1347	0.006
525.3316	-0.0051
525.5285	-0.0097
525.7254	-0.0078
525.9223	0.0091
526.1192	0.0018
526.316	-0.0115
526.5129	0.0143
526.7097	0.0034
526.9065	-0.0021
527.1033	-0.0051
527.3	0.0064
527.4968	-0.0004
527.6935	-0.0068
527.8903	-0.0142
528.087	-0.0019
528.2837	0.0076
528.4804	0.0099
528.677	-0.0024
528.8737	0.0067
529.0703	-0.0119
529.2669	-0.0008
529.4635	-0.0009
529.6601	-0.0034
529.8567	-0.0068
530.0532	-0.008
530.2498	-0
530.4463	0.004
530.6428	-0.0063
530.8393	0.0059
531.0358	-0.0022
531.2322	-0.008
531.4287	-0.0011
531.6251	-0.0064
531.8215	0.0103
532.0179	-0.0024
532.2143	-0.0026
532.4107	0.0086
532.607	-0.0018
532.8034	-0.0001
532.9997	0.0009
533.196	0.0073
533.3923	-0.0006
533.5886	-0.0015
533.7848	0.0044
533.9811	-0.0114
534.1773	-0.001
534.3735	0.0005
534.5697	0.0003
534.7659	-0.0064
534.9621	-0.0018
535.1582	-0.0064
535.3544	-0.0109
535.5505	-0.0013
535.7466	-0.0013
535.9427	-0.0127
536.1387	-0.0027
536.3348	-0.0001
536.5308	0.0114
536.7269	-0.0116
536.9229	0.0088
537.1189	-0.0052
537.3148	-0.002
537.5108	-0.004
537.7068	0.0024
537.9027	-0.0017
538.0986	-0.0004
538.2945	-0.0062
538.4904	-0.0113
538.6863	-0.0029
538.8821	-0.0044
539.078	0.0031
539.2738	0.0083
539.4696	-0.0001
539.6654	0.0108
539.8611	0.0113
540.0569	0.0008
540.2526	-0.0025
540.4484	-0.001
540.6441	0.0075
540.8398	0.0006
541.0355	-0.0018
541.2311	-0.0059
541.4268	0.0008
541.6224	0.0005
541.818	0.0005
542.0136	-0.0018
542.2092	-0.0049
542.4048	0.0042
542.6003	-0.0033
542.7959	-0.002
542.9914	0.0084
543.1869	0.0025
543.3824	-0
543.5779	-0.0013
543.7734	-0
543.9688	-0.0027
544.1642	0.0056
544.3596	-0.0012
544.555	-0.0029
544.7504	-0.005
544.9458	-0.0013
545.1411	-0.0121
545.3365	-0.0003
545.5318	-0.018
545.7271	0.0004
545.9224	0.0053
546.1177	0.0007
546.3129	-0.0001
546.5081	-0.0018
546.7034	0.0002
546.8986	-0.0005
547.0938	-0.0003
547.289	-0.0089
547.4841	0.002
547.6793	0.0068
547.8744	-0.0059
548.0695	0.0059
548.2646	-0.0003
548.4597	0.004
548.6548	0.0056
548.8498	0.0047
549.0448	0.0076
549.2399	-0.0003
549.4349	0.0152
549.6298	0.0014
549.8248	-0.0005
550.0198	0.0036
550.2147	-0.0032
550.4096	-0.0031
550.6045	0.0022
550.7994	0.0001
550.9943	0.0007
551.1892	0.004
551.384	0.0031
551.5788	-0.0103
551.7737	0.0061
551.9685	0.0035
552.1632	-0.0023
552.358	-0.0012
552.5528	-0.0007
552.7475	0.0022
552.9422	-0.0021
553.1369	0.0083
553.3316	0.0041
553.5263	-0.0063
553.7209	0.0095
553.9156	-0.005
554.1102	-0.0011
554.3048	-0.0006
554.4994	0.0014
554.694	-0.0039
554.8885	0
555.0831	-0.007
555.2776	-0.0018
555.4721	-0.0001
555.6666	-0.0019
555.8611	0.0094
556.0555	0.0045
556.25	-0.002
556.4444	-0.0092
556.6388	0.0071
556.8332	-0.0043
557.0276	0.0006
557.222	-0.0013
557.4163	0.0044
557.6107	-0.0014
557.805	0.0095
557.9993	-0.0045
558.1936	0.005
558.3879	-0.0025
558.5821	-0.0035
558.7764	0.0012
558.9706	0.0026
559.1648	0.0087
559.359	-0.0057
559.5532	-0.0048
559.7473	-0.0019
559.9415	0.0047
560.1356	-0.003
560.3297	-0.0088
560.5238	-0.0068
560.7179	0.003
560.9119	-0.0024
561.106	-0.0023
561.3	-0.0128
561.494	0
561.688	-0.0059
561.882	-0.0113
562.076	-0.0011
562.2699	-0.0013
562.4639	-0.0022
562.6578	-0.0021
562.8517	-0.0047
563.0456	-0.0126
563.2395	0.0034
563.4333	0.0045
563.6272	-0.0002
563.821	-0.0017
564.0148	0.0006
564.2086	-0.01
564.4024	-0.0025
564.5961	-0.0004
564.7899	0.0053
564.9836	0.0009
565.1773	-0.0057
565.371	0.0076
565.5647	0.0026
565.7584	0.0028
565.952	0.0026
566.1456	0.0059
566.3393	-0.0018
566.5329	-0.009
566.7264	0.0019
566.92	-0.0088
567.1136	0.0112
567.3071	-0.0046
567.5006	0.0045
567.6941	0.0078
567.8876	0.0068
568.0811	-0.0025
568.2745	0.0046
568.468	0.0049
568.6614	0.0033
568.8548	0.0073
569.0482	0
569.2416	-0.0012
569.4349	0.0022
569.6283	0.0075
569.8216	-0.0083
570.0149	0.0035
570.2082	0.0072
570.4015	0.0058
570.5947	0.0028
570.788	0.0062
570.9812	0.004
571.1744	-0.0035
571.3676	-0.0063
571.5608	-0.0034
571.754	0.0029
571.9471	0.0036
572.1402	0.0015
572.3333	0.0019
572.5264	-0.0001
572.7195	-0.0001
572.9126	0.0026
573.1057	0.0024
573.2987	0.0036
573.4917	0.0009
573.6847	-0.0099
573.8777	0.0067
574.0707	0.0051
574.2636	-0.006
574.4566	-0.002
574.6495	0.0076
574.8424	0.002
575.0353	0.0019
575.2281	0.0048
575.421	0.0111
575.6138	0.0052
575.8067	0.0003
575.9995	0.0084
576.1923	0.0007
576.385	0.0027
576.5778	0.0051
576.7706	-0
576.9633	0.0071
577.156	0.0052
577.3487	0.0025
577.5414	0.0078
577.734	0.0024
577.9267	-0.0013
578.1193	-0.0111
578.3119	-0.0028
578.5045	0.003
578.6971	-0.0036
578.8897	0.0026
579.0822	0.0005
579.2747	0.0058
579.4673	-0.0076
579.6598	-0.0029
579.8522	0.006
580.0447	-0.0013
580.2372	-0.0062
580.4296	0.003
580.622	0.0025
580.8144	0.0009
581.0068	-0.0007
581.1992	-0.0059
581.3915	-0.0061
581.5839	-0.0078
581.7762	-0.0043
581.9685	-0.0052
582.1608	-0.0033
582.353	0.0009
582.5453	0.0041
582.7375	0.0032
582.9298	0.0019
583.122	0.0042
583.3142	-0
583.5063	-0.0003
583.6985	-0.0036
583.8906	0.0032
584.0827	0.0005
584.2749	0.0033
584.4669	0.0054
584.659	0.0012
584.8511	-0.0025
585.0431	0.0012
585.2352	-0.0016
585.4272	0.0042
585.6192	0.0032
585.8111	0.0019
586.0031	-0.0023
586.195	-0.0003
586.387	0.003
586.5789	-0.0029
586.7708	0.0089
586.9627	0.0096
587.1545	-0.0065
587.3464	-0.0033
587.5382	-0.0003
587.73	0.0036
587.9218	0.0058
588.1136	0.0043
588.3053	0.0104
588.4971	-0.0042
588.6888	0.0035
588.8805	-0.0013
589.0722	0.0074
589.2639	0.006
589.4556	0.0034
589.6472	-0.0015
589.8389	-0.0101
590.0305	-0.0051
590.2221	0.0042
590.4137	-0.0108
590.6052	0.0035
590.7968	-0.0029
590.9883	0
591.1798	0.0035
591.3713	-0.0023
591.5628	0.0043
591.7543	0.0087
591.9458	0.0022
592.1372	0.0053
592.3286	0.0079
592.52	0.0056
592.7114	-0.0021
592.9028	0.0038
593.0941	-0.0028
593.2855	-0.0001
593.4768	-0.0032
593.6681	0.0005
593.8594	-0.0023
594.0506	0.0072
594.2419	0.009
594.4331	0.0056
594.6244	0.0027
594.8156	-0.0043
595.0067	0.0007
595.1979	0.0077
595.3891	0.0037
595.5802	0.0026
595.7713	-0.001
595.9624	-0.0034
596.1535	0.0092
596.3446	0.0031
596.5357	-0.0011
596.7267	0.0053
596.9177	-0.0024
597.1087	-0.0005
597.2997	-0.0038
597.4907	0.004
597.6817	-0.0038
597.8726	0.0039
598.0635	-0.0043
598.2544	0.0023
598.4453	-0.0027
598.6362	-0.0023
598.827	-0.0042
599.0179	-0.0028
599.2087	-0.0006
599.3995	0.0058
599.5903	0.0006
599.7811	0.0028
599.9718	-0.0009
600.1626	0.0012
600.3533	-0.0103
600.544	0.0063
600.7347	0.0035
600.9254	-0.0021
601.116	-0.0094
601.3067	-0.0018
601.4973	-0.0038
601.6879	-0.0015
601.8785	-0.0078
602.0691	0.0023
602.2596	0.0021
602.4502	0.0092
602.6407	0.006
602.8312	0.0007
603.0217	-0.0013
603.2122	0.0076
603.4027	0.0018
603.5931	-0.0004
603.7835	-0.0024
603.9739	-0.0014
604.1643	-0.0006
604.3547	-0.0039
604.5451	-0.0006
604.7354	-0.0032
604.9257	0.0065
605.116	0.0031
605.3063	0.0069
605.4966	0
605.6869	-0.0015
605.8771	0.0065
606.0673	0.0078
606.2575	0.0096
606.4477	0.0075
606.6379	0.0018
606.8281	-0.0016
607.0182	0.0029
607.2083	0.0086
607.3985	-0.0026
607.5885	-0.0015
607.7786	0.0034
607.9687	-0.0054
608.1587	0.0038
608.3488	-0.0024
608.5388	0.0032
608.7288	-0.0007
608.9187	-0.0011
609.1087	-0.0067
609.2986	-0.012
609.4886	0.0027
609.6785	-0.0019
609.8684	0.0049
610.0582	0.0043
610.2481	0.006
610.4379	0.0056
610.6278	0.004
610.8176	0.0021
611.0074	-0.0019
611.1971	-0.0013
611.3869	-0.0022
611.5766	0.0014
611.7664	0.011
611.9561	0.0087
612.1458	0.0071
612.3354	0.0013
612.5251	0.0049
612.7147	0.0082
612.9044	0.0063
613.094	0.0012
613.2836	0.0014
613.4731	-0.0025
613.6627	0.0019
613.8522	0.0016
614.0417	0.0061
614.2313	-0.0019
614.4207	-0.0055
614.6102	0.0035
614.7997	-0.0021
614.9891	-0.0013
615.1785	0.0058
615.3679	0.0017
615.5573	0.0078
615.7467	0.0021
615.9361	-0.0027
616.1254	0.006
616.3147	0.0087
616.504	0.0057
616.6933	0.0089
616.8826	0.0141
617.0718	0.0112
617.2611	0.0011
617.4503	0.0042
617.6395	0.0002
617.8287	0.0033
618.0179	-0.0042
618.207	0.0092
618.3961	0.0054
618.5853	-0.0036
618.7744	0.0078
618.9634	0.0084
619.1525	-0.0005
619.3416	-0
619.5306	0.0077
619.7196	0.0067
619.9086	0.0058
620.0976	0.0077
620.2866	-0.0005
620.4755	0.0094
620.6645	0.0075
620.8534	0.0117
621.0423	0.0075
621.2312	0.0078
621.42	0.0004
621.6089	0.0078
621.7977	0.004
621.9865	-0.007
622.1753	0.0024
622.3641	0.0053
622.5529	0.0098
622.7416	0.008
622.9303	0.0015
623.1191	0.0043
623.3078	-0.0014
623.4964	-0.0029
623.6851	0.0002
623.8737	0.0001
624.0624	0.004
624.251	0.0023
624.4396	0.0023
624.6282	-0.0064
624.8167	0.0008
625.0053	0.0014
625.1938	0.0023
625.3823	0.0057
625.5708	-0.0011
625.7593	-0.0016
625.9477	-0.0006
626.1362	0.0012
626.3246	0.0055
626.513	0.0082
626.7014	0.0061
626.8898	0.0037
627.0781	0.0055
627.2665	-0.0004
627.4548	0.0104
627.6431	0.0069
627.8314	0.0046
628.0197	0.0162
628.2079	-0.0001
628.3962	0.0006
628.5844	0.0104
628.7726	0.0071
628.9608	-0.0008
629.1489	-0.001
629.3371	0.0043
629.5252	0.0037
629.7134	0.0114
629.9015	0.002
630.0895	0.0046
630.2776	0.0034
630.4657	-0.001
630.6537	0.0059
630.8417	-0.0002
631.0297	0.0001
631.2177	-0.0001
631.4057	0.0048
631.5936	-0.0042
631.7815	-0.0049
631.9695	0.0086
632.1574	0.0111
632.3452	0.0127
632.5331	0.0048
632.7209	0.0081
632.9088	0.0116
633.0966	0.0067
633.2844	0.0022
633.4722	0.0069
633.6599	0.0064
633.8477	0.008
634.0354	0.0037
634.2231	0.0013
634.4108	0.0056
634.5985	0.0072
634.7861	0.0103
634.9738	0.0085
635.1614	0.0058
635.349	0.01
635.5366	0.0016
635.7242	0.0042
635.9117	0.0073
636.0993	0.0073
636.2868	0.0047
636.4743	0.0019
636.6618	0.0131
636.8492	0.0067
637.0367	0.0055
637.2241	0.0011
637.4115	-0.0015
637.5989	-0.0002
637.7863	0.0003
637.9737	0.0031
638.161	0.0033
638.3484	-0.0004
638.5357	0.0093
638.723	0.0019
638.9103	0.0063
639.0975	0.0131
639.2848	0.0097
639.472	0.0036
639.6592	0.0053
639.8464	0.0065
640.0336	0.0071
640.2208	-0.0023
640.4079	-0.0043
640.595	-0.0023
640.7821	0.006
640.9692	-0.0027
641.1563	0.0108
641.3434	0.0099
641.5304	-0.0024
641.7174	0.0049
641.9044	0.0028
642.0914	0.0068
642.2784	0.0069
642.4653	0.0102
642.6523	0.0038
642.8392	0.0029
643.0261	0.0084
643.213	0.0096
643.3999	-0.0005
643.5867	0.0029
643.7735	0.0059
643.9604	-0.0021
644.1472	0.0068
644.3339	0.0073
644.5207	0.003
644.7075	0.004
644.8942	0.0034
645.0809	0.0111
645.2676	0.01
645.4543	0.0051
645.6409	0.0078
645.8276	0.0038
646.0142	0.0041
646.2008	0.003
646.3874	0.0008
646.574	0.0055
646.7605	0.0028
646.9471	-0.0076
647.1336	-0.0009
647.3201	-0.0012
647.5066	-0.0061
647.6931	0.0047
647.8795	0.0054
648.0659	0.0101
648.2524	0.0084
648.4388	-0.0021
648.6252	0.0034
648.8115	-0.0004
648.9979	0.0026
649.1842	0.0057
649.3705	0.0071
649.5568	0.0073
649.7431	0.008
649.9294	0.0016
650.1156	0.0053
650.3018	0.0002
650.488	0.0029
650.6742	0.0014
650.8604	0.0033
651.0466	-0.0019
651.2327	0.0074
651.4188	0.0094
651.6049	0.0009
651.791	0.0046
651.9771	0.0083
652.1632	0.0076
652.3492	0.0091
652.5352	0.006
652.7212	-0.0014
652.9072	0.0081
653.0932	0.0063
653.2791	-0.0021
653.465	0.0041
653.651	-0.0002
653.8369	0.0038
654.0227	0.0027
654.2086	0.0102
654.3944	0.0086
654.5803	0.0048
654.7661	-0.0007
654.9519	0.0041
655.1377	-0.0031
655.3234	0.0052
655.5092	-0.0033
655.6949	-0.0054
655.8806	-0.0045
656.0663	-0.0001
656.2519	0.0002
656.4376	-0.0041
656.6232	0.0038
656.8088	0.0056
656.9945	0.0036
657.18	0.0095
657.3656	0.0018
657.5511	-0.0012
657.7367	-0.0006
657.9222	0.0112
658.1077	0.0085
658.2932	0.0136
658.4786	-0.0072
658.6641	0.0034
658.8495	0.0029
659.0349	-0.0006
659.2203	0.01
659.4057	0.0043
659.591	0.0064
659.7764	0.0055
659.9617	0.004
660.147	0.0027
660.3323	0.0146
660.5176	0.0123
660.7028	0.0136
660.888	0.0116
661.0733	0.0114
661.2585	-0.0017
661.4436	0.0013
661.6288	0.0012
661.8139	-0.0021
661.9991	0.0036
662.1842	-0.0012
662.3693	0.004
662.5544	-0.0019
662.7394	-0.0018
662.9245	0.0085
663.1095	0.0015
663.2945	0.004
663.4795	-0.0045
663.6644	0.004
663.8494	-0.0018
664.0343	0.0055
664.2193	-0.0014
664.4042	0.0063
664.589	-0.0001
664.7739	-0.0099
664.9587	-0.002
665.1436	-0.0011
665.3284	0.008
665.5132	0.006
665.698	0.0098
665.8827	0.0041
666.0675	0.0016
666.2522	-0.0046
666.4369	0.0016
666.6216	0.0061
666.8063	0.0006
666.9909	0.0059
667.1756	0.0004
667.3602	0.0151
667.5448	-0
667.7294	0.0133
667.9139	0.0117
668.0985	0.015
668.283	0.001
668.4675	0.0027
668.652	0.0029
668.8365	0.0086
669.0209	0.0081
669.2054	0.0139
669.3898	0.0068
669.5742	0.0049
669.7586	0.0092
669.943	0.0168
670.1273	0.0152
670.3117	0.0086
670.496	0.0098
670.6803	0.0154
670.8646	0.0074
671.0488	-0.0021
671.2331	0.0066
671.4173	0.0045
671.6015	0.0025
671.7857	0.0046
671.9699	0.0033
672.1541	0.0067
672.3382	0.002
672.5223	0.0056
672.7064	-0.0015
672.8905	0.007
673.0746	0.0033
673.2587	0.0011
673.4427	0.0052
673.6267	0.0124
673.8107	0.0111
673.9947	0.006
674.1787	0.0034
674.3626	-0.0034
674.5465	0.0072
674.7304	0.0084
674.9143	0.0105
675.0982	0.0116
675.2821	0.003
675.4659	0.0045
675.6497	0.0047
675.8335	0.0007
676.0173	0.0067
676.2011	0.0034
676.3849	0.0063
676.5686	0.0016
676.7523	0.0035
676.936	0.0066
677.1197	-0.0018
677.3034	-0.0037
677.487	0.0022
677.6706	-0.0018
677.8542	0.0003
678.0378	0.0058
678.2214	0.0062
678.405	0.0081
678.5885	-0.0069
678.772	0.0066
678.9555	-0.0027
679.139	0.0064
679.3225	0.0048
679.5059	-0.0021
679.6894	0.0023
679.8728	0.0052
680.0562	-0.0057
680.2395	-0.0064
680.4229	0.0019
680.6062	0.0093
680.7896	0.0035
680.9729	-0.0041
681.1562	0.0015
681.3394	-0.0001
681.5227	-0.0072
681.7059	0.0077
681.8891	0.0034
682.0723	0.016
682.2555	0.0072
682.4387	-0.0036
682.6218	-0.0084
682.805	0.0051
682.9881	0.0038
683.1712	-0.005
683.3542	-0.0012
683.5373	0.0054
683.7203	-0.0036
683.9034	-0.0038
684.0864	-0.002
684.2694	-0.0038
684.4523	0.0118
684.6353	0.0045
684.8182	0.0138
685.0011	-0.0066
685.184	0.0088
685.3669	0.0021
685.5498	0.0073
685.7326	0.007
685.9154	-0.0005
686.0982	0.0091
686.281	0.0073
686.4638	0.0092
686.6465	-0.0007
686.8293	0.0033
687.012	0.0071
687.1947	-0.0001
687.3774	0.0046
687.56	0.0058
687.7427	0.0052
687.9253	0.0019
688.1079	0.0022
688.2905	0.0136
688.4731	0.0057
688.6556	-0.0015
688.8382	-0.001
689.0207	0.0054
689.2032	-0.0132
689.3857	-0.0068
689.5681	-0.0016
689.7506	-0.0058
689.933	-0.0069
690.1154	-0.002
690.2978	-0.0064
690.4802	0.0008
690.6626	-0.0131
690.8449	-0.005
691.0272	0.0024
691.2095	-0.0074
691.3918	-0.0037
691.5741	0.0046
691.7563	0.0001
691.9386	0.0059
692.1208	0.0055
692.303	0.0026
692.4852	0.0028
692.6673	0.0016
692.8495	-0.0029
693.0316	0.001
693.2137	0.0041
693.3958	0.0073
693.5778	0.001
693.7599	0.0117
693.9419	0.007
694.1239	-0.0023
694.3059	0.0009
694.4879	0.0107
694.6699	0.0053
694.8518	0.0016
695.0337	-0.0032
695.2157	0.0077
695.3975	-0.0005
695.5794	0.0051
695.7613	0.0058
695.9431	-0.0011
696.1249	0.0066
696.3067	0.0096
696.4885	0.0146
696.6703	-0.0005
696.852	0.0045
697.0337	0.0033
697.2154	-0.0024
697.3971	-0.0009
697.5788	0.0014
697.7605	0.0016
697.9421	0.0048
698.1237	0.0036
698.3053	0.0066
698.4869	0.005
698.6685	-0.0097
698.85	-0.0015
699.0315	0.0059
699.213	0.0049
699.3945	0.0029
699.576	0.0141
699.7575	0.0091
699.9389	0.0109
700.1203	0.001
700.3017	-0.0032
700.4831	-0.0005
700.6645	0.0041
700.8458	0.0041
701.0271	-0.0005
701.2084	0.0046
701.3897	0.0023
701.571	0.0141
701.7523	-0.0048
701.9335	0.0029
702.1147	0.0025
702.2959	0.0086
702.4771	0.0059
702.6583	0.0026
702.8394	0.0013
703.0205	0.0035
703.2016	0.0032
703.3827	0.0026
703.5638	0.0156
703.7449	-0.0005
703.9259	0.0108
704.1069	-0.0034
704.2879	0.0055
704.4689	0.0002
704.6499	0.0122
704.8308	-0.0007
705.0117	0.0065
705.1927	0.0034
705.3735	-0.0004
705.5544	-0.0013
705.7353	0.0057
705.9161	-0.0021
706.0969	-0.0067
706.2777	-0.0031
706.4585	-0.0033
706.6393	0.0049
706.82	-0.0053
707.0007	0.0066
707.1815	0.0041
707.3621	0.0026
707.5428	0.0063
707.7235	-0.0031
707.9041	-0.0006
708.0847	-0.0013
708.2653	-0.0072
708.4459	-0.0091
708.6265	-0.0056
708.807	-0.0093
708.9875	-0.011
709.168	-0.0099
709.3485	-0.0108
709.529	-0.0044
709.7095	-0.012
709.8899	-0.005
710.0703	-0.0136
710.2507	0.0007
710.4311	-0.0022
710.6115	-0.0041
710.7918	-0.0119
710.9721	-0.0028
711.1524	-0.0061
711.3327	0.0037
711.513	-0.0003
711.6932	0.0011
711.8735	0.008
712.0537	0.0044
712.2339	0.0031
712.4141	-0.0121
712.5942	-0.003
712.7744	-0.0011
712.9545	-0.0017
713.1346	-0.004
713.3147	0.0026
713.4947	-0.0085
713.6748	0.0024
713.8548	0.0057
714.0348	0.0002
714.2148	-0.0009
714.3948	0.0136
714.5748	-0.0044
714.7547	0.0018
714.9346	0.0048
715.1145	-0.0019
715.2944	-0.0099
715.4743	0.001
715.6541	0.0015
715.834	0.0008
716.0138	-0.0042
716.1936	-0.0058
716.3733	-0.0059
716.5531	0.0092
716.7328	0.002
716.9126	-0.002
717.0923	0.0031
717.2719	0.0012
717.4516	0.0032
717.6312	0.002
717.8109	-0.0089
717.9905	0.002
718.1701	-0.0083
718.3496	-0.006
718.5292	-0.001
718.7087	0.0019
718.8882	-0.0073
719.0677	0.0002
719.2472	-0.0005
719.4267	0.006
719.6061	-0.003
719.7856	0.0055
719.965	0.0083
720.1443	-0.001
720.3237	0.0133
720.5031	0.0035
720.6824	0.0108
720.8617	0.0018
721.041	0.0077
721.2203	0.0081
721.3995	-0.0006
721.5788	0.0031
721.758	0.0094
721.9372	0.0022
722.1164	-0.0016
722.2956	0.0068
722.4747	-0.006
722.6538	0.0006
722.8329	0.008
723.012	0.0003
723.1911	-0.0126
723.3702	0.0023
723.5492	0.0047
723.7282	-0.0039
723.9072	-0.0019
724.0862	-0.0102
724.2652	-0.0022
724.4441	-0.001
724.623	-0.003
724.8019	-0.0002
724.9808	0.0045
725.1597	-0.0104
725.3385	0.0079
725.5174	0.0009
725.6962	0.0024
725.875	-0.0037
726.0538	0.0037
726.2325	-0.0095
726.4112	0.0013
726.59	-0
726.7687	-0.0061
726.9474	0.0061
727.126	-0.0012
727.3047	-0.0084
727.4833	0.0037
727.6619	-0.0018
727.8405	-0.0033
728.0191	-0.0037
728.1976	0.007
728.3762	-0.0056
728.5547	-0.0022
728.7332	-0.0052
728.9116	0.0012
729.0901	-0.0014
729.2686	-0.0003
729.447	-0.006
729.6254	0.0043
729.8038	0.0094
729.9821	-0.0009
730.1605	0.0065
730.3388	0.004
730.5171	0.0065
730.6954	0.005
730.8737	0.008
731.0519	0.0162
731.2302	0.0058
731.4084	0.0109
731.5866	0.0064
731.7648	-0.0017
731.9429	-0.0011
732.1211	-0.0076
732.2992	0.0035
732.4773	-0.0053
732.6554	0.0007
732.8335	0.0072
733.0115	-0.0028
733.1896	0.0025
733.3676	0.0005
733.5456	0.0038
733.7235	0.0033
733.9015	0.0007
734.0794	0.0011
734.2574	0
734.4353	0.0036
734.6131	0.0101
734.791	0.0121
734.9689	0.0003
735.1467	0.0055
735.3245	-0.0032
735.5023	-0.0099
735.68	0.0014
735.8578	0.0042
736.0355	-0.0095
736.2132	-0.001
736.3909	0.0041
736.5686	-0.0045
736.7463	0.0084
736.9239	-0.0028
737.1015	0.0058
737.2791	0.0111
737.4567	0.0088
737.6343	0.0064
737.8118	0.0093
737.9894	0.0084
738.1669	-0.0022
738.3444	-0.0066
738.5218	0.0031
738.6993	-0.0012
738.8767	-0.0065
739.0541	0.0187
739.2315	-0.0103
739.4089	-0.0001
739.5863	0.008
739.7636	-0.004
739.9409	0.0029
740.1182	0.014
740.2955	0.0011
740.4728	-0.0024
740.65	0.0038
740.8272	-0.0012
741.0044	-0.007
741.1816	-0.0014
741.3588	0.006
741.5359	0.001
741.7131	-0.0023
741.8902	0.0034
742.0673	-0.0055
742.2444	-0.003
742.4214	-0.0068
742.5985	-0.0085
742.7755	-0.0057
742.9525	-0.0104
743.1295	-0.0041
743.3064	0.0071
743.4834	0.0104
743.6603	0.0054
743.8372	0.0014
744.0141	0.0088
744.191	0.0133
744.3678	0.0022
744.5446	0.0097
744.7215	0.01
744.8982	0.0003
745.075	0.0042
745.2518	0.0092
745.4285	0.0108
745.6052	-0.0016
745.7819	0.0089
745.9586	-0.0062
746.1353	-0.0037
746.3119	-0.0004
746.4885	-0.0025
746.6651	-0.0087
746.8417	-0.0028
747.0183	-0.005
747.1948	-0.0056
747.3714	0.0004
747.5479	0.008
747.7244	-0.0059
747.9008	0.0146
748.0773	0.0055
748.2537	0.002
748.4301	-0.0101
748.6065	-0.001
748.7829	0.0142
748.9593	0.0009
749.1356	0.0084
749.3119	0.003
749.4882	-0.0075
749.6645	0.0038
749.8408	-0.0105
750.017	-0.0134
750.1933	0.0008
750.3695	-0.0038
750.5457	0.0069
750.7218	-0.0008
750.898	0.0046
751.0741	-0.0047
751.2502	0.0038
751.4263	0.0012
751.6024	0.0018
751.7784	0.005
751.9545	-0.0051
752.1305	0.0042
752.3065	-0.0049
752.4825	-0.0004
752.6584	-0.0115
752.8344	-0.0104
753.0103	-0.0056
753.1862	-0.0058
753.3621	0.0055
753.5379	-0.0006
753.7138	0.0054
753.8896	0.0006
754.0654	0.0069
754.2412	0.0076
754.417	0.0051
754.5927	-0.0028
754.7685	-0.0041
754.9442	0.0037
755.1199	0.0106
755.2956	-0.0013
755.4712	0.0102
755.6469	0.0085
755.8225	0.0051
755.9981	-0.0072
756.1736	0.0119
756.3492	0.0027
756.5248	0.0013
756.7003	0.003
756.8758	0.011
757.0513	-0.0021
757.2267	0.0017
757.4022	0.008
757.5776	-0.0046
757.753	0.0089
757.9284	-0.0007
758.1038	0.0178
758.2791	0.0098
758.4545	-0.0031
758.6298	0.0035
758.8051	0.0052
758.9803	-0.0003
759.1556	0.0004
759.3308	-0.0059
759.506	0.006
759.6812	0.0134
759.8564	0.0059
760.0316	0.0039
760.2067	0.0106
760.3819	0.0066
760.557	0.0115
760.732	0.0098
760.9071	0.0003
761.0821	0.0139
761.2572	0.0093
761.4322	0.0016
761.6072	0.0074
761.7821	0.0002
761.9571	0.0007
762.132	-0.0001
762.3069	-0.003
762.4818	-0.0067
762.6567	-0.0088
762.8316	0.0013
763.0064	-0.0084
763.1812	-0.0048
763.356	-0.0116
763.5308	-0.0043
763.7055	0.0034
763.8803	-0.001
764.055	-0.0002
764.2297	-0.0033
764.4044	-0.0049
764.579	-0.0064
764.7537	-0.0117
764.9283	0.0086
765.1029	-0.0081
765.2775	-0.002
765.4521	-0.0059
765.6266	-0.0057
765.8011	0.0026
765.9756	0.0097
766.1501	0.0005
766.3246	0.0004
766.4991	0.0076
766.6735	-0.0045
766.8479	0.0043
767.0223	0.0179
767.1967	-0.0009
767.371	0.0001
767.5454	0.0014
767.7197	0.0045
767.894	-0.0002
768.0683	-0.005
768.2425	0.008
768.4168	0.0062
768.591	-0.0006
768.7652	0.0042
768.9394	0.0007
769.1135	0.0036
769.2877	0.0078
769.4618	0.0073
769.6359	-0.0021
769.81	-0.0007
769.984	-0.0048
770.1581	-0.0012
770.3321	0.0025
770.5061	-0.004
770.6801	-0.0026
770.8541	0.0016
771.028	-0.0069
771.202	-0.0136
771.3759	0.0098
771.5498	-0.0042
771.7236	-0.0062
771.8975	-0.0021
772.0713	0.0044
772.2451	0.0013
772.4189	0.0058
772.5927	0.0095
772.7665	0.0027
772.9402	0.0071
773.1139	0.011
773.2876	0.0012
773.4613	0.008
773.635	0.0108
773.8086	-0.0118
773.9822	0.0051
774.1558	0.0033
774.3294	0.0035
774.503	-0.0005
774.6765	0.0071
774.8501	0.009
775.0236	0.0037
775.1971	0.0129
775.3705	0.0068
775.544	0.0098
775.7174	-0.0063
775.8908	-0.0025
776.0642	-0.0012
776.2376	-0.0008
776.4109	-0.0103
776.5843	-0.0005
776.7576	0.0056
776.9309	0.0073
777.1041	-0.0038
777.2774	0.0088
777.4506	0.0074
777.6238	-0.0114
777.797	-0.0131
777.9702	0.0045
778.1434	-0.0071
778.3165	-0.0141
778.4896	-0.012
778.6627	0.0039
778.8358	-0.0034
779.0089	-0.0044
779.1819	0.0036
779.3549	0.0064
779.5279	0.005
779.7009	-0.0053
779.8739	0.0075
780.0468	0.0054
780.2197	0.004
780.3926	-0.0034
780.5655	-0.0026
780.7384	0.0149
780.9112	-0.0014
781.0841	0.0008
781.2569	-0.0016
781.4297	0.0114
781.6024	0.0183
781.7752	0.0043
781.9479	0.0146
782.1206	0.0032
782.2933	-0.0071
782.466	0.0075
782.6386	0.0018
782.8113	-0.0054
782.9839	0.0073
783.1565	0.0013
783.329	-0.0004
783.5016	0.0092
783.6741	0.0064
783.8466	-0.0112
784.0191	0.007
784.1916	-0.0047
784.3641	-0.0013
784.5365	0.0016
784.7089	-0.0058
784.8813	-0.0128
785.0537	-0.0019
785.2261	-0.007
785.3984	-0.0142
785.5707	-0.0083
785.743	-0.0023
785.9153	-0.0059
786.0876	0.004
786.2598	-0.0027
786.432	-0.0117
786.6042	0.0083
786.7764	-0.0119
786.9486	-0.0023
787.1207	-0.0175
787.2928	0.0055
787.4649	0.0114
787.637	0.0031
787.8091	-0.0091
787.9811	-0.016
788.1532	0.0018
788.3252	-0.0028
788.4972	-0.0018
788.6691	-0.0125
788.8411	0.0148
789.013	-0.0001
789.1849	0.0039
789.3568	0.004
789.5287	0.0063
789.7005	0.0001
789.8723	-0.0126
790.0442	0.0106
790.2159	0.0034
790.3877	-0.0031
790.5595	-0.0193
790.7312	-0.0059
790.9029	0.0038
791.0746	-0.0209
791.2463	-0.0042
791.4179	-0.0043
791.5896	-0.0227
791.7612	-0.0072
791.9328	-0.0022
792.1044	-0.0114
792.2759	-0.0075
792.4474	-0.0117
792.619	0.0092
792.7905	0.004
792.9619	-0.0004
793.1334	0.0192
793.3048	0.0127
793.4762	-0.0061
793.6476	0.004
793.819	-0.0045
793.9904	0.0144
794.1617	-0.0073
794.333	-0.0092
794.5043	-0.0102
794.6756	-0.0038
794.8469	0.0003
795.0181	-0.0046
795.1893	-0.0035
795.3605	0.0099
795.5317	-0.0023
795.7029	-0.0076
795.874	0.0189
796.0452	0.0099
796.2163	-0.0053
796.3873	0.0258
796.5584	0.0026
796.7294	-0.013
796.9005	0.0071
797.0715	-0.007
797.2425	-0.0097
797.4134	-0.005
797.5844	0.0179
797.7553	-0.0178
797.9262	0.0071
798.0971	-0.0188
798.2679	-0.0162
798.4388	-0.013
798.6096	-0.0041
798.7804	0.0171
798.9512	0.001
799.122	-0.0085
799.2927	0.0074
799.4635	0.0138
799.6342	-0.0052
799.8049	-0.0082
799.9755	0.0095
800.1462	-0.002
800.3168	0.0073
800.4874	0.0073
800.658	0.024
800.8286	-0.0007
800.9991	0.003
801.1696	0.0122
801.3402	0.0124
801.5106	0.011
801.6811	0.0124
801.8516	0.0104
802.022	0.0136
802.1924	-0.0031
802.3628	0.0258
802.5332	0.0024
802.7035	0.0322
802.8739	0.0128
803.0442	-0.0076
803.2145	0.0169
803.3847	-0.0115
803.555	-0.0007
803.7252	-0.0099
803.8954	-0.0049
804.0656	-0.0222
804.2358	0.0017
804.4059	0.0088
804.5761	0.0066
804.7462	-0.001
804.9163	0.003
805.0864	-0.0261
805.2564	-0.0107
805.4264	0.0083
805.5965	-0.0144
805.7665	0.0029
805.9364	-0.0021
806.1064	0.0233
806.2763	0.0051
806.4462	0.0306
806.6161	-0.0108
806.786	0.0184
806.9559	0.0029
807.1257	-0.0059
807.2955	-0.0112
807.4653	-0.0179
807.6351	-0.005
807.8048	-0.0055
807.9746	0.0058
808.1443	0.0134
808.314	0.0074
808.4837	0.0023
808.6533	0.0208
808.8229	0.0263
808.9926	0.0024
809.1622	0.013
809.3317	0.0014
809.5013	0.0029
809.6708	0.014
809.8403	-0.0074
810.0098	-0.0061
810.1793	0.0112
810.3488	-0.0044
810.5182	-0.0133
810.6876	0.0029
810.857	-0.0227
811.0264	0.0188
811.1958	0.0142
811.3651	0.0084
811.5344	-0.0061
811.7037	-0.0097
811.873	-0.0036
812.0422	-0.012
812.2115	0.0012
812.3807	0.0132
812.5499	0.0122
812.7191	0.0124
812.8882	-0.0217
813.0574	-0.0001
813.2265	0.0021
813.3956	-0.0089
813.5646	0.0038
813.7337	-0.0065
813.9027	0.0195
814.0718	0.0278
814.2407	0.0144
814.4097	-0.0007
814.5787	-0.0019
814.7476	0.0067
814.9165	0.0007
815.0854	-0.0103
815.2543	-0.007
815.4232	0.0023
815.592	0.0031
815.7608	0.0177
815.9296	0.0142
816.0984	0.0043
816.2671	0.0152
816.4359	-0.0082
816.6046	0.0068
816.7733	-0.0083
816.942	-0.0001
817.1106	0.0211
817.2793	0.0036
817.4479	0.0136
817.6165	0.0396
817.785	-0.0036
817.9536	-0.0037
818.1221	0.0146
818.2906	0.006
818.4591	-0.0159
818.6276	-0.0052
818.7961	0.0048
818.9645	0.0308
819.1329	0.0144
819.3013	0.0164
819.4697	0.0333
819.638	-0.0022
819.8064	0.0081
819.9747	0.0083
820.143	0.0246
820.3113	-0.0211
820.4795	0.0097
820.6477	0.0243
820.816	0.008
820.9842	0.0489
821.1523	0.0152
821.3205	-0.004
821.4886	0.0002
821.6567	-0.0012
821.8248	0.0288
821.9929	0.0203
822.1609	-0.0017
822.329	-0.0128
822.497	0.0319
822.665	-0.0021
822.833	-0.0228
823.0009	0.0078
823.1688	0.0093
823.3367	0.042
823.5046	0.0146
823.6725	0.0451
823.8404	-0.0029
824.0082	0.0327
824.176	0.02
824.3438	0.0136
824.5116	-0.015
824.6793	-0.0087
824.847	-0.016
825.0147	-0.0069
825.1824	0.0235
825.3501	0.0213
825.5177	-0.0294
825.6854	-0.0057
825.853	0.0028
826.0206	-0.0355
826.1881	0.005
826.3557	-0.0497
826.5232	0.0221
826.6907	-0.0327
826.8582	0.024
827.0257	-0.0043
827.1931	0.0178
827.3605	-0.0126
827.528	-0.0076
827.6953	0.0103
827.8627	0.0145
828.03	0.0232
828.1974	-0.0044
828.3647	-0.0257
828.532	-0.0162
828.6992	-0.009
828.8665	-0.0082
829.0337	-0.0102
829.2009	0.0213
829.3681	-0.0148
829.5352	0.041
829.7024	-0.0387
829.8695	-0.0194
830.0366	0.0426
830.2037	0.0075
830.3707	0.0195
830.5378	0.0035
830.7048	0.0462
830.8718	-0.0173
831.0388	0.0009
831.2057	-0.0029
831.3727	0.0401
831.5396	-0.0031
831.7065	-0.0402
831.8734	-0.0067
832.0402	-0.0062
832.2071	0.017
832.3739	-0.0265
832.5407	0.0218
832.7075	-0.0083
832.8742	-0.0299
833.041	-0.0043
833.2077	0.0235
833.3744	0.057
833.541	0.0132
833.7077	-0.0077
833.8743	-0.0182
834.0409	0.0529
834.2075	-0.0314
834.3741	-0.0027
834.5407	0.0055
834.7072	-0.0171
834.8737	0.0077
835.0402	-0.0388
835.2067	0.0029
835.3731	-0.0196
835.5395	-0.0104
835.706	-0.0174
835.8723	0.0165
836.0387	0.0045
836.2051	-0.022
836.3714	0.0301
836.5377	0.0032
836.704	-0.0358
836.8703	-0.0087
837.0365	0.0153
837.2027	-0.031
837.3689	-0.0212
837.5351	0.0035
837.7013	-0.0054
837.8674	-0.0553
838.0335	-0.038
838.1997	-0.0076
838.3657	-0.0423
838.5318	-0.016
838.6978	0.054
838.8639	0.0433
839.0299	0.0136
839.1958	0.0108
839.3618	0.0118
839.5277	-0.0277
839.6937	0.0156
839.8596	0.0005
840.0254	0.0431
840.1913	0.003
840.3571	0.038
840.523	-0.0103
840.6888	-0.0259
840.8545	-0.0192
841.0203	0.0506
841.186	0.0466
841.3517	0.0123
841.5174	0.0129
841.6831	-0.0106
841.8488	0.0602
842.0144	0.0269
842.18	0.0196
842.3456	0.0227
842.5112	-0.0317
842.6767	0.0035
842.8422	-0.0593
843.0077	-0.0359
843.1732	-0.0176
843.3387	-0.0342
843.5042	-0.0309
843.6696	-0.0558
843.835	-0.0037
844.0004	0.0478
844.1657	0.0222
844.3311	-0.0871
844.4964	-0.119
844.6617	-0.0418
844.827	-0.0209
844.9923	-0.014
845.1575	-0.0052
845.3227	-0.0039
845.4879	-0.0127
845.6531	-0.0006
845.8183	-0.0298
845.9834	-0.0116
846.1485	-0.0329
846.3136	-0.0106
846.4787	-0.0838
846.6438	0.0265
846.8088	-0.0605
846.9738	-0.012
847.1388	0.0549
847.3038	-0.041
847.4687	-0.0817
847.6337	0.0459
847.7986	0.0339
847.9635	-0.0518
848.1284	0.0119
848.2932	0.0641
848.458	-0.0239
848.6228	0.0135
848.7876	0.1236
848.9524	-0.051
849.1172	-0.0295
849.2819	0.0889
849.4466	-0.0888
849.6113	-0.0577
849.7759	0.0567
849.9406	-0.0477
850.1052	0.0151
850.2698	-0.0283
850.4344	0.0254
850.599	-0.0967
850.7635	0.0656
850.928	-0.061
851.0925	0.0269
851.257	0.0498
851.4215	0.0226
851.5859	0.0728
851.7503	-0.0082
851.9147	0.0195
852.0791	-0.0173
852.2434	0.0088
852.4078	0.0266
852.5721	0.0748
852.7364	-0.0632
852.9007	-0.2127
853.0649	-0.0143
853.2291	-0.1046
853.3934	-0.0509
853.5575	-0.0509
853.7217	-0.0381
853.8859	-0.1956
854.05	-0.0167
854.2141	-0.0524
854.3782	-0.0012
854.5423	-0.1378
854.7063	0.1294
854.8703	-0.0768
855.0343	0.005
855.1983	-0.1373
855.3623	0.1162
855.5262	0.0866
855.6901	-0.0383
855.854	0.029
856.0179	-0.0308
856.1818	0.1755
856.3456	-0.1033
856.5094	-0.1325
856.6732	-0.1497
856.837	-0.0687
857.0008	-0.0123
857.1645	0.0301
857.3282	-0.2304
857.4919	0.0215
857.6556	-0.0293
857.8192	0.0508
857.9828	0.066
858.1465	0.0224
858.31	-0.1577
858.4736	-0.1334
858.6372	-0.2746
858.8007	-0.0924
858.9642	0.0263
859.1277	0.1577
859.2911	-0.0658
859.4546	-0.0068
859.618	-0.2791
859.7814	0.2214
859.9448	-0.0584
860.1081	0.1252
860.2715	0.0652
860.4348	0.0343
860.5981	-0.1058
860.7614	0.0113
860.9246	0.1306
861.0879	0.2767
861.2511	-0.0164
861.4143	-0.2403
861.5774	0.0628
861.7406	-0.3552
861.9037	0.0907
862.0668	-0.2413
862.2299	-0.2947
862.393	-0.2939
862.556	-0.0215
862.7191	-0.4813
862.8821	-0.2578
863.0451	0.1091
863.208	0.1944
863.371	0.0602
863.5339	-0.2007
863.6968	0.1926
863.8597	-0.1048
864.0225	-0.1069
864.1854	-0.0381
864.3482	-0.0281
864.511	0.1355
864.6737	-0.0963
864.8365	0.2134
864.9992	-0.518
865.1619	-0.5256
865.3246	-0.0838
865.4873	0.1558
865.65	0.2571
865.8126	-0.1192
865.9752	0.1289
866.1378	-0.2904
866.3004	-0
866.4629	0.2933
866.6254	1.7415
866.7879	-0.2178
866.9504	-0.1379
867.1129	-0
867.2753	0.0258
867.4377	0.1949
867.6001	-0.3109
867.7625	0.1071
867.9249	-0
868.0872	0.0611
868.2495	0.3195
868.4118	-0.2456
868.5741	1.3193
868.7363	-0.2476
868.8986	-0.292
869.0608	-0.1752
869.223	0.3111
869.3851	-0.043
869.5473	0.1511
869.7094	0.3164
869.8715	-0.184
870.0336	-0.5654
870.1957	-0.5792
870.3577	-0
870.5197	0.9535
870.6817	-0.5169
870.8437	-0.2374
871.0057	-0
871.1676	-0.0174
871.3295	-0.0098
871.4914	0.533
871.6533	-0.2894
871.8151	-0.2769
871.977	-0
872.1388	-0
872.3006	-0
872.4623	-0
872.6241	0.5163
872.7858	-0
872.9475	-0.1381
873.1092	0.0857
873.2709	-0.0901
873.4325	-0.2503
873.5941	-0.5914
873.7557	-0.3579
873.9173	-0
874.0789	0.3867
874.2404	-0.2777
874.4019	0.2849
874.5634	-0.3026
874.7249	-0.2588
874.8863	-0.0363
875.0478	0.185
875.2092	-0
875.3706	-0
875.5319	-0.6209
875.6933	1.7388
875.8546	-0.5069
876.0159	0.9142
876.1772	0.7262
876.3385	-0
876.4997	0.4116
876.6609	-0.4162
876.8221	0.8835
876.9833	0.4603
877.1445	-0
877.3056	0.1778
877.4667	-0
877.6278	-0.2595
877.7889	-0.5233
877.9499	-0.7887
878.111	-0.8501
878.272	-0
878.433	-0
878.5939	-0.1175
878.7549	0.0873
878.9158	-0
879.0767	-0
879.2376	-0
879.3984	-0.2933
879.5593	-0
879.7201	-0
879.8809	-0.4639
880.0417	-0.3824
880.2024	0.7277
880.3632	-0.6888
880.5239	0.4493
880.6846	0.8724
880.8452	-2.317
881.0059	-0
881.1665	-0.1814
881.3271	-0
881.4877	-0.6611
881.6483	-0.6096
881.8088	-0.3784
881.9693	0.3711
882.1298	0.3711
882.2903	0.3711
