Data from MonoPyChalIsomerACN10uM440nmA_Absorbance_15-27-16-394.txt Node
Date: Fri Jul 05 15:27:16 BST 2024
User: LASERRRRR
Spectrometer: FLMT03099
Trigger mode: 0
Integration Time (sec): 1.000000E-1
Scans to average: 1
Electric dark correction enabled: true
Nonlinearity correction enabled: false
Boxcar width: 0
XAxis mode: Wavelengths
Number of Pixels in Spectrum: 3648
>>>>>Begin Spectral Data<<<<<
179.3399	-0.138
179.5586	-0.138
179.7771	-0.138
179.9957	0.3778
180.2143	-0.4991
180.4329	-0
180.6514	0.5827
180.8699	-0
181.0885	-0
181.307	0.5264
181.5255	-0
181.744	-0.7156
181.9625	-0
182.181	-0.7611
182.3994	1.4018
182.6179	-0
182.8363	0.2176
183.0547	-0.1931
183.2732	0.0027
183.4916	0.1563
183.71	0.1623
183.9284	0.2974
184.1467	0.026
184.3651	-0.0247
184.5835	-0.1016
184.8018	0.1616
185.0201	-0.0343
185.2385	-0.0167
185.4568	0.2971
185.6751	0.2375
185.8934	0.0415
186.1117	-0.005
186.3299	0.0654
186.5482	0.2757
186.7664	-0.0156
186.9847	0.0365
187.2029	0.0618
187.4211	0.1099
187.6393	-0.1044
187.8575	-0.0923
188.0757	0.3044
188.2939	0.0382
188.512	0.1263
188.7302	-0.0462
188.9483	0.2261
189.1665	0.0542
189.3846	-0.1148
189.6027	0.2653
189.8208	0.0825
190.0389	0.1149
190.257	0.4206
190.475	0.249
190.6931	0.1662
190.9111	0.1831
191.1292	0.0514
191.3472	0.3073
191.5652	0.2795
191.7832	0.2046
192.0012	0.4164
192.2192	0.3467
192.4371	0.2662
192.6551	0.1393
192.873	0.2565
193.091	0.3918
193.3089	0.7828
193.5268	0.5523
193.7447	0.8838
193.9626	0.5294
194.1805	0.6023
194.3984	0.7468
194.6162	0.4323
194.8341	0.532
195.0519	0.5978
195.2697	0.6152
195.4875	0.5434
195.7054	0.5618
195.9231	0.5502
196.1409	0.5872
196.3587	0.6287
196.5765	0.6114
196.7942	0.6002
197.012	0.6495
197.2297	0.6381
197.4474	0.7651
197.6651	0.4652
197.8828	0.5954
198.1005	0.5784
198.3182	0.5315
198.5358	0.9246
198.7535	0.7186
198.9711	0.5607
199.1888	0.5624
199.4064	0.7257
199.624	0.5368
199.8416	0.6553
200.0592	0.5569
200.2767	0.6274
200.4943	0.7442
200.7119	0.7802
200.9294	0.5598
201.1469	0.5185
201.3645	0.6409
201.582	0.5136
201.7995	0.7176
202.017	0.6612
202.2344	0.6869
202.4519	0.8106
202.6694	0.6456
202.8868	0.6294
203.1042	0.7153
203.3217	0.725
203.5391	0.5621
203.7565	0.5678
203.9739	0.6925
204.1913	0.6252
204.4086	0.6358
204.626	0.7277
204.8433	0.721
205.0607	0.6074
205.278	0.6712
205.4953	0.709
205.7126	0.6446
205.9299	0.7746
206.1472	0.7302
206.3644	0.6988
206.5817	0.7425
206.7989	0.7838
207.0162	0.637
207.2334	0.6029
207.4506	0.71
207.6678	0.6538
207.885	0.6262
208.1022	0.6782
208.3194	0.6558
208.5365	0.6328
208.7537	0.7253
208.9708	0.6645
209.1879	0.6444
209.405	0.6351
209.6222	0.7155
209.8392	0.6163
210.0563	0.5993
210.2734	0.7117
210.4905	0.6216
210.7075	0.6688
210.9245	0.634
211.1416	0.6512
211.3586	0.6526
211.5756	0.6024
211.7926	0.6733
212.0096	0.5941
212.2265	0.5224
212.4435	0.6644
212.6604	0.6125
212.8774	0.5846
213.0943	0.546
213.3112	0.5466
213.5281	0.4903
213.745	0.4913
213.9619	0.4877
214.1788	0.4899
214.3956	0.4498
214.6125	0.4783
214.8293	0.4234
215.0461	0.5139
215.2629	0.4478
215.4798	0.507
215.6965	0.4457
215.9133	0.4813
216.1301	0.4251
216.3469	0.4155
216.5636	0.4178
216.7803	0.3814
216.9971	0.4525
217.2138	0.3919
217.4305	0.4026
217.6472	0.3273
217.8639	0.3931
218.0805	0.3691
218.2972	0.3173
218.5138	0.3153
218.7305	0.3139
218.9471	0.3322
219.1637	0.3101
219.3803	0.2914
219.5969	0.2756
219.8135	0.2435
220.0301	0.2874
220.2466	0.2642
220.4632	0.2589
220.6797	0.2325
220.8962	0.2409
221.1127	0.2512
221.3292	0.2449
221.5457	0.2464
221.7622	0.2164
221.9787	0.2539
222.1951	0.2469
222.4116	0.2495
222.628	0.2366
222.8444	0.2514
223.0608	0.2506
223.2772	0.2358
223.4936	0.2719
223.71	0.2389
223.9264	0.2891
224.1427	0.2412
224.3591	0.2556
224.5754	0.2653
224.7917	0.2512
225.008	0.2394
225.2243	0.2421
225.4406	0.3043
225.6569	0.2861
225.8732	0.2502
226.0894	0.2638
226.3057	0.2703
226.5219	0.2676
226.7381	0.2512
226.9543	0.2649
227.1705	0.2703
227.3867	0.2686
227.6029	0.2969
227.8191	0.2835
228.0352	0.308
228.2513	0.3105
228.4675	0.2967
228.6836	0.2918
228.8997	0.2828
229.1158	0.2977
229.3319	0.29
229.548	0.2996
229.764	0.3137
229.9801	0.3168
230.1961	0.3094
230.4121	0.3214
230.6282	0.3295
230.8442	0.3134
231.0602	0.3402
231.2761	0.3462
231.4921	0.3559
231.7081	0.3477
231.924	0.3456
232.14	0.3624
232.3559	0.3456
232.5718	0.3604
232.7877	0.3556
233.0036	0.356
233.2195	0.3501
233.4353	0.3529
233.6512	0.3714
233.867	0.3646
234.0829	0.3582
234.2987	0.3606
234.5145	0.3551
234.7303	0.365
234.9461	0.3985
235.1619	0.3656
235.3776	0.38
235.5934	0.3727
235.8091	0.3694
236.0249	0.3802
236.2406	0.362
236.4563	0.3667
236.672	0.4003
236.8877	0.378
237.1034	0.3909
237.319	0.3832
237.5347	0.39
237.7503	0.3857
237.966	0.4119
238.1816	0.3793
238.3972	0.3968
238.6128	0.3897
238.8284	0.3897
239.0439	0.416
239.2595	0.3861
239.475	0.4148
239.6906	0.4131
239.9061	0.3988
240.1216	0.402
240.3371	0.4126
240.5526	0.4048
240.7681	0.4006
240.9836	0.4086
241.199	0.4084
241.4145	0.3905
241.6299	0.3809
241.8453	0.3702
242.0607	0.4025
242.2761	0.3558
242.4915	0.3661
242.7069	0.3604
242.9223	0.3711
243.1376	0.3585
243.353	0.3408
243.5683	0.3362
243.7836	0.3299
243.9989	0.3317
244.2142	0.3129
244.4295	0.3191
244.6448	0.3026
244.86	0.298
245.0753	0.2965
245.2905	0.2961
245.5057	0.2816
245.721	0.2718
245.9362	0.2708
246.1514	0.2845
246.3665	0.2756
246.5817	0.2565
246.7969	0.2657
247.012	0.2458
247.2271	0.2298
247.4423	0.2536
247.6574	0.2346
247.8725	0.2358
248.0876	0.2279
248.3026	0.2259
248.5177	0.2173
248.7328	0.2154
248.9478	0.2131
249.1628	0.211
249.3779	0.2322
249.5929	0.2015
249.8079	0.2104
250.0228	0.2012
250.2378	0.1948
250.4528	0.2153
250.6677	0.1932
250.8827	0.1994
251.0976	0.198
251.3125	0.1969
251.5274	0.1834
251.7423	0.1864
251.9572	0.1903
252.172	0.176
252.3869	0.181
252.6017	0.1845
252.8166	0.1773
253.0314	0.1822
253.2462	0.1606
253.461	0.1955
253.6758	0.1674
253.8906	0.1789
254.1053	0.1612
254.3201	0.1706
254.5348	0.1743
254.7496	0.1627
254.9643	0.1713
255.179	0.1684
255.3937	0.1694
255.6083	0.1683
255.823	0.1712
256.0377	0.1657
256.2523	0.1765
256.467	0.1507
256.6816	0.1791
256.8962	0.175
257.1108	0.1483
257.3254	0.1768
257.54	0.1547
257.7545	0.1619
257.9691	0.1666
258.1836	0.1527
258.3981	0.1903
258.6127	0.1726
258.8272	0.1621
259.0417	0.179
259.2561	0.1551
259.4706	0.1657
259.6851	0.1657
259.8995	0.1647
260.114	0.1542
260.3284	0.1516
260.5428	0.1639
260.7572	0.1653
260.9716	0.1497
261.186	0.1639
261.4003	0.1615
261.6147	0.1648
261.829	0.1673
262.0433	0.1629
262.2577	0.1706
262.472	0.1745
262.6863	0.159
262.9005	0.1587
263.1148	0.1656
263.3291	0.1588
263.5433	0.1659
263.7576	0.1544
263.9718	0.1715
264.186	0.1647
264.4002	0.1742
264.6144	0.1611
264.8286	0.1734
265.0427	0.1654
265.2569	0.1612
265.471	0.1536
265.6851	0.1667
265.8993	0.1592
266.1134	0.1596
266.3275	0.159
266.5415	0.1513
266.7556	0.1802
266.9697	0.164
267.1837	0.1703
267.3978	0.1613
267.6118	0.1721
267.8258	0.1679
268.0398	0.1618
268.2538	0.1747
268.4677	0.1625
268.6817	0.1545
268.8957	0.1669
269.1096	0.1688
269.3235	0.1676
269.5374	0.1465
269.7514	0.1606
269.9652	0.1603
270.1791	0.1547
270.393	0.155
270.6068	0.1536
270.8207	0.1443
271.0345	0.1411
271.2483	0.1557
271.4622	0.1472
271.676	0.1618
271.8897	0.1469
272.1035	0.1447
272.3173	0.1463
272.531	0.1355
272.7448	0.1423
272.9585	0.1346
273.1722	0.1448
273.3859	0.1507
273.5996	0.1369
273.8133	0.149
274.0269	0.1446
274.2406	0.1391
274.4542	0.1355
274.6679	0.139
274.8815	0.1469
275.0951	0.1491
275.3087	0.1543
275.5223	0.1518
275.7358	0.1482
275.9494	0.1439
276.1629	0.1362
276.3765	0.1467
276.59	0.1523
276.8035	0.1554
277.017	0.1622
277.2305	0.1438
277.444	0.1446
277.6574	0.1465
277.8709	0.1424
278.0843	0.1455
278.2978	0.1411
278.5112	0.1431
278.7246	0.1427
278.938	0.148
279.1513	0.1592
279.3647	0.1548
279.5781	0.1484
279.7914	0.1581
280.0047	0.158
280.2181	0.145
280.4314	0.1583
280.6447	0.1503
280.8579	0.1518
281.0712	0.1556
281.2845	0.1538
281.4977	0.157
281.711	0.1518
281.9242	0.147
282.1374	0.1566
282.3506	0.153
282.5638	0.1595
282.7769	0.1545
282.9901	0.1488
283.2033	0.1573
283.4164	0.1565
283.6295	0.143
283.8426	0.1525
284.0557	0.1511
284.2688	0.1701
284.4819	0.1626
284.695	0.1492
284.908	0.1581
285.1211	0.1538
285.3341	0.1607
285.5471	0.1671
285.7601	0.1572
285.9731	0.1529
286.1861	0.1367
286.3991	0.1567
286.612	0.166
286.825	0.1504
287.0379	0.1689
287.2508	0.1601
287.4637	0.1671
287.6766	0.1572
287.8895	0.1731
288.1024	0.1686
288.3152	0.1715
288.5281	0.15
288.7409	0.1657
288.9538	0.1584
289.1666	0.1636
289.3794	0.1744
289.5922	0.153
289.8049	0.1554
290.0177	0.1728
290.2304	0.1625
290.4432	0.1575
290.6559	0.1589
290.8686	0.1552
291.0813	0.1593
291.294	0.1536
291.5067	0.1816
291.7194	0.1619
291.932	0.1757
292.1447	0.1529
292.3573	0.1546
292.5699	0.1657
292.7825	0.1595
292.9951	0.1665
293.2077	0.1597
293.4203	0.1501
293.6328	0.147
293.8454	0.1654
294.0579	0.1668
294.2704	0.1555
294.4829	0.1483
294.6954	0.1601
294.9079	0.1571
295.1204	0.165
295.3328	0.1617
295.5453	0.1604
295.7577	0.1544
295.9701	0.147
296.1825	0.1657
296.3949	0.1521
296.6073	0.158
296.8197	0.157
297.0321	0.1649
297.2444	0.1571
297.4567	0.1653
297.6691	0.1605
297.8814	0.148
298.0937	0.1555
298.306	0.1688
298.5182	0.1623
298.7305	0.1706
298.9428	0.159
299.155	0.1635
299.3672	0.1595
299.5794	0.1574
299.7916	0.1628
300.0038	0.1586
300.216	0.1584
300.4282	0.1599
300.6403	0.1549
300.8525	0.1555
301.0646	0.1481
301.2767	0.1643
301.4888	0.1628
301.7009	0.1588
301.913	0.1526
302.125	0.1686
302.3371	0.1513
302.5491	0.1618
302.7612	0.1702
302.9732	0.1561
303.1852	0.1722
303.3972	0.1511
303.6092	0.1555
303.8211	0.1403
304.0331	0.1567
304.245	0.1495
304.457	0.153
304.6689	0.1497
304.8808	0.1557
305.0927	0.1426
305.3046	0.158
305.5164	0.137
305.7283	0.1428
305.9401	0.1447
306.152	0.1433
306.3638	0.1495
306.5756	0.1349
306.7874	0.14
306.9992	0.1462
307.2109	0.1394
307.4227	0.1292
307.6344	0.1371
307.8462	0.146
308.0579	0.1272
308.2696	0.1376
308.4813	0.1343
308.693	0.1281
308.9046	0.1366
309.1163	0.1267
309.328	0.1238
309.5396	0.1212
309.7512	0.1102
309.9628	0.1161
310.1744	0.119
310.386	0.1224
310.5976	0.123
310.8091	0.1283
311.0207	0.1085
311.2322	0.1261
311.4437	0.1129
311.6552	0.1132
311.8667	0.1272
312.0782	0.0999
312.2897	0.1038
312.5012	0.1209
312.7126	0.1122
312.924	0.1039
313.1355	0.1159
313.3469	0.1029
313.5583	0.1149
313.7696	0.1098
313.981	0.1025
314.1924	0.099
314.4037	0.1057
314.6151	0.1097
314.8264	0.0921
315.0377	0.094
315.249	0.0997
315.4603	0.1076
315.6716	0.0955
315.8828	0.0996
316.0941	0.1007
316.3053	0.112
316.5165	0.0848
316.7277	0.097
316.9389	0.1066
317.1501	0.0931
317.3613	0.1047
317.5724	0.0909
317.7836	0.1071
317.9947	0.1064
318.2058	0.0975
318.417	0.0945
318.6281	0.0828
318.8391	0.0881
319.0502	0.0945
319.2613	0.1117
319.4723	0.105
319.6834	0.1139
319.8944	0.0915
320.1054	0.1039
320.3164	0.1056
320.5274	0.0929
320.7383	0.0993
320.9493	0.0869
321.1602	0.1292
321.3712	0.0867
321.5821	0.1124
321.793	0.1089
322.0039	0.0951
322.2148	0.1015
322.4257	0.1046
322.6365	0.1043
322.8474	0.1135
323.0582	0.0951
323.269	0.1043
323.4798	0.1157
323.6906	0.1033
323.9014	0.1111
324.1122	0.1003
324.3229	0.1027
324.5337	0.1084
324.7444	0.0887
324.9551	0.1136
325.1658	0.115
325.3765	0.1158
325.5872	0.1095
325.7979	0.0975
326.0085	0.1098
326.2192	0.1057
326.4298	0.109
326.6404	0.095
326.851	0.0909
327.0616	0.1009
327.2722	0.112
327.4828	0.116
327.6933	0.1017
327.9039	0.1145
328.1144	0.115
328.3249	0.1203
328.5354	0.1036
328.7459	0.1085
328.9564	0.0927
329.1669	0.1024
329.3773	0.1035
329.5878	0.1097
329.7982	0.1032
330.0086	0.1091
330.219	0.1066
330.4294	0.1045
330.6398	0.109
330.8502	0.1035
331.0605	0.1182
331.2708	0.1012
331.4812	0.1176
331.6915	0.1051
331.9018	0.1151
332.1121	0.1088
332.3224	0.1183
332.5326	0.1138
332.7429	0.1092
332.9531	0.1222
333.1633	0.1082
333.3735	0.1111
333.5837	0.1028
333.7939	0.107
334.0041	0.1183
334.2143	0.1185
334.4244	0.1
334.6346	0.0949
334.8447	0.131
335.0548	0.1117
335.2649	0.1041
335.475	0.1202
335.685	0.1054
335.8951	0.1102
336.1051	0.1133
336.3152	0.1033
336.5252	0.1155
336.7352	0.118
336.9452	0.1192
337.1552	0.1091
337.3652	0.1043
337.5751	0.1096
337.7851	0.1129
337.995	0.1011
338.2049	0.1129
338.4148	0.1109
338.6247	0.1202
338.8346	0.1033
339.0445	0.103
339.2543	0.1137
339.4642	0.1085
339.674	0.1175
339.8838	0.1029
340.0936	0.1169
340.3034	0.1228
340.5132	0.1191
340.7229	0.1193
340.9327	0.1236
341.1424	0.1117
341.3522	0.1294
341.5619	0.1317
341.7716	0.1262
341.9813	0.1347
342.1909	0.112
342.4006	0.1235
342.6102	0.1217
342.8199	0.1227
343.0295	0.1216
343.2391	0.1272
343.4487	0.1288
343.6583	0.1198
343.8679	0.1279
344.0774	0.1461
344.287	0.1262
344.4965	0.1371
344.706	0.1324
344.9155	0.1237
345.125	0.1303
345.3345	0.1377
345.544	0.1201
345.7534	0.1212
345.9629	0.1323
346.1723	0.1286
346.3817	0.1277
346.5911	0.1274
346.8005	0.1342
347.0099	0.1314
347.2193	0.142
347.4286	0.1247
347.638	0.1408
347.8473	0.1465
348.0566	0.1348
348.2659	0.155
348.4752	0.1284
348.6845	0.1294
348.8937	0.1348
349.103	0.1469
349.3122	0.1273
349.5214	0.1331
349.7306	0.1649
349.9398	0.1458
350.149	0.14
350.3582	0.1355
350.5674	0.1523
350.7765	0.1478
350.9856	0.1424
351.1948	0.1481
351.4039	0.1316
351.613	0.127
351.822	0.1475
352.0311	0.1444
352.2402	0.1405
352.4492	0.1406
352.6582	0.1521
352.8672	0.1407
353.0762	0.1517
353.2852	0.1392
353.4942	0.1352
353.7032	0.1548
353.9121	0.1578
354.1211	0.1444
354.33	0.1576
354.5389	0.1547
354.7478	0.1604
354.9567	0.1461
355.1655	0.1408
355.3744	0.1577
355.5833	0.1645
355.7921	0.1649
356.0009	0.1485
356.2097	0.1687
356.4185	0.1689
356.6273	0.1644
356.8361	0.1752
357.0448	0.1495
357.2536	0.1384
357.4623	0.1488
357.671	0.1658
357.8797	0.15
358.0884	0.1657
358.2971	0.1613
358.5057	0.1781
358.7144	0.1723
358.923	0.1654
359.1316	0.1593
359.3402	0.1567
359.5488	0.1649
359.7574	0.1599
359.966	0.1822
360.1746	0.172
360.3831	0.1642
360.5916	0.1749
360.8002	0.1841
361.0087	0.1698
361.2172	0.1835
361.4256	0.1779
361.6341	0.1944
361.8426	0.1846
362.051	0.1779
362.2594	0.1655
362.4678	0.1936
362.6762	0.1987
362.8846	0.1765
363.093	0.1756
363.3014	0.1811
363.5097	0.1814
363.718	0.1818
363.9264	0.1786
364.1347	0.1665
364.343	0.1867
364.5513	0.1867
364.7595	0.1915
364.9678	0.1874
365.176	0.1993
365.3842	0.195
365.5925	0.1897
365.8007	0.1891
366.0089	0.195
366.217	0.1812
366.4252	0.1884
366.6333	0.2003
366.8415	0.1927
367.0496	0.2004
367.2577	0.2069
367.4658	0.2026
367.6739	0.2063
367.882	0.2003
368.09	0.1969
368.2981	0.206
368.5061	0.1967
368.7141	0.1975
368.9221	0.2124
369.1301	0.2096
369.3381	0.2085
369.5461	0.2008
369.754	0.1985
369.962	0.2028
370.1699	0.2061
370.3778	0.2087
370.5857	0.1893
370.7936	0.2101
371.0015	0.2121
371.2093	0.2161
371.4172	0.2216
371.625	0.1968
371.8328	0.2109
372.0406	0.2232
372.2484	0.1985
372.4562	0.1994
372.664	0.2111
372.8717	0.2316
373.0795	0.1994
373.2872	0.2196
373.4949	0.2149
373.7026	0.2112
373.9103	0.235
374.118	0.2148
374.3256	0.2418
374.5333	0.2255
374.7409	0.2218
374.9485	0.233
375.1561	0.23
375.3637	0.2324
375.5713	0.2221
375.7789	0.2376
375.9864	0.234
376.194	0.2144
376.4015	0.2337
376.609	0.2353
376.8165	0.227
377.024	0.2232
377.2315	0.2348
377.4389	0.231
377.6464	0.2374
377.8538	0.2441
378.0612	0.2209
378.2686	0.2332
378.476	0.2519
378.6834	0.2239
378.8908	0.2412
379.0981	0.2569
379.3055	0.2395
379.5128	0.2199
379.7201	0.2358
379.9274	0.2374
380.1347	0.2282
380.342	0.2556
380.5492	0.2386
380.7565	0.2373
380.9637	0.2392
381.1709	0.2278
381.3781	0.227
381.5853	0.2517
381.7925	0.2532
381.9997	0.2437
382.2068	0.2438
382.4139	0.2551
382.6211	0.2483
382.8282	0.2496
383.0353	0.2501
383.2424	0.2443
383.4494	0.26
383.6565	0.2402
383.8635	0.2524
384.0706	0.2477
384.2776	0.2453
384.4846	0.2235
384.6916	0.2346
384.8986	0.2304
385.1055	0.231
385.3125	0.2585
385.5194	0.2152
385.7263	0.2595
385.9333	0.226
386.1402	0.2394
386.347	0.2538
386.5539	0.2258
386.7608	0.2557
386.9676	0.2405
387.1744	0.2375
387.3813	0.2333
387.5881	0.2265
387.7948	0.2449
388.0016	0.2558
388.2084	0.2336
388.4151	0.2254
388.6219	0.2458
388.8286	0.2442
389.0353	0.2485
389.242	0.2583
389.4487	0.2433
389.6553	0.2332
389.862	0.2315
390.0686	0.2158
390.2753	0.2442
390.4819	0.2222
390.6885	0.2078
390.8951	0.2233
391.1016	0.228
391.3082	0.2238
391.5147	0.2272
391.7213	0.2199
391.9278	0.2207
392.1343	0.2104
392.3408	0.2293
392.5473	0.2123
392.7537	0.2145
392.9602	0.2157
393.1666	0.2236
393.373	0.2163
393.5794	0.2344
393.7858	0.2172
393.9922	0.2038
394.1986	0.2166
394.4049	0.2275
394.6113	0.2088
394.8176	0.1974
395.0239	0.2169
395.2302	0.1936
395.4365	0.2123
395.6428	0.2236
395.8491	0.1975
396.0553	0.2102
396.2615	0.2055
396.4678	0.1953
396.674	0.2031
396.8802	0.1906
397.0863	0.2109
397.2925	0.1914
397.4987	0.1937
397.7048	0.1925
397.9109	0.207
398.117	0.1976
398.3231	0.2036
398.5292	0.2083
398.7353	0.2091
398.9413	0.2058
399.1474	0.1999
399.3534	0.1906
399.5594	0.1832
399.7654	0.2183
399.9714	0.2104
400.1774	0.2061
400.3833	0.1923
400.5893	0.2127
400.7952	0.1961
401.0011	0.1965
401.207	0.2201
401.4129	0.227
401.6188	0.2023
401.8247	0.1869
402.0305	0.2062
402.2364	0.2001
402.4422	0.2196
402.648	0.1961
402.8538	0.2114
403.0596	0.1958
403.2654	0.2141
403.4711	0.2007
403.6768	0.2051
403.8826	0.2124
404.0883	0.1958
404.294	0.2244
404.4997	0.1888
404.7054	0.2122
404.911	0.1943
405.1167	0.2103
405.3223	0.2093
405.5279	0.1926
405.7335	0.2049
405.9391	0.2046
406.1447	0.1872
406.3502	0.2327
406.5558	0.2075
406.7613	0.1946
406.9668	0.2009
407.1724	0.1986
407.3778	0.1928
407.5833	0.1935
407.7888	0.1874
407.9942	0.2213
408.1997	0.2082
408.4051	0.2105
408.6105	0.2012
408.8159	0.1905
409.0213	0.1997
409.2267	0.2057
409.432	0.191
409.6374	0.1992
409.8427	0.2098
410.048	0.1908
410.2533	0.2037
410.4586	0.1994
410.6639	0.1962
410.8691	0.1807
411.0744	0.203
411.2796	0.1891
411.4848	0.1964
411.69	0.19
411.8952	0.2317
412.1004	0.1812
412.3056	0.216
412.5107	0.1868
412.7158	0.2002
412.921	0.1825
413.1261	0.2036
413.3312	0.1877
413.5362	0.1883
413.7413	0.1944
413.9464	0.2017
414.1514	0.1984
414.3564	0.1799
414.5614	0.1878
414.7664	0.1832
414.9714	0.1742
415.1764	0.1903
415.3813	0.2077
415.5863	0.1943
415.7912	0.196
415.9961	0.2003
416.201	0.1987
416.4059	0.1857
416.6108	0.1972
416.8156	0.202
417.0205	0.2027
417.2253	0.1847
417.4301	0.2087
417.6349	0.1896
417.8397	0.1648
418.0445	0.1905
418.2492	0.1819
418.454	0.1841
418.6587	0.1887
418.8634	0.1849
419.0681	0.1806
419.2728	0.1859
419.4775	0.1823
419.6822	0.1819
419.8868	0.16
420.0915	0.1885
420.2961	0.1737
420.5007	0.1841
420.7053	0.1792
420.9099	0.1821
421.1144	0.1717
421.319	0.1762
421.5235	0.1881
421.728	0.183
421.9325	0.1721
422.137	0.1832
422.3415	0.1748
422.546	0.1911
422.7504	0.1699
422.9549	0.1854
423.1593	0.1705
423.3637	0.1685
423.5681	0.1742
423.7725	0.1676
423.9769	0.1661
424.1812	0.168
424.3856	0.1706
424.5899	0.1728
424.7942	0.1801
424.9985	0.1633
425.2028	0.1518
425.4071	0.1932
425.6113	0.1432
425.8156	0.1621
426.0198	0.16
426.224	0.1381
426.4282	0.1543
426.6324	0.1465
426.8366	0.1574
427.0407	0.147
427.2449	0.1536
427.449	0.1657
427.6531	0.1163
427.8572	0.1544
428.0613	0.1438
428.2654	0.1467
428.4694	0.1438
428.6735	0.1453
428.8775	0.1636
429.0815	0.1474
429.2855	0.1334
429.4895	0.1403
429.6935	0.1456
429.8975	0.1494
430.1014	0.1307
430.3053	0.1224
430.5093	0.1337
430.7132	0.1295
430.9171	0.1306
431.1209	0.1376
431.3248	0.1184
431.5286	0.1395
431.7325	0.1298
431.9363	0.1176
432.1401	0.142
432.3439	0.108
432.5477	0.0954
432.7514	0.1009
432.9552	0.1204
433.1589	0.1013
433.3627	0.1087
433.5664	0.109
433.7701	0.131
433.9737	0.1033
434.1774	0.0867
434.3811	0.1068
434.5847	0.1172
434.7883	0.1007
434.9919	0.093
435.1955	0.1172
435.3991	0.0948
435.6027	0.1206
435.8062	0.091
436.0098	0.0954
436.2133	0.0984
436.4168	0.0951
436.6203	0.0921
436.8238	0.0951
437.0272	0.0993
437.2307	0.0943
437.4341	0.1029
437.6375	0.0983
437.841	0.0822
438.0443	0.0887
438.2477	0.1015
438.4511	0.0654
438.6545	0.0889
438.8578	0.0842
439.0611	0.0844
439.2644	0.0801
439.4677	0.0742
439.671	0.0696
439.8743	0.0657
440.0775	0.0677
440.2808	0.0573
440.484	0.0598
440.6872	0.046
440.8904	0.0611
441.0936	0.0909
441.2967	0.0777
441.4999	0.0694
441.703	0.0597
441.9062	0.0466
442.1093	0.0683
442.3124	0.0636
442.5155	0.0586
442.7185	0.067
442.9216	0.0436
443.1246	0.0733
443.3276	0.06
443.5307	0.0561
443.7337	0.0583
443.9366	0.0508
444.1396	0.0419
444.3426	0.0656
444.5455	0.0662
444.7484	0.0486
444.9513	0.0464
445.1542	0.0558
445.3571	0.0434
445.56	0.0499
445.7628	0.0283
445.9657	0.0357
446.1685	0.0556
446.3713	0.0452
446.5741	0.0478
446.7769	0.0381
446.9797	0.0526
447.1824	0.0339
447.3852	0.024
447.5879	0.0436
447.7906	0.0568
447.9933	0.034
448.196	0.0316
448.3986	0.0169
448.6013	0.0227
448.8039	0.0089
449.0066	0.0336
449.2092	0.0515
449.4118	0.0322
449.6143	0.0383
449.8169	0.0282
450.0195	0.0187
450.222	-0.0035
450.4245	0.02
450.627	0.0209
450.8295	0.0204
451.032	0.0393
451.2345	0.0235
451.4369	0.0282
451.6394	0.0321
451.8418	0.018
452.0442	0.011
452.2466	0.0225
452.449	-0.0034
452.6513	0.0216
452.8537	0.0087
453.056	0.0168
453.2583	0.0279
453.4607	0.008
453.663	0.0091
453.8652	0.0171
454.0675	0.0062
454.2697	0.0087
454.472	-0.0067
454.6742	0.0167
454.8764	0.0146
455.0786	0.0149
455.2808	0.0172
455.4829	0.0195
455.6851	0.0172
455.8872	0.0252
456.0893	0.0274
456.2915	0.0006
456.4935	0.0118
456.6956	0.0102
456.8977	0.0229
457.0997	-0.0033
457.3018	0.008
457.5038	0.0121
457.7058	0.0188
457.9078	0.0031
458.1098	0.008
458.3117	0.0079
458.5137	-0.0014
458.7156	0.0152
458.9175	0.0016
459.1194	0.0043
459.3213	0.0121
459.5232	-0.0062
459.725	-0.0101
459.9269	0.0021
460.1287	-0.0016
460.3305	-0.0031
460.5323	0.0067
460.7341	0.0169
460.9359	0.0039
461.1376	0.0065
461.3394	0.0081
461.5411	0.0141
461.7428	0.0028
461.9445	0.0096
462.1462	0.0313
462.3479	0.0095
462.5495	0.0027
462.7512	0.0034
462.9528	-0.0027
463.1544	-0.0045
463.356	0.0046
463.5576	-0.0052
463.7592	-0.0042
463.9607	0.0077
464.1623	0.012
464.3638	0.0132
464.5653	-0.0167
464.7668	-0.0087
464.9683	0.0073
465.1697	0.0266
465.3712	-0.0035
465.5726	-0.0164
465.7741	0.0038
465.9755	-0.0075
466.1769	0.0054
466.3782	-0.0086
466.5796	-0.0012
466.7809	0.0062
466.9823	-0.0123
467.1836	0.0028
467.3849	0.0108
467.5862	0.0162
467.7875	-0.0078
467.9887	0.0123
468.19	0.0067
468.3912	-0.0192
468.5924	0.0119
468.7936	-0.0062
468.9948	0.0053
469.196	0.0104
469.3972	-0.0087
469.5983	0.0062
469.7994	-0.0059
470.0006	0.0028
470.2017	-0.0039
470.4027	0.0009
470.6038	0.005
470.8049	-0.0269
471.0059	-0.0088
471.2069	-0.018
471.408	0.0026
471.6089	0.0136
471.8099	0.0033
472.0109	0.0013
472.2119	-0.0065
472.4128	-0.0202
472.6137	0.0129
472.8146	-0.013
473.0155	0.0026
473.2164	0.0034
473.4173	0.0072
473.6181	0.0067
473.819	0.0109
474.0198	-0.0056
474.2206	-0.0049
474.4214	-0.0034
474.6222	-0.0037
474.8229	-0.0033
475.0237	0.0028
475.2244	-0.0216
475.4251	0.0157
475.6258	-0.0052
475.8265	-0.0072
476.0272	0.0005
476.2278	0.005
476.4285	-0.0063
476.6291	0.0039
476.8297	-0.0034
477.0303	-0.0018
477.2309	0.0039
477.4315	-0.0127
477.632	-0.0076
477.8326	-0.0037
478.0331	0.0049
478.2336	0.0053
478.4341	-0.0068
478.6346	0.0009
478.8351	-0.0074
479.0355	0.0156
479.236	-0.001
479.4364	0.0048
479.6368	-0.0025
479.8372	-0.0044
480.0376	0.0021
480.2379	-0.0167
480.4383	-0.0044
480.6386	0.0082
480.8389	0.0042
481.0392	-0.0097
481.2395	-0.0092
481.4398	-0.0015
481.6401	-0.0006
481.8403	0.0068
482.0405	-0.0034
482.2408	-0.0066
482.441	0.0134
482.6411	0.0014
482.8413	-0.0019
483.0415	-0.0069
483.2416	-0.0055
483.4417	-0.0048
483.6419	-0.0055
483.8419	-0.0092
484.042	0.0026
484.2421	-0.0045
484.4422	-0.0024
484.6422	-0.0015
484.8422	-0.0039
485.0422	-0.0131
485.2422	0.0139
485.4422	-0.0079
485.6422	-0.0083
485.8421	-0.0054
486.042	-0.001
486.242	-0.0074
486.4419	-0.0117
486.6417	-0.0144
486.8416	-0.0017
487.0415	-0.0038
487.2413	-0.0089
487.4411	-0.0072
487.641	-0.0092
487.8408	0.0083
488.0405	-0.0043
488.2403	-0.0101
488.4401	0.0004
488.6398	-0.001
488.8395	-0.0145
489.0392	0.0028
489.2389	-0.0091
489.4386	-0.0102
489.6383	0.0045
489.8379	0.0019
490.0376	-0.0057
490.2372	-0.0146
490.4368	-0.009
490.6364	0.0012
490.836	-0.0098
491.0355	0.0076
491.2351	-0.0019
491.4346	-0.0038
491.6341	-0.0133
491.8336	0.0053
492.0331	-0.0083
492.2326	-0.0047
492.432	-0.005
492.6315	-0.0053
492.8309	-0.0134
493.0303	0.0014
493.2297	-0.0031
493.4291	-0.0016
493.6284	0.0007
493.8278	-0.0028
494.0271	0.0023
494.2264	-0.0021
494.4257	-0.0121
494.625	-0.0034
494.8243	-0.0246
495.0236	-0.0059
495.2228	-0.0066
495.422	0.0025
495.6213	-0.004
495.8205	-0.0034
496.0196	-0.0018
496.2188	0.0014
496.418	-0.0106
496.6171	-0.0075
496.8162	-0.0021
497.0153	0.0026
497.2144	-0.0095
497.4135	-0.0053
497.6126	-0.0093
497.8116	-0.0084
498.0107	-0.0058
498.2097	0.0009
498.4087	-0.0079
498.6077	0.0035
498.8067	-0.0082
499.0056	0.0059
499.2046	-0.0109
499.4035	-0.0125
499.6024	0.0034
499.8013	0.0006
500.0002	-0.0113
500.199	-0.0002
500.3979	-0.0085
500.5967	-0.0108
500.7956	0.003
500.9944	-0.0098
501.1932	0.007
501.3919	0.0007
501.5907	-0.0117
501.7895	0.0022
501.9882	-0.0058
502.1869	-0.0096
502.3856	-0.0042
502.5843	0.0033
502.783	-0.0013
502.9816	-0.01
503.1803	-0.0046
503.3789	-0.0031
503.5775	0.0088
503.7761	-0.0081
503.9747	-0.0056
504.1732	-0.0081
504.3718	-0.0049
504.5703	-0.0016
504.7689	-0.005
504.9674	0.0072
505.1658	-0.0041
505.3643	-0.007
505.5628	-0.0026
505.7612	-0.0014
505.9597	0.0012
506.1581	0.0046
506.3565	0.0099
506.5549	-0.0041
506.7532	-0.017
506.9516	-0.005
507.1499	0.0047
507.3482	-0.0063
507.5465	-0.016
507.7448	0.0049
507.9431	0.0056
508.1414	0.0081
508.3396	0.0031
508.5379	0.0006
508.7361	-0.0047
508.9343	-0.0009
509.1325	0.006
509.3306	0.0003
509.5288	-0.003
509.7269	-0.0034
509.9251	-0.0021
510.1232	-0.01
510.3213	-0.0004
510.5193	-0.003
510.7174	-0.0151
510.9154	-0.0092
511.1135	-0.0026
511.3115	-0.0092
511.5095	0.0028
511.7075	-0.0096
511.9055	-0.0057
512.1034	-0.0097
512.3014	-0.0038
512.4993	0.0016
512.6972	-0.0025
512.8951	-0.0114
513.093	0.0033
513.2908	0.0047
513.4887	0.0016
513.6865	-0.0058
513.8844	-0.0016
514.0822	-0.0041
514.2799	-0.014
514.4777	-0.0163
514.6755	0.0001
514.8732	-0.002
515.0709	-0.0021
515.2687	-0.0102
515.4664	-0.0036
515.664	-0.0047
515.8617	-0.0091
516.0594	-0.006
516.257	-0.0029
516.4546	-0.0124
516.6522	-0.0013
516.8498	0.0035
517.0474	0.0033
517.2449	0.0006
517.4425	-0.0017
517.64	0.0044
517.8375	0.0042
518.035	-0
518.2325	-0
518.43	-0.0079
518.6274	-0.0032
518.8249	-0.0126
519.0223	-0.0086
519.2197	-0.0094
519.4171	-0.0158
519.6145	0.0002
519.8118	0.0008
520.0092	0.0035
520.2065	-0.0089
520.4038	-0.0108
520.6011	-0.0053
520.7984	-0.0059
520.9956	-0.0025
521.1929	-0.0002
521.3901	-0.0002
521.5874	-0.0077
521.7846	-0.0019
521.9818	0.0008
522.1789	-0.0067
522.3761	-0.011
522.5732	-0.0012
522.7704	-0.0043
522.9675	-0.0012
523.1646	-0.0044
523.3617	-0.0036
523.5587	0.0022
523.7558	-0.0055
523.9528	-0.005
524.1498	0.0031
524.3468	0.0022
524.5438	-0.0027
524.7408	-0.0016
524.9378	0.005
525.1347	0.0101
525.3316	0.0006
525.5285	-0
525.7254	-0.0061
525.9223	-0.0008
526.1192	0.0025
526.316	-0.0099
526.5129	0.0068
526.7097	0.003
526.9065	-0.0039
527.1033	0.0039
527.3	0.0073
527.4968	-0.006
527.6935	-0.0106
527.8903	-0.0127
528.087	-0.0093
528.2837	-0.0051
528.4804	0.0021
528.677	-0.0043
528.8737	0.0059
529.0703	0.0031
529.2669	0.0046
529.4635	0.003
529.6601	-0.0017
529.8567	-0.006
530.0532	-0.0015
530.2498	-0.0061
530.4463	0.0033
530.6428	-0.0026
530.8393	0.003
531.0358	-0.0041
531.2322	-0.0024
531.4287	0.0004
531.6251	0.0005
531.8215	0.0039
532.0179	0.0001
532.2143	0.0001
532.4107	-0.005
532.607	-0.0043
532.8034	0.0047
532.9997	0.0031
533.196	0.0028
533.3923	0.0007
533.5886	0.0058
533.7848	0.0115
533.9811	-0.0034
534.1773	0.0085
534.3735	0.0041
534.5697	-0.0079
534.7659	0.0037
534.9621	0.0031
535.1582	-0.0104
535.3544	-0.0094
535.5505	-0.0162
535.7466	0.0053
535.9427	-0.0052
536.1387	-0.008
536.3348	0.0005
536.5308	0.0112
536.7269	-0.0062
536.9229	-0.0058
537.1189	-0.0083
537.3148	0.0035
537.5108	-0.0017
537.7068	-0.0048
537.9027	0.0008
538.0986	-0.0011
538.2945	0.0006
538.4904	0.0022
538.6863	0.0014
538.8821	0.0074
539.078	-0.0042
539.2738	0.0003
539.4696	-0.0011
539.6654	0.0093
539.8611	0.01
540.0569	-0.0041
540.2526	0.0017
540.4484	-0.0014
540.6441	0.0069
540.8398	-0.0001
541.0355	0.0107
541.2311	-0.0086
541.4268	-0.012
541.6224	0.0008
541.818	0.0006
542.0136	-0.0046
542.2092	0.0025
542.4048	0.0037
542.6003	0.0064
542.7959	-0.0046
542.9914	0.0027
543.1869	-0.0037
543.3824	-0.0014
543.5779	0.0053
543.7734	0.0017
543.9688	-0.0068
544.1642	-0.003
544.3596	0.0029
544.555	0.0003
544.7504	0.003
544.9458	0.0011
545.1411	-0.0017
545.3365	0.0052
545.5318	-0.006
545.7271	-0.0002
545.9224	-0.0063
546.1177	0.0043
546.3129	0.0073
546.5081	-0.0024
546.7034	0.0014
546.8986	-0.0021
547.0938	-0.0011
547.289	-0.0055
547.4841	0.0009
547.6793	0.0089
547.8744	-0.0092
548.0695	0.0001
548.2646	-0.0052
548.4597	0.0073
548.6548	-0.0055
548.8498	0.0032
549.0448	0.0131
549.2399	-0.0048
549.4349	0.0109
549.6298	-0.0019
549.8248	0.0065
550.0198	-0.0016
550.2147	0.0046
550.4096	-0.0057
550.6045	-0.0063
550.7994	0.0001
550.9943	-0.0015
551.1892	0.0004
551.384	0.0086
551.5788	-0.0057
551.7737	0.0096
551.9685	-0.0024
552.1632	0.003
552.358	-0.0035
552.5528	0.0029
552.7475	-0.009
552.9422	0.0054
553.1369	0.0073
553.3316	0.0075
553.5263	-0.0005
553.7209	0.0008
553.9156	-0.0008
554.1102	-0.0063
554.3048	-0.0062
554.4994	0.0008
554.694	-0.0026
554.8885	0.0082
555.0831	-0.0066
555.2776	-0.0037
555.4721	-0.0005
555.6666	-0.005
555.8611	0.0071
556.0555	0.0011
556.25	-0.0016
556.4444	-0.0095
556.6388	-0.0031
556.8332	-0.0016
557.0276	-0.0012
557.222	-0.0065
557.4163	-0.0008
557.6107	-0.0004
557.805	0.0053
557.9993	-0.0008
558.1936	0.0038
558.3879	0.0054
558.5821	0.0065
558.7764	-0.0035
558.9706	0.0034
559.1648	0.0055
559.359	-0.0017
559.5532	-0.0041
559.7473	-0.0053
559.9415	0.0008
560.1356	-0.0052
560.3297	-0.0034
560.5238	0.0044
560.7179	0.0003
560.9119	0.0021
561.106	-0.0002
561.3	0.0004
561.494	-0.0028
561.688	-0.008
561.882	-0.0082
562.076	-0.0018
562.2699	-0.0024
562.4639	0.0022
562.6578	0.0008
562.8517	-0.0022
563.0456	-0.0044
563.2395	0.005
563.4333	0.0032
563.6272	0.0071
563.821	0.0007
564.0148	-0.0068
564.2086	-0.0034
564.4024	-0.006
564.5961	0.001
564.7899	0.006
564.9836	-0.0057
565.1773	-0.0038
565.371	0.0033
565.5647	0.0052
565.7584	0.0023
565.952	0.0035
566.1456	0.0073
566.3393	-0.0013
566.5329	0.0024
566.7264	0.0002
566.92	0.0028
567.1136	-0.0006
567.3071	-0.0072
567.5006	0.0019
567.6941	0.0033
567.8876	0.0004
568.0811	-0.0056
568.2745	-0.0005
568.468	0.0052
568.6614	0.0038
568.8548	-0.0038
569.0482	-0.0063
569.2416	0.0018
569.4349	0.0025
569.6283	0.002
569.8216	-0.0006
570.0149	-0.0045
570.2082	0.0085
570.4015	0.0152
570.5947	0.0082
570.788	0.0028
570.9812	0.0043
571.1744	0.0018
571.3676	-0.0031
571.5608	-0.0075
571.754	0.0048
571.9471	0.003
572.1402	0.0045
572.3333	0
572.5264	-0.0002
572.7195	0.0002
572.9126	0.0045
573.1057	0.004
573.2987	-0.0018
573.4917	0.0071
573.6847	-0.0056
573.8777	0.0087
574.0707	0.0026
574.2636	-0.0023
574.4566	-0.0014
574.6495	0.0029
574.8424	-0.0039
575.0353	-0.001
575.2281	0.0078
575.421	0.0021
575.6138	0.0076
575.8067	0.0011
575.9995	0.0021
576.1923	0.0025
576.385	0.0049
576.5778	-0.0005
576.7706	0.0026
576.9633	0.0036
577.156	-0.0012
577.3487	-0.0057
577.5414	-0.0011
577.734	-0.0043
577.9267	0.0088
578.1193	-0.0084
578.3119	-0.0067
578.5045	0.0018
578.6971	-0.0002
578.8897	0.006
579.0822	-0.003
579.2747	0.0088
579.4673	-0.0021
579.6598	0.0003
579.8522	0.0025
580.0447	-0.0046
580.2372	0.0044
580.4296	0.0014
580.622	0.0007
580.8144	0.0001
581.0068	-0.0037
581.1992	-0.001
581.3915	-0.0052
581.5839	-0.0033
581.7762	-0.0042
581.9685	-0.0008
582.1608	0.0018
582.353	0.0011
582.5453	-0.001
582.7375	0.0093
582.9298	-0.0001
583.122	0.0008
583.3142	0.0041
583.5063	0.0079
583.6985	-0.0016
583.8906	-0.0009
584.0827	-0.0004
584.2749	0.0017
584.4669	0.0043
584.659	0.0017
584.8511	0.0012
585.0431	0.0029
585.2352	0.0017
585.4272	-0.0012
585.6192	0.0027
585.8111	0.0052
586.0031	-0.0028
586.195	-0.0043
586.387	0.0069
586.5789	0.0061
586.7708	0.0064
586.9627	0.0011
587.1545	-0.0027
587.3464	0.0045
587.5382	0.0071
587.73	-0.0049
587.9218	0.0007
588.1136	0.0011
588.3053	0.0012
588.4971	-0.005
588.6888	-0.0109
588.8805	0.0023
589.0722	0.0016
589.2639	0.0048
589.4556	0.0024
589.6472	0.0057
589.8389	-0.0048
590.0305	-0.011
590.2221	0.0056
590.4137	-0.009
590.6052	0.0024
590.7968	0.0006
590.9883	0.0061
591.1798	0.0019
591.3713	-0.0012
591.5628	0.0076
591.7543	0.01
591.9458	0.0025
592.1372	0.0041
592.3286	0.0101
592.52	0.0056
592.7114	0.0025
592.9028	-0.0048
593.0941	0.0013
593.2855	0.0032
593.4768	-0.0022
593.6681	-0.003
593.8594	0.0018
594.0506	0.0031
594.2419	0.0077
594.4331	0.0051
594.6244	0.0035
594.8156	-0.0017
595.0067	0.0077
595.1979	0.0038
595.3891	0.005
595.5802	0.0016
595.7713	0.005
595.9624	-0.0013
596.1535	0.0082
596.3446	-0
596.5357	0.0033
596.7267	0.007
596.9177	0.0006
597.1087	-0.0025
597.2997	-0.0038
597.4907	0.0033
597.6817	-0.0063
597.8726	-0.001
598.0635	0.0004
598.2544	-0.0003
598.4453	-0.0029
598.6362	-0.0012
598.827	-0.0004
599.0179	0.0074
599.2087	0.0067
599.3995	0.0001
599.5903	-0.0006
599.7811	0.0032
599.9718	0.005
600.1626	-0.0023
600.3533	-0.0085
600.544	0.0054
600.7347	0.0037
600.9254	-0.0018
601.116	-0.0066
601.3067	0.0012
601.4973	0.0034
601.6879	0.0069
601.8785	0.003
602.0691	0.0004
602.2596	0.0096
602.4502	0.0035
602.6407	-0.0007
602.8312	0.0047
603.0217	0.0015
603.2122	0.0005
603.4027	0.0039
603.5931	0.0091
603.7835	0.0029
603.9739	-0.0019
604.1643	-0.0032
604.3547	-0.0034
604.5451	0.0037
604.7354	-0.001
604.9257	-0.0054
605.116	-0.0022
605.3063	0.0023
605.4966	0.0015
605.6869	0.0039
605.8771	0.0028
606.0673	0.0068
606.2575	0.0111
606.4477	0.0092
606.6379	0.0078
606.8281	0.0024
607.0182	0.0013
607.2083	0.0116
607.3985	-0.005
607.5885	0.0008
607.7786	-0.003
607.9687	-0.0047
608.1587	0.0056
608.3488	0.005
608.5388	0.008
608.7288	0.0015
608.9187	0.0011
609.1087	-0.0064
609.2986	0.0003
609.4886	0.0027
609.6785	-0.0038
609.8684	0.0083
610.0582	0.0057
610.2481	-0.0011
610.4379	0.0047
610.6278	0.0007
610.8176	0.0058
611.0074	0.0055
611.1971	0.004
611.3869	-0.0009
611.5766	-0.0063
611.7664	0.0043
611.9561	0.0078
612.1458	0.008
612.3354	-0.0098
612.5251	0.0058
612.7147	0.0025
612.9044	0.0066
613.094	-0.0073
613.2836	0.001
613.4731	-0.0002
613.6627	0.0003
613.8522	0.0101
614.0417	0.0113
614.2313	0.0047
614.4207	-0.0034
614.6102	0.0029
614.7997	0.0029
614.9891	0.0018
615.1785	0.0022
615.3679	-0.0008
615.5573	0.0127
615.7467	0.0038
615.9361	0.0027
616.1254	0.0062
616.3147	0.0126
616.504	0.0119
616.6933	0.0055
616.8826	0.01
617.0718	0.0069
617.2611	0.0126
617.4503	0.0035
617.6395	0.0006
617.8287	0.0006
618.0179	0.0039
618.207	0.0116
618.3961	0.0085
618.5853	0.0033
618.7744	0.0067
618.9634	0.0074
619.1525	0.002
619.3416	0.0038
619.5306	0.0105
619.7196	0.0032
619.9086	0.0053
620.0976	0.0085
620.2866	-0
620.4755	0.0102
620.6645	0.009
620.8534	0.0089
621.0423	0.0038
621.2312	0.0063
621.42	0.0048
621.6089	0.0077
621.7977	0.0092
621.9865	-0.0019
622.1753	0.0101
622.3641	0.0028
622.5529	0.0076
622.7416	0.0102
622.9303	0.0035
623.1191	0.0025
623.3078	-0.0017
623.4964	0.003
623.6851	-0.003
623.8737	-0.0032
624.0624	0.0131
624.251	0.0049
624.4396	0.0069
624.6282	0.0012
624.8167	-0.0005
625.0053	0.005
625.1938	0.0113
625.3823	0.0083
625.5708	-0.0001
625.7593	-0.0018
625.9477	-0.0018
626.1362	0.0033
626.3246	-0.004
626.513	0.0088
626.7014	0.0043
626.8898	0.0052
627.0781	0.0037
627.2665	0.0069
627.4548	0.0108
627.6431	0.0031
627.8314	0.0097
628.0197	0.0123
628.2079	-0.0007
628.3962	0.0032
628.5844	0.0038
628.7726	0.0097
628.9608	0.0066
629.1489	0.0025
629.3371	0.0053
629.5252	0.0015
629.7134	0.0045
629.9015	0.0084
630.0895	0.0005
630.2776	0.003
630.4657	0.0042
630.6537	0.0052
630.8417	-0.0017
631.0297	-0.0012
631.2177	0.0071
631.4057	0.0043
631.5936	0.006
631.7815	-0.0043
631.9695	0.0046
632.1574	0.0145
632.3452	0.0119
632.5331	0.0081
632.7209	0.0042
632.9088	0.0198
633.0966	0.0133
633.2844	0.0027
633.4722	0.0081
633.6599	0.0053
633.8477	0.0039
634.0354	0.0003
634.2231	0.0016
634.4108	0.0107
634.5985	0.0069
634.7861	0.0047
634.9738	0.0015
635.1614	0.0079
635.349	0.0063
635.5366	0.0002
635.7242	0.0067
635.9117	0.0121
636.0993	0.0079
636.2868	0.0065
636.4743	-0
636.6618	0.0176
636.8492	0.0064
637.0367	0.0053
637.2241	0.0001
637.4115	0.0005
637.5989	0.0005
637.7863	0.0005
637.9737	0.0025
638.161	0.0033
638.3484	0.0034
638.5357	0.0078
638.723	-0.0028
638.9103	0.0066
639.0975	0.004
639.2848	0.0066
639.472	0.0132
639.6592	0.0066
639.8464	0.0114
640.0336	0.0106
640.2208	-0.0013
640.4079	0.0039
640.595	0.0026
640.7821	-0.0005
640.9692	0.0036
641.1563	0.0022
641.3434	0.007
641.5304	0.0033
641.7174	0.0041
641.9044	0.0027
642.0914	0.0094
642.2784	0.0047
642.4653	0.0094
642.6523	0.0081
642.8392	-0.001
643.0261	0.0094
643.213	0.0109
643.3999	-0.0013
643.5867	-0.0008
643.7735	0.0103
643.9604	-0.0038
644.1472	0.0106
644.3339	0.0066
644.5207	0.0068
644.7075	0.0017
644.8942	0.0054
645.0809	0.0113
645.2676	0.0167
645.4543	0.002
645.6409	0.0047
645.8276	0.0088
646.0142	0.0151
646.2008	0.0016
646.3874	-0.0029
646.574	0.002
646.7605	-0.0045
646.9471	-0.0091
647.1336	0.0023
647.3201	0.0063
647.5066	-0.0016
647.6931	0.0087
647.8795	0.0061
648.0659	0.0104
648.2524	0.0154
648.4388	-0.0033
648.6252	0.0101
648.8115	0.0022
648.9979	0.0049
649.1842	0.0043
649.3705	0.0048
649.5568	0.0043
649.7431	0.0045
649.9294	0.0018
650.1156	0.0023
650.3018	-0.001
650.488	0.005
650.6742	0.0086
650.8604	0.0094
651.0466	0.0028
651.2327	0.0004
651.4188	0.0026
651.6049	0.006
651.791	0.0044
651.9771	0.0101
652.1632	0.0102
652.3492	0.005
652.5352	0.0051
652.7212	-0.0007
652.9072	0.0098
653.0932	0.0081
653.2791	0.0054
653.465	0.0088
653.651	0.0007
653.8369	0.0082
654.0227	0.0012
654.2086	0.0091
654.3944	0.0089
654.5803	-0.0023
654.7661	0.0039
654.9519	-0
655.1377	0.0044
655.3234	-0.0003
655.5092	-0.0051
655.6949	0.0001
655.8806	-0.0044
656.0663	0.0034
656.2519	-0.0009
656.4376	0.0041
656.6232	0.0068
656.8088	0.0046
656.9945	0.0081
657.18	0.0018
657.3656	0.0036
657.5511	-0.0035
657.7367	0.0015
657.9222	0.0106
658.1077	0.0031
658.2932	0.008
658.4786	-0.0079
658.6641	-0.0069
658.8495	-0.0007
659.0349	0.0039
659.2203	0.0072
659.4057	0.0044
659.591	0.0003
659.7764	-0.0006
659.9617	0.0051
660.147	0.001
660.3323	0.0096
660.5176	0.0122
660.7028	0.0085
660.888	0.0107
661.0733	0.0052
661.2585	0
661.4436	0.0016
661.6288	0.0042
661.8139	-0.0065
661.9991	-0.0024
662.1842	-0.0025
662.3693	0.0011
662.5544	-0.0005
662.7394	0.0008
662.9245	0.0028
663.1095	0.0047
663.2945	0.0086
663.4795	0.0004
663.6644	0.0092
663.8494	0.0008
664.0343	0
664.2193	-0.0066
664.4042	0.0033
664.589	-0.009
664.7739	0.0058
664.9587	-0.008
665.1436	0.0041
665.3284	-0.0052
665.5132	0.0043
665.698	0.0067
665.8827	0.0043
666.0675	0.0065
666.2522	0.0011
666.4369	0.0086
666.6216	0.0094
666.8063	-0.0011
666.9909	0.0019
667.1756	-0.0012
667.3602	0.0026
667.5448	0.0043
667.7294	0.0057
667.9139	0.0092
668.0985	0.0234
668.283	0.0057
668.4675	-0.0004
668.652	0.005
668.8365	0.0027
669.0209	0.0102
669.2054	0.0157
669.3898	0.0069
669.5742	0.011
669.7586	0.0077
669.943	0.0085
670.1273	0.013
670.3117	0.0092
670.496	0.0115
670.6803	0.0143
670.8646	0.0135
671.0488	0.0046
671.2331	0.0157
671.4173	0.0085
671.6015	0.0016
671.7857	0.0099
671.9699	0.0089
672.1541	0.0065
672.3382	0.0034
672.5223	0.0103
672.7064	0.0059
672.8905	0.0098
673.0746	0.0046
673.2587	0.0004
673.4427	-0.0024
673.6267	0.0089
673.8107	0.0086
673.9947	0.0126
674.1787	0.0044
674.3626	0.0019
674.5465	0.0057
674.7304	0.0068
674.9143	0.006
675.0982	0.0215
675.2821	-0.0007
675.4659	0.0109
675.6497	0.011
675.8335	0.0077
676.0173	0.0078
676.2011	0.0093
676.3849	0.0016
676.5686	-0.0011
676.7523	0.0076
676.936	-0.0008
677.1197	0.0023
677.3034	-0.01
677.487	0.013
677.6706	0.0031
677.8542	0.0087
678.0378	0.0042
678.2214	0.0043
678.405	0.0074
678.5885	-0.0044
678.772	0.0082
678.9555	-0.005
679.139	-0.0007
679.3225	0.007
679.5059	0.0046
679.6894	0.0023
679.8728	0.0017
680.0562	-0.0063
680.2395	-0.0024
680.4229	0.0013
680.6062	0.0127
680.7896	0.0044
680.9729	0.0034
681.1562	0.0086
681.3394	0.0016
681.5227	-0.0043
681.7059	-0.005
681.8891	-0.0017
682.0723	0.0135
682.2555	0.0074
682.4387	0.0067
682.6218	-0.0007
682.805	0.0126
682.9881	0.0097
683.1712	0.0016
683.3542	0.0029
683.5373	0.0003
683.7203	-0.0013
683.9034	0.0087
684.0864	-0.0036
684.2694	0.0013
684.4523	-0.0012
684.6353	-0.008
684.8182	0.0006
685.0011	-0.0015
685.184	0.0008
685.3669	-0.0011
685.5498	0.0085
685.7326	0.0027
685.9154	0.0039
686.0982	0.0089
686.281	0.0076
686.4638	0.0025
686.6465	-0.0037
686.8293	-0.0049
687.012	0.0066
687.1947	0.0002
687.3774	0.0011
687.56	0.0016
687.7427	0.0118
687.9253	0.0009
688.1079	0.0008
688.2905	0.0105
688.4731	0.0017
688.6556	0.0085
688.8382	-0.0008
689.0207	0.0021
689.2032	-0.0066
689.3857	-0.0049
689.5681	0.0032
689.7506	-0.0089
689.933	-0.0099
690.1154	-0.0025
690.2978	-0.0078
690.4802	0.0001
690.6626	-0.0105
690.8449	-0.002
691.0272	0.0087
691.2095	0
691.3918	-0.0016
691.5741	0.0016
691.7563	0.0006
691.9386	0.0056
692.1208	0.0047
692.303	0.0053
692.4852	0.0019
692.6673	0.0036
692.8495	-0.0011
693.0316	0.0022
693.2137	0.0043
693.3958	0.0117
693.5778	0.0061
693.7599	0.0073
693.9419	0.0022
694.1239	0.0007
694.3059	0.0046
694.4879	0.0093
694.6699	0.0121
694.8518	0.0067
695.0337	0.0044
695.2157	0.0082
695.3975	0.0067
695.5794	0.0154
695.7613	0.0073
695.9431	0.0073
696.1249	0.0061
696.3067	0.0066
696.4885	0.0104
696.6703	0.002
696.852	0.0043
697.0337	0.0035
697.2154	0.0057
697.3971	0.0069
697.5788	0.0098
697.7605	0.0059
697.9421	0.0019
698.1237	0.0042
698.3053	0.0125
698.4869	0.0044
698.6685	-0.0012
698.85	-0.0026
699.0315	0.0077
699.213	0.0044
699.3945	0.0041
699.576	0.0065
699.7575	-0.0001
699.9389	0.0148
700.1203	0.0083
700.3017	0.006
700.4831	-0.007
700.6645	0.0056
700.8458	0.0077
701.0271	0.0029
701.2084	0.0083
701.3897	0.0026
701.571	0.0144
701.7523	-0.0059
701.9335	0.0055
702.1147	0.0088
702.2959	0.0093
702.4771	0.0015
702.6583	0.0093
702.8394	-0.0024
703.0205	0.0083
703.2016	0.005
703.3827	0.0069
703.5638	0.0205
703.7449	0.0076
703.9259	0.012
704.1069	-0.005
704.2879	0.0033
704.4689	0.0018
704.6499	-0.0005
704.8308	-0.0002
705.0117	0.0075
705.1927	0.0079
705.3735	0.0029
705.5544	-0.0001
705.7353	0.0018
705.9161	-0.0102
706.0969	-0.0011
706.2777	-0.0005
706.4585	0.0078
706.6393	0.0018
706.82	-0.0004
707.0007	0.0004
707.1815	0.0024
707.3621	0.004
707.5428	0.0022
707.7235	-0.0005
707.9041	0.0061
708.0847	-0.0116
708.2653	-0.0042
708.4459	-0.0113
708.6265	-0.0034
708.807	-0.0022
708.9875	-0.0102
709.168	-0.0038
709.3485	-0.0074
709.529	-0.0046
709.7095	-0.0113
709.8899	-0.004
710.0703	-0.0142
710.2507	-0.0004
710.4311	-0
710.6115	-0.0089
710.7918	-0.0066
710.9721	0.0001
711.1524	-0.0073
711.3327	-0.0019
711.513	-0.0015
711.6932	0.0028
711.8735	0.016
712.0537	0.002
712.2339	-0.0017
712.4141	-0.0063
712.5942	0.0006
712.7744	0.0008
712.9545	-0.0047
713.1346	0.002
713.3147	0.0011
713.4947	-0.0012
713.6748	0.0046
713.8548	-0.0022
714.0348	-0.0081
714.2148	-0.0031
714.3948	0.0044
714.5748	-0.002
714.7547	0.0007
714.9346	0.0089
715.1145	0.0019
715.2944	-0.0009
715.4743	0.0003
715.6541	-0.0022
715.834	0.0053
716.0138	-0.0019
716.1936	-0.0069
716.3733	0.0014
716.5531	0.0013
716.7328	0.0064
716.9126	-0.0047
717.0923	0.0065
717.2719	-0.0001
717.4516	0.0058
717.6312	-0.0018
717.8109	-0.0019
717.9905	-0.0009
718.1701	-0.0087
718.3496	-0.0131
718.5292	-0.0035
718.7087	-0.0077
718.8882	-0.004
719.0677	0.0047
719.2472	-0.0033
719.4267	-0.0025
719.6061	-0.0007
719.7856	0.0124
719.965	0.0066
720.1443	-0.0009
720.3237	0.012
720.5031	0.0009
720.6824	0.0039
720.8617	-0.0039
721.041	0.0047
721.2203	-0.0018
721.3995	0.0073
721.5788	0.0072
721.758	0.0088
721.9372	0.0019
722.1164	-0.001
722.2956	0.0082
722.4747	0.0087
722.6538	0.0013
722.8329	0.0104
723.012	0.0002
723.1911	0.0037
723.3702	0.0018
723.5492	0.0046
723.7282	-0.0027
723.9072	0.0086
724.0862	-0.0046
724.2652	0.0048
724.4441	-0.0023
724.623	0.0046
724.8019	0.0035
724.9808	0.0009
725.1597	-0.0084
725.3385	0.003
725.5174	-0.0024
725.6962	-0.0052
725.875	0.0041
726.0538	0.0041
726.2325	-0.003
726.4112	-0.0015
726.59	-0.0021
726.7687	-0.0044
726.9474	0.0048
727.126	0.0027
727.3047	-0.0031
727.4833	-0.0002
727.6619	-0.005
727.8405	-0.0092
728.0191	0.0009
728.1976	0.0052
728.3762	0.0039
728.5547	0.0032
728.7332	-0.0096
728.9116	-0.0053
729.0901	0.0079
729.2686	-0.005
729.447	0.005
729.6254	0.0052
729.8038	0.0056
729.9821	-0.0021
730.1605	0.0075
730.3388	0.0056
730.5171	0.0097
730.6954	0.0026
730.8737	0.0044
731.0519	-0.0018
731.2302	0.0042
731.4084	0.0068
731.5866	0.0155
731.7648	0.0032
731.9429	-0.0027
732.1211	-0.0015
732.2992	0.0016
732.4773	0.0016
732.6554	-0.0014
732.8335	-0.0005
733.0115	0.004
733.1896	0.0038
733.3676	-0.0041
733.5456	0.0046
733.7235	-0.0064
733.9015	-0.0028
734.0794	-0.0007
734.2574	0.0032
734.4353	0.0035
734.6131	0.0074
734.791	0.0019
734.9689	0.0035
735.1467	0.0176
735.3245	-0.0003
735.5023	-0.0026
735.68	0.0029
735.8578	0.0026
736.0355	-0.0162
736.2132	0.0065
736.3909	-0.0034
736.5686	-0.0053
736.7463	0.0027
736.9239	-0.0034
737.1015	0.001
737.2791	0.0034
737.4567	0.0034
737.6343	0.004
737.8118	0.006
737.9894	0.0084
738.1669	-0.0027
738.3444	-0.0022
738.5218	0.0038
738.6993	0.0105
738.8767	0.0025
739.0541	0.0133
739.2315	-0.0038
739.4089	0.0019
739.5863	0.0009
739.7636	-0.001
739.9409	0.0055
740.1182	0.0048
740.2955	0.01
740.4728	0.0024
740.65	-0.0038
740.8272	0.0005
741.0044	-0.005
741.1816	0.0092
741.3588	-0.0015
741.5359	0.0054
741.7131	-0.0085
741.8902	0.004
742.0673	0.003
742.2444	-0.0134
742.4214	-0.0041
742.5985	-0.0015
742.7755	-0.0048
742.9525	-0.0182
743.1295	0.0028
743.3064	0.0022
743.4834	0.0104
743.6603	-0.0046
743.8372	0.0092
744.0141	0.0135
744.191	0.0178
744.3678	-0.0009
744.5446	0.006
744.7215	0.012
744.8982	-0.0013
745.075	-0.0045
745.2518	0.0043
745.4285	0.0083
745.6052	-0.0013
745.7819	-0
745.9586	-0.0045
746.1353	0.009
746.3119	-0.0032
746.4885	-0.0072
746.6651	0.0009
746.8417	-0.0023
747.0183	-0.0028
747.1948	0.0019
747.3714	-0.0002
747.5479	0.0079
747.7244	-0.0021
747.9008	0.0133
748.0773	0.0189
748.2537	0.0007
748.4301	0.0022
748.6065	0.0059
748.7829	0.0116
748.9593	-0.002
749.1356	-0.0017
749.3119	0.0047
749.4882	-0.002
749.6645	-0.0007
749.8408	0.0003
750.017	-0.0098
750.1933	0.0071
750.3695	-0.0058
750.5457	0.0057
750.7218	0.0049
750.898	0.0047
751.0741	0.0026
751.2502	0.0021
751.4263	-0.0034
751.6024	-0.0024
751.7784	0.0024
751.9545	-0.0063
752.1305	-0.0048
752.3065	-0.0036
752.4825	0.008
752.6584	-0.0131
752.8344	-0.0017
753.0103	-0.0098
753.1862	-0.0016
753.3621	0.0031
753.5379	0.0022
753.7138	0.0007
753.8896	0.0049
754.0654	0.0034
754.2412	0.007
754.417	0.0069
754.5927	-0.0019
754.7685	-0.0027
754.9442	-0.0021
755.1199	0.0125
755.2956	0.0017
755.4712	0.0121
755.6469	0.0021
755.8225	0.0078
755.9981	0.0043
756.1736	0.0146
756.3492	0.0079
756.5248	0.004
756.7003	0.0014
756.8758	0.0076
757.0513	-0.0048
757.2267	-0.0015
757.4022	0.0118
757.5776	0.0018
757.753	0.0155
757.9284	0.0052
758.1038	0.0117
758.2791	0.0027
758.4545	-0.0018
758.6298	-0.0012
758.8051	0.0061
758.9803	0.0023
759.1556	0.0001
759.3308	-0.0073
759.506	0.0083
759.6812	-0.0034
759.8564	0.006
760.0316	0.0013
760.2067	0.0053
760.3819	0.0171
760.557	0.0154
760.732	0.0121
760.9071	-0.0019
761.0821	-0.0009
761.2572	0.0115
761.4322	-0.002
761.6072	0.0031
761.7821	0.0014
761.9571	0.0126
762.132	-0.0038
762.3069	-0.0059
762.4818	0.0012
762.6567	0.0034
762.8316	0.0051
763.0064	0.0012
763.1812	-0.0084
763.356	-0.0087
763.5308	-0.0025
763.7055	0.0066
763.8803	0.0019
764.055	-0.0032
764.2297	0.0006
764.4044	-0.008
764.579	-0.0056
764.7537	-0.0047
764.9283	0.0055
765.1029	0.0034
765.2775	-0.0053
765.4521	-0.0088
765.6266	0.0011
765.8011	-0.0006
765.9756	-0.005
766.1501	0.005
766.3246	0.0061
766.4991	0.0021
766.6735	0.0143
766.8479	0.0024
767.0223	0.0121
767.1967	0.0019
767.371	0.0056
767.5454	0.0064
767.7197	0.0109
767.894	-0.0038
768.0683	-0.0057
768.2425	0.0024
768.4168	-0.0011
768.591	-0.0055
768.7652	0.0004
768.9394	-0.0031
769.1135	0.0038
769.2877	0.0137
769.4618	-0.0102
769.6359	0.0014
769.81	0.0118
769.984	0.0086
770.1581	-0.0035
770.3321	0.0029
770.5061	0.001
770.6801	-0.0122
770.8541	0.0046
771.028	-0.0042
771.202	-0.0166
771.3759	-0.0082
771.5498	-0.0121
771.7236	-0.0005
771.8975	0.0005
772.0713	-0.0041
772.2451	0.0134
772.4189	0.0073
772.5927	0.0039
772.7665	-0.0003
772.9402	0.0003
773.1139	0.0022
773.2876	0.0015
773.4613	0.0111
773.635	0.0097
773.8086	-0.0128
773.9822	0.0081
774.1558	-0.0003
774.3294	0.0001
774.503	0.0068
774.6765	0.0057
774.8501	0.0189
775.0236	0.0076
775.1971	0.0117
775.3705	-0.0105
775.544	0.0031
775.7174	-0.0068
775.8908	0.0102
776.0642	-0.0029
776.2376	0.0081
776.4109	-0.0078
776.5843	-0.0009
776.7576	0.008
776.9309	0.0148
777.1041	0.003
777.2774	0.0017
777.4506	0.0003
777.6238	-0.0002
777.797	-0.0077
777.9702	0.0104
778.1434	0.0067
778.3165	-0.0076
778.4896	-0.0121
778.6627	0.0073
778.8358	0.0031
779.0089	0.0027
779.1819	0.0051
779.3549	0.0104
779.5279	0.0159
779.7009	0.0046
779.8739	-0.0039
780.0468	0.0027
780.2197	0.0079
780.3926	-0.004
780.5655	0.0091
780.7384	0.0031
780.9112	-0.0046
781.0841	0.0018
781.2569	0.0087
781.4297	0.0036
781.6024	0.0123
781.7752	0.0063
781.9479	0.0117
782.1206	0.0007
782.2933	-0.007
782.466	0.0069
782.6386	0.0099
782.8113	0.0049
782.9839	-0.0023
783.1565	0.0225
783.329	-0.0072
783.5016	-0.0044
783.6741	-0.0002
783.8466	-0.0092
784.0191	0.0086
784.1916	-0.0112
784.3641	0.0043
784.5365	-0.0041
784.7089	-0.0003
784.8813	-0.0021
785.0537	0.0025
785.2261	-0.012
785.3984	-0.0174
785.5707	-0.0088
785.743	0.0046
785.9153	-0.008
786.0876	0.0029
786.2598	-0.0175
786.432	-0.0115
786.6042	-0.0082
786.7764	-0.0102
786.9486	0.0092
787.1207	-0.0122
787.2928	0.0026
787.4649	0.0063
787.637	0.0064
787.8091	0.0026
787.9811	-0.0012
788.1532	-0.0032
788.3252	0.0114
788.4972	-0.0149
788.6691	0.0048
788.8411	0.0035
789.013	-0.0021
789.1849	-0.0025
789.3568	0.0019
789.5287	0.0074
789.7005	0.0069
789.8723	0.0093
790.0442	0.0011
790.2159	0.009
790.3877	0.0001
790.5595	-0.0156
790.7312	-0.0108
790.9029	-0.001
791.0746	-0.0086
791.2463	-0.0018
791.4179	-0.0085
791.5896	-0.018
791.7612	0.0028
791.9328	-0.0045
792.1044	-0.0136
792.2759	-0.0096
792.4474	-0.0078
792.619	-0.0038
792.7905	-0.0062
792.9619	0.0096
793.1334	0.0167
793.3048	0.0088
793.4762	-0.0091
793.6476	-0.0007
793.819	-0.0048
793.9904	0.007
794.1617	-0.0115
794.333	-0.0128
794.5043	-0.0121
794.6756	0.0052
794.8469	-0.01
795.0181	-0.0072
795.1893	-0.0143
795.3605	0.0104
795.5317	-0.0071
795.7029	-0.0069
795.874	-0.0063
796.0452	-0.0026
796.2163	-0.0027
796.3873	0.0155
796.5584	0.0022
796.7294	-0.0036
796.9005	0.0093
797.0715	0.0129
797.2425	0.0054
797.4134	0.0127
797.5844	0.0111
797.7553	-0.0161
797.9262	0.006
798.0971	-0.0148
798.2679	-0.0146
798.4388	-0.0166
798.6096	-0.0071
798.7804	-0.0114
798.9512	-0.0179
799.122	0.0082
799.2927	0.0005
799.4635	0.0205
799.6342	-0.0087
799.8049	-0.0043
799.9755	0.0015
800.1462	0.003
800.3168	0.0143
800.4874	-0.0001
800.658	0.0248
800.8286	0.0225
800.9991	0.0205
801.1696	0.0201
801.3402	0.0198
801.5106	-0.0071
801.6811	0.0009
801.8516	0.0291
802.022	0.0034
802.1924	0.0042
802.3628	0.0218
802.5332	0.0155
802.7035	0.0183
802.8739	-0.0115
803.0442	0.0001
803.2145	0.0097
803.3847	-0.0142
803.555	0.0146
803.7252	-0.0007
803.8954	-0.0051
804.0656	0.0026
804.2358	0.0045
804.4059	0.0151
804.5761	0.0124
804.7462	0.009
804.9163	0.0021
805.0864	-0.007
805.2564	-0.0138
805.4264	0.0072
805.5965	-0.0144
805.7665	0.0132
805.9364	-0.0122
806.1064	0.0048
806.2763	-0.0003
806.4462	0.0309
806.6161	-0.005
806.786	0.0157
806.9559	0.018
807.1257	0.0009
807.2955	-0.005
807.4653	-0.0039
807.6351	-0.0173
807.8048	0.012
807.9746	0.0116
808.1443	-0.0021
808.314	0.0126
808.4837	-0.0082
808.6533	-0.002
808.8229	0.0226
808.9926	-0.0094
809.1622	-0.0039
809.3317	0.0168
809.5013	-0.005
809.6708	0.013
809.8403	-0.0047
810.0098	0.0058
810.1793	0.0206
810.3488	-0.0073
810.5182	-0.0132
810.6876	0.013
810.857	-0.008
811.0264	0.0185
811.1958	0.0093
811.3651	0.0086
811.5344	-0.0017
811.7037	0.0028
811.873	-0.0033
812.0422	-0.0186
812.2115	0.0034
812.3807	-0.0086
812.5499	0.0108
812.7191	0.0124
812.8882	-0.0026
813.0574	-0.0113
813.2265	0.0112
813.3956	0.0053
813.5646	0.0119
813.7337	-0.0194
813.9027	0.0076
814.0718	0.0207
814.2407	0.0239
814.4097	-0.0001
814.5787	-0.011
814.7476	-0.0068
814.9165	0.0044
815.0854	-0.0106
815.2543	-0.0255
815.4232	-0.0025
815.592	0.0182
815.7608	0.0104
815.9296	0.0067
816.0984	0.0249
816.2671	-0.0028
816.4359	0.0121
816.6046	0.0184
816.7733	0.0023
816.942	-0.021
817.1106	-0.0025
817.2793	-0.0072
817.4479	0.0042
817.6165	0.0196
817.785	0.0079
817.9536	-0.0162
818.1221	-0.0043
818.2906	0.0155
818.4591	-0.0187
818.6276	-0.0025
818.7961	0.0143
818.9645	0.023
819.1329	0.0029
819.3013	0.0105
819.4697	0.0099
819.638	-0.0049
819.8064	0.0137
819.9747	0.035
820.143	-0.0037
820.3113	-0.013
820.4795	0.0199
820.6477	0.0243
820.816	-0.0012
820.9842	0.0064
821.1523	-0.0062
821.3205	0.0013
821.4886	0.0286
821.6567	-0.0118
821.8248	0.0303
821.9929	0.0153
822.1609	0.0033
822.329	0.02
822.497	0.0403
822.665	0.0042
822.833	-0.0028
823.0009	0.0186
823.1688	0.0286
823.3367	0.0147
823.5046	0.0068
823.6725	0.0283
823.8404	-0.0091
824.0082	0.0114
824.176	0.0184
824.3438	0.0185
824.5116	-0.001
824.6793	-0.0071
824.847	0.0061
825.0147	-0.0226
825.1824	0.02
825.3501	0.0131
825.5177	0.0016
825.6854	-0.0212
825.853	0.0147
826.0206	-0.0242
826.1881	0.017
826.3557	-0.0299
826.5232	0.0135
826.6907	-0.0305
826.8582	-0.0144
827.0257	-0.012
827.1931	0.0173
827.3605	-0.0135
827.528	-0.0066
827.6953	-0.0204
827.8627	-0.0011
828.03	0.0211
828.1974	-0.0194
828.3647	-0.0043
828.532	0.0058
828.6992	0.0043
828.8665	0.0124
829.0337	-0.0107
829.2009	0.025
829.3681	0.0128
829.5352	0.0224
829.7024	-0.0002
829.8695	-0.0469
830.0366	0.038
830.2037	0.0065
830.3707	0.0038
830.5378	-0.0097
830.7048	0.0009
830.8718	0.0343
831.0388	-0.0176
831.2057	0.0004
831.3727	0.0173
831.5396	-0.0053
831.7065	-0.0132
831.8734	0.0399
832.0402	-0.0361
832.2071	-0.0008
832.3739	0.0107
832.5407	0.0162
832.7075	0.0048
832.8742	0.0078
833.041	-0.0159
833.2077	0.0204
833.3744	0.0278
833.541	-0.0014
833.7077	-0.0179
833.8743	-0.0256
834.0409	-0.0291
834.2075	-0.0272
834.3741	0.0085
834.5407	0.0153
834.7072	0.0075
834.8737	0.0011
835.0402	-0.0257
835.2067	0.0042
835.3731	0.0194
835.5395	-0.0109
835.706	0.0043
835.8723	-0.0341
836.0387	0.0149
836.2051	-0.0304
836.3714	0.0151
836.5377	-0.032
836.704	-0.0156
836.8703	-0.0286
837.0365	-0.0146
837.2027	0.0005
837.3689	0.0051
837.5351	-0.0084
837.7013	-0.0439
837.8674	-0.0529
838.0335	-0.0615
838.1997	0.0197
838.3657	-0.0201
838.5318	-0.0412
838.6978	-0.0088
838.8639	0.0517
839.0299	-0.002
839.1958	-0.0042
839.3618	-0.0195
839.5277	0.0235
839.6937	0.0287
839.8596	0.0043
840.0254	0.0132
840.1913	0.0055
840.3571	0.0458
840.523	0.0027
840.6888	-0.0337
840.8545	-0.0154
841.0203	-0.0274
841.186	-0.0054
841.3517	0.0694
841.5174	-0.0191
841.6831	0.0219
841.8488	0.0097
842.0144	0.0034
842.18	-0.0185
842.3456	-0.0087
842.5112	-0.0024
842.6767	-0.0176
842.8422	-0.0253
843.0077	0.0017
843.1732	-0.0885
843.3387	-0.0455
843.5042	-0.0722
843.6696	0.0269
843.835	-0.0047
844.0004	0.0446
844.1657	0.016
844.3311	0.0009
844.4964	-0.0557
844.6617	-0.0663
844.827	-0.0027
844.9923	0.0701
845.1575	0.0203
845.3227	-0.0294
845.4879	-0.0572
845.6531	-0.0707
845.8183	-0.0583
845.9834	-0.0282
846.1485	-0.0328
846.3136	0.0151
846.4787	-0.0363
846.6438	0.0791
846.8088	-0.0204
846.9738	-0.1416
847.1388	0.0598
847.3038	-0.008
847.4687	-0.1153
847.6337	0.0022
847.7986	0.0227
847.9635	-0.0425
848.1284	0.0868
848.2932	0.0788
848.458	-0.0333
848.6228	0.0267
848.7876	0.0897
848.9524	-0.1342
849.1172	-0.1084
849.2819	-0.0019
849.4466	-0.0886
849.6113	-0.1144
849.7759	-0.0105
849.9406	-0.0367
850.1052	0.0342
850.2698	-0.0281
850.4344	-0.0627
850.599	-0.0302
850.7635	0.0578
850.928	-0.0681
851.0925	-0.0563
851.257	-0.0196
851.4215	0.0356
851.5859	-0.0262
851.7503	0.0362
851.9147	0.0111
852.0791	-0.0481
852.2434	-0.0438
852.4078	-0.0104
852.5721	0.0544
852.7364	-0.0753
852.9007	-0.1666
853.0649	-0.0524
853.2291	-0.0965
853.3934	-0.0425
853.5575	-0.0683
853.7217	-0.1431
853.8859	-0.247
854.05	-0.0714
854.2141	-0.0381
854.3782	-0.1401
854.5423	-0.1451
854.7063	0.123
854.8703	0.0644
855.0343	-0.0513
855.1983	-0.1131
855.3623	0.1501
855.5262	0.1597
855.6901	-0.0599
855.854	0.0336
856.0179	0.0459
856.1818	0.1587
856.3456	0.0528
856.5094	-0.1141
856.6732	-0.2053
856.837	-0.0084
857.0008	0.0163
857.1645	-0.1308
857.3282	-0.0283
857.4919	0.1451
857.6556	0.094
857.8192	0.0089
857.9828	0.0105
858.1465	0.0395
858.31	-0.2184
858.4736	-0.2422
858.6372	-0.3748
858.8007	-0.0261
858.9642	-0.0365
859.1277	-0.0515
859.2911	-0.041
859.4546	0.0285
859.618	-0.446
859.7814	0.0091
859.9448	0.2487
860.1081	-0.0607
860.2715	0.2669
860.4348	-0.086
860.5981	0.0697
860.7614	0.1203
860.9246	0.0131
861.0879	-0.2095
861.2511	0.0375
861.4143	-0.2458
861.5774	0.0672
861.7406	-0.2367
861.9037	0.0148
862.0668	-0.0753
862.2299	-0.2521
862.393	-0.4644
862.556	0.2285
862.7191	-0.3618
862.8821	0.0063
863.0451	0.0382
863.208	0.0708
863.371	0.1518
863.5339	-0.0364
863.6968	0.0449
863.8597	0.2699
864.0225	0.0286
864.1854	-0.2284
864.3482	0.6832
864.511	0.0397
864.6737	0.2704
864.8365	0.2396
864.9992	-0.4937
865.1619	-0.4511
865.3246	-0
865.4873	0.0971
865.65	-0.3665
865.8126	-0.1126
865.9752	-0.0177
866.1378	0.2683
866.3004	-0
866.4629	0.2167
866.6254	1.1095
866.7879	-0.0653
866.9504	-0
867.1129	-0
867.2753	0.2313
867.4377	0.1888
867.6001	-0.1944
867.7625	-0.0357
867.9249	0.0991
868.0872	-0.1416
868.2495	0.0556
868.4118	-0.2946
868.5741	-0.6966
868.7363	0.1127
868.8986	-0
869.0608	-0.158
869.223	0.1047
869.3851	-0
869.5473	-0
869.7094	0.3387
869.8715	-0
870.0336	0.0544
870.1957	-0.382
870.3577	-0.9798
870.5197	0.4829
870.6817	0.1353
870.8437	-0.2332
871.0057	-0.5241
871.1676	-0
871.3295	-0.5225
871.4914	-0
871.6533	-0.3851
871.8151	-0.4494
871.977	-0.2738
872.1388	-0
872.3006	-0
872.4623	-0
872.6241	0.9686
872.7858	0.4467
872.9475	-0.3572
873.1092	-0.0565
873.2709	-0
873.4325	-0.0505
873.5941	-0
873.7557	-0
873.9173	-0
874.0789	-0
874.2404	0.2021
874.4019	0.1979
874.5634	-0.2107
874.7249	0.0556
874.8863	-0.0554
875.0478	0.4026
875.2092	-0
875.3706	0.3779
875.5319	-0.7261
875.6933	0.0064
875.8546	-0.4207
876.0159	0.7533
876.1772	-0
876.3385	-0
876.4997	0.3272
876.6609	-0.5497
876.8221	-0
876.9833	0.5331
877.1445	-0
877.3056	0.425
877.4667	-0.7407
877.6278	-0
877.7889	-0.6558
877.9499	-0
878.111	-0
878.272	-0
878.433	-0
878.5939	0.0658
878.7549	-0
878.9158	-0.1619
879.0767	0.4535
879.2376	-0
879.3984	0.265
879.5593	-0
879.7201	-0.0491
879.8809	-0.6695
880.0417	-0.3814
880.2024	0.1939
880.3632	-0
880.5239	0.7096
880.6846	-0
880.8452	-2.4983
881.0059	-0
881.1665	-0.0197
881.3271	-0
881.4877	-0.8532
881.6483	-0.5089
881.8088	-0.1586
881.9693	0.4075
882.1298	0.4075
882.2903	0.4075
