Data from MonoPyChalIsomerACN10uM440nmA_Absorbance_15-27-13-894.txt Node
Date: Fri Jul 05 15:27:13 BST 2024
User: LASERRRRR
Spectrometer: FLMT03099
Trigger mode: 0
Integration Time (sec): 1.000000E-1
Scans to average: 1
Electric dark correction enabled: true
Nonlinearity correction enabled: false
Boxcar width: 0
XAxis mode: Wavelengths
Number of Pixels in Spectrum: 3648
>>>>>Begin Spectral Data<<<<<
179.3399	-0.458
179.5586	-0.458
179.7771	-0.458
179.9957	0.2661
180.2143	-0.556
180.4329	0.8172
180.6514	-0
180.8699	-0
181.0885	-0.4992
181.307	0.2044
181.5255	-0.699
181.744	0.7677
181.9625	-0
182.181	-1.1671
182.3994	0.6658
182.6179	-0
182.8363	-0
183.0547	-0.0241
183.2732	0.022
183.4916	-0.0605
183.71	0.083
183.9284	0.2538
184.1467	0.4918
184.3651	0.0064
184.5835	-0.1532
184.8018	0.3039
185.0201	0.0761
185.2385	0.1185
185.4568	0.5359
185.6751	0.334
185.8934	0.032
186.1117	0.0088
186.3299	0.0901
186.5482	-0.0288
186.7664	0.0469
186.9847	0.0603
187.2029	0.011
187.4211	0.2632
187.6393	0.3727
187.8575	-0.0891
188.0757	0.2854
188.2939	0.3078
188.512	0.2044
188.7302	-0.0532
188.9483	0.3589
189.1665	0.0779
189.3846	0.2824
189.6027	0.2154
189.8208	0.3081
190.0389	0.3619
190.257	0.3464
190.475	0.1534
190.6931	0.2898
190.9111	0.3581
191.1292	0.0959
191.3472	0.4091
191.5652	0.2855
191.7832	0.4171
192.0012	0.7165
192.2192	0.5218
192.4371	0.4675
192.6551	0.374
192.873	0.4886
193.091	0.4167
193.3089	0.3692
193.5268	0.6204
193.7447	0.6236
193.9626	0.5471
194.1805	0.7106
194.3984	0.992
194.6162	0.6328
194.8341	0.6641
195.0519	0.8
195.2697	1.1545
195.4875	0.5589
195.7054	0.7627
195.9231	0.5382
196.1409	0.5733
196.3587	0.7136
196.5765	0.6138
196.7942	0.6364
197.012	0.5312
197.2297	0.6325
197.4474	0.7288
197.6651	0.5489
197.8828	0.5516
198.1005	0.6518
198.3182	0.5363
198.5358	0.8329
198.7535	0.6822
198.9711	0.5289
199.1888	0.604
199.4064	0.8381
199.624	0.7292
199.8416	0.6542
200.0592	0.689
200.2767	0.7051
200.4943	0.6894
200.7119	0.7456
200.9294	0.6643
201.1469	0.5861
201.3645	0.5855
201.582	0.6272
201.7995	0.6588
202.017	0.6135
202.2344	0.6486
202.4519	0.703
202.6694	0.6972
202.8868	0.7969
203.1042	0.8653
203.3217	0.7682
203.5391	0.7257
203.7565	0.5823
203.9739	0.6104
204.1913	0.6537
204.4086	0.7257
204.626	0.7997
204.8433	0.6155
205.0607	0.5917
205.278	0.6247
205.4953	0.7545
205.7126	0.7133
205.9299	0.7221
206.1472	0.7745
206.3644	0.6189
206.5817	0.7015
206.7989	0.8003
207.0162	0.6751
207.2334	0.7307
207.4506	0.6327
207.6678	0.7132
207.885	0.7038
208.1022	0.7311
208.3194	0.7207
208.5365	0.6437
208.7537	0.6341
208.9708	0.5792
209.1879	0.6178
209.405	0.7307
209.6222	0.7995
209.8392	0.6965
210.0563	0.6235
210.2734	0.6905
210.4905	0.6511
210.7075	0.6083
210.9245	0.5916
211.1416	0.7094
211.3586	0.671
211.5756	0.6183
211.7926	0.6135
212.0096	0.6241
212.2265	0.5625
212.4435	0.6237
212.6604	0.6786
212.8774	0.626
213.0943	0.6203
213.3112	0.572
213.5281	0.5418
213.745	0.508
213.9619	0.5441
214.1788	0.5015
214.3956	0.473
214.6125	0.5094
214.8293	0.4737
215.0461	0.506
215.2629	0.4609
215.4798	0.4679
215.6965	0.4435
215.9133	0.4416
216.1301	0.3844
216.3469	0.4526
216.5636	0.4293
216.7803	0.4186
216.9971	0.4257
217.2138	0.4128
217.4305	0.3791
217.6472	0.3603
217.8639	0.3708
218.0805	0.3646
218.2972	0.3235
218.5138	0.3232
218.7305	0.3262
218.9471	0.3052
219.1637	0.292
219.3803	0.3001
219.5969	0.2886
219.8135	0.2455
220.0301	0.2765
220.2466	0.2686
220.4632	0.2686
220.6797	0.2473
220.8962	0.2479
221.1127	0.2764
221.3292	0.2486
221.5457	0.231
221.7622	0.2207
221.9787	0.2489
222.1951	0.2427
222.4116	0.2557
222.628	0.2662
222.8444	0.2538
223.0608	0.2381
223.2772	0.2387
223.4936	0.2727
223.71	0.2487
223.9264	0.2579
224.1427	0.2536
224.3591	0.2401
224.5754	0.2762
224.7917	0.2817
225.008	0.2544
225.2243	0.2622
225.4406	0.2768
225.6569	0.2643
225.8732	0.2572
226.0894	0.2652
226.3057	0.2832
226.5219	0.2883
226.7381	0.273
226.9543	0.2887
227.1705	0.2902
227.3867	0.2823
227.6029	0.3037
227.8191	0.2971
228.0352	0.2916
228.2513	0.3028
228.4675	0.2942
228.6836	0.3029
228.8997	0.2898
229.1158	0.2838
229.3319	0.2971
229.548	0.3275
229.764	0.3389
229.9801	0.3374
230.1961	0.3381
230.4121	0.3526
230.6282	0.3469
230.8442	0.32
231.0602	0.3414
231.2761	0.3575
231.4921	0.3385
231.7081	0.3608
231.924	0.3295
232.14	0.372
232.3559	0.3331
232.5718	0.3637
232.7877	0.3491
233.0036	0.354
233.2195	0.3431
233.4353	0.3529
233.6512	0.3649
233.867	0.3421
234.0829	0.371
234.2987	0.3544
234.5145	0.3692
234.7303	0.37
234.9461	0.3739
235.1619	0.3871
235.3776	0.3802
235.5934	0.3767
235.8091	0.3752
236.0249	0.3731
236.2406	0.3989
236.4563	0.3842
236.672	0.3861
236.8877	0.3897
237.1034	0.3932
237.319	0.3969
237.5347	0.3904
237.7503	0.4047
237.966	0.4004
238.1816	0.4045
238.3972	0.397
238.6128	0.3922
238.8284	0.4209
239.0439	0.4015
239.2595	0.4104
239.475	0.4283
239.6906	0.4064
239.9061	0.4089
240.1216	0.4078
240.3371	0.4046
240.5526	0.404
240.7681	0.4056
240.9836	0.3914
241.199	0.3986
241.4145	0.3769
241.6299	0.3777
241.8453	0.3745
242.0607	0.3819
242.2761	0.3674
242.4915	0.3732
242.7069	0.3769
242.9223	0.345
243.1376	0.3414
243.353	0.3487
243.5683	0.3477
243.7836	0.3242
243.9989	0.3295
244.2142	0.3145
244.4295	0.3277
244.6448	0.312
244.86	0.2779
245.0753	0.2939
245.2905	0.2788
245.5057	0.2776
245.721	0.2707
245.9362	0.2722
246.1514	0.2827
246.3665	0.2551
246.5817	0.2554
246.7969	0.2595
247.012	0.2427
247.2271	0.2299
247.4423	0.2532
247.6574	0.2457
247.8725	0.2372
248.0876	0.2239
248.3026	0.2242
248.5177	0.2238
248.7328	0.2159
248.9478	0.2251
249.1628	0.2056
249.3779	0.217
249.5929	0.2051
249.8079	0.2086
250.0228	0.1951
250.2378	0.1962
250.4528	0.2108
250.6677	0.1906
250.8827	0.2069
251.0976	0.1928
251.3125	0.1878
251.5274	0.177
251.7423	0.1779
251.9572	0.1983
252.172	0.1742
252.3869	0.1907
252.6017	0.1874
252.8166	0.1649
253.0314	0.1755
253.2462	0.1659
253.461	0.1772
253.6758	0.178
253.8906	0.1715
254.1053	0.1711
254.3201	0.1708
254.5348	0.1909
254.7496	0.182
254.9643	0.1642
255.179	0.1666
255.3937	0.1651
255.6083	0.1807
255.823	0.1741
256.0377	0.1631
256.2523	0.1727
256.467	0.1595
256.6816	0.1717
256.8962	0.1729
257.1108	0.1577
257.3254	0.1751
257.54	0.1604
257.7545	0.1595
257.9691	0.1642
258.1836	0.166
258.3981	0.1704
258.6127	0.1756
258.8272	0.1681
259.0417	0.1532
259.2561	0.1599
259.4706	0.1769
259.6851	0.1646
259.8995	0.1627
260.114	0.1627
260.3284	0.1562
260.5428	0.1588
260.7572	0.1707
260.9716	0.1727
261.186	0.1562
261.4003	0.1679
261.6147	0.1782
261.829	0.1611
262.0433	0.1606
262.2577	0.1569
262.472	0.164
262.6863	0.1502
262.9005	0.1544
263.1148	0.1642
263.3291	0.1621
263.5433	0.16
263.7576	0.1554
263.9718	0.1592
264.186	0.1457
264.4002	0.1561
264.6144	0.1526
264.8286	0.1703
265.0427	0.1614
265.2569	0.1589
265.471	0.1686
265.6851	0.1566
265.8993	0.1538
266.1134	0.1461
266.3275	0.1625
266.5415	0.1596
266.7556	0.1638
266.9697	0.1661
267.1837	0.1661
267.3978	0.158
267.6118	0.1673
267.8258	0.1624
268.0398	0.1451
268.2538	0.1647
268.4677	0.1831
268.6817	0.1477
268.8957	0.161
269.1096	0.156
269.3235	0.1686
269.5374	0.1496
269.7514	0.154
269.9652	0.1404
270.1791	0.1471
270.393	0.1464
270.6068	0.146
270.8207	0.1471
271.0345	0.1417
271.2483	0.1548
271.4622	0.1465
271.676	0.1485
271.8897	0.1423
272.1035	0.1346
272.3173	0.1409
272.531	0.1506
272.7448	0.1492
272.9585	0.1457
273.1722	0.1446
273.3859	0.1416
273.5996	0.1333
273.8133	0.1462
274.0269	0.1496
274.2406	0.1426
274.4542	0.1404
274.6679	0.1323
274.8815	0.1474
275.0951	0.1404
275.3087	0.1503
275.5223	0.146
275.7358	0.1375
275.9494	0.1556
276.1629	0.1313
276.3765	0.1386
276.59	0.1379
276.8035	0.1532
277.017	0.1425
277.2305	0.138
277.444	0.1457
277.6574	0.1449
277.8709	0.1501
278.0843	0.1456
278.2978	0.1307
278.5112	0.1416
278.7246	0.1473
278.938	0.1359
279.1513	0.1545
279.3647	0.1653
279.5781	0.1479
279.7914	0.1422
280.0047	0.1565
280.2181	0.1594
280.4314	0.1532
280.6447	0.1502
280.8579	0.144
281.0712	0.1565
281.2845	0.1591
281.4977	0.148
281.711	0.1391
281.9242	0.1573
282.1374	0.1595
282.3506	0.1532
282.5638	0.1481
282.7769	0.1506
282.9901	0.1551
283.2033	0.1553
283.4164	0.1635
283.6295	0.1477
283.8426	0.1561
284.0557	0.1583
284.2688	0.1676
284.4819	0.1605
284.695	0.1489
284.908	0.164
285.1211	0.1489
285.3341	0.1586
285.5471	0.1704
285.7601	0.1633
285.9731	0.1561
286.1861	0.1485
286.3991	0.1585
286.612	0.167
286.825	0.162
287.0379	0.1753
287.2508	0.1584
287.4637	0.1627
287.6766	0.1531
287.8895	0.1767
288.1024	0.1754
288.3152	0.1644
288.5281	0.154
288.7409	0.1673
288.9538	0.1741
289.1666	0.1523
289.3794	0.1643
289.5922	0.1622
289.8049	0.1668
290.0177	0.1517
290.2304	0.1586
290.4432	0.1651
290.6559	0.1654
290.8686	0.1738
291.0813	0.1617
291.294	0.1579
291.5067	0.1686
291.7194	0.1596
291.932	0.1774
292.1447	0.1629
292.3573	0.1601
292.5699	0.1622
292.7825	0.1694
292.9951	0.1548
293.2077	0.1685
293.4203	0.1608
293.6328	0.1577
293.8454	0.1709
294.0579	0.1644
294.2704	0.1567
294.4829	0.154
294.6954	0.178
294.9079	0.1585
295.1204	0.1544
295.3328	0.1664
295.5453	0.1637
295.7577	0.1577
295.9701	0.155
296.1825	0.1681
296.3949	0.1601
296.6073	0.1563
296.8197	0.1604
297.0321	0.1712
297.2444	0.1579
297.4567	0.1602
297.6691	0.1757
297.8814	0.1665
298.0937	0.1622
298.306	0.1677
298.5182	0.1711
298.7305	0.1655
298.9428	0.1548
299.155	0.1661
299.3672	0.1615
299.5794	0.1498
299.7916	0.1595
300.0038	0.1623
300.216	0.1713
300.4282	0.163
300.6403	0.1523
300.8525	0.1649
301.0646	0.1554
301.2767	0.1681
301.4888	0.1669
301.7009	0.16
301.913	0.165
302.125	0.1697
302.3371	0.1599
302.5491	0.1775
302.7612	0.1718
302.9732	0.1643
303.1852	0.1658
303.3972	0.1665
303.6092	0.1584
303.8211	0.1533
304.0331	0.1601
304.245	0.1418
304.457	0.1483
304.6689	0.1514
304.8808	0.1677
305.0927	0.1552
305.3046	0.1552
305.5164	0.1594
305.7283	0.1491
305.9401	0.1593
306.152	0.162
306.3638	0.1545
306.5756	0.1487
306.7874	0.1472
306.9992	0.1424
307.2109	0.1362
307.4227	0.1239
307.6344	0.1382
307.8462	0.1395
308.0579	0.1402
308.2696	0.1352
308.4813	0.1341
308.693	0.1369
308.9046	0.1365
309.1163	0.1255
309.328	0.1237
309.5396	0.1298
309.7512	0.118
309.9628	0.1292
310.1744	0.1155
310.386	0.1183
310.5976	0.1272
310.8091	0.1171
311.0207	0.1227
311.2322	0.1195
311.4437	0.1155
311.6552	0.1139
311.8667	0.1148
312.0782	0.092
312.2897	0.0972
312.5012	0.1057
312.7126	0.1046
312.924	0.1106
313.1355	0.102
313.3469	0.1055
313.5583	0.1094
313.7696	0.11
313.981	0.112
314.1924	0.0974
314.4037	0.1055
314.6151	0.1177
314.8264	0.1032
315.0377	0.1007
315.249	0.1032
315.4603	0.1082
315.6716	0.1024
315.8828	0.0947
316.0941	0.107
316.3053	0.087
316.5165	0.0878
316.7277	0.0893
316.9389	0.1009
317.1501	0.0942
317.3613	0.0968
317.5724	0.0931
317.7836	0.1015
317.9947	0.1051
318.2058	0.0913
318.417	0.0966
318.6281	0.0856
318.8391	0.0939
319.0502	0.0945
319.2613	0.0966
319.4723	0.0992
319.6834	0.0992
319.8944	0.0889
320.1054	0.0988
320.3164	0.0936
320.5274	0.0982
320.7383	0.0945
320.9493	0.0941
321.1602	0.1038
321.3712	0.0785
321.5821	0.0996
321.793	0.0992
322.0039	0.0904
322.2148	0.0963
322.4257	0.0981
322.6365	0.1028
322.8474	0.0971
323.0582	0.1022
323.269	0.0933
323.4798	0.1048
323.6906	0.0958
323.9014	0.0928
324.1122	0.098
324.3229	0.0949
324.5337	0.1011
324.7444	0.0992
324.9551	0.1155
325.1658	0.0976
325.3765	0.1002
325.5872	0.1024
325.7979	0.1007
326.0085	0.1045
326.2192	0.1037
326.4298	0.1033
326.6404	0.0952
326.851	0.0893
327.0616	0.0869
327.2722	0.0933
327.4828	0.1141
327.6933	0.1048
327.9039	0.1052
328.1144	0.1212
328.3249	0.11
328.5354	0.1063
328.7459	0.1018
328.9564	0.0849
329.1669	0.0988
329.3773	0.1118
329.5878	0.112
329.7982	0.0895
330.0086	0.1091
330.219	0.1112
330.4294	0.1112
330.6398	0.0997
330.8502	0.1028
331.0605	0.1097
331.2708	0.1037
331.4812	0.1218
331.6915	0.1184
331.9018	0.1106
332.1121	0.1057
332.3224	0.1082
332.5326	0.1097
332.7429	0.1137
332.9531	0.1021
333.1633	0.1163
333.3735	0.1108
333.5837	0.1065
333.7939	0.095
334.0041	0.1161
334.2143	0.1064
334.4244	0.0983
334.6346	0.0885
334.8447	0.1114
335.0548	0.1065
335.2649	0.1033
335.475	0.1095
335.685	0.1004
335.8951	0.1245
336.1051	0.1077
336.3152	0.1192
336.5252	0.1015
336.7352	0.1115
336.9452	0.1115
337.1552	0.1138
337.3652	0.1112
337.5751	0.1122
337.7851	0.1147
337.995	0.0998
338.2049	0.1157
338.4148	0.1087
338.6247	0.1103
338.8346	0.1118
339.0445	0.1021
339.2543	0.1103
339.4642	0.1094
339.674	0.1083
339.8838	0.1033
340.0936	0.1146
340.3034	0.1294
340.5132	0.1165
340.7229	0.112
340.9327	0.1211
341.1424	0.1272
341.3522	0.1267
341.5619	0.1236
341.7716	0.1205
341.9813	0.1242
342.1909	0.1092
342.4006	0.1289
342.6102	0.1249
342.8199	0.1145
343.0295	0.1251
343.2391	0.1199
343.4487	0.1262
343.6583	0.1308
343.8679	0.1174
344.0774	0.1312
344.287	0.1265
344.4965	0.1118
344.706	0.1243
344.9155	0.1245
345.125	0.1219
345.3345	0.1283
345.544	0.1301
345.7534	0.1363
345.9629	0.1248
346.1723	0.1348
346.3817	0.1289
346.5911	0.1278
346.8005	0.1319
347.0099	0.1217
347.2193	0.1304
347.4286	0.1274
347.638	0.1521
347.8473	0.1344
348.0566	0.1366
348.2659	0.1258
348.4752	0.1308
348.6845	0.1291
348.8937	0.1336
349.103	0.1394
349.3122	0.1374
349.5214	0.1509
349.7306	0.1384
349.9398	0.1446
350.149	0.1356
350.3582	0.1272
350.5674	0.1436
350.7765	0.133
350.9856	0.1233
351.1948	0.1277
351.4039	0.1301
351.613	0.1417
351.822	0.1365
352.0311	0.1521
352.2402	0.138
352.4492	0.1568
352.6582	0.1446
352.8672	0.1436
353.0762	0.1487
353.2852	0.1425
353.4942	0.1416
353.7032	0.152
353.9121	0.1466
354.1211	0.1507
354.33	0.1557
354.5389	0.1469
354.7478	0.1544
354.9567	0.1533
355.1655	0.148
355.3744	0.1546
355.5833	0.1476
355.7921	0.1804
356.0009	0.1462
356.2097	0.1666
356.4185	0.1705
356.6273	0.1701
356.8361	0.1637
357.0448	0.1613
357.2536	0.1624
357.4623	0.15
357.671	0.1722
357.8797	0.165
358.0884	0.1678
358.2971	0.1621
358.5057	0.1763
358.7144	0.1744
358.923	0.1847
359.1316	0.1774
359.3402	0.1722
359.5488	0.1665
359.7574	0.1681
359.966	0.1855
360.1746	0.1649
360.3831	0.1736
360.5916	0.1642
360.8002	0.1583
361.0087	0.1872
361.2172	0.1757
361.4256	0.1735
361.6341	0.1799
361.8426	0.1896
362.051	0.1705
362.2594	0.1892
362.4678	0.1713
362.6762	0.1969
362.8846	0.187
363.093	0.2006
363.3014	0.1899
363.5097	0.1618
363.718	0.2011
363.9264	0.1936
364.1347	0.19
364.343	0.2056
364.5513	0.2002
364.7595	0.1942
364.9678	0.1971
365.176	0.1998
365.3842	0.1923
365.5925	0.192
365.8007	0.1996
366.0089	0.208
366.217	0.1875
366.4252	0.2087
366.6333	0.2127
366.8415	0.1894
367.0496	0.1928
367.2577	0.2204
367.4658	0.2116
367.6739	0.21
367.882	0.2286
368.09	0.1976
368.2981	0.2132
368.5061	0.2116
368.7141	0.199
368.9221	0.212
369.1301	0.23
369.3381	0.2092
369.5461	0.2192
369.754	0.199
369.962	0.2206
370.1699	0.2103
370.3778	0.2314
370.5857	0.2124
370.7936	0.236
371.0015	0.2194
371.2093	0.2117
371.4172	0.2383
371.625	0.2209
371.8328	0.2158
372.0406	0.2185
372.2484	0.2172
372.4562	0.2358
372.664	0.2306
372.8717	0.2378
373.0795	0.2046
373.2872	0.2185
373.4949	0.2202
373.7026	0.2254
373.9103	0.2254
374.118	0.2374
374.3256	0.2348
374.5333	0.2274
374.7409	0.22
374.9485	0.233
375.1561	0.2203
375.3637	0.2373
375.5713	0.2387
375.7789	0.2354
375.9864	0.2393
376.194	0.2317
376.4015	0.2324
376.609	0.254
376.8165	0.2261
377.024	0.2369
377.2315	0.231
377.4389	0.2283
377.6464	0.2567
377.8538	0.2336
378.0612	0.237
378.2686	0.2403
378.476	0.2553
378.6834	0.2426
378.8908	0.2438
379.0981	0.2489
379.3055	0.2335
379.5128	0.2448
379.7201	0.2642
379.9274	0.2418
380.1347	0.2462
380.342	0.2654
380.5492	0.2438
380.7565	0.2517
380.9637	0.2621
381.1709	0.2515
381.3781	0.2488
381.5853	0.2733
381.7925	0.2463
381.9997	0.2601
382.2068	0.2587
382.4139	0.27
382.6211	0.2413
382.8282	0.2417
383.0353	0.2565
383.2424	0.2464
383.4494	0.2664
383.6565	0.263
383.8635	0.2587
384.0706	0.2635
384.2776	0.2733
384.4846	0.2545
384.6916	0.2458
384.8986	0.2445
385.1055	0.2588
385.3125	0.2761
385.5194	0.2486
385.7263	0.2594
385.9333	0.2548
386.1402	0.2673
386.347	0.2694
386.5539	0.2506
386.7608	0.2741
386.9676	0.2383
387.1744	0.254
387.3813	0.2384
387.5881	0.257
387.7948	0.2613
388.0016	0.2686
388.2084	0.2545
388.4151	0.2609
388.6219	0.259
388.8286	0.2468
389.0353	0.2666
389.242	0.2379
389.4487	0.2399
389.6553	0.2321
389.862	0.2268
390.0686	0.265
390.2753	0.2552
390.4819	0.2432
390.6885	0.2404
390.8951	0.2547
391.1016	0.2473
391.3082	0.2447
391.5147	0.2423
391.7213	0.2433
391.9278	0.2232
392.1343	0.2276
392.3408	0.243
392.5473	0.2565
392.7537	0.2419
392.9602	0.2232
393.1666	0.2374
393.373	0.2517
393.5794	0.2394
393.7858	0.2379
393.9922	0.2095
394.1986	0.2403
394.4049	0.2268
394.6113	0.2109
394.8176	0.2054
395.0239	0.2286
395.2302	0.2234
395.4365	0.2152
395.6428	0.2313
395.8491	0.2132
396.0553	0.2209
396.2615	0.2188
396.4678	0.2272
396.674	0.203
396.8802	0.2162
397.0863	0.2211
397.2925	0.1995
397.4987	0.2161
397.7048	0.2131
397.9109	0.2297
398.117	0.1968
398.3231	0.2156
398.5292	0.203
398.7353	0.2246
398.9413	0.2122
399.1474	0.2096
399.3534	0.2162
399.5594	0.203
399.7654	0.2226
399.9714	0.2395
400.1774	0.2116
400.3833	0.2019
400.5893	0.2201
400.7952	0.2078
401.0011	0.2246
401.207	0.2293
401.4129	0.2024
401.6188	0.2301
401.8247	0.1959
402.0305	0.2037
402.2364	0.209
402.4422	0.2306
402.648	0.223
402.8538	0.2287
403.0596	0.1987
403.2654	0.2249
403.4711	0.2023
403.6768	0.2137
403.8826	0.2246
404.0883	0.2213
404.294	0.2401
404.4997	0.2061
404.7054	0.2093
404.911	0.2003
405.1167	0.2157
405.3223	0.2346
405.5279	0.214
405.7335	0.2299
405.9391	0.2239
406.1447	0.2167
406.3502	0.215
406.5558	0.2103
406.7613	0.2234
406.9668	0.2194
407.1724	0.2132
407.3778	0.1971
407.5833	0.2193
407.7888	0.2093
407.9942	0.2205
408.1997	0.2187
408.4051	0.2193
408.6105	0.2315
408.8159	0.1959
409.0213	0.2083
409.2267	0.2225
409.432	0.2142
409.6374	0.2168
409.8427	0.2153
410.048	0.2053
410.2533	0.2205
410.4586	0.2096
410.6639	0.1999
410.8691	0.2005
411.0744	0.2101
411.2796	0.2042
411.4848	0.2071
411.69	0.1992
411.8952	0.2508
412.1004	0.2209
412.3056	0.2166
412.5107	0.2164
412.7158	0.231
412.921	0.204
413.1261	0.2109
413.3312	0.2032
413.5362	0.2052
413.7413	0.2013
413.9464	0.2193
414.1514	0.2028
414.3564	0.2021
414.5614	0.2045
414.7664	0.2119
414.9714	0.186
415.1764	0.2036
415.3813	0.2135
415.5863	0.1904
415.7912	0.2159
415.9961	0.2133
416.201	0.1996
416.4059	0.2136
416.6108	0.2045
416.8156	0.2014
417.0205	0.21
417.2253	0.1903
417.4301	0.207
417.6349	0.2114
417.8397	0.2041
418.0445	0.2151
418.2492	0.2138
418.454	0.2083
418.6587	0.1976
418.8634	0.2089
419.0681	0.194
419.2728	0.2006
419.4775	0.2009
419.6822	0.1827
419.8868	0.1824
420.0915	0.1966
420.2961	0.1993
420.5007	0.1847
420.7053	0.1952
420.9099	0.18
421.1144	0.1874
421.319	0.2009
421.5235	0.2011
421.728	0.1943
421.9325	0.193
422.137	0.198
422.3415	0.1951
422.546	0.184
422.7504	0.1733
422.9549	0.199
423.1593	0.1899
423.3637	0.1995
423.5681	0.1972
423.7725	0.1788
423.9769	0.1887
424.1812	0.1786
424.3856	0.1687
424.5899	0.1931
424.7942	0.1773
424.9985	0.1808
425.2028	0.1645
425.4071	0.1946
425.6113	0.1568
425.8156	0.1877
426.0198	0.1832
426.224	0.1672
426.4282	0.1624
426.6324	0.1704
426.8366	0.1727
427.0407	0.1636
427.2449	0.1551
427.449	0.17
427.6531	0.1563
427.8572	0.1739
428.0613	0.159
428.2654	0.1588
428.4694	0.1513
428.6735	0.1726
428.8775	0.1834
429.0815	0.1553
429.2855	0.1553
429.4895	0.158
429.6935	0.1767
429.8975	0.1531
430.1014	0.1448
430.3053	0.1431
430.5093	0.1544
430.7132	0.1392
430.9171	0.1385
431.1209	0.1369
431.3248	0.1327
431.5286	0.16
431.7325	0.1409
431.9363	0.1268
432.1401	0.1477
432.3439	0.1415
432.5477	0.1333
432.7514	0.111
432.9552	0.1348
433.1589	0.1253
433.3627	0.1027
433.5664	0.1317
433.7701	0.1192
433.9737	0.1126
434.1774	0.1172
434.3811	0.1101
434.5847	0.1202
434.7883	0.1151
434.9919	0.0995
435.1955	0.1047
435.3991	0.1137
435.6027	0.1091
435.8062	0.1057
436.0098	0.1171
436.2133	0.0978
436.4168	0.09
436.6203	0.094
436.8238	0.0923
437.0272	0.1065
437.2307	0.1062
437.4341	0.1124
437.6375	0.1156
437.841	0.096
438.0443	0.1086
438.2477	0.092
438.4511	0.088
438.6545	0.1056
438.8578	0.0847
439.0611	0.0832
439.2644	0.0966
439.4677	0.0853
439.671	0.0751
439.8743	0.0899
440.0775	0.0933
440.2808	0.0894
440.484	0.0748
440.6872	0.06
440.8904	0.0634
441.0936	0.0881
441.2967	0.0776
441.4999	0.0883
441.703	0.075
441.9062	0.0668
442.1093	0.0745
442.3124	0.0683
442.5155	0.0569
442.7185	0.0617
442.9216	0.0416
443.1246	0.0743
443.3276	0.0434
443.5307	0.0564
443.7337	0.0544
443.9366	0.0629
444.1396	0.0625
444.3426	0.0546
444.5455	0.0574
444.7484	0.0613
444.9513	0.0515
445.1542	0.0554
445.3571	0.0496
445.56	0.0576
445.7628	0.0384
445.9657	0.0511
446.1685	0.0585
446.3713	0.0492
446.5741	0.0461
446.7769	0.0376
446.9797	0.042
447.1824	0.0444
447.3852	0.0447
447.5879	0.0392
447.7906	0.0566
447.9933	0.0444
448.196	0.0345
448.3986	0.0278
448.6013	0.0274
448.8039	0.0265
449.0066	0.0314
449.2092	0.0425
449.4118	0.0427
449.6143	0.0276
449.8169	0.028
450.0195	0.0321
450.222	0.0106
450.4245	0.0243
450.627	0.0272
450.8295	0.0281
451.032	0.016
451.2345	0.0327
451.4369	0.0295
451.6394	0.0189
451.8418	0.0073
452.0442	0.0241
452.2466	0.0353
452.449	0.0187
452.6513	0.018
452.8537	0.032
453.056	0.0139
453.2583	0.0188
453.4607	0.0205
453.663	0.0013
453.8652	0.0351
454.0675	0.0128
454.2697	0.0222
454.472	0.0164
454.6742	0.0222
454.8764	0.014
455.0786	0.0267
455.2808	0.0049
455.4829	0.026
455.6851	0.0179
455.8872	0.0246
456.0893	0.0215
456.2915	0.0036
456.4935	0.0253
456.6956	0.0104
456.8977	0.004
457.0997	0.0192
457.3018	-0.0055
457.5038	0.018
457.7058	0.008
457.9078	0.0107
458.1098	0.0206
458.3117	0.0236
458.5137	0.0191
458.7156	0.0101
458.9175	-0.0077
459.1194	0.0109
459.3213	0.0007
459.5232	-0.0014
459.725	-0.0107
459.9269	-0.0071
460.1287	-0.0018
460.3305	0.0155
460.5323	0.0045
460.7341	0.0064
460.9359	0.0088
461.1376	0.0195
461.3394	0.0063
461.5411	0.0079
461.7428	0.0048
461.9445	0.0217
462.1462	0.0263
462.3479	0.0052
462.5495	0.0016
462.7512	0.0081
462.9528	0.0165
463.1544	0.0033
463.356	0.0044
463.5576	0.0134
463.7592	0.0058
463.9607	0.0093
464.1623	0.0132
464.3638	0.0166
464.5653	-0.0047
464.7668	0.0086
464.9683	0.0066
465.1697	0.016
465.3712	-0.0039
465.5726	-0.0113
465.7741	0.0055
465.9755	0.0013
466.1769	-0.0003
466.3782	0.0094
466.5796	-0.0011
466.7809	0.0176
466.9823	-0.0088
467.1836	0.0005
467.3849	-0.0026
467.5862	0.016
467.7875	0.004
467.9887	0.0178
468.19	0.0144
468.3912	0.0007
468.5924	-0.0022
468.7936	-0.017
468.9948	0.0067
469.196	0.0035
469.3972	-0.0067
469.5983	0.0018
469.7994	-0.0068
470.0006	0.0006
470.2017	-0.0084
470.4027	-0.0067
470.6038	0.0088
470.8049	-0.0086
471.0059	0.0075
471.2069	-0.0098
471.408	0.0269
471.6089	0.0085
471.8099	0.0024
472.0109	0.0087
472.2119	-0.0105
472.4128	-0.0097
472.6137	0.0099
472.8146	-0.0106
473.0155	-0.011
473.2164	0.0093
473.4173	0.0019
473.6181	-0.0014
473.819	0.0049
474.0198	-0.0032
474.2206	0.0008
474.4214	0.0016
474.6222	0.0035
474.8229	-0.0092
475.0237	-0.0062
475.2244	-0.0091
475.4251	-0.0031
475.6258	0.0126
475.8265	-0.0061
476.0272	0.0188
476.2278	-0.0045
476.4285	0.0007
476.6291	-0.0038
476.8297	0.009
477.0303	-0.006
477.2309	-0.001
477.4315	-0.0169
477.632	-0.004
477.8326	-0.012
478.0331	0.0009
478.2336	0.0093
478.4341	-0.0006
478.6346	0.003
478.8351	-0.0013
479.0355	0.003
479.236	-0.0032
479.4364	0.0113
479.6368	-0.015
479.8372	-0.0054
480.0376	0.0005
480.2379	-0.0145
480.4383	-0.0098
480.6386	-0.0013
480.8389	-0.0031
481.0392	-0.002
481.2395	0.0083
481.4398	0.0031
481.6401	-0.0026
481.8403	0.004
482.0405	-0.0091
482.2408	0.0086
482.441	0.0108
482.6411	-0.0066
482.8413	0.003
483.0415	-0.0065
483.2416	-0.0037
483.4417	-0.0066
483.6419	0.0057
483.8419	-0.0049
484.042	0.0181
484.2421	0.0029
484.4422	0.0001
484.6422	-0.0058
484.8422	0.002
485.0422	-0.0009
485.2422	0.0046
485.4422	-0.0021
485.6422	-0.0064
485.8421	-0.0046
486.042	-0.0088
486.242	-0.0012
486.4419	-0.0183
486.6417	-0.0056
486.8416	0.0039
487.0415	-0.0067
487.2413	-0.0039
487.4411	-0.0086
487.641	-0.0031
487.8408	0.0054
488.0405	-0.0132
488.2403	-0.006
488.4401	0.0043
488.6398	0.0072
488.8395	-0.0013
489.0392	0.005
489.2389	-0.0043
489.4386	-0.0008
489.6383	-0.0087
489.8379	0.0042
490.0376	-0.0049
490.2372	-0.006
490.4368	-0.0071
490.6364	-0.0107
490.836	0.0008
491.0355	-0.0017
491.2351	-0.0015
491.4346	-0.0036
491.6341	-0.0099
491.8336	0.004
492.0331	-0.0091
492.2326	-0.0099
492.432	0.0043
492.6315	-0.0069
492.8309	-0.0096
493.0303	0.0009
493.2297	0.0003
493.4291	-0.0029
493.6284	0.0089
493.8278	0.0027
494.0271	-0.001
494.2264	0.002
494.4257	-0.016
494.625	-0.0075
494.8243	-0.0075
495.0236	-0.005
495.2228	-0.0113
495.422	-0.002
495.6213	-0.002
495.8205	0.0043
496.0196	0.0028
496.2188	0.0095
496.418	-0.0071
496.6171	-0.0145
496.8162	-0.0076
497.0153	0.0048
497.2144	-0.0119
497.4135	-0.0071
497.6126	-0.0087
497.8116	-0.0158
498.0107	0.0105
498.2097	-0.0137
498.4087	-0.0066
498.6077	0.001
498.8067	-0.0001
499.0056	-0.0021
499.2046	-0.0012
499.4035	-0.0069
499.6024	-0.0011
499.8013	-0.0011
500.0002	-0.0027
500.199	0.0014
500.3979	-0.0017
500.5967	-0.0122
500.7956	0.001
500.9944	-0.0008
501.1932	-0.0098
501.3919	-0.0054
501.5907	-0.0117
501.7895	-0.0008
501.9882	-0.007
502.1869	0.0026
502.3856	-0.0055
502.5843	-0.01
502.783	-0.0048
502.9816	-0.0017
503.1803	-0.0134
503.3789	0.0057
503.5775	0.0013
503.7761	-0.0131
503.9747	-0.0006
504.1732	-0.0089
504.3718	-0.0075
504.5703	-0.0095
504.7689	-0.0008
504.9674	0.001
505.1658	0.0027
505.3643	-0.0035
505.5628	-0.0019
505.7612	-0.0024
505.9597	0.0024
506.1581	0.001
506.3565	0.0157
506.5549	0.0034
506.7532	-0.0094
506.9516	-0.0042
507.1499	-0.0048
507.3482	-0.0042
507.5465	-0.0073
507.7448	0.0035
507.9431	-0.0005
508.1414	-0.0029
508.3396	-0.0031
508.5379	0.0053
508.7361	-0.0069
508.9343	0.0075
509.1325	-0.0028
509.3306	-0.0047
509.5288	0.0064
509.7269	-0.0033
509.9251	0.0027
510.1232	-0.0068
510.3213	0.0069
510.5193	0.0008
510.7174	-0.0106
510.9154	-0.008
511.1135	-0.0216
511.3115	0.0006
511.5095	0.0059
511.7075	0.0037
511.9055	0.0045
512.1034	-0.0048
512.3014	-0.0056
512.4993	-0.0009
512.6972	0.0028
512.8951	-0.0126
513.093	0.0004
513.2908	-0.0006
513.4887	-0.0051
513.6865	0.004
513.8844	0.0055
514.0822	-0.0061
514.2799	-0.0167
514.4777	-0.0114
514.6755	-0.0095
514.8732	-0.0061
515.0709	0.0099
515.2687	0.0031
515.4664	-0.0004
515.664	-0.0034
515.8617	0.0007
516.0594	-0.0074
516.257	0.005
516.4546	-0.0123
516.6522	0.0004
516.8498	0.0074
517.0474	0.0098
517.2449	0.0096
517.4425	-0.0067
517.64	-0.0056
517.8375	0.018
518.035	0.0006
518.2325	-0.0029
518.43	0.0002
518.6274	0.0063
518.8249	-0.014
519.0223	0.009
519.2197	-0.0035
519.4171	-0.0073
519.6145	-0.0039
519.8118	0.0018
520.0092	-0.0065
520.2065	-0.0056
520.4038	-0.0047
520.6011	0.0052
520.7984	-0.0182
520.9956	-0.002
521.1929	-0.0025
521.3901	0.0036
521.5874	0.0033
521.7846	0.0004
521.9818	-0.0021
522.1789	0.0025
522.3761	0
522.5732	-0.0036
522.7704	-0.0105
522.9675	0.0062
523.1646	-0.004
523.3617	0.0082
523.5587	0.0022
523.7558	0.009
523.9528	-0.0152
524.1498	0.0014
524.3468	0.0028
524.5438	0.0037
524.7408	0.0062
524.9378	0.0057
525.1347	0.0061
525.3316	0.0008
525.5285	-0.0173
525.7254	0.0061
525.9223	0.0042
526.1192	-0.0109
526.316	-0.0021
526.5129	0.0026
526.7097	0.0076
526.9065	-0.0071
527.1033	-0.0037
527.3	-0.0002
527.4968	0.0073
527.6935	0.0058
527.8903	-0.0055
528.087	-0.0032
528.2837	0.0007
528.4804	-0.0002
528.677	-0.0098
528.8737	0.0073
529.0703	0.0042
529.2669	-0.0021
529.4635	-0.0058
529.6601	0.0055
529.8567	0.0035
530.0532	-0.0097
530.2498	0.0004
530.4463	0.012
530.6428	-0.0098
530.8393	0.0021
531.0358	-0.0028
531.2322	-0.0088
531.4287	0.0015
531.6251	-0.0055
531.8215	0.0117
532.0179	-0.0025
532.2143	0.0023
532.4107	0.0005
532.607	-0.0057
532.8034	0.0017
532.9997	0.0084
533.196	-0.0015
533.3923	-0.0056
533.5886	0.006
533.7848	0.0063
533.9811	0.0002
534.1773	0.0097
534.3735	0.0077
534.5697	0.0044
534.7659	0.0032
534.9621	-0.0014
535.1582	-0.0037
535.3544	-0.0029
535.5505	-0.0051
535.7466	-0.0047
535.9427	-0.0065
536.1387	-0.0046
536.3348	-0.0021
536.5308	0.0106
536.7269	-0.0169
536.9229	0.0017
537.1189	-0.0012
537.3148	-0.0006
537.5108	-0.0022
537.7068	0.0047
537.9027	0.0036
538.0986	0.0056
538.2945	0.0028
538.4904	-0.0024
538.6863	0.0077
538.8821	-0.0003
539.078	0.0019
539.2738	0.0047
539.4696	0.0051
539.6654	0.0109
539.8611	0.0133
540.0569	0.0067
540.2526	-0.0009
540.4484	0.0024
540.6441	0.0005
540.8398	0.0019
541.0355	-0.001
541.2311	-0.0065
541.4268	-0.0081
541.6224	0.0064
541.818	0.0022
542.0136	-0.0092
542.2092	-0.0019
542.4048	0.0001
542.6003	0.0074
542.7959	0.0028
542.9914	-0.0051
543.1869	0.0101
543.3824	-0.0004
543.5779	-0.004
543.7734	-0.0041
543.9688	-0.0052
544.1642	0.0048
544.3596	-0.0014
544.555	0.0001
544.7504	0.0056
544.9458	0.0013
545.1411	0.0005
545.3365	0.0003
545.5318	-0.0041
545.7271	0.0051
545.9224	-0.0013
546.1177	0.0036
546.3129	-0.0017
546.5081	0
546.7034	-0.0012
546.8986	-0.0033
547.0938	-0.0019
547.289	0.0023
547.4841	-0.0023
547.6793	0.0004
547.8744	-0.0015
548.0695	0.0009
548.2646	-0.0025
548.4597	0.0031
548.6548	0.0027
548.8498	0.0017
549.0448	0.0011
549.2399	-0.0046
549.4349	0.0128
549.6298	0.0034
549.8248	0.0117
550.0198	-0.001
550.2147	0.0046
550.4096	-0.0036
550.6045	-0.0022
550.7994	0.0036
550.9943	0.0072
551.1892	0.0003
551.384	0.0143
551.5788	-0.0109
551.7737	0.0053
551.9685	-0.0017
552.1632	0.0109
552.358	0.005
552.5528	0.003
552.7475	-0.0013
552.9422	-0.006
553.1369	0.0072
553.3316	0.0028
553.5263	-0.0038
553.7209	0.005
553.9156	0.0035
554.1102	-0.0028
554.3048	-0.0029
554.4994	-0.0016
554.694	-0.0037
554.8885	-0.004
555.0831	0.0058
555.2776	-0.0039
555.4721	-0.0037
555.6666	-0.0068
555.8611	0.0137
556.0555	-0.0026
556.25	0.006
556.4444	-0.0047
556.6388	-0.0038
556.8332	0.0051
557.0276	-0.0013
557.222	0.0013
557.4163	-0.0041
557.6107	-0.0025
557.805	0.008
557.9993	-0.0031
558.1936	0.0072
558.3879	0.001
558.5821	-0.0009
558.7764	-0.0009
558.9706	0.0084
559.1648	0.0005
559.359	-0.0048
559.5532	-0.0082
559.7473	0.0022
559.9415	0.0051
560.1356	-0.0023
560.3297	-0.0074
560.5238	0.0031
560.7179	0.0018
560.9119	0.0045
561.106	-0.0023
561.3	-0.0057
561.494	0.0046
561.688	-0.0068
561.882	-0
562.076	-0.0035
562.2699	0.0016
562.4639	0.0083
562.6578	0.0058
562.8517	0.0038
563.0456	-0.0046
563.2395	0.0141
563.4333	0.0063
563.6272	0.0119
563.821	0.0013
564.0148	-0.0011
564.2086	-0.0087
564.4024	0.0019
564.5961	-0.0056
564.7899	0.0031
564.9836	-0.0005
565.1773	0.0079
565.371	0.0131
565.5647	0.0044
565.7584	0.0098
565.952	0.009
566.1456	0.0045
566.3393	-0.002
566.5329	-0.0028
566.7264	0.0014
566.92	-0.0002
567.1136	0.0037
567.3071	-0.0075
567.5006	0.0017
567.6941	0.006
567.8876	0.0056
568.0811	-0.0021
568.2745	0.0059
568.468	0.0074
568.6614	0.0003
568.8548	0.0027
569.0482	0.0044
569.2416	-0.0035
569.4349	0.0065
569.6283	0.0067
569.8216	-0.0066
570.0149	0.0053
570.2082	0.0112
570.4015	0.0105
570.5947	0.0091
570.788	0.007
570.9812	0.0128
571.1744	-0.0002
571.3676	-0.0024
571.5608	-0.0034
571.754	0.0064
571.9471	-0.0009
572.1402	0.0035
572.3333	0.0047
572.5264	0.0011
572.7195	0.0047
572.9126	0.0075
573.1057	0.0074
573.2987	0.0022
573.4917	0.0131
573.6847	-0.0108
573.8777	0.0117
574.0707	0.008
574.2636	-0.0053
574.4566	0.0015
574.6495	0.0056
574.8424	0.0011
575.0353	0.0016
575.2281	0.0032
575.421	-0.0035
575.6138	0.0071
575.8067	-0.0031
575.9995	0.0126
576.1923	-0.0033
576.385	0.0002
576.5778	-0.0054
576.7706	0.0007
576.9633	0.0036
577.156	0.0056
577.3487	0.0034
577.5414	-0.0003
577.734	-0.0006
577.9267	0.0023
578.1193	-0.0062
578.3119	-0.0062
578.5045	0.0035
578.6971	0.0025
578.8897	0.0077
579.0822	0.0075
579.2747	0.0016
579.4673	0.0019
579.6598	-0.0003
579.8522	0.0005
580.0447	0
580.2372	0.0047
580.4296	0.0094
580.622	-0.0047
580.8144	0.0062
581.0068	0.0002
581.1992	-0.004
581.3915	0.0009
581.5839	-0.0066
581.7762	-0.001
581.9685	0.002
582.1608	0.0084
582.353	0.0018
582.5453	0.0062
582.7375	-0.0037
582.9298	0.0033
583.122	0.0011
583.3142	0.006
583.5063	0.0059
583.6985	0.0001
583.8906	-0.0002
584.0827	-0.0059
584.2749	0.0123
584.4669	0.0015
584.659	-0.0017
584.8511	0.0022
585.0431	0.0018
585.2352	0.0082
585.4272	0.0016
585.6192	0.0072
585.8111	0.0084
586.0031	0.0101
586.195	0.0069
586.387	0.0092
586.5789	0.0067
586.7708	0.0129
586.9627	0.0039
587.1545	0.0008
587.3464	0.0023
587.5382	0.0099
587.73	0.0019
587.9218	0.0062
588.1136	0.0039
588.3053	0.0089
588.4971	0.0007
588.6888	-0.0039
588.8805	-0.0008
589.0722	0.0014
589.2639	0.006
589.4556	0.0053
589.6472	0.0029
589.8389	-0.0053
590.0305	-0.0084
590.2221	0.0038
590.4137	-0.0008
590.6052	0.0035
590.7968	-0.0032
590.9883	-0.0003
591.1798	0.0025
591.3713	-0.0005
591.5628	0.0038
591.7543	0.0025
591.9458	0.0049
592.1372	0.0056
592.3286	0.0084
592.52	0.0055
592.7114	-0.0051
592.9028	0.0019
593.0941	0.0055
593.2855	0.0047
593.4768	-0.0005
593.6681	-0.0025
593.8594	0.0034
594.0506	0.0018
594.2419	0.011
594.4331	0.001
594.6244	0.007
594.8156	-0.0032
595.0067	0.0101
595.1979	0.0051
595.3891	0.0033
595.5802	0.0037
595.7713	0.0075
595.9624	0.0002
596.1535	0.013
596.3446	0.001
596.5357	-0.0038
596.7267	0.0106
596.9177	0.0061
597.1087	-0.0055
597.2997	0.0015
597.4907	0.0053
597.6817	0.0016
597.8726	0.0039
598.0635	-0.0053
598.2544	-0.0007
598.4453	0.0046
598.6362	-0.0019
598.827	-0.0041
599.0179	0.0046
599.2087	0.0047
599.3995	0.0032
599.5903	0.0063
599.7811	0.002
599.9718	0.0051
600.1626	-0.0034
600.3533	-0.0043
600.544	0.0023
600.7347	0.0026
600.9254	0.0065
601.116	-0.0056
601.3067	0.0028
601.4973	0.0013
601.6879	0.0122
601.8785	0.003
602.0691	0.0075
602.2596	0.0059
602.4502	0.0051
602.6407	0.0056
602.8312	0.0038
603.0217	0.0006
603.2122	-0
603.4027	0.0004
603.5931	0.002
603.7835	-0.0033
603.9739	0.0019
604.1643	-0.0066
604.3547	-0.0018
604.5451	0.0011
604.7354	0.0005
604.9257	0.007
605.116	-0.0003
605.3063	0.0036
605.4966	-0.0016
605.6869	0.0025
605.8771	0.0045
606.0673	0.0039
606.2575	0.0113
606.4477	0.0067
606.6379	0.0082
606.8281	-0.0024
607.0182	0.004
607.2083	0.0123
607.3985	-0.0017
607.5885	0.0005
607.7786	0.006
607.9687	0.0009
608.1587	0.0067
608.3488	0.0062
608.5388	-0.0008
608.7288	0.0021
608.9187	-0.0068
609.1087	-0.0017
609.2986	-0.0029
609.4886	0.0016
609.6785	0.0009
609.8684	0.0038
610.0582	0.0072
610.2481	0.0028
610.4379	0.0024
610.6278	0.0024
610.8176	0.0048
611.0074	0.003
611.1971	0.0063
611.3869	0.0002
611.5766	0.0005
611.7664	0.0109
611.9561	0.007
612.1458	0.0028
612.3354	-0.0058
612.5251	0.0051
612.7147	0.0051
612.9044	0.0129
613.094	-0.0058
613.2836	0.0011
613.4731	0.0011
613.6627	-0.0001
613.8522	0.0055
614.0417	0.0022
614.2313	-0.0021
614.4207	-0.0016
614.6102	0.0053
614.7997	0.0019
614.9891	-0.0012
615.1785	-0.0002
615.3679	-0.0002
615.5573	0.0124
615.7467	0.0033
615.9361	0.003
616.1254	0.0082
616.3147	0.0063
616.504	0.0099
616.6933	0.004
616.8826	0.0085
617.0718	0.0058
617.2611	0.0142
617.4503	0.0057
617.6395	0.0012
617.8287	-0.003
618.0179	0.0069
618.207	0.0113
618.3961	0.0072
618.5853	0.0018
618.7744	0.0129
618.9634	0.0075
619.1525	-0.0016
619.3416	0.0092
619.5306	0.0082
619.7196	0.0028
619.9086	-0.0018
620.0976	0.0103
620.2866	-0.0038
620.4755	0.0107
620.6645	0.0113
620.8534	0.005
621.0423	0.0092
621.2312	0.0066
621.42	0.0081
621.6089	0.0019
621.7977	0.0095
621.9865	-0.0014
622.1753	0.0088
622.3641	0.0033
622.5529	0.0076
622.7416	0.0051
622.9303	0.0023
623.1191	0.0106
623.3078	-0.0023
623.4964	-0.0008
623.6851	0.0102
623.8737	-0.0031
624.0624	0.0109
624.251	0.0028
624.4396	0.0074
624.6282	-0.0023
624.8167	0.0002
625.0053	0.0025
625.1938	0.0098
625.3823	0.0015
625.5708	0.0004
625.7593	-0.0016
625.9477	-0.0037
626.1362	0.0014
626.3246	0.0063
626.513	0.0083
626.7014	0.0094
626.8898	0.0074
627.0781	0.0028
627.2665	0.0097
627.4548	0.0171
627.6431	0.0085
627.8314	0.0036
628.0197	0.0087
628.2079	0.0034
628.3962	-0.0023
628.5844	0.0074
628.7726	0.0017
628.9608	0.0087
629.1489	-0.003
629.3371	0.0076
629.5252	-0.0045
629.7134	0.0103
629.9015	-0.0027
630.0895	0.0025
630.2776	0.0098
630.4657	0.007
630.6537	0.0046
630.8417	0.0011
631.0297	0.0071
631.2177	0.0071
631.4057	-0.0029
631.5936	0.0056
631.7815	0.0038
631.9695	0.0094
632.1574	0.0089
632.3452	0.0211
632.5331	0.0098
632.7209	0.0095
632.9088	0.0115
633.0966	0.0195
633.2844	0.0013
633.4722	0.0107
633.6599	0.0126
633.8477	0.012
634.0354	0.0058
634.2231	0.0004
634.4108	0.0127
634.5985	0.0115
634.7861	0.0112
634.9738	-0.001
635.1614	0.0039
635.349	0.0082
635.5366	0.0054
635.7242	0.0094
635.9117	0.0073
636.0993	0.0039
636.2868	0.0142
636.4743	0.0074
636.6618	0.0156
636.8492	0.0108
637.0367	0.0074
637.2241	0.0091
637.4115	0.0073
637.5989	0.004
637.7863	0.0019
637.9737	0.0039
638.161	0.0062
638.3484	0.0039
638.5357	0.0083
638.723	0.0027
638.9103	0.0052
639.0975	0.011
639.2848	0.0067
639.472	0.0077
639.6592	0.0092
639.8464	0.0133
640.0336	0.0128
640.2208	0.0036
640.4079	0.0026
640.595	0.0019
640.7821	0.0077
640.9692	0.001
641.1563	0.0067
641.3434	0.0057
641.5304	0.0121
641.7174	0.0152
641.9044	0.0061
642.0914	0.0071
642.2784	0.0093
642.4653	0.0064
642.6523	0.0107
642.8392	0.0067
643.0261	0.0087
643.213	0.0062
643.3999	0.0021
643.5867	-0.001
643.7735	0.0087
643.9604	-0.0001
644.1472	0.0091
644.3339	0.0116
644.5207	0.0075
644.7075	0.005
644.8942	0.0148
645.0809	0.011
645.2676	0.0147
645.4543	0.0038
645.6409	0.0051
645.8276	0.0074
646.0142	0.0081
646.2008	-0.0026
646.3874	0.0037
646.574	0.0052
646.7605	0.0042
646.9471	-0.0033
647.1336	0.0083
647.3201	0.0038
647.5066	-0.007
647.6931	0.009
647.8795	0.0025
648.0659	0.0033
648.2524	0.0061
648.4388	0.0044
648.6252	0.011
648.8115	-0.0026
648.9979	0.0073
649.1842	0
649.3705	0.001
649.5568	0.0075
649.7431	0.0062
649.9294	0.0018
650.1156	0.0097
650.3018	-0.0026
650.488	0.0061
650.6742	0.005
650.8604	0.0075
651.0466	-0.0019
651.2327	0.003
651.4188	0.0077
651.6049	-0.001
651.791	0.0041
651.9771	0.0107
652.1632	0.0109
652.3492	0.0122
652.5352	0.0124
652.7212	0.004
652.9072	0.0124
653.0932	0.0054
653.2791	0.0054
653.465	0.0101
653.651	0.0016
653.8369	0.0048
654.0227	0.0011
654.2086	0.0038
654.3944	0.0072
654.5803	0.0136
654.7661	0.0048
654.9519	0.0087
655.1377	0.0013
655.3234	0.0047
655.5092	-0.0008
655.6949	-0.0069
655.8806	-0.007
656.0663	0.0009
656.2519	0.0023
656.4376	0.0049
656.6232	0.0081
656.8088	0.0024
656.9945	0.0022
657.18	0.0075
657.3656	0.0068
657.5511	-0.0034
657.7367	-0.0005
657.9222	0.0091
658.1077	-0.0013
658.2932	0.0126
658.4786	0.0034
658.6641	0.0037
658.8495	0.0058
659.0349	-0.0011
659.2203	0.0106
659.4057	0.0055
659.591	0.0075
659.7764	0.001
659.9617	0.0119
660.147	0.004
660.3323	0.0107
660.5176	0.0158
660.7028	0.0116
660.888	0.0026
661.0733	0.0025
661.2585	0.0037
661.4436	0.0016
661.6288	-0.0024
661.8139	-0.0022
661.9991	0.0016
662.1842	-0.0038
662.3693	-0.0027
662.5544	0.0028
662.7394	0.001
662.9245	-0.0027
663.1095	0.003
663.2945	0.0013
663.4795	0.0003
663.6644	0.0034
663.8494	0.0117
664.0343	0.0147
664.2193	-0.0019
664.4042	0.0011
664.589	0.0028
664.7739	0.0021
664.9587	0.0014
665.1436	0.0016
665.3284	0.0051
665.5132	0.0007
665.698	0.002
665.8827	0.0109
666.0675	0.0072
666.2522	-0.0013
666.4369	0.0045
666.6216	0.0065
666.8063	0.0054
666.9909	0.0056
667.1756	0.004
667.3602	0.0072
667.5448	0.0037
667.7294	0.0209
667.9139	0.0153
668.0985	0.0145
668.283	0.0089
668.4675	0.0106
668.652	0.0026
668.8365	0.0035
669.0209	0.0068
669.2054	0.012
669.3898	0.0046
669.5742	0.0041
669.7586	0.0122
669.943	0.0257
670.1273	0.0159
670.3117	0.0155
670.496	0.0041
670.6803	0.0199
670.8646	0.0104
671.0488	-0.0061
671.2331	0.0116
671.4173	0.017
671.6015	0.0068
671.7857	0.0082
671.9699	0.008
672.1541	0.0086
672.3382	0.0024
672.5223	0.0079
672.7064	0.003
672.8905	0.0083
673.0746	-0.004
673.2587	0.0086
673.4427	0.0033
673.6267	0.0032
673.8107	0.0186
673.9947	0.0076
674.1787	0.005
674.3626	-0.0064
674.5465	0.0094
674.7304	0.0105
674.9143	0.0128
675.0982	0.0133
675.2821	0.0059
675.4659	0.0109
675.6497	0.004
675.8335	0.001
676.0173	0.0026
676.2011	0.0077
676.3849	0.0107
676.5686	-0.0047
676.7523	0.001
676.936	0.0032
677.1197	-0.0036
677.3034	-0.0051
677.487	0.0119
677.6706	0.0036
677.8542	0.0078
678.0378	0.0058
678.2214	0.0032
678.405	-0.0019
678.5885	-0.0021
678.772	0.0048
678.9555	-0.006
679.139	0.0071
679.3225	0.0054
679.5059	0.0045
679.6894	0.0065
679.8728	0.0054
680.0562	-0.006
680.2395	-0.0003
680.4229	0.0003
680.6062	0.0121
680.7896	0.0065
680.9729	-0.0029
681.1562	0.0044
681.3394	0.005
681.5227	-0.0091
681.7059	0.0092
681.8891	0.0015
682.0723	0.0087
682.2555	0.0068
682.4387	0.0023
682.6218	0.0036
682.805	0.0053
682.9881	0.0131
683.1712	-0.0001
683.3542	0.0084
683.5373	0.007
683.7203	0.0003
683.9034	0.0077
684.0864	-0.0022
684.2694	0.0036
684.4523	0.0081
684.6353	-0.0007
684.8182	0.0077
685.0011	-0.0067
685.184	0.0088
685.3669	0.0033
685.5498	0.0064
685.7326	0.0098
685.9154	-0.0022
686.0982	0.0156
686.281	0.0132
686.4638	0.0035
686.6465	0.0022
686.8293	-0.0022
687.012	0.0158
687.1947	-0.0019
687.3774	0.0047
687.56	0.0046
687.7427	0.012
687.9253	-0.0037
688.1079	-0.0036
688.2905	0.0183
688.4731	0.008
688.6556	0.0031
688.8382	0.0013
689.0207	0.0056
689.2032	-0.0092
689.3857	-0.0084
689.5681	-0.0025
689.7506	-0.0019
689.933	-0.0023
690.1154	-0.0008
690.2978	-0.0021
690.4802	-0.0021
690.6626	-0.0076
690.8449	-0.0002
691.0272	0.0087
691.2095	-0.0044
691.3918	-0.0021
691.5741	0.0066
691.7563	0.0043
691.9386	0.0079
692.1208	0.0063
692.303	0.0073
692.4852	0.001
692.6673	0.0036
692.8495	-0.0046
693.0316	0.0085
693.2137	0.0021
693.3958	0.0098
693.5778	-0.0003
693.7599	0.0057
693.9419	0.0007
694.1239	0.0154
694.3059	0.0025
694.4879	0.0103
694.6699	0.0137
694.8518	0.0034
695.0337	-0.0019
695.2157	0.0111
695.3975	0.0139
695.5794	0.0169
695.7613	0.0023
695.9431	0.0066
696.1249	0.0087
696.3067	0.0103
696.4885	0.0059
696.6703	0.0005
696.852	0.0039
697.0337	0.005
697.2154	0.0062
697.3971	0.0013
697.5788	0.0054
697.7605	0.0029
697.9421	0.0091
698.1237	0.0097
698.3053	0.0065
698.4869	0.0031
698.6685	-0.0022
698.85	-0.0009
699.0315	0.0131
699.213	-0.0028
699.3945	0.0104
699.576	0.0094
699.7575	0.0142
699.9389	0.0176
700.1203	-0.0013
700.3017	-0.004
700.4831	-0.002
700.6645	0.0071
700.8458	0.0098
701.0271	-0.0002
701.2084	0.0111
701.3897	0.0097
701.571	0.0066
701.7523	-0.0063
701.9335	0.0028
702.1147	0.004
702.2959	0.0042
702.4771	0.0061
702.6583	0.0043
702.8394	0.0095
703.0205	0.0096
703.2016	-0.0024
703.3827	0.0064
703.5638	0.0169
703.7449	-0.0027
703.9259	0.01
704.1069	-0.0017
704.2879	0.0087
704.4689	0.0088
704.6499	0.0007
704.8308	0.0009
705.0117	0.0026
705.1927	0.0074
705.3735	0.0014
705.5544	-0.0027
705.7353	0.0071
705.9161	0.001
706.0969	-0.0039
706.2777	0.0031
706.4585	0.0017
706.6393	0.0066
706.82	-0.0056
707.0007	-0.0009
707.1815	0.0033
707.3621	0.0103
707.5428	0.0072
707.7235	0.0007
707.9041	0.0002
708.0847	-0.0046
708.2653	-0.006
708.4459	-0.0077
708.6265	-0.0031
708.807	-0.0022
708.9875	-0.0015
709.168	-0.006
709.3485	-0.0086
709.529	-0.0015
709.7095	-0.0159
709.8899	0.0001
710.0703	-0.0106
710.2507	-0.0009
710.4311	0.0054
710.6115	-0.006
710.7918	-0.008
710.9721	-0.0031
711.1524	-0.0067
711.3327	-0.0009
711.513	-0.0008
711.6932	0.0078
711.8735	0.0099
712.0537	0.002
712.2339	0.0005
712.4141	-0.0076
712.5942	-0.0025
712.7744	0.0052
712.9545	-0.0046
713.1346	-0.0002
713.3147	0.0025
713.4947	0.0056
713.6748	0.0038
713.8548	-0.0005
714.0348	-0.0035
714.2148	-0.0018
714.3948	0.0096
714.5748	0.0054
714.7547	0.0004
714.9346	0.0095
715.1145	0.0002
715.2944	-0.0001
715.4743	0
715.6541	0.004
715.834	0.0108
716.0138	-0.0004
716.1936	-0.0007
716.3733	-0.0012
716.5531	0.0016
716.7328	-0.0012
716.9126	-0.0078
717.0923	0.0044
717.2719	0.0009
717.4516	0.0054
717.6312	0.0044
717.8109	-0.0067
717.9905	0.01
718.1701	0.0037
718.3496	-0.0057
718.5292	0.0088
718.7087	0.0024
718.8882	-0.0031
719.0677	0.0111
719.2472	0.0008
719.4267	0.0021
719.6061	0.0047
719.7856	0.0062
719.965	0.0094
720.1443	-0.006
720.3237	0.0109
720.5031	0.0017
720.6824	0.0062
720.8617	-0.0024
721.041	0.0036
721.2203	0.0099
721.3995	0.0056
721.5788	0.0074
721.758	0.009
721.9372	0.0047
722.1164	0.0074
722.2956	0.0045
722.4747	0.007
722.6538	-0.001
722.8329	0.0108
723.012	0.0062
723.1911	0.0079
723.3702	0.0028
723.5492	0.0097
723.7282	0.0028
723.9072	0.006
724.0862	-0.0012
724.2652	-0.006
724.4441	0.0051
724.623	-0.0031
724.8019	-0.003
724.9808	0.0011
725.1597	-0.0089
725.3385	0.0067
725.5174	0.0084
725.6962	-0.0023
725.875	0.0095
726.0538	0.0081
726.2325	0.0011
726.4112	0.0087
726.59	-0.006
726.7687	-0.0062
726.9474	0.0119
727.126	0.0029
727.3047	-0.0041
727.4833	-0.0007
727.6619	-0.0041
727.8405	-0.0011
728.0191	0.0044
728.1976	0.0134
728.3762	0.0083
728.5547	0.0045
728.7332	-0.0104
728.9116	0.0058
729.0901	-0.0018
729.2686	0.0054
729.447	0.0022
729.6254	0.0092
729.8038	0.0049
729.9821	-0.0022
730.1605	0.0041
730.3388	0.0059
730.5171	0.0051
730.6954	0.0014
730.8737	0.0084
731.0519	0.0066
731.2302	0.0187
731.4084	0.0087
731.5866	0.0017
731.7648	-0.0037
731.9429	0.0007
732.1211	-0.0066
732.2992	-0.003
732.4773	-0.0088
732.6554	-0.0068
732.8335	0.0004
733.0115	0.0065
733.1896	0.0077
733.3676	-0.0061
733.5456	0.0071
733.7235	0.0114
733.9015	0.0017
734.0794	-0.0012
734.2574	-0.0035
734.4353	0.01
734.6131	0.0144
734.791	0.0088
734.9689	0.0027
735.1467	0.0097
735.3245	0.0031
735.5023	0.0008
735.68	0.0091
735.8578	0.015
736.0355	-0.0052
736.2132	-0.0008
736.3909	0.0006
736.5686	-0.0069
736.7463	0.0087
736.9239	0.0007
737.1015	0.0008
737.2791	0.0128
737.4567	0.0048
737.6343	-0.001
737.8118	0.0137
737.9894	0.0116
738.1669	-0.002
738.3444	-0.0019
738.5218	0.01
738.6993	0.0059
738.8767	-0.0002
739.0541	0.0084
739.2315	0.0078
739.4089	0.0055
739.5863	0.0086
739.7636	-0.0006
739.9409	0.0043
740.1182	0.0059
740.2955	0.0014
740.4728	0.0058
740.65	-0.0006
740.8272	-0.0015
741.0044	-0.0056
741.1816	0.0016
741.3588	0.0011
741.5359	0.0076
741.7131	0.001
741.8902	0.0008
742.0673	0.0012
742.2444	-0.002
742.4214	0.0009
742.5985	-0.0077
742.7755	-0.003
742.9525	-0.0094
743.1295	-0.0037
743.3064	0.0007
743.4834	0.0069
743.6603	0.0132
743.8372	0.0022
744.0141	0.0109
744.191	0.01
744.3678	0.0035
744.5446	0.0082
744.7215	0.0007
744.8982	0.0057
745.075	0.0022
745.2518	0.0119
745.4285	0.0034
745.6052	0.0036
745.7819	-0.0005
745.9586	0.0019
746.1353	-0.004
746.3119	-0.0013
746.4885	-0.0015
746.6651	-0.0056
746.8417	0.0007
747.0183	0.0046
747.1948	-0.0006
747.3714	0.0078
747.5479	0.0015
747.7244	-0.004
747.9008	0.0105
748.0773	-0
748.2537	0.0072
748.4301	-0.0075
748.6065	-0.0019
748.7829	0.008
748.9593	0.0002
749.1356	0.0059
749.3119	0.0011
749.4882	-0.0022
749.6645	0.0096
749.8408	-0.0038
750.017	-0.0063
750.1933	0.0124
750.3695	0.0008
750.5457	0.0087
750.7218	0.0016
750.898	0.003
751.0741	0.0044
751.2502	0.0098
751.4263	0.0118
751.6024	-0.0051
751.7784	0.0016
751.9545	0.0033
752.1305	0.0008
752.3065	0.0011
752.4825	0.0044
752.6584	-0.0061
752.8344	0.0003
753.0103	-0.0052
753.1862	0.0018
753.3621	0.0003
753.5379	0.0099
753.7138	0.0077
753.8896	-0.0014
754.0654	0.0064
754.2412	0.0025
754.417	0.0015
754.5927	0.0023
754.7685	0.0065
754.9442	0.0026
755.1199	0.0158
755.2956	0.0025
755.4712	0.0168
755.6469	0.006
755.8225	0.0022
755.9981	0.0086
756.1736	0.0176
756.3492	0.0089
756.5248	0.0095
756.7003	0.002
756.8758	0.0086
757.0513	-0.0043
757.2267	-0.002
757.4022	0.0121
757.5776	0
757.753	0.0054
757.9284	0.002
758.1038	0.016
758.2791	0.0062
758.4545	-0.0062
758.6298	0.0056
758.8051	0.0097
758.9803	0.0106
759.1556	-0.0004
759.3308	0.0021
759.506	0.0177
759.6812	0.0085
759.8564	0.0106
760.0316	-0.0015
760.2067	0.0162
760.3819	0.0147
760.557	0.0091
760.732	0.0137
760.9071	0.0006
761.0821	0.0073
761.2572	0.0175
761.4322	0.0065
761.6072	0.0135
761.7821	0.0094
761.9571	0.005
762.132	0.0022
762.3069	0.0022
762.4818	-0.0001
762.6567	0.0036
762.8316	0.0024
763.0064	0.0038
763.1812	-0.0009
763.356	-0.0087
763.5308	0.003
763.7055	0.0084
763.8803	-0.0066
764.055	0.0049
764.2297	-0.0075
764.4044	-0.013
764.579	0.0037
764.7537	-0.0104
764.9283	0.0042
765.1029	-0.0032
765.2775	-0.0008
765.4521	-0.0091
765.6266	-0.0022
765.8011	-0.0049
765.9756	-0.0041
766.1501	0.0071
766.3246	0.0033
766.4991	0.0056
766.6735	0.013
766.8479	0.0045
767.0223	0.0216
767.1967	0.007
767.371	0.0062
767.5454	0.0065
767.7197	0.0016
767.894	-0.0055
768.0683	-0.0061
768.2425	0.0121
768.4168	0.0046
768.591	0.0042
768.7652	0.0026
768.9394	0.0072
769.1135	0.0073
769.2877	0.013
769.4618	0.0057
769.6359	0.003
769.81	-0.0035
769.984	0.0031
770.1581	-0.0112
770.3321	0.0093
770.5061	-0.0003
770.6801	0.0021
770.8541	-0.0004
771.028	0.0018
771.202	-0.0064
771.3759	0.0103
771.5498	-0.0081
771.7236	0.0013
771.8975	-0.0076
772.0713	0.0152
772.2451	0.0018
772.4189	0.0098
772.5927	0.0141
772.7665	0.0058
772.9402	-0.0021
773.1139	-0.0018
773.2876	-0.0086
773.4613	0.0129
773.635	0.0049
773.8086	0.003
773.9822	0.0059
774.1558	0.0233
774.3294	-0.0082
774.503	0.003
774.6765	0.0097
774.8501	0.0045
775.0236	0.0019
775.1971	0.0103
775.3705	-0.0039
775.544	0.0119
775.7174	-0.0097
775.8908	0.0054
776.0642	-0.0055
776.2376	0.0039
776.4109	-0.0093
776.5843	0.0005
776.7576	0.0066
776.9309	0.0157
777.1041	0.0099
777.2774	0.0167
777.4506	0.006
777.6238	-0.0153
777.797	0.0017
777.9702	0.0011
778.1434	0.004
778.3165	-0.007
778.4896	-0.0044
778.6627	0.0047
778.8358	-0.0034
779.0089	-0.0065
779.1819	-0.0051
779.3549	0.0057
779.5279	0.0035
779.7009	0.0037
779.8739	-0.0013
780.0468	0.0038
780.2197	0.0045
780.3926	0.0058
780.5655	-0.0063
780.7384	0.0016
780.9112	-0.0055
781.0841	-0.005
781.2569	-0.0002
781.4297	0.0105
781.6024	0.0111
781.7752	0.0126
781.9479	0.0165
782.1206	0.0009
782.2933	-0.0097
782.466	-0.0012
782.6386	0.0038
782.8113	-0.0077
782.9839	0.0152
783.1565	0.0041
783.329	0.0028
783.5016	0.0052
783.6741	0.0016
783.8466	0.0053
784.0191	0.0216
784.1916	-0.0028
784.3641	0.005
784.5365	0.0034
784.7089	-0.0077
784.8813	-0.002
785.0537	-0.0103
785.2261	-0.0161
785.3984	-0.0069
785.5707	0.0032
785.743	-0.0009
785.9153	-0.0081
786.0876	0.0014
786.2598	-0.0082
786.432	-0.0213
786.6042	-0.0004
786.7764	-0.0133
786.9486	-0.0021
787.1207	-0.0126
787.2928	0.0145
787.4649	0.0084
787.637	0.0146
787.8091	0.0025
787.9811	-0.0056
788.1532	-0.0007
788.3252	0.0128
788.4972	-0.0158
788.6691	-0.0015
788.8411	-0.0037
789.013	0.0021
789.1849	-0.008
789.3568	-0.0014
789.5287	-0.0102
789.7005	-0.0022
789.8723	-0.0091
790.0442	0.0212
790.2159	-0.003
790.3877	-0.009
790.5595	-0.0085
790.7312	-0.0065
790.9029	0.0018
791.0746	-0.0172
791.2463	0.0055
791.4179	-0.0089
791.5896	0.0079
791.7612	-0.0061
791.9328	0.0244
792.1044	-0.0108
792.2759	-0.0123
792.4474	-0.0077
792.619	0.0086
792.7905	0.0161
792.9619	0.0034
793.1334	0.0005
793.3048	0.023
793.4762	0.0113
793.6476	0.0128
793.819	-0.0095
793.9904	0.0092
794.1617	-0.009
794.333	0.0182
794.5043	-0.0118
794.6756	-0.0102
794.8469	0.0022
795.0181	0.0057
795.1893	-0.008
795.3605	0.0133
795.5317	-0.0136
795.7029	0.0023
795.874	0.0035
796.0452	0.0004
796.2163	-0.0118
796.3873	0.0163
796.5584	0.0131
796.7294	-0.0086
796.9005	0.0055
797.0715	0.0018
797.2425	-0.016
797.4134	-0.0045
797.5844	0.0188
797.7553	-0.0111
797.9262	0.0155
798.0971	-0.0254
798.2679	-0.0044
798.4388	-0.0185
798.6096	-0.0066
798.7804	0.0142
798.9512	0.0001
799.122	0.0064
799.2927	0.0158
799.4635	0.0163
799.6342	-0.0058
799.8049	-0.0071
799.9755	0.0103
800.1462	0.0144
800.3168	0.0182
800.4874	0.016
800.658	0.0165
800.8286	0.0224
800.9991	0.0014
801.1696	0.0026
801.3402	0.0203
801.5106	0.0116
801.6811	0.0189
801.8516	0.0325
802.022	-0.0022
802.1924	0.0167
802.3628	0.0232
802.5332	0.014
802.7035	0.0283
802.8739	0.0028
803.0442	-0.0012
803.2145	0.0225
803.3847	-0.0115
803.555	-0.0018
803.7252	0.0021
803.8954	0.0032
804.0656	0.0037
804.2358	-0.0001
804.4059	0.006
804.5761	0.0125
804.7462	0.0016
804.9163	0.0018
805.0864	0.0064
805.2564	0.0156
805.4264	0.0047
805.5965	0.0005
805.7665	-0.0143
805.9364	-0.0013
806.1064	0.0394
806.2763	0.0094
806.4462	0.0265
806.6161	0.0148
806.786	0.0027
806.9559	0.001
807.1257	-0.0064
807.2955	-0.0128
807.4653	-0.0017
807.6351	-0.0016
807.8048	-0.0037
807.9746	0.0094
808.1443	0.011
808.314	-0.0132
808.4837	0.0137
808.6533	0.0178
808.8229	0.0265
808.9926	0.0006
809.1622	0.0222
809.3317	-0.0036
809.5013	0.011
809.6708	0.0304
809.8403	0.0083
810.0098	0.0214
810.1793	0.0275
810.3488	0.0092
810.5182	-0.0169
810.6876	0.0147
810.857	-0.0105
811.0264	0.0257
811.1958	-0.0027
811.3651	-0.003
811.5344	-0.0039
811.7037	-0.0051
811.873	0.0075
812.0422	-0.0095
812.2115	-0.0013
812.3807	-0.0224
812.5499	0.0375
812.7191	0.0193
812.8882	-0.0016
813.0574	0.0029
813.2265	0.0061
813.3956	-0.0039
813.5646	0.0116
813.7337	-0.0131
813.9027	0.0292
814.0718	0.011
814.2407	0.0281
814.4097	0.0049
814.5787	-0.0025
814.7476	-0.0111
814.9165	0.0071
815.0854	-0.0026
815.2543	-0.0008
815.4232	-0.0095
815.592	0.022
815.7608	-0.0049
815.9296	0.0169
816.0984	0.0345
816.2671	-0.0096
816.4359	0.0031
816.6046	0.0039
816.7733	0.0144
816.942	0.0036
817.1106	0.0086
817.2793	0.0333
817.4479	0.0382
817.6165	0.0144
817.785	0.0007
817.9536	0.0101
818.1221	-0.0044
818.2906	0.0177
818.4591	-0.0012
818.6276	0.0255
818.7961	0.0152
818.9645	0.0275
819.1329	0.0143
819.3013	0.0435
819.4697	0.0315
819.638	0.0067
819.8064	0.0189
819.9747	0.0047
820.143	0.0241
820.3113	-0.0212
820.4795	0.0209
820.6477	-0.0033
820.816	0.0026
820.9842	-0.0052
821.1523	-0.0193
821.3205	-0.0066
821.4886	-0.0102
821.6567	0.0169
821.8248	0.0306
821.9929	0.0253
822.1609	0.0058
822.329	0.0367
822.497	0.021
822.665	0.0021
822.833	-0.0128
823.0009	0.0131
823.1688	0.0193
823.3367	0.0278
823.5046	0.0266
823.6725	0.0397
823.8404	0.0142
824.0082	0.0205
824.176	0.0178
824.3438	-0.0276
824.5116	0.0069
824.6793	0.0212
824.847	0.0144
825.0147	-0.0186
825.1824	0.0251
825.3501	0.0154
825.5177	-0.0047
825.6854	-0.0046
825.853	0.0349
826.0206	-0.0118
826.1881	0.0062
826.3557	-0.0348
826.5232	0.0229
826.6907	-0.0196
826.8582	-0.0079
827.0257	-0.0289
827.1931	0.0047
827.3605	0.012
827.528	0.0431
827.6953	0.0061
827.8627	0.0173
828.03	0.0284
828.1974	-0.0082
828.3647	-0.0115
828.532	-0.0299
828.6992	-0.0125
828.8665	0.0207
829.0337	0.0078
829.2009	0.0328
829.3681	0.0142
829.5352	0.0471
829.7024	-0.0104
829.8695	-0.0291
830.0366	0.0536
830.2037	0.0352
830.3707	0.0256
830.5378	0.011
830.7048	0.014
830.8718	0.0079
831.0388	-0.0004
831.2057	0.0288
831.3727	0.0215
831.5396	0.0194
831.7065	0.0019
831.8734	0.0045
832.0402	-0.0308
832.2071	0.0281
832.3739	-0.018
832.5407	0.0198
832.7075	0.0174
832.8742	-0.0131
833.041	-0.0675
833.2077	0.0132
833.3744	0.017
833.541	0.0212
833.7077	0.0129
833.8743	-0.0283
834.0409	0.0196
834.2075	0.052
834.3741	-0.001
834.5407	0.0339
834.7072	-0.0023
834.8737	-0.023
835.0402	-0.034
835.2067	0.0359
835.3731	0.0178
835.5395	0.0152
835.706	0.0437
835.8723	0.0075
836.0387	0.0281
836.2051	-0.0128
836.3714	0.0155
836.5377	0.0513
836.704	-0.0033
836.8703	-0.0036
837.0365	0.0024
837.2027	-0.0325
837.3689	-0.0103
837.5351	-0.0012
837.7013	-0.0464
837.8674	-0.0509
838.0335	0.0177
838.1997	-0.0022
838.3657	-0.0187
838.5318	-0.0259
838.6978	0.0339
838.8639	0.0326
839.0299	0.0279
839.1958	-0.0174
839.3618	0.0089
839.5277	-0.009
839.6937	0.0036
839.8596	-0.0192
840.0254	0.0078
840.1913	0.0749
840.3571	0.0553
840.523	-0.0248
840.6888	-0.0034
840.8545	-0.0213
841.0203	0.0274
841.186	0.0178
841.3517	0.0057
841.5174	-0.026
841.6831	-0.0419
841.8488	0.0398
842.0144	0.0199
842.18	-0.0188
842.3456	0.0088
842.5112	-0.0007
842.6767	-0.0506
842.8422	0.0372
843.0077	-0.0247
843.1732	-0.0008
843.3387	-0.0726
843.5042	-0.0492
843.6696	-0.0173
843.835	-0.0187
844.0004	0.0563
844.1657	0.0675
844.3311	-0.0123
844.4964	-0.0775
844.6617	0.0197
844.827	-0.0299
844.9923	-0.0513
845.1575	-0.0067
845.3227	0.0365
845.4879	-0.0311
845.6531	-0.0677
845.8183	-0.1108
845.9834	0.0105
846.1485	-0.005
846.3136	-0.0219
846.4787	-0.1126
846.6438	0.0262
846.8088	-0.0254
846.9738	-0.0667
847.1388	-0.0255
847.3038	0.0368
847.4687	-0.1038
847.6337	0.0469
847.7986	0.0139
847.9635	-0.0294
848.1284	0.105
848.2932	0.0293
848.458	-0.0478
848.6228	0.0695
848.7876	0.0448
848.9524	-0.1005
849.1172	-0.0644
849.2819	-0.0292
849.4466	-0.11
849.6113	-0.0857
849.7759	0.0494
849.9406	-0.0046
850.1052	0.0082
850.2698	0.0301
850.4344	0.0007
850.599	-0.0129
850.7635	0.1138
850.928	-0.0373
851.0925	-0.0467
851.257	0.0415
851.4215	0.0726
851.5859	-0.0989
851.7503	0.106
851.9147	-0.0358
852.0791	-0.0572
852.2434	-0.0161
852.4078	0.1518
852.5721	0.1426
852.7364	0.0368
852.9007	-0.197
853.0649	0.1071
853.2291	-0.0747
853.3934	0.0245
853.5575	0.0137
853.7217	-0.0337
853.8859	-0.1804
854.05	-0.0347
854.2141	0.0087
854.3782	-0.0239
854.5423	-0.117
854.7063	0.1825
854.8703	-0.0561
855.0343	-0.1096
855.1983	-0.2049
855.3623	0.1656
855.5262	0.1278
855.6901	0.0582
855.854	0.0241
856.0179	0.0402
856.1818	0.2154
856.3456	-0.0649
856.5094	-0.0838
856.6732	-0.1474
856.837	0.1132
857.0008	0.0424
857.1645	0.0391
857.3282	-0.0144
857.4919	-0.0053
857.6556	0.2209
857.8192	0.0611
857.9828	0.0096
858.1465	-0.0934
858.31	-0.1658
858.4736	0.0752
858.6372	-0.005
858.8007	-0.1504
858.9642	0.0873
859.1277	-0.0153
859.2911	0.2193
859.4546	0.001
859.618	-0.2407
859.7814	-0.0979
859.9448	0.1266
860.1081	0.226
860.2715	0.3485
860.4348	0.4224
860.5981	0.2024
860.7614	0.0235
860.9246	0.1832
861.0879	-0.1793
861.2511	0.1963
861.4143	-0.2653
861.5774	0.1045
861.7406	-0.1421
861.9037	0.2912
862.0668	0.272
862.2299	-0.0584
862.393	-0.5533
862.556	0.1154
862.7191	-0.192
862.8821	-0.2891
863.0451	0.0607
863.208	0.0547
863.371	0.0152
863.5339	0.1695
863.6968	0.089
863.8597	0.2231
864.0225	0.0874
864.1854	0.208
864.3482	-0
864.511	0.3546
864.6737	0.1788
864.8365	0.0418
864.9992	0.0938
865.1619	-0.5044
865.3246	0.1821
865.4873	-0.0496
865.65	0.1748
865.8126	-0.0701
865.9752	0.0726
866.1378	-0.1304
866.3004	-0
866.4629	0.5713
866.6254	-0.1244
866.7879	0.3361
866.9504	0.5504
867.1129	-0
867.2753	1.1093
867.4377	0.0816
867.6001	-0.0823
867.7625	-0.155
867.9249	-0.63
868.0872	-0.0386
868.2495	0.1193
868.4118	-0.3344
868.5741	-0
868.7363	-0.0098
868.8986	-0
869.0608	-0.2648
869.223	0.4805
869.3851	-0.2693
869.5473	-0
869.7094	0.1103
869.8715	-0.2122
870.0336	-0
870.1957	-0.1641
870.3577	-1.12
870.5197	-0.1908
870.6817	0.0283
870.8437	-0.1896
871.0057	0.1461
871.1676	-0.6143
871.3295	-0.2006
871.4914	-0
871.6533	-0.3295
871.8151	-0.4619
871.977	-0
872.1388	-0
872.3006	-0
872.4623	0.2875
872.6241	0.2644
872.7858	-0.1901
872.9475	-0.3171
873.1092	-0.1579
873.2709	0.4479
873.4325	0.3749
873.5941	-0.3643
873.7557	-0
873.9173	-0
874.0789	-0.455
874.2404	-0
874.4019	0.2434
874.5634	-0.0326
874.7249	-0.2005
874.8863	0.3667
875.0478	-0
875.2092	-0
875.3706	0.3702
875.5319	-0.2795
875.6933	-0.1063
875.8546	-0.0148
876.0159	-0.2609
876.1772	1.1241
876.3385	-0
876.4997	0.3494
876.6609	-0.1075
876.8221	-0.0504
876.9833	-0.0603
877.1445	-0
877.3056	0.0661
877.4667	-0.0402
877.6278	-0
877.7889	0.699
877.9499	0.1165
878.111	-0.4277
878.272	-0
878.433	-0
878.5939	0.3695
878.7549	-0.1392
878.9158	-0.9929
879.0767	-0.0327
879.2376	0.8662
879.3984	1.0624
879.5593	-0
879.7201	-0.1392
879.8809	-0.884
880.0417	-0.5582
880.2024	-0
880.3632	-0
880.5239	0.3106
880.6846	0.1049
880.8452	-2.6803
881.0059	-0
881.1665	-0.11
881.3271	0.0665
881.4877	-0.5471
881.6483	-0.5951
881.8088	-0.4993
881.9693	0.2478
882.1298	0.2478
882.2903	0.2478
