Data from MonoPyChalIsomerACN10uM440nmA_Absorbance_15-27-13-794.txt Node
Date: Fri Jul 05 15:27:13 BST 2024
User: LASERRRRR
Spectrometer: FLMT03099
Trigger mode: 0
Integration Time (sec): 1.000000E-1
Scans to average: 1
Electric dark correction enabled: true
Nonlinearity correction enabled: false
Boxcar width: 0
XAxis mode: Wavelengths
Number of Pixels in Spectrum: 3648
>>>>>Begin Spectral Data<<<<<
179.3399	0.1882
179.5586	0.1882
179.7771	0.1882
179.9957	0.3364
180.2143	-0
180.4329	0.3901
180.6514	0.393
180.8699	-0
181.0885	-0
181.307	0.6397
181.5255	-0
181.744	-0
181.9625	-0
182.181	-0
182.3994	0.5465
182.6179	0.2576
182.8363	-0.131
183.0547	0.3111
183.2732	0.0598
183.4916	0.2823
183.71	-0.0119
183.9284	0.2584
184.1467	-0.0562
184.3651	-0.0281
184.5835	-0.0004
184.8018	0.1394
185.0201	0.3454
185.2385	-0.0105
185.4568	0.0939
185.6751	0.0682
185.8934	0.311
186.1117	0.1499
186.3299	0.0708
186.5482	0.1471
186.7664	0.0044
186.9847	0.0633
187.2029	0.0704
187.4211	0.1584
187.6393	0.2787
187.8575	-0.1324
188.0757	0.4342
188.2939	0.1335
188.512	0.1744
188.7302	0.0691
188.9483	0.4144
189.1665	0.1831
189.3846	0.2968
189.6027	0.4174
189.8208	0.2374
190.0389	0.1683
190.257	0.1032
190.475	0.2623
190.6931	0.2125
190.9111	0.7919
191.1292	0.2112
191.3472	0.4276
191.5652	0.2596
191.7832	0.4007
192.0012	0.7972
192.2192	0.3326
192.4371	0.7391
192.6551	0.2802
192.873	0.3294
193.091	0.5904
193.3089	0.5501
193.5268	0.3684
193.7447	0.5816
193.9626	0.491
194.1805	0.6591
194.3984	0.8562
194.6162	0.6305
194.8341	0.581
195.0519	0.6709
195.2697	0.8761
195.4875	0.7898
195.7054	0.6433
195.9231	0.5735
196.1409	1.2132
196.3587	0.7443
196.5765	0.7259
196.7942	0.5933
197.012	0.5932
197.2297	0.6796
197.4474	0.8043
197.6651	0.554
197.8828	0.5755
198.1005	0.5758
198.3182	0.7377
198.5358	1.1727
198.7535	0.6053
198.9711	0.5539
199.1888	0.735
199.4064	0.7464
199.624	0.5694
199.8416	0.6402
200.0592	0.6668
200.2767	0.7285
200.4943	0.6578
200.7119	0.6907
200.9294	0.7741
201.1469	0.6225
201.3645	0.6365
201.582	0.6621
201.7995	0.6286
202.017	0.659
202.2344	0.56
202.4519	0.685
202.6694	0.6704
202.8868	0.6487
203.1042	0.6513
203.3217	0.5663
203.5391	0.7216
203.7565	0.6259
203.9739	0.6156
204.1913	0.7004
204.4086	0.6891
204.626	0.7333
204.8433	0.7339
205.0607	0.7549
205.278	0.8219
205.4953	0.672
205.7126	0.6104
205.9299	0.6796
206.1472	0.6776
206.3644	0.6578
206.5817	0.79
206.7989	0.7473
207.0162	0.7009
207.2334	0.6482
207.4506	0.6785
207.6678	0.6472
207.885	0.6949
208.1022	0.6576
208.3194	0.6809
208.5365	0.5932
208.7537	0.6797
208.9708	0.5722
209.1879	0.6247
209.405	0.7062
209.6222	0.6549
209.8392	0.5983
210.0563	0.6199
210.2734	0.6915
210.4905	0.6446
210.7075	0.6676
210.9245	0.5899
211.1416	0.7349
211.3586	0.6347
211.5756	0.6178
211.7926	0.6969
212.0096	0.5968
212.2265	0.5798
212.4435	0.6332
212.6604	0.6262
212.8774	0.61
213.0943	0.6198
213.3112	0.6109
213.5281	0.5197
213.745	0.4923
213.9619	0.4741
214.1788	0.5029
214.3956	0.4545
214.6125	0.4973
214.8293	0.4313
215.0461	0.5325
215.2629	0.4663
215.4798	0.4814
215.6965	0.4018
215.9133	0.4372
216.1301	0.4157
216.3469	0.4605
216.5636	0.4023
216.7803	0.4196
216.9971	0.4028
217.2138	0.3821
217.4305	0.36
217.6472	0.3652
217.8639	0.3829
218.0805	0.3354
218.2972	0.3174
218.5138	0.3392
218.7305	0.2997
218.9471	0.2999
219.1637	0.2742
219.3803	0.2866
219.5969	0.2807
219.8135	0.2436
220.0301	0.2763
220.2466	0.2904
220.4632	0.2809
220.6797	0.2412
220.8962	0.2526
221.1127	0.2606
221.3292	0.2635
221.5457	0.2338
221.7622	0.2346
221.9787	0.2625
222.1951	0.2438
222.4116	0.2475
222.628	0.2496
222.8444	0.2737
223.0608	0.2268
223.2772	0.2671
223.4936	0.25
223.71	0.2474
223.9264	0.253
224.1427	0.2673
224.3591	0.2493
224.5754	0.2514
224.7917	0.2656
225.008	0.2531
225.2243	0.2572
225.4406	0.2856
225.6569	0.2579
225.8732	0.2505
226.0894	0.283
226.3057	0.2619
226.5219	0.2696
226.7381	0.2661
226.9543	0.2636
227.1705	0.3062
227.3867	0.2687
227.6029	0.2774
227.8191	0.2906
228.0352	0.2793
228.2513	0.3264
228.4675	0.3152
228.6836	0.3156
228.8997	0.284
229.1158	0.3181
229.3319	0.3207
229.548	0.3148
229.764	0.3182
229.9801	0.3321
230.1961	0.3271
230.4121	0.3385
230.6282	0.3353
230.8442	0.3315
231.0602	0.3384
231.2761	0.3427
231.4921	0.344
231.7081	0.3459
231.924	0.3366
232.14	0.3556
232.3559	0.3565
232.5718	0.3543
232.7877	0.3522
233.0036	0.3442
233.2195	0.3637
233.4353	0.3544
233.6512	0.3732
233.867	0.3625
234.0829	0.3621
234.2987	0.3546
234.5145	0.3726
234.7303	0.3688
234.9461	0.3883
235.1619	0.3865
235.3776	0.3847
235.5934	0.3829
235.8091	0.3705
236.0249	0.4002
236.2406	0.3729
236.4563	0.3785
236.672	0.3941
236.8877	0.397
237.1034	0.385
237.319	0.3885
237.5347	0.4029
237.7503	0.3823
237.966	0.4042
238.1816	0.3956
238.3972	0.3869
238.6128	0.4005
238.8284	0.4228
239.0439	0.4009
239.2595	0.3882
239.475	0.3996
239.6906	0.4109
239.9061	0.4124
240.1216	0.4031
240.3371	0.4103
240.5526	0.3759
240.7681	0.4239
240.9836	0.3753
241.199	0.3977
241.4145	0.3821
241.6299	0.3771
241.8453	0.3948
242.0607	0.368
242.2761	0.3572
242.4915	0.3699
242.7069	0.3657
242.9223	0.3635
243.1376	0.3407
243.353	0.353
243.5683	0.3401
243.7836	0.3291
243.9989	0.3084
244.2142	0.3138
244.4295	0.3164
244.6448	0.2922
244.86	0.2973
245.0753	0.2951
245.2905	0.2785
245.5057	0.2782
245.721	0.2658
245.9362	0.271
246.1514	0.2748
246.3665	0.2577
246.5817	0.255
246.7969	0.2552
247.012	0.2483
247.2271	0.2349
247.4423	0.2548
247.6574	0.2369
247.8725	0.2333
248.0876	0.2314
248.3026	0.2154
248.5177	0.2302
248.7328	0.213
248.9478	0.1981
249.1628	0.2115
249.3779	0.218
249.5929	0.2087
249.8079	0.2151
250.0228	0.1958
250.2378	0.1957
250.4528	0.1864
250.6677	0.1808
250.8827	0.1863
251.0976	0.1966
251.3125	0.1764
251.5274	0.1741
251.7423	0.1882
251.9572	0.1826
252.172	0.1877
252.3869	0.1759
252.6017	0.1811
252.8166	0.1779
253.0314	0.1674
253.2462	0.1635
253.461	0.1872
253.6758	0.1658
253.8906	0.1835
254.1053	0.1617
254.3201	0.1716
254.5348	0.1736
254.7496	0.1824
254.9643	0.1733
255.179	0.1824
255.3937	0.1697
255.6083	0.1805
255.823	0.169
256.0377	0.1628
256.2523	0.1609
256.467	0.1401
256.6816	0.1714
256.8962	0.1684
257.1108	0.1627
257.3254	0.1733
257.54	0.155
257.7545	0.1716
257.9691	0.1738
258.1836	0.1718
258.3981	0.1709
258.6127	0.1751
258.8272	0.1587
259.0417	0.1578
259.2561	0.1671
259.4706	0.1686
259.6851	0.1657
259.8995	0.1551
260.114	0.1605
260.3284	0.1583
260.5428	0.1549
260.7572	0.1724
260.9716	0.1669
261.186	0.1576
261.4003	0.1613
261.6147	0.1708
261.829	0.168
262.0433	0.1664
262.2577	0.1668
262.472	0.167
262.6863	0.1624
262.9005	0.1738
263.1148	0.1505
263.3291	0.1551
263.5433	0.1498
263.7576	0.1668
263.9718	0.1734
264.186	0.1537
264.4002	0.1635
264.6144	0.1626
264.8286	0.1647
265.0427	0.156
265.2569	0.1644
265.471	0.1589
265.6851	0.1548
265.8993	0.155
266.1134	0.1499
266.3275	0.1604
266.5415	0.1603
266.7556	0.1741
266.9697	0.1609
267.1837	0.1539
267.3978	0.1678
267.6118	0.1684
267.8258	0.1779
268.0398	0.1523
268.2538	0.1718
268.4677	0.1621
268.6817	0.155
268.8957	0.1569
269.1096	0.1644
269.3235	0.1647
269.5374	0.1566
269.7514	0.1543
269.9652	0.1478
270.1791	0.1447
270.393	0.1354
270.6068	0.1601
270.8207	0.145
271.0345	0.142
271.2483	0.1418
271.4622	0.1525
271.676	0.1556
271.8897	0.1453
272.1035	0.1401
272.3173	0.1329
272.531	0.1317
272.7448	0.1428
272.9585	0.1396
273.1722	0.1441
273.3859	0.1442
273.5996	0.118
273.8133	0.1418
274.0269	0.1455
274.2406	0.1356
274.4542	0.1415
274.6679	0.134
274.8815	0.1425
275.0951	0.1381
275.3087	0.143
275.5223	0.1538
275.7358	0.1464
275.9494	0.1378
276.1629	0.1357
276.3765	0.136
276.59	0.1512
276.8035	0.1487
277.017	0.1481
277.2305	0.1432
277.444	0.143
277.6574	0.1384
277.8709	0.1468
278.0843	0.1444
278.2978	0.1407
278.5112	0.1431
278.7246	0.1523
278.938	0.1487
279.1513	0.149
279.3647	0.1511
279.5781	0.1501
279.7914	0.1399
280.0047	0.1557
280.2181	0.1444
280.4314	0.1541
280.6447	0.1544
280.8579	0.153
281.0712	0.1519
281.2845	0.1524
281.4977	0.1524
281.711	0.1461
281.9242	0.1424
282.1374	0.1504
282.3506	0.1532
282.5638	0.1571
282.7769	0.1522
282.9901	0.1519
283.2033	0.1454
283.4164	0.16
283.6295	0.1428
283.8426	0.1466
284.0557	0.1539
284.2688	0.1667
284.4819	0.1684
284.695	0.164
284.908	0.1633
285.1211	0.1429
285.3341	0.1536
285.5471	0.1617
285.7601	0.156
285.9731	0.1527
286.1861	0.1478
286.3991	0.1639
286.612	0.1592
286.825	0.1617
287.0379	0.1657
287.2508	0.1579
287.4637	0.1601
287.6766	0.1514
287.8895	0.1688
288.1024	0.1679
288.3152	0.1661
288.5281	0.1586
288.7409	0.1646
288.9538	0.1588
289.1666	0.1519
289.3794	0.1638
289.5922	0.1524
289.8049	0.1598
290.0177	0.1534
290.2304	0.1651
290.4432	0.1746
290.6559	0.1644
290.8686	0.1667
291.0813	0.1616
291.294	0.1568
291.5067	0.1765
291.7194	0.1612
291.932	0.1718
292.1447	0.1617
292.3573	0.1645
292.5699	0.1683
292.7825	0.1698
292.9951	0.1565
293.2077	0.1568
293.4203	0.1749
293.6328	0.1551
293.8454	0.1695
294.0579	0.1697
294.2704	0.1679
294.4829	0.1565
294.6954	0.1659
294.9079	0.1585
295.1204	0.1645
295.3328	0.1627
295.5453	0.1668
295.7577	0.1648
295.9701	0.1561
296.1825	0.161
296.3949	0.1588
296.6073	0.166
296.8197	0.1587
297.0321	0.1813
297.2444	0.1534
297.4567	0.1663
297.6691	0.1704
297.8814	0.154
298.0937	0.1606
298.306	0.1658
298.5182	0.1613
298.7305	0.1736
298.9428	0.1489
299.155	0.1643
299.3672	0.1638
299.5794	0.1575
299.7916	0.1573
300.0038	0.1514
300.216	0.1554
300.4282	0.1655
300.6403	0.1498
300.8525	0.1664
301.0646	0.1533
301.2767	0.1609
301.4888	0.1523
301.7009	0.1638
301.913	0.1623
302.125	0.1671
302.3371	0.1567
302.5491	0.1664
302.7612	0.1695
302.9732	0.1717
303.1852	0.172
303.3972	0.1604
303.6092	0.1668
303.8211	0.1594
304.0331	0.1542
304.245	0.1615
304.457	0.1469
304.6689	0.1538
304.8808	0.1644
305.0927	0.1425
305.3046	0.1549
305.5164	0.1487
305.7283	0.1493
305.9401	0.1427
306.152	0.1476
306.3638	0.1505
306.5756	0.1347
306.7874	0.1445
306.9992	0.14
307.2109	0.1415
307.4227	0.119
307.6344	0.1416
307.8462	0.135
308.0579	0.1267
308.2696	0.1292
308.4813	0.1315
308.693	0.137
308.9046	0.1335
309.1163	0.1232
309.328	0.1311
309.5396	0.1203
309.7512	0.1287
309.9628	0.1212
310.1744	0.1288
310.386	0.1201
310.5976	0.1176
310.8091	0.1152
311.0207	0.12
311.2322	0.1181
311.4437	0.114
311.6552	0.1145
311.8667	0.1127
312.0782	0.0972
312.2897	0.0997
312.5012	0.1213
312.7126	0.109
312.924	0.0998
313.1355	0.1137
313.3469	0.1123
313.5583	0.1122
313.7696	0.0963
313.981	0.109
314.1924	0.0975
314.4037	0.098
314.6151	0.1109
314.8264	0.0935
315.0377	0.1041
315.249	0.1052
315.4603	0.1011
315.6716	0.1
315.8828	0.0948
316.0941	0.0984
316.3053	0.0986
316.5165	0.0902
316.7277	0.0896
316.9389	0.1049
317.1501	0.0937
317.3613	0.1026
317.5724	0.0845
317.7836	0.1002
317.9947	0.0969
318.2058	0.0927
318.417	0.0869
318.6281	0.0958
318.8391	0.1014
319.0502	0.094
319.2613	0.1011
319.4723	0.0921
319.6834	0.0978
319.8944	0.0804
320.1054	0.0937
320.3164	0.1044
320.5274	0.0892
320.7383	0.0981
320.9493	0.0921
321.1602	0.1098
321.3712	0.0944
321.5821	0.1021
321.793	0.0954
322.0039	0.0959
322.2148	0.1015
322.4257	0.0935
322.6365	0.0952
322.8474	0.1013
323.0582	0.0929
323.269	0.1001
323.4798	0.1101
323.6906	0.0967
323.9014	0.0966
324.1122	0.101
324.3229	0.0896
324.5337	0.0998
324.7444	0.0824
324.9551	0.1036
325.1658	0.1039
325.3765	0.1042
325.5872	0.0981
325.7979	0.0966
326.0085	0.1046
326.2192	0.1058
326.4298	0.1116
326.6404	0.0929
326.851	0.0925
327.0616	0.0909
327.2722	0.1016
327.4828	0.1178
327.6933	0.1009
327.9039	0.1076
328.1144	0.1106
328.3249	0.1007
328.5354	0.0936
328.7459	0.104
328.9564	0.1032
329.1669	0.1071
329.3773	0.0936
329.5878	0.106
329.7982	0.1031
330.0086	0.0907
330.219	0.1019
330.4294	0.1013
330.6398	0.1023
330.8502	0.0898
331.0605	0.0962
331.2708	0.11
331.4812	0.0994
331.6915	0.1052
331.9018	0.1053
332.1121	0.1024
332.3224	0.1086
332.5326	0.1136
332.7429	0.1012
332.9531	0.1196
333.1633	0.1048
333.3735	0.112
333.5837	0.1044
333.7939	0.0979
334.0041	0.1238
334.2143	0.1113
334.4244	0.1049
334.6346	0.0884
334.8447	0.1179
335.0548	0.1045
335.2649	0.0991
335.475	0.1114
335.685	0.1002
335.8951	0.1222
336.1051	0.107
336.3152	0.1098
336.5252	0.1112
336.7352	0.1097
336.9452	0.1052
337.1552	0.1257
337.3652	0.1021
337.5751	0.1051
337.7851	0.1164
337.995	0.0995
338.2049	0.1157
338.4148	0.1197
338.6247	0.1075
338.8346	0.0991
339.0445	0.1164
339.2543	0.1102
339.4642	0.1169
339.674	0.1075
339.8838	0.1117
340.0936	0.1094
340.3034	0.1272
340.5132	0.119
340.7229	0.1084
340.9327	0.1139
341.1424	0.1147
341.3522	0.1264
341.5619	0.116
341.7716	0.1257
341.9813	0.1162
342.1909	0.1191
342.4006	0.1202
342.6102	0.1266
342.8199	0.1139
343.0295	0.1288
343.2391	0.115
343.4487	0.1319
343.6583	0.1201
343.8679	0.1256
344.0774	0.1206
344.287	0.1329
344.4965	0.1158
344.706	0.1366
344.9155	0.1245
345.125	0.1286
345.3345	0.1356
345.544	0.1294
345.7534	0.1265
345.9629	0.1254
346.1723	0.1355
346.3817	0.1309
346.5911	0.1311
346.8005	0.1259
347.0099	0.1201
347.2193	0.1282
347.4286	0.1423
347.638	0.1371
347.8473	0.1363
348.0566	0.1301
348.2659	0.1341
348.4752	0.1222
348.6845	0.1202
348.8937	0.1257
349.103	0.1433
349.3122	0.1204
349.5214	0.1257
349.7306	0.1419
349.9398	0.1286
350.149	0.1424
350.3582	0.1282
350.5674	0.1456
350.7765	0.1487
350.9856	0.1449
351.1948	0.1547
351.4039	0.1358
351.613	0.1378
351.822	0.1491
352.0311	0.1431
352.2402	0.1457
352.4492	0.1473
352.6582	0.1589
352.8672	0.1492
353.0762	0.1476
353.2852	0.1329
353.4942	0.1331
353.7032	0.1491
353.9121	0.1461
354.1211	0.1688
354.33	0.1495
354.5389	0.1527
354.7478	0.1437
354.9567	0.1576
355.1655	0.1479
355.3744	0.1484
355.5833	0.1648
355.7921	0.1818
356.0009	0.1691
356.2097	0.1659
356.4185	0.1681
356.6273	0.17
356.8361	0.1564
357.0448	0.1529
357.2536	0.1538
357.4623	0.1547
357.671	0.1704
357.8797	0.1808
358.0884	0.162
358.2971	0.173
358.5057	0.1703
358.7144	0.1848
358.923	0.165
359.1316	0.1734
359.3402	0.1797
359.5488	0.1581
359.7574	0.1586
359.966	0.1814
360.1746	0.1805
360.3831	0.1853
360.5916	0.1767
360.8002	0.1701
361.0087	0.1818
361.2172	0.1782
361.4256	0.1731
361.6341	0.1814
361.8426	0.1743
362.051	0.1834
362.2594	0.1689
362.4678	0.1897
362.6762	0.2027
362.8846	0.1883
363.093	0.1756
363.3014	0.1954
363.5097	0.1757
363.718	0.1862
363.9264	0.1929
364.1347	0.1927
364.343	0.1914
364.5513	0.1971
364.7595	0.203
364.9678	0.1815
365.176	0.1956
365.3842	0.2061
365.5925	0.202
365.8007	0.1968
366.0089	0.1945
366.217	0.1977
366.4252	0.2213
366.6333	0.2085
366.8415	0.2099
367.0496	0.186
367.2577	0.1978
367.4658	0.2072
367.6739	0.2277
367.882	0.2146
368.09	0.2084
368.2981	0.2189
368.5061	0.2105
368.7141	0.2247
368.9221	0.2073
369.1301	0.2136
369.3381	0.2157
369.5461	0.2064
369.754	0.2058
369.962	0.223
370.1699	0.2233
370.3778	0.2219
370.5857	0.1966
370.7936	0.2272
371.0015	0.2263
371.2093	0.2341
371.4172	0.2327
371.625	0.229
371.8328	0.2161
372.0406	0.2192
372.2484	0.224
372.4562	0.2234
372.664	0.2253
372.8717	0.215
373.0795	0.2116
373.2872	0.2188
373.4949	0.2339
373.7026	0.2321
373.9103	0.226
374.118	0.2322
374.3256	0.2317
374.5333	0.2286
374.7409	0.2324
374.9485	0.2441
375.1561	0.2328
375.3637	0.2357
375.5713	0.2314
375.7789	0.2402
375.9864	0.2215
376.194	0.2205
376.4015	0.2495
376.609	0.2468
376.8165	0.2412
377.024	0.2364
377.2315	0.2302
377.4389	0.2527
377.6464	0.2374
377.8538	0.2535
378.0612	0.2376
378.2686	0.2379
378.476	0.2564
378.6834	0.2482
378.8908	0.2725
379.0981	0.2417
379.3055	0.251
379.5128	0.2485
379.7201	0.2491
379.9274	0.2436
380.1347	0.2505
380.342	0.2674
380.5492	0.2409
380.7565	0.25
380.9637	0.2651
381.1709	0.2421
381.3781	0.2572
381.5853	0.2474
381.7925	0.2519
381.9997	0.2616
382.2068	0.2681
382.4139	0.2411
382.6211	0.235
382.8282	0.2535
383.0353	0.2472
383.2424	0.2619
383.4494	0.2827
383.6565	0.251
383.8635	0.2564
384.0706	0.2697
384.2776	0.2556
384.4846	0.2392
384.6916	0.276
384.8986	0.2453
385.1055	0.2613
385.3125	0.2603
385.5194	0.244
385.7263	0.279
385.9333	0.2569
386.1402	0.2455
386.347	0.2595
386.5539	0.2591
386.7608	0.2808
386.9676	0.2351
387.1744	0.2617
387.3813	0.2613
387.5881	0.2573
387.7948	0.2552
388.0016	0.2423
388.2084	0.2637
388.4151	0.2474
388.6219	0.2666
388.8286	0.2618
389.0353	0.2529
389.242	0.2527
389.4487	0.2537
389.6553	0.2366
389.862	0.2381
390.0686	0.2448
390.2753	0.2645
390.4819	0.2433
390.6885	0.2528
390.8951	0.2451
391.1016	0.2386
391.3082	0.2269
391.5147	0.235
391.7213	0.2441
391.9278	0.2375
392.1343	0.2358
392.3408	0.2328
392.5473	0.2478
392.7537	0.2314
392.9602	0.2305
393.1666	0.234
393.373	0.2255
393.5794	0.2204
393.7858	0.2383
393.9922	0.2297
394.1986	0.2414
394.4049	0.2298
394.6113	0.2276
394.8176	0.2139
395.0239	0.2213
395.2302	0.2155
395.4365	0.23
395.6428	0.216
395.8491	0.225
396.0553	0.2344
396.2615	0.2201
396.4678	0.2204
396.674	0.2076
396.8802	0.2201
397.0863	0.2249
397.2925	0.2038
397.4987	0.213
397.7048	0.2113
397.9109	0.2128
398.117	0.207
398.3231	0.2054
398.5292	0.2483
398.7353	0.2104
398.9413	0.2224
399.1474	0.2172
399.3534	0.2087
399.5594	0.2029
399.7654	0.2231
399.9714	0.2229
400.1774	0.2158
400.3833	0.2092
400.5893	0.2269
400.7952	0.209
401.0011	0.222
401.207	0.2206
401.4129	0.2236
401.6188	0.2071
401.8247	0.2129
402.0305	0.2197
402.2364	0.2114
402.4422	0.2308
402.648	0.2168
402.8538	0.2387
403.0596	0.1954
403.2654	0.2146
403.4711	0.2156
403.6768	0.2183
403.8826	0.2332
404.0883	0.2147
404.294	0.209
404.4997	0.2201
404.7054	0.2222
404.911	0.2056
405.1167	0.2075
405.3223	0.2236
405.5279	0.2204
405.7335	0.2275
405.9391	0.228
406.1447	0.2146
406.3502	0.2293
406.5558	0.2043
406.7613	0.2194
406.9668	0.2089
407.1724	0.2085
407.3778	0.2059
407.5833	0.2177
407.7888	0.1941
407.9942	0.2252
408.1997	0.2236
408.4051	0.2137
408.6105	0.2149
408.8159	0.1997
409.0213	0.1918
409.2267	0.2135
409.432	0.2004
409.6374	0.2194
409.8427	0.2106
410.048	0.2059
410.2533	0.2152
410.4586	0.2112
410.6639	0.2079
410.8691	0.2045
411.0744	0.1967
411.2796	0.2008
411.4848	0.2296
411.69	0.2148
411.8952	0.2203
412.1004	0.1955
412.3056	0.2233
412.5107	0.2171
412.7158	0.2242
412.921	0.2065
413.1261	0.1859
413.3312	0.2092
413.5362	0.2008
413.7413	0.213
413.9464	0.1851
414.1514	0.2025
414.3564	0.2037
414.5614	0.189
414.7664	0.2047
414.9714	0.2187
415.1764	0.2278
415.3813	0.2429
415.5863	0.2189
415.7912	0.221
415.9961	0.2087
416.201	0.1948
416.4059	0.2122
416.6108	0.1932
416.8156	0.2107
417.0205	0.2178
417.2253	0.2016
417.4301	0.1916
417.6349	0.1911
417.8397	0.1963
418.0445	0.2124
418.2492	0.2029
418.454	0.192
418.6587	0.1788
418.8634	0.2068
419.0681	0.2091
419.2728	0.1872
419.4775	0.2
419.6822	0.1955
419.8868	0.1668
420.0915	0.208
420.2961	0.1749
420.5007	0.2022
420.7053	0.2026
420.9099	0.19
421.1144	0.2028
421.319	0.1988
421.5235	0.1936
421.728	0.1974
421.9325	0.2016
422.137	0.1938
422.3415	0.19
422.546	0.1978
422.7504	0.1961
422.9549	0.203
423.1593	0.1973
423.3637	0.201
423.5681	0.18
423.7725	0.178
423.9769	0.1859
424.1812	0.188
424.3856	0.1858
424.5899	0.1825
424.7942	0.1678
424.9985	0.1893
425.2028	0.1805
425.4071	0.1945
425.6113	0.1742
425.8156	0.181
426.0198	0.1803
426.224	0.1605
426.4282	0.1639
426.6324	0.1641
426.8366	0.1614
427.0407	0.1576
427.2449	0.1518
427.449	0.1671
427.6531	0.1478
427.8572	0.1632
428.0613	0.1732
428.2654	0.1599
428.4694	0.1534
428.6735	0.1454
428.8775	0.162
429.0815	0.1468
429.2855	0.1501
429.4895	0.1571
429.6935	0.1583
429.8975	0.1611
430.1014	0.1436
430.3053	0.1374
430.5093	0.1507
430.7132	0.1527
430.9171	0.1349
431.1209	0.138
431.3248	0.1407
431.5286	0.1425
431.7325	0.1511
431.9363	0.1303
432.1401	0.1427
432.3439	0.1274
432.5477	0.126
432.7514	0.1305
432.9552	0.1429
433.1589	0.1009
433.3627	0.1211
433.5664	0.1263
433.7701	0.1074
433.9737	0.1229
434.1774	0.1056
434.3811	0.1033
434.5847	0.1166
434.7883	0.1179
434.9919	0.1135
435.1955	0.1175
435.3991	0.1031
435.6027	0.1118
435.8062	0.113
436.0098	0.1041
436.2133	0.109
436.4168	0.1042
436.6203	0.103
436.8238	0.0992
437.0272	0.1077
437.2307	0.0957
437.4341	0.1136
437.6375	0.0831
437.841	0.0862
438.0443	0.1097
438.2477	0.0886
438.4511	0.0945
438.6545	0.097
438.8578	0.0993
439.0611	0.0893
439.2644	0.0816
439.4677	0.0828
439.671	0.0826
439.8743	0.0916
440.0775	0.0812
440.2808	0.0767
440.484	0.0626
440.6872	0.0629
440.8904	0.0638
441.0936	0.0797
441.2967	0.0642
441.4999	0.08
441.703	0.0661
441.9062	0.0579
442.1093	0.0604
442.3124	0.071
442.5155	0.0572
442.7185	0.065
442.9216	0.0404
443.1246	0.0693
443.3276	0.0611
443.5307	0.0657
443.7337	0.0646
443.9366	0.0553
444.1396	0.0601
444.3426	0.0479
444.5455	0.0611
444.7484	0.0537
444.9513	0.0493
445.1542	0.0503
445.3571	0.0466
445.56	0.0498
445.7628	0.0491
445.9657	0.0416
446.1685	0.0544
446.3713	0.0503
446.5741	0.0539
446.7769	0.0311
446.9797	0.0445
447.1824	0.0418
447.3852	0.0372
447.5879	0.0483
447.7906	0.0471
447.9933	0.0278
448.196	0.0323
448.3986	0.0341
448.6013	0.0355
448.8039	0.0156
449.0066	0.0204
449.2092	0.0365
449.4118	0.0445
449.6143	0.0275
449.8169	0.0329
450.0195	0.0113
450.222	0.0163
450.4245	0.0204
450.627	0.0354
450.8295	0.0116
451.032	0.0272
451.2345	0.0313
451.4369	0.0363
451.6394	0.0294
451.8418	0.0098
452.0442	0.0234
452.2466	0.0298
452.449	0.0099
452.6513	0.0279
452.8537	0.0167
453.056	0.0066
453.2583	0.0215
453.4607	0.0222
453.663	0.0283
453.8652	0.035
454.0675	0.0078
454.2697	0.0149
454.472	0.0116
454.6742	0.018
454.8764	0.0099
455.0786	0.0147
455.2808	0.014
455.4829	0.009
455.6851	0.0235
455.8872	0.0276
456.0893	0.0274
456.2915	0.0035
456.4935	0.0217
456.6956	0.0238
456.8977	0.0142
457.0997	0.0032
457.3018	0.0054
457.5038	0.0222
457.7058	0.015
457.9078	0.005
458.1098	0.0156
458.3117	0.0223
458.5137	0.0118
458.7156	0.0171
458.9175	-0.0055
459.1194	0.0075
459.3213	0.0168
459.5232	0.0134
459.725	0.01
459.9269	0.012
460.1287	-0.0072
460.3305	0.0116
460.5323	0.0031
460.7341	0.0047
460.9359	0.0068
461.1376	0.0181
461.3394	0.009
461.5411	0.0143
461.7428	0.0172
461.9445	0.0095
462.1462	0.026
462.3479	-0.0036
462.5495	0.0111
462.7512	0.0157
462.9528	0.0151
463.1544	-0.0033
463.356	0.0026
463.5576	0.0123
463.7592	-0.0073
463.9607	-0.0011
464.1623	0.0114
464.3638	0.0261
464.5653	0.0085
464.7668	0.0093
464.9683	0.0001
465.1697	0.017
465.3712	-0.0123
465.5726	-0.0088
465.7741	-0.0015
465.9755	-0.0017
466.1769	0.0064
466.3782	0.0057
466.5796	0.0051
466.7809	0.0161
466.9823	-0.0008
467.1836	0.0032
467.3849	-0.0054
467.5862	0.0048
467.7875	-0.0071
467.9887	0.0264
468.19	0.0001
468.3912	-0.0156
468.5924	-0.0108
468.7936	0.0098
468.9948	0.0023
469.196	-0.001
469.3972	-0.0087
469.5983	0.0135
469.7994	0.0105
470.0006	0.0166
470.2017	-0.0066
470.4027	-0.0112
470.6038	0.0072
470.8049	-0.0228
471.0059	0.0115
471.2069	-0.0151
471.408	0.0117
471.6089	0.0199
471.8099	0.0031
472.0109	-0.0018
472.2119	-0.0023
472.4128	-0.0186
472.6137	0.0109
472.8146	-0.0154
473.0155	-0.0055
473.2164	-0.0039
473.4173	0.0053
473.6181	0.013
473.819	0.0038
474.0198	-0.0014
474.2206	-0.0003
474.4214	-0.0008
474.6222	0.0148
474.8229	0.0049
475.0237	-0.0094
475.2244	-0.0098
475.4251	-0.0024
475.6258	-0.0045
475.8265	-0.0095
476.0272	0.0083
476.2278	0.0032
476.4285	0.0038
476.6291	0.0108
476.8297	0.0025
477.0303	0.0035
477.2309	-0.0026
477.4315	-0.0096
477.632	-0.0112
477.8326	0.0005
478.0331	0.0057
478.2336	0.0083
478.4341	-0.011
478.6346	0.0103
478.8351	-0.002
479.0355	-0.0044
479.236	-0.0078
479.4364	0.0053
479.6368	-0.0019
479.8372	0.0025
480.0376	-0.0008
480.2379	-0.0209
480.4383	-0.0091
480.6386	0.0139
480.8389	-0.0006
481.0392	0.0019
481.2395	-0.0057
481.4398	0.006
481.6401	0.0054
481.8403	-0.0061
482.0405	-0.0025
482.2408	-0.009
482.441	0.0078
482.6411	-0.0049
482.8413	-0.0069
483.0415	-0.0162
483.2416	-0.007
483.4417	0.0028
483.6419	-0.0025
483.8419	-0.0074
484.042	0.0085
484.2421	0.0094
484.4422	0.0016
484.6422	-0.0008
484.8422	0.0041
485.0422	-0.0096
485.2422	0.0061
485.4422	-0.0079
485.6422	-0.011
485.8421	-0.0075
486.042	-0.0001
486.242	-0.0051
486.4419	-0.0012
486.6417	-0.0079
486.8416	0.0045
487.0415	-0.0054
487.2413	-0.0136
487.4411	-0.0025
487.641	-0.001
487.8408	-0.0012
488.0405	-0.0041
488.2403	-0.0012
488.4401	0.0082
488.6398	0.0047
488.8395	-0.003
489.0392	-0.0026
489.2389	0.002
489.4386	-0.0053
489.6383	-0.0037
489.8379	0.0014
490.0376	-0.0053
490.2372	-0.0198
490.4368	-0.0112
490.6364	-0.0055
490.836	-0.0164
491.0355	0.0033
491.2351	-0.0095
491.4346	0.0034
491.6341	-0.0129
491.8336	0.007
492.0331	-0.008
492.2326	-0.0074
492.432	-0.003
492.6315	-0.007
492.8309	-0.0122
493.0303	-0.0046
493.2297	-0.0104
493.4291	-0.0005
493.6284	-0.0067
493.8278	0.0014
494.0271	0.0053
494.2264	0.0021
494.4257	-0.0128
494.625	-0.0079
494.8243	-0.0102
495.0236	-0.0034
495.2228	-0.0077
495.422	-0.0042
495.6213	0.0014
495.8205	-0.0035
496.0196	-0.0051
496.2188	0.0061
496.418	-0.0049
496.6171	-0.0025
496.8162	-0.014
497.0153	0.0049
497.2144	-0.015
497.4135	0.0083
497.6126	-0.0037
497.8116	0.0065
498.0107	0.0069
498.2097	-0.0053
498.4087	-0.0037
498.6077	0.0006
498.8067	-0.0107
499.0056	-0.0008
499.2046	-0.004
499.4035	-0.0256
499.6024	-0.008
499.8013	0.0023
500.0002	-0.008
500.199	0.0017
500.3979	-0.0091
500.5967	-0.0192
500.7956	-0.004
500.9944	-0.0029
501.1932	-0.0086
501.3919	-0.0068
501.5907	-0.0158
501.7895	0.0035
501.9882	-0.0118
502.1869	-0.0022
502.3856	-0.0125
502.5843	-0.003
502.783	-0.0044
502.9816	0.001
503.1803	-0.0194
503.3789	-0.0007
503.5775	0.0099
503.7761	-0.0045
503.9747	0.0036
504.1732	-0.0003
504.3718	0.0049
504.5703	0.001
504.7689	-0.0102
504.9674	0.0063
505.1658	-0.0127
505.3643	-0.0018
505.5628	0.0003
505.7612	0.0012
505.9597	0.0072
506.1581	-0.0037
506.3565	0.0065
506.5549	-0.0074
506.7532	-0.0175
506.9516	-0.0013
507.1499	-0.0058
507.3482	-0.0018
507.5465	0.0068
507.7448	0.0083
507.9431	-0.0066
508.1414	0.0034
508.3396	-0.0009
508.5379	-0.003
508.7361	-0.0066
508.9343	0.0023
509.1325	-0.0012
509.3306	0.0024
509.5288	-0.0045
509.7269	-0.0094
509.9251	0.0056
510.1232	-0.0084
510.3213	0.0053
510.5193	0.0004
510.7174	-0.0132
510.9154	-0.0093
511.1135	-0.0054
511.3115	-0.0106
511.5095	-0.0018
511.7075	-0.0037
511.9055	-0.0062
512.1034	-0.0028
512.3014	0.0037
512.4993	0.0033
512.6972	-0.0032
512.8951	-0.0125
513.093	0.0057
513.2908	0.0034
513.4887	0.0023
513.6865	-0.0007
513.8844	-0.0139
514.0822	-0.0092
514.2799	-0.0168
514.4777	-0.0166
514.6755	-0.0065
514.8732	-0.0055
515.0709	-0.0069
515.2687	-0.0103
515.4664	0.0061
515.664	-0.0101
515.8617	-0.0053
516.0594	-0.0178
516.257	0.0001
516.4546	-0.0097
516.6522	0.0078
516.8498	-0.001
517.0474	0.0035
517.2449	0.0014
517.4425	-0.0112
517.64	0.0011
517.8375	0.0085
518.035	0.0003
518.2325	-0.0012
518.43	0.0012
518.6274	-0.004
518.8249	-0.0108
519.0223	-0.0046
519.2197	-0.0041
519.4171	-0.0116
519.6145	-0.0095
519.8118	-0.0038
520.0092	0.0001
520.2065	-0.0047
520.4038	-0.0078
520.6011	0.002
520.7984	0.0018
520.9956	-0.0037
521.1929	-0.007
521.3901	0.0052
521.5874	0.0053
521.7846	0.0052
521.9818	-0.0003
522.1789	-0.0031
522.3761	-0.0014
522.5732	-0.0058
522.7704	0.0009
522.9675	-0.0026
523.1646	-0.0031
523.3617	0.0056
523.5587	0.0045
523.7558	-0.0013
523.9528	-0.0054
524.1498	-0.005
524.3468	0.0006
524.5438	-0.0032
524.7408	0.0019
524.9378	0.0045
525.1347	-0
525.3316	-0.0001
525.5285	-0.0061
525.7254	-0.0038
525.9223	-0.0024
526.1192	-0.0027
526.316	-0.0025
526.5129	0.0005
526.7097	0.0086
526.9065	-0.0024
527.1033	-0
527.3	-0.0019
527.4968	0.0002
527.6935	-0.0026
527.8903	-0.0123
528.087	-0.0053
528.2837	0.0008
528.4804	-0.0074
528.677	-0.001
528.8737	0.0125
529.0703	0.0028
529.2669	0.0003
529.4635	-0.0022
529.6601	0.0024
529.8567	-0.0031
530.0532	-0.0022
530.2498	-0.0005
530.4463	-0.0004
530.6428	-0.0046
530.8393	0.0033
531.0358	0.0051
531.2322	-0.0019
531.4287	0.0003
531.6251	-0.0064
531.8215	0.0059
532.0179	0.0034
532.2143	0.0044
532.4107	-0.0017
532.607	-0.0022
532.8034	0.0111
532.9997	0.0031
533.196	0.0023
533.3923	-0.014
533.5886	-0.0048
533.7848	0.0014
533.9811	0.0036
534.1773	0.0012
534.3735	0.0051
534.5697	0.004
534.7659	0.0038
534.9621	0.007
535.1582	-0.0024
535.3544	-0.0015
535.5505	-0.0095
535.7466	-0.0003
535.9427	0.0003
536.1387	0.0018
536.3348	-0.0017
536.5308	0.0056
536.7269	-0.0032
536.9229	0.0043
537.1189	0.0027
537.3148	0.0011
537.5108	-0.0028
537.7068	0.0086
537.9027	0.0029
538.0986	0.0032
538.2945	-0.0035
538.4904	-0.0003
538.6863	-0.0034
538.8821	-0.0001
539.078	0.002
539.2738	0.0007
539.4696	0.0031
539.6654	0.0046
539.8611	0.0103
540.0569	0.0074
540.2526	0.0026
540.4484	-0.0013
540.6441	0.0087
540.8398	-0
541.0355	0.0041
541.2311	-0.0002
541.4268	-0.0042
541.6224	0.0047
541.818	0.0044
542.0136	0.0039
542.2092	0.0002
542.4048	0.0076
542.6003	-0.0053
542.7959	-0.0045
542.9914	0.006
543.1869	0.0025
543.3824	0.0001
543.5779	-0.0033
543.7734	-0.0011
543.9688	-0.0002
544.1642	0.0121
544.3596	-0.0038
544.555	-0.0031
544.7504	0.0075
544.9458	-0.0064
545.1411	0.0008
545.3365	0.0057
545.5318	-0.0075
545.7271	0.001
545.9224	0.0078
546.1177	-0.0058
546.3129	0.0037
546.5081	0.0009
546.7034	0.0049
546.8986	-0.0003
547.0938	-0.0032
547.289	0.0036
547.4841	0.0095
547.6793	0.0039
547.8744	0.002
548.0695	0.0017
548.2646	0.0021
548.4597	0.0036
548.6548	-0.0091
548.8498	0.0093
549.0448	0.0049
549.2399	0.0005
549.4349	0.0067
549.6298	0.0071
549.8248	0.0029
550.0198	0.0047
550.2147	-0.0033
550.4096	-0.0078
550.6045	0.0101
550.7994	0.0065
550.9943	0.0014
551.1892	0.0059
551.384	0.009
551.5788	-0.0128
551.7737	0.0058
551.9685	-0.003
552.1632	-0
552.358	-0.0075
552.5528	0.0041
552.7475	-0.0029
552.9422	-0.0012
553.1369	0.0014
553.3316	0.0063
553.5263	-0.0023
553.7209	0.005
553.9156	-0.0019
554.1102	-0.0016
554.3048	-0.0004
554.4994	0.0106
554.694	0.0037
554.8885	-0.0003
555.0831	0.0028
555.2776	-0.0049
555.4721	0.0015
555.6666	-0.0025
555.8611	0.0071
556.0555	0.0067
556.25	0.0006
556.4444	-0.0024
556.6388	0.0057
556.8332	-0.0043
557.0276	-0.0002
557.222	-0.0069
557.4163	-0.0026
557.6107	-0.0059
557.805	0.0101
557.9993	-0.0011
558.1936	0.0052
558.3879	0.0071
558.5821	0.0015
558.7764	-0.001
558.9706	0.0077
559.1648	0.003
559.359	-0.0013
559.5532	-0.0134
559.7473	0.0005
559.9415	0.0036
560.1356	0.001
560.3297	0.0032
560.5238	-0.0084
560.7179	0.0072
560.9119	-0.0003
561.106	-0.0063
561.3	-0
561.494	0.0054
561.688	-0.0022
561.882	-0.0086
562.076	-0.0057
562.2699	0.0089
562.4639	0.0006
562.6578	-0.0003
562.8517	-0.0008
563.0456	0.0074
563.2395	0.0013
563.4333	0.0067
563.6272	0.0123
563.821	-0.0052
564.0148	-0.0055
564.2086	-0.0091
564.4024	0.0007
564.5961	-0.0028
564.7899	0.0088
564.9836	-0.0008
565.1773	-0.0028
565.371	0.0122
565.5647	0.0016
565.7584	0.0019
565.952	0.001
566.1456	0.0089
566.3393	-0.0001
566.5329	-0.0053
566.7264	-0.0014
566.92	0.0037
567.1136	0.0036
567.3071	0.0003
567.5006	0.0016
567.6941	0.0051
567.8876	0.0047
568.0811	-0.002
568.2745	0.0112
568.468	0.0013
568.6614	0.0083
568.8548	0.0001
569.0482	0.0042
569.2416	0.0007
569.4349	0.0077
569.6283	0.0113
569.8216	-0.0013
570.0149	-0.006
570.2082	0.0117
570.4015	0.0105
570.5947	0.0067
570.788	0.008
570.9812	0.0026
571.1744	0.0001
571.3676	-0.0075
571.5608	0.0082
571.754	0.0058
571.9471	0.0039
572.1402	0.0087
572.3333	-0
572.5264	0.004
572.7195	-0.0044
572.9126	0.009
573.1057	0.0018
573.2987	-0.001
573.4917	0.0014
573.6847	-0.0063
573.8777	0.0053
574.0707	0.0065
574.2636	0.002
574.4566	-0.0014
574.6495	0.0043
574.8424	0.003
575.0353	-0.0018
575.2281	0.0117
575.421	0.0066
575.6138	0.0124
575.8067	0.001
575.9995	0.0049
576.1923	0.0039
576.385	0.0009
576.5778	0.0028
576.7706	0.0057
576.9633	-0.0016
577.156	0.0103
577.3487	0.0047
577.5414	0.0058
577.734	-0.0056
577.9267	0.0071
578.1193	-0.0042
578.3119	-0.006
578.5045	0.0046
578.6971	0.0035
578.8897	0.0002
579.0822	0.0045
579.2747	-0.0025
579.4673	-0.0006
579.6598	0.0003
579.8522	-0.0002
580.0447	-0.0026
580.2372	-0.0016
580.4296	0.0001
580.622	0.0028
580.8144	0.0037
581.0068	0.0026
581.1992	-0.0037
581.3915	-0.0064
581.5839	-0.0008
581.7762	-0.0087
581.9685	0.0005
582.1608	0.0036
582.353	-0.0039
582.5453	0.0022
582.7375	-0.0004
582.9298	0.0047
583.122	-0.0001
583.3142	0.0036
583.5063	0.0037
583.6985	-0.0018
583.8906	0.0034
584.0827	0.0003
584.2749	0.0049
584.4669	0.0076
584.659	0.0046
584.8511	0.0066
585.0431	-0.0024
585.2352	0.0027
585.4272	0.0012
585.6192	0.0058
585.8111	0.0052
586.0031	0.0038
586.195	0.0048
586.387	0.0063
586.5789	0.0002
586.7708	-0.0008
586.9627	0.0042
587.1545	0.0004
587.3464	0.0016
587.5382	0.006
587.73	0.0073
587.9218	0.0062
588.1136	-0.0005
588.3053	0.0035
588.4971	0.0011
588.6888	-0.0005
588.8805	-0.0012
589.0722	0.0049
589.2639	0.0027
589.4556	-0.0015
589.6472	0.0018
589.8389	-0.005
590.0305	-0.0093
590.2221	0.0067
590.4137	-0.001
590.6052	0.008
590.7968	0.0024
590.9883	0.0031
591.1798	-0.0023
591.3713	0.0001
591.5628	0.002
591.7543	0.0063
591.9458	-0.0013
592.1372	0.0064
592.3286	0.0034
592.52	0.0057
592.7114	-0.0029
592.9028	0.0003
593.0941	0.0019
593.2855	0.0113
593.4768	-0.0059
593.6681	0.0004
593.8594	-0.0038
594.0506	0.0055
594.2419	0.0105
594.4331	0.006
594.6244	0.0019
594.8156	-0.0036
595.0067	0.0033
595.1979	0.0054
595.3891	0.0025
595.5802	0.0056
595.7713	-0.0039
595.9624	-0.0018
596.1535	0.0134
596.3446	0.0011
596.5357	0.0056
596.7267	0.0101
596.9177	-0.0041
597.1087	-0.0072
597.2997	-0.004
597.4907	0.0094
597.6817	-0.0017
597.8726	0.0063
598.0635	-0.0023
598.2544	-0.0009
598.4453	0.0015
598.6362	0.0015
598.827	-0.0048
599.0179	0.0035
599.2087	0.0077
599.3995	0.0039
599.5903	0.006
599.7811	0.0083
599.9718	0.0006
600.1626	0.0019
600.3533	-0.0061
600.544	0.0118
600.7347	0.0022
600.9254	0.0045
601.116	-0.0099
601.3067	-0.0059
601.4973	0.0072
601.6879	0.0045
601.8785	-0.0024
602.0691	0.0132
602.2596	0.0039
602.4502	0.0045
602.6407	0.0123
602.8312	0.0046
603.0217	-0.0063
603.2122	0.0078
603.4027	0.0049
603.5931	0.0038
603.7835	-0.0006
603.9739	0.0051
604.1643	0.0016
604.3547	-0.0049
604.5451	0.0029
604.7354	0.0013
604.9257	0.0009
605.116	-0.0041
605.3063	0.007
605.4966	0.0056
605.6869	-0.0005
605.8771	0.0036
606.0673	0.0092
606.2575	0.0094
606.4477	0.0086
606.6379	0.0048
606.8281	0.0009
607.0182	0.0021
607.2083	0.0056
607.3985	0.0003
607.5885	0.0039
607.7786	0.0008
607.9687	-0.0034
608.1587	0.0013
608.3488	0.0036
608.5388	0.0013
608.7288	0.0011
608.9187	-0.0012
609.1087	-0.0066
609.2986	-0.0006
609.4886	0.0016
609.6785	-0.0023
609.8684	0.0152
610.0582	0.0045
610.2481	0.0026
610.4379	0.0004
610.6278	-0.0002
610.8176	0.0023
611.0074	0.0001
611.1971	-0.0044
611.3869	-0.0027
611.5766	0.0003
611.7664	0.0033
611.9561	0.013
612.1458	0.0055
612.3354	-0.0013
612.5251	-0.0028
612.7147	0.006
612.9044	0.0094
613.094	-0.0054
613.2836	0.0108
613.4731	0.0071
613.6627	0.0041
613.8522	0.0151
614.0417	0.0093
614.2313	0.0062
614.4207	0.0013
614.6102	0.0021
614.7997	-0.0025
614.9891	-0.0072
615.1785	0.0052
615.3679	-0.0019
615.5573	0.0135
615.7467	0.0034
615.9361	0.0076
616.1254	0.0054
616.3147	0.0019
616.504	0.0122
616.6933	0.0106
616.8826	0.0112
617.0718	0.0124
617.2611	0.006
617.4503	0.0022
617.6395	0.0116
617.8287	0.0057
618.0179	-0.0004
618.207	0.0119
618.3961	0.0024
618.5853	0.0048
618.7744	0.008
618.9634	0.0098
619.1525	0.0107
619.3416	0.0023
619.5306	0.0096
619.7196	0.0043
619.9086	0.0064
620.0976	0.0013
620.2866	0.0039
620.4755	0.0091
620.6645	0.0094
620.8534	0.0072
621.0423	0.0032
621.2312	0.012
621.42	0.0015
621.6089	0.0064
621.7977	0.0064
621.9865	-0.0022
622.1753	0.0127
622.3641	0.0011
622.5529	0.0119
622.7416	0.0111
622.9303	0.0028
623.1191	0.0036
623.3078	0.0044
623.4964	0.0071
623.6851	0.0068
623.8737	0.0017
624.0624	0.0049
624.251	-0.0005
624.4396	0.0056
624.6282	0.0036
624.8167	0.0072
625.0053	0.0088
625.1938	0.0041
625.3823	0.0027
625.5708	-0.0037
625.7593	0.0033
625.9477	-0.007
626.1362	0.0005
626.3246	0.0088
626.513	0.0073
626.7014	0.0076
626.8898	0.006
627.0781	0.0069
627.2665	0.0078
627.4548	0.0041
627.6431	0.0082
627.8314	0.0042
628.0197	0.0122
628.2079	0.0016
628.3962	-0.0058
628.5844	0.0061
628.7726	0.0054
628.9608	0.0078
629.1489	0.0022
629.3371	0.0069
629.5252	-0.0001
629.7134	0.0096
629.9015	0.0003
630.0895	0.0074
630.2776	0.008
630.4657	0.0011
630.6537	0.0052
630.8417	0.0012
631.0297	0.0047
631.2177	0.0048
631.4057	-0.0003
631.5936	0.0029
631.7815	0.0101
631.9695	0.0078
632.1574	0.012
632.3452	0.0101
632.5331	0.014
632.7209	0.0032
632.9088	0.0114
633.0966	0.017
633.2844	0.0038
633.4722	0.016
633.6599	0.0141
633.8477	0.0086
634.0354	0.0123
634.2231	0.0036
634.4108	0.0085
634.5985	0.0108
634.7861	0.0025
634.9738	0.0097
635.1614	0.0077
635.349	0.0077
635.5366	0.0031
635.7242	0.0092
635.9117	0.0095
636.0993	0.0009
636.2868	0.0125
636.4743	0.0015
636.6618	0.0125
636.8492	0.0073
637.0367	0.0079
637.2241	0.0021
637.4115	0.0041
637.5989	0.0057
637.7863	0.0076
637.9737	0.0012
638.161	0.0061
638.3484	0.0015
638.5357	0.0088
638.723	0.0011
638.9103	0.0095
639.0975	0.0079
639.2848	0.0127
639.472	0.0092
639.6592	0.0105
639.8464	0.012
640.0336	0.0093
640.2208	0.0064
640.4079	-0.0011
640.595	0.0057
640.7821	0.0038
640.9692	0.0074
641.1563	0.0086
641.3434	0.0075
641.5304	0.0108
641.7174	0.0064
641.9044	0.0104
642.0914	0.0102
642.2784	0.005
642.4653	0.0112
642.6523	0.0036
642.8392	0.0049
643.0261	0.0093
643.213	0.0104
643.3999	0.0021
643.5867	0.0066
643.7735	0.0085
643.9604	0.0014
644.1472	-0.0018
644.3339	0.0085
644.5207	0.0065
644.7075	0.0097
644.8942	0.0078
645.0809	0.0087
645.2676	0.0163
645.4543	0.0149
645.6409	0.0068
645.8276	0.0101
646.0142	0.007
646.2008	-0.0052
646.3874	0.0094
646.574	0.0032
646.7605	-0.0036
646.9471	-0.0106
647.1336	-0.0041
647.3201	0.0033
647.5066	0.007
647.6931	0.0091
647.8795	0.0003
648.0659	0.0009
648.2524	0.0049
648.4388	-0.0049
648.6252	0.0021
648.8115	0.0092
648.9979	-0.0028
649.1842	0.0037
649.3705	0.0073
649.5568	0.0011
649.7431	0.0149
649.9294	0.0054
650.1156	0.0096
650.3018	-0.0021
650.488	0.0096
650.6742	0.0096
650.8604	0.0073
651.0466	0.0051
651.2327	0.0031
651.4188	0.0073
651.6049	0.0084
651.791	0.0031
651.9771	0.0097
652.1632	0.0123
652.3492	0.0078
652.5352	0.0079
652.7212	0.0067
652.9072	0.0127
653.0932	0.0027
653.2791	0.0019
653.465	0.0126
653.651	-0.005
653.8369	0.0031
654.0227	0.0045
654.2086	0.0084
654.3944	0.0108
654.5803	0.0056
654.7661	-0.0028
654.9519	0.0061
655.1377	-0.0007
655.3234	0.0009
655.5092	-0.0027
655.6949	-0.0019
655.8806	-0.0054
656.0663	0.0014
656.2519	0.001
656.4376	0.0023
656.6232	0.008
656.8088	-0.0007
656.9945	0.0086
657.18	-0.0007
657.3656	-0.0005
657.5511	0.0056
657.7367	-0.0005
657.9222	0.0144
658.1077	0.0099
658.2932	0.0088
658.4786	-0.0014
658.6641	0.0035
658.8495	-0.0007
659.0349	0.0008
659.2203	0.0101
659.4057	0.0105
659.591	0.0001
659.7764	0.0032
659.9617	0.002
660.147	0.0082
660.3323	0.0074
660.5176	0.0135
660.7028	0.0107
660.888	0.009
661.0733	0.0057
661.2585	-0.0058
661.4436	0.0027
661.6288	-0.0049
661.8139	-0.0027
661.9991	0.01
662.1842	-0.0028
662.3693	-0.0022
662.5544	-0.0047
662.7394	0.0089
662.9245	-0.0004
663.1095	0.0044
663.2945	0.0034
663.4795	-0.0008
663.6644	0.0044
663.8494	0.0021
664.0343	0.0037
664.2193	-0.0048
664.4042	0.0058
664.589	0.0044
664.7739	0.0009
664.9587	-0.0038
665.1436	0.0007
665.3284	0.0007
665.5132	-0.0056
665.698	0.0036
665.8827	0.0126
666.0675	0.005
666.2522	0.0005
666.4369	0.0045
666.6216	0.0126
666.8063	0.0053
666.9909	0.0048
667.1756	-0.0004
667.3602	0.0044
667.5448	0.0022
667.7294	0.0167
667.9139	0.01
668.0985	0.0195
668.283	0.0047
668.4675	0.0048
668.652	0.0058
668.8365	0.0041
669.0209	0.0186
669.2054	0.0149
669.3898	0.0075
669.5742	0.0075
669.7586	0.0147
669.943	0.016
670.1273	0.0083
670.3117	0.0068
670.496	0.018
670.6803	0.0089
670.8646	0.0134
671.0488	-0.0006
671.2331	0.0094
671.4173	0.0113
671.6015	0.0048
671.7857	0.0015
671.9699	0.0095
672.1541	0.0091
672.3382	0.0077
672.5223	0.0126
672.7064	0.01
672.8905	0.0089
673.0746	0.0072
673.2587	-0.0052
673.4427	0.0048
673.6267	0.0114
673.8107	0.0086
673.9947	0.0101
674.1787	0.0115
674.3626	0.0029
674.5465	0.0089
674.7304	0.009
674.9143	0.0077
675.0982	0.0067
675.2821	-0.0006
675.4659	0.0115
675.6497	0.0002
675.8335	0.0076
676.0173	0.0027
676.2011	0.0055
676.3849	0.0025
676.5686	0.0004
676.7523	0.0094
676.936	0.0095
677.1197	0.0087
677.3034	0.0003
677.487	0.0069
677.6706	0.0022
677.8542	0.0013
678.0378	0.0042
678.2214	0.0061
678.405	0.0038
678.5885	-0.005
678.772	0.0066
678.9555	-0.0013
679.139	-0.0029
679.3225	0.0085
679.5059	0.0021
679.6894	0.0061
679.8728	0.0022
680.0562	-0.0035
680.2395	-0.0058
680.4229	-0.0005
680.6062	0.0096
680.7896	0.0018
680.9729	-0.0012
681.1562	-0.0015
681.3394	0.0003
681.5227	-0.0083
681.7059	-0.0048
681.8891	0.0026
682.0723	0.0153
682.2555	0.0115
682.4387	-0.0014
682.6218	-0.0008
682.805	0.0146
682.9881	0.0102
683.1712	-0.0026
683.3542	0.0023
683.5373	0.0069
683.7203	0.0015
683.9034	0.0016
684.0864	-0.0099
684.2694	0.0014
684.4523	0.0086
684.6353	-0.0024
684.8182	0.007
685.0011	-0.0052
685.184	0.0111
685.3669	0.0037
685.5498	0.0022
685.7326	0.008
685.9154	-0.0007
686.0982	0.0069
686.281	0.0062
686.4638	0.0043
686.6465	0.0006
686.8293	0.0089
687.012	0.0023
687.1947	-0.0037
687.3774	0.0056
687.56	-0.0022
687.7427	0.0084
687.9253	-0.0018
688.1079	0.0029
688.2905	0.0086
688.4731	0.0097
688.6556	0.0041
688.8382	0.0041
689.0207	0.0036
689.2032	-0.001
689.3857	-0.0044
689.5681	-0.0005
689.7506	-0.0072
689.933	-0.0006
690.1154	-0.006
690.2978	-0.0061
690.4802	-0.0005
690.6626	-0.0105
690.8449	-0.0056
691.0272	0.0046
691.2095	-0.0077
691.3918	-0.0004
691.5741	0.0092
691.7563	0.0045
691.9386	0.0119
692.1208	0.0054
692.303	0.0005
692.4852	0.0021
692.6673	0.0099
692.8495	0.0108
693.0316	0.0055
693.2137	0.014
693.3958	0.0037
693.5778	0.0031
693.7599	0.003
693.9419	0.0024
694.1239	0.0035
694.3059	0.0018
694.4879	0.0115
694.6699	0.0073
694.8518	0.0092
695.0337	0.0073
695.2157	0.0085
695.3975	0.0147
695.5794	0.0071
695.7613	0.0109
695.9431	0.0044
696.1249	0.014
696.3067	0.0107
696.4885	0.0112
696.6703	0.003
696.852	0.0032
697.0337	0.005
697.2154	0.0077
697.3971	0.0027
697.5788	0.0077
697.7605	0.0015
697.9421	0.0118
698.1237	0.0064
698.3053	0.0053
698.4869	0.0005
698.6685	-0.0033
698.85	0.0019
699.0315	0.0117
699.213	-0
699.3945	0.0065
699.576	0.0103
699.7575	0.0074
699.9389	0.0071
700.1203	0.0057
700.3017	-0.0077
700.4831	-0.0038
700.6645	0.0057
700.8458	0.0086
701.0271	0.0031
701.2084	0.0148
701.3897	0.0047
701.571	0.0065
701.7523	-0.0005
701.9335	0.0008
702.1147	0.011
702.2959	-0.0015
702.4771	-0.0008
702.6583	0.0041
702.8394	0.0042
703.0205	0.0078
703.2016	-0.0002
703.3827	0.0028
703.5638	0.0142
703.7449	0.0051
703.9259	0.0191
704.1069	0.0015
704.2879	0.0028
704.4689	0.0086
704.6499	0.0052
704.8308	0.0003
705.0117	0.0053
705.1927	0.0073
705.3735	-0.0003
705.5544	0.006
705.7353	0.0076
705.9161	-0.0006
706.0969	-0.0032
706.2777	-0.0012
706.4585	-0.0058
706.6393	0.0037
706.82	-0.0012
707.0007	0.0015
707.1815	0.006
707.3621	0.0057
707.5428	0.0053
707.7235	0.005
707.9041	0.0006
708.0847	-0.002
708.2653	-0.0127
708.4459	-0.0156
708.6265	0.0021
708.807	-0.0032
708.9875	-0.0068
709.168	-0.0063
709.3485	-0.0045
709.529	-0.0111
709.7095	-0.0081
709.8899	-0.0002
710.0703	-0.0068
710.2507	-0.0041
710.4311	-0.0013
710.6115	-0.0061
710.7918	-0.005
710.9721	0.0009
711.1524	-0.0012
711.3327	-0.0014
711.513	0.0046
711.6932	-0.0023
711.8735	0.0171
712.0537	0.0035
712.2339	-0.0003
712.4141	0.0052
712.5942	0.0024
712.7744	-0.0005
712.9545	-0.0048
713.1346	-0.0039
713.3147	-0.0008
713.4947	-0.001
713.6748	0.0004
713.8548	0.0001
714.0348	0.003
714.2148	-0.0008
714.3948	0.0083
714.5748	0.0007
714.7547	0.0017
714.9346	0.0096
715.1145	0.0021
715.2944	0.0019
715.4743	0.0033
715.6541	-0.0001
715.834	-0.0027
716.0138	-0.0023
716.1936	-0.0086
716.3733	-0.0018
716.5531	0.0037
716.7328	-0.0011
716.9126	-0.0003
717.0923	0.0045
717.2719	0.0015
717.4516	0.0005
717.6312	0.0045
717.8109	-0.0038
717.9905	0.001
718.1701	-0.0062
718.3496	-0.0063
718.5292	-0.0049
718.7087	-0.0061
718.8882	0.0057
719.0677	0.0057
719.2472	-0.0016
719.4267	0.0011
719.6061	0.0027
719.7856	0.0153
719.965	0.0025
720.1443	-0.0086
720.3237	0.0078
720.5031	-0.0022
720.6824	0.0058
720.8617	-0.0024
721.041	0.006
721.2203	0.0111
721.3995	0.002
721.5788	0.0056
721.758	0.0092
721.9372	0.0021
722.1164	0.0009
722.2956	0.0046
722.4747	-0.0003
722.6538	-0.0045
722.8329	0.0084
723.012	0.0043
723.1911	0.0052
723.3702	0.0035
723.5492	0.0097
723.7282	0.0044
723.9072	0.0028
724.0862	0.0046
724.2652	0.0008
724.4441	-0
724.623	-0.0028
724.8019	-0.0026
724.9808	0.0128
725.1597	-0.0019
725.3385	0.0148
725.5174	-0.0007
725.6962	0.0034
725.875	-0.0077
726.0538	0.0059
726.2325	-0.0007
726.4112	0.0033
726.59	-0.0013
726.7687	-0.004
726.9474	0.0001
727.126	0.0031
727.3047	-0.0003
727.4833	0.0055
727.6619	-0.0035
727.8405	0.0026
728.0191	-0.0015
728.1976	0.0068
728.3762	0.0057
728.5547	0.002
728.7332	-0.0001
728.9116	-0.0016
729.0901	0.01
729.2686	-0.0043
729.447	0.0039
729.6254	0.0111
729.8038	0.0022
729.9821	-0.0044
730.1605	0.0079
730.3388	0.0077
730.5171	0.0083
730.6954	0.0004
730.8737	0.0113
731.0519	0.0097
731.2302	0.0037
731.4084	0.018
731.5866	0.0211
731.7648	0.0064
731.9429	-0.0028
732.1211	0.001
732.2992	0.0003
732.4773	-0.0061
732.6554	-0.002
732.8335	0.0004
733.0115	0.0043
733.1896	0.0115
733.3676	-0.0108
733.5456	0.0013
733.7235	0.0094
733.9015	0.0036
734.0794	-0.0025
734.2574	0.0006
734.4353	0.003
734.6131	0.0125
734.791	0.0141
734.9689	0.0001
735.1467	0.0062
735.3245	-0.002
735.5023	0.003
735.68	0.0013
735.8578	0.008
736.0355	-0.017
736.2132	0.001
736.3909	-0.0021
736.5686	-0.0068
736.7463	0.0073
736.9239	-0.0008
737.1015	0.0046
737.2791	0.0146
737.4567	0.0099
737.6343	0.0025
737.8118	0.0092
737.9894	0.0057
738.1669	0.0072
738.3444	-0.0013
738.5218	0.0149
738.6993	0.0018
738.8767	-0.0007
739.0541	0.0112
739.2315	-0.0042
739.4089	-0.0022
739.5863	0.0039
739.7636	-0.0013
739.9409	-0
740.1182	0.0052
740.2955	-0.0004
740.4728	0.0056
740.65	0.0006
740.8272	0.0121
741.0044	0.0093
741.1816	0.003
741.3588	-0.0026
741.5359	0.012
741.7131	-0.0044
741.8902	0.0038
742.0673	0.0054
742.2444	0.0023
742.4214	0.0021
742.5985	-0.0015
742.7755	0.0051
742.9525	-0.0184
743.1295	0.002
743.3064	0.007
743.4834	0.0135
743.6603	-0.0009
743.8372	0.0121
744.0141	0.0152
744.191	0.0081
744.3678	0.0026
744.5446	0.0052
744.7215	0.0096
744.8982	0.0039
745.075	0.0024
745.2518	0.0095
745.4285	0.014
745.6052	0.003
745.7819	-0.0041
745.9586	0.0042
746.1353	-0
746.3119	-0.0017
746.4885	-0.0049
746.6651	-0.0105
746.8417	0.0048
747.0183	0.0042
747.1948	0.0053
747.3714	0.0049
747.5479	0.0114
747.7244	-0.0024
747.9008	0.015
748.0773	0.0079
748.2537	-0.0007
748.4301	-0.0049
748.6065	0.0085
748.7829	0.0011
748.9593	-0.0007
749.1356	-0.0015
749.3119	0.0063
749.4882	-0.0051
749.6645	0.0067
749.8408	0.0015
750.017	-0.0072
750.1933	0.0077
750.3695	-0.0054
750.5457	-0.0066
750.7218	0.0004
750.898	0.0081
751.0741	0.0005
751.2502	0.0024
751.4263	0.0056
751.6024	0.0064
751.7784	0.0006
751.9545	-0.0005
752.1305	-0.0016
752.3065	-0.0011
752.4825	0.004
752.6584	-0.0081
752.8344	0.0013
753.0103	-0.0076
753.1862	-0.0062
753.3621	-0.007
753.5379	-0.0011
753.7138	0.0029
753.8896	0.0017
754.0654	0.0032
754.2412	0.007
754.417	0.0086
754.5927	-0.004
754.7685	-0.0005
754.9442	0.0023
755.1199	0.01
755.2956	0.0011
755.4712	0.0115
755.6469	0.0037
755.8225	-0.0042
755.9981	0.0005
756.1736	0.0088
756.3492	0.0046
756.5248	0.0051
756.7003	0.0051
756.8758	0.01
757.0513	-0.0032
757.2267	-0.0042
757.4022	0.0054
757.5776	-0.0034
757.753	0.0068
757.9284	0.0166
758.1038	0.0153
758.2791	0.0151
758.4545	-0.0038
758.6298	-0.0028
758.8051	0.0069
758.9803	-0.0034
759.1556	0.0015
759.3308	-0.0036
759.506	0.0107
759.6812	0.0111
759.8564	0.0142
760.0316	-0.0034
760.2067	0.0211
760.3819	0.0013
760.557	0.0137
760.732	0.0063
760.9071	0.0052
761.0821	0.0059
761.2572	0.0056
761.4322	-0.0026
761.6072	0.0044
761.7821	0.0032
761.9571	0.0154
762.132	0.0048
762.3069	0.0017
762.4818	0.0019
762.6567	-0.0025
762.8316	0.007
763.0064	-0.0047
763.1812	-0.0003
763.356	0.0003
763.5308	0.0062
763.7055	0.002
763.8803	0.0019
764.055	0.005
764.2297	-0.0039
764.4044	0.0043
764.579	-0.0068
764.7537	-0.0091
764.9283	0.0025
765.1029	-0.0082
765.2775	0.0023
765.4521	-0.0035
765.6266	0.0035
765.8011	-0.0166
765.9756	-0.0054
766.1501	0.011
766.3246	0.0019
766.4991	0.0045
766.6735	0.0041
766.8479	-0.0057
767.0223	0.0275
767.1967	0.0108
767.371	0.0071
767.5454	-0.0062
767.7197	0.0025
767.894	0.0013
768.0683	-0.009
768.2425	0.0028
768.4168	0.0084
768.591	0.0044
768.7652	0.0015
768.9394	0.0066
769.1135	-0.0072
769.2877	0.0116
769.4618	0.0025
769.6359	0.012
769.81	0.0111
769.984	0.0075
770.1581	-0.0027
770.3321	0.0089
770.5061	-0.0033
770.6801	-0.0076
770.8541	-0.0007
771.028	0.0045
771.202	-0.0069
771.3759	-0.0029
771.5498	-0.0025
771.7236	-0.0028
771.8975	0.0037
772.0713	0.0097
772.2451	0.001
772.4189	0.0071
772.5927	0.0088
772.7665	0.0065
772.9402	-0.001
773.1139	-0.0006
773.2876	0.0043
773.4613	0.0052
773.635	0.0104
773.8086	0.0008
773.9822	-0.0017
774.1558	0.0124
774.3294	-0.0044
774.503	-0.0007
774.6765	0.0058
774.8501	0.0086
775.0236	0.0113
775.1971	0.0158
775.3705	-0.0005
775.544	0.0112
775.7174	0.0073
775.8908	0.001
776.0642	0.0029
776.2376	0.0001
776.4109	-0.0027
776.5843	0.0022
776.7576	0.0065
776.9309	0.0176
777.1041	0.0087
777.2774	0.0113
777.4506	-0.0058
777.6238	0.0051
777.797	0.0097
777.9702	-0.0041
778.1434	0.0007
778.3165	-0.0191
778.4896	-0.0056
778.6627	0.0071
778.8358	-0.0039
779.0089	0.0021
779.1819	0.0093
779.3549	0.0097
779.5279	0.0131
779.7009	-0.0004
779.8739	0.0104
780.0468	0.0106
780.2197	0.0186
780.3926	0.0037
780.5655	0.0008
780.7384	0.0044
780.9112	0.0029
781.0841	-0.0044
781.2569	0.0029
781.4297	0.0119
781.6024	0.015
781.7752	0.0047
781.9479	0.0119
782.1206	0.0114
782.2933	-0.0026
782.466	0.0081
782.6386	0.0082
782.8113	0.005
782.9839	0.0031
783.1565	0.0047
783.329	-0.0089
783.5016	0.0125
783.6741	0.0067
783.8466	-0.0055
784.0191	0.0069
784.1916	-0.0106
784.3641	-0.0068
784.5365	0.0017
784.7089	-0.0127
784.8813	-0.0055
785.0537	-0.0018
785.2261	-0.014
785.3984	-0.0163
785.5707	-0.0085
785.743	-0.0057
785.9153	0.0079
786.0876	-0.0023
786.2598	-0.0108
786.432	-0.0162
786.6042	0.0004
786.7764	-0.0109
786.9486	0.0045
787.1207	-0.0043
787.2928	0.0024
787.4649	0.0035
787.637	0.007
787.8091	-0.0021
787.9811	-0.0037
788.1532	0.0077
788.3252	0.0093
788.4972	-0.0131
788.6691	0.0023
788.8411	-0.0012
789.013	-0.0149
789.1849	0.0086
789.3568	-0.0027
789.5287	-0.0017
789.7005	-0.0049
789.8723	0.0045
790.0442	0.0185
790.2159	0.0046
790.3877	0.0018
790.5595	-0.0176
790.7312	-0.0015
790.9029	0.0048
791.0746	-0.0112
791.2463	-0.0091
791.4179	-0.0094
791.5896	-0.0209
791.7612	-0.0011
791.9328	0.0116
792.1044	-0.0107
792.2759	-0.0128
792.4474	-0.007
792.619	0.0057
792.7905	0.0091
792.9619	0.0175
793.1334	0.0152
793.3048	0.0005
793.4762	0.0035
793.6476	0.0155
793.819	0.0082
793.9904	0.005
794.1617	-0.0064
794.333	-0.0106
794.5043	-0.0054
794.6756	-0.0117
794.8469	0.0003
795.0181	0.0158
795.1893	-0.0028
795.3605	0.0062
795.5317	-0.0067
795.7029	-0.0172
795.874	-0.0093
796.0452	-0.0029
796.2163	-0.0083
796.3873	0.0026
796.5584	-0.0025
796.7294	-0.0067
796.9005	0.0189
797.0715	0.0061
797.2425	-0.0102
797.4134	0.0066
797.5844	0.0065
797.7553	-0.0159
797.9262	-0.0044
798.0971	-0.0021
798.2679	-0.0138
798.4388	-0.0158
798.6096	0.003
798.7804	-0.0002
798.9512	0.0052
799.122	-0.0101
799.2927	-0.0017
799.4635	0.0113
799.6342	-0.0111
799.8049	0.0108
799.9755	0.0088
800.1462	0.0023
800.3168	0.0175
800.4874	-0.0084
800.658	0.0279
800.8286	0.0002
800.9991	0.0244
801.1696	0.0047
801.3402	0.0251
801.5106	0.0122
801.6811	0.0116
801.8516	0.0117
802.022	0.0259
802.1924	0.0089
802.3628	0.0134
802.5332	0.0091
802.7035	0.0156
802.8739	-0.0042
803.0442	-0.0026
803.2145	0.0027
803.3847	-0.0215
803.555	0.0191
803.7252	-0.0068
803.8954	0.0038
804.0656	-0.0018
804.2358	0.0074
804.4059	0.0134
804.5761	0.0225
804.7462	-0.0029
804.9163	0.0077
805.0864	-0.0107
805.2564	0.0059
805.4264	0.0053
805.5965	-0.0102
805.7665	0.0122
805.9364	0.0083
806.1064	0.0192
806.2763	-0.0057
806.4462	0.0211
806.6161	-0.0032
806.786	0.0274
806.9559	0.0218
807.1257	-0.004
807.2955	-0.0041
807.4653	-0.0077
807.6351	-0.0075
807.8048	0.0119
807.9746	0.0107
808.1443	0.0178
808.314	0.0146
808.4837	0.0112
808.6533	0.0101
808.8229	0.0408
808.9926	0.0047
809.1622	0.0183
809.3317	0.0069
809.5013	-0.003
809.6708	0.0264
809.8403	0.0135
810.0098	0.0012
810.1793	0.0089
810.3488	-0.0048
810.5182	-0.0013
810.6876	-0.0095
810.857	0.0075
811.0264	0.0115
811.1958	0.0057
811.3651	0.0002
811.5344	-0.0048
811.7037	0.0045
811.873	-0.0165
812.0422	-0.0083
812.2115	0.0148
812.3807	-0.0102
812.5499	-0.0059
812.7191	0.0081
812.8882	-0.0203
813.0574	-0.0028
813.2265	0.003
813.3956	0.0148
813.5646	0.0044
813.7337	-0.0055
813.9027	0.0021
814.0718	0.0176
814.2407	0.0209
814.4097	0.0036
814.5787	0.0009
814.7476	-0.0076
814.9165	0.0005
815.0854	0.0056
815.2543	-0.0052
815.4232	-0.0081
815.592	0.0301
815.7608	-0.0059
815.9296	0.0056
816.0984	0.0047
816.2671	0.0012
816.4359	0.0054
816.6046	0.0079
816.7733	0.018
816.942	-0.0078
817.1106	0.025
817.2793	0.0231
817.4479	-0.0139
817.6165	0.0099
817.785	-0.001
817.9536	-0.0233
818.1221	-0.0055
818.2906	0.0116
818.4591	0.0023
818.6276	-0.0004
818.7961	0.0154
818.9645	0.0056
819.1329	0.0201
819.3013	0.0367
819.4697	0.0262
819.638	0.0118
819.8064	0.0163
819.9747	0.0163
820.143	0.0076
820.3113	-0.0047
820.4795	-0.0028
820.6477	0.0031
820.816	0.0127
820.9842	-0.0057
821.1523	0.0091
821.3205	-0.0136
821.4886	0.0165
821.6567	0.0149
821.8248	0.0094
821.9929	0.0129
822.1609	0.0161
822.329	0.0086
822.497	0.0201
822.665	-0.0246
822.833	0.0007
823.0009	0.006
823.1688	0.0072
823.3367	0.024
823.5046	0.0272
823.6725	0.0195
823.8404	0.0012
824.0082	0.0023
824.176	0.0361
824.3438	0.0212
824.5116	-0.0054
824.6793	0.0227
824.847	-0.0123
825.0147	-0.0131
825.1824	0.0249
825.3501	0.0277
825.5177	-0.0183
825.6854	0.0043
825.853	0.0157
826.0206	-0.0205
826.1881	0.0021
826.3557	-0
826.5232	0.0195
826.6907	-0.0338
826.8582	0.0059
827.0257	0.0136
827.1931	0.0013
827.3605	-0.0129
827.528	0.0009
827.6953	0.0077
827.8627	0.022
828.03	0.034
828.1974	-0.0134
828.3647	-0.0082
828.532	0.016
828.6992	-0.0212
828.8665	0.0014
829.0337	-0.0275
829.2009	0.0055
829.3681	0.014
829.5352	0.05
829.7024	-0.0346
829.8695	-0.0235
830.0366	0.056
830.2037	0.0181
830.3707	0.0301
830.5378	0.0327
830.7048	-0.0124
830.8718	-0.0124
831.0388	-0.0213
831.2057	0.0168
831.3727	0.0437
831.5396	-0.0206
831.7065	-0.0241
831.8734	0.021
832.0402	0.0145
832.2071	0.0131
832.3739	0.0103
832.5407	0.0239
832.7075	-0.0417
832.8742	-0.0163
833.041	-0.0093
833.2077	0.0129
833.3744	0.0486
833.541	-0.0013
833.7077	-0.016
833.8743	0.0052
834.0409	-0.0013
834.2075	-0.0076
834.3741	-0.0193
834.5407	-0.0354
834.7072	0.0031
834.8737	-0.0157
835.0402	0.0129
835.2067	0.0289
835.3731	-0.0131
835.5395	-0.0026
835.706	0.0342
835.8723	-0.0114
836.0387	0.0417
836.2051	-0.0197
836.3714	-0.0115
836.5377	-0.0189
836.704	-0.0092
836.8703	0.0164
837.0365	0.0232
837.2027	-0.0222
837.3689	0.0053
837.5351	-0.0001
837.7013	-0.0216
837.8674	-0.0001
838.0335	-0.0346
838.1997	-0.0238
838.3657	-0.0131
838.5318	-0.0269
838.6978	0.0305
838.8639	0.0212
839.0299	-0.0219
839.1958	0.0316
839.3618	0.0034
839.5277	-0.0185
839.6937	-0.0042
839.8596	-0.0001
840.0254	0.0317
840.1913	0.0298
840.3571	0.0805
840.523	0.0019
840.6888	-0.0084
840.8545	-0.018
841.0203	-0.0418
841.186	0.0165
841.3517	0.009
841.5174	0.015
841.6831	-0.0292
841.8488	0.0202
842.0144	0.0064
842.18	-0.0018
842.3456	0.0361
842.5112	-0.0342
842.6767	0.0389
842.8422	-0.037
843.0077	0.0232
843.1732	-0.0588
843.3387	-0.0265
843.5042	-0.0749
843.6696	-0.0178
843.835	0.0021
844.0004	0.0343
844.1657	0.0453
844.3311	-0.0301
844.4964	-0.0531
844.6617	-0.0323
844.827	0.0069
844.9923	0.0222
845.1575	0.0436
845.3227	0.0526
845.4879	-0.0112
845.6531	-0.0261
845.8183	-0.0001
845.9834	0.0164
846.1485	-0.0023
846.3136	-0.0272
846.4787	-0.0808
846.6438	0.0438
846.8088	-0.0333
846.9738	-0.0722
847.1388	0.026
847.3038	-0.0279
847.4687	-0.1971
847.6337	-0.0078
847.7986	-0.0478
847.9635	-0.0341
848.1284	0.0068
848.2932	0.0868
848.458	-0.0453
848.6228	0.0656
848.7876	0.0098
848.9524	-0.0942
849.1172	-0.1306
849.2819	-0.0098
849.4466	-0.0836
849.6113	-0.1157
849.7759	-0.031
849.9406	0.0209
850.1052	0.0155
850.2698	-0.0205
850.4344	0.0199
850.599	-0.0562
850.7635	0.0505
850.928	-0.0304
851.0925	0.04
851.257	0.0407
851.4215	0.0231
851.5859	-0.0537
851.7503	-0.0017
851.9147	0.0082
852.0791	-0.0323
852.2434	-0.0716
852.4078	0.0602
852.5721	0.0458
852.7364	0.0404
852.9007	-0.1175
853.0649	-0.0231
853.2291	-0.0149
853.3934	-0.0895
853.5575	-0.0591
853.7217	-0.1138
853.8859	-0.1115
854.05	-0.0308
854.2141	-0.023
854.3782	-0.1478
854.5423	-0.0996
854.7063	0.1436
854.8703	-0.0784
855.0343	-0.0751
855.1983	-0.1831
855.3623	0.2966
855.5262	0.0053
855.6901	0.0249
855.854	0.0167
856.0179	-0.0154
856.1818	0.2802
856.3456	-0.0136
856.5094	-0.0003
856.6732	-0.0845
856.837	-0.0386
857.0008	0.0083
857.1645	0.0089
857.3282	-0.027
857.4919	0.1077
857.6556	0.127
857.8192	0.0131
857.9828	-0.0142
858.1465	-0.0553
858.31	-0.0107
858.4736	0.0143
858.6372	-0.2852
858.8007	-0.2501
858.9642	0.0183
859.1277	-0.18
859.2911	-0.0184
859.4546	0.0026
859.618	-0.5138
859.7814	0.0533
859.9448	0.0453
860.1081	-0.082
860.2715	0.1169
860.4348	-0.0917
860.5981	-0.0322
860.7614	0.267
860.9246	-0.2248
861.0879	-0.123
861.2511	0.0881
861.4143	0.0098
861.5774	0.2564
861.7406	-0.2519
861.9037	0.0327
862.0668	0.2429
862.2299	-0.1856
862.393	-0.5286
862.556	-0.0054
862.7191	-0.224
862.8821	-0.2561
863.0451	0.1332
863.208	0.087
863.371	0.0041
863.5339	-0.2329
863.6968	0.1653
863.8597	-0.128
864.0225	-0.2011
864.1854	0.078
864.3482	-0
864.511	0.1375
864.6737	0.238
864.8365	0.0303
864.9992	-0.1844
865.1619	-0.4209
865.3246	-0.2858
865.4873	0.0355
865.65	-0.0164
865.8126	-0.0987
865.9752	0.1462
866.1378	0.0922
866.3004	-0
866.4629	0.1695
866.6254	-0.1184
866.7879	-0.0196
866.9504	0.1835
867.1129	-0
867.2753	0.2464
867.4377	-0.0254
867.6001	0.7139
867.7625	0.1101
867.9249	0.1919
868.0872	0.0956
868.2495	-0.1995
868.4118	0.3616
868.5741	0.733
868.7363	-0.0823
868.8986	-0.0471
869.0608	-0.1392
869.223	0.2223
869.3851	-0
869.5473	-0
869.7094	0.3306
869.8715	0.5733
870.0336	-0
870.1957	0.9103
870.3577	-0
870.5197	-0.0649
870.6817	-0.4007
870.8437	-0.1414
871.0057	-0.7874
871.1676	-0.0035
871.3295	-0.467
871.4914	-0
871.6533	-0.3783
871.8151	-0.4172
871.977	-0
872.1388	-0
872.3006	-0.0605
872.4623	-0
872.6241	1.1971
872.7858	-0.0398
872.9475	-0
873.1092	-0
873.2709	0.6542
873.4325	0.2397
873.5941	-0.4328
873.7557	-0
873.9173	-0.7267
874.0789	0.252
874.2404	-0.7906
874.4019	-0.1733
874.5634	-0.1315
874.7249	-0.0527
874.8863	0.0711
875.0478	0.797
875.2092	-0
875.3706	0.5229
875.5319	-0.9022
875.6933	0.6819
875.8546	0.5624
876.0159	-0
876.1772	0.0013
876.3385	-0
876.4997	0.0945
876.6609	-0.4455
876.8221	-0.6875
876.9833	0.3855
877.1445	1.3245
877.3056	0.0772
877.4667	0.4388
877.6278	-0
877.7889	-0.5596
877.9499	-0
878.111	-0
878.272	-0
878.433	-0
878.5939	0.915
878.7549	0.6419
878.9158	-0
879.0767	0.0161
879.2376	-0
879.3984	0.5298
879.5593	-0
879.7201	-0.1252
879.8809	-0.6672
880.0417	-0.3784
880.2024	-0
880.3632	-0
880.5239	0.5335
880.6846	-0
880.8452	-1.989
881.0059	-0
881.1665	-0.1997
881.3271	0.1166
881.4877	0.287
881.6483	-0.0914
881.8088	-0.3395
881.9693	0.752
882.1298	0.752
882.2903	0.752
