Data from MonoPyChalIsomerACN10uM440nmA_Absorbance_15-27-15-094.txt Node
Date: Fri Jul 05 15:27:15 BST 2024
User: LASERRRRR
Spectrometer: FLMT03099
Trigger mode: 0
Integration Time (sec): 1.000000E-1
Scans to average: 1
Electric dark correction enabled: true
Nonlinearity correction enabled: false
Boxcar width: 0
XAxis mode: Wavelengths
Number of Pixels in Spectrum: 3648
>>>>>Begin Spectral Data<<<<<
179.3399	-0.3574
179.5586	-0.3574
179.7771	-0.3574
179.9957	-0
180.2143	-0
180.4329	-0.0929
180.6514	-0
180.8699	0.0586
181.0885	-0
181.307	-0.0463
181.5255	-0.804
181.744	-0.5045
181.9625	-0
182.181	-0.3774
182.3994	0.2007
182.6179	-0
182.8363	0.0546
183.0547	0.1823
183.2732	0.0888
183.4916	0.1277
183.71	0.1106
183.9284	-0.017
184.1467	-0.0558
184.3651	0.0195
184.5835	-0.0347
184.8018	0.2779
185.0201	-0.0096
185.2385	0.0372
185.4568	0.2642
185.6751	-0
185.8934	0.0995
186.1117	0.06
186.3299	-0.0316
186.5482	-0.0302
186.7664	-0
186.9847	-0.0596
187.2029	-0.0222
187.4211	0.0759
187.6393	0.0624
187.8575	-0.066
188.0757	-0.0198
188.2939	-0.0235
188.512	0.1636
188.7302	0.0767
188.9483	-0.1403
189.1665	0.084
189.3846	0.1159
189.6027	0.1046
189.8208	0.3297
190.0389	0.0659
190.257	0.2195
190.475	0.1858
190.6931	0.2516
190.9111	0.1981
191.1292	0.1454
191.3472	0.4667
191.5652	0.0931
191.7832	0.2189
192.0012	0.2797
192.2192	0.3441
192.4371	0.5415
192.6551	0.424
192.873	0.3976
193.091	0.4629
193.3089	0.3433
193.5268	0.4986
193.7447	0.5199
193.9626	0.3498
194.1805	0.5872
194.3984	0.7957
194.6162	0.5738
194.8341	0.6513
195.0519	0.6037
195.2697	0.8143
195.4875	0.575
195.7054	0.4632
195.9231	0.5164
196.1409	0.6149
196.3587	0.5728
196.5765	0.5669
196.7942	0.6056
197.012	0.5302
197.2297	0.5335
197.4474	0.647
197.6651	0.6211
197.8828	0.6086
198.1005	0.5627
198.3182	0.6145
198.5358	0.7284
198.7535	0.5694
198.9711	0.5421
199.1888	0.6259
199.4064	0.708
199.624	0.6345
199.8416	0.6374
200.0592	0.6671
200.2767	0.6313
200.4943	0.658
200.7119	0.6695
200.9294	0.5606
201.1469	0.5401
201.3645	0.5759
201.582	0.6371
201.7995	0.6178
202.017	0.8057
202.2344	0.586
202.4519	0.5185
202.6694	0.6438
202.8868	0.5722
203.1042	0.7856
203.3217	0.754
203.5391	0.6327
203.7565	0.6479
203.9739	0.6606
204.1913	0.6061
204.4086	0.6679
204.626	0.7704
204.8433	0.6608
205.0607	0.642
205.278	0.6674
205.4953	0.6836
205.7126	0.6575
205.9299	0.6909
206.1472	0.6718
206.3644	0.6367
206.5817	0.6945
206.7989	0.7453
207.0162	0.6618
207.2334	0.7107
207.4506	0.6841
207.6678	0.6561
207.885	0.8087
208.1022	0.6459
208.3194	0.6628
208.5365	0.7187
208.7537	0.6474
208.9708	0.5238
209.1879	0.678
209.405	0.6574
209.6222	0.8302
209.8392	0.597
210.0563	0.6245
210.2734	0.6967
210.4905	0.6535
210.7075	0.6582
210.9245	0.6191
211.1416	0.6793
211.3586	0.6661
211.5756	0.6004
211.7926	0.5755
212.0096	0.5595
212.2265	0.5643
212.4435	0.5946
212.6604	0.5609
212.8774	0.6244
213.0943	0.5722
213.3112	0.5173
213.5281	0.5632
213.745	0.4578
213.9619	0.5215
214.1788	0.4936
214.3956	0.4833
214.6125	0.4943
214.8293	0.4427
215.0461	0.4828
215.2629	0.4969
215.4798	0.4734
215.6965	0.4288
215.9133	0.4719
216.1301	0.4021
216.3469	0.4551
216.5636	0.4323
216.7803	0.4152
216.9971	0.4211
217.2138	0.3468
217.4305	0.3659
217.6472	0.3571
217.8639	0.3818
218.0805	0.3334
218.2972	0.3431
218.5138	0.3416
218.7305	0.332
218.9471	0.3068
219.1637	0.2838
219.3803	0.2797
219.5969	0.2593
219.8135	0.2346
220.0301	0.2502
220.2466	0.2791
220.4632	0.2486
220.6797	0.2419
220.8962	0.2474
221.1127	0.2513
221.3292	0.2488
221.5457	0.2368
221.7622	0.2308
221.9787	0.2537
222.1951	0.2315
222.4116	0.2549
222.628	0.2533
222.8444	0.2642
223.0608	0.2498
223.2772	0.2422
223.4936	0.2726
223.71	0.2363
223.9264	0.287
224.1427	0.2502
224.3591	0.2442
224.5754	0.2509
224.7917	0.2527
225.008	0.2526
225.2243	0.2464
225.4406	0.2712
225.6569	0.2602
225.8732	0.2449
226.0894	0.2568
226.3057	0.2551
226.5219	0.2709
226.7381	0.251
226.9543	0.2655
227.1705	0.2824
227.3867	0.2706
227.6029	0.2876
227.8191	0.3042
228.0352	0.3095
228.2513	0.3169
228.4675	0.3181
228.6836	0.279
228.8997	0.2979
229.1158	0.3
229.3319	0.285
229.548	0.3198
229.764	0.3015
229.9801	0.3245
230.1961	0.3258
230.4121	0.3442
230.6282	0.3457
230.8442	0.3279
231.0602	0.3358
231.2761	0.3433
231.4921	0.342
231.7081	0.3326
231.924	0.3424
232.14	0.3722
232.3559	0.3525
232.5718	0.367
232.7877	0.3454
233.0036	0.3356
233.2195	0.3602
233.4353	0.3599
233.6512	0.3409
233.867	0.3658
234.0829	0.3774
234.2987	0.3644
234.5145	0.3691
234.7303	0.3537
234.9461	0.3942
235.1619	0.3599
235.3776	0.379
235.5934	0.3752
235.8091	0.3517
236.0249	0.3665
236.2406	0.3889
236.4563	0.3632
236.672	0.3873
236.8877	0.384
237.1034	0.3962
237.319	0.3965
237.5347	0.3966
237.7503	0.3921
237.966	0.4006
238.1816	0.4172
238.3972	0.3967
238.6128	0.3934
238.8284	0.4105
239.0439	0.4077
239.2595	0.3894
239.475	0.3923
239.6906	0.3969
239.9061	0.3907
240.1216	0.4156
240.3371	0.3961
240.5526	0.4036
240.7681	0.3989
240.9836	0.3841
241.199	0.3879
241.4145	0.3859
241.6299	0.3903
241.8453	0.3735
242.0607	0.3811
242.2761	0.366
242.4915	0.3774
242.7069	0.3662
242.9223	0.3575
243.1376	0.3448
243.353	0.3628
243.5683	0.3336
243.7836	0.3398
243.9989	0.3296
244.2142	0.3178
244.4295	0.3187
244.6448	0.2997
244.86	0.288
245.0753	0.2938
245.2905	0.2953
245.5057	0.2673
245.721	0.2663
245.9362	0.2656
246.1514	0.2759
246.3665	0.2617
246.5817	0.2497
246.7969	0.2545
247.012	0.267
247.2271	0.2173
247.4423	0.2398
247.6574	0.2462
247.8725	0.2325
248.0876	0.2234
248.3026	0.2273
248.5177	0.231
248.7328	0.2116
248.9478	0.2056
249.1628	0.2038
249.3779	0.2216
249.5929	0.2142
249.8079	0.2248
250.0228	0.1931
250.2378	0.2142
250.4528	0.199
250.6677	0.1913
250.8827	0.2007
251.0976	0.1989
251.3125	0.1771
251.5274	0.168
251.7423	0.1826
251.9572	0.1856
252.172	0.1931
252.3869	0.1901
252.6017	0.1726
252.8166	0.1683
253.0314	0.1633
253.2462	0.1647
253.461	0.1681
253.6758	0.1871
253.8906	0.1749
254.1053	0.1733
254.3201	0.1744
254.5348	0.1907
254.7496	0.1736
254.9643	0.1742
255.179	0.1648
255.3937	0.1774
255.6083	0.1687
255.823	0.1646
256.0377	0.1652
256.2523	0.1634
256.467	0.16
256.6816	0.1665
256.8962	0.1583
257.1108	0.1597
257.3254	0.1679
257.54	0.1632
257.7545	0.1674
257.9691	0.1613
258.1836	0.1677
258.3981	0.1777
258.6127	0.1731
258.8272	0.1516
259.0417	0.1608
259.2561	0.1625
259.4706	0.1587
259.6851	0.1712
259.8995	0.1663
260.114	0.16
260.3284	0.1585
260.5428	0.1653
260.7572	0.1656
260.9716	0.1679
261.186	0.1585
261.4003	0.1613
261.6147	0.1676
261.829	0.1641
262.0433	0.1635
262.2577	0.1584
262.472	0.1804
262.6863	0.1666
262.9005	0.1558
263.1148	0.1647
263.3291	0.148
263.5433	0.1626
263.7576	0.1597
263.9718	0.1585
264.186	0.1613
264.4002	0.1518
264.6144	0.1577
264.8286	0.1561
265.0427	0.1615
265.2569	0.1662
265.471	0.1548
265.6851	0.1628
265.8993	0.1465
266.1134	0.1529
266.3275	0.1546
266.5415	0.1582
266.7556	0.1638
266.9697	0.1699
267.1837	0.1523
267.3978	0.155
267.6118	0.1806
267.8258	0.1692
268.0398	0.1613
268.2538	0.1572
268.4677	0.1575
268.6817	0.1487
268.8957	0.1534
269.1096	0.1658
269.3235	0.1569
269.5374	0.154
269.7514	0.1593
269.9652	0.1485
270.1791	0.1548
270.393	0.1481
270.6068	0.1574
270.8207	0.1438
271.0345	0.1441
271.2483	0.1513
271.4622	0.1345
271.676	0.1611
271.8897	0.143
272.1035	0.1453
272.3173	0.1479
272.531	0.1446
272.7448	0.1495
272.9585	0.1409
273.1722	0.1415
273.3859	0.1434
273.5996	0.1355
273.8133	0.1478
274.0269	0.1362
274.2406	0.146
274.4542	0.1378
274.6679	0.1273
274.8815	0.1539
275.0951	0.1479
275.3087	0.145
275.5223	0.1476
275.7358	0.1481
275.9494	0.1419
276.1629	0.1334
276.3765	0.1396
276.59	0.1492
276.8035	0.1482
277.017	0.1483
277.2305	0.1438
277.444	0.1542
277.6574	0.1502
277.8709	0.1469
278.0843	0.1381
278.2978	0.1409
278.5112	0.152
278.7246	0.1457
278.938	0.1601
279.1513	0.1476
279.3647	0.1523
279.5781	0.1412
279.7914	0.1427
280.0047	0.1615
280.2181	0.1473
280.4314	0.1616
280.6447	0.1593
280.8579	0.1411
281.0712	0.152
281.2845	0.1494
281.4977	0.1437
281.711	0.1408
281.9242	0.1518
282.1374	0.1534
282.3506	0.1434
282.5638	0.1566
282.7769	0.1564
282.9901	0.1474
283.2033	0.1662
283.4164	0.1586
283.6295	0.149
283.8426	0.1466
284.0557	0.1508
284.2688	0.1652
284.4819	0.1647
284.695	0.1577
284.908	0.1568
285.1211	0.1479
285.3341	0.1561
285.5471	0.1524
285.7601	0.1448
285.9731	0.1525
286.1861	0.1435
286.3991	0.1661
286.612	0.1684
286.825	0.1634
287.0379	0.1742
287.2508	0.1521
287.4637	0.1566
287.6766	0.1512
287.8895	0.1612
288.1024	0.1816
288.3152	0.1673
288.5281	0.1447
288.7409	0.1675
288.9538	0.1651
289.1666	0.1601
289.3794	0.1713
289.5922	0.1558
289.8049	0.1539
290.0177	0.1626
290.2304	0.163
290.4432	0.1714
290.6559	0.1669
290.8686	0.1661
291.0813	0.1522
291.294	0.1647
291.5067	0.1699
291.7194	0.1635
291.932	0.1785
292.1447	0.1643
292.3573	0.1552
292.5699	0.1689
292.7825	0.1657
292.9951	0.1598
293.2077	0.1698
293.4203	0.1699
293.6328	0.1521
293.8454	0.169
294.0579	0.1627
294.2704	0.1567
294.4829	0.1525
294.6954	0.1627
294.9079	0.1666
295.1204	0.1574
295.3328	0.1614
295.5453	0.1678
295.7577	0.1668
295.9701	0.148
296.1825	0.1652
296.3949	0.1578
296.6073	0.1558
296.8197	0.1523
297.0321	0.1739
297.2444	0.1481
297.4567	0.1645
297.6691	0.1629
297.8814	0.1544
298.0937	0.1564
298.306	0.1715
298.5182	0.1676
298.7305	0.1633
298.9428	0.1613
299.155	0.1617
299.3672	0.1491
299.5794	0.156
299.7916	0.1626
300.0038	0.1664
300.216	0.1578
300.4282	0.1638
300.6403	0.1562
300.8525	0.17
301.0646	0.1637
301.2767	0.1624
301.4888	0.1604
301.7009	0.163
301.913	0.166
302.125	0.1648
302.3371	0.1515
302.5491	0.1544
302.7612	0.1652
302.9732	0.1674
303.1852	0.1548
303.3972	0.1479
303.6092	0.158
303.8211	0.159
304.0331	0.1553
304.245	0.1496
304.457	0.1429
304.6689	0.1495
304.8808	0.1568
305.0927	0.1391
305.3046	0.1547
305.5164	0.1522
305.7283	0.1476
305.9401	0.1445
306.152	0.1512
306.3638	0.1507
306.5756	0.1422
306.7874	0.1415
306.9992	0.1403
307.2109	0.1377
307.4227	0.1286
307.6344	0.125
307.8462	0.137
308.0579	0.1259
308.2696	0.1342
308.4813	0.1349
308.693	0.1301
308.9046	0.141
309.1163	0.1162
309.328	0.1261
309.5396	0.1145
309.7512	0.123
309.9628	0.1188
310.1744	0.1191
310.386	0.1149
310.5976	0.1111
310.8091	0.11
311.0207	0.1171
311.2322	0.117
311.4437	0.1154
311.6552	0.103
311.8667	0.1162
312.0782	0.0908
312.2897	0.105
312.5012	0.1141
312.7126	0.1003
312.924	0.0998
313.1355	0.1103
313.3469	0.104
313.5583	0.1035
313.7696	0.1006
313.981	0.1079
314.1924	0.1136
314.4037	0.0935
314.6151	0.1187
314.8264	0.0955
315.0377	0.0977
315.249	0.0985
315.4603	0.1139
315.6716	0.0942
315.8828	0.0945
316.0941	0.0945
316.3053	0.0894
316.5165	0.0907
316.7277	0.0899
316.9389	0.0979
317.1501	0.0949
317.3613	0.0974
317.5724	0.0843
317.7836	0.103
317.9947	0.1
318.2058	0.0965
318.417	0.0898
318.6281	0.0935
318.8391	0.0896
319.0502	0.0912
319.2613	0.0942
319.4723	0.1016
319.6834	0.0963
319.8944	0.0823
320.1054	0.1037
320.3164	0.1039
320.5274	0.0938
320.7383	0.1038
320.9493	0.0973
321.1602	0.1004
321.3712	0.0921
321.5821	0.1003
321.793	0.0934
322.0039	0.0929
322.2148	0.0996
322.4257	0.1019
322.6365	0.1039
322.8474	0.1109
323.0582	0.096
323.269	0.1175
323.4798	0.1051
323.6906	0.1018
323.9014	0.1088
324.1122	0.1108
324.3229	0.098
324.5337	0.0953
324.7444	0.0963
324.9551	0.107
325.1658	0.1063
325.3765	0.1052
325.5872	0.1053
325.7979	0.1035
326.0085	0.1036
326.2192	0.1043
326.4298	0.1034
326.6404	0.0882
326.851	0.1049
327.0616	0.0906
327.2722	0.1062
327.4828	0.1045
327.6933	0.0921
327.9039	0.1019
328.1144	0.1074
328.3249	0.1044
328.5354	0.1058
328.7459	0.1012
328.9564	0.1004
329.1669	0.1123
329.3773	0.1082
329.5878	0.1054
329.7982	0.0937
330.0086	0.1021
330.219	0.1047
330.4294	0.1052
330.6398	0.1011
330.8502	0.0966
331.0605	0.0974
331.2708	0.1059
331.4812	0.1107
331.6915	0.0966
331.9018	0.1053
332.1121	0.1012
332.3224	0.1073
332.5326	0.1141
332.7429	0.1117
332.9531	0.1161
333.1633	0.1223
333.3735	0.1031
333.5837	0.112
333.7939	0.0949
334.0041	0.1197
334.2143	0.1256
334.4244	0.1054
334.6346	0.0858
334.8447	0.111
335.0548	0.1038
335.2649	0.1081
335.475	0.1197
335.685	0.1046
335.8951	0.1207
336.1051	0.1181
336.3152	0.1127
336.5252	0.0982
336.7352	0.1172
336.9452	0.1171
337.1552	0.1185
337.3652	0.1071
337.5751	0.1115
337.7851	0.1126
337.995	0.1005
338.2049	0.1183
338.4148	0.1093
338.6247	0.1109
338.8346	0.1066
339.0445	0.0968
339.2543	0.1061
339.4642	0.1172
339.674	0.0891
339.8838	0.115
340.0936	0.1147
340.3034	0.1224
340.5132	0.123
340.7229	0.1085
340.9327	0.1111
341.1424	0.106
341.3522	0.1292
341.5619	0.1106
341.7716	0.1105
341.9813	0.1346
342.1909	0.1231
342.4006	0.1221
342.6102	0.1423
342.8199	0.1329
343.0295	0.1215
343.2391	0.1161
343.4487	0.1411
343.6583	0.1298
343.8679	0.123
344.0774	0.1217
344.287	0.1328
344.4965	0.1307
344.706	0.1311
344.9155	0.1193
345.125	0.1213
345.3345	0.1287
345.544	0.1231
345.7534	0.1349
345.9629	0.1187
346.1723	0.126
346.3817	0.111
346.5911	0.1271
346.8005	0.1258
347.0099	0.1313
347.2193	0.1289
347.4286	0.1312
347.638	0.1392
347.8473	0.1426
348.0566	0.1405
348.2659	0.1316
348.4752	0.1331
348.6845	0.1336
348.8937	0.1341
349.103	0.1412
349.3122	0.1345
349.5214	0.1315
349.7306	0.1318
349.9398	0.1316
350.149	0.1321
350.3582	0.1319
350.5674	0.1526
350.7765	0.131
350.9856	0.1429
351.1948	0.136
351.4039	0.1297
351.613	0.1358
351.822	0.1508
352.0311	0.1485
352.2402	0.1384
352.4492	0.1444
352.6582	0.1456
352.8672	0.1386
353.0762	0.1522
353.2852	0.1479
353.4942	0.1436
353.7032	0.1411
353.9121	0.1567
354.1211	0.157
354.33	0.1615
354.5389	0.1535
354.7478	0.1481
354.9567	0.1468
355.1655	0.1427
355.3744	0.1502
355.5833	0.1549
355.7921	0.1733
356.0009	0.1489
356.2097	0.1652
356.4185	0.1541
356.6273	0.1479
356.8361	0.1572
357.0448	0.1571
357.2536	0.1508
357.4623	0.1433
357.671	0.1487
357.8797	0.1789
358.0884	0.1699
358.2971	0.1538
358.5057	0.1617
358.7144	0.1777
358.923	0.1535
359.1316	0.1637
359.3402	0.1713
359.5488	0.1703
359.7574	0.1531
359.966	0.1819
360.1746	0.1707
360.3831	0.1851
360.5916	0.1656
360.8002	0.1577
361.0087	0.1887
361.2172	0.1709
361.4256	0.1713
361.6341	0.1919
361.8426	0.1714
362.051	0.1763
362.2594	0.1977
362.4678	0.1693
362.6762	0.1963
362.8846	0.196
363.093	0.1712
363.3014	0.1886
363.5097	0.173
363.718	0.1784
363.9264	0.1852
364.1347	0.1723
364.343	0.1929
364.5513	0.2016
364.7595	0.202
364.9678	0.1998
365.176	0.2038
365.3842	0.1947
365.5925	0.2041
365.8007	0.1881
366.0089	0.2035
366.217	0.2004
366.4252	0.1999
366.6333	0.1952
366.8415	0.2015
367.0496	0.1997
367.2577	0.2203
367.4658	0.2152
367.6739	0.2143
367.882	0.2075
368.09	0.2006
368.2981	0.2048
368.5061	0.2048
368.7141	0.2041
368.9221	0.2037
369.1301	0.2076
369.3381	0.2009
369.5461	0.2207
369.754	0.2106
369.962	0.2202
370.1699	0.2215
370.3778	0.2138
370.5857	0.2032
370.7936	0.2162
371.0015	0.212
371.2093	0.2228
371.4172	0.2234
371.625	0.2148
371.8328	0.2053
372.0406	0.2239
372.2484	0.213
372.4562	0.2378
372.664	0.217
372.8717	0.2211
373.0795	0.2039
373.2872	0.216
373.4949	0.2003
373.7026	0.2147
373.9103	0.2256
374.118	0.2307
374.3256	0.23
374.5333	0.2173
374.7409	0.2191
374.9485	0.2533
375.1561	0.2301
375.3637	0.2236
375.5713	0.2291
375.7789	0.2247
375.9864	0.2368
376.194	0.2214
376.4015	0.2383
376.609	0.2478
376.8165	0.2361
377.024	0.2258
377.2315	0.2331
377.4389	0.2502
377.6464	0.239
377.8538	0.2361
378.0612	0.222
378.2686	0.2626
378.476	0.2471
378.6834	0.2366
378.8908	0.2347
379.0981	0.2326
379.3055	0.2523
379.5128	0.237
379.7201	0.2266
379.9274	0.2432
380.1347	0.2281
380.342	0.2561
380.5492	0.2433
380.7565	0.2389
380.9637	0.2503
381.1709	0.2475
381.3781	0.2512
381.5853	0.2581
381.7925	0.2467
381.9997	0.2569
382.2068	0.2584
382.4139	0.2777
382.6211	0.2401
382.8282	0.2477
383.0353	0.2424
383.2424	0.2503
383.4494	0.2599
383.6565	0.252
383.8635	0.2536
384.0706	0.2284
384.2776	0.2522
384.4846	0.2281
384.6916	0.2416
384.8986	0.2437
385.1055	0.2395
385.3125	0.2439
385.5194	0.2402
385.7263	0.2434
385.9333	0.2499
386.1402	0.2438
386.347	0.2357
386.5539	0.249
386.7608	0.2503
386.9676	0.2496
387.1744	0.2501
387.3813	0.2572
387.5881	0.2466
387.7948	0.2477
388.0016	0.2328
388.2084	0.235
388.4151	0.2414
388.6219	0.2448
388.8286	0.239
389.0353	0.2614
389.242	0.2522
389.4487	0.2201
389.6553	0.2398
389.862	0.2176
390.0686	0.2273
390.2753	0.229
390.4819	0.2398
390.6885	0.2215
390.8951	0.2175
391.1016	0.2326
391.3082	0.2276
391.5147	0.2341
391.7213	0.2275
391.9278	0.2264
392.1343	0.2185
392.3408	0.2269
392.5473	0.2148
392.7537	0.2182
392.9602	0.2023
393.1666	0.2317
393.373	0.2359
393.5794	0.2351
393.7858	0.2145
393.9922	0.2155
394.1986	0.2322
394.4049	0.2188
394.6113	0.216
394.8176	0.1995
395.0239	0.1898
395.2302	0.2174
395.4365	0.2185
395.6428	0.2067
395.8491	0.2079
396.0553	0.2085
396.2615	0.2035
396.4678	0.2109
396.674	0.1988
396.8802	0.2012
397.0863	0.2276
397.2925	0.1999
397.4987	0.2047
397.7048	0.2004
397.9109	0.2051
398.117	0.2048
398.3231	0.1911
398.5292	0.2203
398.7353	0.2098
398.9413	0.2156
399.1474	0.2003
399.3534	0.2159
399.5594	0.2001
399.7654	0.222
399.9714	0.2175
400.1774	0.2165
400.3833	0.1915
400.5893	0.1979
400.7952	0.1997
401.0011	0.2062
401.207	0.2108
401.4129	0.2146
401.6188	0.2163
401.8247	0.197
402.0305	0.1928
402.2364	0.2173
402.4422	0.2238
402.648	0.2046
402.8538	0.2244
403.0596	0.1966
403.2654	0.2137
403.4711	0.2015
403.6768	0.2091
403.8826	0.2055
404.0883	0.2032
404.294	0.2195
404.4997	0.2056
404.7054	0.2013
404.911	0.198
405.1167	0.2152
405.3223	0.2193
405.5279	0.215
405.7335	0.2142
405.9391	0.2273
406.1447	0.2031
406.3502	0.2211
406.5558	0.2107
406.7613	0.2078
406.9668	0.2216
407.1724	0.2011
407.3778	0.2119
407.5833	0.2261
407.7888	0.1963
407.9942	0.2162
408.1997	0.2011
408.4051	0.2096
408.6105	0.2025
408.8159	0.2099
409.0213	0.1936
409.2267	0.2196
409.432	0.1932
409.6374	0.2112
409.8427	0.1949
410.048	0.2091
410.2533	0.2078
410.4586	0.2009
410.6639	0.1983
410.8691	0.1963
411.0744	0.2006
411.2796	0.1953
411.4848	0.2259
411.69	0.1853
411.8952	0.211
412.1004	0.1983
412.3056	0.219
412.5107	0.1818
412.7158	0.2104
412.921	0.2051
413.1261	0.2037
413.3312	0.2097
413.5362	0.2117
413.7413	0.2111
413.9464	0.1955
414.1514	0.2025
414.3564	0.2096
414.5614	0.1846
414.7664	0.1883
414.9714	0.2316
415.1764	0.2087
415.3813	0.2131
415.5863	0.1951
415.7912	0.2091
415.9961	0.1815
416.201	0.2
416.4059	0.2096
416.6108	0.1899
416.8156	0.2058
417.0205	0.1946
417.2253	0.1881
417.4301	0.2106
417.6349	0.2063
417.8397	0.1852
418.0445	0.2122
418.2492	0.2042
418.454	0.177
418.6587	0.1891
418.8634	0.2063
419.0681	0.1765
419.2728	0.1885
419.4775	0.1865
419.6822	0.1872
419.8868	0.1562
420.0915	0.1888
420.2961	0.1711
420.5007	0.1732
420.7053	0.1936
420.9099	0.1956
421.1144	0.19
421.319	0.1781
421.5235	0.1903
421.728	0.1934
421.9325	0.1759
422.137	0.1958
422.3415	0.1753
422.546	0.191
422.7504	0.1894
422.9549	0.1866
423.1593	0.1838
423.3637	0.1923
423.5681	0.1836
423.7725	0.1685
423.9769	0.1614
424.1812	0.1685
424.3856	0.1675
424.5899	0.1821
424.7942	0.1641
424.9985	0.163
425.2028	0.1708
425.4071	0.1787
425.6113	0.1479
425.8156	0.1663
426.0198	0.1859
426.224	0.1709
426.4282	0.1546
426.6324	0.1576
426.8366	0.1577
427.0407	0.1644
427.2449	0.1494
427.449	0.1604
427.6531	0.137
427.8572	0.1474
428.0613	0.1477
428.2654	0.1621
428.4694	0.142
428.6735	0.1552
428.8775	0.1564
429.0815	0.1475
429.2855	0.1518
429.4895	0.1512
429.6935	0.1462
429.8975	0.147
430.1014	0.1543
430.3053	0.1266
430.5093	0.1463
430.7132	0.1224
430.9171	0.1294
431.1209	0.139
431.3248	0.1309
431.5286	0.1349
431.7325	0.1249
431.9363	0.1103
432.1401	0.1273
432.3439	0.115
432.5477	0.1013
432.7514	0.1142
432.9552	0.1325
433.1589	0.1022
433.3627	0.1183
433.5664	0.1211
433.7701	0.1151
433.9737	0.1139
434.1774	0.1222
434.3811	0.0975
434.5847	0.1172
434.7883	0.1126
434.9919	0.0931
435.1955	0.104
435.3991	0.1013
435.6027	0.1087
435.8062	0.1013
436.0098	0.0953
436.2133	0.0949
436.4168	0.0909
436.6203	0.0967
436.8238	0.1147
437.0272	0.1006
437.2307	0.0856
437.4341	0.0897
437.6375	0.0974
437.841	0.0959
438.0443	0.0964
438.2477	0.1038
438.4511	0.0929
438.6545	0.0881
438.8578	0.0924
439.0611	0.0978
439.2644	0.0961
439.4677	0.0694
439.671	0.0632
439.8743	0.0802
440.0775	0.0837
440.2808	0.0761
440.484	0.063
440.6872	0.0464
440.8904	0.0591
441.0936	0.0836
441.2967	0.0609
441.4999	0.0593
441.703	0.0637
441.9062	0.0621
442.1093	0.0667
442.3124	0.0691
442.5155	0.0341
442.7185	0.0589
442.9216	0.0503
443.1246	0.0661
443.3276	0.0544
443.5307	0.064
443.7337	0.0737
443.9366	0.0629
444.1396	0.0513
444.3426	0.0524
444.5455	0.0529
444.7484	0.0497
444.9513	0.047
445.1542	0.0526
445.3571	0.0385
445.56	0.0522
445.7628	0.0276
445.9657	0.0407
446.1685	0.0554
446.3713	0.0409
446.5741	0.039
446.7769	0.0368
446.9797	0.0488
447.1824	0.0473
447.3852	0.0331
447.5879	0.0385
447.7906	0.0351
447.9933	0.0483
448.196	0.0193
448.3986	0.035
448.6013	0.0282
448.8039	0.0216
449.0066	0.0363
449.2092	0.0413
449.4118	0.0424
449.6143	0.0365
449.8169	0.0351
450.0195	0.0208
450.222	-0.0057
450.4245	0.0183
450.627	0.0405
450.8295	0.0221
451.032	0.0341
451.2345	0.0176
451.4369	0.0424
451.6394	0.0176
451.8418	0.0058
452.0442	0.0154
452.2466	0.0302
452.449	0.012
452.6513	0.0286
452.8537	0.0145
453.056	0.0142
453.2583	0.0145
453.4607	0.0257
453.663	0.0138
453.8652	0.0322
454.0675	-0
454.2697	0.0179
454.472	0.0089
454.6742	0.0046
454.8764	0.0125
455.0786	0.024
455.2808	0.0126
455.4829	0.0117
455.6851	0.0272
455.8872	0.0233
456.0893	0.0285
456.2915	-0.0057
456.4935	0.0231
456.6956	0.0123
456.8977	0.0254
457.0997	0.0088
457.3018	-0.0065
457.5038	0.0106
457.7058	0.0035
457.9078	0.0035
458.1098	0.0244
458.3117	0.0122
458.5137	0.0123
458.7156	0.0127
458.9175	-0.0037
459.1194	0.0184
459.3213	0.0035
459.5232	0.0021
459.725	0.0056
459.9269	-0.0016
460.1287	0.0083
460.3305	0.0094
460.5323	0.0054
460.7341	0.0196
460.9359	0.0149
461.1376	0.0029
461.3394	0.0046
461.5411	-0.007
461.7428	0.0105
461.9445	0.016
462.1462	0.017
462.3479	-0.0063
462.5495	0.01
462.7512	0.0132
462.9528	-0.0033
463.1544	-0.0142
463.356	0.008
463.5576	0.0189
463.7592	-0.0003
463.9607	0.02
464.1623	0.01
464.3638	0.0075
464.5653	0.0021
464.7668	0.0035
464.9683	0.0126
465.1697	0.0135
465.3712	-0.0086
465.5726	-0.0129
465.7741	-0.0163
465.9755	0.0017
466.1769	0.0087
466.3782	0.0073
466.5796	-0.0186
466.7809	0.0163
466.9823	0.0072
467.1836	0.011
467.3849	0.0028
467.5862	0.0052
467.7875	0.0018
467.9887	0.0125
468.19	0.0107
468.3912	0.0016
468.5924	-0.0056
468.7936	0.0015
468.9948	0.0028
469.196	-0.0011
469.3972	-0.0057
469.5983	0.0088
469.7994	-0
470.0006	0.0081
470.2017	-0.0158
470.4027	-0.0154
470.6038	0.0158
470.8049	-0.0153
471.0059	0.0013
471.2069	-0.0226
471.408	0.0114
471.6089	0.0108
471.8099	-0.0153
472.0109	0.0057
472.2119	-0.0136
472.4128	-0.0204
472.6137	0.0081
472.8146	0.0011
473.0155	-0.0099
473.2164	0.0098
473.4173	0.0089
473.6181	0.008
473.819	0.0098
474.0198	0.0015
474.2206	-0.0021
474.4214	-0.007
474.6222	0.0099
474.8229	0.0008
475.0237	-0.0086
475.2244	-0.0027
475.4251	0.0067
475.6258	-0.0077
475.8265	0.0018
476.0272	0.0061
476.2278	0.0017
476.4285	-0.0073
476.6291	-0.0077
476.8297	-0.0087
477.0303	-0.0079
477.2309	-0.0055
477.4315	-0.0025
477.632	-0.0078
477.8326	-0.0102
478.0331	-0.0034
478.2336	0.0056
478.4341	-0.0062
478.6346	-0.01
478.8351	0.0025
479.0355	0.0033
479.236	-0.0045
479.4364	0.0039
479.6368	0.0026
479.8372	-0.0093
480.0376	-0.0047
480.2379	-0.027
480.4383	-0.0049
480.6386	0.0051
480.8389	-0.0157
481.0392	-0.0108
481.2395	-0.0041
481.4398	0.0137
481.6401	0.0021
481.8403	-0.0036
482.0405	0.0015
482.2408	0.0019
482.441	-0.0001
482.6411	-0.0038
482.8413	-0.0069
483.0415	-0.0077
483.2416	-0.0225
483.4417	-0.0067
483.6419	0.0063
483.8419	-0.009
484.042	0.0031
484.2421	0.0026
484.4422	-0.0033
484.6422	-0.0058
484.8422	0.0001
485.0422	0.0036
485.2422	0.0022
485.4422	-0.01
485.6422	-0.0106
485.8421	-0.0051
486.042	-0.0033
486.242	-0.0024
486.4419	-0.0003
486.6417	-0.009
486.8416	-0.0031
487.0415	0.0022
487.2413	0.0003
487.4411	0.0013
487.641	-0.0086
487.8408	-0.0009
488.0405	-0.0045
488.2403	-0.0092
488.4401	0.0014
488.6398	0.0034
488.8395	-0.0132
489.0392	0.0023
489.2389	0.0011
489.4386	-0.0016
489.6383	-0.0032
489.8379	0.003
490.0376	-0.0127
490.2372	0.0022
490.4368	-0.0132
490.6364	-0.0085
490.836	-0.0167
491.0355	-0.004
491.2351	-0.0008
491.4346	-0.0085
491.6341	-0.0126
491.8336	-0.0001
492.0331	-0.0139
492.2326	-0.0133
492.432	-0.0026
492.6315	-0.0088
492.8309	-0.0034
493.0303	-0.0137
493.2297	-0.0131
493.4291	-0.01
493.6284	-0.0079
493.8278	0.0012
494.0271	0.0093
494.2264	0.0077
494.4257	-0.0106
494.625	-0.0012
494.8243	-0.0141
495.0236	-0.0133
495.2228	-0.007
495.422	0.0069
495.6213	-0.0084
495.8205	0.0059
496.0196	-0.0088
496.2188	0.0004
496.418	-0.0106
496.6171	0.0008
496.8162	-0.0119
497.0153	0.0018
497.2144	-0.0112
497.4135	0.0014
497.6126	-0.009
497.8116	-0.0079
498.0107	0.0084
498.2097	-0.0038
498.4087	0.0005
498.6077	0.0015
498.8067	0.0036
499.0056	-0.0041
499.2046	-0.0013
499.4035	-0.024
499.6024	-0.0029
499.8013	0.0067
500.0002	-0.0025
500.199	-0.0022
500.3979	-0.0021
500.5967	-0.0239
500.7956	0.0064
500.9944	0.0046
501.1932	-0.0098
501.3919	-0.0084
501.5907	-0.0119
501.7895	-0.0034
501.9882	-0.009
502.1869	-0.01
502.3856	-0.0155
502.5843	-0.0046
502.783	-0.0056
502.9816	0.0002
503.1803	-0.0053
503.3789	-0.0047
503.5775	0.002
503.7761	-0.0107
503.9747	-0.0013
504.1732	-0.0026
504.3718	0.0023
504.5703	-0.0071
504.7689	-0.0103
504.9674	0.0013
505.1658	-0.0102
505.3643	-0.0067
505.5628	-0.0067
505.7612	-0.001
505.9597	-0.0001
506.1581	-0.0097
506.3565	0.0047
506.5549	0.0038
506.7532	-0.0042
506.9516	-0.0072
507.1499	0.0066
507.3482	-0.0212
507.5465	-0.0081
507.7448	-0.0064
507.9431	-0.0025
508.1414	0.0025
508.3396	-0.0014
508.5379	-0.0041
508.7361	-0.0083
508.9343	0.004
509.1325	0.0054
509.3306	0.0008
509.5288	-0.009
509.7269	-0.0062
509.9251	-0.0071
510.1232	-0.0096
510.3213	-0.002
510.5193	0.0056
510.7174	-0.009
510.9154	-0.0117
511.1135	-0.0185
511.3115	-0.0032
511.5095	-0.0064
511.7075	-0.0039
511.9055	-0.0048
512.1034	-0.0151
512.3014	-0.0071
512.4993	0.0019
512.6972	0.0014
512.8951	0.0005
513.093	0.0033
513.2908	-0.0033
513.4887	0.0035
513.6865	-0.003
513.8844	-0.0031
514.0822	-0.0023
514.2799	-0.0102
514.4777	-0.0131
514.6755	-0.0072
514.8732	-0.0028
515.0709	-0.0064
515.2687	0.002
515.4664	0.0065
515.664	-0.0025
515.8617	-0.0079
516.0594	-0.0176
516.257	0.0018
516.4546	-0.0147
516.6522	0.0074
516.8498	-0.0132
517.0474	0.0037
517.2449	-0.0021
517.4425	-0.0147
517.64	-0.0071
517.8375	0.0121
518.035	-0.0076
518.2325	-0.0018
518.43	-0.0047
518.6274	-0.0049
518.8249	-0.0187
519.0223	-0.0028
519.2197	-0.0027
519.4171	-0.0068
519.6145	-0.0155
519.8118	-0.0036
520.0092	-0.0053
520.2065	-0.0126
520.4038	-0.0138
520.6011	-0.0043
520.7984	-0.0094
520.9956	-0.0081
521.1929	-0.0117
521.3901	-0.0053
521.5874	0.0068
521.7846	0.0075
521.9818	-0.0038
522.1789	-0.006
522.3761	-0.0019
522.5732	-0.0042
522.7704	-0.0003
522.9675	0.0021
523.1646	-0.0075
523.3617	0.0009
523.5587	0.0004
523.7558	-0.0063
523.9528	-0.0051
524.1498	-0.0046
524.3468	-0.0055
524.5438	-0
524.7408	0.0011
524.9378	0.0076
525.1347	0.0027
525.3316	0.0059
525.5285	-0.0083
525.7254	-0.0006
525.9223	0.0019
526.1192	-0.0016
526.316	-0.0109
526.5129	0.0054
526.7097	-0.001
526.9065	-0.0019
527.1033	-0.0033
527.3	0.0035
527.4968	0.0019
527.6935	-0.004
527.8903	-0.0094
528.087	0.0047
528.2837	-0.0024
528.4804	-0.0096
528.677	-0.0067
528.8737	0.0043
529.0703	-0.003
529.2669	0.0001
529.4635	-0.0028
529.6601	0.0095
529.8567	-0.0088
530.0532	-0.0033
530.2498	0.0016
530.4463	0.0072
530.6428	-0.0072
530.8393	0.0086
531.0358	-0.0054
531.2322	-0.0043
531.4287	-0.0065
531.6251	-0.0125
531.8215	0.0049
532.0179	-0.0056
532.2143	0.0003
532.4107	-0.0022
532.607	-0.0067
532.8034	0.0097
532.9997	0.008
533.196	0.0012
533.3923	-0.0165
533.5886	0.0033
533.7848	0.0049
533.9811	0.0002
534.1773	-0.0034
534.3735	0.0137
534.5697	0.0046
534.7659	0.0006
534.9621	0.0005
535.1582	-0.0046
535.3544	-0.0001
535.5505	-0.0045
535.7466	-0.0064
535.9427	0.0074
536.1387	-0.0085
536.3348	-0.0063
536.5308	-0.0001
536.7269	-0.018
536.9229	0.0062
537.1189	-0.0003
537.3148	-0.0017
537.5108	0.0023
537.7068	0.0066
537.9027	0.0088
538.0986	0.0006
538.2945	0.0049
538.4904	-0.0086
538.6863	-0.0044
538.8821	0.0006
539.078	0.0013
539.2738	-0.0003
539.4696	-0.0006
539.6654	0.0067
539.8611	0.0098
540.0569	0.0028
540.2526	0.0003
540.4484	-0.0067
540.6441	0.0068
540.8398	-0.0044
541.0355	0.0006
541.2311	-0.007
541.4268	-0.01
541.6224	-0.0004
541.818	-0.0049
542.0136	-0.0035
542.2092	0.0034
542.4048	0.014
542.6003	0.0015
542.7959	0.0031
542.9914	-0.0013
543.1869	0.0064
543.3824	0.0158
543.5779	0.0019
543.7734	0.0048
543.9688	-0.0013
544.1642	0.0095
544.3596	0.0005
544.555	-0.0049
544.7504	0.0092
544.9458	-0.0035
545.1411	-0.0016
545.3365	-0.0002
545.5318	-0.0067
545.7271	0.0064
545.9224	-0.0048
546.1177	-0.0026
546.3129	0.0093
546.5081	-0.0044
546.7034	0.0023
546.8986	0.0021
547.0938	0.0002
547.289	0.0003
547.4841	-0.0011
547.6793	0.0037
547.8744	-0.0015
548.0695	0.0012
548.2646	-0.0044
548.4597	0.0098
548.6548	0.0066
548.8498	0.0079
549.0448	0.0041
549.2399	0.0046
549.4349	0.0095
549.6298	0.0015
549.8248	0.0052
550.0198	-0.0078
550.2147	0.0043
550.4096	0.0028
550.6045	-0.0022
550.7994	0.0017
550.9943	0.0089
551.1892	-0.0018
551.384	0.0083
551.5788	-0.0093
551.7737	0.001
551.9685	-0.0075
552.1632	0.0014
552.358	-0.0032
552.5528	0.0067
552.7475	-0.0017
552.9422	-0.0052
553.1369	-0.0004
553.3316	-0.0004
553.5263	-0.0043
553.7209	0.0101
553.9156	0.0022
554.1102	-0.0019
554.3048	-0.0051
554.4994	0.0056
554.694	-0.0082
554.8885	0.0037
555.0831	-0.0034
555.2776	-0.004
555.4721	-0.0045
555.6666	-0.0086
555.8611	0.0088
556.0555	-0.006
556.25	-0.0043
556.4444	-0.0034
556.6388	0.0049
556.8332	0.0067
557.0276	-0.0061
557.222	-0.0015
557.4163	0.0026
557.6107	-0.0068
557.805	0.0055
557.9993	-0.0071
558.1936	0.0012
558.3879	0.0021
558.5821	0.0001
558.7764	0.0016
558.9706	0.0042
559.1648	0.0041
559.359	0.0028
559.5532	-0.0054
559.7473	-0.0012
559.9415	0.0056
560.1356	-0.0012
560.3297	-0.003
560.5238	-0.0061
560.7179	-0.0022
560.9119	-0
561.106	0.0007
561.3	-0.0036
561.494	-0.0017
561.688	-0.005
561.882	-0.004
562.076	-0.0023
562.2699	0.0029
562.4639	0.0045
562.6578	0.0039
562.8517	0.0001
563.0456	0.001
563.2395	0.001
563.4333	-0.001
563.6272	0.0107
563.821	-0.0028
564.0148	0.0043
564.2086	-0.0071
564.4024	0.0032
564.5961	-0.0055
564.7899	0.0106
564.9836	0.001
565.1773	0.0048
565.371	0.0088
565.5647	0.0056
565.7584	-0.0009
565.952	-0.0009
566.1456	0.008
566.3393	-0.0007
566.5329	0.0041
566.7264	0.0099
566.92	-0.0053
567.1136	-0.0037
567.3071	0.0003
567.5006	0.0129
567.6941	0.0068
567.8876	0.0012
568.0811	-0
568.2745	0.0015
568.468	0.013
568.6614	-0.0012
568.8548	0.002
569.0482	-0.0002
569.2416	0.0042
569.4349	0.0056
569.6283	0.0045
569.8216	0.0044
570.0149	-0.0057
570.2082	0.0108
570.4015	0.0056
570.5947	0.0074
570.788	0.0062
570.9812	0.0133
571.1744	0.002
571.3676	-0.0016
571.5608	-0.0025
571.754	0.001
571.9471	0.0065
572.1402	0.0068
572.3333	-0.0004
572.5264	-0.0026
572.7195	0.0012
572.9126	0.0012
573.1057	0.0021
573.2987	0.0019
573.4917	0.0063
573.6847	-0.0022
573.8777	0.0089
574.0707	0.003
574.2636	-0.0009
574.4566	-0.0051
574.6495	0.0098
574.8424	0.0016
575.0353	-0.0038
575.2281	0.0135
575.421	0
575.6138	0.0082
575.8067	-0.0008
575.9995	0.0095
576.1923	0.009
576.385	0.0047
576.5778	0.0043
576.7706	0.0021
576.9633	0.0045
577.156	0.0013
577.3487	-0.0016
577.5414	0.004
577.734	-0.0003
577.9267	0.0048
578.1193	-0.0058
578.3119	-0.0052
578.5045	0.003
578.6971	-0.0002
578.8897	0.0041
579.0822	-0.0012
579.2747	0.0039
579.4673	-0.004
579.6598	-0.0035
579.8522	-0.0001
580.0447	-0.0034
580.2372	0.0039
580.4296	0.0082
580.622	0.0051
580.8144	0.0054
581.0068	-0.0051
581.1992	-0.0066
581.3915	-0.0046
581.5839	-0.012
581.7762	-0.0051
581.9685	0.0004
582.1608	0.0072
582.353	0.0071
582.5453	0.0017
582.7375	-0.0002
582.9298	0.0028
583.122	0.0016
583.3142	-0.0002
583.5063	-0.0027
583.6985	0.0005
583.8906	-0.0027
584.0827	-0.002
584.2749	0.0038
584.4669	0.008
584.659	0.0031
584.8511	0.0023
585.0431	-0.0046
585.2352	0.0063
585.4272	-0.0006
585.6192	0.0099
585.8111	0.0065
586.0031	0.0007
586.195	0.0005
586.387	0.0073
586.5789	-0.0016
586.7708	0.0045
586.9627	0.0026
587.1545	-0.0033
587.3464	0.008
587.5382	0.0086
587.73	0.0065
587.9218	0.0088
588.1136	-0
588.3053	0.0074
588.4971	0.0044
588.6888	0.0003
588.8805	0.0004
589.0722	0.0085
589.2639	0.0058
589.4556	0.0017
589.6472	-0.0019
589.8389	-0.0039
590.0305	-0.0065
590.2221	0.0068
590.4137	-0.0053
590.6052	0.0026
590.7968	0.0032
590.9883	0.001
591.1798	0.0014
591.3713	0.0012
591.5628	-0.0041
591.7543	0.0054
591.9458	0.0013
592.1372	0.0075
592.3286	0.0075
592.52	-0.0004
592.7114	-0.0007
592.9028	-0.0038
593.0941	0.0051
593.2855	0.0048
593.4768	-0.004
593.6681	-0.0058
593.8594	-0.0044
594.0506	-0.0005
594.2419	0.008
594.4331	0.003
594.6244	0.0075
594.8156	-0.008
595.0067	-0.0021
595.1979	0.0016
595.3891	0.0041
595.5802	-0.0001
595.7713	-0.0033
595.9624	0.0007
596.1535	0.0049
596.3446	0.0011
596.5357	0
596.7267	0.0118
596.9177	0.0051
597.1087	-0.0097
597.2997	0.0026
597.4907	0.0093
597.6817	-0.0022
597.8726	0.0045
598.0635	0.0026
598.2544	0.0039
598.4453	0.0083
598.6362	0.0005
598.827	-0.0033
599.0179	0.0072
599.2087	0.0053
599.3995	-0.0014
599.5903	0.0065
599.7811	0.0017
599.9718	0.0045
600.1626	-0.0031
600.3533	-0.0009
600.544	0.0061
600.7347	0.0067
600.9254	0.0051
601.116	-0.0095
601.3067	0.0009
601.4973	0.0028
601.6879	0.001
601.8785	-0.0033
602.0691	0.0055
602.2596	0.0056
602.4502	0.0092
602.6407	0.0047
602.8312	0.0079
603.0217	-0.0069
603.2122	0.0121
603.4027	0.0017
603.5931	-0.003
603.7835	-0.0025
603.9739	-0.0044
604.1643	-0.0044
604.3547	-0.0003
604.5451	-0.0007
604.7354	-0.0042
604.9257	-0.0018
605.116	0.0017
605.3063	0.0054
605.4966	0.0039
605.6869	0.0109
605.8771	0.0037
606.0673	0.0088
606.2575	0.0087
606.4477	0.0124
606.6379	0.0058
606.8281	-0.0018
607.0182	0.0017
607.2083	0.0124
607.3985	0.0009
607.5885	0.0048
607.7786	0.0029
607.9687	-0.0011
608.1587	0.0105
608.3488	0.0075
608.5388	0.0043
608.7288	0.0038
608.9187	-0.0061
609.1087	-0.003
609.2986	-0.0072
609.4886	-0.0005
609.6785	-0.0018
609.8684	0.0066
610.0582	0.0077
610.2481	0.0062
610.4379	-0.0002
610.6278	-0.0005
610.8176	-0.0042
611.0074	0.0092
611.1971	0.0046
611.3869	0.0013
611.5766	-0.0046
611.7664	0.0067
611.9561	0.0086
612.1458	0.0055
612.3354	-0.0027
612.5251	-0.0027
612.7147	0.0051
612.9044	0.0072
613.094	-0.0035
613.2836	0.006
613.4731	0.0061
613.6627	0.0016
613.8522	0.0068
614.0417	0.0077
614.2313	0.0004
614.4207	-0.0006
614.6102	0.0037
614.7997	-0.0051
614.9891	-0.0029
615.1785	0.0016
615.3679	0.0011
615.5573	0.0091
615.7467	0.0035
615.9361	0.0077
616.1254	0.0042
616.3147	0.0021
616.504	0.001
616.6933	0.0094
616.8826	0.0114
617.0718	0.0059
617.2611	0.003
617.4503	0.0033
617.6395	-0.0027
617.8287	0.0018
618.0179	0.0057
618.207	0.01
618.3961	0.0064
618.5853	-0.0026
618.7744	-0.0005
618.9634	0.0057
619.1525	-0.0022
619.3416	0.0019
619.5306	0.004
619.7196	0.0077
619.9086	0.0035
620.0976	0.004
620.2866	0.0022
620.4755	0.0143
620.6645	0.0126
620.8534	0.0099
621.0423	0.0031
621.2312	0.0072
621.42	0.004
621.6089	0.0115
621.7977	0.0092
621.9865	0.001
622.1753	0.0112
622.3641	0.0039
622.5529	0.0125
622.7416	0.0073
622.9303	-0.0027
623.1191	0.0051
623.3078	-0.0027
623.4964	0.0048
623.6851	-0.0005
623.8737	0.0004
624.0624	0.0149
624.251	0.0027
624.4396	0.005
624.6282	-0.0014
624.8167	0.0064
625.0053	0.0031
625.1938	0.0131
625.3823	0.0048
625.5708	0.0039
625.7593	0.0056
625.9477	-0.0069
626.1362	-0.0059
626.3246	0.0048
626.513	0.0115
626.7014	0.0115
626.8898	0.0079
627.0781	0.0099
627.2665	-0.0035
627.4548	0.0058
627.6431	0.0092
627.8314	0.0094
628.0197	0.0099
628.2079	0.0007
628.3962	0.0001
628.5844	0.0049
628.7726	0.0051
628.9608	0.0057
629.1489	0.0043
629.3371	0.0032
629.5252	-0.0034
629.7134	0.0095
629.9015	0.0031
630.0895	0.0008
630.2776	0.0116
630.4657	0.0009
630.6537	0.0075
630.8417	0.0031
631.0297	0.0039
631.2177	0.0015
631.4057	-0.0022
631.5936	0.0046
631.7815	0.0023
631.9695	0.0032
632.1574	0.008
632.3452	0.0145
632.5331	0.0058
632.7209	0.0068
632.9088	0.014
633.0966	0.0159
633.2844	0.0079
633.4722	0.0057
633.6599	0.0064
633.8477	0.0062
634.0354	0.0104
634.2231	0.0042
634.4108	0.0023
634.5985	0.01
634.7861	0.0087
634.9738	0.0026
635.1614	0.0093
635.349	0.0098
635.5366	0.0047
635.7242	0.0114
635.9117	0.0131
636.0993	0.0077
636.2868	0.0093
636.4743	0.0055
636.6618	0.0067
636.8492	0.0056
637.0367	0.0141
637.2241	0.0006
637.4115	-0.0021
637.5989	0.0037
637.7863	-0.0012
637.9737	0.0048
638.161	0.0078
638.3484	0.0064
638.5357	0.0025
638.723	0.0078
638.9103	0.0012
639.0975	0.0067
639.2848	0.0069
639.472	0.012
639.6592	0.0079
639.8464	0.0143
640.0336	0.0092
640.2208	-0.0009
640.4079	-0.0007
640.595	0.009
640.7821	0.0001
640.9692	0.0021
641.1563	0.0091
641.3434	0.0067
641.5304	0.0044
641.7174	0.0097
641.9044	0.0067
642.0914	0.0071
642.2784	0.0124
642.4653	0.0104
642.6523	0.005
642.8392	0.007
643.0261	0.0074
643.213	0.0075
643.3999	-0.0038
643.5867	-0.002
643.7735	0.0079
643.9604	-0.003
644.1472	0.0068
644.3339	0.0092
644.5207	0.0087
644.7075	0.0083
644.8942	0.0109
645.0809	0.0108
645.2676	0.0159
645.4543	0.0088
645.6409	0.0157
645.8276	0.0074
646.0142	0.0104
646.2008	0.0031
646.3874	0.0067
646.574	0.0038
646.7605	-0.0022
646.9471	-0.0044
647.1336	-0.0032
647.3201	0.0085
647.5066	0.0041
647.6931	0.0042
647.8795	0.0002
648.0659	0.0051
648.2524	0.007
648.4388	-0.0024
648.6252	-0.0014
648.8115	0.0031
648.9979	-0.002
649.1842	0.0043
649.3705	0.0054
649.5568	0.0037
649.7431	0.0053
649.9294	0.0052
650.1156	0.0024
650.3018	-0.0012
650.488	0.0121
650.6742	0.0103
650.8604	0.0077
651.0466	-0.0025
651.2327	0.0069
651.4188	0.0079
651.6049	0.0051
651.791	0.0082
651.9771	0.0111
652.1632	0.0162
652.3492	0.0063
652.5352	0.0081
652.7212	0.001
652.9072	0.0055
653.0932	0.0034
653.2791	0.0079
653.465	0.0079
653.651	0.0024
653.8369	0.0009
654.0227	0.0057
654.2086	0.01
654.3944	0.007
654.5803	0.0028
654.7661	0.0037
654.9519	0.0102
655.1377	0.0018
655.3234	0.0006
655.5092	-0.0024
655.6949	-0.0063
655.8806	-0.0068
656.0663	0.0005
656.2519	-0.0006
656.4376	0.0041
656.6232	0.0016
656.8088	0.0045
656.9945	0.0065
657.18	-0.0014
657.3656	0.0041
657.5511	0.0058
657.7367	-0.0019
657.9222	0.0085
658.1077	0.0093
658.2932	0.0078
658.4786	-0.001
658.6641	0.0003
658.8495	0.005
659.0349	-0.0001
659.2203	0.0064
659.4057	0.0046
659.591	0.0078
659.7764	0.0036
659.9617	0.003
660.147	0.0003
660.3323	0.0143
660.5176	0.0127
660.7028	0.0114
660.888	0.0082
661.0733	0.0094
661.2585	-0.0001
661.4436	0.0028
661.6288	0.0071
661.8139	-0.0048
661.9991	0.0025
662.1842	-0.0015
662.3693	-0.0002
662.5544	-0.0021
662.7394	0.002
662.9245	0.0019
663.1095	-0.0015
663.2945	0.0036
663.4795	0.001
663.6644	0.0113
663.8494	0.0061
664.0343	0.0047
664.2193	0.002
664.4042	-0.0006
664.589	-0.0014
664.7739	0.0013
664.9587	-0.0047
665.1436	-0.0013
665.3284	0.009
665.5132	-0.0006
665.698	0.0053
665.8827	0.013
666.0675	0.0048
666.2522	-0.0059
666.4369	0.0012
666.6216	0.0059
666.8063	0.0043
666.9909	-0.0005
667.1756	0.0063
667.3602	0.002
667.5448	0.0042
667.7294	0.0103
667.9139	0.0097
668.0985	0.0174
668.283	0.0136
668.4675	0.0063
668.652	0.0068
668.8365	0.0037
669.0209	0.0076
669.2054	0.0133
669.3898	0.01
669.5742	0.0086
669.7586	0.0133
669.943	0.0146
670.1273	0.0093
670.3117	0.0105
670.496	0.0034
670.6803	0.0114
670.8646	0.004
671.0488	0.0013
671.2331	0.0088
671.4173	0.0099
671.6015	0.0048
671.7857	0.0088
671.9699	0.0071
672.1541	0.0116
672.3382	0.0044
672.5223	0.0088
672.7064	0.0089
672.8905	0.0081
673.0746	0.0066
673.2587	-0.0015
673.4427	0.0043
673.6267	0.0162
673.8107	0.011
673.9947	0.0094
674.1787	0.0076
674.3626	-0.0012
674.5465	0.0081
674.7304	0.0077
674.9143	0.0133
675.0982	0.0083
675.2821	0.0023
675.4659	0.009
675.6497	0.0043
675.8335	0.0004
676.0173	0.0101
676.2011	0.0053
676.3849	0.0017
676.5686	0.0034
676.7523	0.0011
676.936	0.002
677.1197	0.0006
677.3034	0.0001
677.487	0.0069
677.6706	0.0001
677.8542	0.0064
678.0378	0.0032
678.2214	0.0013
678.405	0.0055
678.5885	0.0033
678.772	0.0042
678.9555	-0.0012
679.139	-0.0017
679.3225	0.0042
679.5059	0.0039
679.6894	-0.0004
679.8728	0.0004
680.0562	-0.0062
680.2395	-0.001
680.4229	0.0022
680.6062	-0.0005
680.7896	0.0068
680.9729	-0.0057
681.1562	0.0005
681.3394	0.0037
681.5227	-0.0053
681.7059	-0.0024
681.8891	0.0031
682.0723	0.0115
682.2555	0.0023
682.4387	0.001
682.6218	-0.0018
682.805	0.0124
682.9881	0.0068
683.1712	0.0011
683.3542	-0.0014
683.5373	0.0049
683.7203	0.0006
683.9034	0.0101
684.0864	0.0002
684.2694	0.0029
684.4523	0.0049
684.6353	-0.0005
684.8182	0.0047
685.0011	-0.0015
685.184	0.0048
685.3669	0.0001
685.5498	0.0112
685.7326	0.0008
685.9154	0.0017
686.0982	0.0082
686.281	0.0083
686.4638	0.0097
686.6465	0.0001
686.8293	0.0069
687.012	0.0034
687.1947	-0.0059
687.3774	0.0014
687.56	-0.0035
687.7427	0.0086
687.9253	0.002
688.1079	0.0051
688.2905	0.0117
688.4731	0.0043
688.6556	0.0049
688.8382	0.0038
689.0207	-0.004
689.2032	-0.0063
689.3857	-0.0076
689.5681	-0.0013
689.7506	-0.0091
689.933	-0.0105
690.1154	-0.0008
690.2978	0.0025
690.4802	0.0006
690.6626	-0.0128
690.8449	-0.0077
691.0272	0.0055
691.2095	-0.0097
691.3918	-0.0045
691.5741	0.0013
691.7563	0.0043
691.9386	0.0072
692.1208	-0.0034
692.303	0.0094
692.4852	0.0013
692.6673	0.0046
692.8495	0.001
693.0316	0.0058
693.2137	0.0017
693.3958	0.0049
693.5778	0.0048
693.7599	0.0007
693.9419	0.0008
694.1239	0.0025
694.3059	0.0032
694.4879	0.0086
694.6699	0.013
694.8518	0.0071
695.0337	0.0035
695.2157	0.0089
695.3975	0.0058
695.5794	0.0037
695.7613	0.0106
695.9431	0.0056
696.1249	0.003
696.3067	0.0138
696.4885	0.0134
696.6703	-0.0025
696.852	0.01
697.0337	0.0044
697.2154	0.0035
697.3971	0.0097
697.5788	0.004
697.7605	0.0028
697.9421	0.0162
698.1237	0.0067
698.3053	0.007
698.4869	-0.0016
698.6685	-0.0034
698.85	0.0023
699.0315	0.0041
699.213	0.0046
699.3945	0.0095
699.576	0.0083
699.7575	0.0023
699.9389	0.0069
700.1203	0.0016
700.3017	-0.0058
700.4831	0.0029
700.6645	0.0046
700.8458	0.0066
701.0271	0.0042
701.2084	0.0096
701.3897	0.0107
701.571	0.0131
701.7523	-0.0021
701.9335	0.0065
702.1147	0.0069
702.2959	0.0087
702.4771	0.0026
702.6583	-0.0009
702.8394	0.0066
703.0205	0.0049
703.2016	0.001
703.3827	-0.0018
703.5638	0.0094
703.7449	0.003
703.9259	0.0168
704.1069	-0.0044
704.2879	0.0032
704.4689	0.0053
704.6499	0.0066
704.8308	-0
705.0117	0.0039
705.1927	0.0046
705.3735	-0.0006
705.5544	0.0048
705.7353	-0.0021
705.9161	0.0033
706.0969	0.0013
706.2777	-0.0065
706.4585	-0.0056
706.6393	-0.0046
706.82	-0.005
707.0007	-0.0014
707.1815	0.0011
707.3621	0.0026
707.5428	0.0018
707.7235	-0.0058
707.9041	-0.0027
708.0847	-0.0024
708.2653	-0.0041
708.4459	-0.022
708.6265	0.0044
708.807	-0.0055
708.9875	-0.0024
709.168	-0.0016
709.3485	-0.0051
709.529	-0.0075
709.7095	-0.0107
709.8899	-0.0023
710.0703	-0.0116
710.2507	-0.0001
710.4311	0.0023
710.6115	0.0006
710.7918	-0.0081
710.9721	-0.0109
711.1524	-0.0083
711.3327	-0.0068
711.513	0.0108
711.6932	0.0073
711.8735	0.0072
712.0537	0.009
712.2339	-0.0014
712.4141	-0.0032
712.5942	0.0023
712.7744	0.0117
712.9545	-0.0056
713.1346	0.0002
713.3147	-0.004
713.4947	0.0009
713.6748	-0.0012
713.8548	-0.0032
714.0348	-0.0025
714.2148	-0.0039
714.3948	0.0059
714.5748	-0.0085
714.7547	0.0044
714.9346	0.0066
715.1145	0.0064
715.2944	0.0004
715.4743	0.0059
715.6541	0.0021
715.834	0.0014
716.0138	-0.0033
716.1936	-0.01
716.3733	-0.0009
716.5531	0.0059
716.7328	-0.0041
716.9126	-0.0003
717.0923	0.0038
717.2719	-0.0033
717.4516	0.0049
717.6312	-0.0029
717.8109	-0.0032
717.9905	0.0068
718.1701	-0.0052
718.3496	-0.0094
718.5292	0.0046
718.7087	0.0002
718.8882	0.0022
719.0677	0.0059
719.2472	-0.0007
719.4267	0.0058
719.6061	-0.0086
719.7856	0.0048
719.965	0.0061
720.1443	0.0053
720.3237	0.0111
720.5031	0.0083
720.6824	0.0056
720.8617	-0.0037
721.041	0.0063
721.2203	0.0058
721.3995	0.0083
721.5788	-0.0004
721.758	0.0073
721.9372	0.0026
722.1164	0.0113
722.2956	0.0071
722.4747	0.0016
722.6538	0.0019
722.8329	0.0116
723.012	0.0071
723.1911	0.0005
723.3702	0.009
723.5492	0.0039
723.7282	0.0042
723.9072	0.0072
724.0862	-0.0008
724.2652	0.0016
724.4441	0.0034
724.623	0.0012
724.8019	0.0022
724.9808	0.0009
725.1597	-0.0086
725.3385	0.0068
725.5174	0.0051
725.6962	0.0039
725.875	0.001
726.0538	0.007
726.2325	0.0082
726.4112	0.0013
726.59	-0.0037
726.7687	-0.0006
726.9474	0.0025
727.126	0.0009
727.3047	-0.0082
727.4833	-0.0005
727.6619	-0.0038
727.8405	-0.0086
728.0191	-0.0051
728.1976	0.0068
728.3762	0.0031
728.5547	0.0073
728.7332	0.0021
728.9116	-0.0034
729.0901	0.0051
729.2686	0.0001
729.447	0.0021
729.6254	0.0073
729.8038	0.0074
729.9821	-0.0018
730.1605	0.0061
730.3388	0.0105
730.5171	0.0032
730.6954	0.0027
730.8737	0.0123
731.0519	0.0144
731.2302	0.0071
731.4084	0.0172
731.5866	0.0114
731.7648	0.0062
731.9429	0.0092
732.1211	-0.0078
732.2992	-0.0012
732.4773	0.0023
732.6554	0.0009
732.8335	0.0001
733.0115	0.0036
733.1896	0.0003
733.3676	-0.0045
733.5456	0.0068
733.7235	0.0123
733.9015	-0.0063
734.0794	0.0065
734.2574	-0.0008
734.4353	0.0034
734.6131	0.0106
734.791	-0.0017
734.9689	0.0119
735.1467	0.0098
735.3245	-0.0044
735.5023	0.0011
735.68	0.0008
735.8578	0.0166
736.0355	-0.0078
736.2132	-0.0031
736.3909	-0.0032
736.5686	0.0001
736.7463	0.0093
736.9239	-0.0015
737.1015	0.0001
737.2791	0.0116
737.4567	-0.0029
737.6343	0.0023
737.8118	0.0077
737.9894	0.0041
738.1669	-0.0013
738.3444	0.0006
738.5218	0.0021
738.6993	0.0013
738.8767	-0.0038
739.0541	0.0083
739.2315	-0.0095
739.4089	0.0047
739.5863	0.0063
739.7636	0.0012
739.9409	0.0019
740.1182	0.0117
740.2955	0.0082
740.4728	-0.0012
740.65	0.0035
740.8272	0.0088
741.0044	-0.0061
741.1816	0.0032
741.3588	0.0054
741.5359	0.0076
741.7131	-0.0075
741.8902	-0.0034
742.0673	0.0029
742.2444	-0.0033
742.4214	-0.0155
742.5985	-0.0069
742.7755	-0.0052
742.9525	-0.0092
743.1295	0.0007
743.3064	0.0124
743.4834	0.0023
743.6603	0.0093
743.8372	0.0066
744.0141	0.0044
744.191	0.0072
744.3678	0.0028
744.5446	0.0109
744.7215	0.0097
744.8982	0.0038
745.075	-0.0002
745.2518	0.0035
745.4285	0.0001
745.6052	-0.007
745.7819	-0.0016
745.9586	0.0042
746.1353	0.0007
746.3119	-0.0066
746.4885	-0.0033
746.6651	-0.0021
746.8417	-0.003
747.0183	0.0008
747.1948	0.0004
747.3714	0.0023
747.5479	0.0011
747.7244	0.0007
747.9008	0.0094
748.0773	0.0117
748.2537	0.0034
748.4301	-0.0001
748.6065	0.005
748.7829	0.0008
748.9593	0.0049
749.1356	0.0063
749.3119	0.0089
749.4882	-0.0029
749.6645	0.0006
749.8408	-0.0026
750.017	-0.0084
750.1933	-0.0014
750.3695	-0.0019
750.5457	0.0014
750.7218	0.0038
750.898	-0.0006
751.0741	-0.0047
751.2502	0.006
751.4263	0.0051
751.6024	-0.003
751.7784	0.0035
751.9545	-0.0031
752.1305	0.0106
752.3065	-0.0033
752.4825	-0.001
752.6584	-0.0051
752.8344	-0.0022
753.0103	-0.0045
753.1862	-0.0009
753.3621	0.0064
753.5379	-0.0027
753.7138	0.0074
753.8896	0.0009
754.0654	0.0079
754.2412	0.0115
754.417	0.0027
754.5927	-0.0047
754.7685	0.0026
754.9442	-0.0027
755.1199	0.0132
755.2956	0.0012
755.4712	0.0128
755.6469	0.0013
755.8225	0.0078
755.9981	0.0073
756.1736	0.0072
756.3492	0.008
756.5248	0.0035
756.7003	0.005
756.8758	0.0091
757.0513	-0.0024
757.2267	-0.0031
757.4022	0.0052
757.5776	0.007
757.753	0.0103
757.9284	0.0031
758.1038	0.0104
758.2791	0.01
758.4545	-0.0049
758.6298	0.0105
758.8051	0.0009
758.9803	0.003
759.1556	0.0039
759.3308	0.0006
759.506	0.0099
759.6812	-0.0017
759.8564	0.0093
760.0316	-0.0001
760.2067	0.016
760.3819	0.015
760.557	0.0157
760.732	0.0091
760.9071	0.004
761.0821	0.0142
761.2572	0.0125
761.4322	0.0058
761.6072	0.0079
761.7821	0.0027
761.9571	0.0059
762.132	0.0069
762.3069	0.0025
762.4818	-0.0007
762.6567	0.0068
762.8316	0.0061
763.0064	0.0016
763.1812	-0.0003
763.356	-0.0038
763.5308	-0.0003
763.7055	0.0004
763.8803	-0.0043
764.055	-0.0059
764.2297	-0.0069
764.4044	0.0023
764.579	-0.0058
764.7537	-0.0133
764.9283	0.0021
765.1029	-0.0014
765.2775	0.0005
765.4521	-0.0023
765.6266	-0.0071
765.8011	-0.0018
765.9756	0.0006
766.1501	0.0161
766.3246	-0.0031
766.4991	0.0054
766.6735	0.007
766.8479	0.0015
767.0223	0.029
767.1967	0.0104
767.371	-0.0016
767.5454	-0.0005
767.7197	0.0025
767.894	0.0019
768.0683	-0.0092
768.2425	-0.0007
768.4168	0.0067
768.591	0.0083
768.7652	0.0084
768.9394	0.0027
769.1135	0.0041
769.2877	0.013
769.4618	-0.001
769.6359	0.0025
769.81	-0.0024
769.984	0.005
770.1581	-0.0015
770.3321	0.0019
770.5061	0.0021
770.6801	-0.0036
770.8541	-0.0045
771.028	-0.0017
771.202	-0.0134
771.3759	-0.0039
771.5498	-0.0088
771.7236	0.0013
771.8975	0.0008
772.0713	0.0004
772.2451	-0.0049
772.4189	0.0102
772.5927	0.0064
772.7665	0.0008
772.9402	-0.0032
773.1139	0.0006
773.2876	-0.0006
773.4613	0.0119
773.635	0.0117
773.8086	-0.0099
773.9822	0.0073
774.1558	0.0036
774.3294	-0.0054
774.503	0.009
774.6765	0.0124
774.8501	0.0105
775.0236	0.0027
775.1971	0.0234
775.3705	-0.0063
775.544	0.0083
775.7174	-0.0019
775.8908	0.0094
776.0642	0.0001
776.2376	0.0075
776.4109	-0.0148
776.5843	-0.0042
776.7576	0.0069
776.9309	0.013
777.1041	0.0091
777.2774	0.0108
777.4506	-0.007
777.6238	-0.0083
777.797	-0.002
777.9702	-0.002
778.1434	-0.0132
778.3165	-0.0194
778.4896	-0.0061
778.6627	0.0097
778.8358	-0.0013
779.0089	-0
779.1819	-0.003
779.3549	0.0168
779.5279	0.0034
779.7009	-0.009
779.8739	0.001
780.0468	0.0029
780.2197	-0.0035
780.3926	0.0031
780.5655	0.0056
780.7384	0.0007
780.9112	-0.0002
781.0841	-0.005
781.2569	0.0062
781.4297	0.0163
781.6024	0.0028
781.7752	0.0104
781.9479	0.0145
782.1206	0.0006
782.2933	-0.0091
782.466	0.0059
782.6386	0.0024
782.8113	0.0092
782.9839	-0.0001
783.1565	0.0138
783.329	-0.0022
783.5016	-0.0137
783.6741	0.0048
783.8466	-0.0097
784.0191	0.0092
784.1916	0.0023
784.3641	0.0008
784.5365	-0.0031
784.7089	-0.0115
784.8813	-0.0009
785.0537	0.0017
785.2261	-0.0015
785.3984	-0.0143
785.5707	0.0011
785.743	0.0004
785.9153	-0.011
786.0876	-0.0007
786.2598	0.0035
786.432	-0.0115
786.6042	0.0001
786.7764	-0.0079
786.9486	-0.0035
787.1207	-0.0114
787.2928	0.0081
787.4649	0.0115
787.637	0.0096
787.8091	-0.0081
787.9811	-0.0113
788.1532	-0.0119
788.3252	0.0187
788.4972	-0.0042
788.6691	0.0064
788.8411	0.0071
789.013	-0.0109
789.1849	0.0067
789.3568	-0.006
789.5287	0.0006
789.7005	-0.0202
789.8723	0.0092
790.0442	0.0026
790.2159	-0.0033
790.3877	-0.0114
790.5595	-0.0243
790.7312	-0.0053
790.9029	0.0159
791.0746	-0.0011
791.2463	-0.0034
791.4179	-0.0018
791.5896	-0.018
791.7612	-0.0066
791.9328	-0.0075
792.1044	0.0005
792.2759	-0.0205
792.4474	-0.007
792.619	0.0062
792.7905	0.0094
792.9619	-0.0076
793.1334	0.0036
793.3048	0.0163
793.4762	0.0047
793.6476	0.0009
793.819	-0.014
793.9904	0.0098
794.1617	-0.0078
794.333	-0.0076
794.5043	-0.0062
794.6756	-0.0136
794.8469	-0.0087
795.0181	-0.0034
795.1893	-0.0212
795.3605	0.0181
795.5317	-0.0141
795.7029	0.0124
795.874	0.0062
796.0452	0.0002
796.2163	-0.0075
796.3873	0.0052
796.5584	-0.0059
796.7294	0.0029
796.9005	0.0181
797.0715	0.0074
797.2425	-0.02
797.4134	0.0031
797.5844	0.0022
797.7553	-0.0043
797.9262	0.0016
798.0971	-0.0191
798.2679	-0.0156
798.4388	-0.0204
798.6096	-0.0093
798.7804	0.0106
798.9512	-0.0089
799.122	-0
799.2927	0.018
799.4635	0.01
799.6342	0.0036
799.8049	0.0008
799.9755	0.012
800.1462	0.0019
800.3168	0.0041
800.4874	-0.0048
800.658	0.0318
800.8286	0.0118
800.9991	0.0143
801.1696	0.0025
801.3402	0.0184
801.5106	0.0141
801.6811	-0.009
801.8516	0.0287
802.022	0.0079
802.1924	0.0051
802.3628	0.0041
802.5332	-0.0047
802.7035	0.0246
802.8739	0.0023
803.0442	-0
803.2145	-0.0053
803.3847	-0.0125
803.555	-0.0093
803.7252	-0.0219
803.8954	-0.0062
804.0656	-0.0194
804.2358	0.0037
804.4059	0.0176
804.5761	-0.007
804.7462	0.0048
804.9163	-0.0033
805.0864	-0.0181
805.2564	0.0016
805.4264	-0.0136
805.5965	-0.0025
805.7665	0.0047
805.9364	-0.0025
806.1064	0.0269
806.2763	-0.0062
806.4462	0.0032
806.6161	0.0103
806.786	-0.0028
806.9559	0.0096
807.1257	-0.0062
807.2955	0.0027
807.4653	-0.0135
807.6351	-0.0061
807.8048	0.0021
807.9746	-0.0035
808.1443	0.0014
808.314	0.001
808.4837	0.0007
808.6533	-0.0031
808.8229	0.0098
808.9926	-0.0027
809.1622	0.0082
809.3317	-0.0138
809.5013	-0.0032
809.6708	0.0039
809.8403	0.0145
810.0098	-0.0043
810.1793	-0.0035
810.3488	0.0061
810.5182	-0.019
810.6876	0.0064
810.857	-0.0162
811.0264	0.023
811.1958	0.0046
811.3651	0.0018
811.5344	-0.0133
811.7037	-0.0039
811.873	-0.0011
812.0422	-0.0101
812.2115	0.0087
812.3807	-0.0143
812.5499	0.0046
812.7191	0.007
812.8882	0.0043
813.0574	-0.013
813.2265	-0.0022
813.3956	0.0104
813.5646	-0.0069
813.7337	-0.0081
813.9027	-0.008
814.0718	0.0217
814.2407	0.0117
814.4097	0.0076
814.5787	-0.0064
814.7476	-0.0037
814.9165	0.0144
815.0854	-0.0056
815.2543	-0.0219
815.4232	-0.0087
815.592	0.0043
815.7608	-0.0047
815.9296	0.0021
816.0984	0.0306
816.2671	-0.018
816.4359	-0.009
816.6046	-0.0172
816.7733	0.0108
816.942	-0.0081
817.1106	-0.0027
817.2793	0.0079
817.4479	-0.0073
817.6165	-0
817.785	-0.0047
817.9536	-0.022
818.1221	0.0121
818.2906	0.0277
818.4591	-0.0052
818.6276	-0.0067
818.7961	0.0179
818.9645	0.0057
819.1329	0.0233
819.3013	0.0301
819.4697	0.0229
819.638	0.0007
819.8064	0.0238
819.9747	0.0077
820.143	-0.0117
820.3113	-0.0147
820.4795	0.0095
820.6477	-0.0175
820.816	0.0017
820.9842	0.0214
821.1523	0.0095
821.3205	-0.0025
821.4886	-0.005
821.6567	-0.0025
821.8248	0.0109
821.9929	0.001
822.1609	0.0026
822.329	0.0362
822.497	0.0197
822.665	-0.0121
822.833	-0.0328
823.0009	0.0196
823.1688	0.0026
823.3367	0.0132
823.5046	0.0563
823.6725	0.0481
823.8404	0.0124
824.0082	0.0083
824.176	0.0323
824.3438	0.0258
824.5116	-0.014
824.6793	0.0172
824.847	0.0008
825.0147	-0.0084
825.1824	-0.0081
825.3501	-0.0082
825.5177	-0.0035
825.6854	0.0013
825.853	-0.0196
826.0206	-0.0129
826.1881	0.0105
826.3557	-0.0301
826.5232	0.0039
826.6907	-0.0371
826.8582	-0.0009
827.0257	-0.0154
827.1931	0.018
827.3605	-0.0031
827.528	0.0205
827.6953	-0.0523
827.8627	-0.0051
828.03	0.0445
828.1974	-0.0079
828.3647	-0.028
828.532	0.0065
828.6992	-0.0069
828.8665	-0.0024
829.0337	-0.0231
829.2009	0.0101
829.3681	0.0046
829.5352	0.0119
829.7024	-0.0331
829.8695	-0.016
830.0366	0.0386
830.2037	-0.0046
830.3707	0.0339
830.5378	-0
830.7048	0.0049
830.8718	0.0172
831.0388	-0.0119
831.2057	0.0059
831.3727	-0.001
831.5396	-0.0544
831.7065	-0.0029
831.8734	-0.0022
832.0402	-0.01
832.2071	-0.0017
832.3739	-0.0089
832.5407	-0.0042
832.7075	-0.0195
832.8742	-0.0061
833.041	-0.0013
833.2077	-0.0036
833.3744	0.0243
833.541	-0.0142
833.7077	-0.0284
833.8743	-0.0358
834.0409	-0.003
834.2075	0.0038
834.3741	-0.0037
834.5407	-0.0348
834.7072	0.0019
834.8737	-0.0143
835.0402	-0.0355
835.2067	0.0224
835.3731	0.0107
835.5395	0.0064
835.706	0.0232
835.8723	-0.0238
836.0387	0.0631
836.2051	-0.011
836.3714	0.0007
836.5377	-0.0021
836.704	-0.0175
836.8703	0.0303
837.0365	-0.0072
837.2027	-0.0632
837.3689	0.0359
837.5351	-0.0198
837.7013	-0.0158
837.8674	-0.0488
838.0335	-0.0321
838.1997	-0.0191
838.3657	-0.0379
838.5318	-0.0227
838.6978	0.0087
838.8639	0.0323
839.0299	0.0266
839.1958	-0.0236
839.3618	-0.0201
839.5277	-0.0184
839.6937	-0.0106
839.8596	-0.0063
840.0254	0.0025
840.1913	0.022
840.3571	0.0375
840.523	-0.048
840.6888	-0.0403
840.8545	-0.0048
841.0203	-0.0026
841.186	0.0202
841.3517	0.0268
841.5174	0.0142
841.6831	0.0292
841.8488	0.0082
842.0144	0.013
842.18	-0.0026
842.3456	-0.036
842.5112	-0.0169
842.6767	-0.0322
842.8422	-0.0339
843.0077	-0.0873
843.1732	-0.0046
843.3387	-0.0553
843.5042	-0.0475
843.6696	-0.0269
843.835	-0.0362
844.0004	0.0493
844.1657	-0
844.3311	-0.0877
844.4964	-0.0078
844.6617	-0.0301
844.827	-0.0137
844.9923	-0.0113
845.1575	-0.031
845.3227	-0.0572
845.4879	0.0068
845.6531	-0.0849
845.8183	-0.0761
845.9834	-0.0301
846.1485	-0.0202
846.3136	-0.0446
846.4787	-0.0729
846.6438	0.0183
846.8088	-0.0558
846.9738	-0.1285
847.1388	-0.0098
847.3038	-0.0812
847.4687	-0.157
847.6337	0.0065
847.7986	-0.0169
847.9635	-0.0257
848.1284	0.0808
848.2932	0.0739
848.458	-0.0375
848.6228	0.0287
848.7876	0.0071
848.9524	-0.1104
849.1172	-0.0826
849.2819	0.0099
849.4466	-0.1061
849.6113	-0.0809
849.7759	-0.002
849.9406	-0.1033
850.1052	0.0346
850.2698	-0.0293
850.4344	-0.05
850.599	-0.0575
850.7635	0.0808
850.928	-0.0493
851.0925	-0.0674
851.257	0.0036
851.4215	-0.0565
851.5859	-0.0743
851.7503	0.0046
851.9147	-0.0423
852.0791	-0.0683
852.2434	-0.1272
852.4078	0.0472
852.5721	0.0335
852.7364	0.0252
852.9007	-0.3118
853.0649	0.018
853.2291	0.0791
853.3934	-0.0181
853.5575	0.0102
853.7217	-0.0782
853.8859	-0.1704
854.05	0.0189
854.2141	-0.0252
854.3782	-0.0483
854.5423	-0.0052
854.7063	0.0746
854.8703	-0.0617
855.0343	-0.2197
855.1983	-0.0982
855.3623	0.0907
855.5262	-0.024
855.6901	-0.115
855.854	-0.0451
856.0179	0.0517
856.1818	0.0088
856.3456	-0.0199
856.5094	-0.1739
856.6732	-0.2099
856.837	-0.1496
857.0008	0.0802
857.1645	-0.1233
857.3282	-0.1848
857.4919	0.0297
857.6556	-0.1175
857.8192	0.0377
857.9828	-0.0985
858.1465	-0.142
858.31	-0.1414
858.4736	-0.079
858.6372	-0.2688
858.8007	-0.126
858.9642	0.0638
859.1277	-0.0549
859.2911	0.0141
859.4546	0.0482
859.618	-0.3308
859.7814	0.0034
859.9448	-0.0453
860.1081	-0.0451
860.2715	0.0725
860.4348	-0.1599
860.5981	0.0552
860.7614	0.0822
860.9246	-0.2724
861.0879	-0.1225
861.2511	-0.0734
861.4143	-0.1501
861.5774	0.0368
861.7406	-0.1334
861.9037	-0.1147
862.0668	-0.079
862.2299	0.0456
862.393	-0.6359
862.556	-0.005
862.7191	-0.3338
862.8821	-0.0694
863.0451	-0.1356
863.208	-0.1559
863.371	-0.0662
863.5339	-0.0535
863.6968	-0.0193
863.8597	-0.0731
864.0225	-0.066
864.1854	-0.0667
864.3482	-0.106
864.511	0.3227
864.6737	0.056
864.8365	0.3815
864.9992	-0.091
865.1619	-0.111
865.3246	-0.0541
865.4873	0.0523
865.65	-0.1648
865.8126	0.0327
865.9752	0.1866
866.1378	-0.221
866.3004	0.2851
866.4629	0.1876
866.6254	-0.193
866.7879	-0.1173
866.9504	-0.4201
867.1129	-0
867.2753	-0.0708
867.4377	0.112
867.6001	-0.4807
867.7625	0.1686
867.9249	-0.6087
868.0872	-0.0931
868.2495	-0.0457
868.4118	0.0665
868.5741	-0.6322
868.7363	0.6748
868.8986	-0.4581
869.0608	-0.1943
869.223	0.3258
869.3851	-0
869.5473	-0
869.7094	0.1937
869.8715	0.372
870.0336	-0.7989
870.1957	-0.6756
870.3577	-1.326
870.5197	-0.2498
870.6817	-0.2889
870.8437	0.2323
871.0057	-0.509
871.1676	0.294
871.3295	-0.3759
871.4914	-0
871.6533	-0.2729
871.8151	-0.2411
871.977	-0
872.1388	-0
872.3006	-0
872.4623	-0
872.6241	-0
872.7858	-0.0627
872.9475	-0.1529
873.1092	-0.0992
873.2709	-0.1672
873.4325	-0.099
873.5941	-0.5972
873.7557	-0
873.9173	-0
874.0789	-0
874.2404	-0.3794
874.4019	-0.1626
874.5634	-0.3704
874.7249	0.0093
874.8863	0.0722
875.0478	-0
875.2092	-0.3505
875.3706	0.099
875.5319	-0.8907
875.6933	-0
875.8546	0.2754
876.0159	0.8451
876.1772	1.0076
876.3385	-0
876.4997	0.0802
876.6609	-0.4889
876.8221	-0
876.9833	0.1256
877.1445	0.1648
877.3056	0.0778
877.4667	-0.4481
877.6278	-0
877.7889	-0.6195
877.9499	-0
878.111	-0
878.272	-0
878.433	-0
878.5939	0.1916
878.7549	0.0934
878.9158	-1.0042
879.0767	0.8911
879.2376	-0
879.3984	1.2587
879.5593	-0
879.7201	-0.1988
879.8809	-0.3936
880.0417	0.8451
880.2024	0.4982
880.3632	-1.0099
880.5239	0.3325
880.6846	-0
880.8452	-2.6243
881.0059	-1.3054
881.1665	-0
881.3271	-0
881.4877	-0
881.6483	-0.2262
881.8088	-0.168
881.9693	0.594
882.1298	0.594
882.2903	0.594
