Data from MonoPyChalIsomerACN10uM440nmA_Absorbance_15-27-15-994.txt Node
Date: Fri Jul 05 15:27:15 BST 2024
User: LASERRRRR
Spectrometer: FLMT03099
Trigger mode: 0
Integration Time (sec): 1.000000E-1
Scans to average: 1
Electric dark correction enabled: true
Nonlinearity correction enabled: false
Boxcar width: 0
XAxis mode: Wavelengths
Number of Pixels in Spectrum: 3648
>>>>>Begin Spectral Data<<<<<
179.3399	-0.3755
179.5586	-0.3755
179.7771	-0.3755
179.9957	0.6094
180.2143	0.0173
180.4329	0.4155
180.6514	-0
180.8699	-0
181.0885	-0.0856
181.307	-0.0967
181.5255	-0.7212
181.744	-0.6473
181.9625	-0
182.181	-0.7999
182.3994	0.8509
182.6179	0.1085
182.8363	0.475
183.0547	-0.1549
183.2732	0.0766
183.4916	-0.0066
183.71	0.1671
183.9284	0.3809
184.1467	-0.0535
184.3651	0.0321
184.5835	-0.1494
184.8018	-0.0611
185.0201	0.0656
185.2385	0.0129
185.4568	0.5904
185.6751	0.2359
185.8934	0.5965
186.1117	0.029
186.3299	0.0018
186.5482	0.1702
186.7664	0.0072
186.9847	0.2101
187.2029	0.0883
187.4211	0.2147
187.6393	0.3748
187.8575	0.0276
188.0757	0.4082
188.2939	0.0872
188.512	0.0377
188.7302	-0.1659
188.9483	0.0958
189.1665	0.3036
189.3846	-0.126
189.6027	0.3476
189.8208	0.5682
190.0389	0.038
190.257	0.1328
190.475	0.2365
190.6931	0.5403
190.9111	0.2808
191.1292	0.1711
191.3472	0.3999
191.5652	0.5438
191.7832	0.1597
192.0012	0.5087
192.2192	0.5115
192.4371	0.3271
192.6551	0.2905
192.873	0.3957
193.091	0.4266
193.3089	0.4711
193.5268	0.5065
193.7447	0.5892
193.9626	0.5677
194.1805	0.5956
194.3984	0.8812
194.6162	0.4352
194.8341	0.5524
195.0519	0.5395
195.2697	0.721
195.4875	0.4918
195.7054	0.5103
195.9231	0.441
196.1409	0.595
196.3587	0.6193
196.5765	0.622
196.7942	0.5996
197.012	0.4709
197.2297	0.589
197.4474	0.8016
197.6651	0.751
197.8828	0.604
198.1005	0.5989
198.3182	0.6921
198.5358	0.9908
198.7535	0.6072
198.9711	0.5831
199.1888	0.5775
199.4064	0.7783
199.624	0.6578
199.8416	0.6177
200.0592	0.7226
200.2767	0.5831
200.4943	0.6963
200.7119	0.8033
200.9294	0.6618
201.1469	0.539
201.3645	0.6481
201.582	0.5656
201.7995	0.7527
202.017	0.6695
202.2344	0.5871
202.4519	0.7455
202.6694	0.6638
202.8868	0.6623
203.1042	0.7705
203.3217	0.7997
203.5391	0.695
203.7565	0.6272
203.9739	0.6969
204.1913	0.6455
204.4086	0.6248
204.626	0.6714
204.8433	0.6791
205.0607	0.6307
205.278	0.7516
205.4953	0.6471
205.7126	0.6886
205.9299	0.6551
206.1472	0.7275
206.3644	0.659
206.5817	0.7282
206.7989	0.7834
207.0162	0.6469
207.2334	0.7422
207.4506	0.6688
207.6678	0.6197
207.885	0.6208
208.1022	0.6925
208.3194	0.6604
208.5365	0.7138
208.7537	0.6577
208.9708	0.5743
209.1879	0.6033
209.405	0.683
209.6222	0.7771
209.8392	0.6507
210.0563	0.6313
210.2734	0.654
210.4905	0.6513
210.7075	0.702
210.9245	0.6497
211.1416	0.6979
211.3586	0.6013
211.5756	0.6315
211.7926	0.6551
212.0096	0.607
212.2265	0.5816
212.4435	0.5543
212.6604	0.6256
212.8774	0.6071
213.0943	0.6136
213.3112	0.5572
213.5281	0.4979
213.745	0.5134
213.9619	0.5306
214.1788	0.4662
214.3956	0.4628
214.6125	0.4752
214.8293	0.4317
215.0461	0.488
215.2629	0.4881
215.4798	0.4885
215.6965	0.4784
215.9133	0.47
216.1301	0.4123
216.3469	0.4388
216.5636	0.3979
216.7803	0.3819
216.9971	0.4283
217.2138	0.3661
217.4305	0.3704
217.6472	0.3759
217.8639	0.3595
218.0805	0.3536
218.2972	0.3343
218.5138	0.3025
218.7305	0.3147
218.9471	0.3203
219.1637	0.3061
219.3803	0.2803
219.5969	0.2805
219.8135	0.2514
220.0301	0.2588
220.2466	0.2561
220.4632	0.2516
220.6797	0.2431
220.8962	0.2295
221.1127	0.2532
221.3292	0.2476
221.5457	0.2288
221.7622	0.2182
221.9787	0.263
222.1951	0.2616
222.4116	0.2517
222.628	0.2498
222.8444	0.2494
223.0608	0.246
223.2772	0.2477
223.4936	0.2602
223.71	0.2506
223.9264	0.2714
224.1427	0.2595
224.3591	0.2348
224.5754	0.2698
224.7917	0.2643
225.008	0.2425
225.2243	0.2521
225.4406	0.3027
225.6569	0.2609
225.8732	0.2523
226.0894	0.2527
226.3057	0.2488
226.5219	0.2858
226.7381	0.275
226.9543	0.2662
227.1705	0.2739
227.3867	0.292
227.6029	0.294
227.8191	0.2765
228.0352	0.2884
228.2513	0.3015
228.4675	0.271
228.6836	0.2945
228.8997	0.2925
229.1158	0.2949
229.3319	0.3038
229.548	0.3109
229.764	0.3265
229.9801	0.3271
230.1961	0.312
230.4121	0.3254
230.6282	0.3156
230.8442	0.3018
231.0602	0.349
231.2761	0.3362
231.4921	0.3453
231.7081	0.3494
231.924	0.3537
232.14	0.3477
232.3559	0.3109
232.5718	0.368
232.7877	0.3518
233.0036	0.3237
233.2195	0.3647
233.4353	0.3459
233.6512	0.3639
233.867	0.3795
234.0829	0.3672
234.2987	0.3616
234.5145	0.3673
234.7303	0.3676
234.9461	0.388
235.1619	0.3936
235.3776	0.3765
235.5934	0.395
235.8091	0.3598
236.0249	0.3769
236.2406	0.3794
236.4563	0.3805
236.672	0.3737
236.8877	0.3881
237.1034	0.3841
237.319	0.3796
237.5347	0.3957
237.7503	0.3909
237.966	0.401
238.1816	0.3984
238.3972	0.4084
238.6128	0.3831
238.8284	0.4268
239.0439	0.4031
239.2595	0.406
239.475	0.4178
239.6906	0.4202
239.9061	0.3848
240.1216	0.4032
240.3371	0.3939
240.5526	0.404
240.7681	0.41
240.9836	0.369
241.199	0.4123
241.4145	0.3803
241.6299	0.377
241.8453	0.3781
242.0607	0.3767
242.2761	0.365
242.4915	0.3747
242.7069	0.3749
242.9223	0.3613
243.1376	0.3438
243.353	0.3402
243.5683	0.3309
243.7836	0.3356
243.9989	0.3312
244.2142	0.3026
244.4295	0.3212
244.6448	0.3171
244.86	0.2946
245.0753	0.2853
245.2905	0.2961
245.5057	0.278
245.721	0.2824
245.9362	0.2715
246.1514	0.2795
246.3665	0.2592
246.5817	0.258
246.7969	0.256
247.012	0.2396
247.2271	0.2342
247.4423	0.2416
247.6574	0.2448
247.8725	0.2369
248.0876	0.2346
248.3026	0.223
248.5177	0.2108
248.7328	0.2051
248.9478	0.2098
249.1628	0.2083
249.3779	0.2204
249.5929	0.1921
249.8079	0.2199
250.0228	0.1957
250.2378	0.2028
250.4528	0.2038
250.6677	0.1869
250.8827	0.1904
251.0976	0.196
251.3125	0.1884
251.5274	0.1734
251.7423	0.1838
251.9572	0.186
252.172	0.178
252.3869	0.185
252.6017	0.1718
252.8166	0.1699
253.0314	0.1678
253.2462	0.1644
253.461	0.1722
253.6758	0.1743
253.8906	0.1738
254.1053	0.1652
254.3201	0.1783
254.5348	0.1772
254.7496	0.169
254.9643	0.1685
255.179	0.1735
255.3937	0.1726
255.6083	0.1838
255.823	0.1883
256.0377	0.1645
256.2523	0.1676
256.467	0.1591
256.6816	0.1737
256.8962	0.1709
257.1108	0.152
257.3254	0.1792
257.54	0.1654
257.7545	0.1645
257.9691	0.177
258.1836	0.1658
258.3981	0.1867
258.6127	0.1714
258.8272	0.1596
259.0417	0.1612
259.2561	0.1667
259.4706	0.1757
259.6851	0.169
259.8995	0.1601
260.114	0.1637
260.3284	0.1596
260.5428	0.158
260.7572	0.1736
260.9716	0.1671
261.186	0.159
261.4003	0.1607
261.6147	0.1661
261.829	0.1684
262.0433	0.1698
262.2577	0.1684
262.472	0.1715
262.6863	0.1541
262.9005	0.1628
263.1148	0.1743
263.3291	0.1404
263.5433	0.1654
263.7576	0.1638
263.9718	0.1537
264.186	0.1613
264.4002	0.1598
264.6144	0.1595
264.8286	0.1673
265.0427	0.1677
265.2569	0.1551
265.471	0.1579
265.6851	0.1564
265.8993	0.1653
266.1134	0.1604
266.3275	0.1573
266.5415	0.1514
266.7556	0.1667
266.9697	0.1699
267.1837	0.1703
267.3978	0.1568
267.6118	0.1757
267.8258	0.1767
268.0398	0.1635
268.2538	0.1661
268.4677	0.1637
268.6817	0.1616
268.8957	0.166
269.1096	0.1514
269.3235	0.1713
269.5374	0.1554
269.7514	0.1509
269.9652	0.1605
270.1791	0.149
270.393	0.1447
270.6068	0.1543
270.8207	0.1586
271.0345	0.1321
271.2483	0.1584
271.4622	0.1461
271.676	0.1564
271.8897	0.1499
272.1035	0.139
272.3173	0.1425
272.531	0.1516
272.7448	0.139
272.9585	0.149
273.1722	0.1434
273.3859	0.142
273.5996	0.1414
273.8133	0.1544
274.0269	0.1408
274.2406	0.1418
274.4542	0.1429
274.6679	0.1269
274.8815	0.1498
275.0951	0.1605
275.3087	0.1579
275.5223	0.1504
275.7358	0.1539
275.9494	0.1465
276.1629	0.1531
276.3765	0.154
276.59	0.1418
276.8035	0.1365
277.017	0.1418
277.2305	0.1399
277.444	0.1479
277.6574	0.137
277.8709	0.1418
278.0843	0.134
278.2978	0.1524
278.5112	0.1382
278.7246	0.1421
278.938	0.1564
279.1513	0.1556
279.3647	0.1596
279.5781	0.1443
279.7914	0.1532
280.0047	0.1628
280.2181	0.1581
280.4314	0.1552
280.6447	0.1488
280.8579	0.1519
281.0712	0.1514
281.2845	0.1594
281.4977	0.1484
281.711	0.1483
281.9242	0.1565
282.1374	0.1537
282.3506	0.1458
282.5638	0.1565
282.7769	0.1551
282.9901	0.1363
283.2033	0.1585
283.4164	0.1647
283.6295	0.1457
283.8426	0.1485
284.0557	0.1584
284.2688	0.1455
284.4819	0.1672
284.695	0.1465
284.908	0.16
285.1211	0.1541
285.3341	0.1614
285.5471	0.1697
285.7601	0.1713
285.9731	0.1514
286.1861	0.1456
286.3991	0.155
286.612	0.1702
286.825	0.1558
287.0379	0.1639
287.2508	0.1597
287.4637	0.1619
287.6766	0.1568
287.8895	0.165
288.1024	0.1839
288.3152	0.1631
288.5281	0.1465
288.7409	0.1614
288.9538	0.1533
289.1666	0.1459
289.3794	0.15
289.5922	0.1591
289.8049	0.1682
290.0177	0.1616
290.2304	0.1602
290.4432	0.1557
290.6559	0.165
290.8686	0.1508
291.0813	0.1577
291.294	0.1628
291.5067	0.1674
291.7194	0.1613
291.932	0.1695
292.1447	0.1507
292.3573	0.1495
292.5699	0.1577
292.7825	0.1603
292.9951	0.1461
293.2077	0.1621
293.4203	0.1639
293.6328	0.1579
293.8454	0.1803
294.0579	0.1507
294.2704	0.1536
294.4829	0.1573
294.6954	0.1656
294.9079	0.156
295.1204	0.1643
295.3328	0.1676
295.5453	0.1664
295.7577	0.1532
295.9701	0.1491
296.1825	0.1607
296.3949	0.1537
296.6073	0.1502
296.8197	0.1593
297.0321	0.16
297.2444	0.1475
297.4567	0.163
297.6691	0.1589
297.8814	0.1457
298.0937	0.1587
298.306	0.1628
298.5182	0.1546
298.7305	0.1596
298.9428	0.152
299.155	0.1545
299.3672	0.154
299.5794	0.1627
299.7916	0.1639
300.0038	0.1533
300.216	0.1595
300.4282	0.1694
300.6403	0.1526
300.8525	0.1622
301.0646	0.1498
301.2767	0.1611
301.4888	0.1466
301.7009	0.1562
301.913	0.1509
302.125	0.1588
302.3371	0.1571
302.5491	0.1564
302.7612	0.1667
302.9732	0.157
303.1852	0.1679
303.3972	0.1548
303.6092	0.1619
303.8211	0.1487
304.0331	0.1492
304.245	0.1496
304.457	0.1423
304.6689	0.1581
304.8808	0.1581
305.0927	0.1539
305.3046	0.1527
305.5164	0.159
305.7283	0.1453
305.9401	0.1532
306.152	0.1435
306.3638	0.1544
306.5756	0.1361
306.7874	0.1414
306.9992	0.153
307.2109	0.1314
307.4227	0.1241
307.6344	0.1283
307.8462	0.1341
308.0579	0.1298
308.2696	0.1342
308.4813	0.1248
308.693	0.1371
308.9046	0.1289
309.1163	0.128
309.328	0.1182
309.5396	0.1185
309.7512	0.1269
309.9628	0.1194
310.1744	0.1187
310.386	0.1306
310.5976	0.12
310.8091	0.1215
311.0207	0.1197
311.2322	0.1162
311.4437	0.1105
311.6552	0.1087
311.8667	0.1173
312.0782	0.0965
312.2897	0.1031
312.5012	0.1144
312.7126	0.0935
312.924	0.1075
313.1355	0.1043
313.3469	0.1035
313.5583	0.1013
313.7696	0.1038
313.981	0.1082
314.1924	0.0942
314.4037	0.0973
314.6151	0.1054
314.8264	0.0877
315.0377	0.1042
315.249	0.1031
315.4603	0.1112
315.6716	0.1121
315.8828	0.0938
316.0941	0.1022
316.3053	0.1016
316.5165	0.0981
316.7277	0.0873
316.9389	0.1122
317.1501	0.1019
317.3613	0.1007
317.5724	0.0873
317.7836	0.1067
317.9947	0.0963
318.2058	0.094
318.417	0.0902
318.6281	0.0852
318.8391	0.0962
319.0502	0.1005
319.2613	0.1047
319.4723	0.0986
319.6834	0.0958
319.8944	0.0921
320.1054	0.0977
320.3164	0.0984
320.5274	0.1008
320.7383	0.1005
320.9493	0.103
321.1602	0.113
321.3712	0.0829
321.5821	0.0977
321.793	0.099
322.0039	0.0853
322.2148	0.0886
322.4257	0.0997
322.6365	0.1168
322.8474	0.1118
323.0582	0.0973
323.269	0.0987
323.4798	0.1104
323.6906	0.1075
323.9014	0.1057
324.1122	0.102
324.3229	0.0905
324.5337	0.0957
324.7444	0.092
324.9551	0.1057
325.1658	0.1104
325.3765	0.1105
325.5872	0.0891
325.7979	0.1078
326.0085	0.1117
326.2192	0.1132
326.4298	0.1082
326.6404	0.0881
326.851	0.102
327.0616	0.1002
327.2722	0.11
327.4828	0.1072
327.6933	0.1054
327.9039	0.1051
328.1144	0.1102
328.3249	0.0973
328.5354	0.1029
328.7459	0.1043
328.9564	0.1068
329.1669	0.1006
329.3773	0.0976
329.5878	0.1107
329.7982	0.1042
330.0086	0.1102
330.219	0.1076
330.4294	0.1056
330.6398	0.1054
330.8502	0.1074
331.0605	0.1022
331.2708	0.0947
331.4812	0.1126
331.6915	0.1074
331.9018	0.1148
332.1121	0.0988
332.3224	0.1012
332.5326	0.1084
332.7429	0.0979
332.9531	0.119
333.1633	0.1037
333.3735	0.107
333.5837	0.1019
333.7939	0.1088
334.0041	0.1206
334.2143	0.1229
334.4244	0.1034
334.6346	0.0973
334.8447	0.1232
335.0548	0.1105
335.2649	0.1029
335.475	0.1168
335.685	0.0933
335.8951	0.12
336.1051	0.1192
336.3152	0.1168
336.5252	0.102
336.7352	0.1147
336.9452	0.1125
337.1552	0.1157
337.3652	0.1035
337.5751	0.1115
337.7851	0.1201
337.995	0.102
338.2049	0.1147
338.4148	0.1169
338.6247	0.1093
338.8346	0.1131
339.0445	0.1097
339.2543	0.1168
339.4642	0.114
339.674	0.1131
339.8838	0.1111
340.0936	0.1014
340.3034	0.1248
340.5132	0.1123
340.7229	0.1109
340.9327	0.1128
341.1424	0.1172
341.3522	0.1317
341.5619	0.1323
341.7716	0.1262
341.9813	0.1246
342.1909	0.1278
342.4006	0.1232
342.6102	0.1286
342.8199	0.1264
343.0295	0.1268
343.2391	0.1234
343.4487	0.1329
343.6583	0.1258
343.8679	0.1226
344.0774	0.1304
344.287	0.1268
344.4965	0.1125
344.706	0.1334
344.9155	0.1306
345.125	0.1239
345.3345	0.1286
345.544	0.1275
345.7534	0.1268
345.9629	0.1309
346.1723	0.1256
346.3817	0.1337
346.5911	0.126
346.8005	0.1284
347.0099	0.1214
347.2193	0.1377
347.4286	0.1242
347.638	0.1296
347.8473	0.1342
348.0566	0.1326
348.2659	0.1265
348.4752	0.1304
348.6845	0.1309
348.8937	0.1191
349.103	0.1499
349.3122	0.1231
349.5214	0.1332
349.7306	0.1324
349.9398	0.133
350.149	0.1391
350.3582	0.1282
350.5674	0.1475
350.7765	0.1481
350.9856	0.1445
351.1948	0.1314
351.4039	0.1415
351.613	0.1337
351.822	0.1394
352.0311	0.1526
352.2402	0.1535
352.4492	0.1534
352.6582	0.1452
352.8672	0.1467
353.0762	0.1526
353.2852	0.1427
353.4942	0.1487
353.7032	0.1499
353.9121	0.1592
354.1211	0.1395
354.33	0.1434
354.5389	0.1471
354.7478	0.1593
354.9567	0.1374
355.1655	0.1361
355.3744	0.1548
355.5833	0.1656
355.7921	0.1655
356.0009	0.1625
356.2097	0.1665
356.4185	0.1691
356.6273	0.1538
356.8361	0.1649
357.0448	0.1623
357.2536	0.1539
357.4623	0.1517
357.671	0.1724
357.8797	0.1643
358.0884	0.1609
358.2971	0.1567
358.5057	0.161
358.7144	0.1828
358.923	0.1698
359.1316	0.1631
359.3402	0.1705
359.5488	0.1673
359.7574	0.1597
359.966	0.1596
360.1746	0.1811
360.3831	0.1751
360.5916	0.1889
360.8002	0.1711
361.0087	0.18
361.2172	0.186
361.4256	0.1869
361.6341	0.1909
361.8426	0.1727
362.051	0.1802
362.2594	0.1722
362.4678	0.1705
362.6762	0.2028
362.8846	0.1702
363.093	0.1814
363.3014	0.1828
363.5097	0.1723
363.718	0.1849
363.9264	0.1697
364.1347	0.1811
364.343	0.1799
364.5513	0.188
364.7595	0.2054
364.9678	0.1811
365.176	0.1899
365.3842	0.1874
365.5925	0.1939
365.8007	0.1928
366.0089	0.1779
366.217	0.181
366.4252	0.1974
366.6333	0.2023
366.8415	0.2009
367.0496	0.1825
367.2577	0.2114
367.4658	0.2075
367.6739	0.2091
367.882	0.2055
368.09	0.1934
368.2981	0.2043
368.5061	0.1978
368.7141	0.1914
368.9221	0.2041
369.1301	0.2088
369.3381	0.2079
369.5461	0.1973
369.754	0.2215
369.962	0.213
370.1699	0.2148
370.3778	0.2158
370.5857	0.2043
370.7936	0.2244
371.0015	0.2015
371.2093	0.2057
371.4172	0.2258
371.625	0.2114
371.8328	0.2038
372.0406	0.2026
372.2484	0.2158
372.4562	0.2203
372.664	0.2043
372.8717	0.2341
373.0795	0.1987
373.2872	0.2163
373.4949	0.2098
373.7026	0.2325
373.9103	0.2251
374.118	0.2282
374.3256	0.2261
374.5333	0.211
374.7409	0.2273
374.9485	0.2275
375.1561	0.2287
375.3637	0.2275
375.5713	0.2334
375.7789	0.2343
375.9864	0.2301
376.194	0.2244
376.4015	0.253
376.609	0.2339
376.8165	0.2354
377.024	0.2227
377.2315	0.2253
377.4389	0.2553
377.6464	0.2305
377.8538	0.2317
378.0612	0.2221
378.2686	0.2338
378.476	0.2504
378.6834	0.2257
378.8908	0.2496
379.0981	0.2505
379.3055	0.2297
379.5128	0.2439
379.7201	0.2302
379.9274	0.2282
380.1347	0.2438
380.342	0.2356
380.5492	0.2358
380.7565	0.2444
380.9637	0.2279
381.1709	0.2378
381.3781	0.2113
381.5853	0.2507
381.7925	0.2251
381.9997	0.2421
382.2068	0.2516
382.4139	0.2502
382.6211	0.2191
382.8282	0.2413
383.0353	0.2414
383.2424	0.2403
383.4494	0.2409
383.6565	0.2532
383.8635	0.2377
384.0706	0.2375
384.2776	0.2446
384.4846	0.2326
384.6916	0.2451
384.8986	0.2477
385.1055	0.2486
385.3125	0.244
385.5194	0.2242
385.7263	0.2374
385.9333	0.2553
386.1402	0.2425
386.347	0.2451
386.5539	0.2575
386.7608	0.2562
386.9676	0.2199
387.1744	0.2338
387.3813	0.2114
387.5881	0.2435
387.7948	0.2381
388.0016	0.2349
388.2084	0.2493
388.4151	0.2272
388.6219	0.2521
388.8286	0.2281
389.0353	0.2519
389.242	0.2497
389.4487	0.2473
389.6553	0.2358
389.862	0.209
390.0686	0.2432
390.2753	0.2359
390.4819	0.2465
390.6885	0.2241
390.8951	0.2411
391.1016	0.2387
391.3082	0.2249
391.5147	0.247
391.7213	0.2362
391.9278	0.2121
392.1343	0.2254
392.3408	0.2188
392.5473	0.2278
392.7537	0.2282
392.9602	0.214
393.1666	0.2295
393.373	0.2194
393.5794	0.219
393.7858	0.2182
393.9922	0.2084
394.1986	0.214
394.4049	0.2168
394.6113	0.2098
394.8176	0.2126
395.0239	0.201
395.2302	0.214
395.4365	0.2065
395.6428	0.2111
395.8491	0.211
396.0553	0.22
396.2615	0.2131
396.4678	0.2151
396.674	0.189
396.8802	0.2023
397.0863	0.2222
397.2925	0.1987
397.4987	0.1982
397.7048	0.2063
397.9109	0.2135
398.117	0.1986
398.3231	0.1912
398.5292	0.1921
398.7353	0.2134
398.9413	0.2068
399.1474	0.1963
399.3534	0.2086
399.5594	0.1753
399.7654	0.209
399.9714	0.2131
400.1774	0.1964
400.3833	0.1882
400.5893	0.2016
400.7952	0.2123
401.0011	0.2114
401.207	0.2146
401.4129	0.204
401.6188	0.2111
401.8247	0.2138
402.0305	0.1993
402.2364	0.2023
402.4422	0.2034
402.648	0.2216
402.8538	0.203
403.0596	0.1972
403.2654	0.2182
403.4711	0.174
403.6768	0.2201
403.8826	0.207
404.0883	0.1888
404.294	0.2056
404.4997	0.1802
404.7054	0.1911
404.911	0.1972
405.1167	0.195
405.3223	0.2004
405.5279	0.2043
405.7335	0.206
405.9391	0.2171
406.1447	0.2013
406.3502	0.2191
406.5558	0.208
406.7613	0.2013
406.9668	0.2156
407.1724	0.1962
407.3778	0.1911
407.5833	0.1991
407.7888	0.188
407.9942	0.2199
408.1997	0.2072
408.4051	0.1792
408.6105	0.2101
408.8159	0.1883
409.0213	0.1767
409.2267	0.213
409.432	0.2036
409.6374	0.2161
409.8427	0.2108
410.048	0.2105
410.2533	0.1923
410.4586	0.2001
410.6639	0.1741
410.8691	0.1964
411.0744	0.203
411.2796	0.194
411.4848	0.2125
411.69	0.1876
411.8952	0.2071
412.1004	0.1785
412.3056	0.2123
412.5107	0.1931
412.7158	0.2154
412.921	0.1863
413.1261	0.1986
413.3312	0.1767
413.5362	0.1901
413.7413	0.1887
413.9464	0.188
414.1514	0.1991
414.3564	0.1834
414.5614	0.1989
414.7664	0.2094
414.9714	0.1921
415.1764	0.1851
415.3813	0.224
415.5863	0.1941
415.7912	0.191
415.9961	0.213
416.201	0.1874
416.4059	0.2131
416.6108	0.1895
416.8156	0.1863
417.0205	0.1915
417.2253	0.1816
417.4301	0.2128
417.6349	0.2064
417.8397	0.1771
418.0445	0.1912
418.2492	0.1969
418.454	0.1945
418.6587	0.2045
418.8634	0.1851
419.0681	0.186
419.2728	0.1893
419.4775	0.1681
419.6822	0.1893
419.8868	0.1698
420.0915	0.1771
420.2961	0.1914
420.5007	0.172
420.7053	0.1683
420.9099	0.1922
421.1144	0.1835
421.319	0.1708
421.5235	0.1821
421.728	0.1811
421.9325	0.1695
422.137	0.1922
422.3415	0.1673
422.546	0.1761
422.7504	0.184
422.9549	0.189
423.1593	0.1897
423.3637	0.1817
423.5681	0.164
423.7725	0.1635
423.9769	0.1543
424.1812	0.1502
424.3856	0.1665
424.5899	0.1883
424.7942	0.1575
424.9985	0.1755
425.2028	0.1739
425.4071	0.1872
425.6113	0.1553
425.8156	0.166
426.0198	0.1819
426.224	0.1572
426.4282	0.1565
426.6324	0.1499
426.8366	0.1819
427.0407	0.166
427.2449	0.1526
427.449	0.1567
427.6531	0.1413
427.8572	0.1528
428.0613	0.1618
428.2654	0.1525
428.4694	0.1465
428.6735	0.1477
428.8775	0.1688
429.0815	0.1525
429.2855	0.1428
429.4895	0.1522
429.6935	0.1561
429.8975	0.1539
430.1014	0.1452
430.3053	0.1283
430.5093	0.1346
430.7132	0.1154
430.9171	0.1186
431.1209	0.1493
431.3248	0.1354
431.5286	0.1449
431.7325	0.1343
431.9363	0.1106
432.1401	0.124
432.3439	0.1267
432.5477	0.1116
432.7514	0.1298
432.9552	0.1479
433.1589	0.1103
433.3627	0.1208
433.5664	0.1251
433.7701	0.1019
433.9737	0.114
434.1774	0.1151
434.3811	0.1023
434.5847	0.1136
434.7883	0.0991
434.9919	0.0991
435.1955	0.099
435.3991	0.0961
435.6027	0.1088
435.8062	0.1057
436.0098	0.095
436.2133	0.0946
436.4168	0.0856
436.6203	0.0879
436.8238	0.103
437.0272	0.0981
437.2307	0.0902
437.4341	0.1072
437.6375	0.1087
437.841	0.086
438.0443	0.1052
438.2477	0.0842
438.4511	0.0802
438.6545	0.0867
438.8578	0.0885
439.0611	0.0746
439.2644	0.0823
439.4677	0.0815
439.671	0.0799
439.8743	0.0905
440.0775	0.0713
440.2808	0.0614
440.484	0.0596
440.6872	0.0598
440.8904	0.0553
441.0936	0.0807
441.2967	0.0591
441.4999	0.0685
441.703	0.0686
441.9062	0.0556
442.1093	0.0587
442.3124	0.0675
442.5155	0.0534
442.7185	0.0485
442.9216	0.0323
443.1246	0.0676
443.3276	0.0535
443.5307	0.0543
443.7337	0.0519
443.9366	0.0491
444.1396	0.0496
444.3426	0.0545
444.5455	0.0548
444.7484	0.0396
444.9513	0.0395
445.1542	0.057
445.3571	0.0387
445.56	0.0459
445.7628	0.0429
445.9657	0.0381
446.1685	0.0555
446.3713	0.0479
446.5741	0.0391
446.7769	0.0367
446.9797	0.0447
447.1824	0.0417
447.3852	0.032
447.5879	0.0475
447.7906	0.0382
447.9933	0.0358
448.196	0.024
448.3986	0.0383
448.6013	0.0248
448.8039	0.0181
449.0066	0.0301
449.2092	0.0318
449.4118	0.0347
449.6143	0.0223
449.8169	0.0262
450.0195	0.0305
450.222	0.0081
450.4245	0.0131
450.627	0.0201
450.8295	0.0322
451.032	0.0188
451.2345	0.0261
451.4369	0.0218
451.6394	0.0245
451.8418	0.0122
452.0442	0.0177
452.2466	0.0306
452.449	0.0007
452.6513	0.0283
452.8537	0.0152
453.056	0.0043
453.2583	0.0234
453.4607	0.0218
453.663	0.0029
453.8652	0.0308
454.0675	0.0039
454.2697	0.0141
454.472	0.0097
454.6742	0.0117
454.8764	0.0081
455.0786	0.0209
455.2808	0.005
455.4829	0.013
455.6851	0.026
455.8872	0.027
456.0893	0.0219
456.2915	-0.0028
456.4935	0.0218
456.6956	-0.0011
456.8977	0.0109
457.0997	0.0009
457.3018	0.0009
457.5038	0.0178
457.7058	0.0072
457.9078	0.0058
458.1098	0.0145
458.3117	0.0077
458.5137	0.0119
458.7156	0.0105
458.9175	-0.0038
459.1194	0.0225
459.3213	0.0121
459.5232	0.0042
459.725	-0.0047
459.9269	0.0059
460.1287	0.0053
460.3305	0.0073
460.5323	0.0122
460.7341	-0.0027
460.9359	0.0134
461.1376	0.0105
461.3394	-0.0077
461.5411	0.0148
461.7428	0.0054
461.9445	0.0172
462.1462	0.012
462.3479	-0.0001
462.5495	0.0068
462.7512	0.0081
462.9528	-0.0039
463.1544	-0.0171
463.356	-0.0037
463.5576	0.0147
463.7592	-0.0145
463.9607	0.0186
464.1623	0.0177
464.3638	0.0168
464.5653	-0.0096
464.7668	0.0112
464.9683	0.0101
465.1697	0.0208
465.3712	-0.0155
465.5726	0.0024
465.7741	0.0054
465.9755	0.0005
466.1769	0.0014
466.3782	-0.004
466.5796	-0.0014
466.7809	0.0081
466.9823	0.0072
467.1836	-0.0017
467.3849	0.0027
467.5862	-0.0002
467.7875	-0.0118
467.9887	0.0118
468.19	-0.0018
468.3912	0.0022
468.5924	0.0125
468.7936	-0.0022
468.9948	0.0131
469.196	0.0042
469.3972	-0.0058
469.5983	0.0013
469.7994	-0.0059
470.0006	-0.0101
470.2017	-0.0084
470.4027	-0.0055
470.6038	0.0104
470.8049	-0.0104
471.0059	-0.0185
471.2069	-0.0269
471.408	0.0053
471.6089	0.0124
471.8099	0.0062
472.0109	0.0128
472.2119	-0.0037
472.4128	-0.0129
472.6137	0.0025
472.8146	-0.0133
473.0155	-0.0047
473.2164	-0.0169
473.4173	0.0053
473.6181	0.0127
473.819	-0.0033
474.0198	-0.013
474.2206	0.0002
474.4214	-0.0002
474.6222	0.0001
474.8229	-0.0082
475.0237	-0.0206
475.2244	-0.0069
475.4251	-0.0007
475.6258	0.0021
475.8265	0.0003
476.0272	0.0152
476.2278	0.0078
476.4285	0.0079
476.6291	-0.0138
476.8297	-0.001
477.0303	-0.0104
477.2309	0.0062
477.4315	-0.0173
477.632	0.012
477.8326	0.0021
478.0331	-0.0002
478.2336	0.016
478.4341	0.0044
478.6346	0.0033
478.8351	0.0035
479.0355	0.0072
479.236	-0.0094
479.4364	0.0046
479.6368	-0.0096
479.8372	-0.0139
480.0376	0.0016
480.2379	-0.0301
480.4383	-0.0169
480.6386	0.0096
480.8389	-0.0077
481.0392	0.0011
481.2395	-0.0091
481.4398	0.0026
481.6401	0.0074
481.8403	-0.0023
482.0405	-0.0091
482.2408	-0.0001
482.441	0.012
482.6411	-0.0092
482.8413	-0.0026
483.0415	-0.0219
483.2416	-0.0077
483.4417	-0.004
483.6419	0.0026
483.8419	-0.0068
484.042	0.0006
484.2421	0.0029
484.4422	0.0104
484.6422	-0.0045
484.8422	0.0014
485.0422	-0.0101
485.2422	-0.0006
485.4422	-0.0077
485.6422	-0.0012
485.8421	-0.0086
486.042	-0.0075
486.242	-0.0089
486.4419	-0.006
486.6417	-0.0055
486.8416	-0.0035
487.0415	-0.0007
487.2413	-0.0082
487.4411	-0.0051
487.641	-0.0046
487.8408	-0.0004
488.0405	-0.0127
488.2403	-0.0023
488.4401	0.0044
488.6398	0.0017
488.8395	0.0059
489.0392	0.0041
489.2389	-0.0051
489.4386	-0.0054
489.6383	-0.0033
489.8379	0.0132
490.0376	0.0061
490.2372	-0.0175
490.4368	-0.0064
490.6364	-0.001
490.836	-0.0023
491.0355	-0.0014
491.2351	-0.0046
491.4346	0.0001
491.6341	-0.008
491.8336	0.0048
492.0331	-0.0119
492.2326	-0.016
492.432	0.0056
492.6315	-0.0019
492.8309	-0.0139
493.0303	-0.003
493.2297	0.0016
493.4291	-0.013
493.6284	-0.0037
493.8278	-0.0066
494.0271	0.0178
494.2264	-0.0031
494.4257	0.0001
494.625	-0.0024
494.8243	-0.0155
495.0236	-0.0019
495.2228	-0.0143
495.422	0.0013
495.6213	-0.0056
495.8205	-0.0036
496.0196	0.0081
496.2188	0.0025
496.418	-0.0178
496.6171	-0.0038
496.8162	-0.0093
497.0153	0.0071
497.2144	-0.0106
497.4135	-0.0021
497.6126	-0.0039
497.8116	0.0032
498.0107	-0.0017
498.2097	-0.0045
498.4087	-0.0007
498.6077	-0.0045
498.8067	-0.0098
499.0056	0.0063
499.2046	-0.0107
499.4035	-0.008
499.6024	-0.0057
499.8013	0.0043
500.0002	-0.0116
500.199	0.0023
500.3979	-0.0049
500.5967	-0.0115
500.7956	-0.0037
500.9944	-0.0004
501.1932	0.0038
501.3919	-0.0133
501.5907	-0.0054
501.7895	0.0052
501.9882	-0.0056
502.1869	0.0001
502.3856	-0.0078
502.5843	-0.0055
502.783	-0.0133
502.9816	-0.0049
503.1803	-0.005
503.3789	-0.0106
503.5775	0.0051
503.7761	-0.0016
503.9747	0.0068
504.1732	-0.0025
504.3718	0.0037
504.5703	-0.0005
504.7689	-0.0065
504.9674	-0.0025
505.1658	-0.0099
505.3643	-0.0083
505.5628	-0.0077
505.7612	-0.0069
505.9597	-0.0006
506.1581	-0.0035
506.3565	0.0084
506.5549	-0
506.7532	-0.0124
506.9516	0.0022
507.1499	-0.0047
507.3482	-0.0138
507.5465	-0.0105
507.7448	-0.0065
507.9431	-0.0025
508.1414	-0.0068
508.3396	-0.0047
508.5379	-0.0041
508.7361	-0.001
508.9343	-0.0017
509.1325	0.0005
509.3306	-0.0053
509.5288	-0.0019
509.7269	-0.0063
509.9251	-0.0042
510.1232	-0.0068
510.3213	-0.0054
510.5193	-0
510.7174	-0.0055
510.9154	-0.0024
511.1135	-0.0112
511.3115	-0.0048
511.5095	-0.0097
511.7075	0.0057
511.9055	-0.0039
512.1034	-0.0034
512.3014	-0.0004
512.4993	0.0063
512.6972	-0.0023
512.8951	-0.0154
513.093	-0.0007
513.2908	0.0015
513.4887	0.0003
513.6865	-0.0003
513.8844	-0.0142
514.0822	-0.0096
514.2799	-0.007
514.4777	-0.0089
514.6755	-0.0066
514.8732	-0.0131
515.0709	-0.0095
515.2687	-0.0045
515.4664	0.0045
515.664	0.0008
515.8617	0.0048
516.0594	-0.0095
516.257	-0.009
516.4546	-0.0129
516.6522	0.0013
516.8498	0.0008
517.0474	0.0124
517.2449	0.0043
517.4425	-0.0106
517.64	-0.0164
517.8375	0.0069
518.035	-0.01
518.2325	-0.0079
518.43	0.001
518.6274	-0.0083
518.8249	-0.0151
519.0223	0.0044
519.2197	-0.0025
519.4171	-0.0026
519.6145	-0.0151
519.8118	-0.0059
520.0092	-0
520.2065	-0.0037
520.4038	-0.0143
520.6011	-0.0008
520.7984	-0.0112
520.9956	-0.0027
521.1929	-0.0099
521.3901	0.0046
521.5874	-0.0003
521.7846	0.0008
521.9818	-0.0069
522.1789	-0.0076
522.3761	-0.0031
522.5732	-0.0067
522.7704	-0.0082
522.9675	-0.0026
523.1646	-0.0065
523.3617	0.0098
523.5587	-0.0079
523.7558	-0.0063
523.9528	-0.0057
524.1498	0.0028
524.3468	-0.008
524.5438	-0.0106
524.7408	-0.001
524.9378	0.0104
525.1347	-0.004
525.3316	-0.0077
525.5285	-0.0152
525.7254	-0.0005
525.9223	0.0022
526.1192	0.0057
526.316	-0.0091
526.5129	0.0013
526.7097	-0.0007
526.9065	0.0036
527.1033	-0.0136
527.3	0.0056
527.4968	-0.0098
527.6935	-0
527.8903	-0.0103
528.087	0.0008
528.2837	-0.0025
528.4804	0.004
528.677	-0.0083
528.8737	0.0096
529.0703	-0.0002
529.2669	-0.0006
529.4635	-0.0096
529.6601	-0.0032
529.8567	-0.0098
530.0532	-0.0157
530.2498	0.0121
530.4463	0.0101
530.6428	0
530.8393	0.0049
531.0358	0.0081
531.2322	0.0065
531.4287	-0.0046
531.6251	-0.0106
531.8215	0.0104
532.0179	0.0013
532.2143	-0.0007
532.4107	-0.004
532.607	-0.0056
532.8034	-0.0041
532.9997	0.0026
533.196	-0.0011
533.3923	-0.0076
533.5886	-0.0118
533.7848	-0.001
533.9811	-0.0001
534.1773	0.0044
534.3735	0.0052
534.5697	-0.0028
534.7659	0.0071
534.9621	0.0045
535.1582	-0.0044
535.3544	-0.004
535.5505	-0.0001
535.7466	0.0057
535.9427	-0.0043
536.1387	0.0037
536.3348	-0.0102
536.5308	0.0066
536.7269	-0.0146
536.9229	0.0087
537.1189	0.0007
537.3148	-0.0014
537.5108	-0.0027
537.7068	-0.0049
537.9027	-0.0064
538.0986	0.0009
538.2945	-0.0019
538.4904	0.0031
538.6863	-0.0016
538.8821	-0.0043
539.078	-0.0093
539.2738	0.0058
539.4696	-0.0033
539.6654	0.0017
539.8611	0.0113
540.0569	-0.0094
540.2526	-0.005
540.4484	0.0049
540.6441	0.0104
540.8398	0.001
541.0355	0.0077
541.2311	-0.0012
541.4268	-0.0126
541.6224	0.0035
541.818	0.0044
542.0136	0.0012
542.2092	-0.0081
542.4048	0.0018
542.6003	0.0087
542.7959	0.0048
542.9914	0
543.1869	0.0045
543.3824	-0.0001
543.5779	-0.0078
543.7734	-0.0066
543.9688	-0.0043
544.1642	0.0081
544.3596	0.0033
544.555	0.0017
544.7504	-0.0014
544.9458	0.0029
545.1411	0.0004
545.3365	-0.0009
545.5318	-0.0079
545.7271	0.0015
545.9224	-0.0033
546.1177	0.003
546.3129	0.0029
546.5081	-0.0022
546.7034	0.0015
546.8986	-0.0094
547.0938	0.0002
547.289	-0.0087
547.4841	0.0005
547.6793	0.0143
547.8744	0.0011
548.0695	-0.0028
548.2646	0.0018
548.4597	0.0083
548.6548	-0.0007
548.8498	0.0044
549.0448	0.0067
549.2399	0.0015
549.4349	0.0129
549.6298	-0.0003
549.8248	-0.0018
550.0198	0.0053
550.2147	-0.0089
550.4096	-0.0024
550.6045	-0.0037
550.7994	0.0003
550.9943	0.0039
551.1892	0.0045
551.384	0.0072
551.5788	-0.0018
551.7737	-0.0043
551.9685	0.0029
552.1632	0.008
552.358	0.0001
552.5528	-0.0005
552.7475	-0.0091
552.9422	0.005
553.1369	0.0023
553.3316	0.0049
553.5263	-0.0054
553.7209	0.0081
553.9156	-0.0002
554.1102	-0.0058
554.3048	-0.0011
554.4994	0.0027
554.694	-0.0055
554.8885	-0.0017
555.0831	-0.0082
555.2776	-0.0065
555.4721	0.003
555.6666	-0.0058
555.8611	0.0107
556.0555	-0.0044
556.25	-0.0043
556.4444	-0.0073
556.6388	0.0085
556.8332	-0.0014
557.0276	0.0002
557.222	-0.004
557.4163	-0.0048
557.6107	-0.0002
557.805	0.0022
557.9993	0.0028
558.1936	0.0031
558.3879	0.0061
558.5821	0.0049
558.7764	-0.0003
558.9706	0.0035
559.1648	0.0059
559.359	-0.0022
559.5532	-0.0113
559.7473	0.0018
559.9415	0.0032
560.1356	-0.0025
560.3297	-0.0082
560.5238	-0.0046
560.7179	-0.0028
560.9119	-0.0016
561.106	-0.0022
561.3	-0.0085
561.494	0.0045
561.688	-0.0076
561.882	-0.004
562.076	-0.002
562.2699	0.005
562.4639	-0.005
562.6578	0.0072
562.8517	-0.0017
563.0456	-0.0005
563.2395	-0.0022
563.4333	0.0104
563.6272	0.0093
563.821	0.0014
564.0148	0.0035
564.2086	-0.0093
564.4024	-0.0043
564.5961	-0.0065
564.7899	0.0023
564.9836	0.0009
565.1773	-0.0005
565.371	0.0068
565.5647	0.0106
565.7584	0.0061
565.952	0.0025
566.1456	0.0036
566.3393	0.0034
566.5329	-0.0007
566.7264	-0.0037
566.92	0.0033
567.1136	0.0069
567.3071	-0.0123
567.5006	0.0057
567.6941	0.0032
567.8876	0.0059
568.0811	0.0055
568.2745	0.007
568.468	0.0035
568.6614	0.0075
568.8548	0.0013
569.0482	0.0001
569.2416	-0.0017
569.4349	-0.0049
569.6283	0.0066
569.8216	-0.0001
570.0149	0.0017
570.2082	0.0126
570.4015	0.0141
570.5947	0.0066
570.788	0.0092
570.9812	0.0023
571.1744	-0.0054
571.3676	-0.0039
571.5608	0.0014
571.754	0.0016
571.9471	0.0022
572.1402	0.0017
572.3333	0.0002
572.5264	0.0013
572.7195	-0.0012
572.9126	0.0033
573.1057	0.0033
573.2987	0.0014
573.4917	0.0062
573.6847	-0.0071
573.8777	-0
574.0707	0.0134
574.2636	-0.0026
574.4566	-0.006
574.6495	0.0068
574.8424	-0.0057
575.0353	-0.0007
575.2281	0.0105
575.421	0.0061
575.6138	0.009
575.8067	-0.004
575.9995	0.0028
576.1923	0.0082
576.385	0.0041
576.5778	-0.0031
576.7706	0.0024
576.9633	-0.0031
577.156	0.0001
577.3487	-0.0021
577.5414	0.0084
577.734	-0.0006
577.9267	0.0045
578.1193	-0.0139
578.3119	-0.0096
578.5045	-0.0013
578.6971	-0.0077
578.8897	0.0019
579.0822	-0.0003
579.2747	0.0017
579.4673	0.0005
579.6598	-0.0044
579.8522	0.0033
580.0447	-0.0108
580.2372	-0.002
580.4296	0.0051
580.622	0.0044
580.8144	0.0019
581.0068	-0.0057
581.1992	-0.0083
581.3915	-0.0034
581.5839	-0.0082
581.7762	-0.0041
581.9685	0.0042
582.1608	0.004
582.353	-0.0043
582.5453	0.0009
582.7375	0.0005
582.9298	0.001
583.122	-0.0005
583.3142	-0.0023
583.5063	-0.0001
583.6985	0.0006
583.8906	0.0036
584.0827	-0.0019
584.2749	0.0056
584.4669	0.0041
584.659	-0.0028
584.8511	0.002
585.0431	0.0024
585.2352	0.0036
585.4272	0.0023
585.6192	-0.001
585.8111	-0.0026
586.0031	-0.0041
586.195	0.0046
586.387	0.0086
586.5789	0
586.7708	0.0039
586.9627	0.0009
587.1545	-0.0045
587.3464	0.0069
587.5382	0.0112
587.73	0.0042
587.9218	0.0041
588.1136	0.002
588.3053	0.002
588.4971	-0.0085
588.6888	-0.0028
588.8805	-0.0029
589.0722	0.0102
589.2639	-0.0016
589.4556	-0.0003
589.6472	0.0005
589.8389	-0.0045
590.0305	-0.01
590.2221	0.0009
590.4137	-0.0051
590.6052	0.0049
590.7968	-0.0007
590.9883	0.0023
591.1798	-0.0004
591.3713	-0.0042
591.5628	0.0105
591.7543	0.0071
591.9458	0.0013
592.1372	0.0016
592.3286	0.0052
592.52	0.007
592.7114	0.0033
592.9028	0.0003
593.0941	0.0035
593.2855	0.0031
593.4768	-0.003
593.6681	-0.0036
593.8594	0.0003
594.0506	0.0022
594.2419	0.0083
594.4331	0.007
594.6244	0.0033
594.8156	-0.0039
595.0067	0.0092
595.1979	-0.002
595.3891	0.0046
595.5802	0.0018
595.7713	-0.0022
595.9624	0.004
596.1535	0.0109
596.3446	0.0033
596.5357	0.0027
596.7267	0.0046
596.9177	-0.0035
597.1087	-0.0046
597.2997	0.0035
597.4907	0.0092
597.6817	0.0017
597.8726	0.0061
598.0635	0.0006
598.2544	-0.0023
598.4453	0.0025
598.6362	-0.0031
598.827	-0.0073
599.0179	0.003
599.2087	0.0062
599.3995	0.003
599.5903	0.0022
599.7811	0.0026
599.9718	0.0031
600.1626	0.0018
600.3533	-0.0048
600.544	0.002
600.7347	-0.0036
600.9254	0.0031
601.116	-0.0028
601.3067	0.0009
601.4973	0.0015
601.6879	0.0084
601.8785	-0.0001
602.0691	0.0052
602.2596	0.0079
602.4502	0.0042
602.6407	0.0004
602.8312	0.0021
603.0217	-0.0072
603.2122	0.002
603.4027	0.0031
603.5931	0.0063
603.7835	-0.0031
603.9739	-0.0005
604.1643	-0.0026
604.3547	-0.0078
604.5451	0.0001
604.7354	-0.0004
604.9257	0.0002
605.116	-0.0018
605.3063	0.0079
605.4966	0.0013
605.6869	0.0035
605.8771	0.0053
606.0673	0.0064
606.2575	0.0116
606.4477	0.0092
606.6379	-0.0011
606.8281	-0.0021
607.0182	0.0029
607.2083	0.0047
607.3985	-0.0026
607.5885	-0.001
607.7786	-0.0008
607.9687	-0.008
608.1587	0.0075
608.3488	-0.0023
608.5388	0.0027
608.7288	0.0065
608.9187	0.0027
609.1087	-0.0037
609.2986	-0.0072
609.4886	-0.0022
609.6785	-0.0005
609.8684	0.0102
610.0582	0.0048
610.2481	0.0101
610.4379	0.0061
610.6278	-0.0024
610.8176	0.0025
611.0074	-0.0024
611.1971	0.0003
611.3869	-0.0016
611.5766	-0.0016
611.7664	0.0075
611.9561	0.0104
612.1458	0.0015
612.3354	-0.001
612.5251	0.0076
612.7147	0.0066
612.9044	0.0043
613.094	-0.0033
613.2836	0.0057
613.4731	0.0007
613.6627	0.0003
613.8522	0.0075
614.0417	0.0023
614.2313	-0.0045
614.4207	0.0045
614.6102	0.0094
614.7997	0.0015
614.9891	-0.0005
615.1785	0.0039
615.3679	0.0045
615.5573	0.014
615.7467	0.0028
615.9361	0.0011
616.1254	-0.0012
616.3147	0.0088
616.504	0.0074
616.6933	0.002
616.8826	0.0122
617.0718	0.0121
617.2611	0.0071
617.4503	0.0022
617.6395	-0.0003
617.8287	0.0077
618.0179	0.003
618.207	0.0129
618.3961	0.0001
618.5853	0.0038
618.7744	0.0048
618.9634	0.009
619.1525	0.0042
619.3416	-0.0026
619.5306	0.0107
619.7196	0.0037
619.9086	0.0007
620.0976	-0.0001
620.2866	0.0029
620.4755	0.0003
620.6645	0.0066
620.8534	0.0092
621.0423	0.0086
621.2312	0.014
621.42	0.0075
621.6089	0.0134
621.7977	0.0028
621.9865	0.0029
622.1753	0.0099
622.3641	-0.0008
622.5529	0.0063
622.7416	0.0093
622.9303	-0.0015
623.1191	0.0081
623.3078	0.0071
623.4964	0.0071
623.6851	-0.0016
623.8737	0.0091
624.0624	0.009
624.251	-0.0003
624.4396	-0.0001
624.6282	-0.0031
624.8167	-0.0015
625.0053	0.0049
625.1938	0.008
625.3823	0.0068
625.5708	0.0038
625.7593	-0.0046
625.9477	0.0038
626.1362	0.0006
626.3246	0.0075
626.513	0.0033
626.7014	0.0096
626.8898	0.0063
627.0781	0.0089
627.2665	-0.0036
627.4548	0.0069
627.6431	0.0016
627.8314	0.0118
628.0197	0.0105
628.2079	0.003
628.3962	-0.004
628.5844	0.007
628.7726	-0.001
628.9608	0.0097
629.1489	0.0016
629.3371	0.0082
629.5252	0.0015
629.7134	0.0083
629.9015	-0.0043
630.0895	-0.0033
630.2776	0.0078
630.4657	-0.0006
630.6537	0.0054
630.8417	0.0028
631.0297	-0.0037
631.2177	0.0011
631.4057	0.0012
631.5936	0.0042
631.7815	0.0045
631.9695	0.0082
632.1574	0.0051
632.3452	0.0165
632.5331	0.0124
632.7209	0.0049
632.9088	0.0151
633.0966	0.0118
633.2844	0.0084
633.4722	0.0096
633.6599	0.0083
633.8477	0.0062
634.0354	0.0071
634.2231	0.0026
634.4108	0.0131
634.5985	0.0094
634.7861	0.0045
634.9738	0.0077
635.1614	0.0062
635.349	0.0141
635.5366	0.0129
635.7242	0.0066
635.9117	0.0066
636.0993	0.0086
636.2868	0.0095
636.4743	-0.0024
636.6618	0.0135
636.8492	0.0106
637.0367	0.01
637.2241	-0.0006
637.4115	0.0007
637.5989	0.0026
637.7863	0.0048
637.9737	0.0044
638.161	0.0015
638.3484	0.0047
638.5357	0.0173
638.723	0.0016
638.9103	0.0102
639.0975	0.0106
639.2848	0.0138
639.472	0.0008
639.6592	0.0105
639.8464	0.0093
640.0336	0.0051
640.2208	-0.0002
640.4079	-0.0018
640.595	0.0008
640.7821	0.0049
640.9692	0.0075
641.1563	0.0006
641.3434	0.0148
641.5304	0.0066
641.7174	0.0054
641.9044	0.0005
642.0914	0.0114
642.2784	0.0013
642.4653	0.0068
642.6523	0.0041
642.8392	0.0015
643.0261	0.0111
643.213	0.0102
643.3999	0.0011
643.5867	0.0054
643.7735	0.0021
643.9604	-0.0001
644.1472	0.0069
644.3339	0.0082
644.5207	0.0057
644.7075	-0.0015
644.8942	0.0061
645.0809	0.0052
645.2676	0.0056
645.4543	0.0011
645.6409	0.0132
645.8276	0.0066
646.0142	0.01
646.2008	-0
646.3874	-0.0029
646.574	0.005
646.7605	0.005
646.9471	-0.0119
647.1336	0.0012
647.3201	0.007
647.5066	-0.0018
647.6931	0.0058
647.8795	-0.0056
648.0659	0.0067
648.2524	0.0107
648.4388	-0.0001
648.6252	0.0026
648.8115	-0.0011
648.9979	-0.0005
649.1842	-0.0026
649.3705	0.0006
649.5568	0.0058
649.7431	0.0128
649.9294	0.003
650.1156	0.0012
650.3018	-0.0041
650.488	0.0055
650.6742	0.0108
650.8604	0.007
651.0466	-0.0055
651.2327	0.0023
651.4188	0.009
651.6049	0.0089
651.791	0.0058
651.9771	0.0125
652.1632	0.007
652.3492	0.0075
652.5352	0.0083
652.7212	0.0047
652.9072	0.008
653.0932	0.0027
653.2791	0.0054
653.465	0.0039
653.651	0.0046
653.8369	-0.0025
654.0227	0.0058
654.2086	0.0073
654.3944	0.0115
654.5803	0.0026
654.7661	0.0078
654.9519	0.0052
655.1377	-0.0016
655.3234	0.0018
655.5092	-0.0019
655.6949	-0.0035
655.8806	-0.0072
656.0663	0.0016
656.2519	-0.0012
656.4376	-0.0012
656.6232	0.0088
656.8088	-0.001
656.9945	0.0022
657.18	-0.0017
657.3656	0.0129
657.5511	0.0009
657.7367	-0.0046
657.9222	0.0093
658.1077	0.0069
658.2932	0.0044
658.4786	-0.0067
658.6641	-0.0055
658.8495	0.0037
659.0349	-0.0022
659.2203	0.0058
659.4057	0.0033
659.591	0.0031
659.7764	-0.0007
659.9617	0.0073
660.147	0.0012
660.3323	0.0078
660.5176	0.0092
660.7028	0.0096
660.888	0.0035
661.0733	0.0111
661.2585	-0.0031
661.4436	0.0048
661.6288	0.0002
661.8139	-0.0061
661.9991	-0.0029
662.1842	-0.0038
662.3693	-0.0047
662.5544	0.0029
662.7394	-0.0012
662.9245	-0.0003
663.1095	0.0081
663.2945	0.0082
663.4795	0.0009
663.6644	0.012
663.8494	0.0067
664.0343	0.0076
664.2193	-0.0064
664.4042	0.0072
664.589	-0.0082
664.7739	0.0012
664.9587	0.0028
665.1436	-0.003
665.3284	0.0081
665.5132	-0.0023
665.698	0.0058
665.8827	0.0092
666.0675	0.0087
666.2522	0.0006
666.4369	0.0101
666.6216	0.0069
666.8063	-0.0007
666.9909	0.0027
667.1756	-0.0035
667.3602	0.0038
667.5448	0.0033
667.7294	0.0091
667.9139	0.0171
668.0985	0.0154
668.283	-0.0008
668.4675	0.0058
668.652	0.0078
668.8365	0.0058
669.0209	0.0139
669.2054	0.0142
669.3898	0.0118
669.5742	0.0113
669.7586	0.0137
669.943	0.0179
670.1273	0.0111
670.3117	0.0053
670.496	0.0105
670.6803	0.01
670.8646	0.0033
671.0488	0.0016
671.2331	0.0083
671.4173	0.0059
671.6015	0.0018
671.7857	0.0015
671.9699	0.0059
672.1541	0.0079
672.3382	0.0042
672.5223	0.0076
672.7064	0.0076
672.8905	0.007
673.0746	-0.0018
673.2587	-0
673.4427	0.0101
673.6267	0.0137
673.8107	0.0101
673.9947	0.0087
674.1787	0.0106
674.3626	-0.0014
674.5465	0.0117
674.7304	0.0073
674.9143	0.011
675.0982	0.0119
675.2821	-0.0012
675.4659	0.0101
675.6497	0.0092
675.8335	0.0029
676.0173	0.0055
676.2011	0.0037
676.3849	0.0016
676.5686	-0.0016
676.7523	0.0012
676.936	0.0053
677.1197	-0.0041
677.3034	-0.0075
677.487	0.0126
677.6706	0.0026
677.8542	0.0009
678.0378	0.0013
678.2214	0.0039
678.405	0.0064
678.5885	-0.0037
678.772	0.0137
678.9555	-0.0014
679.139	-0.0019
679.3225	0.0024
679.5059	0.0065
679.6894	-0.0037
679.8728	0.0027
680.0562	-0.0019
680.2395	-0.0019
680.4229	-0.0025
680.6062	0.004
680.7896	0.0036
680.9729	-0.0078
681.1562	0.0068
681.3394	-0.0014
681.5227	-0.0052
681.7059	-0.0047
681.8891	0.0052
682.0723	0.0101
682.2555	0.0049
682.4387	0.0017
682.6218	-0.0031
682.805	0.0113
682.9881	0.0089
683.1712	-0.0035
683.3542	0.0008
683.5373	0.0127
683.7203	0.0005
683.9034	0.0018
684.0864	-0.0013
684.2694	-0.006
684.4523	0.0013
684.6353	-0.0023
684.8182	0.0058
685.0011	-0.0026
685.184	-0.0003
685.3669	0.0005
685.5498	0.0054
685.7326	0.0018
685.9154	-0.0024
686.0982	0.0122
686.281	0.0101
686.4638	0.0061
686.6465	0.0024
686.8293	0.0027
687.012	0.0124
687.1947	-0.0097
687.3774	0.0024
687.56	0.0011
687.7427	0.0106
687.9253	0.0014
688.1079	0.0016
688.2905	0.0096
688.4731	0.0039
688.6556	0.0055
688.8382	0.0044
689.0207	0.006
689.2032	-0.0016
689.3857	-0.0057
689.5681	-0.0015
689.7506	-0.0025
689.933	-0.0041
690.1154	-0.0012
690.2978	-0.0037
690.4802	0.0018
690.6626	-0.0144
690.8449	-0.0026
691.0272	0.0021
691.2095	0.0045
691.3918	-0.0001
691.5741	0.0054
691.7563	0.0068
691.9386	0.0097
692.1208	0.0073
692.303	-0.0038
692.4852	0.0003
692.6673	-0.001
692.8495	0.008
693.0316	0.0045
693.2137	-0.001
693.3958	0.0032
693.5778	0.0019
693.7599	0.0055
693.9419	0.0066
694.1239	-0.0001
694.3059	-0.0029
694.4879	0.0092
694.6699	0.0166
694.8518	0.0082
695.0337	0.0015
695.2157	0.0131
695.3975	0.0084
695.5794	0.0044
695.7613	0.0095
695.9431	0.004
696.1249	0.0045
696.3067	0.0079
696.4885	0.0068
696.6703	-0.0031
696.852	0.0079
697.0337	0.0021
697.2154	0.0103
697.3971	0.0063
697.5788	0.0004
697.7605	0.0033
697.9421	0.0088
698.1237	0.0099
698.3053	0.0049
698.4869	0.0046
698.6685	-0.0009
698.85	-0.0041
699.0315	0.0047
699.213	0.0013
699.3945	-0.0006
699.576	0.0082
699.7575	0.0099
699.9389	0.0103
700.1203	0.0026
700.3017	-0.0048
700.4831	-0.001
700.6645	0.0012
700.8458	0.0095
701.0271	0.005
701.2084	0.0115
701.3897	0.0075
701.571	0.0087
701.7523	-0.0011
701.9335	0.0043
702.1147	0.0083
702.2959	0.0072
702.4771	-0.0019
702.6583	0.0025
702.8394	0.0032
703.0205	0.0012
703.2016	0.0014
703.3827	0.0088
703.5638	0.0121
703.7449	0.0099
703.9259	0.0149
704.1069	0.0014
704.2879	0.0059
704.4689	0.0037
704.6499	0.0072
704.8308	-0.0021
705.0117	0.0036
705.1927	0.0066
705.3735	-0.0029
705.5544	-0.0083
705.7353	-0.0026
705.9161	-0.0065
706.0969	-0.0011
706.2777	0.0019
706.4585	-0.0037
706.6393	0.003
706.82	0.001
707.0007	0.0008
707.1815	0.0065
707.3621	0.0037
707.5428	-0.0025
707.7235	0.0082
707.9041	-0.0006
708.0847	-0.0065
708.2653	-0.0054
708.4459	-0.0103
708.6265	-0.0101
708.807	-0.0005
708.9875	-0.0022
709.168	-0.0057
709.3485	-0.0004
709.529	-0.0063
709.7095	-0.0157
709.8899	-0.0018
710.0703	-0.0046
710.2507	0.0011
710.4311	-0.005
710.6115	-0.0152
710.7918	-0.0037
710.9721	0.0086
711.1524	-0.0071
711.3327	0.0025
711.513	0.0018
711.6932	0.004
711.8735	0.0119
712.0537	0.0001
712.2339	0.0009
712.4141	-0.0046
712.5942	0.0022
712.7744	0.0001
712.9545	-0.008
713.1346	-0.0019
713.3147	0.0011
713.4947	0.0002
713.6748	0.0032
713.8548	0.0069
714.0348	-0.0048
714.2148	-0.003
714.3948	0.0106
714.5748	0.0022
714.7547	-0.0033
714.9346	0.0019
715.1145	0.0015
715.2944	-0.0042
715.4743	0.0059
715.6541	-0.0036
715.834	0.0078
716.0138	0.0051
716.1936	-0.0065
716.3733	-0.0026
716.5531	0.0038
716.7328	0.0039
716.9126	-0.0082
717.0923	-0.0021
717.2719	0.0024
717.4516	-0.0006
717.6312	0.002
717.8109	-0.0062
717.9905	0.0078
718.1701	-0.0003
718.3496	-0.0087
718.5292	-0.0035
718.7087	-0.0043
718.8882	0.0037
719.0677	0.0089
719.2472	-0.0036
719.4267	0.0108
719.6061	0.0031
719.7856	0.0126
719.965	0.0057
720.1443	-0.0028
720.3237	0.0104
720.5031	-0.0029
720.6824	0.0114
720.8617	0.0099
721.041	-0.0046
721.2203	0.0065
721.3995	0.0036
721.5788	0.0089
721.758	0.0142
721.9372	-0.0004
722.1164	0.005
722.2956	0.0093
722.4747	0.0023
722.6538	0.0011
722.8329	0.0127
723.012	0.0077
723.1911	0.0029
723.3702	0.0078
723.5492	0.0037
723.7282	0
723.9072	0.0027
724.0862	-0.0089
724.2652	-0.0071
724.4441	-0.0036
724.623	-0.0029
724.8019	0.0089
724.9808	0.0005
725.1597	-0.006
725.3385	0.0067
725.5174	0.0057
725.6962	0.0016
725.875	0.0014
726.0538	0.0081
726.2325	-0.0106
726.4112	0.005
726.59	-0.0055
726.7687	-0.005
726.9474	0.0082
727.126	-0.0002
727.3047	0.0015
727.4833	0.0051
727.6619	-0.0017
727.8405	-0.0008
728.0191	-0.0064
728.1976	0.0064
728.3762	0.0072
728.5547	-0.0027
728.7332	-0.014
728.9116	-0.0002
729.0901	0.0066
729.2686	0.0015
729.447	-0.0004
729.6254	0.0045
729.8038	0.0035
729.9821	-0.0036
730.1605	0.003
730.3388	0.0069
730.5171	-0.0022
730.6954	0.0022
730.8737	0.0049
731.0519	0.0044
731.2302	0.0058
731.4084	0.0119
731.5866	0.0064
731.7648	0.0067
731.9429	-0.0013
732.1211	-0.0099
732.2992	-0.0026
732.4773	-0.009
732.6554	0.0013
732.8335	0.0041
733.0115	0.0063
733.1896	0.0067
733.3676	-0.0073
733.5456	0.0035
733.7235	0.0069
733.9015	0.0049
734.0794	0.0042
734.2574	0.0033
734.4353	0.0055
734.6131	0.0121
734.791	0.0006
734.9689	0.0101
735.1467	0.0091
735.3245	-0.0013
735.5023	-0.0051
735.68	0.0041
735.8578	0.0151
736.0355	-0.0125
736.2132	-0.0052
736.3909	-0.0042
736.5686	-0.0077
736.7463	-0.0015
736.9239	-0.0063
737.1015	-0.0004
737.2791	0.0104
737.4567	-0.0019
737.6343	0.0028
737.8118	0.0112
737.9894	0.0101
738.1669	0.0006
738.3444	0.002
738.5218	0.0062
738.6993	0.0019
738.8767	-0.0037
739.0541	0.0151
739.2315	-0.005
739.4089	0.0005
739.5863	-0.001
739.7636	0.0015
739.9409	-0.0038
740.1182	0.0095
740.2955	0.003
740.4728	-0.0027
740.65	-0.0032
740.8272	-0.0016
741.0044	-0.0117
741.1816	0.0045
741.3588	0.004
741.5359	0.0013
741.7131	-0.0049
741.8902	0.0011
742.0673	-0.0019
742.2444	-0.0088
742.4214	-0.0041
742.5985	-0.0008
742.7755	-0.0066
742.9525	-0.0085
743.1295	-0.0011
743.3064	0.0066
743.4834	0.0092
743.6603	0.002
743.8372	-0.0022
744.0141	0.0027
744.191	0.01
744.3678	0.0115
744.5446	0.0023
744.7215	0.0133
744.8982	0.0059
745.075	-0.0037
745.2518	0.0117
745.4285	0.0081
745.6052	0.0065
745.7819	0.0013
745.9586	-0.0058
746.1353	-0.0029
746.3119	-0.0063
746.4885	-0.0073
746.6651	-0.0003
746.8417	0.0014
747.0183	-0
747.1948	0.0062
747.3714	0.0024
747.5479	0.009
747.7244	-0.0037
747.9008	0.0076
748.0773	0.0037
748.2537	0.0014
748.4301	-0.0112
748.6065	0.0047
748.7829	0.0088
748.9593	0
749.1356	-0.0015
749.3119	0.0068
749.4882	-0.0092
749.6645	0.0054
749.8408	-0.0015
750.017	-0.0056
750.1933	0.0031
750.3695	-0.0122
750.5457	0.0133
750.7218	0.0052
750.898	0.0011
751.0741	0.0005
751.2502	0.0049
751.4263	0.0112
751.6024	0.0099
751.7784	0.01
751.9545	-0.0001
752.1305	-0.0031
752.3065	-0.0049
752.4825	0.0029
752.6584	-0.0036
752.8344	-0.0014
753.0103	-0.0112
753.1862	-0.0017
753.3621	-0.0058
753.5379	0.0041
753.7138	-0.0006
753.8896	0.0074
754.0654	0.0084
754.2412	0.0102
754.417	0.0057
754.5927	-0.0035
754.7685	0.0065
754.9442	0.0011
755.1199	0.0128
755.2956	-0.0048
755.4712	0.0079
755.6469	0.0109
755.8225	0.0049
755.9981	-0.0003
756.1736	0.0112
756.3492	0.0095
756.5248	0.0058
756.7003	0.0098
756.8758	0.0081
757.0513	-0.0072
757.2267	-0.0028
757.4022	0.0106
757.5776	-0.0047
757.753	0.003
757.9284	0.0132
758.1038	0.0162
758.2791	0.002
758.4545	-0.0037
758.6298	0.0075
758.8051	0.003
758.9803	0.0034
759.1556	-0.0008
759.3308	-0.006
759.506	0.0085
759.6812	0.0068
759.8564	0.0109
760.0316	0.0014
760.2067	0.015
760.3819	0.0148
760.557	0.0094
760.732	0.0129
760.9071	-0.0051
761.0821	0.0061
761.2572	0.0117
761.4322	-0.0016
761.6072	0.0021
761.7821	0.0016
761.9571	0.0138
762.132	0.0022
762.3069	-0.0011
762.4818	0.0023
762.6567	0.01
762.8316	0.0003
763.0064	0.0076
763.1812	0.0028
763.356	-0.0017
763.5308	-0.0022
763.7055	0.0024
763.8803	-0.0093
764.055	0.0018
764.2297	-0.0004
764.4044	-0.0025
764.579	0.0001
764.7537	-0.0112
764.9283	0.0042
765.1029	-0.0044
765.2775	-0.0076
765.4521	-0.0054
765.6266	0.0031
765.8011	0.0012
765.9756	-0.0024
766.1501	0.0092
766.3246	-0.0006
766.4991	-0.0033
766.6735	-0.0043
766.8479	0.0059
767.0223	0.0152
767.1967	0.0022
767.371	0.006
767.5454	-0.0047
767.7197	-0
767.894	-0.0074
768.0683	-0.0209
768.2425	0.0095
768.4168	-0.0011
768.591	0.0048
768.7652	0.0045
768.9394	0.0015
769.1135	0.0013
769.2877	0.0063
769.4618	-0.0008
769.6359	0.0061
769.81	0.0063
769.984	0.0001
770.1581	-0.0047
770.3321	0.0028
770.5061	0.0065
770.6801	-0.013
770.8541	-0.0063
771.028	0.009
771.202	-0.0112
771.3759	-0.0009
771.5498	0.0011
771.7236	0.0012
771.8975	-0.0054
772.0713	0.0046
772.2451	0.004
772.4189	0.0064
772.5927	0.0137
772.7665	-0.0058
772.9402	0.0015
773.1139	-0.0069
773.2876	0.0013
773.4613	0.0108
773.635	0.0159
773.8086	0.0067
773.9822	0.0123
774.1558	0.0078
774.3294	-0.0053
774.503	0.0043
774.6765	0.0123
774.8501	0.003
775.0236	0.0149
775.1971	0.014
775.3705	-0.0074
775.544	0.0071
775.7174	0.0047
775.8908	0.0015
776.0642	-0.0019
776.2376	0.0112
776.4109	-0.0032
776.5843	0.0027
776.7576	0.004
776.9309	0.0105
777.1041	0.0107
777.2774	0.0129
777.4506	0.0015
777.6238	-0.0165
777.797	0.0016
777.9702	0.0006
778.1434	-0.0048
778.3165	-0.004
778.4896	-0.0134
778.6627	0.0003
778.8358	-0.0008
779.0089	0.0028
779.1819	-0.0108
779.3549	0.0158
779.5279	0.0008
779.7009	-0.0009
779.8739	-0.0023
780.0468	-0.0047
780.2197	0.008
780.3926	0.0001
780.5655	-0.0018
780.7384	-0.0058
780.9112	0.003
781.0841	0.0064
781.2569	0.0097
781.4297	0.0114
781.6024	0.0127
781.7752	0.0056
781.9479	0.0195
782.1206	-0.0027
782.2933	-0.0031
782.466	-0.0023
782.6386	0.0008
782.8113	-0.0054
782.9839	0.0011
783.1565	0.0171
783.329	-0.0014
783.5016	-0.0007
783.6741	-0.0008
783.8466	-0.0027
784.0191	0.0207
784.1916	-0.0025
784.3641	-0.0042
784.5365	0.0049
784.7089	0.0041
784.8813	-0.0124
785.0537	-0.0055
785.2261	-0.0111
785.3984	-0.009
785.5707	-0.0013
785.743	-0.0023
785.9153	0.0001
786.0876	-0.001
786.2598	-0.0086
786.432	-0.0114
786.6042	0.0059
786.7764	-0.0046
786.9486	0.0143
787.1207	-0.0205
787.2928	0.0001
787.4649	0.0001
787.637	-0.0071
787.8091	-0.0009
787.9811	-0.0053
788.1532	-0.0046
788.3252	0.007
788.4972	-0.0099
788.6691	0.0023
788.8411	0.0119
789.013	-0.0132
789.1849	0.0082
789.3568	-0.0026
789.5287	-0.0046
789.7005	-0.0093
789.8723	-0.0041
790.0442	0.0134
790.2159	-0.0041
790.3877	0.008
790.5595	-0.0069
790.7312	-0.0007
790.9029	-0.0172
791.0746	-0.0056
791.2463	-0.0099
791.4179	-0.009
791.5896	-0.0123
791.7612	-0.0036
791.9328	-0.009
792.1044	-0.0025
792.2759	-0.009
792.4474	-0.0167
792.619	0.0115
792.7905	0.0067
792.9619	-0.0029
793.1334	0.0089
793.3048	0.0061
793.4762	0.0056
793.6476	0.0057
793.819	0.0002
793.9904	0.0119
794.1617	-0.0204
794.333	0.0101
794.5043	-0.0189
794.6756	-0.0115
794.8469	0.0001
795.0181	-0.0032
795.1893	-0.0072
795.3605	0.0089
795.5317	-0.0081
795.7029	-0.0069
795.874	0.0078
796.0452	0.0016
796.2163	0.0018
796.3873	-0.0022
796.5584	0.001
796.7294	0.0022
796.9005	-0.0049
797.0715	0.0018
797.2425	-0.0023
797.4134	0.0115
797.5844	-0.0055
797.7553	-0.0053
797.9262	0.0052
798.0971	-0.001
798.2679	-0.0091
798.4388	-0.0114
798.6096	0.003
798.7804	0.0105
798.9512	-0.0062
799.122	0.0085
799.2927	0.0053
799.4635	0.0133
799.6342	-0.0262
799.8049	0.0099
799.9755	0.0063
800.1462	-0.0007
800.3168	0.0296
800.4874	-0.003
800.658	0.034
800.8286	0.0162
800.9991	0.0101
801.1696	0.0186
801.3402	0.0049
801.5106	0.005
801.6811	0.0089
801.8516	0.0073
802.022	0.0094
802.1924	0.0146
802.3628	0.0044
802.5332	0.0028
802.7035	0.0231
802.8739	-0.0147
803.0442	-0.0025
803.2145	0.0045
803.3847	-0.0142
803.555	-0.0048
803.7252	0.0045
803.8954	-0.0058
804.0656	0.001
804.2358	0.0149
804.4059	0.0112
804.5761	0.017
804.7462	0.0008
804.9163	-0.0031
805.0864	-0.0128
805.2564	0.009
805.4264	0.0021
805.5965	-0.0012
805.7665	0.0081
805.9364	0.0028
806.1064	0.0242
806.2763	-0.0003
806.4462	0.0018
806.6161	0.0018
806.786	0.0074
806.9559	-0.0042
807.1257	0.0039
807.2955	0.004
807.4653	-0.0087
807.6351	-0.006
807.8048	0.0055
807.9746	0.0085
808.1443	0.012
808.314	-0.003
808.4837	-0.0041
808.6533	-0.0086
808.8229	0.0381
808.9926	0.0209
809.1622	-0.0018
809.3317	-0.0043
809.5013	-0.0122
809.6708	0.0173
809.8403	0.0081
810.0098	0.0004
810.1793	0.0037
810.3488	0.0026
810.5182	-0.0141
810.6876	0.0147
810.857	-0.0243
811.0264	0.0193
811.1958	-0.0055
811.3651	-0.004
811.5344	-0.0056
811.7037	-0.0199
811.873	-0.0223
812.0422	-0.0061
812.2115	-0.0097
812.3807	-0.0004
812.5499	-0.0031
812.7191	0.0205
812.8882	-0.0124
813.0574	-0.0056
813.2265	0.0095
813.3956	0.0069
813.5646	0.0079
813.7337	-0.0184
813.9027	0.0215
814.0718	0.0378
814.2407	0.0354
814.4097	-0.0007
814.5787	-0.0142
814.7476	0.0061
814.9165	0.0094
815.0854	0.0013
815.2543	-0.001
815.4232	0.0008
815.592	0.0033
815.7608	-0.0034
815.9296	0.0052
816.0984	0.0153
816.2671	0.0055
816.4359	-0.0038
816.6046	0.0049
816.7733	0.0129
816.942	-0.0237
817.1106	0.0087
817.2793	0.021
817.4479	0.0091
817.6165	0.0177
817.785	0.0021
817.9536	-0.0169
818.1221	0.0053
818.2906	0.0092
818.4591	-0.0034
818.6276	0.0049
818.7961	0.0191
818.9645	0.0065
819.1329	0.012
819.3013	0.0067
819.4697	0.0204
819.638	0.0152
819.8064	0.0112
819.9747	0.0395
820.143	-0.002
820.3113	-0.0027
820.4795	0.0272
820.6477	0.0261
820.816	0.025
820.9842	0.0067
821.1523	-0.0002
821.3205	0.0081
821.4886	0.0183
821.6567	-0.0132
821.8248	0.0121
821.9929	0.0156
822.1609	0.0265
822.329	-0.0069
822.497	0.0152
822.665	-0.0123
822.833	-0.0154
823.0009	0.0143
823.1688	0.0028
823.3367	0.0142
823.5046	0.0202
823.6725	0.0386
823.8404	-0.0119
824.0082	0.0202
824.176	0.0159
824.3438	0.0062
824.5116	-0.001
824.6793	0.0199
824.847	-0.0047
825.0147	-0.0218
825.1824	0.0226
825.3501	0.0217
825.5177	-0.0129
825.6854	-0.0028
825.853	0.0053
826.0206	-0.0016
826.1881	0.0107
826.3557	-0.0404
826.5232	0.0015
826.6907	-0.0414
826.8582	0.0173
827.0257	-0.0021
827.1931	0.0215
827.3605	0.0089
827.528	-0.0193
827.6953	-0.0038
827.8627	-0.0058
828.03	0.0447
828.1974	0.0239
828.3647	-0.0392
828.532	-0.0052
828.6992	0.0288
828.8665	0.0128
829.0337	-0.0063
829.2009	-0.0012
829.3681	-0.0038
829.5352	0.0258
829.7024	-0.0187
829.8695	-0.0285
830.0366	0.0569
830.2037	0.027
830.3707	-0.0167
830.5378	0.0073
830.7048	-0.0008
830.8718	-0.0078
831.0388	-0.0275
831.2057	-0.0061
831.3727	0.031
831.5396	-0.024
831.7065	-0.0313
831.8734	0.0168
832.0402	-0.0302
832.2071	-0.0003
832.3739	-0.0437
832.5407	0.0591
832.7075	0.0182
832.8742	-0.0356
833.041	0.0003
833.2077	0.0114
833.3744	0.0117
833.541	-0.0051
833.7077	-0.021
833.8743	-0.0042
834.0409	-0.0153
834.2075	0.0035
834.3741	-0.01
834.5407	0.0185
834.7072	-0.0153
834.8737	0.0003
835.0402	-0.001
835.2067	0.0028
835.3731	0.0312
835.5395	0.0233
835.706	0.0155
835.8723	0.0135
836.0387	0.0319
836.2051	-0.0233
836.3714	0.0264
836.5377	0.0561
836.704	-0.0259
836.8703	-0.0733
837.0365	-0.0126
837.2027	-0.0108
837.3689	-0.0154
837.5351	0.0019
837.7013	0.0013
837.8674	-0.0117
838.0335	-0.0064
838.1997	0.0037
838.3657	-0.0679
838.5318	0.0313
838.6978	-0.0166
838.8639	0.0288
839.0299	0.028
839.1958	0.0059
839.3618	0.0446
839.5277	0.0013
839.6937	-0.0221
839.8596	-0.0014
840.0254	0.0046
840.1913	0.0286
840.3571	-0.0159
840.523	-0.044
840.6888	-0.0424
840.8545	-0.0495
841.0203	0.0174
841.186	0.0021
841.3517	0.0875
841.5174	0.0284
841.6831	0.0441
841.8488	-0.0146
842.0144	-0.0139
842.18	-0.0004
842.3456	-0.0014
842.5112	-0.0502
842.6767	-0.0408
842.8422	-0.0254
843.0077	-0.0196
843.1732	-0.0265
843.3387	0.0156
843.5042	-0.0773
843.6696	-0.016
843.835	0.0126
844.0004	0.0234
844.1657	0.0426
844.3311	-0.0425
844.4964	-0.0997
844.6617	-0.0419
844.827	-0.0436
844.9923	0.0351
845.1575	-0.0041
845.3227	-0.0131
845.4879	-0.0747
845.6531	-0.0629
845.8183	-0.0643
845.9834	-0.0455
846.1485	-0.007
846.3136	0.0019
846.4787	-0.0928
846.6438	0.0189
846.8088	-0.0551
846.9738	-0.0461
847.1388	-0.0586
847.3038	0.013
847.4687	-0.1388
847.6337	0.0059
847.7986	-0.0098
847.9635	-0.0138
848.1284	0.016
848.2932	-0.0262
848.458	-0.0398
848.6228	0.0617
848.7876	0.1052
848.9524	-0.1057
849.1172	-0.0361
849.2819	-0.0457
849.4466	-0.098
849.6113	-0.0075
849.7759	-0.0518
849.9406	-0.054
850.1052	0.07
850.2698	-0.0249
850.4344	-0.0491
850.599	-0.0642
850.7635	0.0319
850.928	-0.1282
851.0925	0.0455
851.257	-0.0349
851.4215	0.0288
851.5859	-0.0033
851.7503	-0.0068
851.9147	-0.0057
852.0791	-0.0506
852.2434	-0.0492
852.4078	0.039
852.5721	0.0258
852.7364	-0.0324
852.9007	-0.2013
853.0649	-0.063
853.2291	-0.037
853.3934	0.0035
853.5575	0.041
853.7217	-0.0884
853.8859	-0.2236
854.05	-0.1873
854.2141	-0.0115
854.3782	-0.113
854.5423	-0.1417
854.7063	0.0057
854.8703	-0.1334
855.0343	-0.0993
855.1983	-0.2387
855.3623	0.0623
855.5262	-0.0789
855.6901	-0.0929
855.854	-0.0132
856.0179	-0.0077
856.1818	0.0317
856.3456	-0.0586
856.5094	-0.1849
856.6732	-0.1073
856.837	-0.1271
857.0008	-0.0517
857.1645	-0.0279
857.3282	-0.2496
857.4919	0.098
857.6556	-0.0296
857.8192	0.127
857.9828	-0.0314
858.1465	0.0345
858.31	-0.1758
858.4736	0.0937
858.6372	-0.2668
858.8007	-0.2651
858.9642	0.1232
859.1277	0.0149
859.2911	0.0462
859.4546	-0.107
859.618	-0.3573
859.7814	-0.0277
859.9448	-0.1626
860.1081	0.1317
860.2715	0.1326
860.4348	0.0644
860.5981	-0.0116
860.7614	-0.0108
860.9246	0.0118
861.0879	-0.1065
861.2511	-0.0225
861.4143	-0.3381
861.5774	0.0749
861.7406	-0.1513
861.9037	0.0573
862.0668	-0.1667
862.2299	-0.0036
862.393	-0.6159
862.556	0.0557
862.7191	-0.1596
862.8821	0.1921
863.0451	0.3112
863.208	0.1747
863.371	-0.1012
863.5339	-0.0276
863.6968	0.084
863.8597	1.1557
864.0225	-0.21
864.1854	0.1068
864.3482	0.805
864.511	0.141
864.6737	0.32
864.8365	0.5697
864.9992	-0.4525
865.1619	-0.3052
865.3246	-0.3105
865.4873	-0.0263
865.65	-0
865.8126	0.4479
865.9752	0.5299
866.1378	-0.0509
866.3004	-0
866.4629	0.3163
866.6254	-0.091
866.7879	-0.0908
866.9504	-0.1574
867.1129	-0
867.2753	0.2795
867.4377	0.2594
867.6001	-0.3417
867.7625	0.0558
867.9249	-0.8986
868.0872	0.243
868.2495	-0.0319
868.4118	-0.4623
868.5741	-0.2702
868.7363	-0.3035
868.8986	1.0374
869.0608	-0.1111
869.223	0.0672
869.3851	1.0271
869.5473	-0
869.7094	0.1247
869.8715	-0.6682
870.0336	-0.704
870.1957	-0.4188
870.3577	-0.9224
870.5197	-0.0825
870.6817	0.19
870.8437	-0.1238
871.0057	-0
871.1676	-0.8831
871.3295	0.695
871.4914	-0.9105
871.6533	-0.3524
871.8151	1.3847
871.977	-0
872.1388	-0
872.3006	-0
872.4623	-0
872.6241	0.1818
872.7858	-0.0449
872.9475	0.0787
873.1092	0.1784
873.2709	-0
873.4325	-0.3152
873.5941	-0.1471
873.7557	-0
873.9173	-0
874.0789	-0
874.2404	0.4293
874.4019	-0.043
874.5634	-0.0862
874.7249	-0.2276
874.8863	0.9239
875.0478	0.2992
875.2092	-0
875.3706	0.0578
875.5319	-0.6962
875.6933	-0
875.8546	0.2973
876.0159	-0.1393
876.1772	0.3035
876.3385	-0
876.4997	-0.003
876.6609	-0.4331
876.8221	-0
876.9833	0.689
877.1445	-0
877.3056	0.1682
877.4667	-0.4525
877.6278	-0
877.7889	-0.8991
877.9499	-0
878.111	-0
878.272	-0.9756
878.433	-0
878.5939	-0
878.7549	-0.2101
878.9158	-0.8627
879.0767	-0
879.2376	-0.0225
879.3984	-0.1003
879.5593	-0
879.7201	0.1009
879.8809	-0.7758
880.0417	-0.6559
880.2024	0.1202
880.3632	-0.6922
880.5239	0.1527
880.6846	0.1242
880.8452	-2.5539
881.0059	-0.716
881.1665	-0.1116
881.3271	-0
881.4877	-0.5802
881.6483	-0.6414
881.8088	-0.2728
881.9693	0.3743
882.1298	0.3743
882.2903	0.3743
