Data from MonoPyChalIsomerACN10uM440nmA_Absorbance_15-27-15-194.txt Node
Date: Fri Jul 05 15:27:15 BST 2024
User: LASERRRRR
Spectrometer: FLMT03099
Trigger mode: 0
Integration Time (sec): 1.000000E-1
Scans to average: 1
Electric dark correction enabled: true
Nonlinearity correction enabled: false
Boxcar width: 0
XAxis mode: Wavelengths
Number of Pixels in Spectrum: 3648
>>>>>Begin Spectral Data<<<<<
179.3399	-0.155
179.5586	-0.155
179.7771	-0.155
179.9957	-0.1679
180.2143	-0
180.4329	-0.0476
180.6514	0.9929
180.8699	0.301
181.0885	-0.1265
181.307	0.2873
181.5255	-0.8022
181.744	-0
181.9625	-0
182.181	0.301
182.3994	0.6277
182.6179	-0.0023
182.8363	1.2468
183.0547	-0.1158
183.2732	0.1146
183.4916	0.1107
183.71	0.0082
183.9284	0.0709
184.1467	-0.0964
184.3651	0.1669
184.5835	-0.1962
184.8018	-0.0272
185.0201	0.0004
185.2385	0.016
185.4568	0.5319
185.6751	0.0182
185.8934	0.0391
186.1117	-0.1198
186.3299	0.0228
186.5482	0.0329
186.7664	-0.1304
186.9847	0.0143
187.2029	-0.049
187.4211	0.0762
187.6393	0.1217
187.8575	-0.0806
188.0757	0.1428
188.2939	0.0605
188.512	0.6515
188.7302	0.2782
188.9483	0.1607
189.1665	0.0591
189.3846	-0.2663
189.6027	0.092
189.8208	0.1013
190.0389	0.132
190.257	0.1688
190.475	0.0564
190.6931	0.1187
190.9111	0.2785
191.1292	0.1496
191.3472	0.3692
191.5652	0.2501
191.7832	0.4365
192.0012	0.6816
192.2192	0.2908
192.4371	0.2575
192.6551	0.273
192.873	0.4444
193.091	0.2396
193.3089	0.7628
193.5268	0.5373
193.7447	0.8008
193.9626	0.4401
194.1805	0.6409
194.3984	0.9406
194.6162	0.4862
194.8341	0.4546
195.0519	0.4975
195.2697	0.7182
195.4875	0.6536
195.7054	0.6083
195.9231	0.4426
196.1409	0.6579
196.3587	0.6218
196.5765	0.7619
196.7942	0.6397
197.012	0.5336
197.2297	0.5439
197.4474	1.1928
197.6651	0.6369
197.8828	0.5789
198.1005	0.6631
198.3182	0.6011
198.5358	0.6659
198.7535	0.5077
198.9711	0.5214
199.1888	0.6503
199.4064	0.7987
199.624	0.5759
199.8416	0.6224
200.0592	0.7911
200.2767	0.7183
200.4943	0.619
200.7119	0.7628
200.9294	0.724
201.1469	0.5512
201.3645	0.6522
201.582	0.6319
201.7995	0.6404
202.017	0.6369
202.2344	0.5929
202.4519	0.7768
202.6694	0.6764
202.8868	0.5604
203.1042	0.6542
203.3217	0.7115
203.5391	0.5857
203.7565	0.5667
203.9739	0.6608
204.1913	0.5386
204.4086	0.5878
204.626	0.7092
204.8433	0.6589
205.0607	0.6179
205.278	0.5884
205.4953	0.6548
205.7126	0.7393
205.9299	0.7338
206.1472	0.6901
206.3644	0.613
206.5817	0.7206
206.7989	0.7682
207.0162	0.6514
207.2334	0.6466
207.4506	0.7605
207.6678	0.7549
207.885	0.6993
208.1022	0.6754
208.3194	0.6377
208.5365	0.6335
208.7537	0.6491
208.9708	0.5776
209.1879	0.6663
209.405	0.7182
209.6222	0.6585
209.8392	0.6774
210.0563	0.6291
210.2734	0.6851
210.4905	0.5916
210.7075	0.6695
210.9245	0.6333
211.1416	0.7056
211.3586	0.6503
211.5756	0.6231
211.7926	0.5778
212.0096	0.5911
212.2265	0.5973
212.4435	0.61
212.6604	0.5564
212.8774	0.5829
213.0943	0.5733
213.3112	0.5329
213.5281	0.5444
213.745	0.5009
213.9619	0.5469
214.1788	0.4747
214.3956	0.4648
214.6125	0.483
214.8293	0.4421
215.0461	0.4688
215.2629	0.4579
215.4798	0.4627
215.6965	0.4334
215.9133	0.4117
216.1301	0.4139
216.3469	0.4251
216.5636	0.4192
216.7803	0.3775
216.9971	0.4325
217.2138	0.3811
217.4305	0.3664
217.6472	0.3224
217.8639	0.3911
218.0805	0.3477
218.2972	0.317
218.5138	0.3402
218.7305	0.3275
218.9471	0.3324
219.1637	0.3032
219.3803	0.297
219.5969	0.2877
219.8135	0.2454
220.0301	0.2742
220.2466	0.2865
220.4632	0.2458
220.6797	0.2316
220.8962	0.231
221.1127	0.2419
221.3292	0.2565
221.5457	0.2422
221.7622	0.237
221.9787	0.2498
222.1951	0.2483
222.4116	0.2273
222.628	0.2697
222.8444	0.263
223.0608	0.2489
223.2772	0.2497
223.4936	0.2598
223.71	0.2453
223.9264	0.2684
224.1427	0.2652
224.3591	0.2548
224.5754	0.255
224.7917	0.2692
225.008	0.2541
225.2243	0.2607
225.4406	0.2794
225.6569	0.2616
225.8732	0.2672
226.0894	0.2404
226.3057	0.2473
226.5219	0.271
226.7381	0.2645
226.9543	0.2762
227.1705	0.2799
227.3867	0.2886
227.6029	0.2959
227.8191	0.2967
228.0352	0.3005
228.2513	0.3175
228.4675	0.3097
228.6836	0.2941
228.8997	0.2813
229.1158	0.2891
229.3319	0.31
229.548	0.311
229.764	0.329
229.9801	0.3429
230.1961	0.3244
230.4121	0.3137
230.6282	0.3478
230.8442	0.3074
231.0602	0.3454
231.2761	0.3638
231.4921	0.3335
231.7081	0.3551
231.924	0.3485
232.14	0.3565
232.3559	0.3322
232.5718	0.3391
232.7877	0.3614
233.0036	0.3483
233.2195	0.3548
233.4353	0.3495
233.6512	0.3701
233.867	0.3677
234.0829	0.3613
234.2987	0.3523
234.5145	0.3686
234.7303	0.3619
234.9461	0.3778
235.1619	0.3597
235.3776	0.3894
235.5934	0.3808
235.8091	0.3621
236.0249	0.3723
236.2406	0.3926
236.4563	0.387
236.672	0.3946
236.8877	0.3827
237.1034	0.3934
237.319	0.3939
237.5347	0.4089
237.7503	0.3868
237.966	0.4166
238.1816	0.4104
238.3972	0.3782
238.6128	0.3929
238.8284	0.3965
239.0439	0.4043
239.2595	0.3925
239.475	0.4012
239.6906	0.4225
239.9061	0.382
240.1216	0.3996
240.3371	0.4041
240.5526	0.4021
240.7681	0.4027
240.9836	0.3969
241.199	0.3955
241.4145	0.3959
241.6299	0.3701
241.8453	0.369
242.0607	0.3744
242.2761	0.3655
242.4915	0.3627
242.7069	0.3515
242.9223	0.364
243.1376	0.3527
243.353	0.3504
243.5683	0.3423
243.7836	0.3231
243.9989	0.3175
244.2142	0.2961
244.4295	0.3217
244.6448	0.3086
244.86	0.3025
245.0753	0.2905
245.2905	0.2914
245.5057	0.2698
245.721	0.2835
245.9362	0.2745
246.1514	0.2717
246.3665	0.259
246.5817	0.2787
246.7969	0.2654
247.012	0.2492
247.2271	0.2353
247.4423	0.2622
247.6574	0.2289
247.8725	0.2348
248.0876	0.2223
248.3026	0.2357
248.5177	0.2233
248.7328	0.2002
248.9478	0.1984
249.1628	0.2102
249.3779	0.2047
249.5929	0.1943
249.8079	0.2148
250.0228	0.2031
250.2378	0.2028
250.4528	0.196
250.6677	0.1788
250.8827	0.2023
251.0976	0.2032
251.3125	0.1965
251.5274	0.1719
251.7423	0.1838
251.9572	0.1766
252.172	0.1829
252.3869	0.1828
252.6017	0.1806
252.8166	0.1626
253.0314	0.1567
253.2462	0.1698
253.461	0.1705
253.6758	0.1618
253.8906	0.1697
254.1053	0.1565
254.3201	0.1687
254.5348	0.1821
254.7496	0.1887
254.9643	0.1687
255.179	0.1717
255.3937	0.16
255.6083	0.1813
255.823	0.1799
256.0377	0.1705
256.2523	0.1558
256.467	0.1563
256.6816	0.1663
256.8962	0.1692
257.1108	0.16
257.3254	0.1674
257.54	0.1652
257.7545	0.1714
257.9691	0.1664
258.1836	0.1767
258.3981	0.1828
258.6127	0.1742
258.8272	0.1661
259.0417	0.1604
259.2561	0.1593
259.4706	0.1596
259.6851	0.1597
259.8995	0.1664
260.114	0.1641
260.3284	0.1617
260.5428	0.1604
260.7572	0.1655
260.9716	0.1768
261.186	0.1536
261.4003	0.1677
261.6147	0.1692
261.829	0.1586
262.0433	0.1647
262.2577	0.1594
262.472	0.1641
262.6863	0.1463
262.9005	0.1663
263.1148	0.1654
263.3291	0.1459
263.5433	0.1642
263.7576	0.1669
263.9718	0.1632
264.186	0.1547
264.4002	0.1456
264.6144	0.164
264.8286	0.169
265.0427	0.1612
265.2569	0.1626
265.471	0.1592
265.6851	0.1544
265.8993	0.1536
266.1134	0.1485
266.3275	0.1597
266.5415	0.1586
266.7556	0.1617
266.9697	0.157
267.1837	0.1728
267.3978	0.1569
267.6118	0.172
267.8258	0.1713
268.0398	0.1515
268.2538	0.1672
268.4677	0.1524
268.6817	0.1563
268.8957	0.1608
269.1096	0.1594
269.3235	0.1656
269.5374	0.1544
269.7514	0.1535
269.9652	0.1497
270.1791	0.1565
270.393	0.1498
270.6068	0.1582
270.8207	0.1476
271.0345	0.1574
271.2483	0.1586
271.4622	0.1513
271.676	0.1569
271.8897	0.1471
272.1035	0.1489
272.3173	0.1405
272.531	0.1472
272.7448	0.1395
272.9585	0.1463
273.1722	0.1536
273.3859	0.1405
273.5996	0.1404
273.8133	0.1428
274.0269	0.1426
274.2406	0.1273
274.4542	0.1401
274.6679	0.1405
274.8815	0.1488
275.0951	0.1514
275.3087	0.1541
275.5223	0.1354
275.7358	0.1428
275.9494	0.1451
276.1629	0.1364
276.3765	0.1459
276.59	0.1507
276.8035	0.1369
277.017	0.1475
277.2305	0.153
277.444	0.1552
277.6574	0.1346
277.8709	0.1569
278.0843	0.132
278.2978	0.1303
278.5112	0.1332
278.7246	0.1426
278.938	0.1412
279.1513	0.151
279.3647	0.1475
279.5781	0.1419
279.7914	0.1418
280.0047	0.1573
280.2181	0.1567
280.4314	0.1517
280.6447	0.1579
280.8579	0.153
281.0712	0.1543
281.2845	0.1546
281.4977	0.1533
281.711	0.144
281.9242	0.1489
282.1374	0.1658
282.3506	0.1504
282.5638	0.1543
282.7769	0.1572
282.9901	0.1479
283.2033	0.1616
283.4164	0.1662
283.6295	0.1325
283.8426	0.1365
284.0557	0.1529
284.2688	0.172
284.4819	0.154
284.695	0.1577
284.908	0.1652
285.1211	0.1501
285.3341	0.1611
285.5471	0.1715
285.7601	0.1545
285.9731	0.1371
286.1861	0.1546
286.3991	0.1619
286.612	0.1569
286.825	0.1586
287.0379	0.1723
287.2508	0.1552
287.4637	0.1568
287.6766	0.1524
287.8895	0.1575
288.1024	0.1756
288.3152	0.172
288.5281	0.1464
288.7409	0.1581
288.9538	0.1494
289.1666	0.159
289.3794	0.1673
289.5922	0.1544
289.8049	0.1514
290.0177	0.1574
290.2304	0.1527
290.4432	0.1605
290.6559	0.1626
290.8686	0.169
291.0813	0.1629
291.294	0.1504
291.5067	0.1644
291.7194	0.1573
291.932	0.1849
292.1447	0.1674
292.3573	0.1545
292.5699	0.1555
292.7825	0.1649
292.9951	0.1649
293.2077	0.1611
293.4203	0.1666
293.6328	0.1482
293.8454	0.1677
294.0579	0.154
294.2704	0.1736
294.4829	0.1484
294.6954	0.1632
294.9079	0.1643
295.1204	0.1689
295.3328	0.1652
295.5453	0.1649
295.7577	0.1676
295.9701	0.1573
296.1825	0.1574
296.3949	0.1601
296.6073	0.1576
296.8197	0.1581
297.0321	0.1655
297.2444	0.1449
297.4567	0.1592
297.6691	0.1685
297.8814	0.1589
298.0937	0.1598
298.306	0.1516
298.5182	0.1589
298.7305	0.1689
298.9428	0.1544
299.155	0.1632
299.3672	0.1625
299.5794	0.1584
299.7916	0.1507
300.0038	0.1655
300.216	0.1683
300.4282	0.1618
300.6403	0.1563
300.8525	0.1559
301.0646	0.1505
301.2767	0.17
301.4888	0.15
301.7009	0.1521
301.913	0.1649
302.125	0.1661
302.3371	0.159
302.5491	0.157
302.7612	0.1848
302.9732	0.153
303.1852	0.161
303.3972	0.1582
303.6092	0.1461
303.8211	0.1533
304.0331	0.1482
304.245	0.1495
304.457	0.1482
304.6689	0.1606
304.8808	0.1645
305.0927	0.1472
305.3046	0.1437
305.5164	0.1533
305.7283	0.1367
305.9401	0.1547
306.152	0.1444
306.3638	0.1573
306.5756	0.1583
306.7874	0.1507
306.9992	0.1393
307.2109	0.1337
307.4227	0.123
307.6344	0.1287
307.8462	0.1497
308.0579	0.1373
308.2696	0.1302
308.4813	0.1323
308.693	0.1344
308.9046	0.1279
309.1163	0.124
309.328	0.1277
309.5396	0.1198
309.7512	0.1249
309.9628	0.1128
310.1744	0.1251
310.386	0.1224
310.5976	0.1283
310.8091	0.1151
311.0207	0.115
311.2322	0.1177
311.4437	0.1177
311.6552	0.1121
311.8667	0.124
312.0782	0.1042
312.2897	0.1062
312.5012	0.0981
312.7126	0.0978
312.924	0.1002
313.1355	0.1093
313.3469	0.1117
313.5583	0.1039
313.7696	0.1045
313.981	0.1045
314.1924	0.0975
314.4037	0.1069
314.6151	0.1077
314.8264	0.1009
315.0377	0.0954
315.249	0.1038
315.4603	0.1035
315.6716	0.1077
315.8828	0.0919
316.0941	0.0963
316.3053	0.0911
316.5165	0.09
316.7277	0.0954
316.9389	0.109
317.1501	0.1007
317.3613	0.1086
317.5724	0.0789
317.7836	0.1111
317.9947	0.0888
318.2058	0.1074
318.417	0.0988
318.6281	0.0865
318.8391	0.0963
319.0502	0.1029
319.2613	0.0992
319.4723	0.1065
319.6834	0.1081
319.8944	0.0904
320.1054	0.0915
320.3164	0.1037
320.5274	0.0943
320.7383	0.0968
320.9493	0.093
321.1602	0.1024
321.3712	0.0888
321.5821	0.1003
321.793	0.0982
322.0039	0.1098
322.2148	0.0938
322.4257	0.0965
322.6365	0.1101
322.8474	0.1079
323.0582	0.0921
323.269	0.1012
323.4798	0.1051
323.6906	0.0972
323.9014	0.1025
324.1122	0.1022
324.3229	0.0847
324.5337	0.1025
324.7444	0.0907
324.9551	0.1141
325.1658	0.1023
325.3765	0.1106
325.5872	0.0999
325.7979	0.1039
326.0085	0.1043
326.2192	0.1089
326.4298	0.1065
326.6404	0.0912
326.851	0.1039
327.0616	0.0942
327.2722	0.1129
327.4828	0.1047
327.6933	0.1045
327.9039	0.1131
328.1144	0.1121
328.3249	0.1067
328.5354	0.0996
328.7459	0.1098
328.9564	0.1053
329.1669	0.1022
329.3773	0.1066
329.5878	0.1004
329.7982	0.0994
330.0086	0.1034
330.219	0.1127
330.4294	0.1018
330.6398	0.098
330.8502	0.1015
331.0605	0.1083
331.2708	0.1113
331.4812	0.115
331.6915	0.1159
331.9018	0.1051
332.1121	0.1031
332.3224	0.1099
332.5326	0.1116
332.7429	0.1036
332.9531	0.1236
333.1633	0.1008
333.3735	0.1042
333.5837	0.1053
333.7939	0.1018
334.0041	0.128
334.2143	0.1253
334.4244	0.1075
334.6346	0.097
334.8447	0.1129
335.0548	0.0997
335.2649	0.1
335.475	0.1228
335.685	0.103
335.8951	0.1125
336.1051	0.1097
336.3152	0.1248
336.5252	0.1078
336.7352	0.1139
336.9452	0.1107
337.1552	0.1113
337.3652	0.1004
337.5751	0.0961
337.7851	0.1109
337.995	0.0922
338.2049	0.1194
338.4148	0.106
338.6247	0.1082
338.8346	0.1061
339.0445	0.114
339.2543	0.1031
339.4642	0.1134
339.674	0.1078
339.8838	0.1137
340.0936	0.1167
340.3034	0.1291
340.5132	0.1203
340.7229	0.124
340.9327	0.1167
341.1424	0.1084
341.3522	0.1338
341.5619	0.1297
341.7716	0.116
341.9813	0.1141
342.1909	0.1194
342.4006	0.117
342.6102	0.1381
342.8199	0.1293
343.0295	0.1258
343.2391	0.1219
343.4487	0.1334
343.6583	0.124
343.8679	0.1271
344.0774	0.1264
344.287	0.1298
344.4965	0.123
344.706	0.1395
344.9155	0.1181
345.125	0.1289
345.3345	0.13
345.544	0.1241
345.7534	0.1262
345.9629	0.1212
346.1723	0.1314
346.3817	0.1244
346.5911	0.1274
346.8005	0.1336
347.0099	0.1244
347.2193	0.1443
347.4286	0.1276
347.638	0.1311
347.8473	0.1231
348.0566	0.1328
348.2659	0.1409
348.4752	0.1354
348.6845	0.1234
348.8937	0.132
349.103	0.1508
349.3122	0.129
349.5214	0.125
349.7306	0.1517
349.9398	0.1394
350.149	0.1433
350.3582	0.1375
350.5674	0.1509
350.7765	0.1443
350.9856	0.1327
351.1948	0.1328
351.4039	0.124
351.613	0.1272
351.822	0.1362
352.0311	0.1402
352.2402	0.1347
352.4492	0.1485
352.6582	0.1488
352.8672	0.1492
353.0762	0.1557
353.2852	0.1381
353.4942	0.1396
353.7032	0.1529
353.9121	0.1531
354.1211	0.1443
354.33	0.1552
354.5389	0.1708
354.7478	0.1535
354.9567	0.1463
355.1655	0.1418
355.3744	0.1575
355.5833	0.1642
355.7921	0.1767
356.0009	0.1453
356.2097	0.1652
356.4185	0.1659
356.6273	0.1597
356.8361	0.159
357.0448	0.1515
357.2536	0.1471
357.4623	0.1509
357.671	0.1655
357.8797	0.1715
358.0884	0.1665
358.2971	0.1646
358.5057	0.1584
358.7144	0.1667
358.923	0.1775
359.1316	0.1725
359.3402	0.1666
359.5488	0.1717
359.7574	0.1589
359.966	0.1769
360.1746	0.1766
360.3831	0.1828
360.5916	0.1547
360.8002	0.165
361.0087	0.1756
361.2172	0.1815
361.4256	0.1733
361.6341	0.18
361.8426	0.1859
362.051	0.1744
362.2594	0.1716
362.4678	0.1851
362.6762	0.2095
362.8846	0.1919
363.093	0.1822
363.3014	0.1913
363.5097	0.1543
363.718	0.1775
363.9264	0.1891
364.1347	0.1764
364.343	0.2007
364.5513	0.1936
364.7595	0.1987
364.9678	0.1902
365.176	0.1953
365.3842	0.1909
365.5925	0.1933
365.8007	0.1883
366.0089	0.1925
366.217	0.19
366.4252	0.1979
366.6333	0.2004
366.8415	0.198
367.0496	0.1835
367.2577	0.204
367.4658	0.2154
367.6739	0.2011
367.882	0.1973
368.09	0.198
368.2981	0.213
368.5061	0.1927
368.7141	0.2049
368.9221	0.2003
369.1301	0.2097
369.3381	0.2074
369.5461	0.2084
369.754	0.211
369.962	0.2172
370.1699	0.2108
370.3778	0.2196
370.5857	0.1948
370.7936	0.2186
371.0015	0.2155
371.2093	0.2232
371.4172	0.2327
371.625	0.2016
371.8328	0.2062
372.0406	0.2182
372.2484	0.22
372.4562	0.2385
372.664	0.2213
372.8717	0.2403
373.0795	0.2007
373.2872	0.2248
373.4949	0.2386
373.7026	0.219
373.9103	0.2292
374.118	0.2176
374.3256	0.2129
374.5333	0.2199
374.7409	0.2185
374.9485	0.2549
375.1561	0.2309
375.3637	0.2351
375.5713	0.2249
375.7789	0.2228
375.9864	0.2263
376.194	0.2314
376.4015	0.2369
376.609	0.2415
376.8165	0.2252
377.024	0.2317
377.2315	0.2322
377.4389	0.2399
377.6464	0.2353
377.8538	0.2383
378.0612	0.2421
378.2686	0.2332
378.476	0.2525
378.6834	0.2478
378.8908	0.2407
379.0981	0.229
379.3055	0.2521
379.5128	0.2432
379.7201	0.2247
379.9274	0.2252
380.1347	0.2421
380.342	0.2516
380.5492	0.2475
380.7565	0.2521
380.9637	0.2464
381.1709	0.2555
381.3781	0.2517
381.5853	0.2567
381.7925	0.2505
381.9997	0.2498
382.2068	0.2656
382.4139	0.2599
382.6211	0.2363
382.8282	0.2675
383.0353	0.2393
383.2424	0.2433
383.4494	0.2594
383.6565	0.2397
383.8635	0.2392
384.0706	0.2576
384.2776	0.2591
384.4846	0.2519
384.6916	0.2464
384.8986	0.2556
385.1055	0.263
385.3125	0.2537
385.5194	0.2331
385.7263	0.2529
385.9333	0.2629
386.1402	0.2634
386.347	0.2624
386.5539	0.2299
386.7608	0.2539
386.9676	0.2408
387.1744	0.2434
387.3813	0.2523
387.5881	0.2591
387.7948	0.2321
388.0016	0.2562
388.2084	0.2558
388.4151	0.2537
388.6219	0.2359
388.8286	0.2618
389.0353	0.2627
389.242	0.2395
389.4487	0.2359
389.6553	0.2294
389.862	0.2142
390.0686	0.2228
390.2753	0.269
390.4819	0.241
390.6885	0.2296
390.8951	0.2394
391.1016	0.2306
391.3082	0.2338
391.5147	0.2316
391.7213	0.2325
391.9278	0.2234
392.1343	0.231
392.3408	0.2377
392.5473	0.224
392.7537	0.2223
392.9602	0.2218
393.1666	0.2228
393.373	0.2172
393.5794	0.2336
393.7858	0.2222
393.9922	0.2232
394.1986	0.2342
394.4049	0.2351
394.6113	0.2188
394.8176	0.2123
395.0239	0.212
395.2302	0.2162
395.4365	0.2122
395.6428	0.2108
395.8491	0.2171
396.0553	0.2074
396.2615	0.2209
396.4678	0.2072
396.674	0.1933
396.8802	0.2073
397.0863	0.2302
397.2925	0.2005
397.4987	0.1957
397.7048	0.2006
397.9109	0.2003
398.117	0.1942
398.3231	0.1938
398.5292	0.2093
398.7353	0.2277
398.9413	0.1988
399.1474	0.2077
399.3534	0.207
399.5594	0.2033
399.7654	0.2236
399.9714	0.2038
400.1774	0.2109
400.3833	0.2057
400.5893	0.2089
400.7952	0.2055
401.0011	0.2071
401.207	0.2127
401.4129	0.2077
401.6188	0.2117
401.8247	0.2093
402.0305	0.2095
402.2364	0.1958
402.4422	0.2152
402.648	0.1992
402.8538	0.2165
403.0596	0.1906
403.2654	0.2002
403.4711	0.1949
403.6768	0.2141
403.8826	0.2264
404.0883	0.2072
404.294	0.2202
404.4997	0.1953
404.7054	0.2033
404.911	0.2044
405.1167	0.2126
405.3223	0.2075
405.5279	0.209
405.7335	0.2135
405.9391	0.215
406.1447	0.1977
406.3502	0.2252
406.5558	0.2053
406.7613	0.1954
406.9668	0.2214
407.1724	0.2154
407.3778	0.1848
407.5833	0.2049
407.7888	0.1779
407.9942	0.2224
408.1997	0.1979
408.4051	0.2055
408.6105	0.1945
408.8159	0.194
409.0213	0.1962
409.2267	0.2049
409.432	0.2014
409.6374	0.2153
409.8427	0.1972
410.048	0.2072
410.2533	0.2068
410.4586	0.215
410.6639	0.2098
410.8691	0.1797
411.0744	0.2151
411.2796	0.1815
411.4848	0.1849
411.69	0.2006
411.8952	0.2245
412.1004	0.1886
412.3056	0.2151
412.5107	0.1987
412.7158	0.2193
412.921	0.2027
413.1261	0.2002
413.3312	0.1963
413.5362	0.1845
413.7413	0.1981
413.9464	0.1994
414.1514	0.1875
414.3564	0.1996
414.5614	0.1797
414.7664	0.1956
414.9714	0.1778
415.1764	0.194
415.3813	0.2126
415.5863	0.188
415.7912	0.1959
415.9961	0.1992
416.201	0.2
416.4059	0.2038
416.6108	0.1836
416.8156	0.1965
417.0205	0.2205
417.2253	0.1829
417.4301	0.2258
417.6349	0.1866
417.8397	0.1904
418.0445	0.2031
418.2492	0.1879
418.454	0.1918
418.6587	0.1929
418.8634	0.1945
419.0681	0.1741
419.2728	0.186
419.4775	0.1821
419.6822	0.1605
419.8868	0.1685
420.0915	0.2013
420.2961	0.1821
420.5007	0.1771
420.7053	0.1979
420.9099	0.1894
421.1144	0.179
421.319	0.1651
421.5235	0.1828
421.728	0.1835
421.9325	0.1924
422.137	0.1947
422.3415	0.1962
422.546	0.1741
422.7504	0.1921
422.9549	0.1797
423.1593	0.1781
423.3637	0.1842
423.5681	0.1774
423.7725	0.1643
423.9769	0.1688
424.1812	0.1636
424.3856	0.1671
424.5899	0.1664
424.7942	0.1643
424.9985	0.1825
425.2028	0.1742
425.4071	0.1846
425.6113	0.1444
425.8156	0.1745
426.0198	0.1699
426.224	0.1546
426.4282	0.1604
426.6324	0.1563
426.8366	0.164
427.0407	0.1549
427.2449	0.1489
427.449	0.1745
427.6531	0.1316
427.8572	0.1456
428.0613	0.1504
428.2654	0.1431
428.4694	0.1517
428.6735	0.1499
428.8775	0.1579
429.0815	0.1542
429.2855	0.1306
429.4895	0.1596
429.6935	0.1448
429.8975	0.1506
430.1014	0.1281
430.3053	0.1272
430.5093	0.1342
430.7132	0.1358
430.9171	0.1342
431.1209	0.1249
431.3248	0.1359
431.5286	0.1423
431.7325	0.1351
431.9363	0.1257
432.1401	0.1366
432.3439	0.1235
432.5477	0.118
432.7514	0.1156
432.9552	0.1354
433.1589	0.1115
433.3627	0.1035
433.5664	0.1119
433.7701	0.1135
433.9737	0.1051
434.1774	0.1285
434.3811	0.1164
434.5847	0.1141
434.7883	0.1033
434.9919	0.1222
435.1955	0.0985
435.3991	0.1038
435.6027	0.0992
435.8062	0.0946
436.0098	0.1011
436.2133	0.1105
436.4168	0.0973
436.6203	0.0915
436.8238	0.1053
437.0272	0.0948
437.2307	0.1
437.4341	0.1087
437.6375	0.0878
437.841	0.0876
438.0443	0.0934
438.2477	0.0828
438.4511	0.0862
438.6545	0.0854
438.8578	0.1058
439.0611	0.0922
439.2644	0.0875
439.4677	0.0722
439.671	0.0641
439.8743	0.0831
440.0775	0.0718
440.2808	0.0899
440.484	0.0469
440.6872	0.0626
440.8904	0.0659
441.0936	0.0815
441.2967	0.0632
441.4999	0.0749
441.703	0.0598
441.9062	0.0645
442.1093	0.0618
442.3124	0.0676
442.5155	0.0451
442.7185	0.0709
442.9216	0.0361
443.1246	0.0732
443.3276	0.0638
443.5307	0.0599
443.7337	0.0605
443.9366	0.0647
444.1396	0.0643
444.3426	0.0526
444.5455	0.0658
444.7484	0.0337
444.9513	0.0456
445.1542	0.0595
445.3571	0.0489
445.56	0.0618
445.7628	0.0256
445.9657	0.0437
446.1685	0.0491
446.3713	0.0478
446.5741	0.0491
446.7769	0.0329
446.9797	0.0425
447.1824	0.0401
447.3852	0.0369
447.5879	0.0495
447.7906	0.043
447.9933	0.0429
448.196	0.0287
448.3986	0.0336
448.6013	0.0361
448.8039	0.0183
449.0066	0.01
449.2092	0.0334
449.4118	0.0224
449.6143	0.0387
449.8169	0.0317
450.0195	0.0224
450.222	0.0154
450.4245	0.0195
450.627	0.0306
450.8295	0.0316
451.032	0.0184
451.2345	0.0292
451.4369	0.0201
451.6394	0.0244
451.8418	0.0101
452.0442	0.0065
452.2466	0.0395
452.449	0.0175
452.6513	0.021
452.8537	0.0183
453.056	0.0092
453.2583	0.0059
453.4607	0.0217
453.663	0.0117
453.8652	0.0267
454.0675	0.0205
454.2697	0.0107
454.472	-0.0018
454.6742	0.0348
454.8764	0.0179
455.0786	0.0222
455.2808	0.0028
455.4829	0.0237
455.6851	0.0318
455.8872	0.0305
456.0893	0.0127
456.2915	0.0049
456.4935	0.0275
456.6956	0.0077
456.8977	0.0168
457.0997	0.017
457.3018	-0.0055
457.5038	0.011
457.7058	0.004
457.9078	0.0096
458.1098	0.022
458.3117	0.0153
458.5137	0.0094
458.7156	0.0058
458.9175	-0.0001
459.1194	0.0072
459.3213	-0.0011
459.5232	0.0002
459.725	-0.0007
459.9269	0.008
460.1287	0.0014
460.3305	0.0099
460.5323	0.0067
460.7341	-0.0012
460.9359	0.0075
461.1376	0.0062
461.3394	0.0043
461.5411	0.0145
461.7428	0.0055
461.9445	0.0161
462.1462	0.0376
462.3479	-0.0002
462.5495	-0.0012
462.7512	0.0141
462.9528	0.0032
463.1544	0.0009
463.356	-0.0017
463.5576	0.0069
463.7592	-0.014
463.9607	0.0191
464.1623	0.0111
464.3638	0.0193
464.5653	-0.0055
464.7668	0.0079
464.9683	0.0003
465.1697	0.0274
465.3712	0.0019
465.5726	-0.0036
465.7741	0.0037
465.9755	-0.0111
466.1769	0.002
466.3782	-0.0039
466.5796	-0.0035
466.7809	0.0089
466.9823	-0.0138
467.1836	-0.0024
467.3849	0.0013
467.5862	0.0091
467.7875	-0.0027
467.9887	-0.0016
468.19	-0.0008
468.3912	-0.0026
468.5924	0.0037
468.7936	-0.0033
468.9948	0.0051
469.196	0.0159
469.3972	-0.0088
469.5983	0.0182
469.7994	-0.0123
470.0006	-0.0023
470.2017	-0.0154
470.4027	-0.0158
470.6038	0.0086
470.8049	-0.0155
471.0059	-0.0138
471.2069	-0.0193
471.408	0.0033
471.6089	0.0126
471.8099	0.0047
472.0109	0.0017
472.2119	-0.012
472.4128	-0.0123
472.6137	0.0109
472.8146	-0.0145
473.0155	0.0096
473.2164	0
473.4173	0.0047
473.6181	0.0077
473.819	-0.0009
474.0198	-0.0009
474.2206	-0.003
474.4214	0.0028
474.6222	0.0076
474.8229	-0.0035
475.0237	-0.0025
475.2244	-0.0204
475.4251	0.0011
475.6258	0.0015
475.8265	-0.003
476.0272	0.0092
476.2278	0.0073
476.4285	-0.0028
476.6291	-0.0066
476.8297	0.0008
477.0303	-0.008
477.2309	-0.0003
477.4315	-0.0176
477.632	-0.0051
477.8326	-0.0067
478.0331	0.0042
478.2336	0.0056
478.4341	-0.0083
478.6346	0.0019
478.8351	0.0028
479.0355	0.0116
479.236	0.0026
479.4364	0.0103
479.6368	0.0052
479.8372	0.0009
480.0376	-0.0037
480.2379	-0.0246
480.4383	-0.0065
480.6386	0.0062
480.8389	0.0043
481.0392	-0.0067
481.2395	-0.0094
481.4398	0.0109
481.6401	-0.0047
481.8403	0.0006
482.0405	-0.0114
482.2408	-0.0044
482.441	0.0049
482.6411	0.0047
482.8413	0.008
483.0415	-0.014
483.2416	-0.0015
483.4417	-0.0032
483.6419	-0.0068
483.8419	-0.0114
484.042	0.0022
484.2421	-0.001
484.4422	-0.0021
484.6422	-0.0078
484.8422	-0.0049
485.0422	-0.0067
485.2422	0.0065
485.4422	-0.0112
485.6422	-0.0053
485.8421	-0.0045
486.042	0.0009
486.242	-0.0062
486.4419	-0.0066
486.6417	-0.0085
486.8416	0.0022
487.0415	-0.0082
487.2413	-0.0055
487.4411	-0.0036
487.641	-0.0088
487.8408	-0.0004
488.0405	-0.0031
488.2403	-0.0007
488.4401	0.0039
488.6398	-0.0024
488.8395	-0.009
489.0392	0.0097
489.2389	-0.0055
489.4386	-0.006
489.6383	0.0011
489.8379	0.0048
490.0376	0.0068
490.2372	-0.0083
490.4368	0.0019
490.6364	-0.0002
490.836	-0.0062
491.0355	-0.0036
491.2351	-0.007
491.4346	-0.0001
491.6341	-0.0048
491.8336	0.0099
492.0331	-0.0189
492.2326	-0.0097
492.432	-0.0033
492.6315	-0.009
492.8309	-0.0094
493.0303	-0.008
493.2297	-0.0016
493.4291	-0.0023
493.6284	-0.0056
493.8278	0.0025
494.0271	-0.0004
494.2264	0.0014
494.4257	-0.0111
494.625	0.0026
494.8243	-0.0081
495.0236	-0.0063
495.2228	-0.0043
495.422	0.0038
495.6213	-0.004
495.8205	-0.0097
496.0196	0.0003
496.2188	0.0103
496.418	-0.0001
496.6171	-0.0032
496.8162	-0.006
497.0153	0.006
497.2144	-0.0005
497.4135	-0.0139
497.6126	-0.0054
497.8116	-0.0104
498.0107	0.0104
498.2097	-0.017
498.4087	-0.0055
498.6077	-0.0009
498.8067	-0.0024
499.0056	0.0093
499.2046	-0.0002
499.4035	-0.0097
499.6024	-0.0035
499.8013	0.0099
500.0002	-0.0127
500.199	-0.003
500.3979	-0.0019
500.5967	-0.0186
500.7956	0.0034
500.9944	0.0029
501.1932	-0.0066
501.3919	-0.0087
501.5907	-0.019
501.7895	-0.0063
501.9882	-0.0145
502.1869	-0.0119
502.3856	-0.0063
502.5843	-0.009
502.783	-0.0002
502.9816	-0.0032
503.1803	-0.0111
503.3789	-0.0098
503.5775	0.0064
503.7761	-0.0021
503.9747	-0.0037
504.1732	-0.0035
504.3718	-0.0001
504.5703	-0.0017
504.7689	-0.001
504.9674	-0.0028
505.1658	-0.0137
505.3643	0
505.5628	-0.0018
505.7612	-0.0151
505.9597	0.0019
506.1581	-0.0011
506.3565	0.0061
506.5549	-0.0051
506.7532	-0.0137
506.9516	0.0005
507.1499	0.0019
507.3482	-0.0052
507.5465	-0.006
507.7448	0.006
507.9431	-0.0016
508.1414	0.0091
508.3396	0.0009
508.5379	0.001
508.7361	-0.0012
508.9343	0.0011
509.1325	0.002
509.3306	-0.002
509.5288	0.0014
509.7269	-0.0063
509.9251	0.0068
510.1232	-0.0094
510.3213	-0.0047
510.5193	0.0015
510.7174	-0.0118
510.9154	-0.0077
511.1135	-0.007
511.3115	-0.0027
511.5095	0.0017
511.7075	-0.0077
511.9055	-0.0016
512.1034	-0.0019
512.3014	-0.0051
512.4993	0.0076
512.6972	-0.0003
512.8951	-0.0179
513.093	0.002
513.2908	0.0078
513.4887	-0.0015
513.6865	-0.0065
513.8844	-0.0087
514.0822	-0.0062
514.2799	-0.0082
514.4777	-0.0086
514.6755	-0.0057
514.8732	-0.0066
515.0709	0.0056
515.2687	-0.0086
515.4664	-0.0034
515.664	-0.0069
515.8617	-0.0023
516.0594	-0.0061
516.257	0.0049
516.4546	-0.0185
516.6522	0.0019
516.8498	-0.0035
517.0474	0.0091
517.2449	-0.0022
517.4425	-0.0076
517.64	-0.0068
517.8375	-0.0034
518.035	0.0035
518.2325	-0.0038
518.43	-0.0021
518.6274	-0.0056
518.8249	-0.009
519.0223	0.0075
519.2197	-0.0047
519.4171	-0.0079
519.6145	0.0063
519.8118	0.0067
520.0092	-0.0046
520.2065	-0.0047
520.4038	-0.0092
520.6011	0.0029
520.7984	-0.0044
520.9956	-0.0045
521.1929	-0.0118
521.3901	0.0013
521.5874	-0.0088
521.7846	-0.005
521.9818	-0.0107
522.1789	-0.0089
522.3761	-0.0065
522.5732	-0.0098
522.7704	-0.0075
522.9675	0.0017
523.1646	-0.0087
523.3617	-0.0007
523.5587	-0.0062
523.7558	0.0096
523.9528	0.0012
524.1498	-0.0011
524.3468	-0.0006
524.5438	-0.0019
524.7408	0.0015
524.9378	0.0042
525.1347	-0.0098
525.3316	0.0006
525.5285	0.0015
525.7254	-0.0039
525.9223	-0.0023
526.1192	-0.0068
526.316	-0.0064
526.5129	0.0086
526.7097	0.0098
526.9065	0.0008
527.1033	-0.0003
527.3	0.0025
527.4968	-0.005
527.6935	0.0116
527.8903	-0.0126
528.087	-0.006
528.2837	-0.0036
528.4804	0.0012
528.677	-0.0025
528.8737	0.0129
529.0703	0.0096
529.2669	0.0033
529.4635	-0.0019
529.6601	-0.0066
529.8567	-0.0016
530.0532	0.0043
530.2498	0.0077
530.4463	0.005
530.6428	-0.0005
530.8393	-0.0007
531.0358	-0.0029
531.2322	0.0047
531.4287	-0.0083
531.6251	-0.0078
531.8215	0.0122
532.0179	0.0014
532.2143	0.0043
532.4107	-0.0052
532.607	0.0006
532.8034	0.011
532.9997	0.0005
533.196	-0.0011
533.3923	-0.0056
533.5886	-0.0007
533.7848	0.0075
533.9811	0.0017
534.1773	0.0008
534.3735	0.0189
534.5697	-0.0044
534.7659	0.0001
534.9621	0.0037
535.1582	-0.0032
535.3544	-0.0083
535.5505	-0.0106
535.7466	-0.0071
535.9427	-0.0061
536.1387	0.0012
536.3348	-0.0042
536.5308	0.0096
536.7269	-0.0084
536.9229	0.005
537.1189	0.0019
537.3148	0.0017
537.5108	-0.0058
537.7068	0.0094
537.9027	0.0007
538.0986	-0.0051
538.2945	-0.0067
538.4904	0.0001
538.6863	0.0002
538.8821	0.007
539.078	-0.0035
539.2738	0.0065
539.4696	-0.0028
539.6654	0.0101
539.8611	0.0165
540.0569	-0.0031
540.2526	-0.0023
540.4484	0.002
540.6441	-0.0018
540.8398	0.0006
541.0355	0.0023
541.2311	-0.0112
541.4268	-0.0099
541.6224	0.0087
541.818	-0.0006
542.0136	-0.002
542.2092	0.0021
542.4048	0.0063
542.6003	-0.0011
542.7959	0.0088
542.9914	0.0029
543.1869	0.0049
543.3824	-0.0017
543.5779	-0.012
543.7734	-0.0007
543.9688	-0.0141
544.1642	0.0067
544.3596	0.0078
544.555	-0.0059
544.7504	0.0022
544.9458	-0.004
545.1411	0.0011
545.3365	-0.0011
545.5318	0.0033
545.7271	0.0001
545.9224	-0.0066
546.1177	-0.0037
546.3129	0.0115
546.5081	0.0022
546.7034	0.002
546.8986	-0.0027
547.0938	-0.011
547.289	0.0067
547.4841	0.0075
547.6793	0.0001
547.8744	-0.0072
548.0695	0.0023
548.2646	0.0018
548.4597	0.0031
548.6548	-0.001
548.8498	-0.0023
549.0448	0.0027
549.2399	-0.0033
549.4349	0.0083
549.6298	0.0045
549.8248	0.0045
550.0198	-0.0014
550.2147	-0.005
550.4096	0.0025
550.6045	0.0042
550.7994	0.0033
550.9943	0.0025
551.1892	0.007
551.384	0.007
551.5788	-0.0056
551.7737	0.0038
551.9685	0.0007
552.1632	0.0105
552.358	0.0032
552.5528	-0.0038
552.7475	0.0006
552.9422	0.0015
553.1369	-0.0066
553.3316	0.0113
553.5263	-0.0109
553.7209	-0.0006
553.9156	-0.0001
554.1102	0.0002
554.3048	-0.0061
554.4994	0.0053
554.694	-0.0018
554.8885	0.0018
555.0831	0.0004
555.2776	-0.0038
555.4721	-0.002
555.6666	-0.0059
555.8611	0.0058
556.0555	0.0066
556.25	-0.0009
556.4444	-0.0018
556.6388	0.0052
556.8332	0.0017
557.0276	-0.0059
557.222	-0.008
557.4163	0.0016
557.6107	-0.0059
557.805	0.0026
557.9993	0.0005
558.1936	0.0091
558.3879	0.0024
558.5821	0.0029
558.7764	0.0036
558.9706	0.0026
559.1648	0.0056
559.359	-0.0038
559.5532	-0.0024
559.7473	-0.0075
559.9415	0.0097
560.1356	-0.0005
560.3297	-0.0114
560.5238	-0.0018
560.7179	-0.007
560.9119	-0.0105
561.106	0.0009
561.3	-0.0016
561.494	0.0026
561.688	-0.0008
561.882	-0.0136
562.076	0.0002
562.2699	-0.0004
562.4639	-0.0007
562.6578	0.0026
562.8517	0.0004
563.0456	-0.0008
563.2395	0.0057
563.4333	0.0061
563.6272	0.0145
563.821	-0.0013
564.0148	-0.005
564.2086	0.001
564.4024	0.0006
564.5961	-0.0045
564.7899	0.012
564.9836	0.0008
565.1773	0.0042
565.371	0.0183
565.5647	0.0041
565.7584	0.0055
565.952	0.0064
566.1456	0.0017
566.3393	0.005
566.5329	-0.0027
566.7264	-0.0119
566.92	-0.0045
567.1136	-0.0037
567.3071	-0.0024
567.5006	0.0046
567.6941	0.0098
567.8876	0.0042
568.0811	0.0031
568.2745	-0.0007
568.468	0.0102
568.6614	0.0067
568.8548	-0.0024
569.0482	-0.0073
569.2416	-0.0004
569.4349	-0.0034
569.6283	0.0014
569.8216	0.0013
570.0149	0.0007
570.2082	0.011
570.4015	0.0098
570.5947	0.0061
570.788	0.0065
570.9812	0.006
571.1744	-0.0001
571.3676	-0.0019
571.5608	-0.001
571.754	0.0053
571.9471	0.0049
572.1402	0.0042
572.3333	0.0009
572.5264	0.003
572.7195	0.0005
572.9126	0.0044
573.1057	-0.0014
573.2987	-0.0031
573.4917	0.0055
573.6847	-0.0063
573.8777	0.0014
574.0707	0.0136
574.2636	-0.0088
574.4566	0.0005
574.6495	0.0048
574.8424	-0.0019
575.0353	0.004
575.2281	0.0058
575.421	0.0002
575.6138	0.0097
575.8067	0.0023
575.9995	0.0073
576.1923	0.0078
576.385	-0.0003
576.5778	-0.0016
576.7706	0.0021
576.9633	0.0029
577.156	0.0029
577.3487	-0.0026
577.5414	-0.0006
577.734	-0.0003
577.9267	0.002
578.1193	-0.0067
578.3119	-0.0004
578.5045	-0.0018
578.6971	-0.002
578.8897	0.0086
579.0822	-0.0053
579.2747	0.0053
579.4673	0.0043
579.6598	-0.0006
579.8522	0.0014
580.0447	-0.004
580.2372	-0.0016
580.4296	0.0077
580.622	0.0052
580.8144	0.0052
581.0068	0.0053
581.1992	-0.0047
581.3915	-0.001
581.5839	-0.0079
581.7762	0.0011
581.9685	-0.0045
582.1608	0.0086
582.353	-0.0015
582.5453	0.0037
582.7375	0.0034
582.9298	0.0105
583.122	0.0011
583.3142	-0.0016
583.5063	0.0005
583.6985	0.0006
583.8906	-0.0008
584.0827	-0.0009
584.2749	0.0055
584.4669	0.0085
584.659	0.0043
584.8511	-0.0034
585.0431	-0.0018
585.2352	-0.002
585.4272	0.0006
585.6192	0.0048
585.8111	0.0043
586.0031	-0.0015
586.195	0.0017
586.387	0.003
586.5789	0.0014
586.7708	0.0047
586.9627	0.0087
587.1545	-0.0045
587.3464	0.0072
587.5382	0.0042
587.73	0.0038
587.9218	0.0064
588.1136	-0.0021
588.3053	0.0055
588.4971	-0.0044
588.6888	-0.0042
588.8805	0.0044
589.0722	0.0053
589.2639	0.0087
589.4556	0.0009
589.6472	0.0019
589.8389	-0.0037
590.0305	-0.0066
590.2221	0.0094
590.4137	-0.0093
590.6052	-0
590.7968	-0.0042
590.9883	0.0005
591.1798	-0.0022
591.3713	0.0027
591.5628	0.0014
591.7543	0.006
591.9458	0.0034
592.1372	0.0023
592.3286	0.0062
592.52	0.002
592.7114	0.0023
592.9028	-0.003
593.0941	0.0078
593.2855	0.0046
593.4768	0.0006
593.6681	-0.0079
593.8594	0.0056
594.0506	0.0029
594.2419	0.0106
594.4331	0.0036
594.6244	0.007
594.8156	-0.0014
595.0067	0.0085
595.1979	0.0004
595.3891	0.0012
595.5802	0.0005
595.7713	0.0007
595.9624	0.0019
596.1535	0.0056
596.3446	-0.007
596.5357	0.0005
596.7267	0.0083
596.9177	0.003
597.1087	-0.0036
597.2997	0.0005
597.4907	0.0011
597.6817	-0.0005
597.8726	0.0056
598.0635	0.001
598.2544	0.002
598.4453	0.0017
598.6362	0.001
598.827	0.0028
599.0179	0.0066
599.2087	0.0016
599.3995	0.0018
599.5903	0.0045
599.7811	0.0038
599.9718	-0
600.1626	0.0002
600.3533	-0.0014
600.544	0.0004
600.7347	-0.0009
600.9254	0.0019
601.116	-0.009
601.3067	-0.0016
601.4973	0.0049
601.6879	0.0031
601.8785	-0.0017
602.0691	0.0073
602.2596	0.0077
602.4502	0.0059
602.6407	0.0098
602.8312	0.0003
603.0217	0.0029
603.2122	0.0079
603.4027	0.0029
603.5931	0.0072
603.7835	-0.0033
603.9739	0.0033
604.1643	0.0018
604.3547	-0.004
604.5451	0.0044
604.7354	-0.0012
604.9257	0.0011
605.116	-0.0007
605.3063	0.0003
605.4966	0.0029
605.6869	0.001
605.8771	0.0087
606.0673	0.0095
606.2575	0.0088
606.4477	0.001
606.6379	0.0038
606.8281	0.0028
607.0182	0.0054
607.2083	0.0116
607.3985	-0.0078
607.5885	0.0025
607.7786	0.0023
607.9687	-0.0066
608.1587	0.0072
608.3488	0.0054
608.5388	0.0039
608.7288	-0.0023
608.9187	0.0012
609.1087	-0.0043
609.2986	-0.0047
609.4886	-0.001
609.6785	0.002
609.8684	0.0066
610.0582	0.0027
610.2481	0.0024
610.4379	-0.0024
610.6278	0.0013
610.8176	0.0023
611.0074	0.007
611.1971	-0.005
611.3869	-0.0025
611.5766	-0.0074
611.7664	0.0087
611.9561	0.0046
612.1458	0.0049
612.3354	-0.0015
612.5251	0.0031
612.7147	0.0104
612.9044	0.0096
613.094	-0.0031
613.2836	0.0084
613.4731	0.0017
613.6627	-0.0059
613.8522	0.008
614.0417	0.0067
614.2313	-0.0025
614.4207	0.0025
614.6102	0.0016
614.7997	0.0014
614.9891	0.001
615.1785	0.0015
615.3679	0.0002
615.5573	0.0145
615.7467	0.0075
615.9361	0.0038
616.1254	-0.0007
616.3147	0.0028
616.504	0.0029
616.6933	0.0052
616.8826	0.0138
617.0718	0.006
617.2611	0.014
617.4503	-0.0006
617.6395	0.0001
617.8287	0.0007
618.0179	-0.0012
618.207	0.0111
618.3961	-0.0006
618.5853	-0.0037
618.7744	0.0091
618.9634	0.0057
619.1525	0.004
619.3416	0.009
619.5306	0.0068
619.7196	0.0081
619.9086	-0.0001
620.0976	0.0077
620.2866	0.0028
620.4755	0.0002
620.6645	0.0085
620.8534	0.021
621.0423	0.0081
621.2312	0.0083
621.42	0.0043
621.6089	0.0015
621.7977	0.0053
621.9865	-0.0043
622.1753	0.0074
622.3641	-0.0036
622.5529	0.0085
622.7416	0.0054
622.9303	-0.0023
623.1191	0.0036
623.3078	0.0017
623.4964	0.0031
623.6851	-0.0029
623.8737	0.0014
624.0624	0.0094
624.251	-0.0006
624.4396	0.0061
624.6282	-0.0016
624.8167	0.0027
625.0053	0.0082
625.1938	0.0102
625.3823	0.0038
625.5708	0.0049
625.7593	-0.0019
625.9477	0.0011
626.1362	-0.0009
626.3246	0.0029
626.513	0.0154
626.7014	0.0073
626.8898	0.0003
627.0781	0.01
627.2665	0.0003
627.4548	0.0074
627.6431	0.0077
627.8314	0.0078
628.0197	0.0102
628.2079	0.0034
628.3962	-0.003
628.5844	0.0063
628.7726	0.0114
628.9608	0.0052
629.1489	0.0054
629.3371	0.0068
629.5252	0.0024
629.7134	0.0118
629.9015	-0.0017
630.0895	0.0041
630.2776	0.0066
630.4657	0.003
630.6537	0.005
630.8417	0.0042
631.0297	0.0003
631.2177	0.0011
631.4057	-0.0004
631.5936	0.0022
631.7815	0.0099
631.9695	0.0075
632.1574	0.0099
632.3452	0.0195
632.5331	0.0101
632.7209	0.003
632.9088	0.0129
633.0966	0.0087
633.2844	0.003
633.4722	0.0029
633.6599	0.0126
633.8477	0.0078
634.0354	0.008
634.2231	0.011
634.4108	0.0035
634.5985	0.0121
634.7861	0.0078
634.9738	0.0051
635.1614	0.006
635.349	0.0171
635.5366	0.0034
635.7242	0.0069
635.9117	0.008
636.0993	-0.0018
636.2868	0.0118
636.4743	0.0069
636.6618	0.0164
636.8492	0.0104
637.0367	0.0162
637.2241	0.0085
637.4115	-0.0039
637.5989	0.0038
637.7863	-0.0002
637.9737	-0.0067
638.161	0.0069
638.3484	0.0009
638.5357	0.0084
638.723	-0.0004
638.9103	0.0098
639.0975	0.0095
639.2848	0.0112
639.472	0.0045
639.6592	0.0083
639.8464	0.0156
640.0336	0.0079
640.2208	0.0055
640.4079	-0.0036
640.595	0.0072
640.7821	0.0054
640.9692	-0.0028
641.1563	0.0064
641.3434	0.0057
641.5304	0.0021
641.7174	0.0058
641.9044	0.0119
642.0914	0.0118
642.2784	0.0081
642.4653	0.0089
642.6523	0.0038
642.8392	0.0013
643.0261	0.0122
643.213	0.0085
643.3999	0.0004
643.5867	0.0026
643.7735	0.0053
643.9604	-0.0017
644.1472	0.0049
644.3339	0.0015
644.5207	0.0077
644.7075	0.0037
644.8942	0.0069
645.0809	0.0085
645.2676	0.0078
645.4543	0.0077
645.6409	0.0077
645.8276	0.0015
646.0142	0.0068
646.2008	0.0032
646.3874	-0.0014
646.574	0.0018
646.7605	0.0031
646.9471	-0.007
647.1336	0.001
647.3201	0.0037
647.5066	-0.0009
647.6931	-0.0003
647.8795	0.0011
648.0659	0.0052
648.2524	0.0057
648.4388	-0.0043
648.6252	0.0042
648.8115	-0.0001
648.9979	0.0024
649.1842	0.0052
649.3705	0.008
649.5568	-0.0014
649.7431	0.0104
649.9294	0.0036
650.1156	0.0099
650.3018	0.006
650.488	0.0061
650.6742	0.0073
650.8604	0.0073
651.0466	0.0039
651.2327	0.0045
651.4188	0.0067
651.6049	-0.001
651.791	0.0074
651.9771	0.0083
652.1632	0.01
652.3492	0.0079
652.5352	0.0029
652.7212	0.0046
652.9072	0.0139
653.0932	0.001
653.2791	0.0007
653.465	0.0112
653.651	-0.0034
653.8369	0.0105
654.0227	0.0039
654.2086	0.0104
654.3944	0.0043
654.5803	0.0052
654.7661	0.0047
654.9519	0.0031
655.1377	0.0005
655.3234	0.0017
655.5092	-0.0037
655.6949	-0.0004
655.8806	-0
656.0663	-0.0006
656.2519	0.0007
656.4376	0.0013
656.6232	0.0056
656.8088	0.0036
656.9945	0.0069
657.18	0.0044
657.3656	0.0088
657.5511	-0.0008
657.7367	0.0029
657.9222	0.0073
658.1077	0.0056
658.2932	0.0044
658.4786	-0.0093
658.6641	-0.0045
658.8495	-0.0019
659.0349	-0.0025
659.2203	0.0004
659.4057	0.0062
659.591	0.0053
659.7764	0.0101
659.9617	0.0079
660.147	0.0032
660.3323	0.0088
660.5176	0.0048
660.7028	0.012
660.888	0.0057
661.0733	0.0007
661.2585	-0.0049
661.4436	0.0068
661.6288	-0.0049
661.8139	0.0026
661.9991	0.0033
662.1842	-0.0037
662.3693	0.0083
662.5544	-0.0034
662.7394	-0.0006
662.9245	-0.0029
663.1095	0.0002
663.2945	0.0126
663.4795	-0.0011
663.6644	0.0054
663.8494	-0.0012
664.0343	-0.0001
664.2193	-0.0018
664.4042	0.0075
664.589	-0.0083
664.7739	-0.0022
664.9587	-0.0058
665.1436	-0.0008
665.3284	-0.0004
665.5132	0.0026
665.698	0.0016
665.8827	0.0084
666.0675	0.0057
666.2522	-0.0004
666.4369	0.0088
666.6216	0.0078
666.8063	0.0089
666.9909	0.0038
667.1756	0.0002
667.3602	0.0083
667.5448	0.0019
667.7294	0.0109
667.9139	0.0109
668.0985	0.0226
668.283	0.0047
668.4675	0.0051
668.652	0.007
668.8365	0.0034
669.0209	0.0121
669.2054	0.0149
669.3898	0.0083
669.5742	0.0121
669.7586	0.0123
669.943	0.0139
670.1273	0.0123
670.3117	0.0052
670.496	0.0038
670.6803	0.0186
670.8646	0.0044
671.0488	0.0041
671.2331	0.0095
671.4173	0.0054
671.6015	0.0005
671.7857	0.0067
671.9699	0.0077
672.1541	0.0086
672.3382	0.0061
672.5223	0.0135
672.7064	0.0091
672.8905	0.0027
673.0746	-0.0006
673.2587	0.003
673.4427	0.003
673.6267	0.0104
673.8107	0.0031
673.9947	0.0064
674.1787	0.0108
674.3626	0.0028
674.5465	0.0081
674.7304	0.0063
674.9143	0.01
675.0982	0.0129
675.2821	0.0017
675.4659	0.0037
675.6497	0.0028
675.8335	0.0026
676.0173	0.0095
676.2011	0.0087
676.3849	0.0035
676.5686	0.0008
676.7523	0.005
676.936	0.0042
677.1197	-0.0034
677.3034	-0.0039
677.487	0.0003
677.6706	0.0049
677.8542	0.0049
678.0378	0.008
678.2214	0.0046
678.405	0.0035
678.5885	-0.0036
678.772	0.0045
678.9555	-0.0043
679.139	0.002
679.3225	0.0067
679.5059	-0.0038
679.6894	0.0093
679.8728	0.0028
680.0562	-0.0028
680.2395	-0.0047
680.4229	-0.0011
680.6062	0.0053
680.7896	0.0063
680.9729	-0.0055
681.1562	0.0036
681.3394	0.0076
681.5227	-0.0097
681.7059	0.0076
681.8891	0.0034
682.0723	0.006
682.2555	0.0066
682.4387	0.0013
682.6218	0.0049
682.805	0.0129
682.9881	0.0049
683.1712	0.0015
683.3542	-0.0061
683.5373	0.0093
683.7203	0.0029
683.9034	-0.0012
684.0864	-0.0077
684.2694	0.0005
684.4523	0.0045
684.6353	0.0008
684.8182	0.0019
685.0011	-0.005
685.184	0.0087
685.3669	0.0018
685.5498	0.0081
685.7326	0.003
685.9154	0.0025
686.0982	0.0059
686.281	0.0048
686.4638	0.0052
686.6465	0.0033
686.8293	-0.0042
687.012	0.004
687.1947	0.0003
687.3774	-0.0002
687.56	0.0039
687.7427	0.0111
687.9253	-0.0052
688.1079	0.0068
688.2905	0.0164
688.4731	0.0087
688.6556	0.0015
688.8382	-0.0066
689.0207	0.004
689.2032	-0.009
689.3857	-0.0069
689.5681	0.001
689.7506	-0.01
689.933	-0.0017
690.1154	-0.0024
690.2978	-0.0099
690.4802	0.0011
690.6626	-0.0115
690.8449	-0.0077
691.0272	0.007
691.2095	-0.007
691.3918	-0.0057
691.5741	-0.0015
691.7563	-0.0041
691.9386	-0.0011
692.1208	0.0005
692.303	0.0056
692.4852	-0.003
692.6673	0.0096
692.8495	0.0025
693.0316	0.0064
693.2137	0.0055
693.3958	0.0106
693.5778	0.0009
693.7599	0.0023
693.9419	0.0068
694.1239	0.004
694.3059	-0.0005
694.4879	0.0084
694.6699	0.0124
694.8518	0.0061
695.0337	0.002
695.2157	0.0057
695.3975	0.0063
695.5794	0.0092
695.7613	0.0106
695.9431	0.0015
696.1249	0.0084
696.3067	0.0168
696.4885	0.0149
696.6703	-0.0047
696.852	0.0023
697.0337	0.0088
697.2154	-0.005
697.3971	0.0134
697.5788	0.0067
697.7605	0.0016
697.9421	0.0088
698.1237	0.0095
698.3053	0.007
698.4869	0.0047
698.6685	0.0001
698.85	-0.0006
699.0315	0.0197
699.213	-0.0046
699.3945	0.0034
699.576	0.0165
699.7575	0.0125
699.9389	0.012
700.1203	0.0012
700.3017	-0.0018
700.4831	-0.0032
700.6645	0.0061
700.8458	0.0095
701.0271	0.0019
701.2084	0.0113
701.3897	0.0032
701.571	0.0144
701.7523	0.0005
701.9335	0.0053
702.1147	0.0106
702.2959	-0.0022
702.4771	0.0062
702.6583	0.0103
702.8394	0.0013
703.0205	0.0062
703.2016	0.0001
703.3827	-0.0019
703.5638	0.0092
703.7449	0.006
703.9259	0.0083
704.1069	-0.0074
704.2879	0.0073
704.4689	-0.0011
704.6499	0.0079
704.8308	0.0032
705.0117	-0.0003
705.1927	0.0001
705.3735	0.0026
705.5544	-0.009
705.7353	-0.0005
705.9161	0.0048
706.0969	-0.0009
706.2777	0.0014
706.4585	-0.0008
706.6393	0.006
706.82	-0.0022
707.0007	0.0014
707.1815	0.0021
707.3621	0.0111
707.5428	0.0018
707.7235	-0.0009
707.9041	0.0054
708.0847	-0.0103
708.2653	-0.008
708.4459	-0.019
708.6265	-0.0042
708.807	-0.0034
708.9875	-0.0044
709.168	-0.0056
709.3485	0.0006
709.529	-0.0061
709.7095	-0.0157
709.8899	-0.0054
710.0703	-0.013
710.2507	0
710.4311	-0.0034
710.6115	-0.0038
710.7918	-0.0038
710.9721	-0.0021
711.1524	-0.0051
711.3327	-0.0065
711.513	0.0019
711.6932	0.003
711.8735	0.014
712.0537	0.0052
712.2339	-0.0021
712.4141	-0.0062
712.5942	-0.0071
712.7744	0.0076
712.9545	0.0016
713.1346	-0.0011
713.3147	-0.0025
713.4947	-0.007
713.6748	0.0002
713.8548	0.0008
714.0348	0.0039
714.2148	-0.0051
714.3948	0.0168
714.5748	-0.0029
714.7547	0.0004
714.9346	0.0058
715.1145	-0.0007
715.2944	-0.0003
715.4743	0.0045
715.6541	-0.0006
715.834	0.0013
716.0138	0.0029
716.1936	-0.0123
716.3733	-0.0057
716.5531	0.0027
716.7328	-0.0061
716.9126	-0.0035
717.0923	0.0034
717.2719	0.0009
717.4516	0.0014
717.6312	0.0034
717.8109	-0.0021
717.9905	0.0078
718.1701	-0.0103
718.3496	-0.01
718.5292	-0.0041
718.7087	0.0049
718.8882	-0.0056
719.0677	0.0118
719.2472	-0.0085
719.4267	0.0034
719.6061	-0.0004
719.7856	0.0081
719.965	0.0064
720.1443	0.0003
720.3237	0.0088
720.5031	0.0035
720.6824	0.0129
720.8617	-0.004
721.041	0.001
721.2203	0.0104
721.3995	-0.0008
721.5788	-0.0025
721.758	0.0058
721.9372	0.0035
722.1164	-0.0039
722.2956	0.0007
722.4747	0.0076
722.6538	-0.0031
722.8329	0.0125
723.012	0.0029
723.1911	0.0062
723.3702	-0.0006
723.5492	0.0054
723.7282	0.0028
723.9072	-0.0028
724.0862	-0.0001
724.2652	0.0005
724.4441	0.0008
724.623	-0.0007
724.8019	-0.0049
724.9808	0.0038
725.1597	-0.0139
725.3385	0.0045
725.5174	0.0005
725.6962	0.0023
725.875	0.0032
726.0538	0.0058
726.2325	-0.0002
726.4112	-0.0016
726.59	-0.0027
726.7687	-0.003
726.9474	0.0009
727.126	0.0007
727.3047	-0.0052
727.4833	-0.0041
727.6619	0.0025
727.8405	-0.0062
728.0191	0.0039
728.1976	0.0031
728.3762	0.001
728.5547	0.0038
728.7332	-0.0113
728.9116	0.0046
729.0901	0.0079
729.2686	0.0008
729.447	0.0037
729.6254	0.0077
729.8038	-0.0025
729.9821	-0.0037
730.1605	0.0039
730.3388	0.0033
730.5171	0.003
730.6954	-0.0049
730.8737	0.0052
731.0519	0.0087
731.2302	0.0066
731.4084	0.0087
731.5866	0.0021
731.7648	0.0037
731.9429	0.0024
732.1211	-0.0031
732.2992	-0.0017
732.4773	-0.0101
732.6554	0.0021
732.8335	-0.0038
733.0115	0.0056
733.1896	0.0164
733.3676	-0.0025
733.5456	0.005
733.7235	0.0013
733.9015	-0.0025
734.0794	0.0001
734.2574	0.0068
734.4353	0.0042
734.6131	0.008
734.791	0.0106
734.9689	0.0078
735.1467	0.0057
735.3245	-0.0031
735.5023	-0.0071
735.68	0.0089
735.8578	0.003
736.0355	-0.0146
736.2132	0.0037
736.3909	0.0021
736.5686	0.0019
736.7463	0.0055
736.9239	-0.0013
737.1015	0.0043
737.2791	0.0162
737.4567	0.0128
737.6343	0.0042
737.8118	0.0172
737.9894	0.0095
738.1669	0.0071
738.3444	-0.0042
738.5218	0.0057
738.6993	0.0038
738.8767	0.0092
739.0541	0.0087
739.2315	-0.0094
739.4089	-0.0008
739.5863	0.0078
739.7636	0.0001
739.9409	0.0026
740.1182	0.0051
740.2955	0
740.4728	0.002
740.65	0.004
740.8272	-0.0019
741.0044	-0.0027
741.1816	0.0062
741.3588	-0.0045
741.5359	0.006
741.7131	-0.0073
741.8902	0
742.0673	0.0009
742.2444	-0.0051
742.4214	-0.0034
742.5985	-0.0013
742.7755	-0.0081
742.9525	-0.0168
743.1295	0.0067
743.3064	0.0037
743.4834	0.0116
743.6603	-0.0001
743.8372	-0.0009
744.0141	0.0101
744.191	0.007
744.3678	0.0041
744.5446	0.011
744.7215	0.0084
744.8982	0.0064
745.075	-0.0074
745.2518	0.0101
745.4285	0.0107
745.6052	-0.0048
745.7819	0.0013
745.9586	-0.0088
746.1353	0.007
746.3119	-0.0095
746.4885	-0.002
746.6651	0.0015
746.8417	0.0035
747.0183	0.0077
747.1948	-0.0003
747.3714	-0.0014
747.5479	0.0044
747.7244	0.0036
747.9008	0.0158
748.0773	0.0013
748.2537	0.0014
748.4301	-0.015
748.6065	0.0062
748.7829	0.0175
748.9593	-0.0044
749.1356	0.0124
749.3119	0.0024
749.4882	-0.0057
749.6645	0.0017
749.8408	-0.0091
750.017	-0.0036
750.1933	0.0056
750.3695	-0.0056
750.5457	0.0014
750.7218	-0.0005
750.898	0.0093
751.0741	-0.006
751.2502	0.0061
751.4263	0.0055
751.6024	0.001
751.7784	0.0037
751.9545	0.0008
752.1305	0.0078
752.3065	-0.0095
752.4825	0.0054
752.6584	0.003
752.8344	0.0011
753.0103	-0.0055
753.1862	0.0005
753.3621	-0.0001
753.5379	0.004
753.7138	0.0108
753.8896	0.0043
754.0654	0.01
754.2412	0.0178
754.417	0.0024
754.5927	-0.0042
754.7685	0.0037
754.9442	0.0043
755.1199	0.0124
755.2956	-0.0017
755.4712	0.0002
755.6469	0.0063
755.8225	0.0026
755.9981	0.0012
756.1736	0.0098
756.3492	0.0047
756.5248	0.0007
756.7003	0.014
756.8758	0.0107
757.0513	-0.0051
757.2267	-0.0046
757.4022	0.0081
757.5776	0
757.753	0.0057
757.9284	0.0079
758.1038	0.0158
758.2791	0.0058
758.4545	-0.0046
758.6298	0.0057
758.8051	0.0073
758.9803	0.0065
759.1556	-0.0032
759.3308	0.0029
759.506	0.0095
759.6812	0.0001
759.8564	0.005
760.0316	0.0025
760.2067	0.0072
760.3819	0.0091
760.557	0.0189
760.732	0.0053
760.9071	-0.0034
761.0821	0.006
761.2572	0.0134
761.4322	0.0017
761.6072	0.0104
761.7821	0.0052
761.9571	0.0095
762.132	0.0001
762.3069	-0.0067
762.4818	-0.0011
762.6567	0.0069
762.8316	0.0053
763.0064	0.0026
763.1812	0.0057
763.356	-0.0077
763.5308	-0.0035
763.7055	0.0038
763.8803	0.0013
764.055	-0.0094
764.2297	-0.0071
764.4044	0.0008
764.579	-0.0014
764.7537	-0.0096
764.9283	0.0022
765.1029	0.0013
765.2775	-0.002
765.4521	-0.0112
765.6266	-0.0107
765.8011	-0.0025
765.9756	-0.0005
766.1501	0.0005
766.3246	0.0011
766.4991	-0.0048
766.6735	0.0119
766.8479	-0.0026
767.0223	0.0049
767.1967	-0.0028
767.371	-0.0006
767.5454	0.0062
767.7197	0.0031
767.894	-0.0001
768.0683	-0.0002
768.2425	0.0025
768.4168	0.0112
768.591	-0.0047
768.7652	0.0032
768.9394	0.0165
769.1135	0.0022
769.2877	0.0056
769.4618	-0.0032
769.6359	-0.0076
769.81	0.0066
769.984	0.0068
770.1581	-0.007
770.3321	-0.0004
770.5061	0.0053
770.6801	-0.0106
770.8541	-0.0091
771.028	0.0049
771.202	-0.0184
771.3759	-0.0039
771.5498	-0.0066
771.7236	0.0052
771.8975	-0.0062
772.0713	0.0044
772.2451	0.0013
772.4189	0.0016
772.5927	-0.0016
772.7665	-0.0013
772.9402	-0.0008
773.1139	-0.0005
773.2876	0.0042
773.4613	0.0079
773.635	0.0113
773.8086	0.0008
773.9822	0.0046
774.1558	0.0092
774.3294	-0.004
774.503	-0.0008
774.6765	0.0022
774.8501	0.013
775.0236	0.0139
775.1971	0.0154
775.3705	-0.0049
775.544	0.0062
775.7174	-0.0072
775.8908	-0.0018
776.0642	0.0017
776.2376	0.007
776.4109	0.0033
776.5843	-0.0038
776.7576	0.0001
776.9309	0.0083
777.1041	0.0194
777.2774	0.0131
777.4506	0.005
777.6238	0.0092
777.797	0.0056
777.9702	-0.0015
778.1434	-0.0044
778.3165	-0.0154
778.4896	-0.0039
778.6627	0.0078
778.8358	-0.0082
779.0089	-0.0019
779.1819	0.0017
779.3549	0.0005
779.5279	0.012
779.7009	-0.0065
779.8739	0.0051
780.0468	-0.0029
780.2197	0.0006
780.3926	-0.0042
780.5655	0.0035
780.7384	-0.0065
780.9112	0.0072
781.0841	-0.0097
781.2569	0.0047
781.4297	0.0133
781.6024	0.0047
781.7752	0.0078
781.9479	0.0116
782.1206	0.0005
782.2933	-0.0024
782.466	0.0038
782.6386	0.0057
782.8113	-0.0061
782.9839	0.0145
783.1565	0.0034
783.329	-0.0009
783.5016	0.0151
783.6741	-0.0066
783.8466	-0.0094
784.0191	0.0055
784.1916	0.0001
784.3641	-0.0016
784.5365	0.0039
784.7089	0.002
784.8813	-0.0057
785.0537	0.0015
785.2261	-0.005
785.3984	-0.0104
785.5707	-0.0024
785.743	-0.0022
785.9153	-0.015
786.0876	-0.011
786.2598	-0.0062
786.432	-0.0208
786.6042	-0.0047
786.7764	-0.0076
786.9486	-0.0046
787.1207	-0.0114
787.2928	0.0124
787.4649	0.0088
787.637	0.0046
787.8091	-0.0053
787.9811	0.0014
788.1532	0.008
788.3252	0.0116
788.4972	-0.0035
788.6691	-0.0008
788.8411	0.0081
789.013	-0.0116
789.1849	-0.0013
789.3568	-0.0076
789.5287	0.0062
789.7005	0.0119
789.8723	-0.0037
790.0442	0.008
790.2159	-0.0032
790.3877	0.0066
790.5595	-0.0132
790.7312	-0.0057
790.9029	-0.0102
791.0746	-0.0124
791.2463	0.0009
791.4179	-0.0085
791.5896	-0.0153
791.7612	0.0049
791.9328	0.0094
792.1044	-0.0014
792.2759	-0.0076
792.4474	-0.0024
792.619	-0.0025
792.7905	0.0074
792.9619	-0.0019
793.1334	0.0175
793.3048	0.0027
793.4762	0.0043
793.6476	0
793.819	0.0129
793.9904	0.007
794.1617	-0.0181
794.333	-0.0203
794.5043	-0.021
794.6756	-0.0123
794.8469	-0.0084
795.0181	-0.0066
795.1893	-0.0023
795.3605	0.0018
795.5317	0.0024
795.7029	-0.0015
795.874	-0.0057
796.0452	0.0004
796.2163	-0.0024
796.3873	0.007
796.5584	0.0085
796.7294	-0.0003
796.9005	0.0115
797.0715	0.0111
797.2425	-0.0196
797.4134	-0.019
797.5844	-0.0114
797.7553	-0.0168
797.9262	-0.0058
798.0971	-0.0247
798.2679	-0.0112
798.4388	-0.0109
798.6096	0.0014
798.7804	-0.0026
798.9512	0.0015
799.122	-0.006
799.2927	0.012
799.4635	0.0115
799.6342	-0.0189
799.8049	-0.0002
799.9755	0.0028
800.1462	0.0076
800.3168	0.0208
800.4874	0.0045
800.658	0.0168
800.8286	0.0059
800.9991	0.0242
801.1696	-0.0068
801.3402	0.0058
801.5106	-0.003
801.6811	0.0012
801.8516	0.0182
802.022	-0.001
802.1924	0.0146
802.3628	0.0002
802.5332	0.0129
802.7035	0.0101
802.8739	0.0017
803.0442	0.0015
803.2145	0.0257
803.3847	-0.0105
803.555	0.0039
803.7252	-0.0098
803.8954	-0.0165
804.0656	-0.0168
804.2358	-0.003
804.4059	0.0242
804.5761	0.007
804.7462	0.0031
804.9163	0.0093
805.0864	-0.0104
805.2564	-0.0089
805.4264	0.0112
805.5965	-0.006
805.7665	0.0076
805.9364	0.0097
806.1064	0.0357
806.2763	0
806.4462	0.0205
806.6161	-0.0008
806.786	0.0192
806.9559	0.0027
807.1257	0.0005
807.2955	0.0059
807.4653	0.0007
807.6351	-0.0172
807.8048	-0.0009
807.9746	0.0005
808.1443	0.0039
808.314	0.0024
808.4837	-0.0007
808.6533	-0.0031
808.8229	0.0116
808.9926	-0.0042
809.1622	0.0104
809.3317	0.0143
809.5013	0.0111
809.6708	0.0094
809.8403	0.0176
810.0098	-0.006
810.1793	0.0136
810.3488	-0.0052
810.5182	-0.0111
810.6876	0.0186
810.857	-0.0077
811.0264	0.0087
811.1958	0.0047
811.3651	0.005
811.5344	0.0035
811.7037	-0.0052
811.873	0.0006
812.0422	-0.0049
812.2115	-0.0153
812.3807	-0.0104
812.5499	0.0184
812.7191	0.0173
812.8882	0.0072
813.0574	-0.0178
813.2265	0.0038
813.3956	-0.0069
813.5646	-0.0173
813.7337	-0.0055
813.9027	0.0071
814.0718	0.0099
814.2407	0.0159
814.4097	-0.0142
814.5787	0.0086
814.7476	-0.0147
814.9165	-0.0052
815.0854	0.0135
815.2543	-0.0127
815.4232	0.0003
815.592	0.0006
815.7608	-0.0056
815.9296	-0.0118
816.0984	0.0107
816.2671	-0.0015
816.4359	0.0148
816.6046	0.0137
816.7733	-0.0237
816.942	0.0038
817.1106	0.0235
817.2793	0.0041
817.4479	0.0118
817.6165	0.0134
817.785	0.0086
817.9536	-0.0161
818.1221	-0.0111
818.2906	0.0065
818.4591	0.012
818.6276	-0.01
818.7961	0.0043
818.9645	-0.0049
819.1329	0.0071
819.3013	0.0166
819.4697	0.0087
819.638	0.0094
819.8064	0.0086
819.9747	-0.0003
820.143	0.0199
820.3113	-0.0029
820.4795	0.0085
820.6477	0.0018
820.816	0.0128
820.9842	0.0184
821.1523	0.0026
821.3205	-0.0153
821.4886	0.0114
821.6567	0.0025
821.8248	-0.0017
821.9929	0.0278
822.1609	-0.0093
822.329	-0.014
822.497	0.0114
822.665	-0.017
822.833	0.007
823.0009	0.0137
823.1688	0.026
823.3367	0.0168
823.5046	0.0293
823.6725	0.0388
823.8404	0.0056
824.0082	-0.0039
824.176	0.0145
824.3438	0.004
824.5116	0.0072
824.6793	0.025
824.847	-0.0307
825.0147	-0.0046
825.1824	0.0142
825.3501	0.0248
825.5177	-0.0165
825.6854	-0.016
825.853	-0.0012
826.0206	-0.0349
826.1881	0.0031
826.3557	-0.0474
826.5232	-0.003
826.6907	-0.0481
826.8582	-0.0133
827.0257	0.0065
827.1931	-0.0031
827.3605	-0.0093
827.528	-0.0119
827.6953	0.018
827.8627	-0.0174
828.03	0.027
828.1974	-0.0156
828.3647	-0.0422
828.532	0.002
828.6992	0.0005
828.8665	0.0058
829.0337	-0.0104
829.2009	0.0321
829.3681	-0.0184
829.5352	0.01
829.7024	-0.0225
829.8695	-0.0132
830.0366	0.0418
830.2037	0.0083
830.3707	0.027
830.5378	-0.0141
830.7048	-0.0191
830.8718	-0.0299
831.0388	0.0058
831.2057	0.0315
831.3727	0.0274
831.5396	-0.0101
831.7065	0.0035
831.8734	0.0077
832.0402	-0.037
832.2071	0.0092
832.3739	-0.0106
832.5407	0.0018
832.7075	0.0026
832.8742	-0.0085
833.041	-0.043
833.2077	-0.0511
833.3744	0.0012
833.541	0.0025
833.7077	-0.0219
833.8743	-0.0052
834.0409	-0.0084
834.2075	-0.0198
834.3741	-0.0186
834.5407	-0.0204
834.7072	0.0064
834.8737	-0.0181
835.0402	-0.0151
835.2067	0.0211
835.3731	0.0519
835.5395	-0.0272
835.706	0.0199
835.8723	0.0051
836.0387	0.0187
836.2051	-0.0156
836.3714	-0.0047
836.5377	0.0397
836.704	-0.0014
836.8703	0.0094
837.0365	0.0008
837.2027	-0.0007
837.3689	0.0285
837.5351	-0.0197
837.7013	-0.0174
837.8674	-0.006
838.0335	-0.0605
838.1997	-0.0237
838.3657	-0.0314
838.5318	-0.0057
838.6978	0.0919
838.8639	0.0292
839.0299	0.035
839.1958	-0.0092
839.3618	-0.0118
839.5277	-0.0033
839.6937	0.0169
839.8596	0.0301
840.0254	0.023
840.1913	0.0109
840.3571	-0.0171
840.523	-0.0269
840.6888	-0.0263
840.8545	-0.0243
841.0203	0.017
841.186	0.0557
841.3517	-0.0335
841.5174	0.0001
841.6831	0.002
841.8488	-0.0244
842.0144	-0.0081
842.18	0.0191
842.3456	0.0539
842.5112	-0.0387
842.6767	-0.05
842.8422	-0.0042
843.0077	-0.0476
843.1732	-0.0248
843.3387	-0.0188
843.5042	-0.0757
843.6696	-0.0347
843.835	-0.0678
844.0004	0.0129
844.1657	-0.0176
844.3311	-0.0592
844.4964	-0.154
844.6617	-0.0503
844.827	-0.0451
844.9923	0.0093
845.1575	0.0505
845.3227	-0.018
845.4879	-0.011
845.6531	-0.0234
845.8183	-0.0793
845.9834	-0.0085
846.1485	-0.0232
846.3136	-0.0173
846.4787	0.0017
846.6438	0.0049
846.8088	-0.0287
846.9738	-0.1464
847.1388	-0.0591
847.3038	-0.0605
847.4687	-0.1427
847.6337	0.0119
847.7986	-0.0464
847.9635	-0.0338
848.1284	-0.0173
848.2932	0.0759
848.458	-0.0049
848.6228	0.0142
848.7876	0.0784
848.9524	-0.0362
849.1172	-0.0119
849.2819	-0.036
849.4466	-0.0926
849.6113	-0.0567
849.7759	-0.0018
849.9406	0.034
850.1052	0.0014
850.2698	0.0336
850.4344	-0.041
850.599	-0.1001
850.7635	0.0254
850.928	-0.0378
851.0925	0.0021
851.257	-0.0223
851.4215	0.0047
851.5859	-0.113
851.7503	0.0505
851.9147	0.0255
852.0791	-0.0493
852.2434	-0.0566
852.4078	0.0701
852.5721	-0.031
852.7364	-0.1076
852.9007	-0.1928
853.0649	0.0501
853.2291	0.0052
853.3934	-0.0201
853.5575	0.051
853.7217	-0.1858
853.8859	-0.0037
854.05	-0.0902
854.2141	-0.005
854.3782	0.0002
854.5423	-0.1054
854.7063	0.0306
854.8703	-0.0757
855.0343	-0.2002
855.1983	-0.2077
855.3623	0.0592
855.5262	-0.0391
855.6901	-0.0757
855.854	0.0002
856.0179	-0.0064
856.1818	0.0273
856.3456	-0.0993
856.5094	-0.1737
856.6732	-0.0458
856.837	-0.0702
857.0008	0.0264
857.1645	0.0317
857.3282	-0.2021
857.4919	0.0165
857.6556	-0.0157
857.8192	0.0526
857.9828	-0.0961
858.1465	-0.0477
858.31	-0.089
858.4736	-0.1756
858.6372	-0.2389
858.8007	-0.2352
858.9642	0.0915
859.1277	0.1619
859.2911	0.1409
859.4546	0.0615
859.618	-0.3133
859.7814	-0.0383
859.9448	0.0181
860.1081	0.0277
860.2715	0.3248
860.4348	-0.0261
860.5981	-0.0314
860.7614	0.075
860.9246	-0.0364
861.0879	-0.2225
861.2511	0.0491
861.4143	-0.1784
861.5774	0.1606
861.7406	-0.0773
861.9037	-0.1145
862.0668	-0.2545
862.2299	-0.1753
862.393	-0.5221
862.556	0.0648
862.7191	-0.2433
862.8821	-0.2855
863.0451	0.2165
863.208	0.1539
863.371	0.084
863.5339	-0.0912
863.6968	-0.1853
863.8597	0.4995
864.0225	-0.0756
864.1854	-0.0583
864.3482	0.9473
864.511	-0.004
864.6737	-0.0663
864.8365	-0.1279
864.9992	0.1525
865.1619	-0.5919
865.3246	0.3973
865.4873	0.1187
865.65	0.1258
865.8126	-0.0072
865.9752	0.0227
866.1378	-0.15
866.3004	1.1749
866.4629	0.2325
866.6254	-0.1167
866.7879	-0.0701
866.9504	0.1525
867.1129	-0
867.2753	0.2016
867.4377	0.0362
867.6001	-0.4749
867.7625	0.2244
867.9249	-0
868.0872	0.2221
868.2495	0.224
868.4118	-0.3637
868.5741	-0.6058
868.7363	-0.2434
868.8986	-0
869.0608	-0.2917
869.223	0.2321
869.3851	-0
869.5473	-0
869.7094	0.1354
869.8715	-0.3142
870.0336	-0.801
870.1957	-0.075
870.3577	-1.036
870.5197	-0.0926
870.6817	-0.288
870.8437	-0.182
871.0057	-0.4359
871.1676	-0.2501
871.3295	-0.5122
871.4914	-0
871.6533	-0.4797
871.8151	-0.4642
871.977	-0
872.1388	-0
872.3006	-0
872.4623	-0
872.6241	0.1517
872.7858	1.4726
872.9475	-0.1876
873.1092	0.1304
873.2709	1.2478
873.4325	0.1828
873.5941	0.0033
873.7557	-0
873.9173	-0
874.0789	-0.5213
874.2404	0.0712
874.4019	-0.0246
874.5634	-0.0801
874.7249	0.0294
874.8863	-0.1636
875.0478	-0.1238
875.2092	-0
875.3706	0.0759
875.5319	0.0071
875.6933	-0
875.8546	-0.2626
876.0159	-0
876.1772	-0
876.3385	-0
876.4997	0.218
876.6609	0.397
876.8221	-0.1389
876.9833	0.0113
877.1445	-0
877.3056	0.2402
877.4667	-0.2138
877.6278	-0
877.7889	-0.0825
877.9499	-0
878.111	-0
878.272	-0
878.433	-0
878.5939	1.2065
878.7549	-0.1414
878.9158	-0.5194
879.0767	1.1922
879.2376	-0.1194
879.3984	-0
879.5593	-0
879.7201	-0.2276
879.8809	-0.8194
880.0417	-0.0998
880.2024	0.2021
880.3632	0.301
880.5239	0.0684
880.6846	-0
880.8452	-2.1222
881.0059	-0
881.1665	1.5921
881.3271	-0
881.4877	-0.3369
881.6483	-0.5148
881.8088	1.2909
881.9693	-0
882.1298	-0
882.2903	-0
