Data from MonoPyChalIsomerACN10uM440nmA_Absorbance_15-27-10-794.txt Node
Date: Fri Jul 05 15:27:10 BST 2024
User: LASERRRRR
Spectrometer: FLMT03099
Trigger mode: 0
Integration Time (sec): 1.000000E-1
Scans to average: 1
Electric dark correction enabled: true
Nonlinearity correction enabled: false
Boxcar width: 0
XAxis mode: Wavelengths
Number of Pixels in Spectrum: 3648
>>>>>Begin Spectral Data<<<<<
179.3399	0.3452
179.5586	0.3452
179.7771	0.3452
179.9957	-0
180.2143	-0
180.4329	-0.0811
180.6514	0.7386
180.8699	-0
181.0885	-0
181.307	0.3413
181.5255	-0
181.744	-0.5913
181.9625	0.3324
182.181	-1.0504
182.3994	-0
182.6179	-0.5382
182.8363	-0.0466
183.0547	-0.0311
183.2732	0.0115
183.4916	0.098
183.71	0.1633
183.9284	0.1068
184.1467	-0.1426
184.3651	0.0088
184.5835	-0.0436
184.8018	0.1714
185.0201	0.3035
185.2385	0.0709
185.4568	0.0335
185.6751	-0.1424
185.8934	0.3337
186.1117	-0.0466
186.3299	0.2109
186.5482	-0.0182
186.7664	0.0496
186.9847	-0.0142
187.2029	0.1882
187.4211	-0.034
187.6393	0.1639
187.8575	0.1135
188.0757	0.2304
188.2939	0.1673
188.512	0.0586
188.7302	-0.2415
188.9483	0.0906
189.1665	0.2018
189.3846	-0.2015
189.6027	0.3062
189.8208	0.1573
190.0389	0.2083
190.257	0.3843
190.475	0.1284
190.6931	0.0193
190.9111	0.3681
191.1292	0.1684
191.3472	0.3635
191.5652	0.3095
191.7832	0.362
192.0012	0.5473
192.2192	0.4411
192.4371	0.9228
192.6551	0.4879
192.873	0.2816
193.091	0.5636
193.3089	0.6147
193.5268	0.5776
193.7447	0.503
193.9626	0.4548
194.1805	0.7698
194.3984	0.7197
194.6162	0.63
194.8341	0.5369
195.0519	0.3862
195.2697	0.5175
195.4875	0.461
195.7054	0.5548
195.9231	0.6864
196.1409	0.6096
196.3587	0.4919
196.5765	0.601
196.7942	0.6798
197.012	0.4969
197.2297	0.4944
197.4474	0.7047
197.6651	0.5947
197.8828	0.4667
198.1005	0.5621
198.3182	0.8125
198.5358	0.7358
198.7535	0.6146
198.9711	0.5788
199.1888	0.6313
199.4064	0.8612
199.624	0.5049
199.8416	0.5763
200.0592	0.7395
200.2767	0.7103
200.4943	0.8103
200.7119	0.7966
200.9294	0.7164
201.1469	0.5802
201.3645	0.5341
201.582	0.5663
201.7995	0.6397
202.017	0.5969
202.2344	0.5336
202.4519	0.6429
202.6694	0.5718
202.8868	0.7129
203.1042	0.8096
203.3217	0.6312
203.5391	0.7015
203.7565	0.591
203.9739	0.7178
204.1913	0.6255
204.4086	0.7324
204.626	0.7459
204.8433	0.646
205.0607	0.6293
205.278	0.6693
205.4953	0.6719
205.7126	0.7029
205.9299	0.6951
206.1472	0.6429
206.3644	0.644
206.5817	0.6428
206.7989	0.6607
207.0162	0.597
207.2334	0.6665
207.4506	0.6485
207.6678	0.6506
207.885	0.6968
208.1022	0.6767
208.3194	0.6091
208.5365	0.6631
208.7537	0.6863
208.9708	0.6431
209.1879	0.6899
209.405	0.6486
209.6222	0.6736
209.8392	0.6313
210.0563	0.6783
210.2734	0.6766
210.4905	0.626
210.7075	0.635
210.9245	0.576
211.1416	0.7035
211.3586	0.6159
211.5756	0.5822
211.7926	0.6216
212.0096	0.6401
212.2265	0.5888
212.4435	0.6038
212.6604	0.6036
212.8774	0.5674
213.0943	0.5824
213.3112	0.5144
213.5281	0.553
213.745	0.5226
213.9619	0.5148
214.1788	0.5222
214.3956	0.5017
214.6125	0.5011
214.8293	0.4433
215.0461	0.4542
215.2629	0.4357
215.4798	0.4873
215.6965	0.4365
215.9133	0.4703
216.1301	0.4291
216.3469	0.4358
216.5636	0.4172
216.7803	0.4359
216.9971	0.4155
217.2138	0.3635
217.4305	0.3951
217.6472	0.3531
217.8639	0.385
218.0805	0.3517
218.2972	0.326
218.5138	0.3359
218.7305	0.3096
218.9471	0.3205
219.1637	0.3027
219.3803	0.2853
219.5969	0.2719
219.8135	0.2523
220.0301	0.2978
220.2466	0.279
220.4632	0.2626
220.6797	0.2299
220.8962	0.2564
221.1127	0.2564
221.3292	0.2707
221.5457	0.2431
221.7622	0.2186
221.9787	0.238
222.1951	0.2466
222.4116	0.2621
222.628	0.2505
222.8444	0.2524
223.0608	0.2389
223.2772	0.2561
223.4936	0.2656
223.71	0.2504
223.9264	0.273
224.1427	0.2562
224.3591	0.2672
224.5754	0.2558
224.7917	0.2562
225.008	0.2543
225.2243	0.2327
225.4406	0.2849
225.6569	0.2699
225.8732	0.2726
226.0894	0.2691
226.3057	0.2768
226.5219	0.2695
226.7381	0.2768
226.9543	0.2894
227.1705	0.2821
227.3867	0.2836
227.6029	0.282
227.8191	0.2713
228.0352	0.2841
228.2513	0.3239
228.4675	0.3077
228.6836	0.3097
228.8997	0.3086
229.1158	0.3129
229.3319	0.2943
229.548	0.3164
229.764	0.3318
229.9801	0.3185
230.1961	0.3317
230.4121	0.3374
230.6282	0.3268
230.8442	0.3169
231.0602	0.3413
231.2761	0.344
231.4921	0.3353
231.7081	0.3437
231.924	0.3496
232.14	0.3613
232.3559	0.3507
232.5718	0.3596
232.7877	0.3605
233.0036	0.3479
233.2195	0.3472
233.4353	0.346
233.6512	0.3653
233.867	0.3644
234.0829	0.3466
234.2987	0.3564
234.5145	0.3803
234.7303	0.3521
234.9461	0.3807
235.1619	0.3848
235.3776	0.3946
235.5934	0.3934
235.8091	0.356
236.0249	0.3751
236.2406	0.3878
236.4563	0.3766
236.672	0.3881
236.8877	0.403
237.1034	0.3877
237.319	0.3901
237.5347	0.4056
237.7503	0.3823
237.966	0.4063
238.1816	0.3956
238.3972	0.393
238.6128	0.4111
238.8284	0.4041
239.0439	0.4116
239.2595	0.4047
239.475	0.4121
239.6906	0.4198
239.9061	0.3882
240.1216	0.3962
240.3371	0.4022
240.5526	0.3845
240.7681	0.4178
240.9836	0.3751
241.199	0.3872
241.4145	0.375
241.6299	0.3805
241.8453	0.3682
242.0607	0.3905
242.2761	0.3721
242.4915	0.3588
242.7069	0.3474
242.9223	0.3357
243.1376	0.3525
243.353	0.335
243.5683	0.3269
243.7836	0.3096
243.9989	0.3191
244.2142	0.2959
244.4295	0.2991
244.6448	0.297
244.86	0.2943
245.0753	0.2773
245.2905	0.2691
245.5057	0.2739
245.721	0.2602
245.9362	0.2593
246.1514	0.2672
246.3665	0.2463
246.5817	0.2433
246.7969	0.2459
247.012	0.236
247.2271	0.2282
247.4423	0.235
247.6574	0.2343
247.8725	0.2264
248.0876	0.2072
248.3026	0.2155
248.5177	0.2148
248.7328	0.1902
248.9478	0.1929
249.1628	0.2132
249.3779	0.2068
249.5929	0.2072
249.8079	0.2113
250.0228	0.1946
250.2378	0.1965
250.4528	0.1914
250.6677	0.1733
250.8827	0.1912
251.0976	0.1852
251.3125	0.1859
251.5274	0.1656
251.7423	0.1792
251.9572	0.1837
252.172	0.1704
252.3869	0.1873
252.6017	0.1767
252.8166	0.1625
253.0314	0.1579
253.2462	0.1659
253.461	0.1856
253.6758	0.1661
253.8906	0.1774
254.1053	0.1613
254.3201	0.1514
254.5348	0.1767
254.7496	0.1748
254.9643	0.1555
255.179	0.1682
255.3937	0.1618
255.6083	0.1681
255.823	0.1656
256.0377	0.1591
256.2523	0.1728
256.467	0.1474
256.6816	0.1784
256.8962	0.1643
257.1108	0.1631
257.3254	0.1745
257.54	0.1508
257.7545	0.1626
257.9691	0.1749
258.1836	0.1738
258.3981	0.1718
258.6127	0.1752
258.8272	0.1651
259.0417	0.1708
259.2561	0.1637
259.4706	0.1722
259.6851	0.1709
259.8995	0.155
260.114	0.1521
260.3284	0.158
260.5428	0.1596
260.7572	0.1618
260.9716	0.1692
261.186	0.1582
261.4003	0.161
261.6147	0.1656
261.829	0.1599
262.0433	0.1558
262.2577	0.1535
262.472	0.1591
262.6863	0.1523
262.9005	0.152
263.1148	0.1588
263.3291	0.1449
263.5433	0.1596
263.7576	0.153
263.9718	0.1605
264.186	0.1658
264.4002	0.1649
264.6144	0.1675
264.8286	0.177
265.0427	0.1563
265.2569	0.1492
265.471	0.1425
265.6851	0.1571
265.8993	0.1527
266.1134	0.1483
266.3275	0.1617
266.5415	0.1414
266.7556	0.165
266.9697	0.1659
267.1837	0.1553
267.3978	0.1498
267.6118	0.1651
267.8258	0.1623
268.0398	0.14
268.2538	0.1633
268.4677	0.1538
268.6817	0.1473
268.8957	0.1556
269.1096	0.147
269.3235	0.1462
269.5374	0.1452
269.7514	0.1381
269.9652	0.137
270.1791	0.1413
270.393	0.1394
270.6068	0.1546
270.8207	0.144
271.0345	0.136
271.2483	0.1538
271.4622	0.1474
271.676	0.1409
271.8897	0.1285
272.1035	0.1422
272.3173	0.1278
272.531	0.1389
272.7448	0.1355
272.9585	0.1376
273.1722	0.1298
273.3859	0.1308
273.5996	0.1195
273.8133	0.1383
274.0269	0.1301
274.2406	0.1299
274.4542	0.1271
274.6679	0.1197
274.8815	0.1411
275.0951	0.1362
275.3087	0.145
275.5223	0.1406
275.7358	0.1437
275.9494	0.1339
276.1629	0.1165
276.3765	0.1265
276.59	0.1463
276.8035	0.1363
277.017	0.1307
277.2305	0.1281
277.444	0.1402
277.6574	0.1281
277.8709	0.134
278.0843	0.1256
278.2978	0.1281
278.5112	0.128
278.7246	0.1285
278.938	0.1344
279.1513	0.1408
279.3647	0.1456
279.5781	0.1361
279.7914	0.1415
280.0047	0.146
280.2181	0.1396
280.4314	0.1315
280.6447	0.1487
280.8579	0.1428
281.0712	0.1346
281.2845	0.1417
281.4977	0.1393
281.711	0.1331
281.9242	0.135
282.1374	0.135
282.3506	0.1325
282.5638	0.141
282.7769	0.1371
282.9901	0.1518
283.2033	0.1427
283.4164	0.1549
283.6295	0.1342
283.8426	0.1368
284.0557	0.1478
284.2688	0.1517
284.4819	0.1616
284.695	0.1451
284.908	0.1556
285.1211	0.1383
285.3341	0.1482
285.5471	0.1615
285.7601	0.1497
285.9731	0.1465
286.1861	0.1406
286.3991	0.1606
286.612	0.1585
286.825	0.1497
287.0379	0.1689
287.2508	0.1543
287.4637	0.1593
287.6766	0.147
287.8895	0.1643
288.1024	0.171
288.3152	0.1603
288.5281	0.16
288.7409	0.1679
288.9538	0.1654
289.1666	0.1537
289.3794	0.159
289.5922	0.1615
289.8049	0.1629
290.0177	0.1539
290.2304	0.1706
290.4432	0.1613
290.6559	0.1594
290.8686	0.1727
291.0813	0.1557
291.294	0.1662
291.5067	0.1747
291.7194	0.1568
291.932	0.1854
292.1447	0.1667
292.3573	0.1524
292.5699	0.1649
292.7825	0.1532
292.9951	0.1669
293.2077	0.1663
293.4203	0.1696
293.6328	0.1601
293.8454	0.1693
294.0579	0.158
294.2704	0.1687
294.4829	0.1465
294.6954	0.1604
294.9079	0.1727
295.1204	0.1581
295.3328	0.1639
295.5453	0.1574
295.7577	0.1681
295.9701	0.1498
296.1825	0.1781
296.3949	0.1619
296.6073	0.1623
296.8197	0.1664
297.0321	0.1741
297.2444	0.1581
297.4567	0.1695
297.6691	0.1668
297.8814	0.1597
298.0937	0.1612
298.306	0.1688
298.5182	0.1696
298.7305	0.1676
298.9428	0.1661
299.155	0.1663
299.3672	0.1723
299.5794	0.1702
299.7916	0.1644
300.0038	0.1714
300.216	0.1707
300.4282	0.1749
300.6403	0.1674
300.8525	0.1673
301.0646	0.1585
301.2767	0.1662
301.4888	0.1647
301.7009	0.1631
301.913	0.1649
302.125	0.1696
302.3371	0.1613
302.5491	0.1716
302.7612	0.174
302.9732	0.1626
303.1852	0.1713
303.3972	0.1644
303.6092	0.1533
303.8211	0.1608
304.0331	0.1546
304.245	0.1567
304.457	0.1496
304.6689	0.1555
304.8808	0.155
305.0927	0.1473
305.3046	0.1567
305.5164	0.1695
305.7283	0.1478
305.9401	0.1534
306.152	0.1373
306.3638	0.1578
306.5756	0.1438
306.7874	0.1562
306.9992	0.1504
307.2109	0.1359
307.4227	0.1221
307.6344	0.1372
307.8462	0.1291
308.0579	0.1415
308.2696	0.1317
308.4813	0.1323
308.693	0.1318
308.9046	0.1338
309.1163	0.129
309.328	0.1188
309.5396	0.1171
309.7512	0.1219
309.9628	0.1081
310.1744	0.1229
310.386	0.1168
310.5976	0.1122
310.8091	0.1242
311.0207	0.1067
311.2322	0.108
311.4437	0.1121
311.6552	0.1005
311.8667	0.112
312.0782	0.098
312.2897	0.0954
312.5012	0.1076
312.7126	0.0968
312.924	0.1013
313.1355	0.1025
313.3469	0.1076
313.5583	0.1097
313.7696	0.1006
313.981	0.0904
314.1924	0.0955
314.4037	0.0878
314.6151	0.0991
314.8264	0.0899
315.0377	0.0854
315.249	0.1044
315.4603	0.0947
315.6716	0.0914
315.8828	0.0849
316.0941	0.0877
316.3053	0.0931
316.5165	0.091
316.7277	0.0757
316.9389	0.0962
317.1501	0.0893
317.3613	0.0871
317.5724	0.0761
317.7836	0.0995
317.9947	0.0833
318.2058	0.0924
318.417	0.0912
318.6281	0.0726
318.8391	0.084
319.0502	0.0834
319.2613	0.0846
319.4723	0.0919
319.6834	0.0976
319.8944	0.0753
320.1054	0.097
320.3164	0.0928
320.5274	0.0818
320.7383	0.0784
320.9493	0.0809
321.1602	0.089
321.3712	0.0795
321.5821	0.0846
321.793	0.0914
322.0039	0.0848
322.2148	0.082
322.4257	0.0887
322.6365	0.1068
322.8474	0.0982
323.0582	0.0914
323.269	0.0931
323.4798	0.1071
323.6906	0.0883
323.9014	0.0816
324.1122	0.0974
324.3229	0.0911
324.5337	0.0949
324.7444	0.0896
324.9551	0.099
325.1658	0.0975
325.3765	0.0909
325.5872	0.0814
325.7979	0.0884
326.0085	0.0777
326.2192	0.1043
326.4298	0.0977
326.6404	0.085
326.851	0.0857
327.0616	0.0831
327.2722	0.0931
327.4828	0.0963
327.6933	0.0881
327.9039	0.093
328.1144	0.0937
328.3249	0.101
328.5354	0.0895
328.7459	0.0895
328.9564	0.0898
329.1669	0.0957
329.3773	0.0903
329.5878	0.0909
329.7982	0.093
330.0086	0.0873
330.219	0.0829
330.4294	0.0913
330.6398	0.1036
330.8502	0.0891
331.0605	0.0939
331.2708	0.089
331.4812	0.1035
331.6915	0.0898
331.9018	0.103
332.1121	0.0988
332.3224	0.0945
332.5326	0.1024
332.7429	0.0942
332.9531	0.1084
333.1633	0.1004
333.3735	0.1
333.5837	0.0967
333.7939	0.0904
334.0041	0.1028
334.2143	0.1017
334.4244	0.0951
334.6346	0.0951
334.8447	0.1128
335.0548	0.093
335.2649	0.0885
335.475	0.1015
335.685	0.0984
335.8951	0.1106
336.1051	0.1009
336.3152	0.1014
336.5252	0.0968
336.7352	0.094
336.9452	0.1019
337.1552	0.097
337.3652	0.1085
337.5751	0.106
337.7851	0.1109
337.995	0.0847
338.2049	0.0985
338.4148	0.1052
338.6247	0.1059
338.8346	0.095
339.0445	0.1044
339.2543	0.0972
339.4642	0.1021
339.674	0.0957
339.8838	0.1156
340.0936	0.1099
340.3034	0.117
340.5132	0.1193
340.7229	0.1004
340.9327	0.1107
341.1424	0.1099
341.3522	0.1086
341.5619	0.1201
341.7716	0.1192
341.9813	0.106
342.1909	0.105
342.4006	0.1125
342.6102	0.124
342.8199	0.1168
343.0295	0.1115
343.2391	0.1131
343.4487	0.1195
343.6583	0.1007
343.8679	0.1187
344.0774	0.1199
344.287	0.122
344.4965	0.1135
344.706	0.1076
344.9155	0.1215
345.125	0.1217
345.3345	0.122
345.544	0.1155
345.7534	0.1171
345.9629	0.114
346.1723	0.1195
346.3817	0.1264
346.5911	0.1252
346.8005	0.1186
347.0099	0.1122
347.2193	0.1233
347.4286	0.116
347.638	0.1227
347.8473	0.1348
348.0566	0.1259
348.2659	0.1139
348.4752	0.1345
348.6845	0.1139
348.8937	0.1291
349.103	0.1349
349.3122	0.1206
349.5214	0.1218
349.7306	0.1397
349.9398	0.1392
350.149	0.1247
350.3582	0.1358
350.5674	0.1481
350.7765	0.1234
350.9856	0.1335
351.1948	0.1306
351.4039	0.123
351.613	0.1312
351.822	0.1473
352.0311	0.136
352.2402	0.1321
352.4492	0.1501
352.6582	0.1459
352.8672	0.1343
353.0762	0.1384
353.2852	0.1439
353.4942	0.126
353.7032	0.1342
353.9121	0.161
354.1211	0.1319
354.33	0.1462
354.5389	0.148
354.7478	0.1441
354.9567	0.1365
355.1655	0.1375
355.3744	0.15
355.5833	0.1635
355.7921	0.1664
356.0009	0.155
356.2097	0.1588
356.4185	0.1557
356.6273	0.1436
356.8361	0.1596
357.0448	0.1454
357.2536	0.148
357.4623	0.1565
357.671	0.1574
357.8797	0.1641
358.0884	0.1548
358.2971	0.1535
358.5057	0.1752
358.7144	0.1649
358.923	0.1695
359.1316	0.1577
359.3402	0.1694
359.5488	0.1752
359.7574	0.1667
359.966	0.1699
360.1746	0.1857
360.3831	0.1747
360.5916	0.1497
360.8002	0.1529
361.0087	0.1823
361.2172	0.1737
361.4256	0.1622
361.6341	0.1801
361.8426	0.183
362.051	0.1836
362.2594	0.1935
362.4678	0.1726
362.6762	0.2047
362.8846	0.1937
363.093	0.1764
363.3014	0.188
363.5097	0.1711
363.718	0.1847
363.9264	0.1922
364.1347	0.1815
364.343	0.1927
364.5513	0.2025
364.7595	0.2066
364.9678	0.2046
365.176	0.1975
365.3842	0.1901
365.5925	0.2001
365.8007	0.1814
366.0089	0.2062
366.217	0.1937
366.4252	0.1943
366.6333	0.21
366.8415	0.1986
367.0496	0.1874
367.2577	0.2129
367.4658	0.2199
367.6739	0.2097
367.882	0.2106
368.09	0.2012
368.2981	0.2247
368.5061	0.2008
368.7141	0.2235
368.9221	0.2159
369.1301	0.2208
369.3381	0.2228
369.5461	0.2111
369.754	0.2163
369.962	0.2226
370.1699	0.2255
370.3778	0.2283
370.5857	0.2216
370.7936	0.232
371.0015	0.2339
371.2093	0.235
371.4172	0.2346
371.625	0.2224
371.8328	0.212
372.0406	0.227
372.2484	0.2292
372.4562	0.2209
372.664	0.2153
372.8717	0.2261
373.0795	0.2152
373.2872	0.2336
373.4949	0.2188
373.7026	0.2361
373.9103	0.2344
374.118	0.2368
374.3256	0.2377
374.5333	0.2522
374.7409	0.2247
374.9485	0.2648
375.1561	0.2444
375.3637	0.2491
375.5713	0.2471
375.7789	0.234
375.9864	0.2396
376.194	0.2518
376.4015	0.2617
376.609	0.2532
376.8165	0.2512
377.024	0.2455
377.2315	0.228
377.4389	0.2491
377.6464	0.245
377.8538	0.249
378.0612	0.244
378.2686	0.2619
378.476	0.2645
378.6834	0.2626
378.8908	0.2452
379.0981	0.2574
379.3055	0.2722
379.5128	0.2606
379.7201	0.2497
379.9274	0.2628
380.1347	0.2496
380.342	0.2757
380.5492	0.2583
380.7565	0.2664
380.9637	0.2705
381.1709	0.2564
381.3781	0.2388
381.5853	0.2842
381.7925	0.2546
381.9997	0.2589
382.2068	0.2794
382.4139	0.2587
382.6211	0.2664
382.8282	0.261
383.0353	0.2595
383.2424	0.2609
383.4494	0.2707
383.6565	0.272
383.8635	0.2603
384.0706	0.251
384.2776	0.267
384.4846	0.2659
384.6916	0.2704
384.8986	0.2743
385.1055	0.2681
385.3125	0.2793
385.5194	0.2598
385.7263	0.2843
385.9333	0.2722
386.1402	0.2634
386.347	0.2718
386.5539	0.2509
386.7608	0.2941
386.9676	0.2527
387.1744	0.2691
387.3813	0.2628
387.5881	0.2728
387.7948	0.2631
388.0016	0.2729
388.2084	0.2562
388.4151	0.2648
388.6219	0.2788
388.8286	0.2709
389.0353	0.2705
389.242	0.2673
389.4487	0.2517
389.6553	0.2651
389.862	0.2417
390.0686	0.2443
390.2753	0.2687
390.4819	0.2603
390.6885	0.2687
390.8951	0.2451
391.1016	0.2546
391.3082	0.2657
391.5147	0.2667
391.7213	0.2614
391.9278	0.2535
392.1343	0.2682
392.3408	0.2524
392.5473	0.2517
392.7537	0.2337
392.9602	0.2351
393.1666	0.2561
393.373	0.2506
393.5794	0.2277
393.7858	0.2594
393.9922	0.2273
394.1986	0.2482
394.4049	0.2476
394.6113	0.2393
394.8176	0.216
395.0239	0.2278
395.2302	0.226
395.4365	0.2251
395.6428	0.244
395.8491	0.2298
396.0553	0.2408
396.2615	0.2477
396.4678	0.2317
396.674	0.2211
396.8802	0.2359
397.0863	0.2371
397.2925	0.2225
397.4987	0.2264
397.7048	0.2267
397.9109	0.2459
398.117	0.2082
398.3231	0.2236
398.5292	0.2411
398.7353	0.2286
398.9413	0.2331
399.1474	0.2172
399.3534	0.2279
399.5594	0.2033
399.7654	0.2402
399.9714	0.2478
400.1774	0.2307
400.3833	0.2179
400.5893	0.2264
400.7952	0.2374
401.0011	0.2254
401.207	0.2337
401.4129	0.2275
401.6188	0.2348
401.8247	0.2097
402.0305	0.2149
402.2364	0.2285
402.4422	0.2433
402.648	0.2231
402.8538	0.2272
403.0596	0.2287
403.2654	0.2272
403.4711	0.2221
403.6768	0.2329
403.8826	0.2381
404.0883	0.2446
404.294	0.2242
404.4997	0.2351
404.7054	0.2325
404.911	0.2154
405.1167	0.2189
405.3223	0.2389
405.5279	0.217
405.7335	0.2347
405.9391	0.2346
406.1447	0.2277
406.3502	0.2455
406.5558	0.213
406.7613	0.2328
406.9668	0.2281
407.1724	0.2073
407.3778	0.2326
407.5833	0.2147
407.7888	0.2142
407.9942	0.2397
408.1997	0.2292
408.4051	0.2174
408.6105	0.2215
408.8159	0.2112
409.0213	0.2268
409.2267	0.2263
409.432	0.2042
409.6374	0.2225
409.8427	0.2227
410.048	0.2296
410.2533	0.2185
410.4586	0.2493
410.6639	0.2095
410.8691	0.2069
411.0744	0.2028
411.2796	0.2305
411.4848	0.2192
411.69	0.2209
411.8952	0.2467
412.1004	0.21
412.3056	0.2375
412.5107	0.2168
412.7158	0.2439
412.921	0.2211
413.1261	0.2091
413.3312	0.207
413.5362	0.2276
413.7413	0.2371
413.9464	0.2212
414.1514	0.2237
414.3564	0.2005
414.5614	0.2236
414.7664	0.2138
414.9714	0.2359
415.1764	0.2359
415.3813	0.2404
415.5863	0.2199
415.7912	0.2114
415.9961	0.2146
416.201	0.2109
416.4059	0.2239
416.6108	0.2182
416.8156	0.2125
417.0205	0.2212
417.2253	0.209
417.4301	0.2337
417.6349	0.2139
417.8397	0.2127
418.0445	0.2248
418.2492	0.2227
418.454	0.241
418.6587	0.208
418.8634	0.1999
419.0681	0.1974
419.2728	0.2204
419.4775	0.2163
419.6822	0.2035
419.8868	0.1916
420.0915	0.2116
420.2961	0.197
420.5007	0.2104
420.7053	0.2196
420.9099	0.1883
421.1144	0.2127
421.319	0.1976
421.5235	0.2034
421.728	0.2269
421.9325	0.2057
422.137	0.2029
422.3415	0.2028
422.546	0.1929
422.7504	0.1927
422.9549	0.2097
423.1593	0.2179
423.3637	0.2117
423.5681	0.1956
423.7725	0.1844
423.9769	0.192
424.1812	0.1954
424.3856	0.1853
424.5899	0.1827
424.7942	0.2042
424.9985	0.1862
425.2028	0.1819
425.4071	0.2174
425.6113	0.1756
425.8156	0.1913
426.0198	0.1906
426.224	0.1728
426.4282	0.1755
426.6324	0.1774
426.8366	0.1672
427.0407	0.1715
427.2449	0.1823
427.449	0.1889
427.6531	0.1642
427.8572	0.1733
428.0613	0.1586
428.2654	0.1731
428.4694	0.1794
428.6735	0.1591
428.8775	0.1791
429.0815	0.1784
429.2855	0.1556
429.4895	0.159
429.6935	0.1469
429.8975	0.1629
430.1014	0.1552
430.3053	0.1469
430.5093	0.1627
430.7132	0.1458
430.9171	0.1458
431.1209	0.1646
431.3248	0.1408
431.5286	0.1736
431.7325	0.1513
431.9363	0.135
432.1401	0.1514
432.3439	0.1268
432.5477	0.1092
432.7514	0.1445
432.9552	0.1331
433.1589	0.1429
433.3627	0.1354
433.5664	0.1308
433.7701	0.1224
433.9737	0.1125
434.1774	0.1145
434.3811	0.1279
434.5847	0.1306
434.7883	0.1162
434.9919	0.1164
435.1955	0.1269
435.3991	0.1122
435.6027	0.1133
435.8062	0.1048
436.0098	0.1137
436.2133	0.1032
436.4168	0.114
436.6203	0.0824
436.8238	0.1047
437.0272	0.1058
437.2307	0.1217
437.4341	0.1165
437.6375	0.1153
437.841	0.083
438.0443	0.0997
438.2477	0.1019
438.4511	0.085
438.6545	0.0953
438.8578	0.103
439.0611	0.1065
439.2644	0.0971
439.4677	0.0757
439.671	0.0758
439.8743	0.0965
440.0775	0.1003
440.2808	0.0791
440.484	0.066
440.6872	0.0475
440.8904	0.077
441.0936	0.0952
441.2967	0.073
441.4999	0.0875
441.703	0.0706
441.9062	0.0643
442.1093	0.0674
442.3124	0.0764
442.5155	0.0591
442.7185	0.0736
442.9216	0.0368
443.1246	0.0651
443.3276	0.0653
443.5307	0.0557
443.7337	0.0756
443.9366	0.0583
444.1396	0.0609
444.3426	0.0648
444.5455	0.0518
444.7484	0.0545
444.9513	0.0564
445.1542	0.0662
445.3571	0.0527
445.56	0.0531
445.7628	0.0404
445.9657	0.0573
446.1685	0.0541
446.3713	0.0349
446.5741	0.051
446.7769	0.0414
446.9797	0.0402
447.1824	0.0482
447.3852	0.0271
447.5879	0.0489
447.7906	0.0336
447.9933	0.0392
448.196	0.0431
448.3986	0.0296
448.6013	0.0334
448.8039	0.0261
449.0066	0.0267
449.2092	0.0378
449.4118	0.0393
449.6143	0.0265
449.8169	0.0452
450.0195	0.0319
450.222	0.0178
450.4245	0.031
450.627	0.0367
450.8295	0.0147
451.032	0.0192
451.2345	0.0233
451.4369	0.0342
451.6394	0.0212
451.8418	0.016
452.0442	0.0266
452.2466	0.0317
452.449	0.0068
452.6513	0.0198
452.8537	0.017
453.056	0.0207
453.2583	0.0081
453.4607	0.0218
453.663	0.0127
453.8652	0.0305
454.0675	0.0073
454.2697	0.0037
454.472	0.0069
454.6742	0.0316
454.8764	0.0046
455.0786	0.0161
455.2808	0.0239
455.4829	0.019
455.6851	0.0231
455.8872	0.0118
456.0893	0.0099
456.2915	-0.0044
456.4935	0.0248
456.6956	0.0136
456.8977	0.0263
457.0997	0.0089
457.3018	0.0005
457.5038	0.0119
457.7058	0.0123
457.9078	0.0094
458.1098	0.02
458.3117	0.0104
458.5137	0.0091
458.7156	0.0122
458.9175	-0.0065
459.1194	0.0118
459.3213	-0.0009
459.5232	0.0202
459.725	-0.0153
459.9269	-0.003
460.1287	-0.0003
460.3305	0.0217
460.5323	-0.0074
460.7341	0.0077
460.9359	-0.0024
461.1376	-0.0005
461.3394	-0.0112
461.5411	0.0012
461.7428	0.0051
461.9445	0.0115
462.1462	0.0141
462.3479	0.0037
462.5495	-0.0002
462.7512	0.0017
462.9528	0.0038
463.1544	-0.0072
463.356	-0.0119
463.5576	0.0145
463.7592	-0.0035
463.9607	0.0071
464.1623	0.021
464.3638	0.0242
464.5653	-0.0114
464.7668	-0.0018
464.9683	0.0112
465.1697	0.016
465.3712	-0.0082
465.5726	-0.0039
465.7741	0.0011
465.9755	-0.0089
466.1769	0.0042
466.3782	0.0046
466.5796	-0.0066
466.7809	0.019
466.9823	-0.0087
467.1836	-0.0023
467.3849	-0.0041
467.5862	0.0195
467.7875	-0.0033
467.9887	-0.0013
468.19	-0.0062
468.3912	-0.0107
468.5924	-0.0085
468.7936	-0
468.9948	0.0055
469.196	0.0077
469.3972	-0.0078
469.5983	-0.006
469.7994	-0.0123
470.0006	-0.0065
470.2017	-0.0123
470.4027	0.0013
470.6038	0.0022
470.8049	-0.0114
471.0059	-0.0117
471.2069	-0.0277
471.408	0.0155
471.6089	0.0091
471.8099	0.0105
472.0109	0.003
472.2119	-0.016
472.4128	-0.0186
472.6137	0.0036
472.8146	-0.0017
473.0155	-0.0099
473.2164	0.0025
473.4173	0.0161
473.6181	0.0073
473.819	-0.0062
474.0198	-0.0072
474.2206	-0.0179
474.4214	0.0003
474.6222	0.0187
474.8229	-0.0104
475.0237	-0.0118
475.2244	-0.0133
475.4251	-0.0065
475.6258	0.0056
475.8265	0.0036
476.0272	0.0076
476.2278	0.0032
476.4285	0.0021
476.6291	-0.0068
476.8297	0.0067
477.0303	-0.0035
477.2309	0.0012
477.4315	-0.0092
477.632	-0.0107
477.8326	-0.0045
478.0331	-0.0029
478.2336	0.006
478.4341	-0.0063
478.6346	0.0001
478.8351	0.0017
479.0355	-0.0074
479.236	0.0027
479.4364	0.006
479.6368	-0.0137
479.8372	-0.0243
480.0376	0.0041
480.2379	-0.0132
480.4383	-0.0034
480.6386	0.0081
480.8389	-0.0011
481.0392	-0.0113
481.2395	-0.0034
481.4398	0.016
481.6401	-0.0021
481.8403	0.003
482.0405	-0.0079
482.2408	-0.0084
482.441	0.0027
482.6411	-0.0029
482.8413	-0.0056
483.0415	-0.0032
483.2416	-0.0119
483.4417	0.0029
483.6419	-0.0054
483.8419	-0.0023
484.042	0.004
484.2421	-0.0004
484.4422	0.0028
484.6422	-0.0068
484.8422	-0.0014
485.0422	-0.0108
485.2422	0.0005
485.4422	-0.0133
485.6422	-0.0121
485.8421	-0.0082
486.042	-0.0036
486.242	-0.0048
486.4419	-0.0036
486.6417	-0.0063
486.8416	-0.0037
487.0415	-0.0105
487.2413	-0.0094
487.4411	-0.012
487.641	-0.0057
487.8408	0.0077
488.0405	-0.0114
488.2403	-0.0121
488.4401	0.0073
488.6398	-0.0065
488.8395	-0.0111
489.0392	-0.0025
489.2389	-0.0164
489.4386	0.0027
489.6383	0.0025
489.8379	-0.0082
490.0376	0.0059
490.2372	-0.0008
490.4368	-0.0115
490.6364	0.0035
490.836	-0.0051
491.0355	-0.005
491.2351	-0.0114
491.4346	-0.0077
491.6341	-0.0113
491.8336	0.0027
492.0331	-0.0077
492.2326	-0.0153
492.432	-0.0108
492.6315	-0.005
492.8309	-0.0109
493.0303	-0.0038
493.2297	-0.0057
493.4291	0.0032
493.6284	0.0014
493.8278	-0.0109
494.0271	0.0064
494.2264	0.0126
494.4257	-0.0092
494.625	-0.0047
494.8243	-0.0054
495.0236	-0.0002
495.2228	-0.0159
495.422	-0.0037
495.6213	-0.0023
495.8205	-0.0075
496.0196	-0.0102
496.2188	-0.0004
496.418	-0.0105
496.6171	-0.007
496.8162	-0.0064
497.0153	0.005
497.2144	-0.0077
497.4135	-0.0055
497.6126	-0.0016
497.8116	-0.0091
498.0107	0.0088
498.2097	-0.0132
498.4087	-0.0024
498.6077	0.005
498.8067	-0.0067
499.0056	-0.0012
499.2046	-0.0109
499.4035	-0.0228
499.6024	-0.0094
499.8013	0.0059
500.0002	-0.0142
500.199	-0.0034
500.3979	-0.0163
500.5967	-0.0149
500.7956	0.0034
500.9944	0.0018
501.1932	-0.0042
501.3919	-0.0097
501.5907	-0.006
501.7895	0.0028
501.9882	-0.0129
502.1869	0.0008
502.3856	-0.0079
502.5843	-0.0053
502.783	-0.0121
502.9816	-0.0073
503.1803	-0.0133
503.3789	-0.0046
503.5775	0.0034
503.7761	-0.0065
503.9747	0.0004
504.1732	-0.0051
504.3718	-0.0034
504.5703	0.0041
504.7689	-0.0132
504.9674	-0.0035
505.1658	-0.0067
505.3643	-0.0077
505.5628	-0.0166
505.7612	-0.0046
505.9597	0.0015
506.1581	-0.0058
506.3565	0.0088
506.5549	0.0006
506.7532	-0.0051
506.9516	-0.011
507.1499	-0.0015
507.3482	-0.0131
507.5465	-0.0056
507.7448	-0.0062
507.9431	-0.0044
508.1414	0.0042
508.3396	0.0019
508.5379	0.0038
508.7361	-0.0055
508.9343	0.0034
509.1325	0.0031
509.3306	-0.0023
509.5288	-0.0019
509.7269	-0.0112
509.9251	-0.0007
510.1232	-0.008
510.3213	-0.0045
510.5193	0.0027
510.7174	-0.0206
510.9154	-0.0059
511.1135	-0.0059
511.3115	-0.0019
511.5095	0.0059
511.7075	-0.0034
511.9055	-0.0073
512.1034	-0.0067
512.3014	-0.0002
512.4993	0.0005
512.6972	-0.0041
512.8951	-0.0082
513.093	0.0048
513.2908	0.0023
513.4887	0.0057
513.6865	-0.0079
513.8844	-0.0069
514.0822	-0.0095
514.2799	-0.0158
514.4777	-0.0116
514.6755	-0.0066
514.8732	-0.0071
515.0709	0.0069
515.2687	-0.0075
515.4664	0.0079
515.664	-0.003
515.8617	0.0016
516.0594	-0.0159
516.257	-0.0027
516.4546	-0.0102
516.6522	0.0096
516.8498	-0.0048
517.0474	0.0118
517.2449	0.018
517.4425	0.0017
517.64	-0.0014
517.8375	0.0015
518.035	-0.0031
518.2325	-0.0108
518.43	-0.0056
518.6274	-0.004
518.8249	-0.0212
519.0223	-0.0025
519.2197	-0.0068
519.4171	-0.0053
519.6145	-0.0089
519.8118	0.0014
520.0092	-0.0027
520.2065	-0.0059
520.4038	-0.0105
520.6011	-0.0002
520.7984	-0.0155
520.9956	-0.0087
521.1929	-0.0058
521.3901	-0.006
521.5874	0.0016
521.7846	0.0036
521.9818	-0.0094
522.1789	-0.007
522.3761	0.0019
522.5732	0.0014
522.7704	0.0014
522.9675	-0.004
523.1646	-0.0051
523.3617	-0.0041
523.5587	0.0057
523.7558	0.0009
523.9528	-0.0055
524.1498	0.0006
524.3468	-0.0056
524.5438	-0.001
524.7408	-0.0169
524.9378	0.0046
525.1347	-0.0069
525.3316	0.004
525.5285	-0.0062
525.7254	-0.0119
525.9223	-0.0061
526.1192	0.0001
526.316	-0.0097
526.5129	0.0042
526.7097	-0.0006
526.9065	-0.0107
527.1033	-0.0034
527.3	-0.0001
527.4968	-0.0007
527.6935	-0.0025
527.8903	-0.0011
528.087	0.0055
528.2837	-0.0079
528.4804	0.0009
528.677	-0.0017
528.8737	0.0066
529.0703	-0.0095
529.2669	-0.0069
529.4635	-0.003
529.6601	-0.0036
529.8567	0.0015
530.0532	-0.0142
530.2498	-0.0054
530.4463	0.0032
530.6428	-0.0177
530.8393	-0.0046
531.0358	-0.006
531.2322	-0.0005
531.4287	-0.0058
531.6251	-0.0059
531.8215	0.0153
532.0179	0.0029
532.2143	-0.0015
532.4107	-0.0001
532.607	-0.0036
532.8034	0.0099
532.9997	0.0063
533.196	-0.0039
533.3923	-0.0044
533.5886	0.0096
533.7848	0.0092
533.9811	0.0031
534.1773	0.0022
534.3735	0.0002
534.5697	0.0011
534.7659	0.0021
534.9621	0.0095
535.1582	-0.0101
535.3544	-0.0124
535.5505	0.0019
535.7466	-0.0093
535.9427	-0.0017
536.1387	-0.0028
536.3348	-0.0069
536.5308	0.0028
536.7269	-0.0007
536.9229	0.0033
537.1189	-0.0065
537.3148	-0.0037
537.5108	0.0045
537.7068	0.001
537.9027	-0.0083
538.0986	0.003
538.2945	0.0066
538.4904	0.0018
538.6863	-0.0007
538.8821	-0.0003
539.078	-0.0062
539.2738	0.002
539.4696	0.009
539.6654	0.0067
539.8611	0.0121
540.0569	-0.0024
540.2526	-0.0097
540.4484	0.0011
540.6441	0.0071
540.8398	-0.0065
541.0355	-0.0048
541.2311	0.0017
541.4268	-0.0132
541.6224	0.0055
541.818	-0.0025
542.0136	-0.0085
542.2092	0.0106
542.4048	0.0052
542.6003	-0.0001
542.7959	0.0073
542.9914	-0.0089
543.1869	0.006
543.3824	-0.0009
543.5779	-0.0014
543.7734	-0.0009
543.9688	0.002
544.1642	0.0084
544.3596	-0.0045
544.555	-0.0035
544.7504	0.0067
544.9458	-0.0062
545.1411	-0.0065
545.3365	-0.0004
545.5318	-0.0039
545.7271	0.0065
545.9224	-0.0047
546.1177	0.0012
546.3129	0.0032
546.5081	0.0017
546.7034	-0.0031
546.8986	-0.0104
547.0938	-0.0043
547.289	-0.0083
547.4841	-0.0018
547.6793	0.0092
547.8744	-0.0078
548.0695	-0.0071
548.2646	-0.0049
548.4597	0.0068
548.6548	0.0013
548.8498	0.0052
549.0448	0.0052
549.2399	0.002
549.4349	0.0087
549.6298	-0.0092
549.8248	0.0068
550.0198	-0.0026
550.2147	-0.005
550.4096	-0.0099
550.6045	0.0074
550.7994	0.0023
550.9943	0.0017
551.1892	-0.0021
551.384	0.0095
551.5788	-0.0028
551.7737	0.0049
551.9685	0.006
552.1632	0.0079
552.358	-0.0029
552.5528	-0.002
552.7475	0.0017
552.9422	-0.0002
553.1369	-0.0046
553.3316	0.0078
553.5263	-0.0035
553.7209	0.006
553.9156	-0.0031
554.1102	-0.0055
554.3048	-0.0095
554.4994	0.009
554.694	-0.0063
554.8885	0.003
555.0831	-0.0063
555.2776	-0.0079
555.4721	0.0016
555.6666	-0.0027
555.8611	0.0116
556.0555	-0.0019
556.25	-0.007
556.4444	-0.0072
556.6388	-0.0034
556.8332	0.0005
557.0276	0.0043
557.222	-0.0001
557.4163	-0.0119
557.6107	-0.011
557.805	-0.0018
557.9993	0.0001
558.1936	-0.0032
558.3879	0.0022
558.5821	-0.0001
558.7764	0.0041
558.9706	-0.004
559.1648	0.0017
559.359	0.0057
559.5532	-0.0089
559.7473	-0.0027
559.9415	-0.0009
560.1356	-0.0027
560.3297	-0.0032
560.5238	-0.0103
560.7179	-0.0033
560.9119	-0.0019
561.106	-0.001
561.3	-0.001
561.494	-0.0035
561.688	-0.001
561.882	-0.0181
562.076	-0.015
562.2699	0.0007
562.4639	0.0005
562.6578	-0.0006
562.8517	-0
563.0456	0.0039
563.2395	0.0019
563.4333	-0.0011
563.6272	0.0057
563.821	-0.0119
564.0148	-0.007
564.2086	-0.0108
564.4024	0.0048
564.5961	-0.0093
564.7899	0.0074
564.9836	0.0069
565.1773	-0.0051
565.371	0.006
565.5647	0.008
565.7584	-0.0044
565.952	0.0127
566.1456	0.0024
566.3393	-0.0033
566.5329	0.0033
566.7264	-0
566.92	0.0029
567.1136	0.0054
567.3071	-0.0039
567.5006	0.0084
567.6941	0.0031
567.8876	0.0066
568.0811	0.003
568.2745	0.0024
568.468	0.0049
568.6614	0.0007
568.8548	0.0008
569.0482	-0.0059
569.2416	0.0089
569.4349	-0.0034
569.6283	0.0053
569.8216	-0.0069
570.0149	-0.0047
570.2082	0.0048
570.4015	0.0122
570.5947	0.0039
570.788	0.0036
570.9812	0.004
571.1744	-0.0051
571.3676	-0.0088
571.5608	-0.004
571.754	0.0031
571.9471	0.0009
572.1402	-0.0009
572.3333	-0.0044
572.5264	-0.0006
572.7195	-0.0015
572.9126	-0.0038
573.1057	0.0034
573.2987	-0.004
573.4917	0.008
573.6847	-0.0077
573.8777	0.0062
574.0707	0.0014
574.2636	-0.0066
574.4566	-0.0042
574.6495	0.0034
574.8424	-0.0012
575.0353	-0.0013
575.2281	0.012
575.421	-0.0013
575.6138	0.0054
575.8067	-0.006
575.9995	-0.0006
576.1923	0.0057
576.385	-0.0096
576.5778	-0.0038
576.7706	0.0018
576.9633	0.0019
577.156	0.0015
577.3487	-0.003
577.5414	0.0014
577.734	-0.0054
577.9267	0.0024
578.1193	-0.011
578.3119	-0.0051
578.5045	-0.0055
578.6971	-0.0059
578.8897	0.0029
579.0822	-0.0017
579.2747	0.0035
579.4673	-0.004
579.6598	-0.0013
579.8522	-0.0053
580.0447	-0.0015
580.2372	-0.0011
580.4296	0.0021
580.622	-0.0019
580.8144	-0.0001
581.0068	-0.0011
581.1992	-0.0092
581.3915	-0.0101
581.5839	-0.0029
581.7762	-0.0019
581.9685	-0.004
582.1608	-0.0017
582.353	-0.0047
582.5453	0.0001
582.7375	0.0027
582.9298	0.0041
583.122	-0.0007
583.3142	-0.0052
583.5063	-0.0036
583.6985	-0.0025
583.8906	-0.0028
584.0827	-0.0022
584.2749	0.0028
584.4669	0.004
584.659	-0.0011
584.8511	-0.0042
585.0431	-0.0024
585.2352	0.0019
585.4272	0.0034
585.6192	0.0063
585.8111	0.0031
586.0031	0.0003
586.195	0.0023
586.387	0.0067
586.5789	-0.0017
586.7708	0.0042
586.9627	-0.0001
587.1545	-0.0023
587.3464	0.0031
587.5382	0.0042
587.73	0.001
587.9218	0.0067
588.1136	0.0013
588.3053	0.008
588.4971	-0.002
588.6888	-0.0077
588.8805	0.0001
589.0722	-0.0009
589.2639	0.0018
589.4556	0.0011
589.6472	-0.0032
589.8389	-0.0081
590.0305	-0.0138
590.2221	-0.0002
590.4137	-0.0083
590.6052	0.0043
590.7968	0.0008
590.9883	0.0056
591.1798	0.0005
591.3713	-0.0011
591.5628	-0.008
591.7543	0.001
591.9458	-0.0071
592.1372	0.001
592.3286	0.0059
592.52	0.0019
592.7114	-0.0077
592.9028	0.0007
593.0941	-0.005
593.2855	0.0065
593.4768	-0.0095
593.6681	0.0003
593.8594	-0.0014
594.0506	0.0041
594.2419	0.0087
594.4331	0.008
594.6244	0.0019
594.8156	-0.0053
595.0067	0.0034
595.1979	0.0057
595.3891	-0.0007
595.5802	-0.0052
595.7713	-0.0048
595.9624	-0.0021
596.1535	0.0055
596.3446	0.0003
596.5357	0.0021
596.7267	0.0081
596.9177	0.005
597.1087	-0.011
597.2997	-0.0001
597.4907	0.0035
597.6817	-0.0078
597.8726	0.0026
598.0635	-0.0099
598.2544	0.0007
598.4453	-0.0013
598.6362	-0.0061
598.827	-0.0045
599.0179	0.0048
599.2087	-0.002
599.3995	-0.0023
599.5903	-0.0034
599.7811	-0.0011
599.9718	-0.004
600.1626	0.0008
600.3533	-0.0059
600.544	0.0032
600.7347	-0.003
600.9254	0.0023
601.116	-0.0066
601.3067	0.0006
601.4973	-0.0061
601.6879	0.007
601.8785	-0.0059
602.0691	-0.0008
602.2596	-0.0056
602.4502	-0.0004
602.6407	0.002
602.8312	0.0039
603.0217	-0.0097
603.2122	0.0017
603.4027	-0.0016
603.5931	-0.0042
603.7835	-0.008
603.9739	-0.0116
604.1643	0.0003
604.3547	-0.0074
604.5451	0.0023
604.7354	-0.0065
604.9257	-0.0006
605.116	-0.0042
605.3063	0.0003
605.4966	0.0043
605.6869	0.0002
605.8771	0.0016
606.0673	-0.0018
606.2575	0.0064
606.4477	0.0091
606.6379	0.0001
606.8281	-0.001
607.0182	0.0005
607.2083	0.0093
607.3985	-0.0071
607.5885	0.0023
607.7786	0.0021
607.9687	-0.003
608.1587	0.0026
608.3488	0.0032
608.5388	0.0042
608.7288	-0.0037
608.9187	-0.0042
609.1087	-0.0076
609.2986	-0.0091
609.4886	0.0054
609.6785	0.0003
609.8684	-0.0011
610.0582	0.0029
610.2481	0.0035
610.4379	0.0037
610.6278	-0.0024
610.8176	-0.0012
611.0074	-0.0054
611.1971	-0.0025
611.3869	-0.0003
611.5766	-0.0042
611.7664	0.0081
611.9561	0.0103
612.1458	0.0037
612.3354	-0.0062
612.5251	0.0006
612.7147	0.0078
612.9044	0.0077
613.094	-0.0063
613.2836	0.0066
613.4731	0.0002
613.6627	-0.0048
613.8522	0.0035
614.0417	0.0088
614.2313	0.0017
614.4207	-0.0017
614.6102	0.0019
614.7997	-0.0008
614.9891	-0.0023
615.1785	0.0072
615.3679	0.0007
615.5573	0.0008
615.7467	-0.0024
615.9361	-0.005
616.1254	-0.0062
616.3147	0.0014
616.504	0.0117
616.6933	0.0081
616.8826	0.0101
617.0718	0.004
617.2611	0.0054
617.4503	-0.0013
617.6395	0.0033
617.8287	0.0011
618.0179	0.0037
618.207	0.0079
618.3961	0.0035
618.5853	-0.0024
618.7744	-0.0005
618.9634	0.0074
619.1525	0.0025
619.3416	0.0031
619.5306	0.0012
619.7196	0.0026
619.9086	-0.0018
620.0976	0.0015
620.2866	0.0055
620.4755	0.0006
620.6645	-0.0015
620.8534	0.0064
621.0423	0.0053
621.2312	0.0052
621.42	0.0041
621.6089	-0.0012
621.7977	0.0055
621.9865	-0.008
622.1753	0.0002
622.3641	0.0001
622.5529	0.0043
622.7416	0.0065
622.9303	-0.0035
623.1191	0.0028
623.3078	-0.006
623.4964	-0.0025
623.6851	-0.003
623.8737	0.0012
624.0624	0.0058
624.251	-0.0013
624.4396	0.0039
624.6282	-0.0035
624.8167	0.0029
625.0053	-0.0038
625.1938	0.0005
625.3823	0.0023
625.5708	-0.0018
625.7593	0.0037
625.9477	-0.0049
626.1362	0.0038
626.3246	0.0076
626.513	0.0025
626.7014	0.0093
626.8898	-0.0006
627.0781	0.0021
627.2665	0.0037
627.4548	0.0034
627.6431	0.0052
627.8314	0.0083
628.0197	0.0076
628.2079	-0.0069
628.3962	-0.0017
628.5844	0.0054
628.7726	0.0102
628.9608	0.0031
629.1489	0.0013
629.3371	0.0005
629.5252	-0.0015
629.7134	0.002
629.9015	0.0015
630.0895	0.0024
630.2776	0.0074
630.4657	-0.0015
630.6537	0.0025
630.8417	0.0045
631.0297	0.001
631.2177	0.0041
631.4057	-0.0057
631.5936	-0.0049
631.7815	0.0085
631.9695	0.0012
632.1574	0.0051
632.3452	0.0129
632.5331	0.0051
632.7209	-0.0001
632.9088	0.0079
633.0966	0.0087
633.2844	-0.0003
633.4722	0.0031
633.6599	0.0085
633.8477	0.0051
634.0354	-0.0011
634.2231	-0.0017
634.4108	0.0044
634.5985	0.0085
634.7861	0.0085
634.9738	0.0025
635.1614	0.0001
635.349	0.0112
635.5366	-0.0025
635.7242	0.0081
635.9117	0.0027
636.0993	0.0038
636.2868	-0.0006
636.4743	-0.0045
636.6618	0.0065
636.8492	0.0054
637.0367	0.0066
637.2241	-0.0053
637.4115	-0.0006
637.5989	0.0004
637.7863	0.0046
637.9737	0.0015
638.161	-0.0006
638.3484	0.0098
638.5357	0.0038
638.723	0.0063
638.9103	0.009
639.0975	0.0069
639.2848	0.0037
639.472	-0.0028
639.6592	0.0045
639.8464	0.0086
640.0336	0.0066
640.2208	0.0042
640.4079	0.0016
640.595	0.0042
640.7821	0.0071
640.9692	0.0008
641.1563	0.0011
641.3434	0.0034
641.5304	0.0005
641.7174	0.012
641.9044	-0.0043
642.0914	0.0028
642.2784	0.0016
642.4653	0.0037
642.6523	0.0049
642.8392	0.0062
643.0261	0.0081
643.213	0.0055
643.3999	0.0002
643.5867	-0.0073
643.7735	0.0044
643.9604	-0.0025
644.1472	0.0039
644.3339	0.0019
644.5207	0.0055
644.7075	-0.0058
644.8942	0.0027
645.0809	0.0137
645.2676	0.0074
645.4543	0.0047
645.6409	0.0092
645.8276	0.0044
646.0142	0.0097
646.2008	-0.0019
646.3874	-0.0051
646.574	0.0078
646.7605	-0.0022
646.9471	-0.0112
647.1336	-0.0034
647.3201	0.0075
647.5066	0.0026
647.6931	0.005
647.8795	0.0009
648.0659	0.0038
648.2524	0.0048
648.4388	-0.0035
648.6252	0.003
648.8115	-0.0031
648.9979	-0.0045
649.1842	-0.0051
649.3705	-0.0004
649.5568	0.0065
649.7431	0.0079
649.9294	-0.0064
650.1156	0.0033
650.3018	0.0008
650.488	-0.0007
650.6742	0
650.8604	-0.0019
651.0466	-0.0039
651.2327	0.0022
651.4188	0.0064
651.6049	0.0039
651.791	0.0031
651.9771	0.0069
652.1632	0.0038
652.3492	0.0076
652.5352	0.0024
652.7212	-0.0035
652.9072	0.0081
653.0932	-0.001
653.2791	-0.0029
653.465	0
653.651	-0.0049
653.8369	0.0037
654.0227	0.0068
654.2086	0.0057
654.3944	0.004
654.5803	0.008
654.7661	0.0051
654.9519	-0.0025
655.1377	-0
655.3234	-0.0021
655.5092	-0.0069
655.6949	-0.0063
655.8806	-0.0081
656.0663	-0.0012
656.2519	0.0001
656.4376	-0.0035
656.6232	0.0026
656.8088	-0.0041
656.9945	-0.0042
657.18	-0.0009
657.3656	0.0004
657.5511	-0.0054
657.7367	-0.004
657.9222	0.008
658.1077	0.0022
658.2932	0.0047
658.4786	-0.0082
658.6641	0.0003
658.8495	-0.0041
659.0349	-0.0053
659.2203	0.0016
659.4057	-0.0074
659.591	0.0049
659.7764	0.0032
659.9617	0.003
660.147	0.0035
660.3323	0.0061
660.5176	0.0084
660.7028	0.0093
660.888	0.0055
661.0733	0.0062
661.2585	-0.0011
661.4436	-0.0009
661.6288	0.0003
661.8139	-0.0021
661.9991	0.0031
662.1842	0.0021
662.3693	0.0023
662.5544	0.0006
662.7394	0.0037
662.9245	-0.0095
663.1095	-0.0026
663.2945	0.002
663.4795	0.0024
663.6644	0.0008
663.8494	0.004
664.0343	0.0043
664.2193	-0.0041
664.4042	-0.0023
664.589	-0.003
664.7739	-0.0013
664.9587	-0.0076
665.1436	-0.0023
665.3284	-0.001
665.5132	-0.0012
665.698	-0.0016
665.8827	0.0095
666.0675	-0.005
666.2522	-0.0021
666.4369	-0.0032
666.6216	0.0101
666.8063	0.0002
666.9909	0.0017
667.1756	-0.001
667.3602	0.0026
667.5448	0.0072
667.7294	0.0127
667.9139	0.0037
668.0985	0.0115
668.283	0.0038
668.4675	0.0018
668.652	0.0013
668.8365	0.0065
669.0209	0.0157
669.2054	0.0095
669.3898	0.0089
669.5742	0.0023
669.7586	0.0055
669.943	0.0069
670.1273	0.0089
670.3117	0.0074
670.496	0.0011
670.6803	0.0139
670.8646	0.0085
671.0488	0.0033
671.2331	0.0112
671.4173	0.0033
671.6015	0.0036
671.7857	0.0083
671.9699	0.0018
672.1541	0.0038
672.3382	-0
672.5223	0.0029
672.7064	0.0029
672.8905	0.0092
673.0746	-0.004
673.2587	-0.006
673.4427	-0.0008
673.6267	0.0064
673.8107	0.0102
673.9947	0.0023
674.1787	-0.0022
674.3626	-0.0023
674.5465	0.0105
674.7304	0.0111
674.9143	0.0132
675.0982	0.0133
675.2821	0.0026
675.4659	0.0143
675.6497	0.0091
675.8335	0.0007
676.0173	0.0014
676.2011	0.0059
676.3849	-0.0003
676.5686	-0.002
676.7523	0.0012
676.936	-0.0025
677.1197	-0.0039
677.3034	0.0007
677.487	-0.0009
677.6706	0.0037
677.8542	0.0023
678.0378	0.0021
678.2214	0.0029
678.405	0.0016
678.5885	-0.0041
678.772	0.009
678.9555	0.0006
679.139	-0.0028
679.3225	0.0014
679.5059	0.0057
679.6894	0.003
679.8728	-0.0038
680.0562	-0.0073
680.2395	-0.0082
680.4229	0.0003
680.6062	0.004
680.7896	0.0023
680.9729	-0.0075
681.1562	0.0036
681.3394	-0.0011
681.5227	-0.0093
681.7059	0.0038
681.8891	-0.001
682.0723	0.0113
682.2555	0.006
682.4387	0.0048
682.6218	-0.0004
682.805	0.0103
682.9881	-0.0004
683.1712	0.0017
683.3542	-0.0014
683.5373	0.0081
683.7203	-0.0023
683.9034	-0.0107
684.0864	-0.0017
684.2694	-0.001
684.4523	0.006
684.6353	-0.0064
684.8182	-0.0032
685.0011	-0.0004
685.184	0.0025
685.3669	0.004
685.5498	0.0036
685.7326	0.0024
685.9154	-0.0104
686.0982	0.0072
686.281	0.011
686.4638	-0.0011
686.6465	-0.0124
686.8293	-0.0007
687.012	-0.0027
687.1947	-0.0049
687.3774	-0.0025
687.56	-0.0116
687.7427	0.0061
687.9253	-0.0098
688.1079	-0.0003
688.2905	0.0171
688.4731	0.0005
688.6556	-0.0045
688.8382	0.0008
689.0207	-0.0023
689.2032	-0.0059
689.3857	-0.0135
689.5681	0.0022
689.7506	-0.0065
689.933	-0.0012
690.1154	-0.0023
690.2978	-0.0005
690.4802	0.0028
690.6626	-0.0097
690.8449	-0.0092
691.0272	0.0077
691.2095	-0.0059
691.3918	-0.0014
691.5741	0.0021
691.7563	0.0018
691.9386	0.0015
692.1208	-0.0025
692.303	0.0002
692.4852	0.0014
692.6673	-0.0029
692.8495	-0.0015
693.0316	0.0066
693.2137	0.0012
693.3958	0.0119
693.5778	-0.0027
693.7599	0.0002
693.9419	0.0005
694.1239	0.0017
694.3059	0.0011
694.4879	0.0104
694.6699	-0.0009
694.8518	0.0037
695.0337	0.0018
695.2157	-0.0001
695.3975	0.0045
695.5794	-0.0003
695.7613	0.0057
695.9431	0.0008
696.1249	-0.0029
696.3067	0.0081
696.4885	0.0157
696.6703	-0.0047
696.852	0.0051
697.0337	0.0056
697.2154	0.0081
697.3971	0.0071
697.5788	0.0081
697.7605	0.0016
697.9421	0.0103
698.1237	0.0062
698.3053	0.0045
698.4869	0.002
698.6685	-0.0037
698.85	0.0022
699.0315	0.0099
699.213	-0.0022
699.3945	0.005
699.576	0.0076
699.7575	0.0034
699.9389	0.0082
700.1203	-0.0059
700.3017	-0.0063
700.4831	-0.0122
700.6645	-0.0022
700.8458	0.0103
701.0271	-0.0085
701.2084	0.005
701.3897	-0.0059
701.571	0.0082
701.7523	-0.0042
701.9335	0.0014
702.1147	-0.0005
702.2959	-0.0012
702.4771	0.0059
702.6583	0.0013
702.8394	-0.0068
703.0205	0.003
703.2016	-0.0057
703.3827	-0.0045
703.5638	0.0029
703.7449	-0.0036
703.9259	0.006
704.1069	-0.0009
704.2879	0.0006
704.4689	0.0007
704.6499	0.0013
704.8308	0.002
705.0117	-0.0005
705.1927	0.0018
705.3735	0.0007
705.5544	-0.0052
705.7353	-0.0039
705.9161	0.0003
706.0969	-0.0097
706.2777	-0.0022
706.4585	-0.004
706.6393	-0.0029
706.82	-0.0088
707.0007	-0.0003
707.1815	0.0027
707.3621	-0.002
707.5428	0.0068
707.7235	0
707.9041	-0.002
708.0847	-0.0072
708.2653	-0.0055
708.4459	-0.0185
708.6265	-0.0063
708.807	-0.0026
708.9875	-0.0035
709.168	-0.0021
709.3485	-0.0074
709.529	-0.0068
709.7095	-0.0161
709.8899	-0.0077
710.0703	-0.0113
710.2507	-0.0005
710.4311	-0.0064
710.6115	-0.0093
710.7918	-0.0061
710.9721	-0.0051
711.1524	-0.0053
711.3327	0.0011
711.513	-0.0016
711.6932	0.0014
711.8735	0.0101
712.0537	0.004
712.2339	-0.0027
712.4141	-0.0071
712.5942	0.0011
712.7744	0.0052
712.9545	-0.0007
713.1346	-0.0028
713.3147	-0.0053
713.4947	-0.0044
713.6748	-0.0028
713.8548	-0.0031
714.0348	-0.0025
714.2148	-0.0027
714.3948	0.0049
714.5748	-0.0084
714.7547	-0.0024
714.9346	0.0002
715.1145	-0.0044
715.2944	0.0017
715.4743	-0.0034
715.6541	-0.0057
715.834	0.0014
716.0138	-0.0006
716.1936	-0.0088
716.3733	-0.0008
716.5531	0.0056
716.7328	-0.004
716.9126	-0.0067
717.0923	-0.0056
717.2719	0.0004
717.4516	-0.0001
717.6312	-0.0007
717.8109	-0.0077
717.9905	-0.0012
718.1701	-0.0035
718.3496	-0.0109
718.5292	-0.0018
718.7087	0.0005
718.8882	-0.0073
719.0677	-0.0003
719.2472	-0.0072
719.4267	-0.0031
719.6061	-0.0047
719.7856	0.0153
719.965	0.0108
720.1443	-0.0039
720.3237	0.0137
720.5031	-0.006
720.6824	0.0026
720.8617	-0.0091
721.041	0.003
721.2203	0.0053
721.3995	0.0059
721.5788	0.0017
721.758	0.0046
721.9372	0.0028
722.1164	0.0008
722.2956	0.0048
722.4747	-0.0034
722.6538	0.0021
722.8329	0.0061
723.012	-0.0007
723.1911	-0.0031
723.3702	0.0014
723.5492	-0.0033
723.7282	-0.0001
723.9072	0.0059
724.0862	-0.0043
724.2652	-0.0027
724.4441	0.0005
724.623	0.0018
724.8019	-0.0068
724.9808	0.0035
725.1597	-0.0058
725.3385	-0.0006
725.5174	0.0068
725.6962	0.001
725.875	-0.0045
726.0538	0.0025
726.2325	0.0042
726.4112	0.0049
726.59	-0.0045
726.7687	-0.0061
726.9474	0.0037
727.126	-0.003
727.3047	0.0003
727.4833	-0.0008
727.6619	-0.0048
727.8405	-0.005
728.0191	-0.0089
728.1976	-0.0017
728.3762	-0.0008
728.5547	-0.0042
728.7332	-0.0117
728.9116	0.0014
729.0901	0.0011
729.2686	-0.0012
729.447	-0.0045
729.6254	-0.0016
729.8038	0.0024
729.9821	-0.0067
730.1605	-0.0042
730.3388	0.0029
730.5171	0.0083
730.6954	-0.0003
730.8737	0.0049
731.0519	-0.0038
731.2302	0.0038
731.4084	0.0084
731.5866	0.0009
731.7648	-0.0035
731.9429	0.0041
732.1211	-0.0006
732.2992	0.0007
732.4773	-0.006
732.6554	-0.0042
732.8335	-0.0039
733.0115	0.0052
733.1896	0.0009
733.3676	-0.018
733.5456	0.0007
733.7235	0.0096
733.9015	-0.0025
734.0794	0.0026
734.2574	-0.0029
734.4353	0.0033
734.6131	0.0199
734.791	0.003
734.9689	0.0064
735.1467	0.0103
735.3245	-0.0035
735.5023	-0.0071
735.68	-0.0003
735.8578	0.0065
736.0355	-0.0128
736.2132	-0.0054
736.3909	0.0103
736.5686	-0.0081
736.7463	0.0054
736.9239	-0.0071
737.1015	-0.0037
737.2791	0.0062
737.4567	-0.0008
737.6343	-0.0066
737.8118	0.0104
737.9894	0.0104
738.1669	-0.0073
738.3444	0.0033
738.5218	0.0036
738.6993	-0.0018
738.8767	-0.0093
739.0541	0.0159
739.2315	-0.0111
739.4089	0.0042
739.5863	-0.0005
739.7636	0.0046
739.9409	-0.0006
740.1182	-0.0009
740.2955	0.0017
740.4728	-0.0037
740.65	-0.0048
740.8272	-0.0013
741.0044	-0.0057
741.1816	-0.0011
741.3588	-0.0002
741.5359	0.0032
741.7131	-0.0119
741.8902	-0.006
742.0673	-0.001
742.2444	-0.0102
742.4214	-0.0072
742.5985	-0.0013
742.7755	-0.006
742.9525	-0.0185
743.1295	-0.0008
743.3064	-0.0017
743.4834	0.0116
743.6603	0.003
743.8372	0.0012
744.0141	0.0105
744.191	0.0099
744.3678	-0.0005
744.5446	0.003
744.7215	0.0085
744.8982	0.0049
745.075	-0.0075
745.2518	0.0019
745.4285	0.0034
745.6052	-0.0008
745.7819	-0.0061
745.9586	-0.0042
746.1353	-0.001
746.3119	-0.0086
746.4885	-0.0085
746.6651	-0.0083
746.8417	-0.0049
747.0183	0.0001
747.1948	-0.0053
747.3714	0.0045
747.5479	0.0036
747.7244	-0.005
747.9008	0.005
748.0773	-0.0002
748.2537	0.0007
748.4301	-0.0048
748.6065	0.0092
748.7829	0.0109
748.9593	-0.0005
749.1356	0.0003
749.3119	0.0072
749.4882	-0.0156
749.6645	0.0069
749.8408	-0.0127
750.017	0.0012
750.1933	0.0007
750.3695	-0.004
750.5457	0.0009
750.7218	-0.0108
750.898	0.0031
751.0741	-0.0041
751.2502	-0.0075
751.4263	-0.003
751.6024	-0.0002
751.7784	-0.0029
751.9545	-0.0053
752.1305	0.0083
752.3065	-0.0057
752.4825	-0.0015
752.6584	-0.0033
752.8344	0.0042
753.0103	-0.0092
753.1862	-0.0044
753.3621	-0.0029
753.5379	-0.0029
753.7138	-0.0033
753.8896	0.0009
754.0654	-0.0013
754.2412	0.0086
754.417	0.0097
754.5927	0.0034
754.7685	-0.0072
754.9442	-0.0037
755.1199	0.0081
755.2956	0.0042
755.4712	0.0053
755.6469	0.0088
755.8225	-0.0042
755.9981	0.0016
756.1736	0.0079
756.3492	-0.0053
756.5248	-0.0077
756.7003	-0.002
756.8758	0.0123
757.0513	-0.0067
757.2267	0.0063
757.4022	-0.0015
757.5776	-0.0102
757.753	0.0004
757.9284	0.0101
758.1038	0.0179
758.2791	0.0049
758.4545	-0.0091
758.6298	-0.0053
758.8051	0.0059
758.9803	-0.0041
759.1556	-0.004
759.3308	-0.0039
759.506	0.0079
759.6812	0.0058
759.8564	0.0031
760.0316	0.0087
760.2067	0.0052
760.3819	0.0065
760.557	0.0132
760.732	0.0086
760.9071	-0.0061
761.0821	-0.0059
761.2572	0.0141
761.4322	-0.0004
761.6072	-0.0043
761.7821	0.0042
761.9571	0.0069
762.132	0.0016
762.3069	-0.0076
762.4818	-0.0094
762.6567	-0.0054
762.8316	-0.0011
763.0064	-0.0079
763.1812	0.0027
763.356	-0.0087
763.5308	-0.0125
763.7055	-0.0003
763.8803	-0.0104
764.055	-0.0032
764.2297	-0.0092
764.4044	-0.0029
764.579	-0.0105
764.7537	-0.0147
764.9283	0.0133
765.1029	-0.0066
765.2775	-0.0032
765.4521	-0.0059
765.6266	-0.0165
765.8011	-0.0114
765.9756	0.003
766.1501	0.0143
766.3246	0.0058
766.4991	-0.0006
766.6735	0.0096
766.8479	0.0023
767.0223	0.0152
767.1967	0.0006
767.371	0.0038
767.5454	-0.0076
767.7197	0.0031
767.894	-0.0072
768.0683	-0.0041
768.2425	-0.0006
768.4168	0.0024
768.591	-0.0031
768.7652	0.0065
768.9394	0.004
769.1135	0.0044
769.2877	-0.0003
769.4618	0.0093
769.6359	-0.0018
769.81	0.0024
769.984	-0.0035
770.1581	0.0013
770.3321	-0.0081
770.5061	0.0015
770.6801	-0.0003
770.8541	-0.0044
771.028	0.0096
771.202	-0.0161
771.3759	-0.001
771.5498	-0.0135
771.7236	0.0053
771.8975	-0.0034
772.0713	0.0041
772.2451	0.0115
772.4189	0.002
772.5927	0.0082
772.7665	-0.0025
772.9402	0.0004
773.1139	-0.0003
773.2876	-0.0068
773.4613	-0.001
773.635	0.0093
773.8086	-0.0046
773.9822	0.0012
774.1558	0.0052
774.3294	-0.0149
774.503	0.0024
774.6765	-0.0039
774.8501	-0.0033
775.0236	0.0044
775.1971	0.0073
775.3705	-0.0013
775.544	0.0048
775.7174	-0.0156
775.8908	-0.0009
776.0642	-0.0054
776.2376	-0.004
776.4109	-0.0186
776.5843	0.0093
776.7576	0.0046
776.9309	0.0017
777.1041	0.0098
777.2774	0.0056
777.4506	-0.0055
777.6238	-0.0165
777.797	-0.0007
777.9702	0.0047
778.1434	-0.0056
778.3165	-0.0117
778.4896	-0.0013
778.6627	0.0053
778.8358	-0.0096
779.0089	0.0042
779.1819	-0.0054
779.3549	0.0161
779.5279	0.0051
779.7009	-0.0021
779.8739	-0.0022
780.0468	0.0086
780.2197	-0.0017
780.3926	0.0024
780.5655	-0.0119
780.7384	0.0037
780.9112	0.0094
781.0841	-0.0063
781.2569	0.0065
781.4297	0.0007
781.6024	0.0103
781.7752	0.0011
781.9479	0.0174
782.1206	0.0104
782.2933	-0.0075
782.466	0.0116
782.6386	0.0054
782.8113	-0.0044
782.9839	-0.0097
783.1565	0.0204
783.329	-0.0011
783.5016	0.0059
783.6741	0.0068
783.8466	-0.0102
784.0191	0.0165
784.1916	-0.0019
784.3641	0.005
784.5365	-0.011
784.7089	-0.0159
784.8813	0.0002
785.0537	-0.0147
785.2261	-0.0029
785.3984	-0.017
785.5707	0.0015
785.743	-0.0065
785.9153	-0.0072
786.0876	-0.0059
786.2598	-0.0061
786.432	-0.0118
786.6042	0.0021
786.7764	-0.0037
786.9486	0.0031
787.1207	-0.0078
787.2928	-0.0067
787.4649	0.005
787.637	0.0163
787.8091	-0.0143
787.9811	-0.0067
788.1532	-0.0129
788.3252	0.0102
788.4972	-0.0113
788.6691	-0.0116
788.8411	-0.0024
789.013	-0.0126
789.1849	-0.003
789.3568	-0.0053
789.5287	0.0057
789.7005	-0.0039
789.8723	-0.0067
790.0442	0.005
790.2159	-0.003
790.3877	0.001
790.5595	-0.0204
790.7312	-0.0192
790.9029	-0.0169
791.0746	-0.0124
791.2463	-0.0065
791.4179	-0.0102
791.5896	-0.0189
791.7612	-0.0014
791.9328	-0.0023
792.1044	-0.0245
792.2759	-0.0151
792.4474	-0.0097
792.619	0.009
792.7905	0.008
792.9619	-0.0112
793.1334	0.0119
793.3048	0.0089
793.4762	0.0003
793.6476	0.0001
793.819	-0.0069
793.9904	0.0101
794.1617	-0.0152
794.333	-0.0178
794.5043	-0.0124
794.6756	-0.0087
794.8469	-0.0047
795.0181	-0.0039
795.1893	-0.0147
795.3605	-0.0034
795.5317	-0.0099
795.7029	-0.0198
795.874	0.0034
796.0452	-0.0142
796.2163	-0.0141
796.3873	0.0029
796.5584	-0.0061
796.7294	-0.0099
796.9005	-0
797.0715	0.009
797.2425	-0.0135
797.4134	0.0049
797.5844	0.0014
797.7553	-0.0206
797.9262	-0.0006
798.0971	-0.0119
798.2679	-0.0089
798.4388	-0.023
798.6096	-0.0076
798.7804	-0.0108
798.9512	0.0045
799.122	-0.0038
799.2927	0.0005
799.4635	0.0073
799.6342	-0.0161
799.8049	-0.0004
799.9755	-0.004
800.1462	0.0021
800.3168	0.0242
800.4874	0.0153
800.658	0.0122
800.8286	-0.0031
800.9991	0.0135
801.1696	0.0136
801.3402	0.0134
801.5106	-0.0063
801.6811	0.0128
801.8516	0.0075
802.022	-0.0106
802.1924	0.0055
802.3628	0.0002
802.5332	0.0078
802.7035	-0.0044
802.8739	-0.0051
803.0442	-0.0172
803.2145	0.0041
803.3847	-0.0152
803.555	-0.0078
803.7252	0.0026
803.8954	-0.0049
804.0656	-0.0158
804.2358	-0.0039
804.4059	0.0188
804.5761	-0.0013
804.7462	-0.0024
804.9163	-0.0057
805.0864	-0.0179
805.2564	-0.0159
805.4264	0.0051
805.5965	-0.0257
805.7665	-0.0024
805.9364	-0.0051
806.1064	0.0008
806.2763	0.0047
806.4462	0.0082
806.6161	-0.0011
806.786	0.0037
806.9559	-0.0059
807.1257	-0.0095
807.2955	0.0036
807.4653	-0.0064
807.6351	-0.0179
807.8048	-0.0021
807.9746	-0.0005
808.1443	0.0135
808.314	-0.0062
808.4837	-0.005
808.6533	0.0062
808.8229	0.0206
808.9926	-0.0028
809.1622	0.0198
809.3317	-0.0042
809.5013	0.0022
809.6708	0.0204
809.8403	0.0227
810.0098	-0.0123
810.1793	-0.0005
810.3488	-0.0003
810.5182	-0.0003
810.6876	-0.0166
810.857	-0.0085
811.0264	0.0214
811.1958	0.0025
811.3651	0.0154
811.5344	0.0104
811.7037	-0.0089
811.873	-0.0062
812.0422	0.0002
812.2115	-0.0089
812.3807	-0.0298
812.5499	0.0161
812.7191	-0.0101
812.8882	-0.0026
813.0574	0.0055
813.2265	-0.0081
813.3956	0.0008
813.5646	-0.0047
813.7337	-0.0018
813.9027	0.0349
814.0718	0.0219
814.2407	0.0346
814.4097	0.0075
814.5787	0.0091
814.7476	-0.0062
814.9165	-0.0059
815.0854	0.0053
815.2543	-0.023
815.4232	-0.019
815.592	-0.01
815.7608	0.0199
815.9296	0.002
816.0984	0.0121
816.2671	-0.0174
816.4359	-0.0256
816.6046	0.0072
816.7733	0.0039
816.942	-0.0001
817.1106	0.0171
817.2793	0.0053
817.4479	-0.0133
817.6165	-0.004
817.785	-0.01
817.9536	-0.0149
818.1221	-0.0265
818.2906	0.0162
818.4591	-0.0007
818.6276	0.0095
818.7961	0.0063
818.9645	0.0273
819.1329	0.0264
819.3013	0.0268
819.4697	0.0289
819.638	0.01
819.8064	-0.0048
819.9747	-0.0063
820.143	0.0072
820.3113	-0.0087
820.4795	0.0196
820.6477	0.0037
820.816	-0.0004
820.9842	-0.0086
821.1523	-0.0001
821.3205	-0.0102
821.4886	-0.025
821.6567	-0.0298
821.8248	0.0027
821.9929	0.019
822.1609	-0.0001
822.329	0.0261
822.497	0.0377
822.665	-0.0118
822.833	-0.0012
823.0009	0.016
823.1688	-0.0045
823.3367	0.0132
823.5046	0.0239
823.6725	0.0218
823.8404	0.0238
824.0082	0.0299
824.176	0.0027
824.3438	0.0149
824.5116	-0.0047
824.6793	0.0197
824.847	-0.0054
825.0147	-0.0085
825.1824	0.0292
825.3501	-0.0194
825.5177	-0.0128
825.6854	0.0021
825.853	0.0109
826.0206	-0.0258
826.1881	0.0082
826.3557	-0.0424
826.5232	0.0342
826.6907	-0.0292
826.8582	-0.0169
827.0257	-0.0334
827.1931	0.0031
827.3605	0.0008
827.528	0.0146
827.6953	-0.0369
827.8627	-0.0188
828.03	0.0527
828.1974	-0.0153
828.3647	-0.029
828.532	-0.0098
828.6992	-0.0151
828.8665	0.0235
829.0337	-0.0184
829.2009	0.024
829.3681	0.0071
829.5352	0.0495
829.7024	-0.0065
829.8695	-0.0376
830.0366	0.0375
830.2037	0.0045
830.3707	0.0306
830.5378	-0.0148
830.7048	0.0037
830.8718	-0.0098
831.0388	-0.0311
831.2057	0.014
831.3727	0.0041
831.5396	-0.0119
831.7065	-0.0241
831.8734	-0.0055
832.0402	-0.0101
832.2071	0.016
832.3739	-0.0013
832.5407	-0.0154
832.7075	-0.0118
832.8742	-0.024
833.041	-0.0562
833.2077	-0.0031
833.3744	-0.003
833.541	0.0121
833.7077	-0.0075
833.8743	-0.0323
834.0409	-0.0062
834.2075	0.026
834.3741	0.0011
834.5407	-0.0139
834.7072	-0.0052
834.8737	-0.0151
835.0402	-0.0198
835.2067	0.0315
835.3731	-0.0163
835.5395	0.0529
835.706	-0.0001
835.8723	-0.0023
836.0387	-0.0055
836.2051	-0.0158
836.3714	-0.0182
836.5377	0.021
836.704	-0.025
836.8703	-0.0299
837.0365	-0.0081
837.2027	-0.0106
837.3689	0.0068
837.5351	-0.0061
837.7013	-0.0217
837.8674	-0.0942
838.0335	-0.0177
838.1997	0.0267
838.3657	-0.0714
838.5318	-0.0263
838.6978	0.0297
838.8639	0.0493
839.0299	0.0086
839.1958	-0.0274
839.3618	0.0254
839.5277	-0.0052
839.6937	-0.0602
839.8596	-0.0308
840.0254	0.0415
840.1913	0.0324
840.3571	-0.0097
840.523	-0.0281
840.6888	-0.0353
840.8545	-0.0317
841.0203	-0.0346
841.186	-0.0275
841.3517	0.0144
841.5174	0.0259
841.6831	-0.0249
841.8488	0.0126
842.0144	0.0035
842.18	0.0254
842.3456	0.0151
842.5112	-0.0544
842.6767	-0.0332
842.8422	-0.021
843.0077	-0.0395
843.1732	-0.0568
843.3387	0.0067
843.5042	-0.0295
843.6696	-0.0214
843.835	-0.0045
844.0004	-0.0117
844.1657	-0.0012
844.3311	-0.0858
844.4964	-0.0845
844.6617	-0.0046
844.827	-0.025
844.9923	-0.0374
845.1575	0.0834
845.3227	0.0115
845.4879	0.0112
845.6531	-0.0399
845.8183	-0.102
845.9834	-0.0541
846.1485	-0.0099
846.3136	-0.0379
846.4787	-0.0848
846.6438	0.0571
846.8088	-0.0519
846.9738	-0.0673
847.1388	0.0083
847.3038	-0.0323
847.4687	-0.1133
847.6337	-0.0374
847.7986	0.0011
847.9635	-0.0075
848.1284	0.0236
848.2932	0.0368
848.458	-0.0561
848.6228	-0.0071
848.7876	0.0228
848.9524	-0.0071
849.1172	-0.0711
849.2819	0.004
849.4466	-0.0712
849.6113	-0.0794
849.7759	-0.0312
849.9406	-0.0427
850.1052	0.0751
850.2698	-0.0701
850.4344	0.0675
850.599	-0.0104
850.7635	-0.0016
850.928	-0.0853
851.0925	-0.0003
851.257	0.077
851.4215	-0.0077
851.5859	0.0063
851.7503	-0.0048
851.9147	-0.01
852.0791	0.0044
852.2434	-0.0537
852.4078	-0.0052
852.5721	0.028
852.7364	-0.1
852.9007	-0.1982
853.0649	-0.0741
853.2291	-0.0564
853.3934	-0.0586
853.5575	-0.0225
853.7217	-0.1826
853.8859	-0.2252
854.05	-0.1238
854.2141	-0.118
854.3782	-0.0709
854.5423	-0.1277
854.7063	0.1148
854.8703	0.0023
855.0343	-0.0753
855.1983	-0.1763
855.3623	0.1095
855.5262	0.0613
855.6901	-0.0355
855.854	0.0144
856.0179	0.0743
856.1818	0.0083
856.3456	-0.1874
856.5094	-0.1429
856.6732	-0.1164
856.837	0.0747
857.0008	0.0598
857.1645	-0.1026
857.3282	-0.2638
857.4919	-0.0342
857.6556	-0.0651
857.8192	-0.0893
857.9828	0.0768
858.1465	0.0112
858.31	-0.1495
858.4736	-0.0877
858.6372	-0.2695
858.8007	-0.1486
858.9642	0.0373
859.1277	-0.0401
859.2911	-0.1207
859.4546	-0.1151
859.618	-0.3357
859.7814	-0.063
859.9448	-0.1339
860.1081	-0.0061
860.2715	0.1778
860.4348	0.0172
860.5981	-0.0008
860.7614	0.0668
860.9246	-0.0382
861.0879	-0.1108
861.2511	0.0215
861.4143	-0.2264
861.5774	0.3028
861.7406	-0.0788
861.9037	0.0681
862.0668	0.0056
862.2299	-0.2554
862.393	-0.5813
862.556	-0.0904
862.7191	-0.1883
862.8821	-0.1373
863.0451	0.1715
863.208	0.012
863.371	-0.0432
863.5339	-0.2777
863.6968	0.172
863.8597	-0
864.0225	-0.0963
864.1854	-0.2873
864.3482	-0.0981
864.511	0.3907
864.6737	0.0622
864.8365	0.1926
864.9992	0.3139
865.1619	-0.2176
865.3246	-0.2309
865.4873	0.1945
865.65	-0.2254
865.8126	0.0313
865.9752	-0.1348
866.1378	-0.0138
866.3004	0.3081
866.4629	0.0489
866.6254	0.2442
866.7879	-0.2045
866.9504	-0
867.1129	-0
867.2753	0.2333
867.4377	0.2103
867.6001	-0.2411
867.7625	0.1669
867.9249	-0.5976
868.0872	0.5148
868.2495	0.1233
868.4118	-0.1106
868.5741	-0.6499
868.7363	-0.4957
868.8986	-0.1612
869.0608	-0.1455
869.223	0.0301
869.3851	-0
869.5473	0.1728
869.7094	0.1548
869.8715	1.5623
870.0336	-0
870.1957	-0.668
870.3577	-0
870.5197	-0.1529
870.6817	-0.1704
870.8437	-0.1222
871.0057	-0
871.1676	-0.1492
871.3295	-0.1269
871.4914	-0
871.6533	-0.454
871.8151	-0.0546
871.977	-0
872.1388	-0
872.3006	1.2844
872.4623	-0
872.6241	0.0431
872.7858	0.4163
872.9475	-0.085
873.1092	-0.1995
873.2709	0.0969
873.4325	0.7445
873.5941	-0.4481
873.7557	-0
873.9173	-0
874.0789	-0.5684
874.2404	-0.4079
874.4019	0.4518
874.5634	-0.1032
874.7249	-0.1415
874.8863	0.0326
875.0478	0.5018
875.2092	0.4624
875.3706	-0.1895
875.5319	-1.0376
875.6933	0.0433
875.8546	0.5555
876.0159	-0
876.1772	0.1446
876.3385	-0
876.4997	-0.0633
876.6609	-0.5837
876.8221	-0
876.9833	0.4873
877.1445	-0
877.3056	0.1984
877.4667	-0.5935
877.6278	0.1843
877.7889	0.8373
877.9499	-0
878.111	-0
878.272	-0.1627
878.433	-0
878.5939	0.3227
878.7549	0.272
878.9158	-0.6357
879.0767	-0.0525
879.2376	-0
879.3984	-0.0423
879.5593	-0
879.7201	-0.1768
879.8809	-0.7436
880.0417	-0.3288
880.2024	2.0233
880.3632	-0.6784
880.5239	0.1557
880.6846	-0.0612
880.8452	-2.4886
881.0059	-0
881.1665	-0.2214
881.3271	0.0969
881.4877	-0.1178
881.6483	0.0284
881.8088	-0.0605
881.9693	-0
882.1298	-0
882.2903	-0
