Data from MonoPyChalIsomerACN10uM440nmA_Absorbance_15-27-17-594.txt Node
Date: Fri Jul 05 15:27:17 BST 2024
User: LASERRRRR
Spectrometer: FLMT03099
Trigger mode: 0
Integration Time (sec): 1.000000E-1
Scans to average: 1
Electric dark correction enabled: true
Nonlinearity correction enabled: false
Boxcar width: 0
XAxis mode: Wavelengths
Number of Pixels in Spectrum: 3648
>>>>>Begin Spectral Data<<<<<
179.3399	-0.2615
179.5586	-0.2615
179.7771	-0.2615
179.9957	0.2661
180.2143	-0
180.4329	-0.231
180.6514	-0
180.8699	-0
181.0885	-0
181.307	0.2516
181.5255	-0
181.744	-0.2848
181.9625	-0
182.181	-0
182.3994	0.8647
182.6179	-0
182.8363	0.0357
183.0547	-0.2662
183.2732	0.0481
183.4916	0.0844
183.71	0.0052
183.9284	0.5117
184.1467	0.0599
184.3651	0.1757
184.5835	0.1516
184.8018	-0.0312
185.0201	0.0216
185.2385	0.2327
185.4568	0.4756
185.6751	0.0919
185.8934	0.2504
186.1117	0.0927
186.3299	0.2992
186.5482	0.3873
186.7664	-0.0729
186.9847	0.0155
187.2029	0.1907
187.4211	0.0011
187.6393	0.1451
187.8575	-0.1306
188.0757	0.3388
188.2939	0.2663
188.512	0.2044
188.7302	-0.0832
188.9483	-0.0405
189.1665	0.3832
189.3846	0.0446
189.6027	0.2569
189.8208	0.1552
190.0389	0.1251
190.257	0.1788
190.475	0.1677
190.6931	0.2147
190.9111	0.3784
191.1292	0.187
191.3472	0.4406
191.5652	0.2221
191.7832	0.1155
192.0012	0.626
192.2192	0.2719
192.4371	0.3463
192.6551	0.5835
192.873	0.4537
193.091	0.3536
193.3089	0.6563
193.5268	0.649
193.7447	0.5835
193.9626	0.423
194.1805	0.6961
194.3984	1.3501
194.6162	0.4953
194.8341	0.6477
195.0519	0.6052
195.2697	0.6518
195.4875	0.8156
195.7054	0.5722
195.9231	0.5108
196.1409	0.6542
196.3587	0.5741
196.5765	0.6446
196.7942	0.5223
197.012	0.6732
197.2297	0.5624
197.4474	0.6578
197.6651	0.5754
197.8828	0.557
198.1005	0.7081
198.3182	0.5695
198.5358	0.9481
198.7535	0.4497
198.9711	0.6352
199.1888	0.5823
199.4064	1.0622
199.624	0.7122
199.8416	0.6447
200.0592	0.6114
200.2767	0.5932
200.4943	0.617
200.7119	0.7867
200.9294	0.6643
201.1469	0.5744
201.3645	0.606
201.582	0.6933
201.7995	0.7869
202.017	0.5957
202.2344	0.7893
202.4519	0.745
202.6694	0.6395
202.8868	0.6173
203.1042	0.8042
203.3217	0.877
203.5391	0.6358
203.7565	0.6
203.9739	0.6546
204.1913	0.6849
204.4086	0.7204
204.626	0.7446
204.8433	0.7083
205.0607	0.6553
205.278	0.7978
205.4953	0.6161
205.7126	0.7133
205.9299	0.7932
206.1472	0.6785
206.3644	0.6567
206.5817	0.7393
206.7989	0.6133
207.0162	0.6518
207.2334	0.7263
207.4506	0.6477
207.6678	0.6711
207.885	0.6705
208.1022	0.7331
208.3194	0.7079
208.5365	0.7782
208.7537	0.6387
208.9708	0.5805
209.1879	0.7181
209.405	0.7226
209.6222	0.6489
209.8392	0.7581
210.0563	0.5728
210.2734	0.7235
210.4905	0.6496
210.7075	0.6387
210.9245	0.5963
211.1416	0.7145
211.3586	0.6436
211.5756	0.6095
211.7926	0.6337
212.0096	0.5856
212.2265	0.6047
212.4435	0.5746
212.6604	0.5853
212.8774	0.5533
213.0943	0.6272
213.3112	0.5406
213.5281	0.5201
213.745	0.5142
213.9619	0.5314
214.1788	0.4863
214.3956	0.4549
214.6125	0.4714
214.8293	0.4637
215.0461	0.4791
215.2629	0.5065
215.4798	0.4869
215.6965	0.4201
215.9133	0.4042
216.1301	0.4334
216.3469	0.4594
216.5636	0.4395
216.7803	0.3986
216.9971	0.4201
217.2138	0.3632
217.4305	0.3752
217.6472	0.3838
217.8639	0.3798
218.0805	0.3412
218.2972	0.3167
218.5138	0.3389
218.7305	0.3419
218.9471	0.3203
219.1637	0.2857
219.3803	0.2917
219.5969	0.2941
219.8135	0.2517
220.0301	0.275
220.2466	0.2769
220.4632	0.2679
220.6797	0.219
220.8962	0.2452
221.1127	0.2569
221.3292	0.2404
221.5457	0.2251
221.7622	0.2119
221.9787	0.2432
222.1951	0.2341
222.4116	0.2649
222.628	0.2467
222.8444	0.2503
223.0608	0.2296
223.2772	0.2575
223.4936	0.2595
223.71	0.2409
223.9264	0.2725
224.1427	0.2396
224.3591	0.2368
224.5754	0.2625
224.7917	0.2651
225.008	0.2676
225.2243	0.2426
225.4406	0.2965
225.6569	0.2744
225.8732	0.2474
226.0894	0.2669
226.3057	0.2646
226.5219	0.2754
226.7381	0.2795
226.9543	0.2799
227.1705	0.2908
227.3867	0.2846
227.6029	0.2821
227.8191	0.2962
228.0352	0.2927
228.2513	0.2991
228.4675	0.3225
228.6836	0.2982
228.8997	0.2887
229.1158	0.2952
229.3319	0.2944
229.548	0.303
229.764	0.3282
229.9801	0.3351
230.1961	0.2925
230.4121	0.3098
230.6282	0.3294
230.8442	0.3466
231.0602	0.3312
231.2761	0.342
231.4921	0.3254
231.7081	0.3515
231.924	0.3314
232.14	0.3582
232.3559	0.3304
232.5718	0.3637
232.7877	0.3607
233.0036	0.3499
233.2195	0.3614
233.4353	0.3469
233.6512	0.3378
233.867	0.3613
234.0829	0.3633
234.2987	0.3581
234.5145	0.3763
234.7303	0.3633
234.9461	0.389
235.1619	0.3711
235.3776	0.3743
235.5934	0.3839
235.8091	0.3549
236.0249	0.3788
236.2406	0.3707
236.4563	0.3635
236.672	0.4005
236.8877	0.3894
237.1034	0.3873
237.319	0.4001
237.5347	0.4144
237.7503	0.3949
237.966	0.4028
238.1816	0.4148
238.3972	0.4164
238.6128	0.3974
238.8284	0.4061
239.0439	0.4205
239.2595	0.3964
239.475	0.4266
239.6906	0.4027
239.9061	0.3898
240.1216	0.3836
240.3371	0.417
240.5526	0.4021
240.7681	0.398
240.9836	0.3817
241.199	0.4008
241.4145	0.4088
241.6299	0.3772
241.8453	0.3911
242.0607	0.3757
242.2761	0.3757
242.4915	0.3605
242.7069	0.3696
242.9223	0.3638
243.1376	0.3627
243.353	0.3594
243.5683	0.3627
243.7836	0.3326
243.9989	0.3369
244.2142	0.3212
244.4295	0.3202
244.6448	0.3118
244.86	0.3044
245.0753	0.2941
245.2905	0.2831
245.5057	0.2887
245.721	0.2874
245.9362	0.2786
246.1514	0.2735
246.3665	0.2626
246.5817	0.2645
246.7969	0.2679
247.012	0.254
247.2271	0.2372
247.4423	0.2411
247.6574	0.2438
247.8725	0.2356
248.0876	0.2263
248.3026	0.239
248.5177	0.2307
248.7328	0.2321
248.9478	0.2108
249.1628	0.2181
249.3779	0.212
249.5929	0.2054
249.8079	0.223
250.0228	0.2141
250.2378	0.1935
250.4528	0.2049
250.6677	0.1891
250.8827	0.1897
251.0976	0.198
251.3125	0.2072
251.5274	0.1707
251.7423	0.1793
251.9572	0.1936
252.172	0.1791
252.3869	0.1835
252.6017	0.1864
252.8166	0.1737
253.0314	0.1694
253.2462	0.1696
253.461	0.1849
253.6758	0.1741
253.8906	0.166
254.1053	0.1562
254.3201	0.1589
254.5348	0.1858
254.7496	0.1742
254.9643	0.1618
255.179	0.1701
255.3937	0.1666
255.6083	0.1699
255.823	0.1735
256.0377	0.1609
256.2523	0.1779
256.467	0.1425
256.6816	0.1747
256.8962	0.171
257.1108	0.1655
257.3254	0.1687
257.54	0.1735
257.7545	0.1635
257.9691	0.1719
258.1836	0.1638
258.3981	0.1694
258.6127	0.1601
258.8272	0.1653
259.0417	0.1571
259.2561	0.1553
259.4706	0.1662
259.6851	0.1724
259.8995	0.1663
260.114	0.1645
260.3284	0.1762
260.5428	0.1512
260.7572	0.1653
260.9716	0.1604
261.186	0.15
261.4003	0.1659
261.6147	0.1617
261.829	0.1714
262.0433	0.1649
262.2577	0.1676
262.472	0.1717
262.6863	0.1416
262.9005	0.1698
263.1148	0.1673
263.3291	0.1439
263.5433	0.1686
263.7576	0.1679
263.9718	0.1693
264.186	0.1631
264.4002	0.16
264.6144	0.1624
264.8286	0.1684
265.0427	0.167
265.2569	0.1456
265.471	0.1534
265.6851	0.1517
265.8993	0.159
266.1134	0.1537
266.3275	0.1558
266.5415	0.1574
266.7556	0.1737
266.9697	0.1668
267.1837	0.1667
267.3978	0.1554
267.6118	0.1682
267.8258	0.1816
268.0398	0.148
268.2538	0.1609
268.4677	0.154
268.6817	0.1491
268.8957	0.1723
269.1096	0.1699
269.3235	0.1657
269.5374	0.155
269.7514	0.164
269.9652	0.156
270.1791	0.1562
270.393	0.1491
270.6068	0.1542
270.8207	0.147
271.0345	0.1477
271.2483	0.1526
271.4622	0.1593
271.676	0.1516
271.8897	0.1414
272.1035	0.1477
272.3173	0.1488
272.531	0.1454
272.7448	0.1512
272.9585	0.1413
273.1722	0.1522
273.3859	0.1542
273.5996	0.1317
273.8133	0.1488
274.0269	0.1527
274.2406	0.1415
274.4542	0.1518
274.6679	0.1366
274.8815	0.1537
275.0951	0.1581
275.3087	0.1581
275.5223	0.1579
275.7358	0.1592
275.9494	0.1386
276.1629	0.145
276.3765	0.1462
276.59	0.1489
276.8035	0.1552
277.017	0.1419
277.2305	0.1546
277.444	0.1541
277.6574	0.1351
277.8709	0.1609
278.0843	0.1492
278.2978	0.1563
278.5112	0.1372
278.7246	0.1619
278.938	0.1477
279.1513	0.1552
279.3647	0.1671
279.5781	0.1563
279.7914	0.1412
280.0047	0.1721
280.2181	0.1587
280.4314	0.158
280.6447	0.1542
280.8579	0.1581
281.0712	0.1642
281.2845	0.1625
281.4977	0.1546
281.711	0.1567
281.9242	0.1528
282.1374	0.1663
282.3506	0.1532
282.5638	0.1637
282.7769	0.1539
282.9901	0.1498
283.2033	0.1573
283.4164	0.1554
283.6295	0.1385
283.8426	0.1548
284.0557	0.1499
284.2688	0.157
284.4819	0.1533
284.695	0.1679
284.908	0.1654
285.1211	0.1481
285.3341	0.1671
285.5471	0.1647
285.7601	0.1642
285.9731	0.1482
286.1861	0.1543
286.3991	0.1705
286.612	0.1776
286.825	0.1605
287.0379	0.1748
287.2508	0.149
287.4637	0.1699
287.6766	0.1549
287.8895	0.1669
288.1024	0.1787
288.3152	0.1635
288.5281	0.1551
288.7409	0.1579
288.9538	0.1582
289.1666	0.1487
289.3794	0.1654
289.5922	0.1522
289.8049	0.1714
290.0177	0.1447
290.2304	0.1569
290.4432	0.1616
290.6559	0.1652
290.8686	0.1727
291.0813	0.1595
291.294	0.1606
291.5067	0.1626
291.7194	0.1612
291.932	0.1576
292.1447	0.1661
292.3573	0.16
292.5699	0.1597
292.7825	0.163
292.9951	0.1545
293.2077	0.1678
293.4203	0.1635
293.6328	0.148
293.8454	0.1545
294.0579	0.1569
294.2704	0.1592
294.4829	0.155
294.6954	0.1513
294.9079	0.1685
295.1204	0.1542
295.3328	0.1606
295.5453	0.1594
295.7577	0.1542
295.9701	0.1499
296.1825	0.1665
296.3949	0.1601
296.6073	0.1584
296.8197	0.1468
297.0321	0.1575
297.2444	0.1433
297.4567	0.1581
297.6691	0.1603
297.8814	0.1544
298.0937	0.1428
298.306	0.1502
298.5182	0.161
298.7305	0.1614
298.9428	0.1575
299.155	0.1613
299.3672	0.1602
299.5794	0.1443
299.7916	0.1527
300.0038	0.1455
300.216	0.1572
300.4282	0.1602
300.6403	0.1491
300.8525	0.1671
301.0646	0.1642
301.2767	0.1583
301.4888	0.1549
301.7009	0.161
301.913	0.1526
302.125	0.157
302.3371	0.1619
302.5491	0.1687
302.7612	0.1685
302.9732	0.1654
303.1852	0.163
303.3972	0.1692
303.6092	0.1539
303.8211	0.1514
304.0331	0.1405
304.245	0.1484
304.457	0.1376
304.6689	0.143
304.8808	0.1553
305.0927	0.1448
305.3046	0.1454
305.5164	0.1479
305.7283	0.1476
305.9401	0.1483
306.152	0.1391
306.3638	0.1544
306.5756	0.1395
306.7874	0.1436
306.9992	0.1445
307.2109	0.136
307.4227	0.122
307.6344	0.1288
307.8462	0.1345
308.0579	0.1394
308.2696	0.1273
308.4813	0.1287
308.693	0.1338
308.9046	0.1277
309.1163	0.1353
309.328	0.124
309.5396	0.1209
309.7512	0.116
309.9628	0.114
310.1744	0.1189
310.386	0.1206
310.5976	0.1229
310.8091	0.1166
311.0207	0.1158
311.2322	0.1209
311.4437	0.1094
311.6552	0.1133
311.8667	0.1219
312.0782	0.0989
312.2897	0.112
312.5012	0.1047
312.7126	0.0938
312.924	0.1059
313.1355	0.1112
313.3469	0.1091
313.5583	0.1123
313.7696	0.1057
313.981	0.1095
314.1924	0.1116
314.4037	0.096
314.6151	0.122
314.8264	0.1056
315.0377	0.1088
315.249	0.1016
315.4603	0.1088
315.6716	0.1174
315.8828	0.091
316.0941	0.1071
316.3053	0.09
316.5165	0.0937
316.7277	0.0905
316.9389	0.1093
317.1501	0.1009
317.3613	0.1118
317.5724	0.0868
317.7836	0.1023
317.9947	0.1047
318.2058	0.0988
318.417	0.0897
318.6281	0.0967
318.8391	0.0915
319.0502	0.1007
319.2613	0.0999
319.4723	0.1153
319.6834	0.1091
319.8944	0.0977
320.1054	0.1006
320.3164	0.1073
320.5274	0.096
320.7383	0.093
320.9493	0.101
321.1602	0.1096
321.3712	0.0892
321.5821	0.1055
321.793	0.1053
322.0039	0.1069
322.2148	0.0987
322.4257	0.1097
322.6365	0.1125
322.8474	0.1003
323.0582	0.1005
323.269	0.1039
323.4798	0.102
323.6906	0.108
323.9014	0.1019
324.1122	0.1
324.3229	0.0953
324.5337	0.0974
324.7444	0.0932
324.9551	0.1175
325.1658	0.1012
325.3765	0.1044
325.5872	0.1057
325.7979	0.1075
326.0085	0.1095
326.2192	0.106
326.4298	0.1183
326.6404	0.0993
326.851	0.0973
327.0616	0.0866
327.2722	0.1123
327.4828	0.1119
327.6933	0.0902
327.9039	0.1154
328.1144	0.1138
328.3249	0.1191
328.5354	0.1056
328.7459	0.1072
328.9564	0.1062
329.1669	0.0988
329.3773	0.1131
329.5878	0.1197
329.7982	0.1039
330.0086	0.1144
330.219	0.1254
330.4294	0.1116
330.6398	0.1073
330.8502	0.102
331.0605	0.1097
331.2708	0.1058
331.4812	0.1224
331.6915	0.1196
331.9018	0.0995
332.1121	0.1021
332.3224	0.119
332.5326	0.1148
332.7429	0.1162
332.9531	0.1161
333.1633	0.1183
333.3735	0.1097
333.5837	0.1023
333.7939	0.0984
334.0041	0.1251
334.2143	0.1154
334.4244	0.1174
334.6346	0.1075
334.8447	0.1235
335.0548	0.1092
335.2649	0.1089
335.475	0.1133
335.685	0.1011
335.8951	0.1254
336.1051	0.1153
336.3152	0.1118
336.5252	0.1148
336.7352	0.1124
336.9452	0.117
337.1552	0.1216
337.3652	0.1183
337.5751	0.1082
337.7851	0.1201
337.995	0.1111
338.2049	0.1225
338.4148	0.118
338.6247	0.1211
338.8346	0.1125
339.0445	0.1083
339.2543	0.124
339.4642	0.1229
339.674	0.1102
339.8838	0.1207
340.0936	0.1108
340.3034	0.1213
340.5132	0.1266
340.7229	0.1129
340.9327	0.1077
341.1424	0.1155
341.3522	0.1373
341.5619	0.1148
341.7716	0.1263
341.9813	0.1279
342.1909	0.1238
342.4006	0.1287
342.6102	0.1288
342.8199	0.137
343.0295	0.1344
343.2391	0.1234
343.4487	0.1302
343.6583	0.1269
343.8679	0.1283
344.0774	0.1433
344.287	0.1302
344.4965	0.1238
344.706	0.1368
344.9155	0.1269
345.125	0.1353
345.3345	0.1424
345.544	0.1289
345.7534	0.1319
345.9629	0.1124
346.1723	0.1405
346.3817	0.1293
346.5911	0.1385
346.8005	0.1453
347.0099	0.1372
347.2193	0.1299
347.4286	0.1255
347.638	0.1323
347.8473	0.1449
348.0566	0.1464
348.2659	0.1455
348.4752	0.1468
348.6845	0.122
348.8937	0.1362
349.103	0.1457
349.3122	0.1294
349.5214	0.1397
349.7306	0.1444
349.9398	0.1444
350.149	0.147
350.3582	0.1334
350.5674	0.1476
350.7765	0.1568
350.9856	0.1402
351.1948	0.1506
351.4039	0.1333
351.613	0.1434
351.822	0.1549
352.0311	0.1466
352.2402	0.131
352.4492	0.1562
352.6582	0.1487
352.8672	0.1436
353.0762	0.1571
353.2852	0.1333
353.4942	0.144
353.7032	0.137
353.9121	0.1638
354.1211	0.1524
354.33	0.148
354.5389	0.1502
354.7478	0.1568
354.9567	0.1501
355.1655	0.1435
355.3744	0.1635
355.5833	0.1581
355.7921	0.1637
356.0009	0.1493
356.2097	0.1789
356.4185	0.1607
356.6273	0.1688
356.8361	0.1681
357.0448	0.1483
357.2536	0.1552
357.4623	0.1576
357.671	0.1672
357.8797	0.1769
358.0884	0.1655
358.2971	0.1539
358.5057	0.1697
358.7144	0.1799
358.923	0.1641
359.1316	0.1704
359.3402	0.1624
359.5488	0.1749
359.7574	0.169
359.966	0.1715
360.1746	0.1796
360.3831	0.1845
360.5916	0.1692
360.8002	0.1642
361.0087	0.175
361.2172	0.1808
361.4256	0.1696
361.6341	0.1715
361.8426	0.1825
362.051	0.1904
362.2594	0.1718
362.4678	0.1692
362.6762	0.1953
362.8846	0.1824
363.093	0.1727
363.3014	0.1754
363.5097	0.1749
363.718	0.1812
363.9264	0.1867
364.1347	0.1738
364.343	0.1838
364.5513	0.1901
364.7595	0.2086
364.9678	0.2096
365.176	0.1877
365.3842	0.1897
365.5925	0.1878
365.8007	0.1879
366.0089	0.1974
366.217	0.1875
366.4252	0.2116
366.6333	0.2158
366.8415	0.2102
367.0496	0.1891
367.2577	0.1941
367.4658	0.2103
367.6739	0.2081
367.882	0.2145
368.09	0.1883
368.2981	0.2062
368.5061	0.1916
368.7141	0.2244
368.9221	0.2299
369.1301	0.1966
369.3381	0.1952
369.5461	0.2087
369.754	0.1994
369.962	0.2136
370.1699	0.2054
370.3778	0.2199
370.5857	0.1941
370.7936	0.2096
371.0015	0.2085
371.2093	0.2139
371.4172	0.218
371.625	0.1895
371.8328	0.2078
372.0406	0.2092
372.2484	0.2113
372.4562	0.2078
372.664	0.2171
372.8717	0.2426
373.0795	0.2019
373.2872	0.2146
373.4949	0.2123
373.7026	0.2249
373.9103	0.2248
374.118	0.2164
374.3256	0.2233
374.5333	0.2154
374.7409	0.2263
374.9485	0.2368
375.1561	0.2321
375.3637	0.2439
375.5713	0.2165
375.7789	0.2212
375.9864	0.219
376.194	0.2229
376.4015	0.2292
376.609	0.2339
376.8165	0.2224
377.024	0.226
377.2315	0.2165
377.4389	0.2208
377.6464	0.2285
377.8538	0.2249
378.0612	0.2323
378.2686	0.2281
378.476	0.2296
378.6834	0.2318
378.8908	0.2256
379.0981	0.2428
379.3055	0.2309
379.5128	0.2361
379.7201	0.2193
379.9274	0.2317
380.1347	0.2415
380.342	0.2504
380.5492	0.2329
380.7565	0.2345
380.9637	0.2364
381.1709	0.2367
381.3781	0.2319
381.5853	0.2438
381.7925	0.2436
381.9997	0.2466
382.2068	0.2413
382.4139	0.2246
382.6211	0.2357
382.8282	0.2326
383.0353	0.2309
383.2424	0.2366
383.4494	0.255
383.6565	0.2406
383.8635	0.2388
384.0706	0.2334
384.2776	0.2342
384.4846	0.2324
384.6916	0.2375
384.8986	0.2451
385.1055	0.229
385.3125	0.2562
385.5194	0.2402
385.7263	0.2451
385.9333	0.2313
386.1402	0.2377
386.347	0.2442
386.5539	0.2255
386.7608	0.2499
386.9676	0.2258
387.1744	0.2367
387.3813	0.2319
387.5881	0.2283
387.7948	0.228
388.0016	0.2336
388.2084	0.2408
388.4151	0.2208
388.6219	0.2299
388.8286	0.228
389.0353	0.2552
389.242	0.2228
389.4487	0.2254
389.6553	0.2369
389.862	0.2149
390.0686	0.2231
390.2753	0.2336
390.4819	0.233
390.6885	0.2122
390.8951	0.2155
391.1016	0.2248
391.3082	0.2174
391.5147	0.234
391.7213	0.2247
391.9278	0.2168
392.1343	0.2224
392.3408	0.2162
392.5473	0.2189
392.7537	0.2003
392.9602	0.1993
393.1666	0.2045
393.373	0.2288
393.5794	0.233
393.7858	0.2113
393.9922	0.2084
394.1986	0.2198
394.4049	0.2057
394.6113	0.2005
394.8176	0.2004
395.0239	0.2196
395.2302	0.21
395.4365	0.1985
395.6428	0.1998
395.8491	0.1941
396.0553	0.1992
396.2615	0.2036
396.4678	0.1864
396.674	0.1936
396.8802	0.1984
397.0863	0.2165
397.2925	0.1999
397.4987	0.2068
397.7048	0.1928
397.9109	0.2185
398.117	0.1903
398.3231	0.1939
398.5292	0.2055
398.7353	0.2052
398.9413	0.1944
399.1474	0.1951
399.3534	0.1948
399.5594	0.1887
399.7654	0.2155
399.9714	0.2163
400.1774	0.219
400.3833	0.1843
400.5893	0.2109
400.7952	0.1982
401.0011	0.1883
401.207	0.2063
401.4129	0.2111
401.6188	0.1991
401.8247	0.21
402.0305	0.1971
402.2364	0.1833
402.4422	0.2195
402.648	0.2056
402.8538	0.2196
403.0596	0.2018
403.2654	0.2009
403.4711	0.1902
403.6768	0.1936
403.8826	0.2069
404.0883	0.2061
404.294	0.1985
404.4997	0.2156
404.7054	0.1975
404.911	0.1813
405.1167	0.1897
405.3223	0.1955
405.5279	0.2056
405.7335	0.2029
405.9391	0.2038
406.1447	0.1936
406.3502	0.2205
406.5558	0.1809
406.7613	0.1897
406.9668	0.1866
407.1724	0.1938
407.3778	0.1974
407.5833	0.1734
407.7888	0.1823
407.9942	0.2132
408.1997	0.1864
408.4051	0.2031
408.6105	0.2086
408.8159	0.1783
409.0213	0.1849
409.2267	0.1996
409.432	0.1731
409.6374	0.1943
409.8427	0.1831
410.048	0.1995
410.2533	0.1828
410.4586	0.1928
410.6639	0.1869
410.8691	0.2017
411.0744	0.1924
411.2796	0.1806
411.4848	0.1931
411.69	0.1938
411.8952	0.2065
412.1004	0.1867
412.3056	0.2104
412.5107	0.1884
412.7158	0.2042
412.921	0.1836
413.1261	0.2024
413.3312	0.1949
413.5362	0.1793
413.7413	0.1805
413.9464	0.1968
414.1514	0.1818
414.3564	0.1881
414.5614	0.1812
414.7664	0.186
414.9714	0.1855
415.1764	0.1994
415.3813	0.201
415.5863	0.1866
415.7912	0.1974
415.9961	0.1827
416.201	0.1816
416.4059	0.1956
416.6108	0.1692
416.8156	0.1939
417.0205	0.1934
417.2253	0.1796
417.4301	0.1958
417.6349	0.1989
417.8397	0.1855
418.0445	0.2012
418.2492	0.2151
418.454	0.1945
418.6587	0.1769
418.8634	0.1946
419.0681	0.1756
419.2728	0.168
419.4775	0.1839
419.6822	0.1766
419.8868	0.1604
420.0915	0.1766
420.2961	0.1575
420.5007	0.1761
420.7053	0.1842
420.9099	0.2024
421.1144	0.1721
421.319	0.1619
421.5235	0.1709
421.728	0.191
421.9325	0.1758
422.137	0.1931
422.3415	0.1715
422.546	0.1793
422.7504	0.1841
422.9549	0.1875
423.1593	0.1784
423.3637	0.1795
423.5681	0.1801
423.7725	0.172
423.9769	0.1434
424.1812	0.1458
424.3856	0.1584
424.5899	0.1625
424.7942	0.1594
424.9985	0.1775
425.2028	0.1567
425.4071	0.1659
425.6113	0.1577
425.8156	0.1759
426.0198	0.1673
426.224	0.1684
426.4282	0.154
426.6324	0.1458
426.8366	0.1636
427.0407	0.1503
427.2449	0.1474
427.449	0.1598
427.6531	0.1377
427.8572	0.1416
428.0613	0.1462
428.2654	0.1423
428.4694	0.155
428.6735	0.1398
428.8775	0.1608
429.0815	0.1606
429.2855	0.1302
429.4895	0.1527
429.6935	0.1365
429.8975	0.1406
430.1014	0.1306
430.3053	0.1055
430.5093	0.1315
430.7132	0.1359
430.9171	0.1302
431.1209	0.1285
431.3248	0.1172
431.5286	0.131
431.7325	0.1402
431.9363	0.1112
432.1401	0.1344
432.3439	0.1335
432.5477	0.098
432.7514	0.105
432.9552	0.11
433.1589	0.1124
433.3627	0.1101
433.5664	0.1095
433.7701	0.1244
433.9737	0.1055
434.1774	0.1021
434.3811	0.1015
434.5847	0.1163
434.7883	0.1066
434.9919	0.1062
435.1955	0.1144
435.3991	0.1127
435.6027	0.115
435.8062	0.0993
436.0098	0.0998
436.2133	0.0837
436.4168	0.0879
436.6203	0.0892
436.8238	0.0917
437.0272	0.0797
437.2307	0.0956
437.4341	0.1006
437.6375	0.095
437.841	0.0709
438.0443	0.0905
438.2477	0.0822
438.4511	0.0742
438.6545	0.0905
438.8578	0.1009
439.0611	0.068
439.2644	0.0898
439.4677	0.0659
439.671	0.0745
439.8743	0.0814
440.0775	0.0704
440.2808	0.059
440.484	0.0473
440.6872	0.0478
440.8904	0.0648
441.0936	0.0721
441.2967	0.0811
441.4999	0.0742
441.703	0.0592
441.9062	0.0493
442.1093	0.0582
442.3124	0.0562
442.5155	0.0525
442.7185	0.0598
442.9216	0.0475
443.1246	0.0601
443.3276	0.0548
443.5307	0.0416
443.7337	0.0554
443.9366	0.0403
444.1396	0.0571
444.3426	0.0506
444.5455	0.0441
444.7484	0.0425
444.9513	0.0419
445.1542	0.0566
445.3571	0.035
445.56	0.0426
445.7628	0.0327
445.9657	0.0247
446.1685	0.0388
446.3713	0.0434
446.5741	0.0461
446.7769	0.0378
446.9797	0.0378
447.1824	0.047
447.3852	0.0329
447.5879	0.0588
447.7906	0.0372
447.9933	0.0457
448.196	0.0259
448.3986	0.0376
448.6013	0.0411
448.8039	0.0247
449.0066	0.0324
449.2092	0.0336
449.4118	0.0399
449.6143	0.0279
449.8169	0.0234
450.0195	0.0078
450.222	0.0113
450.4245	0.0233
450.627	0.0269
450.8295	0.0302
451.032	0.0167
451.2345	0.0167
451.4369	0.0326
451.6394	0.0229
451.8418	0.0144
452.0442	0.0199
452.2466	0.0368
452.449	0.008
452.6513	0.0262
452.8537	0.0215
453.056	0.0122
453.2583	0.0073
453.4607	0.012
453.663	0.0041
453.8652	0.0102
454.0675	-0.0061
454.2697	0.0348
454.472	0.0099
454.6742	0.0181
454.8764	0.0033
455.0786	0.0223
455.2808	0.0116
455.4829	0.0198
455.6851	0.0189
455.8872	0.0199
456.0893	0.022
456.2915	0.006
456.4935	0.0215
456.6956	0.0089
456.8977	0.0258
457.0997	0.0078
457.3018	-0.0043
457.5038	0.0136
457.7058	0.0004
457.9078	0.0007
458.1098	0.0288
458.3117	0.0181
458.5137	0.0036
458.7156	0.0128
458.9175	-0.009
459.1194	0.0157
459.3213	0.0186
459.5232	0.0073
459.725	-0.0139
459.9269	-0.0048
460.1287	-0.0047
460.3305	0.0054
460.5323	0.0151
460.7341	0.0012
460.9359	0.0018
461.1376	0.0037
461.3394	0.0149
461.5411	0.0065
461.7428	0.0054
461.9445	0.007
462.1462	0.0222
462.3479	-0.0129
462.5495	0.002
462.7512	0.009
462.9528	0.003
463.1544	0.0078
463.356	0.0016
463.5576	0.0102
463.7592	0.0011
463.9607	0.0038
464.1623	0.0271
464.3638	0.0132
464.5653	-0.0065
464.7668	0.0035
464.9683	0.0201
465.1697	0.0163
465.3712	0.0016
465.5726	-0.0067
465.7741	0.0036
465.9755	-0.009
466.1769	-0.001
466.3782	-0.0015
466.5796	-0.003
466.7809	0.0088
466.9823	-0.0165
467.1836	0.0049
467.3849	-0.0053
467.5862	0.0122
467.7875	-0.0067
467.9887	0.0034
468.19	0.0002
468.3912	0.0054
468.5924	-0.0003
468.7936	-0.0011
468.9948	-0.0016
469.196	0.0084
469.3972	-0.0043
469.5983	0.0188
469.7994	-0.0195
470.0006	-0.0014
470.2017	-0.0118
470.4027	0.0014
470.6038	0.0037
470.8049	-0.0122
471.0059	-0.0026
471.2069	-0.0213
471.408	0.0119
471.6089	0.0169
471.8099	-0.0047
472.0109	0.0077
472.2119	0.015
472.4128	-0.0092
472.6137	0.0085
472.8146	-0.0137
473.0155	-0.0022
473.2164	0.0052
473.4173	-0.0013
473.6181	0.0087
473.819	-0.0012
474.0198	-0.0034
474.2206	0.0074
474.4214	-0.0099
474.6222	0.0043
474.8229	-0.0143
475.0237	-0.0179
475.2244	-0.0128
475.4251	0.0033
475.6258	-0.0041
475.8265	0.0019
476.0272	0.0045
476.2278	-0.0128
476.4285	-0.0066
476.6291	-0.0089
476.8297	-0.0048
477.0303	-0.0049
477.2309	-0.0025
477.4315	-0.0172
477.632	0.0037
477.8326	-0.0073
478.0331	-0.0013
478.2336	0.0055
478.4341	-0.0076
478.6346	0.003
478.8351	-0.0047
479.0355	0.0023
479.236	-0.005
479.4364	0.0067
479.6368	0.0021
479.8372	-0.0064
480.0376	-0.0049
480.2379	-0.026
480.4383	-0.0105
480.6386	-0.0024
480.8389	0.001
481.0392	-0.0105
481.2395	-0.0098
481.4398	0.0066
481.6401	0.0021
481.8403	-0.0046
482.0405	-0.0103
482.2408	0.0039
482.441	0.0186
482.6411	-0.005
482.8413	-0.0011
483.0415	-0.0018
483.2416	-0.0119
483.4417	-0.0073
483.6419	-0.0052
483.8419	0.0059
484.042	0.0049
484.2421	-0.0064
484.4422	0.0022
484.6422	-0.0118
484.8422	-0.0083
485.0422	-0.0145
485.2422	0.0087
485.4422	-0.0046
485.6422	0.0002
485.8421	-0.0068
486.042	-0.0106
486.242	-0.0017
486.4419	-0.0098
486.6417	-0.011
486.8416	-0.0054
487.0415	-0.0079
487.2413	-0.0087
487.4411	-0.0052
487.641	-0.0107
487.8408	0.0037
488.0405	-0.0086
488.2403	-0.0084
488.4401	0.0064
488.6398	0.0015
488.8395	-0.0082
489.0392	0.0056
489.2389	-0.0062
489.4386	-0.0141
489.6383	-0.003
489.8379	0.0059
490.0376	-0.0131
490.2372	-0.0066
490.4368	-0.0058
490.6364	0.0022
490.836	0.0061
491.0355	-0.0038
491.2351	-0.0012
491.4346	-0.0088
491.6341	-0.008
491.8336	0.0034
492.0331	-0.0179
492.2326	-0.0048
492.432	0.0104
492.6315	-0.0049
492.8309	-0.0119
493.0303	-0.0121
493.2297	-0.0039
493.4291	0.0003
493.6284	-0.005
493.8278	-0.0006
494.0271	0.0043
494.2264	0.0101
494.4257	-0.008
494.625	-0.0021
494.8243	-0.0109
495.0236	-0.0086
495.2228	0.0021
495.422	-0.0041
495.6213	-0.0079
495.8205	0.0033
496.0196	-0.004
496.2188	0.0051
496.418	-0.0107
496.6171	-0.005
496.8162	-0.0123
497.0153	0.0033
497.2144	-0.0002
497.4135	-0.0039
497.6126	-0.0108
497.8116	-0.015
498.0107	0.0013
498.2097	-0.0023
498.4087	-0.0013
498.6077	-0.0005
498.8067	-0.001
499.0056	0.0094
499.2046	-0.0078
499.4035	-0.0149
499.6024	0.0089
499.8013	-0.003
500.0002	-0.0041
500.199	0.004
500.3979	0.0017
500.5967	-0.0204
500.7956	0.0036
500.9944	-0.0091
501.1932	-0.0123
501.3919	-0.011
501.5907	-0.017
501.7895	0.0007
501.9882	-0.012
502.1869	-0.0149
502.3856	-0.0137
502.5843	-0.0068
502.783	0.0008
502.9816	-0.0029
503.1803	-0.0055
503.3789	-0.0064
503.5775	-0.0016
503.7761	-0.0072
503.9747	-0.0052
504.1732	-0.001
504.3718	0.0011
504.5703	-0.0052
504.7689	-0.0126
504.9674	0.0042
505.1658	-0.0141
505.3643	-0.0046
505.5628	-0.0023
505.7612	-0.0083
505.9597	0.0014
506.1581	-0.0017
506.3565	0.0088
506.5549	-0.0042
506.7532	-0.0117
506.9516	-0.0051
507.1499	-0.0059
507.3482	-0.0147
507.5465	-0.0072
507.7448	-0.0043
507.9431	-0.0051
508.1414	0.0015
508.3396	0.0013
508.5379	-0.0046
508.7361	-0.0034
508.9343	-0.0035
509.1325	0.0068
509.3306	-0.0175
509.5288	0.0018
509.7269	-0.0123
509.9251	-0.0014
510.1232	-0.0048
510.3213	0.0025
510.5193	-0.0056
510.7174	-0.0119
510.9154	-0.0108
511.1135	-0.0013
511.3115	-0.0071
511.5095	-0.0001
511.7075	-0.0048
511.9055	-0.0006
512.1034	-0.0002
512.3014	-0.0037
512.4993	-0.0045
512.6972	0.0045
512.8951	-0.01
513.093	-0.0022
513.2908	-0.0032
513.4887	0.0012
513.6865	0.0047
513.8844	-0.0095
514.0822	-0.002
514.2799	-0.0121
514.4777	-0.0028
514.6755	-0.0077
514.8732	-0.0051
515.0709	0.0038
515.2687	-0.0059
515.4664	-0.0071
515.664	0.0026
515.8617	0.0015
516.0594	-0.0054
516.257	0.0001
516.4546	-0.0045
516.6522	0.0018
516.8498	0.0054
517.0474	0.0062
517.2449	0.0046
517.4425	-0.0094
517.64	-0.0137
517.8375	0.0008
518.035	-0.002
518.2325	0.0008
518.43	-0.0049
518.6274	-0.0008
518.8249	-0.0205
519.0223	-0.0021
519.2197	-0.0029
519.4171	-0.0071
519.6145	-0.0026
519.8118	-0.0051
520.0092	-0.0039
520.2065	-0.0229
520.4038	-0.0097
520.6011	0.0073
520.7984	-0.012
520.9956	-0.0082
521.1929	-0.0064
521.3901	0.0063
521.5874	0.0009
521.7846	-0.0008
521.9818	-0.0081
522.1789	-0.0118
522.3761	-0.01
522.5732	-0.0039
522.7704	-0.0034
522.9675	0.0041
523.1646	-0.0122
523.3617	0.0019
523.5587	0.0053
523.7558	-0.0079
523.9528	0.0001
524.1498	-0.0056
524.3468	-0.0057
524.5438	-0.0042
524.7408	0.0072
524.9378	0.0074
525.1347	-0.0104
525.3316	0.0157
525.5285	-0.0098
525.7254	-0.0005
525.9223	-0.0042
526.1192	-0.003
526.316	-0.0082
526.5129	-0.0048
526.7097	0.0041
526.9065	-0.0107
527.1033	0.0016
527.3	0.0009
527.4968	-0.001
527.6935	-0.0028
527.8903	-0.0083
528.087	-0.0121
528.2837	-0.0093
528.4804	-0.0012
528.677	-0.0043
528.8737	0.004
529.0703	0.002
529.2669	0.0002
529.4635	-0.001
529.6601	-0.0012
529.8567	-0.0023
530.0532	-0.0117
530.2498	0.0028
530.4463	0.0055
530.6428	-0.007
530.8393	0.0068
531.0358	-0.0155
531.2322	-0.0005
531.4287	-0.0044
531.6251	-0.016
531.8215	0.0111
532.0179	-0.0028
532.2143	0.0098
532.4107	-0.0057
532.607	-0.0058
532.8034	0.0028
532.9997	0
533.196	-0.0013
533.3923	-0.0131
533.5886	0.0002
533.7848	0.007
533.9811	-0.0003
534.1773	-0.0055
534.3735	0.0048
534.5697	0.0031
534.7659	0.0024
534.9621	0.0043
535.1582	-0.0073
535.3544	-0.0067
535.5505	-0.0079
535.7466	-0.0054
535.9427	0.0017
536.1387	-0.0032
536.3348	-0.0083
536.5308	0.0101
536.7269	-0.0071
536.9229	0.0098
537.1189	0.007
537.3148	-0.0071
537.5108	-0.0016
537.7068	-0.0059
537.9027	-0.0027
538.0986	-0.0027
538.2945	0.0042
538.4904	-0.0042
538.6863	-0.0066
538.8821	0.0022
539.078	-0.0061
539.2738	0.0049
539.4696	-0.0016
539.6654	0.0091
539.8611	0.0037
540.0569	-0.0018
540.2526	-0.0047
540.4484	0.0044
540.6441	0.0004
540.8398	-0.009
541.0355	0.0034
541.2311	-0.0014
541.4268	-0.0132
541.6224	0.0098
541.818	0.0026
542.0136	-0.0052
542.2092	0.002
542.4048	0.0129
542.6003	0.007
542.7959	0.0039
542.9914	0.0008
543.1869	-0.01
543.3824	0.0012
543.5779	0.0059
543.7734	-0.0061
543.9688	-0.0114
544.1642	0.0073
544.3596	0.0013
544.555	-0.008
544.7504	0.0024
544.9458	-0.0063
545.1411	-0.0012
545.3365	0.0036
545.5318	-0.0024
545.7271	0.0017
545.9224	-0.0094
546.1177	-0.001
546.3129	0.0028
546.5081	-0.0027
546.7034	-0.0028
546.8986	-0.0058
547.0938	-0.0005
547.289	-0.0081
547.4841	0.0044
547.6793	0.0243
547.8744	-0.0003
548.0695	0.0046
548.2646	-0.0033
548.4597	0.0114
548.6548	0.0061
548.8498	-0.0019
549.0448	0.0101
549.2399	0.0008
549.4349	0.0057
549.6298	-0.0018
549.8248	0.0001
550.0198	0.001
550.2147	-0.0038
550.4096	-0.0044
550.6045	0.0016
550.7994	0.0062
550.9943	0.0003
551.1892	0.0055
551.384	0.0104
551.5788	-0.0072
551.7737	0.0013
551.9685	0.0013
552.1632	0.0061
552.358	0.0018
552.5528	0.0066
552.7475	-0.0018
552.9422	-0.0028
553.1369	-0.001
553.3316	0.0095
553.5263	-0.0108
553.7209	0.0012
553.9156	-0.0051
554.1102	-0.0057
554.3048	0.0031
554.4994	0.0039
554.694	0.004
554.8885	-0.0007
555.0831	-0.003
555.2776	-0.0047
555.4721	-0.0058
555.6666	-0.0025
555.8611	0.0094
556.0555	-0.003
556.25	-0.0033
556.4444	-0.011
556.6388	0.0022
556.8332	0.007
557.0276	-0.0113
557.222	-0.0105
557.4163	-0.0019
557.6107	-0.0098
557.805	-0.0008
557.9993	-0.0038
558.1936	0.0004
558.3879	0.0078
558.5821	0.0066
558.7764	-0.0013
558.9706	-0.0031
559.1648	0.0011
559.359	0.0055
559.5532	0.0034
559.7473	-0.0023
559.9415	-0.0059
560.1356	-0.0018
560.3297	-0.004
560.5238	-0.0061
560.7179	0.0027
560.9119	-0.0033
561.106	-0.0021
561.3	-0.0063
561.494	-0.0041
561.688	-0.0062
561.882	-0.0014
562.076	0.003
562.2699	0.0022
562.4639	-0.0013
562.6578	0.0027
562.8517	0.0008
563.0456	-0.0023
563.2395	0.0018
563.4333	0.0032
563.6272	0.0056
563.821	-0.0001
564.0148	0.0061
564.2086	-0.0083
564.4024	0.0032
564.5961	-0.0046
564.7899	0.0092
564.9836	-0.0031
565.1773	0.0035
565.371	0.0089
565.5647	0.0013
565.7584	0.0078
565.952	0.003
566.1456	0.0108
566.3393	0.0001
566.5329	-0.0035
566.7264	-0.0109
566.92	-0.0055
567.1136	-0.0029
567.3071	-0.0117
567.5006	0.0102
567.6941	0.0036
567.8876	0.0057
568.0811	0.0018
568.2745	-0.0043
568.468	0.0034
568.6614	0.0049
568.8548	0.0057
569.0482	0.0004
569.2416	0.0055
569.4349	-0.003
569.6283	0.0014
569.8216	0.0004
570.0149	-0.0022
570.2082	0.011
570.4015	0.0135
570.5947	0.0067
570.788	0.0086
570.9812	0.0101
571.1744	-0.0034
571.3676	-0.0119
571.5608	-0.0019
571.754	0.0035
571.9471	0.0064
572.1402	0.002
572.3333	-0.0041
572.5264	-0.0011
572.7195	0.0006
572.9126	0.0016
573.1057	0.0001
573.2987	-0.0013
573.4917	0.0059
573.6847	-0.0055
573.8777	-0.0009
574.0707	0.007
574.2636	-0.002
574.4566	0.0003
574.6495	0.0057
574.8424	0.0042
575.0353	0.005
575.2281	0.0069
575.421	0.0035
575.6138	0.0086
575.8067	0.0038
575.9995	0.0058
576.1923	0.005
576.385	-0.0015
576.5778	0.0015
576.7706	0.0003
576.9633	-0.0026
577.156	0.006
577.3487	0.0062
577.5414	0.0045
577.734	-0.003
577.9267	-0.0012
578.1193	-0.0104
578.3119	-0.0049
578.5045	-0.0008
578.6971	-0.0005
578.8897	0.0099
579.0822	0.0006
579.2747	0.0058
579.4673	-0.0029
579.6598	-0.0003
579.8522	0.0034
580.0447	0.0021
580.2372	-0.0025
580.4296	0.0041
580.622	0.0023
580.8144	-0.0057
581.0068	0.0017
581.1992	-0.0074
581.3915	-0.0021
581.5839	-0.0058
581.7762	-0.0058
581.9685	-0.0008
582.1608	0.0027
582.353	0.0025
582.5453	0.0004
582.7375	0.0043
582.9298	0.004
583.122	0.0046
583.3142	0.0012
583.5063	0.002
583.6985	-0.0034
583.8906	-0.0007
584.0827	-0.0009
584.2749	0.0055
584.4669	0.0056
584.659	0.0038
584.8511	0.0036
585.0431	-0.0025
585.2352	0.0067
585.4272	-0.0035
585.6192	0.0085
585.8111	-0.0011
586.0031	-0.0036
586.195	-0.0025
586.387	0.0089
586.5789	0.0036
586.7708	0.0005
586.9627	0.0021
587.1545	0.0017
587.3464	0.0012
587.5382	0.0036
587.73	0.0064
587.9218	0.007
588.1136	-0.0045
588.3053	0.0038
588.4971	-0.0007
588.6888	-0.0014
588.8805	0.0033
589.0722	0.0082
589.2639	-0.0001
589.4556	-0.0002
589.6472	-0.0029
589.8389	-0.0037
590.0305	-0.0057
590.2221	0.0035
590.4137	-0.0012
590.6052	-0.0043
590.7968	0.0002
590.9883	-0.0022
591.1798	0.0069
591.3713	0
591.5628	0.0049
591.7543	0.0077
591.9458	0.0011
592.1372	0.0115
592.3286	0.008
592.52	0.006
592.7114	-0.0041
592.9028	-0.0022
593.0941	0.0037
593.2855	0.0012
593.4768	-0.0054
593.6681	-0.0031
593.8594	-0.0038
594.0506	0.0021
594.2419	0.0127
594.4331	0.0002
594.6244	0.0044
594.8156	-0.0058
595.0067	0.0036
595.1979	0.0033
595.3891	-0.0028
595.5802	0.0015
595.7713	-0.0009
595.9624	-0.0023
596.1535	0.0069
596.3446	0.01
596.5357	0.0014
596.7267	0.0103
596.9177	-0.0011
597.1087	-0.005
597.2997	-0.0058
597.4907	0.0047
597.6817	0.0016
597.8726	0.0027
598.0635	0.0006
598.2544	0.0016
598.4453	0.0008
598.6362	0.0005
598.827	-0.0017
599.0179	0.0034
599.2087	0.0018
599.3995	0.0001
599.5903	0.0047
599.7811	0.0034
599.9718	0.0024
600.1626	-0.0069
600.3533	-0.01
600.544	0.0013
600.7347	-0.0013
600.9254	0.0004
601.116	-0.0098
601.3067	0.002
601.4973	-0.0023
601.6879	0.0035
601.8785	-0.0041
602.0691	0.0064
602.2596	0.0014
602.4502	0.0067
602.6407	0.0056
602.8312	0.0084
603.0217	-0.0008
603.2122	0.0059
603.4027	0.005
603.5931	-0.0009
603.7835	-0.0057
603.9739	0.001
604.1643	-0.0008
604.3547	-0.0063
604.5451	-0.0009
604.7354	0.0018
604.9257	-0.0045
605.116	-0.0063
605.3063	-0.0039
605.4966	0.0016
605.6869	-0.005
605.8771	0.0041
606.0673	0.0111
606.2575	0.0107
606.4477	0.0082
606.6379	0.0011
606.8281	-0.0012
607.0182	-0.0025
607.2083	0.0084
607.3985	-0.0062
607.5885	0.0008
607.7786	0.0055
607.9687	0.001
608.1587	0.0106
608.3488	0.0006
608.5388	-0.0007
608.7288	0.0025
608.9187	-0.0122
609.1087	-0.0012
609.2986	-0.0087
609.4886	0.0038
609.6785	0.0026
609.8684	0.0074
610.0582	0.0075
610.2481	0.0064
610.4379	-0.0011
610.6278	0.0028
610.8176	0.0029
611.0074	0.0043
611.1971	-0.0011
611.3869	0.0015
611.5766	-0.0028
611.7664	0.0053
611.9561	0.0043
612.1458	0.0012
612.3354	0.0022
612.5251	0.0022
612.7147	0.0118
612.9044	0.0045
613.094	-0.0051
613.2836	0.0098
613.4731	0.0021
613.6627	0.0033
613.8522	0.0116
614.0417	0.0056
614.2313	0.0008
614.4207	-0.0007
614.6102	0.0037
614.7997	0.0027
614.9891	0.0001
615.1785	0.0018
615.3679	0.0045
615.5573	0.0104
615.7467	-0.0015
615.9361	0.0051
616.1254	0.0006
616.3147	-0.0001
616.504	0.0039
616.6933	0.0106
616.8826	0.0102
617.0718	0.0096
617.2611	0.0047
617.4503	-0.0058
617.6395	0.0084
617.8287	0.0019
618.0179	-0.0001
618.207	0.0089
618.3961	0.006
618.5853	0.0006
618.7744	0.0014
618.9634	0.008
619.1525	0.0012
619.3416	-0.0012
619.5306	0.0066
619.7196	0.0047
619.9086	-0.0027
620.0976	0.004
620.2866	0.0069
620.4755	0.0017
620.6645	0.0076
620.8534	0.013
621.0423	0.0078
621.2312	0.0099
621.42	0.0029
621.6089	0.0016
621.7977	0.008
621.9865	-0.0006
622.1753	0.0087
622.3641	0.0066
622.5529	0.0124
622.7416	0.0107
622.9303	0.004
623.1191	0.0054
623.3078	-0.0054
623.4964	0.0008
623.6851	-0.0007
623.8737	0.0056
624.0624	0.0107
624.251	0.0014
624.4396	0.0015
624.6282	-0.0051
624.8167	0.0069
625.0053	0.001
625.1938	0.0077
625.3823	0.001
625.5708	-0.0021
625.7593	0.001
625.9477	-0.0045
626.1362	-0.0002
626.3246	0.0046
626.513	0.0045
626.7014	0.0094
626.8898	0.0031
627.0781	0.0046
627.2665	0.0045
627.4548	0.0088
627.6431	0.0104
627.8314	0.0071
628.0197	0.0068
628.2079	-0.0005
628.3962	0.001
628.5844	0.0095
628.7726	0.0055
628.9608	0.0034
629.1489	0.0038
629.3371	0.0063
629.5252	-0.0024
629.7134	0.007
629.9015	0.002
630.0895	0.0089
630.2776	0.0146
630.4657	0.0015
630.6537	0.0053
630.8417	0.001
631.0297	-0.0022
631.2177	0.0106
631.4057	-0.0021
631.5936	0.0012
631.7815	0.0034
631.9695	0.0051
632.1574	0.0108
632.3452	0.0118
632.5331	0.0098
632.7209	0.0042
632.9088	0.0095
633.0966	0.012
633.2844	0.0051
633.4722	0.005
633.6599	0.0059
633.8477	0.0142
634.0354	0.0067
634.2231	0.0006
634.4108	0.0032
634.5985	0.0163
634.7861	0.0077
634.9738	0.0029
635.1614	0.0094
635.349	0.0059
635.5366	0.0055
635.7242	0.0092
635.9117	0.0146
636.0993	0.0026
636.2868	0.0111
636.4743	-0.0011
636.6618	0.0121
636.8492	0.0152
637.0367	0.0011
637.2241	0.0029
637.4115	-0.0037
637.5989	0.0052
637.7863	0.0038
637.9737	-0.0008
638.161	0.0073
638.3484	-0.0019
638.5357	0.0116
638.723	0.0047
638.9103	0.0006
639.0975	0.0052
639.2848	0.0071
639.472	0.0085
639.6592	0.0095
639.8464	0.017
640.0336	0.0125
640.2208	0.0025
640.4079	0.0034
640.595	0.0051
640.7821	0.0035
640.9692	0.0041
641.1563	0.0076
641.3434	0.0088
641.5304	0.0067
641.7174	0.0034
641.9044	0.0101
642.0914	0.0046
642.2784	0.007
642.4653	0.0091
642.6523	0.0042
642.8392	0.0064
643.0261	0.0051
643.213	0.0059
643.3999	0.0037
643.5867	0.0038
643.7735	0.0039
643.9604	0.002
644.1472	0.0104
644.3339	0.0043
644.5207	0.0059
644.7075	0.0052
644.8942	0.0119
645.0809	0.0062
645.2676	0.0075
645.4543	0.0028
645.6409	0.0066
645.8276	0.0023
646.0142	0.006
646.2008	0.003
646.3874	0.0001
646.574	0.0053
646.7605	-0.0008
646.9471	-0.0133
647.1336	0.0057
647.3201	0.0084
647.5066	-0.005
647.6931	0.0107
647.8795	0.0031
648.0659	0.0049
648.2524	0.0039
648.4388	0.0005
648.6252	0.0025
648.8115	0.0044
648.9979	0.0043
649.1842	0.0011
649.3705	0.0023
649.5568	0.0062
649.7431	0.0067
649.9294	-0.002
650.1156	0.0082
650.3018	-0.0024
650.488	0.0048
650.6742	0.0092
650.8604	0.0099
651.0466	0.0032
651.2327	0.0046
651.4188	0.0009
651.6049	0.0028
651.791	0.0027
651.9771	0.0084
652.1632	0.0047
652.3492	0.0073
652.5352	0.0057
652.7212	0.0039
652.9072	0.0036
653.0932	0.006
653.2791	0.0069
653.465	0.0007
653.651	-0.0011
653.8369	0.0063
654.0227	0.0037
654.2086	0.0044
654.3944	0.0114
654.5803	0.01
654.7661	0.0056
654.9519	0.0036
655.1377	-0.001
655.3234	-0.0002
655.5092	-0.0044
655.6949	-0.0033
655.8806	-0.0006
656.0663	0.0013
656.2519	-0.0035
656.4376	0.0025
656.6232	0.0062
656.8088	0.0031
656.9945	0.009
657.18	0.0029
657.3656	0.0072
657.5511	-0.0008
657.7367	-0.0014
657.9222	0.0043
658.1077	0.0054
658.2932	0.0112
658.4786	-0.012
658.6641	-0.0016
658.8495	-0.0001
659.0349	-0.0016
659.2203	0.0075
659.4057	0.0023
659.591	0.0094
659.7764	0.0073
659.9617	0.0046
660.147	0.0025
660.3323	0.0127
660.5176	0.0152
660.7028	0.0121
660.888	0.0071
661.0733	0.0114
661.2585	0.0044
661.4436	-0.0022
661.6288	-0.003
661.8139	-0.0023
661.9991	0.0038
662.1842	-0.0019
662.3693	0.0055
662.5544	0.0053
662.7394	0.0061
662.9245	-0.0012
663.1095	0.0026
663.2945	0.0084
663.4795	0.0007
663.6644	0.0045
663.8494	0.0052
664.0343	0.0041
664.2193	0.0004
664.4042	0.0022
664.589	0.0008
664.7739	0.002
664.9587	-0.0077
665.1436	-0.0019
665.3284	0.0051
665.5132	-0.0013
665.698	0.0052
665.8827	0.002
666.0675	0.0024
666.2522	0.0011
666.4369	0.009
666.6216	0.0061
666.8063	-0.0003
666.9909	0.0028
667.1756	-0.0011
667.3602	0.0024
667.5448	0.0007
667.7294	0.0101
667.9139	0.003
668.0985	0.0194
668.283	0.008
668.4675	0.0097
668.652	0.0074
668.8365	0.0064
669.0209	0.016
669.2054	0.0167
669.3898	0.0079
669.5742	0.0074
669.7586	0.0089
669.943	0.0153
670.1273	0.0066
670.3117	0.0158
670.496	0.011
670.6803	0.0135
670.8646	0.0061
671.0488	-0.0003
671.2331	0.0053
671.4173	0.0069
671.6015	0.005
671.7857	0.0034
671.9699	0.0112
672.1541	0.004
672.3382	0.0089
672.5223	0.0109
672.7064	0.0054
672.8905	0.0116
673.0746	-0.0016
673.2587	-0.0044
673.4427	0.0061
673.6267	0.0089
673.8107	0.0076
673.9947	0.0072
674.1787	0.0088
674.3626	0.0012
674.5465	0.0098
674.7304	0.0065
674.9143	0.0081
675.0982	0.013
675.2821	-0.0057
675.4659	0.0097
675.6497	0.0059
675.8335	0.0084
676.0173	0.0038
676.2011	0.0106
676.3849	0.0085
676.5686	-0.0013
676.7523	0.0083
676.936	0.0033
677.1197	0.0046
677.3034	0.001
677.487	0.0035
677.6706	0.0062
677.8542	0.0057
678.0378	0.0009
678.2214	0.0031
678.405	0.0053
678.5885	-0.0021
678.772	0.0071
678.9555	-0.0036
679.139	-0.0014
679.3225	0.0036
679.5059	0.0032
679.6894	-0.0016
679.8728	0.0007
680.0562	-0.0068
680.2395	0.0032
680.4229	-0.004
680.6062	0.0061
680.7896	-0.0032
680.9729	-0.0035
681.1562	0.0007
681.3394	0.0015
681.5227	0.0027
681.7059	0.0033
681.8891	0.0041
682.0723	0.0061
682.2555	0.0058
682.4387	0.0021
682.6218	-0.0035
682.805	0.0032
682.9881	0.0061
683.1712	0.002
683.3542	0.0022
683.5373	0.0068
683.7203	-0.0025
683.9034	-0.0018
684.0864	-0.0077
684.2694	-0.0005
684.4523	0.0089
684.6353	-0.0059
684.8182	0.0051
685.0011	-0.0019
685.184	0.0107
685.3669	0.0001
685.5498	0.0068
685.7326	0.0019
685.9154	-0.0007
686.0982	0.0107
686.281	0.0056
686.4638	0.0028
686.6465	-0.0015
686.8293	-0.0041
687.012	-0.0005
687.1947	-0.0079
687.3774	0.0081
687.56	0.0002
687.7427	0.0115
687.9253	-0.0046
688.1079	0.0013
688.2905	-0.0011
688.4731	0.0069
688.6556	0.0043
688.8382	0.0046
689.0207	0.0076
689.2032	-0.0054
689.3857	-0.0059
689.5681	0.002
689.7506	-0.0056
689.933	-0.0081
690.1154	-0.0113
690.2978	0.0043
690.4802	-0.0069
690.6626	-0.0124
690.8449	-0.0021
691.0272	0.0066
691.2095	-0.006
691.3918	-0.0018
691.5741	0.0001
691.7563	0.0016
691.9386	0.0025
692.1208	0.0051
692.303	-0.0003
692.4852	0.0049
692.6673	0.0061
692.8495	0.0036
693.0316	0.0064
693.2137	0.0006
693.3958	0.0051
693.5778	0.0068
693.7599	-0.0033
693.9419	0.0028
694.1239	0.0041
694.3059	-0.0001
694.4879	0.005
694.6699	0.0057
694.8518	0.0022
695.0337	0.001
695.2157	0.0107
695.3975	0.0039
695.5794	0.0064
695.7613	0.0041
695.9431	0.0056
696.1249	0.0064
696.3067	0.0079
696.4885	0.014
696.6703	-0.0007
696.852	0.012
697.0337	-0.0036
697.2154	0.0022
697.3971	0.0027
697.5788	0.0058
697.7605	0.0048
697.9421	0.0124
698.1237	0.0096
698.3053	0.0042
698.4869	0.0012
698.6685	-0.005
698.85	0.0032
699.0315	0.0048
699.213	0.0073
699.3945	0.0072
699.576	0.0088
699.7575	0.0175
699.9389	0.0127
700.1203	0.0111
700.3017	-0.002
700.4831	0.002
700.6645	0.0028
700.8458	0.0138
701.0271	0.0015
701.2084	0.009
701.3897	0.0026
701.571	0.0109
701.7523	-0.0087
701.9335	0.0001
702.1147	0.0016
702.2959	0.0057
702.4771	-0.0013
702.6583	-0.0006
702.8394	-0.0066
703.0205	-0.0023
703.2016	-0.0023
703.3827	0.0013
703.5638	0.0028
703.7449	0.0005
703.9259	0.0122
704.1069	0.0003
704.2879	0.0105
704.4689	0.0086
704.6499	0.0015
704.8308	0.0048
705.0117	0.0073
705.1927	0.0143
705.3735	0.0014
705.5544	0.001
705.7353	-0.0007
705.9161	0.0015
706.0969	-0.0049
706.2777	0.0066
706.4585	-0.0056
706.6393	0.0042
706.82	-0.0037
707.0007	0.0033
707.1815	-0.0061
707.3621	0.0075
707.5428	-0.0005
707.7235	0.0023
707.9041	0.001
708.0847	-0.004
708.2653	-0.0134
708.4459	-0.0101
708.6265	-0.0012
708.807	-0.0024
708.9875	-0.0027
709.168	-0.012
709.3485	-0.0151
709.529	-0.0034
709.7095	-0.0187
709.8899	-0.0055
710.0703	-0.011
710.2507	0.0044
710.4311	0.0022
710.6115	-0.0115
710.7918	-0.0087
710.9721	0.0046
711.1524	-0.0005
711.3327	0.0087
711.513	0.0004
711.6932	-0.0024
711.8735	0.0064
712.0537	0.0082
712.2339	-0.0008
712.4141	-0.0049
712.5942	-0.0002
712.7744	0.0027
712.9545	-0.0075
713.1346	-0.0046
713.3147	0.0014
713.4947	-0.0021
713.6748	-0.0011
713.8548	-0.0054
714.0348	-0.0005
714.2148	0.0022
714.3948	0.0084
714.5748	-0.0037
714.7547	0.0022
714.9346	0.0037
715.1145	0.0023
715.2944	0.0056
715.4743	0.0008
715.6541	0.0029
715.834	0.0043
716.0138	-0.0039
716.1936	-0.0131
716.3733	-0.0055
716.5531	0.0052
716.7328	-0.0042
716.9126	-0.0065
717.0923	0.0022
717.2719	0.0006
717.4516	-0.0046
717.6312	0.0043
717.8109	0.0012
717.9905	0.0074
718.1701	0.0011
718.3496	-0.0061
718.5292	-0.004
718.7087	0.003
718.8882	-0.0022
719.0677	-0.0002
719.2472	0.0063
719.4267	0.0006
719.6061	0.0005
719.7856	0.0017
719.965	0.0071
720.1443	0.0032
720.3237	0.0106
720.5031	0.0037
720.6824	0.0143
720.8617	0.0011
721.041	0.0016
721.2203	0.0089
721.3995	0.0077
721.5788	0.0005
721.758	0.0096
721.9372	0.0008
722.1164	0.0056
722.2956	0.0117
722.4747	0.0067
722.6538	-0.0006
722.8329	0.0106
723.012	0.0009
723.1911	-0.0023
723.3702	0.0026
723.5492	0.0045
723.7282	-0.0008
723.9072	0.0057
724.0862	0.0008
724.2652	-0.0004
724.4441	0.0034
724.623	-0.0017
724.8019	-0.0097
724.9808	0.0022
725.1597	-0.0119
725.3385	0.0039
725.5174	0.0063
725.6962	-0.0023
725.875	-0.0063
726.0538	0.0062
726.2325	-0.0032
726.4112	-0.0009
726.59	-0.0009
726.7687	-0.0038
726.9474	0.0029
727.126	-0.002
727.3047	-0.0145
727.4833	0.0058
727.6619	-0.0044
727.8405	-0.0048
728.0191	0.0016
728.1976	0.0018
728.3762	-0.0011
728.5547	0.0067
728.7332	-0.0064
728.9116	0.0038
729.0901	-0.0012
729.2686	-0.0123
729.447	0.013
729.6254	0.0028
729.8038	0.0027
729.9821	-0.0032
730.1605	0.0032
730.3388	0.0107
730.5171	0.0108
730.6954	0.0024
730.8737	0.0108
731.0519	0.007
731.2302	0.0032
731.4084	0.0178
731.5866	0.0113
731.7648	0.0047
731.9429	0.0128
732.1211	-0.0062
732.2992	-0.0013
732.4773	0.0016
732.6554	-0.0041
732.8335	-0.0036
733.0115	0.0068
733.1896	0.004
733.3676	-0.0115
733.5456	0.0028
733.7235	0.0038
733.9015	-0.0081
734.0794	-0.0021
734.2574	-0
734.4353	-0.0007
734.6131	0.0089
734.791	0.0036
734.9689	0.0069
735.1467	0.0079
735.3245	-0.0032
735.5023	0.0034
735.68	0.0074
735.8578	0.0163
736.0355	-0.0218
736.2132	-0.0005
736.3909	-0.0033
736.5686	-0.0045
736.7463	0.0088
736.9239	-0.0004
737.1015	0.0019
737.2791	0.0058
737.4567	0.0022
737.6343	-0.0125
737.8118	0.0026
737.9894	0.0074
738.1669	-0.0029
738.3444	0.0015
738.5218	0.0053
738.6993	-0.004
738.8767	0.0056
739.0541	0.0075
739.2315	-0.0076
739.4089	0.0062
739.5863	0.0039
739.7636	-0.0039
739.9409	0.0029
740.1182	0.0092
740.2955	0.0023
740.4728	0.0032
740.65	0.0018
740.8272	0.0005
741.0044	-0.0127
741.1816	0.0033
741.3588	-0.0077
741.5359	0.0026
741.7131	-0.0116
741.8902	0.0047
742.0673	0.0021
742.2444	-0.0081
742.4214	-0.0053
742.5985	0
742.7755	0.0018
742.9525	-0.0204
743.1295	-0.0039
743.3064	-0.0002
743.4834	0.0137
743.6603	-0.0031
743.8372	0.0018
744.0141	0.0161
744.191	0.005
744.3678	0.0068
744.5446	0.0038
744.7215	0.0121
744.8982	-0.0013
745.075	-0.001
745.2518	0.0088
745.4285	0.0007
745.6052	0.0049
745.7819	-0.0047
745.9586	-0.011
746.1353	0.0041
746.3119	-0.0069
746.4885	-0.0053
746.6651	-0.0064
746.8417	-0.0081
747.0183	-0.0004
747.1948	-0.0011
747.3714	0.0064
747.5479	0.0108
747.7244	0.004
747.9008	0.0141
748.0773	-0.0056
748.2537	0.0054
748.4301	0.0032
748.6065	0.0078
748.7829	0.0045
748.9593	-0.0045
749.1356	0.0006
749.3119	0.011
749.4882	-0.0101
749.6645	0.0083
749.8408	-0.0064
750.017	-0.0016
750.1933	-0.001
750.3695	-0.0093
750.5457	0.0095
750.7218	-0.0012
750.898	0.0166
751.0741	0.0013
751.2502	0.0005
751.4263	-0.0015
751.6024	0.0093
751.7784	0.002
751.9545	-0.0069
752.1305	-0.0042
752.3065	-0.0072
752.4825	0.0079
752.6584	-0.0001
752.8344	0.0016
753.0103	-0.002
753.1862	-0.0049
753.3621	0.0031
753.5379	-0.0113
753.7138	0.0042
753.8896	0.0048
754.0654	0.001
754.2412	0.0156
754.417	0.0039
754.5927	-0.0008
754.7685	0.0015
754.9442	-0.0038
755.1199	0.0166
755.2956	-0.0004
755.4712	0.0138
755.6469	0.0093
755.8225	-0.0043
755.9981	0.0045
756.1736	0.0113
756.3492	-0
756.5248	0.0041
756.7003	0.0075
756.8758	0.0209
757.0513	-0.0056
757.2267	0.0074
757.4022	0.0117
757.5776	-0.0049
757.753	0.013
757.9284	0.002
758.1038	0.0076
758.2791	0.0119
758.4545	0.0024
758.6298	0.005
758.8051	0.0013
758.9803	0.007
759.1556	-0.0074
759.3308	-0.0007
759.506	0.0123
759.6812	-0.0006
759.8564	0.0101
760.0316	0.0021
760.2067	0.011
760.3819	0.0159
760.557	0.0252
760.732	0.0155
760.9071	-0.0038
761.0821	0.0099
761.2572	0.0157
761.4322	-0.0017
761.6072	0.0023
761.7821	-0.0038
761.9571	0.0111
762.132	0.0048
762.3069	-0.002
762.4818	0.0011
762.6567	-0.0002
762.8316	0.0023
763.0064	-0.0047
763.1812	0.0028
763.356	-0.0109
763.5308	-0.0057
763.7055	0.0008
763.8803	0.0042
764.055	-0.0087
764.2297	-0.0008
764.4044	-0.0023
764.579	-0.0039
764.7537	-0.0115
764.9283	0.0022
765.1029	-0.0029
765.2775	0.0029
765.4521	-0.0099
765.6266	-0.0075
765.8011	-0.0076
765.9756	-0.0033
766.1501	-0.003
766.3246	0.0047
766.4991	0.0026
766.6735	0.0159
766.8479	-0.0011
767.0223	0.02
767.1967	0.0075
767.371	0.0012
767.5454	-0.0098
767.7197	0.0107
767.894	-0.0009
768.0683	-0.0083
768.2425	0.0002
768.4168	0.0008
768.591	0.0059
768.7652	0.0097
768.9394	0.0098
769.1135	0.0054
769.2877	0.0068
769.4618	0.0014
769.6359	-0.0077
769.81	0.0069
769.984	0.0001
770.1581	-0.008
770.3321	0.0103
770.5061	-0.0067
770.6801	-0.0058
770.8541	0.0045
771.028	0.0079
771.202	-0.0169
771.3759	-0.002
771.5498	-0.0016
771.7236	-0.0018
771.8975	0.0069
772.0713	0.009
772.2451	0.0031
772.4189	0.006
772.5927	0.0066
772.7665	-0.0054
772.9402	-0.0027
773.1139	0.0065
773.2876	0.0029
773.4613	-0.0001
773.635	0.0138
773.8086	-0.0044
773.9822	-0.0022
774.1558	0.0156
774.3294	-0.0055
774.503	0.0009
774.6765	0.0134
774.8501	0.0067
775.0236	0.0136
775.1971	0.0167
775.3705	-0.0023
775.544	0.0089
775.7174	0.0016
775.8908	0.0069
776.0642	-0.0041
776.2376	0.0046
776.4109	0.0011
776.5843	0.0025
776.7576	0.0028
776.9309	0.0078
777.1041	0.0058
777.2774	0.0087
777.4506	0.0026
777.6238	0.0022
777.797	0.0055
777.9702	0.008
778.1434	0.0008
778.3165	-0.0171
778.4896	-0.0013
778.6627	0.0123
778.8358	0.0013
779.0089	-0.0001
779.1819	-0.0038
779.3549	0.0135
779.5279	0.0113
779.7009	0.001
779.8739	0.0047
780.0468	0.0022
780.2197	-0.001
780.3926	0.0063
780.5655	0.0034
780.7384	-0.002
780.9112	0.012
781.0841	0.0034
781.2569	0.0022
781.4297	0.0137
781.6024	0.0116
781.7752	0.0077
781.9479	0.0083
782.1206	0.0137
782.2933	-0.016
782.466	0.0085
782.6386	-0.0015
782.8113	-0.0018
782.9839	0.0027
783.1565	0.0167
783.329	0.0062
783.5016	0.0037
783.6741	-0.0021
783.8466	-0.0116
784.0191	0.0051
784.1916	0.0029
784.3641	0.0003
784.5365	0.0011
784.7089	-0.004
784.8813	-0.0096
785.0537	0.0067
785.2261	-0.0122
785.3984	-0.0247
785.5707	0.0046
785.743	0.0092
785.9153	-0.012
786.0876	0.0002
786.2598	-0.0057
786.432	-0.0091
786.6042	0.0059
786.7764	-0.0082
786.9486	-0.0002
787.1207	0.0048
787.2928	0.0107
787.4649	-0.0037
787.637	0.0083
787.8091	0.0013
787.9811	-0.0042
788.1532	-0.0002
788.3252	0.0158
788.4972	-0.0107
788.6691	0.0108
788.8411	0.0025
789.013	-0.0078
789.1849	0.0142
789.3568	-0.002
789.5287	0.0026
789.7005	-0.0002
789.8723	-0.0008
790.0442	0.0082
790.2159	0.0051
790.3877	-0.0028
790.5595	-0.0122
790.7312	0.0103
790.9029	-0.0041
791.0746	-0.0113
791.2463	-0.0066
791.4179	0.001
791.5896	-0.0153
791.7612	0.0055
791.9328	-0.0062
792.1044	-0.0089
792.2759	-0.0232
792.4474	0.0025
792.619	-0.0059
792.7905	0.0057
792.9619	0.0007
793.1334	0.0212
793.3048	0.0236
793.4762	-0.0058
793.6476	0.0013
793.819	-0.0031
793.9904	0.0128
794.1617	-0.0081
794.333	-0.0059
794.5043	-0.0066
794.6756	-0.0012
794.8469	-0.0074
795.0181	-0.0097
795.1893	-0.0106
795.3605	-0.0071
795.5317	-0.021
795.7029	0.0051
795.874	-0.0064
796.0452	0.006
796.2163	0.0057
796.3873	0.0203
796.5584	-0.0047
796.7294	-0.0065
796.9005	0.0155
797.0715	-0.0031
797.2425	-0.0344
797.4134	0.0083
797.5844	0.0114
797.7553	0.0016
797.9262	0.0212
798.0971	-0.022
798.2679	-0.0137
798.4388	-0.0157
798.6096	0.0062
798.7804	0.0096
798.9512	0.0006
799.122	-0.0106
799.2927	0.0269
799.4635	0.0214
799.6342	-0.0056
799.8049	0.002
799.9755	0.0147
800.1462	0.0008
800.3168	0.0148
800.4874	0.0014
800.658	0.0333
800.8286	0.0014
800.9991	0.0174
801.1696	0.0107
801.3402	0.0094
801.5106	0.0106
801.6811	0.0085
801.8516	0.026
802.022	0.004
802.1924	0.0067
802.3628	0.0196
802.5332	0.006
802.7035	0.0298
802.8739	0.0028
803.0442	-0.0156
803.2145	0.0162
803.3847	-0.0068
803.555	0.0108
803.7252	-0.0063
803.8954	-0.0054
804.0656	-0.0019
804.2358	0.004
804.4059	0.0161
804.5761	0.0105
804.7462	0.0029
804.9163	-0.0014
805.0864	-0.006
805.2564	0.0187
805.4264	0.0144
805.5965	-0.014
805.7665	-0.0097
805.9364	0.0105
806.1064	0.0246
806.2763	0.0005
806.4462	0.0279
806.6161	0.0042
806.786	0.0145
806.9559	-0.0064
807.1257	-0.0006
807.2955	0.0028
807.4653	-0.004
807.6351	0.0008
807.8048	0.0017
807.9746	0.007
808.1443	0.0198
808.314	0.0018
808.4837	0.0162
808.6533	0.0102
808.8229	0.0248
808.9926	0.0214
809.1622	0.0027
809.3317	0.0058
809.5013	0.0094
809.6708	0.0288
809.8403	0.0016
810.0098	0.0031
810.1793	0.0129
810.3488	0.0074
810.5182	0.004
810.6876	0.0054
810.857	-0.0202
811.0264	0.0342
811.1958	0.0107
811.3651	-0.0082
811.5344	0.003
811.7037	-0.0156
811.873	-0.0077
812.0422	0.007
812.2115	0.0099
812.3807	-0.0238
812.5499	0.0149
812.7191	0.0096
812.8882	-0.0041
813.0574	-0.0162
813.2265	0.0025
813.3956	0.0069
813.5646	-0.0175
813.7337	-0.0037
813.9027	0.0066
814.0718	0.0226
814.2407	0.0079
814.4097	-0.0035
814.5787	-0.0094
814.7476	0.0098
814.9165	0.0097
815.0854	-0.0144
815.2543	0.0088
815.4232	-0.0106
815.592	0.0074
815.7608	0.001
815.9296	-0.002
816.0984	-0.0077
816.2671	0.0025
816.4359	0.0102
816.6046	0.019
816.7733	-0.0054
816.942	-0.022
817.1106	0.0274
817.2793	-0.0144
817.4479	0.0125
817.6165	0.0296
817.785	0.0084
817.9536	-0.007
818.1221	-0.0079
818.2906	-0.0012
818.4591	-0.0131
818.6276	-0.0135
818.7961	0.0011
818.9645	0.015
819.1329	0.0577
819.3013	0.0184
819.4697	0.0377
819.638	-0.0255
819.8064	-0.0046
819.9747	-0.0064
820.143	-0.0063
820.3113	-0.0028
820.4795	-0.002
820.6477	0.0095
820.816	0.0198
820.9842	0.0107
821.1523	0.0103
821.3205	0.012
821.4886	0.0115
821.6567	0.0124
821.8248	0.0106
821.9929	0.0008
822.1609	0.0081
822.329	0.0199
822.497	0.0295
822.665	0.0175
822.833	0.0163
823.0009	0.0085
823.1688	0.0349
823.3367	0.0323
823.5046	0.029
823.6725	0.0377
823.8404	0.0061
824.0082	0.0454
824.176	0.024
824.3438	0.0176
824.5116	-0.011
824.6793	-0.0052
824.847	-0.0019
825.0147	0.0096
825.1824	0.0343
825.3501	0.0025
825.5177	-0.0073
825.6854	-0.0122
825.853	0.0211
826.0206	-0.0091
826.1881	0.004
826.3557	-0.0265
826.5232	0.0256
826.6907	-0.0214
826.8582	0.0234
827.0257	-0.0276
827.1931	0.02
827.3605	-0.0101
827.528	0.0039
827.6953	-0.0333
827.8627	-0.0059
828.03	0.0266
828.1974	-0.0078
828.3647	-0.013
828.532	0.0256
828.6992	-0.0023
828.8665	-0.0107
829.0337	-0.0334
829.2009	0.0275
829.3681	-0.0034
829.5352	0.0257
829.7024	0.0183
829.8695	-0.0163
830.0366	0.052
830.2037	0.012
830.3707	0.0266
830.5378	-0.0166
830.7048	-0.0058
830.8718	-0.0106
831.0388	0.0019
831.2057	0.0254
831.3727	0.0107
831.5396	-0.0132
831.7065	-0.0211
831.8734	-0.0136
832.0402	-0.0213
832.2071	0.0186
832.3739	-0.0093
832.5407	0.0008
832.7075	-0.0247
832.8742	-0.0237
833.041	-0.0453
833.2077	-0.0022
833.3744	0.0134
833.541	-0.0076
833.7077	-0.0217
833.8743	0.0042
834.0409	0.0039
834.2075	0.0124
834.3741	-0.0059
834.5407	-0.0123
834.7072	0.0151
834.8737	-0.0336
835.0402	0.0338
835.2067	0.0539
835.3731	0.0219
835.5395	0.0307
835.706	-0.0094
835.8723	0.0164
836.0387	0.007
836.2051	-0.0025
836.3714	0.022
836.5377	0.0142
836.704	-0.0186
836.8703	-0.023
837.0365	-0.0239
837.2027	0.018
837.3689	0.0387
837.5351	0.0093
837.7013	-0.0039
837.8674	-0.0227
838.0335	0.0107
838.1997	0.0052
838.3657	-0.0433
838.5318	0.0189
838.6978	-0.0026
838.8639	0.0278
839.0299	-0.0108
839.1958	-0.0044
839.3618	-0.0031
839.5277	-0.0014
839.6937	0.0103
839.8596	0.0141
840.0254	-0.0246
840.1913	0.0223
840.3571	0.0065
840.523	-0.0414
840.6888	-0.0199
840.8545	-0.0035
841.0203	-0.0023
841.186	-0.0182
841.3517	0.0357
841.5174	0.0118
841.6831	0.0118
841.8488	0.0272
842.0144	0.0012
842.18	-0.033
842.3456	0.0175
842.5112	-0.0422
842.6767	-0.0132
842.8422	-0.0144
843.0077	-0.0352
843.1732	-0.0167
843.3387	-0.0196
843.5042	-0.0492
843.6696	0.024
843.835	0.0248
844.0004	0.0162
844.1657	0.0413
844.3311	-0.0248
844.4964	-0.1173
844.6617	-0.0349
844.827	-0.0438
844.9923	-0.0064
845.1575	0.0224
845.3227	-0.0019
845.4879	0.006
845.6531	-0.0356
845.8183	-0.0866
845.9834	0.0275
846.1485	-0.0301
846.3136	0.0043
846.4787	-0.0841
846.6438	0.0199
846.8088	-0.0312
846.9738	-0.0838
847.1388	-0.0412
847.3038	-0.0144
847.4687	-0.0576
847.6337	0.0661
847.7986	0.1189
847.9635	-0.0362
848.1284	-0.009
848.2932	0.125
848.458	-0.0259
848.6228	0.0844
848.7876	0.1139
848.9524	-0.1005
849.1172	-0.095
849.2819	0.0205
849.4466	-0.0406
849.6113	-0.0485
849.7759	-0.0745
849.9406	0.0253
850.1052	0.0961
850.2698	-0.0836
850.4344	0.1173
850.599	-0.0324
850.7635	0.0481
850.928	0.0199
851.0925	-0.0218
851.257	0.0454
851.4215	0.0655
851.5859	0.0619
851.7503	0.013
851.9147	-0.0373
852.0791	-0.004
852.2434	-0.0461
852.4078	0.0946
852.5721	0.0306
852.7364	0.0302
852.9007	-0.1191
853.0649	-0.0598
853.2291	0.04
853.3934	-0.0283
853.5575	0.0691
853.7217	0.0208
853.8859	-0.1006
854.05	-0.1148
854.2141	0.0087
854.3782	-0.1429
854.5423	-0.1069
854.7063	0.1033
854.8703	-0.0233
855.0343	-0.0819
855.1983	-0.1868
855.3623	0.0241
855.5262	0.1745
855.6901	-0.0275
855.854	-0.0034
856.0179	-0.0102
856.1818	0.1532
856.3456	-0.0252
856.5094	-0.066
856.6732	-0.083
856.837	0.0769
857.0008	0.1167
857.1645	-0.0559
857.3282	0.013
857.4919	0.0816
857.6556	-0.0562
857.8192	0.0425
857.9828	-0.0423
858.1465	0.133
858.31	0.0636
858.4736	0.0927
858.6372	-0.1284
858.8007	-0.3098
858.9642	0.2316
859.1277	0.4752
859.2911	0.1688
859.4546	0.1918
859.618	-0.3294
859.7814	-0.0615
859.9448	-0.0072
860.1081	-0.114
860.2715	0.1217
860.4348	0.1989
860.5981	0.0412
860.7614	0.3523
860.9246	0.0979
861.0879	-0.1449
861.2511	0.1418
861.4143	-0.2822
861.5774	0.0659
861.7406	-0.1211
861.9037	-0.0332
862.0668	-0.0989
862.2299	-0.1492
862.393	-0.3973
862.556	0.1154
862.7191	-0.1274
862.8821	-0.308
863.0451	-0
863.208	0.1993
863.371	-0.0412
863.5339	-0
863.6968	-0.071
863.8597	0.4104
864.0225	-0.0486
864.1854	-0.006
864.3482	0.1811
864.511	0.3854
864.6737	0.2786
864.8365	0.4256
864.9992	-0.4628
865.1619	-0.0841
865.3246	0.3083
865.4873	-0.0033
865.65	0.457
865.8126	0.1414
865.9752	-0.0089
866.1378	-0.1122
866.3004	0.2675
866.4629	0.0925
866.6254	-0.1244
866.7879	-0.0064
866.9504	-0
867.1129	-0
867.2753	0.1138
867.4377	0.0516
867.6001	-0.2635
867.7625	0.6852
867.9249	-0.8721
868.0872	-0
868.2495	0.2165
868.4118	-0
868.5741	0.0504
868.7363	-0.2497
868.8986	-0.3517
869.0608	-0.1246
869.223	0.5453
869.3851	-0
869.5473	-0
869.7094	0.3461
869.8715	-0.2336
870.0336	-0.699
870.1957	-0.2902
870.3577	-0.8562
870.5197	-0.1851
870.6817	-0.3973
870.8437	-0.1094
871.0057	0.0527
871.1676	-0.37
871.3295	-0.3299
871.4914	-0
871.6533	-0.596
871.8151	-0.1499
871.977	0.7506
872.1388	-0
872.3006	0.1012
872.4623	-0
872.6241	0.2968
872.7858	0.4726
872.9475	0.0178
873.1092	0.1546
873.2709	-0.162
873.4325	-0.3975
873.5941	0.2133
873.7557	-0.333
873.9173	-0.1912
874.0789	-0.1233
874.2404	-0
874.4019	-0.0027
874.5634	-0.3105
874.7249	0.2786
874.8863	-0.1132
875.0478	0.3933
875.2092	-0
875.3706	0.1157
875.5319	-0.3599
875.6933	-0.2343
875.8546	-0.076
876.0159	0.0888
876.1772	0.3086
876.3385	-0
876.4997	0.002
876.6609	-0.5394
876.8221	0.5342
876.9833	-0
877.1445	-0
877.3056	0.002
877.4667	-0.24
877.6278	0.4612
877.7889	-0.7688
877.9499	-0
878.111	-0.3951
878.272	-0
878.433	-0
878.5939	-0.0693
878.7549	0.029
878.9158	-0.7155
879.0767	-0
879.2376	-0
879.3984	0.8734
879.5593	-0
879.7201	-0.0309
879.8809	-0.7074
880.0417	-0.4509
880.2024	0.4052
880.3632	-0.7373
880.5239	-0
880.6846	-0
880.8452	-0
881.0059	-1.0864
881.1665	-0
881.3271	-0.2795
881.4877	-0.5591
881.6483	-0.2756
881.8088	-0.5184
881.9693	-0.0054
882.1298	-0.0054
882.2903	-0.0054
