Data from D4ACN5uM480nmA_Absorbance_12-08-00-299.txt Node
Date: Fri Feb 21 12:08:00 GMT 2025
User: LASERRRRR
Spectrometer: FLMT03099
Trigger mode: 0
Integration Time (sec): 1.500000E-2
Scans to average: 1
Electric dark correction enabled: true
Nonlinearity correction enabled: false
Boxcar width: 0
XAxis mode: Wavelengths
Number of Pixels in Spectrum: 3648
>>>>>Begin Spectral Data<<<<<
179.3399	-0.0983
179.5586	-0.0983
179.7771	-0.0983
179.9957	0.0247
180.2143	-0.4068
180.4329	0.1659
180.6514	-0
180.8699	-0.2436
181.0885	-0
181.307	0.2971
181.5255	-0.0279
181.744	0.1487
181.9625	-0.2833
182.181	-0
182.3994	-0
182.6179	-0.7414
182.8363	-0.1625
183.0547	-0
183.2732	0.1858
183.4916	0.1703
183.71	0.0615
183.9284	0.1315
184.1467	-0.0612
184.3651	0.1954
184.5835	0.0869
184.8018	0.157
185.0201	0.2014
185.2385	-0.1005
185.4568	0.074
185.6751	0.1666
185.8934	0.184
186.1117	0.1756
186.3299	0.1788
186.5482	0.1208
186.7664	0.079
186.9847	0.1324
187.2029	0.1423
187.4211	0.294
187.6393	0.1744
187.8575	0.1401
188.0757	0.4825
188.2939	0.1453
188.512	0.3839
188.7302	-0.0196
188.9483	1.3577
189.1665	0.6232
189.3846	-0.1098
189.6027	0.1921
189.8208	0.1551
190.0389	0.2504
190.257	0.2478
190.475	0.0582
190.6931	0.5174
190.9111	0.5301
191.1292	0.1758
191.3472	0.3526
191.5652	0.9437
191.7832	0.4353
192.0012	0.3364
192.2192	0.1984
192.4371	0.2124
192.6551	0.2183
192.873	0.1922
193.091	0.3746
193.3089	0.0936
193.5268	0.4966
193.7447	0.397
193.9626	0.5774
194.1805	0.3248
194.3984	0.4968
194.6162	0.4807
194.8341	0.478
195.0519	0.4475
195.2697	0.5768
195.4875	0.6975
195.7054	0.4238
195.9231	0.4095
196.1409	0.5943
196.3587	0.4739
196.5765	0.4219
196.7942	0.6309
197.012	0.5676
197.2297	0.5267
197.4474	0.687
197.6651	0.5107
197.8828	0.6456
198.1005	0.5197
198.3182	0.5355
198.5358	0.5071
198.7535	0.6177
198.9711	0.7028
199.1888	0.6392
199.4064	0.5332
199.624	0.6773
199.8416	0.458
200.0592	0.5258
200.2767	0.5539
200.4943	0.579
200.7119	0.5797
200.9294	0.5996
201.1469	0.6485
201.3645	0.5753
201.582	0.5413
201.7995	0.5986
202.017	0.5993
202.2344	0.5456
202.4519	0.5548
202.6694	0.5703
202.8868	0.589
203.1042	0.5293
203.3217	0.492
203.5391	0.4985
203.7565	0.5167
203.9739	0.5006
204.1913	0.5676
204.4086	0.5136
204.626	0.5628
204.8433	0.4728
205.0607	0.4493
205.278	0.4884
205.4953	0.4693
205.7126	0.4956
205.9299	0.4345
206.1472	0.5101
206.3644	0.4645
206.5817	0.4767
206.7989	0.4699
207.0162	0.3694
207.2334	0.4565
207.4506	0.4407
207.6678	0.4089
207.885	0.4294
208.1022	0.4348
208.3194	0.402
208.5365	0.4819
208.7537	0.432
208.9708	0.4416
209.1879	0.4289
209.405	0.4377
209.6222	0.4058
209.8392	0.4439
210.0563	0.4157
210.2734	0.4123
210.4905	0.4182
210.7075	0.4212
210.9245	0.4018
211.1416	0.4012
211.3586	0.4063
211.5756	0.4132
211.7926	0.4265
212.0096	0.3888
212.2265	0.4016
212.4435	0.4154
212.6604	0.399
212.8774	0.4181
213.0943	0.4426
213.3112	0.4063
213.5281	0.4076
213.745	0.4197
213.9619	0.3824
214.1788	0.3969
214.3956	0.4297
214.6125	0.3883
214.8293	0.4196
215.0461	0.4318
215.2629	0.4085
215.4798	0.3947
215.6965	0.3715
215.9133	0.4101
216.1301	0.4025
216.3469	0.4121
216.5636	0.4046
216.7803	0.4345
216.9971	0.4448
217.2138	0.4176
217.4305	0.4149
217.6472	0.4451
217.8639	0.4156
218.0805	0.422
218.2972	0.4173
218.5138	0.4381
218.7305	0.4253
218.9471	0.4223
219.1637	0.4242
219.3803	0.4324
219.5969	0.4175
219.8135	0.4176
220.0301	0.4112
220.2466	0.4346
220.4632	0.4013
220.6797	0.4255
220.8962	0.4287
221.1127	0.4373
221.3292	0.4464
221.5457	0.4324
221.7622	0.4195
221.9787	0.4368
222.1951	0.4328
222.4116	0.424
222.628	0.4554
222.8444	0.453
223.0608	0.453
223.2772	0.4352
223.4936	0.4511
223.71	0.4563
223.9264	0.4584
224.1427	0.4465
224.3591	0.4613
224.5754	0.4513
224.7917	0.4652
225.008	0.4523
225.2243	0.464
225.4406	0.4657
225.6569	0.4657
225.8732	0.4585
226.0894	0.4821
226.3057	0.4572
226.5219	0.4627
226.7381	0.4685
226.9543	0.4698
227.1705	0.4743
227.3867	0.4857
227.6029	0.4748
227.8191	0.4797
228.0352	0.504
228.2513	0.4987
228.4675	0.4992
228.6836	0.4915
228.8997	0.4919
229.1158	0.4856
229.3319	0.5019
229.548	0.4927
229.764	0.5078
229.9801	0.52
230.1961	0.5129
230.4121	0.5063
230.6282	0.5091
230.8442	0.5214
231.0602	0.5132
231.2761	0.5114
231.4921	0.5059
231.7081	0.5121
231.924	0.5133
232.14	0.5244
232.3559	0.5381
232.5718	0.5283
232.7877	0.5207
233.0036	0.5143
233.2195	0.5314
233.4353	0.5409
233.6512	0.5305
233.867	0.5328
234.0829	0.5317
234.2987	0.5235
234.5145	0.5344
234.7303	0.5335
234.9461	0.529
235.1619	0.5328
235.3776	0.5279
235.5934	0.5197
235.8091	0.5196
236.0249	0.5407
236.2406	0.5358
236.4563	0.5479
236.672	0.5327
236.8877	0.5431
237.1034	0.5288
237.319	0.5315
237.5347	0.54
237.7503	0.5397
237.966	0.541
238.1816	0.5292
238.3972	0.5453
238.6128	0.5452
238.8284	0.5387
239.0439	0.5427
239.2595	0.5233
239.475	0.5342
239.6906	0.531
239.9061	0.5367
240.1216	0.5368
240.3371	0.5177
240.5526	0.5221
240.7681	0.5218
240.9836	0.5221
241.199	0.5145
241.4145	0.4967
241.6299	0.4842
241.8453	0.4994
242.0607	0.4841
242.2761	0.4881
242.4915	0.47
242.7069	0.4669
242.9223	0.4664
243.1376	0.4432
243.353	0.4412
243.5683	0.4348
243.7836	0.4228
243.9989	0.4243
244.2142	0.4089
244.4295	0.4024
244.6448	0.3997
244.86	0.3814
245.0753	0.383
245.2905	0.3752
245.5057	0.3676
245.721	0.3629
245.9362	0.3471
246.1514	0.339
246.3665	0.3472
246.5817	0.3416
246.7969	0.3298
247.012	0.3245
247.2271	0.3157
247.4423	0.3016
247.6574	0.3125
247.8725	0.2995
248.0876	0.2931
248.3026	0.2779
248.5177	0.2831
248.7328	0.2726
248.9478	0.2782
249.1628	0.2675
249.3779	0.2721
249.5929	0.2644
249.8079	0.2535
250.0228	0.2466
250.2378	0.2556
250.4528	0.247
250.6677	0.249
250.8827	0.2431
251.0976	0.2401
251.3125	0.2374
251.5274	0.2299
251.7423	0.2276
251.9572	0.2159
252.172	0.2193
252.3869	0.2182
252.6017	0.2144
252.8166	0.2178
253.0314	0.2181
253.2462	0.211
253.461	0.2061
253.6758	0.2098
253.8906	0.2095
254.1053	0.2077
254.3201	0.2058
254.5348	0.2026
254.7496	0.2071
254.9643	0.2008
255.179	0.1991
255.3937	0.1998
255.6083	0.2023
255.823	0.1959
256.0377	0.1961
256.2523	0.1977
256.467	0.1969
256.6816	0.1989
256.8962	0.1938
257.1108	0.1951
257.3254	0.1954
257.54	0.1995
257.7545	0.1934
257.9691	0.1935
258.1836	0.1834
258.3981	0.1876
258.6127	0.1826
258.8272	0.1835
259.0417	0.1821
259.2561	0.1894
259.4706	0.1876
259.6851	0.1871
259.8995	0.1836
260.114	0.1832
260.3284	0.1818
260.5428	0.1834
260.7572	0.1896
260.9716	0.1852
261.186	0.1819
261.4003	0.1896
261.6147	0.1859
261.829	0.1808
262.0433	0.1794
262.2577	0.1913
262.472	0.1893
262.6863	0.1837
262.9005	0.1915
263.1148	0.1809
263.3291	0.1874
263.5433	0.1816
263.7576	0.1819
263.9718	0.1911
264.186	0.1862
264.4002	0.1818
264.6144	0.1895
264.8286	0.1943
265.0427	0.1902
265.2569	0.1894
265.471	0.1833
265.6851	0.18
265.8993	0.1868
266.1134	0.1827
266.3275	0.1887
266.5415	0.179
266.7556	0.1842
266.9697	0.1852
267.1837	0.187
267.3978	0.1885
267.6118	0.1827
267.8258	0.1859
268.0398	0.181
268.2538	0.1877
268.4677	0.1863
268.6817	0.1708
268.8957	0.1819
269.1096	0.1815
269.3235	0.1857
269.5374	0.1834
269.7514	0.1834
269.9652	0.1851
270.1791	0.1787
270.393	0.185
270.6068	0.1661
270.8207	0.1764
271.0345	0.1733
271.2483	0.177
271.4622	0.1728
271.676	0.1744
271.8897	0.1723
272.1035	0.1744
272.3173	0.1722
272.531	0.1742
272.7448	0.168
272.9585	0.1775
273.1722	0.1768
273.3859	0.1667
273.5996	0.1751
273.8133	0.1688
274.0269	0.1808
274.2406	0.1725
274.4542	0.1668
274.6679	0.1714
274.8815	0.1726
275.0951	0.1734
275.3087	0.1751
275.5223	0.1705
275.7358	0.1748
275.9494	0.1712
276.1629	0.1747
276.3765	0.1706
276.59	0.1821
276.8035	0.1737
277.017	0.1759
277.2305	0.1767
277.444	0.1708
277.6574	0.1737
277.8709	0.1779
278.0843	0.1753
278.2978	0.1821
278.5112	0.1836
278.7246	0.1846
278.938	0.1774
279.1513	0.18
279.3647	0.1848
279.5781	0.1833
279.7914	0.1852
280.0047	0.1764
280.2181	0.1823
280.4314	0.1864
280.6447	0.1839
280.8579	0.1796
281.0712	0.1814
281.2845	0.1886
281.4977	0.1871
281.711	0.1782
281.9242	0.1816
282.1374	0.1827
282.3506	0.189
282.5638	0.1849
282.7769	0.1777
282.9901	0.1826
283.2033	0.1855
283.4164	0.1825
283.6295	0.182
283.8426	0.1886
284.0557	0.188
284.2688	0.1865
284.4819	0.1911
284.695	0.1942
284.908	0.1921
285.1211	0.1896
285.3341	0.1894
285.5471	0.1959
285.7601	0.1936
285.9731	0.1883
286.1861	0.1946
286.3991	0.1903
286.612	0.1936
286.825	0.1936
287.0379	0.1988
287.2508	0.195
287.4637	0.1959
287.6766	0.1923
287.8895	0.1896
288.1024	0.197
288.3152	0.1972
288.5281	0.1978
288.7409	0.1951
288.9538	0.192
289.1666	0.1962
289.3794	0.1951
289.5922	0.1953
289.8049	0.2001
290.0177	0.1928
290.2304	0.2022
290.4432	0.2035
290.6559	0.1931
290.8686	0.2011
291.0813	0.2022
291.294	0.2068
291.5067	0.2063
291.7194	0.1986
291.932	0.2
292.1447	0.1982
292.3573	0.1976
292.5699	0.2081
292.7825	0.1972
292.9951	0.201
293.2077	0.2046
293.4203	0.2004
293.6328	0.1993
293.8454	0.1981
294.0579	0.1983
294.2704	0.204
294.4829	0.1996
294.6954	0.201
294.9079	0.1978
295.1204	0.1918
295.3328	0.204
295.5453	0.1975
295.7577	0.196
295.9701	0.2
296.1825	0.1956
296.3949	0.2016
296.6073	0.2016
296.8197	0.2023
297.0321	0.1992
297.2444	0.2016
297.4567	0.1956
297.6691	0.1975
297.8814	0.202
298.0937	0.1963
298.306	0.1995
298.5182	0.2064
298.7305	0.1992
298.9428	0.1963
299.155	0.197
299.3672	0.2062
299.5794	0.1921
299.7916	0.1979
300.0038	0.1951
300.216	0.2034
300.4282	0.1914
300.6403	0.1975
300.8525	0.2063
301.0646	0.1933
301.2767	0.1981
301.4888	0.1972
301.7009	0.202
301.913	0.2033
302.125	0.1985
302.3371	0.1994
302.5491	0.1967
302.7612	0.2003
302.9732	0.1907
303.1852	0.1982
303.3972	0.1977
303.6092	0.1932
303.8211	0.1891
304.0331	0.1872
304.245	0.1998
304.457	0.1985
304.6689	0.194
304.8808	0.1887
305.0927	0.195
305.3046	0.1856
305.5164	0.1816
305.7283	0.1916
305.9401	0.1852
306.152	0.1838
306.3638	0.1837
306.5756	0.1891
306.7874	0.179
306.9992	0.1774
307.2109	0.1753
307.4227	0.1694
307.6344	0.1786
307.8462	0.1689
308.0579	0.1738
308.2696	0.1648
308.4813	0.1637
308.693	0.1603
308.9046	0.1645
309.1163	0.1606
309.328	0.1586
309.5396	0.1619
309.7512	0.1552
309.9628	0.1544
310.1744	0.1549
310.386	0.1461
310.5976	0.1487
310.8091	0.1467
311.0207	0.1455
311.2322	0.1476
311.4437	0.1424
311.6552	0.1424
311.8667	0.141
312.0782	0.1455
312.2897	0.1411
312.5012	0.1383
312.7126	0.1291
312.924	0.1345
313.1355	0.1292
313.3469	0.1285
313.5583	0.1231
313.7696	0.1259
313.981	0.1279
314.1924	0.1262
314.4037	0.126
314.6151	0.1256
314.8264	0.1278
315.0377	0.1305
315.249	0.1206
315.4603	0.1248
315.6716	0.1261
315.8828	0.1241
316.0941	0.1181
316.3053	0.1201
316.5165	0.1216
316.7277	0.1225
316.9389	0.1286
317.1501	0.1239
317.3613	0.1166
317.5724	0.1164
317.7836	0.1156
317.9947	0.1139
318.2058	0.1189
318.417	0.1155
318.6281	0.112
318.8391	0.1192
319.0502	0.118
319.2613	0.1148
319.4723	0.1175
319.6834	0.1163
319.8944	0.1226
320.1054	0.1176
320.3164	0.1118
320.5274	0.1143
320.7383	0.1119
320.9493	0.1164
321.1602	0.1119
321.3712	0.1183
321.5821	0.1274
321.793	0.1145
322.0039	0.1159
322.2148	0.1182
322.4257	0.1181
322.6365	0.1133
322.8474	0.1179
323.0582	0.115
323.269	0.1169
323.4798	0.111
323.6906	0.1172
323.9014	0.1116
324.1122	0.1148
324.3229	0.1238
324.5337	0.1205
324.7444	0.1196
324.9551	0.1161
325.1658	0.1213
325.3765	0.1186
325.5872	0.1255
325.7979	0.1196
326.0085	0.1202
326.2192	0.1123
326.4298	0.1211
326.6404	0.1245
326.851	0.1231
327.0616	0.1187
327.2722	0.1208
327.4828	0.1124
327.6933	0.1244
327.9039	0.1206
328.1144	0.1179
328.3249	0.1244
328.5354	0.1204
328.7459	0.125
328.9564	0.1251
329.1669	0.123
329.3773	0.1212
329.5878	0.1252
329.7982	0.1165
330.0086	0.1244
330.219	0.1308
330.4294	0.1288
330.6398	0.1289
330.8502	0.1268
331.0605	0.1218
331.2708	0.1227
331.4812	0.1201
331.6915	0.1242
331.9018	0.1227
332.1121	0.1269
332.3224	0.1242
332.5326	0.1228
332.7429	0.123
332.9531	0.1317
333.1633	0.1214
333.3735	0.1281
333.5837	0.1271
333.7939	0.1257
334.0041	0.1295
334.2143	0.1257
334.4244	0.1223
334.6346	0.1226
334.8447	0.1266
335.0548	0.1254
335.2649	0.125
335.475	0.1248
335.685	0.1303
335.8951	0.1303
336.1051	0.1326
336.3152	0.1271
336.5252	0.13
336.7352	0.1271
336.9452	0.1343
337.1552	0.1243
337.3652	0.1302
337.5751	0.1246
337.7851	0.1284
337.995	0.1291
338.2049	0.1311
338.4148	0.1301
338.6247	0.1322
338.8346	0.1292
339.0445	0.1314
339.2543	0.1322
339.4642	0.1332
339.674	0.1331
339.8838	0.1289
340.0936	0.1364
340.3034	0.1359
340.5132	0.131
340.7229	0.1347
340.9327	0.1445
341.1424	0.1354
341.3522	0.1406
341.5619	0.1415
341.7716	0.1368
341.9813	0.1421
342.1909	0.141
342.4006	0.1392
342.6102	0.1388
342.8199	0.1399
343.0295	0.1417
343.2391	0.1402
343.4487	0.1493
343.6583	0.1504
343.8679	0.1409
344.0774	0.139
344.287	0.1477
344.4965	0.1501
344.706	0.1421
344.9155	0.1406
345.125	0.155
345.3345	0.1481
345.544	0.1471
345.7534	0.1485
345.9629	0.1494
346.1723	0.1508
346.3817	0.1504
346.5911	0.1564
346.8005	0.1551
347.0099	0.152
347.2193	0.1513
347.4286	0.1563
347.638	0.1575
347.8473	0.155
348.0566	0.1589
348.2659	0.1578
348.4752	0.1549
348.6845	0.16
348.8937	0.1595
349.103	0.153
349.3122	0.1661
349.5214	0.1548
349.7306	0.159
349.9398	0.1613
350.149	0.1649
350.3582	0.1616
350.5674	0.163
350.7765	0.1688
350.9856	0.1625
351.1948	0.1595
351.4039	0.1672
351.613	0.1712
351.822	0.1633
352.0311	0.1633
352.2402	0.1704
352.4492	0.1643
352.6582	0.1699
352.8672	0.1728
353.0762	0.1759
353.2852	0.1727
353.4942	0.1718
353.7032	0.1694
353.9121	0.1731
354.1211	0.1766
354.33	0.1758
354.5389	0.1773
354.7478	0.1859
354.9567	0.1734
355.1655	0.1758
355.3744	0.1785
355.5833	0.1803
355.7921	0.1737
356.0009	0.1721
356.2097	0.1846
356.4185	0.1828
356.6273	0.1843
356.8361	0.1916
357.0448	0.1882
357.2536	0.1924
357.4623	0.1881
357.671	0.185
357.8797	0.194
358.0884	0.1895
358.2971	0.1957
358.5057	0.1876
358.7144	0.1938
358.923	0.1922
359.1316	0.1959
359.3402	0.1955
359.5488	0.1978
359.7574	0.1955
359.966	0.2012
360.1746	0.2062
360.3831	0.212
360.5916	0.2008
360.8002	0.2081
361.0087	0.2136
361.2172	0.2168
361.4256	0.2026
361.6341	0.2154
361.8426	0.2109
362.051	0.2151
362.2594	0.2074
362.4678	0.2203
362.6762	0.2164
362.8846	0.2175
363.093	0.2273
363.3014	0.2218
363.5097	0.2219
363.718	0.2237
363.9264	0.2267
364.1347	0.2282
364.343	0.2339
364.5513	0.2363
364.7595	0.2298
364.9678	0.2278
365.176	0.2283
365.3842	0.2411
365.5925	0.2264
365.8007	0.2315
366.0089	0.2271
366.217	0.2357
366.4252	0.2361
366.6333	0.2353
366.8415	0.2362
367.0496	0.2408
367.2577	0.2394
367.4658	0.2446
367.6739	0.2412
367.882	0.2475
368.09	0.245
368.2981	0.2395
368.5061	0.2499
368.7141	0.2438
368.9221	0.2525
369.1301	0.2589
369.3381	0.2563
369.5461	0.2584
369.754	0.2545
369.962	0.2528
370.1699	0.2541
370.3778	0.2527
370.5857	0.2622
370.7936	0.2619
371.0015	0.2486
371.2093	0.263
371.4172	0.2672
371.625	0.2662
371.8328	0.2604
372.0406	0.2593
372.2484	0.2563
372.4562	0.2645
372.664	0.2631
372.8717	0.2728
373.0795	0.2681
373.2872	0.2694
373.4949	0.2792
373.7026	0.2779
373.9103	0.2603
374.118	0.2696
374.3256	0.291
374.5333	0.2765
374.7409	0.2702
374.9485	0.2658
375.1561	0.2764
375.3637	0.2757
375.5713	0.2753
375.7789	0.2728
375.9864	0.278
376.194	0.2831
376.4015	0.2925
376.609	0.2894
376.8165	0.2833
377.024	0.2796
377.2315	0.2985
377.4389	0.2765
377.6464	0.2865
377.8538	0.285
378.0612	0.2837
378.2686	0.2923
378.476	0.2811
378.6834	0.2915
378.8908	0.3001
379.0981	0.2948
379.3055	0.3004
379.5128	0.2906
379.7201	0.2985
379.9274	0.2968
380.1347	0.2983
380.342	0.301
380.5492	0.2916
380.7565	0.2975
380.9637	0.2898
381.1709	0.2998
381.3781	0.2981
381.5853	0.3018
381.7925	0.3085
381.9997	0.3082
382.2068	0.2936
382.4139	0.2958
382.6211	0.3075
382.8282	0.299
383.0353	0.309
383.2424	0.3129
383.4494	0.309
383.6565	0.3115
383.8635	0.3153
384.0706	0.3101
384.2776	0.3105
384.4846	0.3204
384.6916	0.3102
384.8986	0.3191
385.1055	0.3221
385.3125	0.3082
385.5194	0.3046
385.7263	0.3046
385.9333	0.3103
386.1402	0.3056
386.347	0.3232
386.5539	0.3172
386.7608	0.3129
386.9676	0.3072
387.1744	0.3162
387.3813	0.3082
387.5881	0.3072
387.7948	0.316
388.0016	0.3081
388.2084	0.3072
388.4151	0.308
388.6219	0.302
388.8286	0.3117
389.0353	0.3021
389.242	0.3093
389.4487	0.3095
389.6553	0.3086
389.862	0.3144
390.0686	0.3125
390.2753	0.3043
390.4819	0.3089
390.6885	0.3064
390.8951	0.3066
391.1016	0.3076
391.3082	0.298
391.5147	0.3122
391.7213	0.2935
391.9278	0.2979
392.1343	0.304
392.3408	0.2833
392.5473	0.2972
392.7537	0.291
392.9602	0.2866
393.1666	0.294
393.373	0.2932
393.5794	0.2845
393.7858	0.284
393.9922	0.2826
394.1986	0.2825
394.4049	0.2789
394.6113	0.2883
394.8176	0.273
395.0239	0.2843
395.2302	0.2717
395.4365	0.2736
395.6428	0.2746
395.8491	0.2812
396.0553	0.2698
396.2615	0.2696
396.4678	0.2675
396.674	0.2785
396.8802	0.2745
397.0863	0.2652
397.2925	0.2768
397.4987	0.273
397.7048	0.2813
397.9109	0.266
398.117	0.2762
398.3231	0.2693
398.5292	0.2729
398.7353	0.2689
398.9413	0.2703
399.1474	0.2752
399.3534	0.27
399.5594	0.2616
399.7654	0.2785
399.9714	0.2585
400.1774	0.2665
400.3833	0.2708
400.5893	0.2667
400.7952	0.2717
401.0011	0.2615
401.207	0.2705
401.4129	0.2674
401.6188	0.2609
401.8247	0.273
402.0305	0.2658
402.2364	0.2699
402.4422	0.2589
402.648	0.2717
402.8538	0.2767
403.0596	0.2599
403.2654	0.2588
403.4711	0.257
403.6768	0.2717
403.8826	0.2658
404.0883	0.2658
404.294	0.2733
404.4997	0.266
404.7054	0.2636
404.911	0.2546
405.1167	0.2717
405.3223	0.2782
405.5279	0.2721
405.7335	0.2602
405.9391	0.2604
406.1447	0.2764
406.3502	0.2695
406.5558	0.265
406.7613	0.2666
406.9668	0.2663
407.1724	0.2667
407.3778	0.2641
407.5833	0.2684
407.7888	0.2665
407.9942	0.2645
408.1997	0.2734
408.4051	0.2643
408.6105	0.2776
408.8159	0.2664
409.0213	0.2709
409.2267	0.2646
409.432	0.2729
409.6374	0.2706
409.8427	0.2715
410.048	0.2633
410.2533	0.2607
410.4586	0.2686
410.6639	0.2605
410.8691	0.2722
411.0744	0.2557
411.2796	0.2683
411.4848	0.2602
411.69	0.2682
411.8952	0.2657
412.1004	0.2553
412.3056	0.258
412.5107	0.2725
412.7158	0.266
412.921	0.2573
413.1261	0.2721
413.3312	0.2649
413.5362	0.2632
413.7413	0.2705
413.9464	0.2554
414.1514	0.2689
414.3564	0.2532
414.5614	0.2619
414.7664	0.2662
414.9714	0.2662
415.1764	0.2605
415.3813	0.2463
415.5863	0.2591
415.7912	0.2695
415.9961	0.2617
416.201	0.2652
416.4059	0.2551
416.6108	0.2578
416.8156	0.2435
417.0205	0.2726
417.2253	0.2579
417.4301	0.2596
417.6349	0.2561
417.8397	0.2714
418.0445	0.254
418.2492	0.2682
418.454	0.2589
418.6587	0.2612
418.8634	0.2585
419.0681	0.2447
419.2728	0.2595
419.4775	0.2567
419.6822	0.2484
419.8868	0.2637
420.0915	0.2482
420.2961	0.239
420.5007	0.2496
420.7053	0.2525
420.9099	0.2373
421.1144	0.2476
421.319	0.2367
421.5235	0.2361
421.728	0.2445
421.9325	0.2439
422.137	0.2483
422.3415	0.233
422.546	0.2417
422.7504	0.242
422.9549	0.2386
423.1593	0.2442
423.3637	0.2317
423.5681	0.24
423.7725	0.2381
423.9769	0.2374
424.1812	0.2426
424.3856	0.2446
424.5899	0.2381
424.7942	0.2287
424.9985	0.2356
425.2028	0.2291
425.4071	0.2145
425.6113	0.2302
425.8156	0.2187
426.0198	0.226
426.224	0.232
426.4282	0.225
426.6324	0.2189
426.8366	0.2159
427.0407	0.2243
427.2449	0.2238
427.449	0.2097
427.6531	0.2283
427.8572	0.2176
428.0613	0.2199
428.2654	0.2179
428.4694	0.2045
428.6735	0.2029
428.8775	0.2073
429.0815	0.2145
429.2855	0.1988
429.4895	0.1978
429.6935	0.1961
429.8975	0.2067
430.1014	0.1934
430.3053	0.1917
430.5093	0.1989
430.7132	0.1958
430.9171	0.1912
431.1209	0.1853
431.3248	0.1889
431.5286	0.1816
431.7325	0.1926
431.9363	0.1809
432.1401	0.1847
432.3439	0.1803
432.5477	0.1774
432.7514	0.1734
432.9552	0.1674
433.1589	0.1736
433.3627	0.1743
433.5664	0.169
433.7701	0.168
433.9737	0.1635
434.1774	0.1655
434.3811	0.1711
434.5847	0.1673
434.7883	0.1603
434.9919	0.1488
435.1955	0.1692
435.3991	0.1547
435.6027	0.1506
435.8062	0.1547
436.0098	0.1448
436.2133	0.1567
436.4168	0.1484
436.6203	0.1354
436.8238	0.1428
437.0272	0.1361
437.2307	0.132
437.4341	0.1343
437.6375	0.1284
437.841	0.1318
438.0443	0.1354
438.2477	0.1328
438.4511	0.1353
438.6545	0.1215
438.8578	0.1347
439.0611	0.1263
439.2644	0.1167
439.4677	0.1186
439.671	0.1129
439.8743	0.1091
440.0775	0.1203
440.2808	0.1219
440.484	0.11
440.6872	0.1034
440.8904	0.1093
441.0936	0.1117
441.2967	0.0984
441.4999	0.108
441.703	0.1034
441.9062	0.1048
442.1093	0.0986
442.3124	0.0979
442.5155	0.0912
442.7185	0.0853
442.9216	0.0913
443.1246	0.0945
443.3276	0.0858
443.5307	0.0861
443.7337	0.0836
443.9366	0.091
444.1396	0.0803
444.3426	0.0855
444.5455	0.0754
444.7484	0.0721
444.9513	0.0822
445.1542	0.0738
445.3571	0.0736
445.56	0.074
445.7628	0.0696
445.9657	0.0749
446.1685	0.0816
446.3713	0.0701
446.5741	0.0585
446.7769	0.0701
446.9797	0.0664
447.1824	0.0705
447.3852	0.053
447.5879	0.0605
447.7906	0.062
447.9933	0.0558
448.196	0.0526
448.3986	0.0577
448.6013	0.0528
448.8039	0.0497
449.0066	0.0547
449.2092	0.0585
449.4118	0.0528
449.6143	0.0585
449.8169	0.0582
450.0195	0.0477
450.222	0.0482
450.4245	0.0557
450.627	0.0445
450.8295	0.045
451.032	0.0452
451.2345	0.0479
451.4369	0.0476
451.6394	0.0415
451.8418	0.0445
452.0442	0.0407
452.2466	0.0413
452.449	0.0325
452.6513	0.0339
452.8537	0.0417
453.056	0.0368
453.2583	0.0327
453.4607	0.0378
453.663	0.0369
453.8652	0.0344
454.0675	0.0273
454.2697	0.0273
454.472	0.0278
454.6742	0.0298
454.8764	0.0283
455.0786	0.0303
455.2808	0.0279
455.4829	0.0219
455.6851	0.0274
455.8872	0.0365
456.0893	0.0235
456.2915	0.02
456.4935	0.0179
456.6956	0.0246
456.8977	0.0218
457.0997	0.0269
457.3018	0.0171
457.5038	0.0279
457.7058	0.0225
457.9078	0.0366
458.1098	0.0188
458.3117	0.0267
458.5137	0.0221
458.7156	0.0341
458.9175	0.0146
459.1194	0.0264
459.3213	0.023
459.5232	0.0123
459.725	0.0193
459.9269	0.0192
460.1287	0.0062
460.3305	0.0219
460.5323	0.0192
460.7341	0.0092
460.9359	0.0234
461.1376	0.0183
461.3394	0.0039
461.5411	0.0215
461.7428	0.0211
461.9445	0.02
462.1462	0.0147
462.3479	0.0116
462.5495	0.0107
462.7512	0.0065
462.9528	0.0148
463.1544	0.0125
463.356	0.0178
463.5576	0.0095
463.7592	0.0055
463.9607	0.0069
464.1623	0.0156
464.3638	0.0095
464.5653	0.0151
464.7668	0.0029
464.9683	0.0074
465.1697	0.0095
465.3712	0.0105
465.5726	0.0149
465.7741	0.0089
465.9755	0.0115
466.1769	0.0098
466.3782	0.0027
466.5796	0.0145
466.7809	0.0139
466.9823	0.0076
467.1836	0.0223
467.3849	0.0074
467.5862	0.0068
467.7875	0.0079
467.9887	0.0033
468.19	-0.0004
468.3912	0.0135
468.5924	0.0261
468.7936	0.0067
468.9948	0.0116
469.196	0.0018
469.3972	0.0147
469.5983	0
469.7994	0.0082
470.0006	0.0053
470.2017	0.0128
470.4027	0.0042
470.6038	0.0069
470.8049	-0.0009
471.0059	0.0111
471.2069	0.0224
471.408	0.0033
471.6089	0.0045
471.8099	0.0036
472.0109	0.0103
472.2119	0.0216
472.4128	0.009
472.6137	0.0059
472.8146	-0.0031
473.0155	0.0029
473.2164	-0.0023
473.4173	0.018
473.6181	0.0056
473.819	-0.0005
474.0198	0.0074
474.2206	0.0019
474.4214	0.0128
474.6222	-0.0006
474.8229	0.0066
475.0237	0.0042
475.2244	0.0081
475.4251	0.0005
475.6258	0.012
475.8265	-0.0019
476.0272	-0.0021
476.2278	0.0012
476.4285	-0.003
476.6291	0.0098
476.8297	0.0046
477.0303	0.0083
477.2309	-0.0035
477.4315	0.0118
477.632	0.0007
477.8326	0.0017
478.0331	0.0025
478.2336	0.0157
478.4341	0.0049
478.6346	0.0025
478.8351	0.0115
479.0355	0.0014
479.236	-0.0014
479.4364	0.0032
479.6368	0.0061
479.8372	0.0037
480.0376	-0.0009
480.2379	0.004
480.4383	-0.002
480.6386	0.0037
480.8389	0.0096
481.0392	0.0033
481.2395	-0.0009
481.4398	0.0007
481.6401	0.0077
481.8403	-0.0014
482.0405	-0.0013
482.2408	0.0001
482.441	0.006
482.6411	0.0016
482.8413	-0.0041
483.0415	0.0057
483.2416	-0.0012
483.4417	-0.0059
483.6419	0.0026
483.8419	0.0024
484.042	0.0031
484.2421	-0.0048
484.4422	0.0066
484.6422	0.0092
484.8422	0.0091
485.0422	-0.0006
485.2422	0.0043
485.4422	-0.0021
485.6422	-0.0039
485.8421	0.0003
486.042	0.0048
486.242	-0.0007
486.4419	0.0009
486.6417	0.0038
486.8416	0.0062
487.0415	-0
487.2413	0.0024
487.4411	0.0021
487.641	0.0082
487.8408	0.0069
488.0405	0.0088
488.2403	0.0022
488.4401	-0.0053
488.6398	0.0059
488.8395	0.0061
489.0392	0.002
489.2389	0.0047
489.4386	0.0022
489.6383	0.0004
489.8379	0.0048
490.0376	0.0077
490.2372	0.0014
490.4368	0.0082
490.6364	0.0018
490.836	0.0003
491.0355	0.0005
491.2351	0.0043
491.4346	-0.0002
491.6341	0.0027
491.8336	-0.0044
492.0331	-0.0035
492.2326	-0.0028
492.432	0.0089
492.6315	-0.008
492.8309	0.0074
493.0303	-0.0073
493.2297	-0.003
493.4291	-0.0035
493.6284	-0.0031
493.8278	0.0091
494.0271	-0.0049
494.2264	-0.0007
494.4257	0.0007
494.625	-0.0012
494.8243	0.0069
495.0236	0.0016
495.2228	-0.0008
495.422	0.0075
495.6213	0.0011
495.8205	-0.0036
496.0196	0.0051
496.2188	0.0011
496.418	-0.004
496.6171	-0.0015
496.8162	0.0055
497.0153	-0.0019
497.2144	-0.0027
497.4135	0.0024
497.6126	0.0001
497.8116	-0.0061
498.0107	0.0031
498.2097	0.0151
498.4087	-0.0011
498.6077	0.0013
498.8067	0.0077
499.0056	-0.0058
499.2046	-0.0017
499.4035	-0.0009
499.6024	-0.0083
499.8013	0.0032
500.0002	0.0058
500.199	0.0011
500.3979	0.0063
500.5967	-0.0075
500.7956	0.0032
500.9944	0.002
501.1932	0.0009
501.3919	0.0063
501.5907	0.0061
501.7895	-0.003
501.9882	-0.0026
502.1869	0.003
502.3856	0.003
502.5843	0.0039
502.783	-0.0022
502.9816	0.0019
503.1803	0.0099
503.3789	0.0073
503.5775	0.0053
503.7761	-0.0016
503.9747	-0.0054
504.1732	-0.0038
504.3718	-0.0002
504.5703	-0.0017
504.7689	-0.0076
504.9674	-0.0015
505.1658	-0.0009
505.3643	-0.0036
505.5628	0.002
505.7612	0.0115
505.9597	0.0019
506.1581	-0.0106
506.3565	-0.0087
506.5549	0.0011
506.7532	0.0107
506.9516	0.0047
507.1499	0.0023
507.3482	0.0081
507.5465	-0.0037
507.7448	0.0079
507.9431	0.0015
508.1414	-0.0016
508.3396	0.0023
508.5379	-0.0001
508.7361	0.0063
508.9343	0.0034
509.1325	0.0043
509.3306	-0.0011
509.5288	0.019
509.7269	-0
509.9251	-0.0004
510.1232	0.0038
510.3213	-0.0062
510.5193	0.0088
510.7174	-0.0077
510.9154	0.0113
511.1135	-0.0031
511.3115	-0.0062
511.5095	0
511.7075	-0.0014
511.9055	0.0074
512.1034	0.0003
512.3014	-0.0028
512.4993	-0.0031
512.6972	-0.0015
512.8951	0.0059
513.093	-0.0053
513.2908	0.0013
513.4887	-0.0003
513.6865	-0.0049
513.8844	0.009
514.0822	0.0119
514.2799	0.0056
514.4777	0.0088
514.6755	0.0003
514.8732	0.0004
515.0709	0.0067
515.2687	0.0049
515.4664	-0.0057
515.664	0.0034
515.8617	0.0039
516.0594	0.0022
516.257	0.0104
516.4546	-0.0042
516.6522	-0.0071
516.8498	-0.0031
517.0474	-0.0005
517.2449	-0.0029
517.4425	-0.0007
517.64	0.002
517.8375	0.0097
518.035	0.0072
518.2325	-0.001
518.43	0.0004
518.6274	-0.0061
518.8249	0.0028
519.0223	-0.0024
519.2197	0.0008
519.4171	-0.0037
519.6145	-0.0071
519.8118	-0.0011
520.0092	0.0001
520.2065	0.0003
520.4038	0.0099
520.6011	0.0036
520.7984	0.0115
520.9956	-0.0016
521.1929	0.0078
521.3901	0.0082
521.5874	-0.0029
521.7846	-0.0069
521.9818	-0.0097
522.1789	0.0102
522.3761	-0.0027
522.5732	-0.005
522.7704	0.0123
522.9675	-0.0074
523.1646	0.0183
523.3617	-0.0061
523.5587	-0.003
523.7558	0.0156
523.9528	0.0036
524.1498	0.0042
524.3468	0.0013
524.5438	-0.0056
524.7408	-0.0109
524.9378	0.006
525.1347	0.0033
525.3316	0.0076
525.5285	0.0006
525.7254	-0.0032
525.9223	0.0061
526.1192	-0.0062
526.316	-0.0119
526.5129	0.0083
526.7097	-0.0032
526.9065	0.0108
527.1033	0.002
527.3	-0.005
527.4968	-0.001
527.6935	0.005
527.8903	0.0041
528.087	0.0015
528.2837	0.0123
528.4804	-0.0017
528.677	0.0054
528.8737	-0.0048
529.0703	0.0089
529.2669	0.0025
529.4635	0.0114
529.6601	0.0063
529.8567	-0.0053
530.0532	0.0007
530.2498	0.0022
530.4463	0.0173
530.6428	-0.0062
530.8393	-0.0003
531.0358	-0.0002
531.2322	0.0035
531.4287	-0.0089
531.6251	-0.0079
531.8215	-0.0038
532.0179	-0.0027
532.2143	0.0084
532.4107	-0.0039
532.607	0.0019
532.8034	0.0039
532.9997	0.0095
533.196	0.0063
533.3923	0.0097
533.5886	0.0057
533.7848	-0.0079
533.9811	-0.0121
534.1773	0.0044
534.3735	-0.0019
534.5697	0.0036
534.7659	-0.0012
534.9621	0.0099
535.1582	0.0016
535.3544	0.0128
535.5505	0.0049
535.7466	-0.003
535.9427	-0.007
536.1387	0.0034
536.3348	0.0117
536.5308	0.0095
536.7269	-0.0012
536.9229	0.0019
537.1189	0.0037
537.3148	-0.0037
537.5108	0.0049
537.7068	0.0071
537.9027	0.0077
538.0986	-0.0045
538.2945	0.0041
538.4904	-0.0027
538.6863	0.0144
538.8821	-0.0103
539.078	-0.004
539.2738	-0.0021
539.4696	0.0096
539.6654	-0.0054
539.8611	0.0044
540.0569	0
540.2526	-0.0012
540.4484	-0.0034
540.6441	-0.0031
540.8398	-0.0023
541.0355	-0.0009
541.2311	0.0021
541.4268	-0.0086
541.6224	-0.0023
541.818	-0.0055
542.0136	-0.0103
542.2092	0.0085
542.4048	0.0028
542.6003	-0.0008
542.7959	0.0077
542.9914	-0.0057
543.1869	0.0068
543.3824	0.0082
543.5779	0.006
543.7734	0.0026
543.9688	-0.0086
544.1642	-0.0008
544.3596	-0.0116
544.555	-0.0001
544.7504	0.0059
544.9458	-0.0012
545.1411	0.0006
545.3365	0.0031
545.5318	-0.0128
545.7271	0.0109
545.9224	-0.0013
546.1177	0.0084
546.3129	-0.0026
546.5081	-0.0026
546.7034	-0.0029
546.8986	0.0028
547.0938	-0.0024
547.289	0.0002
547.4841	0.0015
547.6793	-0.0118
547.8744	-0.0044
548.0695	0.0026
548.2646	-0.0075
548.4597	-0.0034
548.6548	0.0067
548.8498	-0.0024
549.0448	0.0002
549.2399	-0.0032
549.4349	0.0016
549.6298	-0.0158
549.8248	-0.0041
550.0198	0.0023
550.2147	-0.0041
550.4096	0.0005
550.6045	-0.005
550.7994	0.0018
550.9943	0.0009
551.1892	-0.0054
551.384	0.0054
551.5788	0.0072
551.7737	0.004
551.9685	0.0039
552.1632	0.0041
552.358	-0.0032
552.5528	-0.0052
552.7475	-0.0032
552.9422	0.0039
553.1369	0.0037
553.3316	-0.0033
553.5263	0.0005
553.7209	-0.0091
553.9156	0.0052
554.1102	0.0012
554.3048	0.002
554.4994	-0.002
554.694	-0.0027
554.8885	0.0047
555.0831	-0.0011
555.2776	0.0038
555.4721	-0.016
555.6666	0.0054
555.8611	-0.0016
556.0555	0.0066
556.25	-0.0056
556.4444	-0.0027
556.6388	-0.0053
556.8332	0.0075
557.0276	0.0095
557.222	0.0054
557.4163	0.0016
557.6107	0.0018
557.805	-0.0139
557.9993	-0.0012
558.1936	0.0114
558.3879	0.0006
558.5821	-0.0051
558.7764	0.008
558.9706	-0.0023
559.1648	-0.0035
559.359	0.0065
559.5532	-0.0104
559.7473	0.0045
559.9415	0.0084
560.1356	0.0095
560.3297	-0.0005
560.5238	0.0117
560.7179	-0.0096
560.9119	0.0065
561.106	-0.0017
561.3	-0.0031
561.494	0.0065
561.688	0.0023
561.882	-0.007
562.076	0.0138
562.2699	0.0068
562.4639	0.003
562.6578	0.0059
562.8517	0.0067
563.0456	0.0028
563.2395	0.0014
563.4333	-0.0011
563.6272	0.0093
563.821	-0.0026
564.0148	-0.0076
564.2086	0.0043
564.4024	-0.0055
564.5961	0.0051
564.7899	0.0036
564.9836	-0.0062
565.1773	-0.0055
565.371	-0.0006
565.5647	-0.0074
565.7584	0.0086
565.952	-0.0059
566.1456	0.0032
566.3393	0.0153
566.5329	-0.0066
566.7264	-0.0064
566.92	-0.0017
567.1136	-0.0006
567.3071	-0.0056
567.5006	-0.0079
567.6941	0.005
567.8876	0.0034
568.0811	0.0001
568.2745	-0.0039
568.468	0.0085
568.6614	-0.0045
568.8548	-0.0002
569.0482	0.0073
569.2416	0.0003
569.4349	-0.0012
569.6283	-0.0045
569.8216	-0.0007
570.0149	0.0066
570.2082	-0.0044
570.4015	0.0035
570.5947	-0.0064
570.788	-0.0029
570.9812	-0.002
571.1744	-0.0021
571.3676	-0.0011
571.5608	-0.0019
571.754	-0.0047
571.9471	0.0022
572.1402	0.0029
572.3333	-0.001
572.5264	-0.0025
572.7195	0.0061
572.9126	-0.0002
573.1057	-0.0002
573.2987	-0.0011
573.4917	0.0001
573.6847	0.0037
573.8777	-0.0003
574.0707	-0.001
574.2636	0.0013
574.4566	0.0024
574.6495	0.0011
574.8424	0.0032
575.0353	-0.0038
575.2281	0.0011
575.421	-0.0031
575.6138	-0.0017
575.8067	0.0044
575.9995	0.0013
576.1923	0.0022
576.385	-0.0007
576.5778	-0.0023
576.7706	0.0054
576.9633	0.0009
577.156	-0.0016
577.3487	-0.0009
577.5414	-0.0019
577.734	0.0013
577.9267	-0.0039
578.1193	-0.0019
578.3119	-0.0028
578.5045	0.003
578.6971	-0.0018
578.8897	-0.0014
579.0822	-0.0015
579.2747	-0.0048
579.4673	-0.0049
579.6598	-0.0019
579.8522	0.0007
580.0447	-0.0009
580.2372	0.0064
580.4296	-0.0029
580.622	0.0018
580.8144	-0.0031
581.0068	0.0004
581.1992	0.0002
581.3915	-0.0023
581.5839	0.0026
581.7762	0.0018
581.9685	0.0008
582.1608	0.0024
582.353	-0.0033
582.5453	0.002
582.7375	0.0027
582.9298	0.0012
583.122	-0.0041
583.3142	0.0034
583.5063	-0.003
583.6985	-0.0004
583.8906	-0.0028
584.0827	-0.0026
584.2749	0.0037
584.4669	0.0008
584.659	-0.0013
584.8511	0.0019
585.0431	-0.0009
585.2352	-0.0038
585.4272	-0.0031
585.6192	0.0033
585.8111	-0.0047
586.0031	-0.0008
586.195	0.0028
586.387	0.0022
586.5789	0.0057
586.7708	0.0003
586.9627	0.0032
587.1545	0.0018
587.3464	0.0019
587.5382	0.0015
587.73	-0.0008
587.9218	-0.0009
588.1136	-0.0037
588.3053	0.0012
588.4971	0.0003
588.6888	-0.0002
588.8805	0.0049
589.0722	0.0013
589.2639	-0.0032
589.4556	-0.0068
589.6472	-0.0011
589.8389	0.0012
590.0305	0.0057
590.2221	0.0014
590.4137	-0.0048
590.6052	-0.0019
590.7968	0.0049
590.9883	0.0054
591.1798	-0.0009
591.3713	-0.0049
591.5628	0.0002
591.7543	0.0022
591.9458	-0.0017
592.1372	-0.0025
592.3286	-0.0014
592.52	-0.0014
592.7114	-0.0061
592.9028	-0.0016
593.0941	-0.0013
593.2855	0.0005
593.4768	0.0021
593.6681	0.0019
593.8594	-0.0011
594.0506	0.0029
594.2419	-0.0033
594.4331	0.0008
594.6244	0.0004
594.8156	0.0008
595.0067	0.0003
595.1979	-0.003
595.3891	-0.0038
595.5802	0.0002
595.7713	0.0008
595.9624	0.0022
596.1535	-0.0009
596.3446	-0.0006
596.5357	-0.0037
596.7267	-0.0005
596.9177	0.0007
597.1087	0.0015
597.2997	0.001
597.4907	-0.0031
597.6817	0.0007
597.8726	0.0081
598.0635	0.0039
598.2544	-0.0034
598.4453	-0.0001
598.6362	-0.0011
598.827	0.0009
599.0179	0.0042
599.2087	0.0011
599.3995	0.0039
599.5903	0.0029
599.7811	0.0001
599.9718	-0.0001
600.1626	0.0005
600.3533	-0.005
600.544	0.0013
600.7347	-0.0007
600.9254	0.0038
601.116	0.0027
601.3067	0.0029
601.4973	0.0032
601.6879	-0.0047
601.8785	0.0045
602.0691	0.0031
602.2596	-0.0026
602.4502	-0.0006
602.6407	0.0016
602.8312	0.0005
603.0217	0.0075
603.2122	0.0043
603.4027	-0.0045
603.5931	-0.0039
603.7835	0.0023
603.9739	0.0006
604.1643	0.0004
604.3547	0.0017
604.5451	0.0003
604.7354	-0.0053
604.9257	-0.0017
605.116	0.0003
605.3063	-0.0068
605.4966	0.0059
605.6869	0.0006
605.8771	-0.0008
606.0673	0.0035
606.2575	-0.0059
606.4477	0.0034
606.6379	-0.0018
606.8281	0.0012
607.0182	-0.0005
607.2083	-0.0026
607.3985	0.0014
607.5885	0.007
607.7786	0.0075
607.9687	-0.0018
608.1587	-0.0008
608.3488	-0.0043
608.5388	0.002
608.7288	-0.0002
608.9187	-0.0011
609.1087	-0.0042
609.2986	-0.0068
609.4886	0.004
609.6785	0.0019
609.8684	-0.0027
610.0582	-0.0002
610.2481	-0.0018
610.4379	-0.0016
610.6278	-0.0025
610.8176	-0.0059
611.0074	-0.003
611.1971	-0.0013
611.3869	-0.0005
611.5766	-0.0013
611.7664	0.004
611.9561	-0.0021
612.1458	-0.0041
612.3354	0.0109
612.5251	-0.0055
612.7147	0.0038
612.9044	-0.0013
613.094	-0.0011
613.2836	-0.0041
613.4731	0.0026
613.6627	0.0103
613.8522	-0.0007
614.0417	-0.0037
614.2313	-0.0135
614.4207	0.0076
614.6102	-0.0035
614.7997	-0.0021
614.9891	-0.0021
615.1785	-0.004
615.3679	0.0021
615.5573	-0.0025
615.7467	-0.0019
615.9361	-0.0055
616.1254	-0.0049
616.3147	-0.0052
616.504	0.0039
616.6933	-0.0037
616.8826	-0.0003
617.0718	-0.0063
617.2611	-0.0021
617.4503	-0.0023
617.6395	0.0009
617.8287	0.0037
618.0179	-0.0023
618.207	0.0009
618.3961	0.0005
618.5853	0.009
618.7744	-0.0058
618.9634	-0.0011
619.1525	-0.0002
619.3416	0
619.5306	-0.0141
619.7196	-0.0083
619.9086	0.0121
620.0976	0.0012
620.2866	0.0063
620.4755	0.0081
620.6645	-0.0037
620.8534	-0.0104
621.0423	-0.0042
621.2312	-0.0098
621.42	-0.003
621.6089	0.0013
621.7977	-0.0027
621.9865	-0.001
622.1753	-0.0005
622.3641	-0.0181
622.5529	-0.0142
622.7416	-0.0002
622.9303	-0.0049
623.1191	-0.0054
623.3078	-0.0085
623.4964	-0.0106
623.6851	0.0026
623.8737	-0.0037
624.0624	0.0001
624.251	0.0035
624.4396	0.0008
624.6282	0.005
624.8167	0.007
625.0053	-0.0021
625.1938	-0.0022
625.3823	0.0091
625.5708	-0.0094
625.7593	0.0036
625.9477	-0.0185
626.1362	-0.0002
626.3246	-0.0033
626.513	0.0012
626.7014	-0.009
626.8898	0.0082
627.0781	0.007
627.2665	0.0075
627.4548	0.0069
627.6431	-0.0082
627.8314	-0.0053
628.0197	-0.004
628.2079	-0.0074
628.3962	-0.0082
628.5844	0.0092
628.7726	-0.0071
628.9608	-0.0044
629.1489	0.0015
629.3371	-0.0047
629.5252	0.0029
629.7134	0.0008
629.9015	-0.0113
630.0895	-0.0031
630.2776	-0.0015
630.4657	0.0037
630.6537	-0.0104
630.8417	-0.0077
631.0297	-0.0028
631.2177	-0.0032
631.4057	-0.0138
631.5936	0.0041
631.7815	0
631.9695	0.0205
632.1574	0.0018
632.3452	-0.0009
632.5331	-0.0024
632.7209	0.0085
632.9088	-0.0051
633.0966	0.0088
633.2844	-0.0049
633.4722	-0.0094
633.6599	-0.0188
633.8477	-0.0021
634.0354	0.0054
634.2231	0.0239
634.4108	0.0037
634.5985	0.0039
634.7861	-0.0049
634.9738	0.0058
635.1614	0.0099
635.349	-0.0169
635.5366	0.0013
635.7242	-0.0073
635.9117	0.0093
636.0993	-0.0166
636.2868	-0.0115
636.4743	0.0151
636.6618	0.0001
636.8492	0.0075
637.0367	0.0027
637.2241	-0.0098
637.4115	0.0106
637.5989	0.0078
637.7863	0.0083
637.9737	0.0061
638.161	0.0167
638.3484	-0.0098
638.5357	-0.0136
638.723	-0.0033
638.9103	0.0081
639.0975	0.0006
639.2848	0.0196
639.472	-0.002
639.6592	0.0093
639.8464	0.0173
640.0336	0.0043
640.2208	-0.0191
640.4079	0.019
640.595	-0.0071
640.7821	-0.001
640.9692	-0.0059
641.1563	0.0062
641.3434	0.0185
641.5304	-0.0053
641.7174	0.0172
641.9044	-0.0013
642.0914	-0.0173
642.2784	0.0291
642.4653	-0.0085
642.6523	0.0059
642.8392	0.0053
643.0261	-0.0047
643.213	-0.0066
643.3999	-0.0082
643.5867	-0.0103
643.7735	0.0076
643.9604	0.003
644.1472	-0.0009
644.3339	-0.0133
644.5207	-0.0055
644.7075	-0.0028
644.8942	0.0144
645.0809	-0.0136
645.2676	-0.0048
645.4543	0.0023
645.6409	-0.0079
645.8276	-0.0261
646.0142	0.005
646.2008	-0.0036
646.3874	0.0069
646.574	-0.03
646.7605	-0.0028
646.9471	0.0087
647.1336	0.0114
647.3201	0.0209
647.5066	-0.0052
647.6931	-0.011
647.8795	0.011
648.0659	-0.0169
648.2524	0.001
648.4388	0.0031
648.6252	-0.0103
648.8115	0.0214
648.9979	0.0006
649.1842	-0.0125
649.3705	0.0142
649.5568	-0.0112
649.7431	0.0007
649.9294	0.008
650.1156	-0.0078
650.3018	0.0097
650.488	-0.0133
650.6742	0.0108
650.8604	-0.0115
651.0466	0.0107
651.2327	-0.0258
651.4188	-0.0288
651.6049	0.0149
651.791	0.0105
651.9771	-0.0205
652.1632	0.0118
652.3492	0.0141
652.5352	0.0009
652.7212	-0.0007
652.9072	-0.0079
653.0932	0.0138
653.2791	-0.007
653.465	-0.011
653.651	0.0191
653.8369	0.0294
654.0227	-0.003
654.2086	0.0014
654.3944	-0.0246
654.5803	-0.004
654.7661	-0.003
654.9519	-0.001
655.1377	-0.0001
655.3234	-0.0001
655.5092	-0.0001
655.6949	-0.0001
655.8806	-0.0001
656.0663	-0.0001
656.2519	-0.0001
656.4376	-0.0001
656.6232	-0.0001
656.8088	-0.0001
656.9945	-0.0001
657.18	-0.0001
657.3656	-0.0001
657.5511	-0.0001
657.7367	-0.0001
657.9222	-0.0001
658.1077	-0.0001
658.2932	-0.0001
658.4786	-0.0001
658.6641	-0.0001
658.8495	-0.0001
659.0349	-0.0001
659.2203	-0.0001
659.4057	0.0187
659.591	0.0577
659.7764	0.0113
659.9617	-0.0121
660.147	-0.0035
660.3323	0.0023
660.5176	-0.0159
660.7028	0.0126
660.888	0.0232
661.0733	0.0075
661.2585	0.0286
661.4436	0.0036
661.6288	-0.0084
661.8139	0.007
661.9991	0.0153
662.1842	0.0225
662.3693	0.0026
662.5544	0.0078
662.7394	0.0233
662.9245	0.0076
663.1095	0.0017
663.2945	-0.0094
663.4795	-0.0086
663.6644	0.0052
663.8494	0.0183
664.0343	-0.0178
664.2193	-0.01
664.4042	-0.0431
664.589	-0.0168
664.7739	-0.0073
664.9587	-0.0092
665.1436	0.0023
665.3284	-0.0009
665.5132	0.0056
665.698	0.0082
665.8827	-0.0235
666.0675	-0.0188
666.2522	0.0194
666.4369	-0.0103
666.6216	-0.0265
666.8063	-0.0114
666.9909	-0.0067
667.1756	0.0083
667.3602	-0.0002
667.5448	-0.0151
667.7294	0.0015
667.9139	-0.0044
668.0985	-0.006
668.283	-0.0122
668.4675	0.0051
668.652	-0.0139
668.8365	0.0127
669.0209	-0.0216
669.2054	-0.0005
669.3898	0.0059
669.5742	0.0145
669.7586	0.0064
669.943	-0.0148
670.1273	-0.0064
670.3117	0.0051
670.496	-0.0009
670.6803	-0.0044
670.8646	0.0117
671.0488	-0.021
671.2331	0.0042
671.4173	0.0112
671.6015	-0.0065
671.7857	-0.0073
671.9699	0.0112
672.1541	0.0074
672.3382	0.0163
672.5223	-0.02
672.7064	-0.0105
672.8905	0.0024
673.0746	-0.0122
673.2587	-0.0084
673.4427	-0.0163
673.6267	-0.0095
673.8107	-0.0079
673.9947	-0.0026
674.1787	-0.0036
674.3626	0.0231
674.5465	0.0074
674.7304	-0.0434
674.9143	0.0014
675.0982	-0.0018
675.2821	0.0126
675.4659	-0.0039
675.6497	0.006
675.8335	0.005
676.0173	-0.0008
676.2011	-0.021
676.3849	0.0008
676.5686	-0.0126
676.7523	0.0108
676.936	-0.0272
677.1197	0.0105
677.3034	0.0006
677.487	0.0003
677.6706	-0.0121
677.8542	0.0032
678.0378	0.0037
678.2214	-0.0004
678.405	0.0154
678.5885	0.0052
678.772	0.0001
678.9555	-0.005
679.139	0.0044
679.3225	0.0011
679.5059	0.0071
679.6894	-0.0185
679.8728	-0.0125
680.0562	-0.007
680.2395	0.0032
680.4229	-0.0057
680.6062	0.0136
680.7896	0.0018
680.9729	0.01
681.1562	0.0022
681.3394	0.0035
681.5227	-0.0197
681.7059	-0.0087
681.8891	0.0113
682.0723	-0.0171
682.2555	0.0119
682.4387	-0.0253
682.6218	-0.0274
682.805	-0.0113
682.9881	-0.0082
683.1712	0.0047
683.3542	-0.0062
683.5373	0.0194
683.7203	0.0091
683.9034	0.0152
684.0864	-0.0136
684.2694	-0.0033
684.4523	0.0156
684.6353	0.0087
684.8182	-0.008
685.0011	-0.0114
685.184	0.0096
685.3669	-0.0073
685.5498	0.0095
685.7326	0.002
685.9154	-0.0105
686.0982	0.0052
686.281	-0.0187
686.4638	0.014
686.6465	-0.0033
686.8293	-0.0016
687.012	-0.0048
687.1947	-0.001
687.3774	-0.0013
687.56	-0.008
687.7427	-0.0219
687.9253	0.0038
688.1079	0.0125
688.2905	0.0066
688.4731	0.005
688.6556	0.0074
688.8382	-0.0062
689.0207	-0.0194
689.2032	-0.014
689.3857	-0.0254
689.5681	-0.0036
689.7506	-0.012
689.933	-0.0077
690.1154	-0.0053
690.2978	-0.0074
690.4802	0.0107
690.6626	-0.0051
690.8449	-0.0152
691.0272	-0.015
691.2095	-0.0115
691.3918	-0.0056
691.5741	0.0075
691.7563	-0.0032
691.9386	-0.0128
692.1208	0.0076
692.303	-0.0039
692.4852	0.0129
692.6673	-0.0053
692.8495	-0.0095
693.0316	-0.0086
693.2137	0.0261
693.3958	0.0075
693.5778	-0.0306
693.7599	-0.027
693.9419	0.0099
694.1239	-0.0203
694.3059	-0.004
694.4879	-0.011
694.6699	0.0295
694.8518	0.0275
695.0337	0.0055
695.2157	-0.0051
695.3975	-0.0005
695.5794	-0.0077
695.7613	0.0223
695.9431	-0.0385
696.1249	-0.0052
696.3067	-0.0126
696.4885	-0.0055
696.6703	0.0038
696.852	-0.0058
697.0337	-0.0059
697.2154	0.0109
697.3971	-0.0061
697.5788	-0.001
697.7605	-0.0097
697.9421	0.0029
698.1237	0.0052
698.3053	0.0175
698.4869	-0.0139
698.6685	0.009
698.85	-0.0187
699.0315	0.0122
699.213	-0.0152
699.3945	0.0137
699.576	-0.0067
699.7575	-0.0026
699.9389	-0.0066
700.1203	-0.02
700.3017	-0.0368
700.4831	-0.0113
700.6645	0.0086
700.8458	0.0017
701.0271	-0.0121
701.2084	-0.0251
701.3897	-0.0134
701.571	-0.0047
701.7523	-0.0194
701.9335	0.0143
702.1147	-0.0141
702.2959	0.0102
702.4771	0.0302
702.6583	0.0077
702.8394	-0.0138
703.0205	-0.003
703.2016	-0.0134
703.3827	0.0281
703.5638	-0.0075
703.7449	-0.0114
703.9259	0.0069
704.1069	0.0192
704.2879	0.0181
704.4689	0.0023
704.6499	-0.0465
704.8308	-0.0202
705.0117	-0.0228
705.1927	0.0381
705.3735	0.0225
705.5544	0.03
705.7353	0.0186
705.9161	0.0001
706.0969	-0.0017
706.2777	0.0231
706.4585	0.0133
706.6393	0.0028
706.82	-0.02
707.0007	0.0027
707.1815	0.0087
707.3621	-0.0042
707.5428	0.0108
707.7235	0.0246
707.9041	-0.0065
708.0847	-0.0161
708.2653	-0.0048
708.4459	0.0136
708.6265	0.0018
708.807	-0.0149
708.9875	-0.0028
709.168	-0.0013
709.3485	-0.0034
709.529	0.0091
709.7095	-0.0136
709.8899	0.0291
710.0703	-0.0022
710.2507	-0.0188
710.4311	0.0101
710.6115	0.0031
710.7918	-0.0192
710.9721	-0.0336
711.1524	0.0118
711.3327	-0.0062
711.513	-0.0043
711.6932	-0.0084
711.8735	0.0018
712.0537	-0.0136
712.2339	0.0035
712.4141	0.033
712.5942	-0.0145
712.7744	-0.0088
712.9545	0.0178
713.1346	0.0106
713.3147	0.0015
713.4947	0.0046
713.6748	-0.0094
713.8548	0.0189
714.0348	0.0158
714.2148	-0.018
714.3948	0.0324
714.5748	-0.0106
714.7547	-0.0049
714.9346	-0.005
715.1145	-0.0042
715.2944	-0.0002
715.4743	-0.0193
715.6541	-0.0056
715.834	0.0043
716.0138	0.0118
716.1936	-0.0139
716.3733	0.0042
716.5531	-0.003
716.7328	-0.0335
716.9126	-0.0464
717.0923	0.0022
717.2719	-0.0036
717.4516	-0.0083
717.6312	-0.0224
717.8109	0.0219
717.9905	0.0224
718.1701	-0.0228
718.3496	0.0129
718.5292	-0.0238
718.7087	0.0125
718.8882	0.0291
719.0677	-0.0348
719.2472	0.0099
719.4267	0.0104
719.6061	-0.0062
719.7856	-0.0088
719.965	-0.0032
720.1443	-0.0321
720.3237	0.0204
720.5031	0.0151
720.6824	0.0017
720.8617	-0.0029
721.041	0.0155
721.2203	-0.0038
721.3995	-0.017
721.5788	-0.0003
721.758	0.0156
721.9372	0.0207
722.1164	0.0052
722.2956	0.0036
722.4747	0.0028
722.6538	0.0059
722.8329	-0.0309
723.012	0.0135
723.1911	-0.0216
723.3702	-0.0112
723.5492	-0.0091
723.7282	-0.0062
723.9072	-0.0147
724.0862	0.0132
724.2652	-0.0071
724.4441	0.0109
724.623	-0.0042
724.8019	-0.0082
724.9808	0.0084
725.1597	-0.0058
725.3385	-0.0079
725.5174	0.0334
725.6962	0.0025
725.875	-0.0026
726.0538	0.0001
726.2325	-0.0179
726.4112	0.0124
726.59	0.0001
726.7687	0.0107
726.9474	0.0018
727.126	-0.0019
727.3047	-0.003
727.4833	0.0368
727.6619	0.029
727.8405	0.0095
728.0191	-0.0292
728.1976	-0.047
728.3762	-0.0298
728.5547	0.0016
728.7332	0.0016
728.9116	-0.062
729.0901	0.0348
729.2686	-0.0154
729.447	-0.0262
729.6254	0.0004
729.8038	-0.005
729.9821	0.0094
730.1605	-0.0304
730.3388	-0.0219
730.5171	-0.0023
730.6954	0.0159
730.8737	0.0046
731.0519	0.0092
731.2302	0.0031
731.4084	0.0007
731.5866	-0.0056
731.7648	0.0058
731.9429	-0.0078
732.1211	0.01
732.2992	-0.0085
732.4773	-0.0061
732.6554	-0.0107
732.8335	0.009
733.0115	0.0063
733.1896	-0.0096
733.3676	-0.0126
733.5456	0.0073
733.7235	0.001
733.9015	0.0001
734.0794	-0.0175
734.2574	0.0035
734.4353	-0.0088
734.6131	-0.0207
734.791	0.002
734.9689	0.0024
735.1467	-0.0142
735.3245	0.0079
735.5023	0.0079
735.68	0.0012
735.8578	-0.0273
736.0355	-0.0053
736.2132	-0.0079
736.3909	-0.0105
736.5686	0.0012
736.7463	-0.0281
736.9239	0.01
737.1015	-0.0085
737.2791	0.0058
737.4567	-0.0027
737.6343	-0.0074
737.8118	0.0072
737.9894	-0.0066
738.1669	0.0127
738.3444	0.006
738.5218	0.0107
738.6993	-0.0224
738.8767	-0.0063
739.0541	0.0033
739.2315	0.0001
739.4089	0.0058
739.5863	-0.0021
739.7636	0.0029
739.9409	0.02
740.1182	-0.0119
740.2955	-0.0367
740.4728	0.0327
740.65	0.0016
740.8272	-0.0079
741.0044	0.01
741.1816	0.0129
741.3588	-0.0054
741.5359	-0.0076
741.7131	0.0261
741.8902	-0.0119
742.0673	0.0091
742.2444	-0.0186
742.4214	0.0009
742.5985	-0.0048
742.7755	-0.0278
742.9525	0.0029
743.1295	-0.0486
743.3064	-0.0051
743.4834	-0.0154
743.6603	0.0027
743.8372	-0.0097
744.0141	-0.0123
744.191	-0.0081
744.3678	0.0286
744.5446	0.0088
744.7215	-0.0026
744.8982	-0.0003
745.075	0.003
745.2518	-0.0051
745.4285	0.0039
745.6052	-0.0123
745.7819	0.0128
745.9586	0.0528
746.1353	-0.0162
746.3119	0.0046
746.4885	0.0139
746.6651	-0.0546
746.8417	-0.0221
747.0183	-0.0263
747.1948	0.0079
747.3714	-0.0175
747.5479	0.016
747.7244	-0.0541
747.9008	0.0293
748.0773	0.0273
748.2537	0.0248
748.4301	0.0142
748.6065	-0.0332
748.7829	0.0403
748.9593	0.0087
749.1356	0.0175
749.3119	0.0001
749.4882	-0.0021
749.6645	-0.0083
749.8408	-0.0148
750.017	-0.0131
750.1933	0.0245
750.3695	0.0117
750.5457	-0.0114
750.7218	0.0207
750.898	0.0108
751.0741	-0.0008
751.2502	-0.0005
751.4263	0.0014
751.6024	0.0127
751.7784	-0.0352
751.9545	-0.0461
752.1305	0.0195
752.3065	0.0298
752.4825	-0.0252
752.6584	-0.0171
752.8344	0.0272
753.0103	-0.0314
753.1862	-0.0039
753.3621	-0.0146
753.5379	-0.0246
753.7138	-0.0264
753.8896	0.0342
754.0654	0.02
754.2412	0.0025
754.417	0.0023
754.5927	-0.0104
754.7685	-0.0158
754.9442	-0.0053
755.1199	-0.0166
755.2956	0.0208
755.4712	-0.0124
755.6469	-0.0008
755.8225	-0.0088
755.9981	0.0106
756.1736	0.0069
756.3492	-0.0104
756.5248	-0.0084
756.7003	-0.0105
756.8758	0.0005
757.0513	0.0001
757.2267	-0.0066
757.4022	-0.0053
757.5776	-0.0052
757.753	-0.0034
757.9284	0.0018
758.1038	-0.0042
758.2791	-0.0193
758.4545	-0.0189
758.6298	0.0032
758.8051	-0.0108
758.9803	-0.0268
759.1556	-0.024
759.3308	0.0104
759.506	0.0286
759.6812	-0.0015
759.8564	-0.0304
760.0316	0.0129
760.2067	-0.0258
760.3819	0.0048
760.557	0.0033
760.732	0.0228
760.9071	-0.0073
761.0821	-0.0071
761.2572	0.0075
761.4322	-0.0068
761.6072	-0.0086
761.7821	0.0093
761.9571	-0.0036
762.132	-0.0066
762.3069	0.0148
762.4818	0.0073
762.6567	-0.0013
762.8316	0.0001
763.0064	-0.0206
763.1812	-0.0197
763.356	-0.0026
763.5308	-0.0012
763.7055	-0.0119
763.8803	-0.006
764.055	0.0061
764.2297	-0.0171
764.4044	0.0032
764.579	-0.0248
764.7537	-0.0222
764.9283	-0.0181
765.1029	0.0121
765.2775	-0.0275
765.4521	-0.0123
765.6266	-0.0135
765.8011	-0.0053
765.9756	-0.0053
766.1501	0.0109
766.3246	-0.018
766.4991	-0.0211
766.6735	-0.0068
766.8479	-0.0047
767.0223	-0.0133
767.1967	-0.0252
767.371	0.0128
767.5454	0.024
767.7197	-0.0155
767.894	-0.0107
768.0683	-0.0257
768.2425	-0.0006
768.4168	0.0316
768.591	-0.0125
768.7652	0.002
768.9394	-0.0154
769.1135	-0.0179
769.2877	0.0092
769.4618	0.0391
769.6359	-0.0104
769.81	-0.011
769.984	0.0074
770.1581	-0.0025
770.3321	-0.0163
770.5061	0.0001
770.6801	0.0106
770.8541	-0.0014
771.028	-0.0045
771.202	-0.0296
771.3759	-0.0239
771.5498	0.0001
771.7236	0.002
771.8975	-0.0019
772.0713	0.0006
772.2451	-0.0106
772.4189	-0.0058
772.5927	-0.0423
772.7665	0.0372
772.9402	0.0295
773.1139	-0.0211
773.2876	-0.0107
773.4613	0.0014
773.635	-0.0032
773.8086	-0.0404
773.9822	0.0047
774.1558	0.0009
774.3294	-0.0342
774.503	0.0107
774.6765	0.0394
774.8501	0.0262
775.0236	0.0266
775.1971	-0.0021
775.3705	-0.0013
775.544	0.0512
775.7174	0.0122
775.8908	0.0694
776.0642	0.0097
776.2376	-0.0573
776.4109	0.0497
776.5843	-0.0112
776.7576	0.0232
776.9309	0.0546
777.1041	-0.0215
777.2774	0.0279
777.4506	0.0039
777.6238	0.0072
777.797	-0.0013
777.9702	0.0375
778.1434	-0.0048
778.3165	-0.0253
778.4896	-0.0167
778.6627	0.0091
778.8358	-0.0224
779.0089	-0.0074
779.1819	-0.0061
779.3549	0.0258
779.5279	-0.0144
779.7009	-0.0091
779.8739	-0.0448
780.0468	0.0417
780.2197	-0.0614
780.3926	-0.007
780.5655	-0.001
780.7384	0.0049
780.9112	0.0026
781.0841	-0.0149
781.2569	-0.0207
781.4297	0.0279
781.6024	0.0135
781.7752	-0.0203
781.9479	-0.0232
782.1206	-0.0072
782.2933	0.0084
782.466	-0.0448
782.6386	0.003
782.8113	-0.0111
782.9839	0.0124
783.1565	0.0038
783.329	-0.0139
783.5016	-0.0146
783.6741	-0.0235
783.8466	-0.0853
784.0191	-0.0119
784.1916	-0.0269
784.3641	-0.045
784.5365	-0.0304
784.7089	0.0076
784.8813	0.0062
785.0537	-0.0342
785.2261	-0.0165
785.3984	-0.0261
785.5707	0.0303
785.743	-0.059
785.9153	-0.0025
786.0876	-0.0437
786.2598	0.0046
786.432	-0.0149
786.6042	0.0016
786.7764	-0.0029
786.9486	0.0635
787.1207	0.0453
787.2928	-0.0246
787.4649	-0.0161
787.637	0.0065
787.8091	-0.0017
787.9811	0.0192
788.1532	0.0134
788.3252	0.0021
788.4972	-0.0103
788.6691	0.0263
788.8411	0.002
789.013	-0.0278
789.1849	0.0031
789.3568	-0.0021
789.5287	-0.0495
789.7005	0.0313
789.8723	-0.0612
790.0442	-0.0491
790.2159	-0.0045
790.3877	0.0125
790.5595	-0.0069
790.7312	-0.0429
790.9029	0.0169
791.0746	0.0212
791.2463	0.0104
791.4179	-0.0563
791.5896	-0.0223
791.7612	-0.0388
791.9328	-0.0122
792.1044	-0.0607
792.2759	0.0339
792.4474	-0.0509
792.619	-0.011
792.7905	-0.0333
792.9619	-0.0301
793.1334	-0.0593
793.3048	-0.0134
793.4762	-0.0322
793.6476	0.0157
793.819	-0.0224
793.9904	-0.0021
794.1617	0.0051
794.333	-0.0004
794.5043	-0.0496
794.6756	0.016
794.8469	0.0002
795.0181	-0.0044
795.1893	-0.0281
795.3605	-0.0292
795.5317	0.0329
795.7029	0.0269
795.874	0.0329
796.0452	0.0582
796.2163	0.0328
796.3873	0.0598
796.5584	0.0678
796.7294	-0.1165
796.9005	-0.0601
797.0715	0.0184
797.2425	-0.0574
797.4134	0.0027
797.5844	0.0444
797.7553	-0.0086
797.9262	-0.0325
798.0971	0.022
798.2679	-0.0365
798.4388	-0.047
798.6096	-0.0282
798.7804	-0.016
798.9512	-0.0171
799.122	0.0846
799.2927	-0.0864
799.4635	0.0303
799.6342	-0.0248
799.8049	0.0446
799.9755	0.0204
800.1462	0.0325
800.3168	-0.0184
800.4874	-0.0147
800.658	0.0646
800.8286	-0.0512
800.9991	0.0406
801.1696	-0.053
801.3402	-0.1225
801.5106	-0.0195
801.6811	0.0192
801.8516	-0.0251
802.022	0.0326
802.1924	-0.1134
802.3628	-0.0176
802.5332	-0.1016
802.7035	-0.0967
802.8739	0.0636
803.0442	0.0059
803.2145	0.0024
803.3847	-0.0238
803.555	-0.0373
803.7252	0.0245
803.8954	-0.0254
804.0656	-0.0187
804.2358	-0.0335
804.4059	-0.007
804.5761	0.0076
804.7462	-0.0685
804.9163	-0.0834
805.0864	-0.0163
805.2564	0.0119
805.4264	0.0283
805.5965	0.1076
805.7665	0.0072
805.9364	-0.0838
806.1064	-0.0467
806.2763	0.0101
806.4462	-0.0103
806.6161	-0.0474
806.786	-0.0214
806.9559	-0.0099
807.1257	-0.0028
807.2955	0.0164
807.4653	-0.0897
807.6351	0.0555
807.8048	-0.0837
807.9746	-0.0555
808.1443	0.075
808.314	0.0292
808.4837	-0.0392
808.6533	-0.0083
808.8229	-0.0336
808.9926	-0.0355
809.1622	-0.0241
809.3317	-0.0886
809.5013	0.0561
809.6708	0.0622
809.8403	-0.0089
810.0098	0.0541
810.1793	0.0836
810.3488	0.0405
810.5182	0.0201
810.6876	0.0105
810.857	-0.0018
811.0264	-0.0295
811.1958	-0.0749
811.3651	-0.0457
811.5344	-0.1031
811.7037	-0.0755
811.873	0.0006
812.0422	0.0055
812.2115	-0.0496
812.3807	0.0595
812.5499	0.0777
812.7191	0.0123
812.8882	-0.0081
813.0574	-0.2106
813.2265	0.0377
813.3956	-0.0015
813.5646	0.0529
813.7337	-0.072
813.9027	-0.0165
814.0718	-0.0795
814.2407	-0.0881
814.4097	-0.0363
814.5787	0.002
814.7476	-0.0162
814.9165	-0.0058
815.0854	-0.0283
815.2543	-0.118
815.4232	-0.0735
815.592	-0.004
815.7608	-0.0362
815.9296	0.035
816.0984	-0.0347
816.2671	-0.2214
816.4359	0.0196
816.6046	0.0829
816.7733	-0.1056
816.942	0.0494
817.1106	-0.2849
817.2793	-0.0325
817.4479	-0.0903
817.6165	-0.0301
817.785	-0.0351
817.9536	0.0787
818.1221	0.1217
818.2906	0.0743
818.4591	0.0287
818.6276	-0.0347
818.7961	0.0096
818.9645	0.0251
819.1329	0.3314
819.3013	0.0191
819.4697	0.4217
819.638	0.032
819.8064	-0.0922
819.9747	0.0831
820.143	0.008
820.3113	0.1171
820.4795	0.0627
820.6477	-0.0526
820.816	0.1644
820.9842	-0.0818
821.1523	0.0064
821.3205	0.0659
821.4886	-0.051
821.6567	-0.0336
821.8248	0.0051
821.9929	0.0394
822.1609	0.0274
822.329	0.126
822.497	-0.0105
822.665	0.0098
822.833	-0.0874
823.0009	-0.2056
823.1688	0.0819
823.3367	-0.0598
823.5046	0.1493
823.6725	0.0473
823.8404	-0.0456
824.0082	0.0771
824.176	0.075
824.3438	0.0133
824.5116	0.2973
824.6793	0.0012
824.847	0.1159
825.0147	0.1034
825.1824	0.049
825.3501	0.18
825.5177	0.0067
825.6854	0.2319
825.853	-0.0591
826.0206	-0.0492
826.1881	-0.0334
826.3557	0.242
826.5232	0.0222
826.6907	0.0822
826.8582	0.0662
827.0257	-0.1538
827.1931	-0.0074
827.3605	-0.1078
827.528	-0.0206
827.6953	0.1815
827.8627	0.0011
828.03	0.1843
828.1974	-0.1046
828.3647	0.1287
828.532	0.073
828.6992	0.0345
828.8665	-0.0548
829.0337	-0.0326
829.2009	0.0947
829.3681	-0.0608
829.5352	0.0748
829.7024	0.2636
829.8695	-0.0367
830.0366	0.2738
830.2037	0.1394
830.3707	-0.0175
830.5378	0.208
830.7048	-0.17
830.8718	-0.1683
831.0388	-0.0948
831.2057	-0.1171
831.3727	0.094
831.5396	-0.0335
831.7065	0.1036
831.8734	-0.4473
832.0402	0.1134
832.2071	-0.0206
832.3739	0.0143
832.5407	-0
832.7075	-0.1139
832.8742	0.2494
833.041	0.0024
833.2077	-0.1764
833.3744	-0.0522
833.541	-0.0752
833.7077	0.3577
833.8743	0.0108
834.0409	0.0056
834.2075	0.0956
834.3741	0.0623
834.5407	-0.2581
834.7072	-0.026
834.8737	0.2835
835.0402	-0.0943
835.2067	0.0207
835.3731	0.1059
835.5395	-0.0291
835.706	-0.0691
835.8723	-0.0609
836.0387	-0.011
836.2051	0.5103
836.3714	-0
836.5377	-0.223
836.704	-0.1127
836.8703	-0.0988
837.0365	0.1309
837.2027	-0.494
837.3689	0.0024
837.5351	0.0326
837.7013	0.0777
837.8674	-0.8618
838.0335	0.0597
838.1997	0.8741
838.3657	-0
838.5318	-0.3368
838.6978	-0.1915
838.8639	0.1401
839.0299	0.2553
839.1958	0.6868
839.3618	0.1023
839.5277	-0.0465
839.6937	-0.5382
839.8596	0.0683
840.0254	0.2744
840.1913	0.3162
840.3571	-0.2971
840.523	-0.0181
840.6888	-0.0362
840.8545	-0.0513
841.0203	-0.1168
841.186	0.1041
841.3517	-0.0571
841.5174	0.3912
841.6831	0.1967
841.8488	0.4425
842.0144	-0.0261
842.18	-0.1682
842.3456	0.0247
842.5112	-0
842.6767	-0.0326
842.8422	0.3162
843.0077	-0.0739
843.1732	-0.2544
843.3387	-0.1706
843.5042	0.0445
843.6696	-0
843.835	-0.2899
844.0004	-0.1632
844.1657	0.6109
844.3311	-0.5343
844.4964	0.2337
844.6617	-0
844.827	0.0468
844.9923	-0.0131
845.1575	-0
845.3227	-0.1837
845.4879	-0.0064
845.6531	-0.0405
845.8183	0.1534
845.9834	-0
846.1485	-0.403
846.3136	0.259
846.4787	0.331
846.6438	0.4955
846.8088	-1.2632
846.9738	-0
847.1388	0.1628
847.3038	-0.1971
847.4687	-0.9047
847.6337	1.0431
847.7986	0.5637
847.9635	-0.1442
848.1284	-0
848.2932	-0.0589
848.458	0.064
848.6228	0.2416
848.7876	-0
848.9524	-0.0643
849.1172	-0.0241
849.2819	-0
849.4466	-0.1376
849.6113	-0.2179
849.7759	-0
849.9406	-0.3892
850.1052	0.2823
850.2698	-1.0768
850.4344	0.1114
850.599	-0.2861
850.7635	0.1861
850.928	0.1251
851.0925	-0.1724
851.257	0.1259
851.4215	-0
851.5859	-0.0925
851.7503	-0
851.9147	-0
852.0791	-0.4982
852.2434	-0.0164
852.4078	-0
852.5721	-0.1686
852.7364	0.4292
852.9007	-0.2857
853.0649	0.0731
853.2291	0.2223
853.3934	0.2323
853.5575	-0.1423
853.7217	-0
853.8859	0.0874
854.05	-0.9867
854.2141	-0
854.3782	-0
854.5423	-0.3778
854.7063	-0.1673
854.8703	-0.0319
855.0343	0.1545
855.1983	-0.0757
855.3623	0.3208
855.5262	-0.881
855.6901	0.2972
855.854	-0.3242
856.0179	-0
856.1818	-0.5447
856.3456	0.3148
856.5094	-0
856.6732	-0.8291
856.837	0.4571
857.0008	-0
857.1645	-0
857.3282	0.0982
857.4919	-0.0891
857.6556	0.0256
857.8192	-0.2629
857.9828	-0.3146
858.1465	-0.0512
858.31	-1.5413
858.4736	0.0533
858.6372	-0.2196
858.8007	-1.3283
858.9642	0.3073
859.1277	-0.2274
859.2911	0.3288
859.4546	-0
859.618	-0.2472
859.7814	-0
859.9448	-0
860.1081	-0
860.2715	-0.2693
860.4348	-0.2081
860.5981	-0.4437
860.7614	0.4911
860.9246	0.8581
861.0879	-0.2427
861.2511	0.2485
861.4143	-0
861.5774	0.3488
861.7406	0.0131
861.9037	-0
862.0668	-0.404
862.2299	-2.264
862.393	-0
862.556	-0
862.7191	0.07
862.8821	0.3975
863.0451	-0
863.208	0.5609
863.371	-0
863.5339	-0.1884
863.6968	0.0918
863.8597	-0.246
864.0225	-0
864.1854	-0
864.3482	-0
864.511	-0.1587
864.6737	-0.1236
864.8365	0.0749
864.9992	-0
865.1619	-0.0488
865.3246	0.063
865.4873	-0.69
865.65	-0.7414
865.8126	-0
865.9752	-0.2096
866.1378	-0.6156
866.3004	0.3427
866.4629	-0.1889
866.6254	-0
866.7879	0.2337
866.9504	-0
867.1129	0.2601
867.2753	-0.253
867.4377	0.0436
867.6001	0.4991
867.7625	-0.2619
867.9249	0.5091
868.0872	0.0984
868.2495	0.2232
868.4118	0.0329
868.5741	-0.8311
868.7363	-0
868.8986	-0
869.0608	0.2834
869.223	0.2327
869.3851	-0
869.5473	-1.1237
869.7094	-0.2793
869.8715	0.343
870.0336	-0.0583
870.1957	-0
870.3577	-0
870.5197	0.0318
870.6817	-0
870.8437	0.356
871.0057	-0
871.1676	0.1754
871.3295	-0
871.4914	-0
871.6533	0.3611
871.8151	-0.4029
871.977	0.0025
872.1388	-1.0434
872.3006	0.2805
872.4623	-0.7233
872.6241	-0
872.7858	-0.2124
872.9475	-0
873.1092	0.1327
873.2709	0.663
873.4325	-0
873.5941	-0
873.7557	-0
873.9173	-0.8475
874.0789	0.3427
874.2404	-0.4004
874.4019	-0.03
874.5634	0.4046
874.7249	-0.1507
874.8863	2.0212
875.0478	0.2775
875.2092	0.5676
875.3706	-0
875.5319	0.1311
875.6933	-0.3374
875.8546	-0
876.0159	0.0163
876.1772	1.5185
876.3385	-0
876.4997	-0.177
876.6609	-0.7318
876.8221	0.1715
876.9833	0.2348
877.1445	-0.2182
877.3056	0.5037
877.4667	-0
877.6278	0.6573
877.7889	2.49
877.9499	-0.4331
878.111	0.0097
878.272	-0
878.433	0.1574
878.5939	0.3974
878.7549	-0.7472
878.9158	-0
879.0767	-0
879.2376	-0
879.3984	0.3969
879.5593	0.1629
879.7201	-0.1174
879.8809	-0
880.0417	0.1014
880.2024	0.8639
880.3632	0.6302
880.5239	0.0642
880.6846	-0.11
880.8452	-0
881.0059	-0
881.1665	0.3035
881.3271	-0
881.4877	-0.1571
881.6483	-0
881.8088	-0.1701
881.9693	0.6882
882.1298	0.6882
882.2903	0.6882
