Data from D4ACN5uM480nmA_Absorbance_12-07-59-835.txt Node
Date: Fri Feb 21 12:07:59 GMT 2025
User: LASERRRRR
Spectrometer: FLMT03099
Trigger mode: 0
Integration Time (sec): 1.500000E-2
Scans to average: 1
Electric dark correction enabled: true
Nonlinearity correction enabled: false
Boxcar width: 0
XAxis mode: Wavelengths
Number of Pixels in Spectrum: 3648
>>>>>Begin Spectral Data<<<<<
179.3399	0.152
179.5586	0.152
179.7771	0.152
179.9957	0.1316
180.2143	-0.0231
180.4329	-0
180.6514	-0.3655
180.8699	0.5911
181.0885	-0
181.307	0.2893
181.5255	0.2723
181.744	-0
181.9625	0.1523
182.181	-0
182.3994	-0.7347
182.6179	-0.7782
182.8363	-0
183.0547	-0
183.2732	0.0093
183.4916	0.345
183.71	0.1159
183.9284	0.1891
184.1467	-0
184.3651	0.5813
184.5835	0.019
184.8018	0.1409
185.0201	0.4202
185.2385	0.0555
185.4568	0.3979
185.6751	0.2767
185.8934	0.3436
186.1117	0.3364
186.3299	0.1278
186.5482	0.0529
186.7664	0.3108
186.9847	0.2496
187.2029	0.476
187.4211	0.0544
187.6393	0.1563
187.8575	0.1786
188.0757	0.3165
188.2939	0.1778
188.512	0.2551
188.7302	0.1451
188.9483	0.1344
189.1665	1.525
189.3846	0.3326
189.6027	0.0174
189.8208	0.3279
190.0389	0.299
190.257	0.2299
190.475	0.2485
190.6931	0.203
190.9111	0.4305
191.1292	0.2047
191.3472	0.2945
191.5652	0.537
191.7832	0.4608
192.0012	0.3481
192.2192	0.3691
192.4371	0.3566
192.6551	0.4517
192.873	0.2601
193.091	0.3292
193.3089	0.1209
193.5268	0.3595
193.7447	0.3364
193.9626	0.3303
194.1805	0.3063
194.3984	0.5218
194.6162	0.5232
194.8341	0.6295
195.0519	0.5865
195.2697	0.4992
195.4875	0.5882
195.7054	0.5852
195.9231	0.5143
196.1409	0.4978
196.3587	0.5933
196.5765	0.5748
196.7942	0.6722
197.012	0.5565
197.2297	0.448
197.4474	0.7508
197.6651	0.6273
197.8828	0.707
198.1005	0.6701
198.3182	0.5486
198.5358	0.6227
198.7535	0.6801
198.9711	0.6198
199.1888	0.6095
199.4064	0.5938
199.624	0.6242
199.8416	0.5751
200.0592	0.5265
200.2767	0.564
200.4943	0.7195
200.7119	0.5686
200.9294	0.6132
201.1469	0.6312
201.3645	0.6871
201.582	0.4939
201.7995	0.6026
202.017	0.5387
202.2344	0.6061
202.4519	0.5592
202.6694	0.5562
202.8868	0.5439
203.1042	0.5969
203.3217	0.5139
203.5391	0.5498
203.7565	0.4855
203.9739	0.5245
204.1913	0.5205
204.4086	0.5362
204.626	0.5435
204.8433	0.4673
205.0607	0.5647
205.278	0.5492
205.4953	0.4672
205.7126	0.4976
205.9299	0.4859
206.1472	0.4834
206.3644	0.4703
206.5817	0.4864
206.7989	0.4469
207.0162	0.4434
207.2334	0.4416
207.4506	0.4447
207.6678	0.4139
207.885	0.4291
208.1022	0.4461
208.3194	0.4445
208.5365	0.4829
208.7537	0.431
208.9708	0.4901
209.1879	0.4343
209.405	0.4253
209.6222	0.4203
209.8392	0.3996
210.0563	0.4212
210.2734	0.3944
210.4905	0.4218
210.7075	0.4195
210.9245	0.4353
211.1416	0.411
211.3586	0.4196
211.5756	0.3919
211.7926	0.4433
212.0096	0.4171
212.2265	0.4103
212.4435	0.4186
212.6604	0.3897
212.8774	0.4182
213.0943	0.4029
213.3112	0.3952
213.5281	0.4157
213.745	0.3919
213.9619	0.3894
214.1788	0.4232
214.3956	0.4042
214.6125	0.4098
214.8293	0.4097
215.0461	0.4026
215.2629	0.4086
215.4798	0.3804
215.6965	0.3868
215.9133	0.3898
216.1301	0.3889
216.3469	0.4157
216.5636	0.4151
216.7803	0.4228
216.9971	0.4368
217.2138	0.4154
217.4305	0.4116
217.6472	0.4104
217.8639	0.4148
218.0805	0.4291
218.2972	0.4257
218.5138	0.4255
218.7305	0.4236
218.9471	0.4338
219.1637	0.424
219.3803	0.4164
219.5969	0.4019
219.8135	0.4212
220.0301	0.4261
220.2466	0.4279
220.4632	0.407
220.6797	0.4378
220.8962	0.4332
221.1127	0.4233
221.3292	0.449
221.5457	0.4359
221.7622	0.4393
221.9787	0.4433
222.1951	0.4289
222.4116	0.4454
222.628	0.456
222.8444	0.4389
223.0608	0.4475
223.2772	0.4403
223.4936	0.4588
223.71	0.4525
223.9264	0.4336
224.1427	0.4523
224.3591	0.4542
224.5754	0.4663
224.7917	0.4513
225.008	0.4677
225.2243	0.4581
225.4406	0.4548
225.6569	0.4662
225.8732	0.4759
226.0894	0.4644
226.3057	0.4456
226.5219	0.4525
226.7381	0.4739
226.9543	0.4706
227.1705	0.4815
227.3867	0.4798
227.6029	0.4856
227.8191	0.4798
228.0352	0.507
228.2513	0.4994
228.4675	0.4843
228.6836	0.5049
228.8997	0.4923
229.1158	0.4837
229.3319	0.503
229.548	0.5016
229.764	0.4931
229.9801	0.5029
230.1961	0.5041
230.4121	0.5049
230.6282	0.503
230.8442	0.5193
231.0602	0.5195
231.2761	0.5295
231.4921	0.5164
231.7081	0.5238
231.924	0.5105
232.14	0.5221
232.3559	0.5421
232.5718	0.5352
232.7877	0.5362
233.0036	0.5247
233.2195	0.5444
233.4353	0.5416
233.6512	0.5335
233.867	0.5305
234.0829	0.5268
234.2987	0.5386
234.5145	0.5382
234.7303	0.5391
234.9461	0.5252
235.1619	0.5347
235.3776	0.5235
235.5934	0.5354
235.8091	0.5215
236.0249	0.5435
236.2406	0.5334
236.4563	0.5374
236.672	0.5315
236.8877	0.5474
237.1034	0.5336
237.319	0.5407
237.5347	0.5283
237.7503	0.5321
237.966	0.5254
238.1816	0.521
238.3972	0.5311
238.6128	0.5413
238.8284	0.5336
239.0439	0.5375
239.2595	0.5315
239.475	0.5394
239.6906	0.5294
239.9061	0.5251
240.1216	0.5347
240.3371	0.5253
240.5526	0.5131
240.7681	0.5164
240.9836	0.511
241.199	0.5138
241.4145	0.501
241.6299	0.4967
241.8453	0.4945
242.0607	0.4912
242.2761	0.4785
242.4915	0.4691
242.7069	0.473
242.9223	0.4603
243.1376	0.471
243.353	0.4448
243.5683	0.4387
243.7836	0.4242
243.9989	0.4196
244.2142	0.4155
244.4295	0.4044
244.6448	0.3978
244.86	0.3897
245.0753	0.3841
245.2905	0.3755
245.5057	0.3746
245.721	0.3574
245.9362	0.3559
246.1514	0.3398
246.3665	0.3412
246.5817	0.3414
246.7969	0.3272
247.012	0.3191
247.2271	0.3052
247.4423	0.3102
247.6574	0.3111
247.8725	0.3042
248.0876	0.2947
248.3026	0.2788
248.5177	0.2774
248.7328	0.2765
248.9478	0.2754
249.1628	0.2637
249.3779	0.2633
249.5929	0.2687
249.8079	0.2552
250.0228	0.2508
250.2378	0.2497
250.4528	0.2534
250.6677	0.2496
250.8827	0.2426
251.0976	0.2406
251.3125	0.2359
251.5274	0.2311
251.7423	0.2334
251.9572	0.2236
252.172	0.219
252.3869	0.2208
252.6017	0.217
252.8166	0.2182
253.0314	0.2169
253.2462	0.2095
253.461	0.2127
253.6758	0.2172
253.8906	0.2089
254.1053	0.2057
254.3201	0.1986
254.5348	0.2057
254.7496	0.206
254.9643	0.2055
255.179	0.198
255.3937	0.1985
255.6083	0.2054
255.823	0.1986
256.0377	0.1995
256.2523	0.2003
256.467	0.1979
256.6816	0.199
256.8962	0.1931
257.1108	0.1882
257.3254	0.188
257.54	0.1928
257.7545	0.1927
257.9691	0.1888
258.1836	0.1905
258.3981	0.1861
258.6127	0.1848
258.8272	0.185
259.0417	0.1787
259.2561	0.1911
259.4706	0.1874
259.6851	0.1832
259.8995	0.1788
260.114	0.1828
260.3284	0.1908
260.5428	0.1791
260.7572	0.1853
260.9716	0.1866
261.186	0.1825
261.4003	0.1847
261.6147	0.1818
261.829	0.1808
262.0433	0.1829
262.2577	0.1934
262.472	0.1793
262.6863	0.186
262.9005	0.1885
263.1148	0.1783
263.3291	0.1885
263.5433	0.1875
263.7576	0.1826
263.9718	0.1868
264.186	0.1879
264.4002	0.1842
264.6144	0.1882
264.8286	0.1835
265.0427	0.1894
265.2569	0.187
265.471	0.1844
265.6851	0.1892
265.8993	0.1869
266.1134	0.1864
266.3275	0.1909
266.5415	0.1821
266.7556	0.179
266.9697	0.184
267.1837	0.1842
267.3978	0.1915
267.6118	0.1804
267.8258	0.1887
268.0398	0.1827
268.2538	0.1818
268.4677	0.179
268.6817	0.1769
268.8957	0.1798
269.1096	0.1778
269.3235	0.1859
269.5374	0.1797
269.7514	0.1786
269.9652	0.1853
270.1791	0.1825
270.393	0.1884
270.6068	0.1797
270.8207	0.1811
271.0345	0.171
271.2483	0.1809
271.4622	0.18
271.676	0.1736
271.8897	0.1676
272.1035	0.1766
272.3173	0.1792
272.531	0.1725
272.7448	0.1724
272.9585	0.175
273.1722	0.174
273.3859	0.1704
273.5996	0.1724
273.8133	0.1728
274.0269	0.1787
274.2406	0.1729
274.4542	0.1644
274.6679	0.1726
274.8815	0.1738
275.0951	0.169
275.3087	0.18
275.5223	0.167
275.7358	0.1745
275.9494	0.1738
276.1629	0.1755
276.3765	0.1683
276.59	0.1775
276.8035	0.1779
277.017	0.1748
277.2305	0.1738
277.444	0.1767
277.6574	0.1756
277.8709	0.1752
278.0843	0.1754
278.2978	0.177
278.5112	0.179
278.7246	0.1778
278.938	0.1795
279.1513	0.1805
279.3647	0.1782
279.5781	0.1804
279.7914	0.1818
280.0047	0.178
280.2181	0.1791
280.4314	0.1765
280.6447	0.1841
280.8579	0.18
281.0712	0.182
281.2845	0.183
281.4977	0.1884
281.711	0.1819
281.9242	0.1843
282.1374	0.1848
282.3506	0.1864
282.5638	0.185
282.7769	0.1857
282.9901	0.1865
283.2033	0.1872
283.4164	0.1795
283.6295	0.1898
283.8426	0.1862
284.0557	0.185
284.2688	0.187
284.4819	0.1899
284.695	0.1947
284.908	0.191
285.1211	0.1881
285.3341	0.1954
285.5471	0.1958
285.7601	0.1902
285.9731	0.1946
286.1861	0.1942
286.3991	0.1917
286.612	0.1961
286.825	0.1971
287.0379	0.1974
287.2508	0.1882
287.4637	0.2006
287.6766	0.1945
287.8895	0.1902
288.1024	0.1964
288.3152	0.1963
288.5281	0.1972
288.7409	0.1981
288.9538	0.1895
289.1666	0.197
289.3794	0.2022
289.5922	0.1998
289.8049	0.2052
290.0177	0.197
290.2304	0.1956
290.4432	0.1949
290.6559	0.1958
290.8686	0.1983
291.0813	0.1996
291.294	0.2081
291.5067	0.204
291.7194	0.1933
291.932	0.2029
292.1447	0.1984
292.3573	0.201
292.5699	0.2011
292.7825	0.2041
292.9951	0.2072
293.2077	0.194
293.4203	0.198
293.6328	0.1934
293.8454	0.1946
294.0579	0.2011
294.2704	0.2032
294.4829	0.2014
294.6954	0.2023
294.9079	0.2027
295.1204	0.2033
295.3328	0.1993
295.5453	0.1999
295.7577	0.1983
295.9701	0.2035
296.1825	0.1939
296.3949	0.2027
296.6073	0.201
296.8197	0.2021
297.0321	0.2027
297.2444	0.2037
297.4567	0.1973
297.6691	0.1994
297.8814	0.1974
298.0937	0.2024
298.306	0.1991
298.5182	0.2027
298.7305	0.2018
298.9428	0.2
299.155	0.2007
299.3672	0.1993
299.5794	0.1959
299.7916	0.2004
300.0038	0.1957
300.216	0.2019
300.4282	0.1965
300.6403	0.195
300.8525	0.2007
301.0646	0.1937
301.2767	0.1961
301.4888	0.198
301.7009	0.1992
301.913	0.2005
302.125	0.1996
302.3371	0.1956
302.5491	0.1974
302.7612	0.1976
302.9732	0.1948
303.1852	0.1976
303.3972	0.1954
303.6092	0.194
303.8211	0.1873
304.0331	0.1907
304.245	0.1892
304.457	0.1996
304.6689	0.1914
304.8808	0.1914
305.0927	0.1912
305.3046	0.1916
305.5164	0.1882
305.7283	0.1879
305.9401	0.1814
306.152	0.1814
306.3638	0.1795
306.5756	0.1822
306.7874	0.1797
306.9992	0.1827
307.2109	0.1751
307.4227	0.1722
307.6344	0.1702
307.8462	0.1702
308.0579	0.1689
308.2696	0.1689
308.4813	0.1588
308.693	0.1668
308.9046	0.164
309.1163	0.1637
309.328	0.1548
309.5396	0.1605
309.7512	0.1593
309.9628	0.1526
310.1744	0.1556
310.386	0.149
310.5976	0.1478
310.8091	0.1483
311.0207	0.1482
311.2322	0.1469
311.4437	0.1405
311.6552	0.1445
311.8667	0.1371
312.0782	0.1468
312.2897	0.1425
312.5012	0.1383
312.7126	0.1353
312.924	0.1353
313.1355	0.1309
313.3469	0.1294
313.5583	0.1338
313.7696	0.1278
313.981	0.1286
314.1924	0.1253
314.4037	0.1234
314.6151	0.1278
314.8264	0.1279
315.0377	0.1284
315.249	0.1224
315.4603	0.1236
315.6716	0.128
315.8828	0.124
316.0941	0.1245
316.3053	0.1179
316.5165	0.1229
316.7277	0.1227
316.9389	0.1216
317.1501	0.1161
317.3613	0.1152
317.5724	0.1208
317.7836	0.1179
317.9947	0.1137
318.2058	0.12
318.417	0.1188
318.6281	0.1183
318.8391	0.1183
319.0502	0.1259
319.2613	0.1187
319.4723	0.1169
319.6834	0.1199
319.8944	0.1221
320.1054	0.1172
320.3164	0.1221
320.5274	0.1125
320.7383	0.1132
320.9493	0.1175
321.1602	0.1198
321.3712	0.1152
321.5821	0.1224
321.793	0.1141
322.0039	0.1163
322.2148	0.1211
322.4257	0.1147
322.6365	0.1224
322.8474	0.1092
323.0582	0.1184
323.269	0.1146
323.4798	0.1205
323.6906	0.1162
323.9014	0.1072
324.1122	0.1224
324.3229	0.1189
324.5337	0.1236
324.7444	0.1111
324.9551	0.1224
325.1658	0.1175
325.3765	0.1172
325.5872	0.1156
325.7979	0.1234
326.0085	0.1189
326.2192	0.1198
326.4298	0.1211
326.6404	0.1214
326.851	0.1192
327.0616	0.1314
327.2722	0.1263
327.4828	0.1227
327.6933	0.1211
327.9039	0.1173
328.1144	0.1203
328.3249	0.1191
328.5354	0.1187
328.7459	0.1215
328.9564	0.1243
329.1669	0.1266
329.3773	0.1186
329.5878	0.1226
329.7982	0.1256
330.0086	0.1231
330.219	0.1288
330.4294	0.1334
330.6398	0.1297
330.8502	0.1248
331.0605	0.1219
331.2708	0.1233
331.4812	0.117
331.6915	0.1214
331.9018	0.1303
332.1121	0.1276
332.3224	0.1256
332.5326	0.124
332.7429	0.1171
332.9531	0.1235
333.1633	0.1282
333.3735	0.1191
333.5837	0.1214
333.7939	0.1297
334.0041	0.1259
334.2143	0.1226
334.4244	0.1234
334.6346	0.1209
334.8447	0.1296
335.0548	0.1285
335.2649	0.1335
335.475	0.1269
335.685	0.1265
335.8951	0.1286
336.1051	0.125
336.3152	0.1306
336.5252	0.1315
336.7352	0.125
336.9452	0.1284
337.1552	0.1289
337.3652	0.129
337.5751	0.1288
337.7851	0.1298
337.995	0.1314
338.2049	0.1322
338.4148	0.1245
338.6247	0.131
338.8346	0.1302
339.0445	0.1345
339.2543	0.1346
339.4642	0.1349
339.674	0.1368
339.8838	0.1299
340.0936	0.1371
340.3034	0.1374
340.5132	0.1332
340.7229	0.1342
340.9327	0.1378
341.1424	0.1399
341.3522	0.1396
341.5619	0.1321
341.7716	0.1427
341.9813	0.1423
342.1909	0.1412
342.4006	0.1346
342.6102	0.1382
342.8199	0.1313
343.0295	0.14
343.2391	0.141
343.4487	0.1427
343.6583	0.1454
343.8679	0.1451
344.0774	0.1465
344.287	0.1477
344.4965	0.1459
344.706	0.1429
344.9155	0.1427
345.125	0.1425
345.3345	0.1479
345.544	0.1528
345.7534	0.1514
345.9629	0.1477
346.1723	0.1547
346.3817	0.1491
346.5911	0.1529
346.8005	0.1506
347.0099	0.157
347.2193	0.147
347.4286	0.152
347.638	0.1526
347.8473	0.1599
348.0566	0.1594
348.2659	0.1598
348.4752	0.1484
348.6845	0.1639
348.8937	0.1626
349.103	0.1532
349.3122	0.1672
349.5214	0.1564
349.7306	0.158
349.9398	0.1625
350.149	0.1673
350.3582	0.1633
350.5674	0.168
350.7765	0.1642
350.9856	0.1595
351.1948	0.1578
351.4039	0.1625
351.613	0.171
351.822	0.1714
352.0311	0.1696
352.2402	0.1759
352.4492	0.173
352.6582	0.1778
352.8672	0.1767
353.0762	0.1719
353.2852	0.1803
353.4942	0.1761
353.7032	0.1714
353.9121	0.1766
354.1211	0.1766
354.33	0.177
354.5389	0.183
354.7478	0.1816
354.9567	0.1739
355.1655	0.1813
355.3744	0.1739
355.5833	0.1856
355.7921	0.1799
356.0009	0.1819
356.2097	0.1883
356.4185	0.1918
356.6273	0.1819
356.8361	0.1914
357.0448	0.1937
357.2536	0.1907
357.4623	0.1872
357.671	0.1856
357.8797	0.1951
358.0884	0.1923
358.2971	0.1963
358.5057	0.1923
358.7144	0.2009
358.923	0.1934
359.1316	0.202
359.3402	0.2005
359.5488	0.1923
359.7574	0.2143
359.966	0.2028
360.1746	0.1998
360.3831	0.2067
360.5916	0.2069
360.8002	0.2126
361.0087	0.2045
361.2172	0.2185
361.4256	0.2076
361.6341	0.2113
361.8426	0.2068
362.051	0.2064
362.2594	0.2117
362.4678	0.2162
362.6762	0.224
362.8846	0.2197
363.093	0.2157
363.3014	0.2214
363.5097	0.218
363.718	0.2267
363.9264	0.2261
364.1347	0.2291
364.343	0.2291
364.5513	0.228
364.7595	0.2287
364.9678	0.2275
365.176	0.2278
365.3842	0.2308
365.5925	0.2342
365.8007	0.2373
366.0089	0.2309
366.217	0.2405
366.4252	0.2349
366.6333	0.2387
366.8415	0.2318
367.0496	0.2411
367.2577	0.243
367.4658	0.2469
367.6739	0.2417
367.882	0.2549
368.09	0.2502
368.2981	0.2392
368.5061	0.2573
368.7141	0.2535
368.9221	0.2407
369.1301	0.2494
369.3381	0.2584
369.5461	0.2576
369.754	0.2407
369.962	0.2577
370.1699	0.2655
370.3778	0.2606
370.5857	0.2683
370.7936	0.2533
371.0015	0.253
371.2093	0.258
371.4172	0.2608
371.625	0.2682
371.8328	0.2613
372.0406	0.2639
372.2484	0.2605
372.4562	0.2642
372.664	0.2702
372.8717	0.2689
373.0795	0.2749
373.2872	0.2693
373.4949	0.2787
373.7026	0.2759
373.9103	0.2725
374.118	0.2753
374.3256	0.2869
374.5333	0.2777
374.7409	0.2723
374.9485	0.2741
375.1561	0.2777
375.3637	0.2676
375.5713	0.283
375.7789	0.2782
375.9864	0.2906
376.194	0.2858
376.4015	0.2799
376.609	0.2895
376.8165	0.2828
377.024	0.2853
377.2315	0.2845
377.4389	0.2878
377.6464	0.2924
377.8538	0.2812
378.0612	0.29
378.2686	0.2906
378.476	0.2883
378.6834	0.2904
378.8908	0.293
379.0981	0.2961
379.3055	0.3066
379.5128	0.3
379.7201	0.2938
379.9274	0.2864
380.1347	0.3059
380.342	0.304
380.5492	0.3002
380.7565	0.2954
380.9637	0.2954
381.1709	0.301
381.3781	0.3044
381.5853	0.3047
381.7925	0.3063
381.9997	0.3051
382.2068	0.303
382.4139	0.3038
382.6211	0.3174
382.8282	0.3054
383.0353	0.3096
383.2424	0.3094
383.4494	0.3187
383.6565	0.3114
383.8635	0.3222
384.0706	0.3173
384.2776	0.3184
384.4846	0.3138
384.6916	0.3158
384.8986	0.3129
385.1055	0.3163
385.3125	0.3222
385.5194	0.309
385.7263	0.305
385.9333	0.3167
386.1402	0.3323
386.347	0.3186
386.5539	0.3143
386.7608	0.3124
386.9676	0.3085
387.1744	0.3174
387.3813	0.3226
387.5881	0.3185
387.7948	0.3176
388.0016	0.3114
388.2084	0.3142
388.4151	0.3107
388.6219	0.3062
388.8286	0.315
389.0353	0.3081
389.242	0.3068
389.4487	0.3072
389.6553	0.3049
389.862	0.3144
390.0686	0.3081
390.2753	0.3039
390.4819	0.3101
390.6885	0.3031
390.8951	0.3183
391.1016	0.307
391.3082	0.2924
391.5147	0.3036
391.7213	0.2976
391.9278	0.2918
392.1343	0.298
392.3408	0.291
392.5473	0.2966
392.7537	0.2897
392.9602	0.284
393.1666	0.2971
393.373	0.2804
393.5794	0.2878
393.7858	0.288
393.9922	0.2944
394.1986	0.2843
394.4049	0.2885
394.6113	0.2839
394.8176	0.2749
395.0239	0.2912
395.2302	0.2694
395.4365	0.2832
395.6428	0.2786
395.8491	0.2768
396.0553	0.2681
396.2615	0.2783
396.4678	0.2775
396.674	0.273
396.8802	0.2618
397.0863	0.2741
397.2925	0.261
397.4987	0.2697
397.7048	0.2744
397.9109	0.2717
398.117	0.2648
398.3231	0.2767
398.5292	0.2755
398.7353	0.2594
398.9413	0.2608
399.1474	0.2763
399.3534	0.2745
399.5594	0.2733
399.7654	0.2801
399.9714	0.2668
400.1774	0.2698
400.3833	0.2732
400.5893	0.2694
400.7952	0.2661
401.0011	0.2586
401.207	0.2701
401.4129	0.2633
401.6188	0.265
401.8247	0.2586
402.0305	0.2728
402.2364	0.2707
402.4422	0.2679
402.648	0.2761
402.8538	0.2708
403.0596	0.2701
403.2654	0.269
403.4711	0.2689
403.6768	0.2702
403.8826	0.2723
404.0883	0.2554
404.294	0.2777
404.4997	0.2639
404.7054	0.2716
404.911	0.273
405.1167	0.2776
405.3223	0.2708
405.5279	0.2751
405.7335	0.2651
405.9391	0.2588
406.1447	0.2655
406.3502	0.2704
406.5558	0.274
406.7613	0.2706
406.9668	0.2679
407.1724	0.2728
407.3778	0.2685
407.5833	0.2652
407.7888	0.2749
407.9942	0.2649
408.1997	0.2681
408.4051	0.2738
408.6105	0.2791
408.8159	0.2659
409.0213	0.2659
409.2267	0.2695
409.432	0.2719
409.6374	0.2632
409.8427	0.2674
410.048	0.2683
410.2533	0.2618
410.4586	0.2633
410.6639	0.2628
410.8691	0.2765
411.0744	0.2732
411.2796	0.2639
411.4848	0.2688
411.69	0.268
411.8952	0.2566
412.1004	0.2749
412.3056	0.2669
412.5107	0.2749
412.7158	0.2703
412.921	0.2599
413.1261	0.2731
413.3312	0.2526
413.5362	0.2653
413.7413	0.2663
413.9464	0.2604
414.1514	0.2623
414.3564	0.2565
414.5614	0.264
414.7664	0.2657
414.9714	0.2616
415.1764	0.2618
415.3813	0.2575
415.5863	0.2454
415.7912	0.269
415.9961	0.2676
416.201	0.261
416.4059	0.2619
416.6108	0.262
416.8156	0.247
417.0205	0.2658
417.2253	0.2712
417.4301	0.264
417.6349	0.2537
417.8397	0.2703
418.0445	0.2635
418.2492	0.2588
418.454	0.2585
418.6587	0.2692
418.8634	0.2542
419.0681	0.2528
419.2728	0.2497
419.4775	0.2499
419.6822	0.2521
419.8868	0.2512
420.0915	0.2561
420.2961	0.2519
420.5007	0.2581
420.7053	0.2521
420.9099	0.2404
421.1144	0.2378
421.319	0.2372
421.5235	0.2502
421.728	0.2463
421.9325	0.2495
422.137	0.2384
422.3415	0.2393
422.546	0.2464
422.7504	0.2472
422.9549	0.235
423.1593	0.2397
423.3637	0.2214
423.5681	0.2468
423.7725	0.2388
423.9769	0.2322
424.1812	0.2435
424.3856	0.2296
424.5899	0.2402
424.7942	0.2309
424.9985	0.228
425.2028	0.2324
425.4071	0.2249
425.6113	0.2279
425.8156	0.2183
426.0198	0.2292
426.224	0.2305
426.4282	0.2343
426.6324	0.2204
426.8366	0.2262
427.0407	0.2247
427.2449	0.224
427.449	0.2147
427.6531	0.2138
427.8572	0.2025
428.0613	0.2169
428.2654	0.2168
428.4694	0.2121
428.6735	0.2119
428.8775	0.2097
429.0815	0.207
429.2855	0.2054
429.4895	0.2033
429.6935	0.1986
429.8975	0.1988
430.1014	0.2004
430.3053	0.1915
430.5093	0.2088
430.7132	0.1984
430.9171	0.1897
431.1209	0.1986
431.3248	0.192
431.5286	0.1675
431.7325	0.1917
431.9363	0.1848
432.1401	0.187
432.3439	0.1817
432.5477	0.1805
432.7514	0.1695
432.9552	0.1775
433.1589	0.1696
433.3627	0.1689
433.5664	0.1749
433.7701	0.1768
433.9737	0.1662
434.1774	0.1765
434.3811	0.1667
434.5847	0.1632
434.7883	0.1614
434.9919	0.1491
435.1955	0.158
435.3991	0.1451
435.6027	0.1507
435.8062	0.1495
436.0098	0.1508
436.2133	0.1506
436.4168	0.1457
436.6203	0.1518
436.8238	0.1506
437.0272	0.1442
437.2307	0.1393
437.4341	0.1283
437.6375	0.1335
437.841	0.1273
438.0443	0.1378
438.2477	0.1216
438.4511	0.1316
438.6545	0.1249
438.8578	0.1246
439.0611	0.1312
439.2644	0.1163
439.4677	0.1185
439.671	0.1186
439.8743	0.1161
440.0775	0.1128
440.2808	0.122
440.484	0.113
440.6872	0.1004
440.8904	0.1085
441.0936	0.1211
441.2967	0.0981
441.4999	0.1026
441.703	0.1101
441.9062	0.1025
442.1093	0.0972
442.3124	0.1045
442.5155	0.0941
442.7185	0.0852
442.9216	0.0958
443.1246	0.1005
443.3276	0.0862
443.5307	0.0883
443.7337	0.0794
443.9366	0.0866
444.1396	0.0833
444.3426	0.0857
444.5455	0.0758
444.7484	0.0796
444.9513	0.0818
445.1542	0.0776
445.3571	0.0733
445.56	0.0705
445.7628	0.0744
445.9657	0.0774
446.1685	0.0792
446.3713	0.0746
446.5741	0.0675
446.7769	0.0628
446.9797	0.0699
447.1824	0.0625
447.3852	0.0555
447.5879	0.0649
447.7906	0.0592
447.9933	0.0638
448.196	0.0512
448.3986	0.0598
448.6013	0.0499
448.8039	0.0624
449.0066	0.0544
449.2092	0.0489
449.4118	0.0578
449.6143	0.0432
449.8169	0.0587
450.0195	0.0433
450.222	0.0549
450.4245	0.0503
450.627	0.05
450.8295	0.0372
451.032	0.0426
451.2345	0.0451
451.4369	0.0494
451.6394	0.0446
451.8418	0.0458
452.0442	0.0416
452.2466	0.0336
452.449	0.0369
452.6513	0.0382
452.8537	0.0461
453.056	0.0421
453.2583	0.0329
453.4607	0.0301
453.663	0.0371
453.8652	0.0305
454.0675	0.0295
454.2697	0.0264
454.472	0.0322
454.6742	0.0366
454.8764	0.0283
455.0786	0.0275
455.2808	0.0232
455.4829	0.0288
455.6851	0.0228
455.8872	0.0352
456.0893	0.0295
456.2915	0.0198
456.4935	0.0141
456.6956	0.0272
456.8977	0.0199
457.0997	0.031
457.3018	0.0234
457.5038	0.0218
457.7058	0.021
457.9078	0.0327
458.1098	0.0252
458.3117	0.0265
458.5137	0.0307
458.7156	0.0309
458.9175	0.0189
459.1194	0.0188
459.3213	0.0165
459.5232	0.0126
459.725	0.0156
459.9269	0.0197
460.1287	0.0108
460.3305	0.0118
460.5323	0.015
460.7341	0.0166
460.9359	0.0143
461.1376	0.0207
461.3394	0.0204
461.5411	0.0159
461.7428	0.0138
461.9445	0.017
462.1462	0.0155
462.3479	0.013
462.5495	0.0124
462.7512	0.008
462.9528	0.0097
463.1544	0.0073
463.356	0.0156
463.5576	0.0097
463.7592	0.007
463.9607	0.01
464.1623	0.0194
464.3638	0.0103
464.5653	0.0113
464.7668	0.0137
464.9683	0.0108
465.1697	0.0092
465.3712	0.008
465.5726	0.0157
465.7741	0.0116
465.9755	0.0128
466.1769	0.0088
466.3782	0.0046
466.5796	0.0084
466.7809	0.0166
466.9823	0.0105
467.1836	0.0239
467.3849	0.0123
467.5862	-0.0011
467.7875	0.0126
467.9887	0.0059
468.19	0.0065
468.3912	0.0112
468.5924	0.0184
468.7936	0.0097
468.9948	0.011
469.196	0.0134
469.3972	0.0151
469.5983	-0.0054
469.7994	0.0059
470.0006	0.0017
470.2017	0.0126
470.4027	0.0042
470.6038	0.0009
470.8049	-0.0053
471.0059	0.0141
471.2069	0.0116
471.408	-0.0009
471.6089	0.009
471.8099	0.0051
472.0109	-0.002
472.2119	0.0152
472.4128	0.0146
472.6137	0.0122
472.8146	0.0019
473.0155	-0.0074
473.2164	0.0023
473.4173	0.0108
473.6181	0.0054
473.819	-0.0027
474.0198	0.0067
474.2206	0.0092
474.4214	0.0145
474.6222	0.0102
474.8229	0.0046
475.0237	-0.0015
475.2244	0.0067
475.4251	-0.0035
475.6258	0.0063
475.8265	0.0007
476.0272	0.0031
476.2278	0.0022
476.4285	-0.0041
476.6291	0.0138
476.8297	-0.0021
477.0303	0.005
477.2309	0.0002
477.4315	0.0092
477.632	-0.0005
477.8326	-0.0004
478.0331	0.0029
478.2336	0.0033
478.4341	0.0031
478.6346	-0.0014
478.8351	-0.001
479.0355	-0.0003
479.236	0.0054
479.4364	-0.0044
479.6368	0.003
479.8372	0.0005
480.0376	0.0061
480.2379	-0.0025
480.4383	-0.0055
480.6386	-0.0011
480.8389	0.0108
481.0392	0.0073
481.2395	0.0095
481.4398	0.0093
481.6401	0.0111
481.8403	-0.0046
482.0405	-0.0059
482.2408	0.0089
482.441	0.0024
482.6411	0.0059
482.8413	-0.003
483.0415	-0.0049
483.2416	0.0037
483.4417	0.007
483.6419	0.0027
483.8419	0.0004
484.042	0.0028
484.2421	-0.0002
484.4422	0.0048
484.6422	0.0088
484.8422	0.0014
485.0422	0.0082
485.2422	0.0032
485.4422	-0.0001
485.6422	-0.0011
485.8421	-0.0016
486.042	0.0025
486.242	-0.0007
486.4419	0.0063
486.6417	-0.0003
486.8416	0.0023
487.0415	0.0014
487.2413	0.0041
487.4411	-0
487.641	0.003
487.8408	0.0071
488.0405	0.0039
488.2403	0.0027
488.4401	0.0032
488.6398	0.0064
488.8395	0.008
489.0392	-0.0025
489.2389	0.0024
489.4386	0.0029
489.6383	0.0089
489.8379	0.0013
490.0376	0.0015
490.2372	-0.0025
490.4368	0.0084
490.6364	0.0064
490.836	0.0058
491.0355	-0.0048
491.2351	0.0022
491.4346	0.0031
491.6341	-0.0035
491.8336	-0.0099
492.0331	-0.0039
492.2326	0.0055
492.432	0.0035
492.6315	-0.0042
492.8309	0.0032
493.0303	-0.0025
493.2297	-0.0064
493.4291	-0.0076
493.6284	0.0012
493.8278	0.0032
494.0271	0.0048
494.2264	0.0029
494.4257	0.002
494.625	-0.0003
494.8243	0.0113
495.0236	0.0022
495.2228	-0.0051
495.422	0.0028
495.6213	0.0041
495.8205	0.006
496.0196	0.003
496.2188	-0.0009
496.418	-0.0046
496.6171	0.0018
496.8162	0.0038
497.0153	-0.0001
497.2144	-0.0039
497.4135	0.0044
497.6126	-0.0031
497.8116	-0.0016
498.0107	0.002
498.2097	0
498.4087	0.0072
498.6077	0.003
498.8067	0.0008
499.0056	-0.0006
499.2046	0.0028
499.4035	0.0042
499.6024	-0.0116
499.8013	0.0042
500.0002	0.0054
500.199	0.0015
500.3979	0.0064
500.5967	-0.0034
500.7956	0.0023
500.9944	0.0055
501.1932	0.0129
501.3919	0.0067
501.5907	0.0028
501.7895	-0.002
501.9882	-0.0007
502.1869	0.0011
502.3856	-0.0007
502.5843	0.0012
502.783	-0.002
502.9816	-0.0048
503.1803	0.0069
503.3789	0.0011
503.5775	-0.0004
503.7761	0.003
503.9747	-0.0025
504.1732	0.0023
504.3718	-0.0012
504.5703	-0.0065
504.7689	0.0002
504.9674	-0.0025
505.1658	0.0025
505.3643	0.0031
505.5628	0.009
505.7612	0.0117
505.9597	0.0054
506.1581	-0.0094
506.3565	-0.0147
506.5549	0.0138
506.7532	0.0008
506.9516	-0.0013
507.1499	0.0007
507.3482	0.0101
507.5465	-0.0089
507.7448	0.0019
507.9431	-0.0033
508.1414	0.0083
508.3396	-0.0018
508.5379	0.0035
508.7361	0.0051
508.9343	0.0022
509.1325	0.0077
509.3306	-0.0009
509.5288	0.0084
509.7269	0.0026
509.9251	0.001
510.1232	-0.0083
510.3213	-0.0019
510.5193	0.0098
510.7174	-0.0076
510.9154	0.0038
511.1135	0.0069
511.3115	0.0009
511.5095	-0.0009
511.7075	0.0049
511.9055	0.0058
512.1034	0.0015
512.3014	-0.0006
512.4993	-0.0098
512.6972	-0.0006
512.8951	0.0037
513.093	-0.0006
513.2908	-0.0017
513.4887	0.0132
513.6865	-0.0024
513.8844	0.0014
514.0822	0.0027
514.2799	0.0032
514.4777	-0.0032
514.6755	0.0068
514.8732	-0.0028
515.0709	0.011
515.2687	0.0077
515.4664	-0.0102
515.664	0.0125
515.8617	0.0125
516.0594	0.0066
516.257	0.0144
516.4546	0.0072
516.6522	0.0015
516.8498	-0.0105
517.0474	-0.0011
517.2449	-0.0047
517.4425	0.0084
517.64	0.0042
517.8375	0.011
518.035	-0.0011
518.2325	0.0029
518.43	-0.0017
518.6274	-0.0039
518.8249	0.0018
519.0223	-0.0001
519.2197	-0.0051
519.4171	0.0013
519.6145	-0.0037
519.8118	-0.0053
520.0092	0.0049
520.2065	-0.0038
520.4038	-0.0128
520.6011	0.0085
520.7984	0.0017
520.9956	-0.0071
521.1929	0.0046
521.3901	0.0027
521.5874	-0.0018
521.7846	0.0174
521.9818	-0.0051
522.1789	0.0112
522.3761	0.004
522.5732	-0.0003
522.7704	0.0005
522.9675	-0.0022
523.1646	0.0146
523.3617	-0.0038
523.5587	0.0046
523.7558	0.008
523.9528	0.0096
524.1498	0.0032
524.3468	-0.0002
524.5438	-0.0091
524.7408	-0.0091
524.9378	0.0019
525.1347	0.0072
525.3316	0.0101
525.5285	0.0035
525.7254	-0.0018
525.9223	-0.0041
526.1192	-0.0059
526.316	-0.0051
526.5129	0.0054
526.7097	-0.0033
526.9065	0.0042
527.1033	0.0023
527.3	0.0044
527.4968	0.0078
527.6935	0.0073
527.8903	0.0021
528.087	0.004
528.2837	-0
528.4804	0.0128
528.677	0.002
528.8737	0.0012
529.0703	0.0004
529.2669	0.0114
529.4635	0.0161
529.6601	0.0127
529.8567	0.0103
530.0532	0.0059
530.2498	-0.003
530.4463	0.0064
530.6428	-0.0027
530.8393	0.0041
531.0358	-0.0031
531.2322	0.0102
531.4287	-0.0027
531.6251	-0.0009
531.8215	0.0004
532.0179	-0.0023
532.2143	0.0182
532.4107	0.0041
532.607	0.0008
532.8034	0.0025
532.9997	0.0023
533.196	0.0073
533.3923	0.0029
533.5886	-0.0003
533.7848	-0.0137
533.9811	-0.0026
534.1773	-0.0024
534.3735	0.0085
534.5697	-0.0029
534.7659	0.0019
534.9621	0.0083
535.1582	0.0037
535.3544	0.0067
535.5505	-0.0067
535.7466	0.0023
535.9427	-0.006
536.1387	0.0082
536.3348	0.0071
536.5308	0.0137
536.7269	0.0009
536.9229	-0.0012
537.1189	0.0039
537.3148	-0.0062
537.5108	-0.0007
537.7068	0.0037
537.9027	0.0036
538.0986	-0.0026
538.2945	0.0001
538.4904	-0.004
538.6863	0.0098
538.8821	-0.0049
539.078	0.0059
539.2738	-0.0065
539.4696	0.0118
539.6654	0.0036
539.8611	0.008
540.0569	-0.0028
540.2526	-0.007
540.4484	0.0031
540.6441	-0.0038
540.8398	-0.0103
541.0355	-0.0023
541.2311	0.0018
541.4268	-0.0068
541.6224	0.0035
541.818	-0.0025
542.0136	-0.0019
542.2092	0.009
542.4048	0.0071
542.6003	0.003
542.7959	0.0019
542.9914	-0.0036
543.1869	0.0039
543.3824	0.0104
543.5779	-0.0079
543.7734	-0.0082
543.9688	-0.0015
544.1642	0.0029
544.3596	-0.0081
544.555	0.0059
544.7504	0.0063
544.9458	-0.006
545.1411	-0.0049
545.3365	0.0028
545.5318	-0.0085
545.7271	0.0043
545.9224	0.0007
546.1177	0.007
546.3129	-0.0131
546.5081	-0.0125
546.7034	-0.0073
546.8986	-0.0056
547.0938	-0.0043
547.289	0.0044
547.4841	0.0005
547.6793	0.0001
547.8744	0.0039
548.0695	0.0033
548.2646	0.0067
548.4597	-0.0095
548.6548	0.0006
548.8498	-0.0004
549.0448	0.0003
549.2399	0.0019
549.4349	0.0003
549.6298	-0.0108
549.8248	-0.009
550.0198	0.0131
550.2147	-0.0035
550.4096	0.0001
550.6045	-0.0008
550.7994	0.0086
550.9943	-0.0044
551.1892	-0.0026
551.384	0.0127
551.5788	0.0097
551.7737	-0.003
551.9685	0.0118
552.1632	-0.0005
552.358	0.0008
552.5528	-0.0004
552.7475	-0.0071
552.9422	0.0062
553.1369	0.0029
553.3316	-0
553.5263	-0.0073
553.7209	-0.0066
553.9156	0.0037
554.1102	-0.0014
554.3048	0.0074
554.4994	0.0001
554.694	0.004
554.8885	0.0043
555.0831	0.0111
555.2776	0.0052
555.4721	-0.0171
555.6666	0.003
555.8611	-0.0106
556.0555	0.0033
556.25	-0.0032
556.4444	0.0051
556.6388	0.009
556.8332	-0.0001
557.0276	0.0198
557.222	-0.001
557.4163	0.0071
557.6107	-0.0005
557.805	-0.0088
557.9993	0.0014
558.1936	0.0079
558.3879	-0.0006
558.5821	0.0007
558.7764	0.0117
558.9706	-0.0012
559.1648	-0.0002
559.359	0.0164
559.5532	-0.0015
559.7473	0.0046
559.9415	0.0001
560.1356	-0.008
560.3297	0.0014
560.5238	0.0063
560.7179	0.0002
560.9119	0.0099
561.106	-0.0012
561.3	0.009
561.494	0.003
561.688	-0.0004
561.882	-0.0075
562.076	0.0069
562.2699	0.0045
562.4639	0.0108
562.6578	0.009
562.8517	0.0061
563.0456	-0.0047
563.2395	0.0055
563.4333	0.0055
563.6272	0.0063
563.821	0.002
564.0148	-0.0066
564.2086	0.0074
564.4024	-0.0033
564.5961	-0.0058
564.7899	0.0026
564.9836	0.0054
565.1773	-0.004
565.371	0.0056
565.5647	-0.0003
565.7584	0.0066
565.952	-0.0026
566.1456	0.0078
566.3393	0.0104
566.5329	-0.0014
566.7264	0.0042
566.92	-0.003
567.1136	0.0004
567.3071	-0.0025
567.5006	-0.0015
567.6941	0.0036
567.8876	-0.0112
568.0811	-0.0062
568.2745	0.001
568.468	-0.0011
568.6614	-0.0034
568.8548	-0.0041
569.0482	0.006
569.2416	-0.0001
569.4349	-0.0006
569.6283	0.0016
569.8216	-0.0035
570.0149	-0.0002
570.2082	-0.002
570.4015	0.0031
570.5947	-0.0014
570.788	-0.0013
570.9812	-0.0024
571.1744	-0.0027
571.3676	0.0013
571.5608	-0.0035
571.754	-0.0003
571.9471	0.0076
572.1402	0.0019
572.3333	0.0027
572.5264	0.0026
572.7195	0.0025
572.9126	0.0016
573.1057	0.0011
573.2987	0.0036
573.4917	0.0017
573.6847	0.0013
573.8777	-0.0016
574.0707	-0.0006
574.2636	-0.0001
574.4566	0.0013
574.6495	0.0026
574.8424	-0.0005
575.0353	-0.0002
575.2281	-0.0006
575.421	0.0008
575.6138	-0.0012
575.8067	0.0004
575.9995	0.0024
576.1923	0.0008
576.385	-0.0035
576.5778	0.0001
576.7706	0.0032
576.9633	0.0014
577.156	-0.0014
577.3487	0.0032
577.5414	-0.0012
577.734	0.0001
577.9267	-0.0045
578.1193	0.0052
578.3119	-0.0039
578.5045	-0.0039
578.6971	-0.0004
578.8897	-0.001
579.0822	0.0049
579.2747	-0.0002
579.4673	0.0002
579.6598	-0.002
579.8522	0.0032
580.0447	0.0007
580.2372	0.0034
580.4296	-0.0018
580.622	0.0008
580.8144	-0.0022
581.0068	0.001
581.1992	0.002
581.3915	-0.0016
581.5839	0.0041
581.7762	0.0043
581.9685	-0.0014
582.1608	0.0004
582.353	-0.0014
582.5453	0.0033
582.7375	-0.0009
582.9298	-0.002
583.122	-0.0036
583.3142	0.0046
583.5063	-0.0071
583.6985	-0.0005
583.8906	0.0005
584.0827	-0.0002
584.2749	0.002
584.4669	-0.0028
584.659	-0.0033
584.8511	0.0053
585.0431	-0.0037
585.2352	-0.0081
585.4272	0.0024
585.6192	0.0027
585.8111	-0.0048
586.0031	0.0015
586.195	0.0028
586.387	0.0019
586.5789	0.0021
586.7708	0.0032
586.9627	0.0015
587.1545	0.0012
587.3464	0.0025
587.5382	0.0003
587.73	0.001
587.9218	-0.0017
588.1136	-0.0028
588.3053	0.0027
588.4971	-0
588.6888	0
588.8805	0.002
589.0722	0.0046
589.2639	0.001
589.4556	-0.0058
589.6472	0.0015
589.8389	-0.0001
590.0305	0.0013
590.2221	0.0026
590.4137	-0.0036
590.6052	0.0101
590.7968	0.0013
590.9883	0.0003
591.1798	-0.0123
591.3713	-0.0015
591.5628	0.0001
591.7543	-0.001
591.9458	0.0049
592.1372	-0.0052
592.3286	-0.0003
592.52	-0.005
592.7114	-0.0046
592.9028	-0.0058
593.0941	-0.0018
593.2855	0.0017
593.4768	0.0018
593.6681	0.0016
593.8594	-0.0074
594.0506	0.0042
594.2419	-0.0017
594.4331	-0.0015
594.6244	0.002
594.8156	0.0012
595.0067	0.0054
595.1979	-0.0051
595.3891	-0.0019
595.5802	-0.0076
595.7713	-0.0015
595.9624	0.0064
596.1535	0.0016
596.3446	0.0014
596.5357	-0.0048
596.7267	0.0009
596.9177	-0.0015
597.1087	-0.0054
597.2997	0.005
597.4907	0.0028
597.6817	-0.0008
597.8726	0.0034
598.0635	-0.0004
598.2544	-0.0079
598.4453	-0.0049
598.6362	-0.0063
598.827	0.0036
599.0179	0.004
599.2087	-0.0007
599.3995	-0
599.5903	0.004
599.7811	0.001
599.9718	-0.0009
600.1626	0.0001
600.3533	-0.0031
600.544	0.0005
600.7347	0.0004
600.9254	0.0015
601.116	0.0056
601.3067	0.0048
601.4973	0.0086
601.6879	-0.0026
601.8785	-0.0016
602.0691	0.0003
602.2596	-0.0038
602.4502	0.0024
602.6407	-0.0002
602.8312	0.0084
603.0217	0.0054
603.2122	0.007
603.4027	-0.0107
603.5931	0.0018
603.7835	0.0002
603.9739	-0.0027
604.1643	-0.0025
604.3547	0.0045
604.5451	0.006
604.7354	-0.0017
604.9257	-0.0009
605.116	0.0037
605.3063	-0.0062
605.4966	0.002
605.6869	0.0016
605.8771	-0.0004
606.0673	-0.0012
606.2575	0.0032
606.4477	0.0055
606.6379	-0.0021
606.8281	-0.0058
607.0182	-0.0051
607.2083	-0.0014
607.3985	0.0068
607.5885	-0.0004
607.7786	0.0103
607.9687	0.0016
608.1587	-0.0034
608.3488	-0.0017
608.5388	0.0025
608.7288	-0.0028
608.9187	0.0097
609.1087	-0.001
609.2986	-0.001
609.4886	0.0024
609.6785	0.0037
609.8684	-0.0019
610.0582	0.0038
610.2481	0.0018
610.4379	0.0018
610.6278	-0.0036
610.8176	0.0002
611.0074	-0.0028
611.1971	0.0053
611.3869	0.0037
611.5766	0.0006
611.7664	0.0101
611.9561	0.0009
612.1458	0.0043
612.3354	0.0025
612.5251	-0.0036
612.7147	0.0145
612.9044	-0.0002
613.094	0.0051
613.2836	0.0011
613.4731	-0.0034
613.6627	0.0051
613.8522	-0.0055
614.0417	0.0001
614.2313	-0.0041
614.4207	0.0013
614.6102	-0.005
614.7997	-0.0015
614.9891	0.0004
615.1785	0.0005
615.3679	0.0024
615.5573	-0.0053
615.7467	0.0004
615.9361	-0.005
616.1254	-0.0047
616.3147	-0.0033
616.504	-0.0047
616.6933	0.0052
616.8826	0.0047
617.0718	-0.0087
617.2611	-0.0017
617.4503	0.0011
617.6395	-0.0022
617.8287	0.0056
618.0179	-0.003
618.207	-0.0014
618.3961	0.0011
618.5853	0.0017
618.7744	0.0063
618.9634	0.0033
619.1525	-0.0004
619.3416	-0.0047
619.5306	0.0039
619.7196	-0.0036
619.9086	0.0127
620.0976	0.0074
620.2866	0.0057
620.4755	0.0148
620.6645	-0
620.8534	-0.0059
621.0423	-0.007
621.2312	-0.0089
621.42	-0.0047
621.6089	0.0023
621.7977	-0.0059
621.9865	0.0026
622.1753	0.0041
622.3641	-0.0094
622.5529	-0.012
622.7416	-0.0034
622.9303	-0.0082
623.1191	0.0004
623.3078	-0.0072
623.4964	-0.0095
623.6851	0.0024
623.8737	0.0003
624.0624	0.0025
624.251	-0.0047
624.4396	0.0005
624.6282	0.0019
624.8167	0.0067
625.0053	-0.0001
625.1938	0.0037
625.3823	-0.0007
625.5708	0.0016
625.7593	-0.0007
625.9477	0.0006
626.1362	-0.0039
626.3246	-0.0048
626.513	-0.0005
626.7014	-0.0073
626.8898	0.0071
627.0781	-0.0027
627.2665	0.005
627.4548	-0.0005
627.6431	-0.0023
627.8314	0.002
628.0197	0.0103
628.2079	0.0029
628.3962	0.01
628.5844	-0.0002
628.7726	-0.0009
628.9608	0.0093
629.1489	0.0026
629.3371	-0.0063
629.5252	0.0035
629.7134	0.0058
629.9015	-0.0077
630.0895	-0.0015
630.2776	-0.0031
630.4657	0.0085
630.6537	-0.0042
630.8417	-0.0073
631.0297	0.002
631.2177	-0.0003
631.4057	0.0018
631.5936	-0.0017
631.7815	-0.0018
631.9695	0.0121
632.1574	-0.001
632.3452	0.0001
632.5331	-0.0038
632.7209	0.0071
632.9088	-0.0092
633.0966	0.0053
633.2844	-0.0053
633.4722	0.009
633.6599	-0.0065
633.8477	-0.0091
634.0354	0.0008
634.2231	0.0368
634.4108	0.0023
634.5985	-0.0064
634.7861	-0.0066
634.9738	0.0138
635.1614	0.0028
635.349	-0.0162
635.5366	-0.0002
635.7242	0.0041
635.9117	0.0132
636.0993	0.0057
636.2868	-0.0165
636.4743	0.0156
636.6618	0.0103
636.8492	-0.0002
637.0367	-0.004
637.2241	0.0099
637.4115	0.0007
637.5989	0.0122
637.7863	-0.0104
637.9737	0.0022
638.161	-0.0155
638.3484	0.0078
638.5357	-0.0043
638.723	-0.0011
638.9103	0.0052
639.0975	-0.0051
639.2848	0.0139
639.472	-0
639.6592	0.0191
639.8464	-0.0012
640.0336	0.0087
640.2208	-0.0102
640.4079	0.0176
640.595	-0.0141
640.7821	-0.0046
640.9692	0.0123
641.1563	0.01
641.3434	0.0153
641.5304	0.0049
641.7174	0.0105
641.9044	-0.0007
642.0914	-0.0147
642.2784	0.014
642.4653	0.0066
642.6523	-0.005
642.8392	0.0236
643.0261	0.0043
643.213	0.018
643.3999	0.0036
643.5867	0.0184
643.7735	0.0231
643.9604	-0.0059
644.1472	0.004
644.3339	-0.0041
644.5207	-0.0172
644.7075	0.0024
644.8942	0.0095
645.0809	0.0133
645.2676	-0.0025
645.4543	-0.0018
645.6409	-0.019
645.8276	-0.01
646.0142	0.0037
646.2008	0.0039
646.3874	0.0054
646.574	0.0005
646.7605	-0.0084
646.9471	0.0055
647.1336	0.0005
647.3201	0.0083
647.5066	0.0045
647.6931	0.0047
647.8795	0.0145
648.0659	-0.0087
648.2524	-0.0027
648.4388	-0.0041
648.6252	-0.0027
648.8115	0.0237
648.9979	0.0028
649.1842	-0.0115
649.3705	0.0003
649.5568	-0.0099
649.7431	-0.0005
649.9294	-0.0067
650.1156	-0.0135
650.3018	0.0024
650.488	-0.0039
650.6742	0.0286
650.8604	-0.0039
651.0466	0.0053
651.2327	-0.0045
651.4188	-0.0071
651.6049	0.0083
651.791	0.0242
651.9771	0.0004
652.1632	0.009
652.3492	0.0075
652.5352	0.0007
652.7212	0.0026
652.9072	0.0008
653.0932	0.0128
653.2791	0.0152
653.465	-0.0003
653.651	0.0145
653.8369	0.0111
654.0227	-0.0106
654.2086	-0.0287
654.3944	-0.0042
654.5803	-0.0017
654.7661	-0.0023
654.9519	-0.0013
655.1377	0
655.3234	0
655.5092	0
655.6949	0
655.8806	0
656.0663	0
656.2519	0
656.4376	0
656.6232	0
656.8088	0
656.9945	0
657.18	0
657.3656	0
657.5511	0
657.7367	0
657.9222	0
658.1077	0
658.2932	0
658.4786	0
658.6641	0
658.8495	0
659.0349	0
659.2203	0
659.4057	0.0025
659.591	0.054
659.7764	0.0112
659.9617	-0.004
660.147	0.0094
660.3323	-0.0114
660.5176	0.0013
660.7028	0.0108
660.888	0.018
661.0733	0.0113
661.2585	0.0144
661.4436	0.0044
661.6288	-0.0008
661.8139	0.0079
661.9991	0.005
662.1842	0.0264
662.3693	-0.0056
662.5544	-0.0087
662.7394	0.0185
662.9245	0.0119
663.1095	0.0151
663.2945	-0.0102
663.4795	0.0029
663.6644	0.0023
663.8494	0.0171
664.0343	-0.0001
664.2193	0.0034
664.4042	0.0002
664.589	-0.0091
664.7739	-0.0034
664.9587	-0.0125
665.1436	0.0086
665.3284	-0.0078
665.5132	0.0007
665.698	-0.0018
665.8827	-0.0259
666.0675	-0.0126
666.2522	0.0327
666.4369	-0.0121
666.6216	-0.0217
666.8063	-0.0168
666.9909	-0.0011
667.1756	0.0466
667.3602	0.003
667.5448	0.0108
667.7294	-0.0044
667.9139	0.0006
668.0985	-0.0012
668.283	-0.0022
668.4675	-0.0096
668.652	-0.0127
668.8365	-0.0255
669.0209	-0.0171
669.2054	0.0171
669.3898	-0.0033
669.5742	-0.0062
669.7586	0.0052
669.943	-0.0086
670.1273	0.0027
670.3117	0.0146
670.496	0.0133
670.6803	0.0158
670.8646	0.0118
671.0488	-0.0027
671.2331	0.0077
671.4173	0.0126
671.6015	-0.0055
671.7857	-0.0128
671.9699	0.009
672.1541	-0.0129
672.3382	0.0192
672.5223	0.0017
672.7064	-0.0005
672.8905	0.004
673.0746	-0.0175
673.2587	-0.0062
673.4427	0.0102
673.6267	-0.0295
673.8107	-0.0087
673.9947	0.0116
674.1787	0.0108
674.3626	-0.0004
674.5465	0.0204
674.7304	-0.0054
674.9143	0.0233
675.0982	0.0095
675.2821	0.0193
675.4659	-0.0059
675.6497	0.0199
675.8335	-0.0034
676.0173	0.0144
676.2011	-0.0083
676.3849	0.0105
676.5686	-0.0035
676.7523	-0.0017
676.936	-0.022
677.1197	-0.0006
677.3034	0.0146
677.487	0.0061
677.6706	-0.0012
677.8542	0.0104
678.0378	0.0057
678.2214	-0.0045
678.405	-0.0001
678.5885	-0.0012
678.772	-0.0166
678.9555	0.0078
679.139	-0.008
679.3225	-0.0219
679.5059	-0.0072
679.6894	-0.0053
679.8728	-0.0045
680.0562	-0.0059
680.2395	-0.0044
680.4229	-0.0039
680.6062	-0.0038
680.7896	0.0183
680.9729	0.0068
681.1562	-0.0137
681.3394	0.0068
681.5227	-0.0102
681.7059	-0.0076
681.8891	-0.003
682.0723	-0.0134
682.2555	0.013
682.4387	0.0092
682.6218	-0.0011
682.805	0.0227
682.9881	0.015
683.1712	0.0161
683.3542	-0.0154
683.5373	0.0096
683.7203	-0.0107
683.9034	-0.0147
684.0864	0.0012
684.2694	-0.0004
684.4523	0.0127
684.6353	0.0138
684.8182	0.013
685.0011	-0.0028
685.184	0.0047
685.3669	-0.0112
685.5498	0.0123
685.7326	-0.0094
685.9154	-0.0094
686.0982	-0.0124
686.281	-0.0103
686.4638	0.004
686.6465	-0.0098
686.8293	0.0086
687.012	-0.002
687.1947	-0.002
687.3774	-0.0238
687.56	0.0104
687.7427	-0.013
687.9253	-0.0131
688.1079	0.0112
688.2905	-0.0046
688.4731	0.0158
688.6556	0.0066
688.8382	0.003
689.0207	-0.0213
689.2032	-0.027
689.3857	-0.0196
689.5681	-0.0074
689.7506	-0.018
689.933	0.0173
690.1154	0.0161
690.2978	-0.0098
690.4802	0.0277
690.6626	0.008
690.8449	-0.0131
691.0272	-0.0363
691.2095	-0.0009
691.3918	-0.0138
691.5741	0.0188
691.7563	0.0112
691.9386	-0.0201
692.1208	0.0028
692.303	-0.0016
692.4852	-0.0106
692.6673	-0.0061
692.8495	-0.0016
693.0316	-0.0085
693.2137	0.0373
693.3958	0.0185
693.5778	-0.0204
693.7599	-0.0406
693.9419	0.0156
694.1239	-0.0062
694.3059	0.0187
694.4879	-0.0157
694.6699	0.0122
694.8518	0.0184
695.0337	0.0215
695.2157	-0.0087
695.3975	-0.0131
695.5794	-0.0343
695.7613	0.0135
695.9431	0.0007
696.1249	-0.0135
696.3067	-0.0125
696.4885	-0.0047
696.6703	0.0145
696.852	-0.0106
697.0337	0.0139
697.2154	0.0085
697.3971	0.0115
697.5788	0.0289
697.7605	-0.0119
697.9421	0.0044
698.1237	0.0038
698.3053	0.0061
698.4869	0.0087
698.6685	-0.0018
698.85	0.0008
699.0315	0.0024
699.213	0.0151
699.3945	0.0111
699.576	-0.0023
699.7575	-0.0048
699.9389	-0.0176
700.1203	0.0215
700.3017	-0.0151
700.4831	-0.0017
700.6645	0.0157
700.8458	0.0062
701.0271	0.0129
701.2084	-0.0245
701.3897	0.0034
701.571	0.004
701.7523	0.0108
701.9335	0.0248
702.1147	-0.0091
702.2959	0.0177
702.4771	0.0084
702.6583	-0.0284
702.8394	0.0066
703.0205	0.0149
703.2016	0.001
703.3827	0.0112
703.5638	-0.0016
703.7449	-0.0045
703.9259	0.0252
704.1069	0.0309
704.2879	0.0199
704.4689	0.0083
704.6499	-0.0289
704.8308	-0.0109
705.0117	-0.0226
705.1927	0.0155
705.3735	0.0013
705.5544	0.0036
705.7353	0.0244
705.9161	0.0146
706.0969	0.0047
706.2777	0.0092
706.4585	-0.0229
706.6393	-0.0085
706.82	0.0006
707.0007	0.005
707.1815	0.0034
707.3621	0.0129
707.5428	0.014
707.7235	0.0249
707.9041	-0.0242
708.0847	-0.0147
708.2653	-0.0038
708.4459	-0.0141
708.6265	-0.0092
708.807	0.0034
708.9875	0.0187
709.168	0.002
709.3485	0.0118
709.529	0.0154
709.7095	-0.0316
709.8899	0.0089
710.0703	-0.0046
710.2507	-0.0196
710.4311	0.0115
710.6115	0.0146
710.7918	-0.019
710.9721	-0.0274
711.1524	-0.0045
711.3327	-0.0139
711.513	0.0028
711.6932	-0.0458
711.8735	-0.0034
712.0537	-0.0013
712.2339	-0.0207
712.4141	0.005
712.5942	0.0087
712.7744	0.001
712.9545	0.0082
713.1346	0.0195
713.3147	0.0202
713.4947	-0.0004
713.6748	-0.0168
713.8548	-0.0115
714.0348	0.0276
714.2148	-0.0179
714.3948	0.0041
714.5748	0.0074
714.7547	0.005
714.9346	0.0055
715.1145	-0.0074
715.2944	-0.0001
715.4743	-0.0037
715.6541	-0.0375
715.834	0.0123
716.0138	0.0266
716.1936	-0.0072
716.3733	-0.0006
716.5531	-0.0102
716.7328	-0.052
716.9126	-0.0202
717.0923	0.0098
717.2719	-0.014
717.4516	-0.0329
717.6312	-0.0167
717.8109	0.0182
717.9905	0.0006
718.1701	-0.0041
718.3496	0.0107
718.5292	0.0074
718.7087	0.0176
718.8882	0.0224
719.0677	-0.0109
719.2472	-0.0047
719.4267	-0.0012
719.6061	-0.0216
719.7856	-0.0005
719.965	0.0226
720.1443	-0.0029
720.3237	0.013
720.5031	0.0164
720.6824	0.0049
720.8617	0.0117
721.041	0.0249
721.2203	0.0047
721.3995	-0.0064
721.5788	-0.0098
721.758	0.0118
721.9372	0.02
722.1164	0.0272
722.2956	0.0109
722.4747	0.0324
722.6538	-0.0276
722.8329	-0.0347
723.012	-0.0155
723.1911	0.0084
723.3702	-0.0311
723.5492	-0.0098
723.7282	0.0165
723.9072	-0.0257
724.0862	-0.0006
724.2652	-0.006
724.4441	-0.0001
724.623	-0.0238
724.8019	-0.0005
724.9808	-0.0096
725.1597	-0.0053
725.3385	0.0087
725.5174	0.0184
725.6962	0.0311
725.875	-0.0048
726.0538	0.0067
726.2325	-0.0083
726.4112	0.0089
726.59	0.0014
726.7687	-0.0041
726.9474	0.0206
727.126	-0.0005
727.3047	0.0093
727.4833	0.0211
727.6619	0.0206
727.8405	-0.0032
728.0191	-0.0076
728.1976	-0.0127
728.3762	-0.0355
728.5547	-0.0033
728.7332	0.013
728.9116	-0.0414
729.0901	0.0272
729.2686	-0.012
729.447	-0.0082
729.6254	0.004
729.8038	-0.0224
729.9821	-0.0106
730.1605	-0.013
730.3388	-0.0148
730.5171	0.0028
730.6954	0.0265
730.8737	0.0079
731.0519	0.013
731.2302	-0.0142
731.4084	0.0163
731.5866	-0.004
731.7648	0.0015
731.9429	0.0049
732.1211	0.0021
732.2992	-0.0045
732.4773	-0.017
732.6554	0.0087
732.8335	0.0205
733.0115	0.005
733.1896	-0.0135
733.3676	0.0004
733.5456	0.0088
733.7235	0.0051
733.9015	-0.0023
734.0794	-0.0125
734.2574	0.0126
734.4353	-0.011
734.6131	0.013
734.791	0.0111
734.9689	0.0103
735.1467	-0.0015
735.3245	-0.0116
735.5023	0.0082
735.68	0.0052
735.8578	-0.0076
736.0355	0.0071
736.2132	0.0242
736.3909	0.0068
736.5686	0.0171
736.7463	-0.0056
736.9239	0.0158
737.1015	-0.0203
737.2791	-0.0141
737.4567	-0.009
737.6343	0.0119
737.8118	0.0187
737.9894	-0.0188
738.1669	0.0023
738.3444	-0.0044
738.5218	0.0163
738.6993	-0.0206
738.8767	-0.0103
739.0541	0.0086
739.2315	0.0109
739.4089	0.0047
739.5863	-0.0058
739.7636	0.0184
739.9409	-0.0008
740.1182	-0.022
740.2955	-0.0382
740.4728	0.0024
740.65	-0.0085
740.8272	-0.013
741.0044	0.0107
741.1816	0.0089
741.3588	0.0092
741.5359	0.0509
741.7131	0.0406
741.8902	-0.0044
742.0673	0.0061
742.2444	-0.0137
742.4214	-0.0009
742.5985	-0.0022
742.7755	-0.0198
742.9525	0.0068
743.1295	0.0039
743.3064	-0.003
743.4834	0.0014
743.6603	-0.0196
743.8372	0.0194
744.0141	0.0344
744.191	-0.023
744.3678	0.0308
744.5446	0.0313
744.7215	0.006
744.8982	0.0004
745.075	0.0442
745.2518	-0.002
745.4285	-0.0108
745.6052	0.0071
745.7819	0.0047
745.9586	0.0108
746.1353	0.0045
746.3119	0.0108
746.4885	0.0003
746.6651	-0.0223
746.8417	0.0048
747.0183	-0.019
747.1948	-0.0143
747.3714	-0.0085
747.5479	-0.0164
747.7244	-0.0517
747.9008	0.0084
748.0773	0.0198
748.2537	-0.0067
748.4301	-0.0011
748.6065	-0.0194
748.7829	-0.0045
748.9593	-0.0047
749.1356	0.0003
749.3119	0.0129
749.4882	0.0176
749.6645	0.0036
749.8408	-0.023
750.017	-0.0067
750.1933	0.0171
750.3695	0.0142
750.5457	-0.0178
750.7218	0.0297
750.898	-0.0155
751.0741	0.0175
751.2502	0.0123
751.4263	0.0019
751.6024	0.0006
751.7784	-0.0297
751.9545	-0.0289
752.1305	-0.0085
752.3065	0.0333
752.4825	0.0016
752.6584	-0.0157
752.8344	0.0117
753.0103	-0.0195
753.1862	-0.0116
753.3621	-0.0235
753.5379	-0.0268
753.7138	-0.0263
753.8896	0.034
754.0654	-0.016
754.2412	0.0305
754.417	0.005
754.5927	-0.0089
754.7685	-0.0238
754.9442	-0.0023
755.1199	-0.0055
755.2956	0.0065
755.4712	0.0018
755.6469	0.0032
755.8225	0.0166
755.9981	0.0015
756.1736	0.0183
756.3492	-0.0218
756.5248	0.0007
756.7003	0.0131
756.8758	0.0035
757.0513	0.0025
757.2267	-0.0186
757.4022	0.0046
757.5776	-0.0159
757.753	-0.0089
757.9284	0.024
758.1038	-0.0025
758.2791	-0.0125
758.4545	-0.0125
758.6298	-0.0216
758.8051	0.0039
758.9803	-0.0097
759.1556	-0.0064
759.3308	0.0052
759.506	0.0028
759.6812	-0.0179
759.8564	-0.0109
760.0316	0.0022
760.2067	-0.0143
760.3819	-0.0003
760.557	-0.0098
760.732	0.0111
760.9071	0.0087
761.0821	0.0044
761.2572	0.0116
761.4322	-0.0193
761.6072	0.0034
761.7821	0.0122
761.9571	0.0125
762.132	-0.0037
762.3069	-0.0054
762.4818	0.007
762.6567	0.0121
762.8316	0.0132
763.0064	-0.0236
763.1812	-0.0112
763.356	0.0111
763.5308	-0.0277
763.7055	0.018
763.8803	0.0005
764.055	0.002
764.2297	-0.0251
764.4044	0.0074
764.579	-0.0019
764.7537	-0.0191
764.9283	-0.0155
765.1029	0.0075
765.2775	-0.0218
765.4521	0.0171
765.6266	-0.0089
765.8011	-0.0313
765.9756	0.0167
766.1501	0.0267
766.3246	-0.0025
766.4991	-0.0565
766.6735	-0.0023
766.8479	-0.0055
767.0223	0.0229
767.1967	-0.0086
767.371	-0.0145
767.5454	0.0325
767.7197	0.0161
767.894	-0.0283
768.0683	-0.0016
768.2425	-0.0033
768.4168	0.0138
768.591	-0.0192
768.7652	-0.0099
768.9394	0.0011
769.1135	-0.0014
769.2877	0.0094
769.4618	0.0068
769.6359	-0.0094
769.81	0.0232
769.984	0.0041
770.1581	0.0114
770.3321	-0.0184
770.5061	0.0405
770.6801	-0.0051
770.8541	-0.018
771.028	0.0042
771.202	-0.0412
771.3759	-0.0096
771.5498	-0.014
771.7236	-0.0038
771.8975	0.013
772.0713	-0.0202
772.2451	0.0408
772.4189	0.0404
772.5927	-0.0214
772.7665	0.0224
772.9402	-0.0001
773.1139	0.0193
773.2876	0.0104
773.4613	0.0112
773.635	0.0379
773.8086	-0.0108
773.9822	-0.0064
774.1558	-0.0046
774.3294	-0.0242
774.503	0.0291
774.6765	0.0367
774.8501	0.0387
775.0236	0.0558
775.1971	-0.0103
775.3705	-0.0176
775.544	-0.0064
775.7174	-0.0205
775.8908	0.0437
776.0642	0.0471
776.2376	-0.0395
776.4109	0.1049
776.5843	0.0052
776.7576	0.0478
776.9309	0.0403
777.1041	-0.0038
777.2774	-0.0044
777.4506	-0.021
777.6238	0.0315
777.797	0.0128
777.9702	0.0043
778.1434	0.0024
778.3165	-0.0032
778.4896	-0.0113
778.6627	0.0195
778.8358	-0.017
779.0089	-0.01
779.1819	0.0045
779.3549	0.0061
779.5279	-0.0002
779.7009	0.002
779.8739	-0.048
780.0468	0.0352
780.2197	-0.0095
780.3926	-0.0126
780.5655	0.034
780.7384	0.0316
780.9112	0.0303
781.0841	-0.0279
781.2569	-0.0174
781.4297	0.0026
781.6024	-0.0116
781.7752	-0.0134
781.9479	0.0032
782.1206	-0.0001
782.2933	-0.0194
782.466	-0.0042
782.6386	0.0044
782.8113	-0.0002
782.9839	0.0325
783.1565	-0.02
783.329	0.0263
783.5016	0.0303
783.6741	0.0119
783.8466	-0.0473
784.0191	0.0115
784.1916	-0.0265
784.3641	-0.014
784.5365	0.0415
784.7089	0.0104
784.8813	0.0589
785.0537	-0.0353
785.2261	-0.0094
785.3984	-0.0118
785.5707	0.0379
785.743	-0.0264
785.9153	0.0449
786.0876	-0.0212
786.2598	0.04
786.432	-0.0078
786.6042	0.0451
786.7764	0.0142
786.9486	0.039
787.1207	0.0364
787.2928	0.0281
787.4649	0.0121
787.637	0.027
787.8091	-0.038
787.9811	0.0298
788.1532	0.0285
788.3252	-0.0264
788.4972	-0.0129
788.6691	0.0621
788.8411	0.0107
789.013	-0.0275
789.1849	0.0048
789.3568	0.0109
789.5287	0.0106
789.7005	0.0416
789.8723	-0.0329
790.0442	-0.0401
790.2159	0.0551
790.3877	0.0519
790.5595	0.052
790.7312	-0.0594
790.9029	-0.0172
791.0746	-0.0092
791.2463	-0.0014
791.4179	-0.0222
791.5896	0.0121
791.7612	-0.0479
791.9328	-0.0568
792.1044	-0.046
792.2759	0.002
792.4474	-0.0255
792.619	0.0299
792.7905	0.0156
792.9619	-0.0048
793.1334	-0.0609
793.3048	0.0088
793.4762	-0.0088
793.6476	0.0129
793.819	-0.0267
793.9904	0.0093
794.1617	0.0023
794.333	-0.0137
794.5043	0.0202
794.6756	0.0262
794.8469	0.0225
795.0181	0.0393
795.1893	-0.0166
795.3605	-0.0171
795.5317	0.045
795.7029	0.023
795.874	-0.0349
796.0452	-0.0101
796.2163	0.0397
796.3873	0.126
796.5584	0.0521
796.7294	-0.0898
796.9005	-0.047
797.0715	-0.0004
797.2425	-0.0593
797.4134	0.01
797.5844	0.0602
797.7553	0.039
797.9262	-0.0079
798.0971	-0.0015
798.2679	-0.0305
798.4388	-0.069
798.6096	-0.0331
798.7804	-0.0142
798.9512	0.0449
799.122	0.0797
799.2927	0.0341
799.4635	0.0408
799.6342	0.0069
799.8049	0.1377
799.9755	-0.0052
800.1462	0.0147
800.3168	0.0056
800.4874	0.0183
800.658	0.0551
800.8286	-0.0655
800.9991	0.0348
801.1696	-0.0107
801.3402	-0.0182
801.5106	-0.023
801.6811	-0.0485
801.8516	0.0052
802.022	0.0492
802.1924	-0.1252
802.3628	-0.0052
802.5332	-0.032
802.7035	-0.096
802.8739	0.1384
803.0442	-0.0242
803.2145	-0.0354
803.3847	-0.059
803.555	-0.0826
803.7252	-0.0086
803.8954	0.118
804.0656	-0.0659
804.2358	0.0585
804.4059	0.0859
804.5761	0.0574
804.7462	-0.0152
804.9163	-0.0968
805.0864	0.0047
805.2564	-0.0203
805.4264	0.0013
805.5965	0.0162
805.7665	0.0579
805.9364	-0.0351
806.1064	-0.0141
806.2763	0.0779
806.4462	0.0249
806.6161	-0.0198
806.786	0.0173
806.9559	-0.0113
807.1257	-0.0045
807.2955	0.0463
807.4653	-0.0549
807.6351	-0.0181
807.8048	-0.0019
807.9746	0.0268
808.1443	-0.0147
808.314	0.0593
808.4837	-0.0272
808.6533	0.0146
808.8229	-0.0483
808.9926	-0.0137
809.1622	0.027
809.3317	-0.0852
809.5013	0.1068
809.6708	0.0577
809.8403	0.006
810.0098	0.0934
810.1793	0.0644
810.3488	0.0714
810.5182	0.0461
810.6876	0.0599
810.857	-0.0245
811.0264	-0.0185
811.1958	-0.0911
811.3651	-0.1034
811.5344	-0.0031
811.7037	-0.0276
811.873	0.0262
812.0422	-0.0429
812.2115	-0.034
812.3807	0.0289
812.5499	0.1049
812.7191	-0.1011
812.8882	-0.0389
813.0574	-0.2281
813.2265	-0.0782
813.3956	0.0158
813.5646	-0.0198
813.7337	-0.0731
813.9027	-0.0818
814.0718	-0.0723
814.2407	-0.0815
814.4097	-0.0615
814.5787	0.0254
814.7476	0.0444
814.9165	0.0951
815.0854	0.0362
815.2543	-0.0554
815.4232	-0.0333
815.592	0.1255
815.7608	0.0979
815.9296	0.1211
816.0984	0.104
816.2671	-0.1945
816.4359	0.049
816.6046	0.2496
816.7733	0.0284
816.942	0.0853
817.1106	-0.1981
817.2793	-0.065
817.4479	-0.0435
817.6165	0.0326
817.785	0.0522
817.9536	0.0752
818.1221	0.0832
818.2906	0.1369
818.4591	-0.0514
818.6276	0.0954
818.7961	0.0257
818.9645	-0.021
819.1329	0.1777
819.3013	0.0764
819.4697	0.2544
819.638	-0.0012
819.8064	-0.1008
819.9747	-0.0729
820.143	-0.1219
820.3113	0.0566
820.4795	0.1221
820.6477	-0.0542
820.816	-0.0559
820.9842	-0.0961
821.1523	0.1014
821.3205	-0.0028
821.4886	0.0034
821.6567	-0.0109
821.8248	-0.0299
821.9929	0.0456
822.1609	0.1729
822.329	0.0411
822.497	-0.065
822.665	-0.0122
822.833	-0.1868
823.0009	-0.0319
823.1688	0.0843
823.3367	-0.2398
823.5046	0.0245
823.6725	0.0871
823.8404	-0.1379
824.0082	0.0286
824.176	0.077
824.3438	0.0906
824.5116	0.2213
824.6793	-0.0511
824.847	-0.023
825.0147	0.0709
825.1824	0.1434
825.3501	0.1896
825.5177	0.098
825.6854	0.2192
825.853	-0.0546
826.0206	-0.0604
826.1881	-0.1402
826.3557	0.1719
826.5232	-0.0237
826.6907	0.0201
826.8582	0.2541
827.0257	-0.1201
827.1931	0.0165
827.3605	-0.0515
827.528	-0.0829
827.6953	0.1834
827.8627	-0.0586
828.03	0.0107
828.1974	-0.1966
828.3647	0.0249
828.532	0.0507
828.6992	0.129
828.8665	0.085
829.0337	0.0405
829.2009	0.0222
829.3681	0.1197
829.5352	0.0385
829.7024	0.0593
829.8695	-0.0958
830.0366	0.4592
830.2037	0.0115
830.3707	-0.1432
830.5378	0.2367
830.7048	-0.2853
830.8718	0.1446
831.0388	0.2858
831.2057	0.1057
831.3727	-0.0019
831.5396	-0.0306
831.7065	0.1914
831.8734	-0.2896
832.0402	0.0762
832.2071	-0
832.3739	-0.0731
832.5407	-0
832.7075	0.1193
832.8742	-0
833.041	-0.0804
833.2077	0.1054
833.3744	-0.0583
833.541	0.1642
833.7077	-0.129
833.8743	0.0952
834.0409	-0.0411
834.2075	-0.1146
834.3741	0.0282
834.5407	-0.2115
834.7072	-0.0089
834.8737	0.0945
835.0402	-0.2534
835.2067	-0.0495
835.3731	-0.0135
835.5395	-0.0769
835.706	0.349
835.8723	-0.0584
836.0387	0.2291
836.2051	0.1905
836.3714	-0.0509
836.5377	-0.0354
836.704	0.02
836.8703	-0.1919
837.0365	0.5794
837.2027	-0.2086
837.3689	0.0942
837.5351	-0.13
837.7013	0.3922
837.8674	-0.3928
838.0335	0.164
838.1997	0.7515
838.3657	-0
838.5318	-0.7782
838.6978	-0.2406
838.8639	0.2884
839.0299	0.3414
839.1958	0.0732
839.3618	0.531
839.5277	-0.2625
839.6937	-0.3882
839.8596	0.0632
840.0254	0.2256
840.1913	0.4227
840.3571	-0.0989
840.523	0.1095
840.6888	0.0944
840.8545	-0.2771
841.0203	0.1193
841.186	-0.0445
841.3517	0.1716
841.5174	0.1695
841.6831	0.5045
841.8488	0.2589
842.0144	0.8976
842.18	-0.0099
842.3456	-0.0363
842.5112	0.0709
842.6767	-0.1686
842.8422	-0.0879
843.0077	0.2718
843.1732	0.0868
843.3387	0.1672
843.5042	-0
843.6696	0.2591
843.835	-0.3533
844.0004	0.0388
844.1657	-0
844.3311	-0
844.4964	0.1095
844.6617	-0
844.827	0.9052
844.9923	0.0959
845.1575	0.0414
845.3227	-0
845.4879	0.2491
845.6531	-0.0897
845.8183	0.4981
845.9834	-0.2139
846.1485	-0.4003
846.3136	0.0631
846.4787	0.587
846.6438	0.2871
846.8088	0.3979
846.9738	-0
847.1388	0.2601
847.3038	-0.0834
847.4687	-0
847.6337	-0
847.7986	0.0882
847.9635	-0
848.1284	-0
848.2932	-0.0043
848.458	0.1149
848.6228	-0
848.7876	0.1057
848.9524	0.4884
849.1172	-0.3298
849.2819	-0
849.4466	-0.0401
849.6113	0.5006
849.7759	-0
849.9406	-0.0156
850.1052	-0.4632
850.2698	-1.2742
850.4344	0.0652
850.599	0.8423
850.7635	-0
850.928	1.243
851.0925	-0.0891
851.257	-0.2102
851.4215	-0.3953
851.5859	0.3216
851.7503	-0.2755
851.9147	-0
852.0791	-0.3584
852.2434	0.1241
852.4078	-0
852.5721	-0
852.7364	0.0961
852.9007	0.0592
853.0649	0.2681
853.2291	1.0303
853.3934	1.4698
853.5575	-0.1892
853.7217	-0
853.8859	0.0429
854.05	-1.0162
854.2141	-0
854.3782	0.6668
854.5423	-0.5159
854.7063	0.9431
854.8703	0.416
855.0343	0.141
855.1983	0.0797
855.3623	0.0487
855.5262	-0
855.6901	0.2644
855.854	0.2723
856.0179	-0
856.1818	-0
856.3456	0.6779
856.5094	-0.1362
856.6732	-0.7681
856.837	-0.1001
857.0008	-0.2406
857.1645	-0
857.3282	0.2476
857.4919	-0.2517
857.6556	-0
857.8192	-0.3809
857.9828	-0.3645
858.1465	0.1587
858.31	-1.65
858.4736	-0.0949
858.6372	-0
858.8007	-1
858.9642	0.3387
859.1277	-0.4225
859.2911	0.0222
859.4546	0.2185
859.618	-0.207
859.7814	-0
859.9448	-0.1212
860.1081	0.5836
860.2715	-0.0458
860.4348	-0.2049
860.5981	-0.5068
860.7614	0.6532
860.9246	0.576
861.0879	-0.1134
861.2511	-0
861.4143	-0
861.5774	0.2453
861.7406	-0.216
861.9037	-0
862.0668	-0
862.2299	-1.6628
862.393	-0
862.556	-0.3199
862.7191	0.1069
862.8821	-0.4396
863.0451	0.4906
863.208	0.5006
863.371	0.2094
863.5339	-0.0699
863.6968	-0
863.8597	-0.7782
864.0225	0.0093
864.1854	-0.3993
864.3482	0.1848
864.511	0.9777
864.6737	-0
864.8365	0.3913
864.9992	-0.301
865.1619	0.056
865.3246	-0.2547
865.4873	-0
865.65	-0.7312
865.8126	0.6619
865.9752	0.1592
866.1378	-0.8071
866.3004	0.1761
866.4629	-0.0032
866.6254	-0.1549
866.7879	0.2417
866.9504	-0
867.1129	0.0343
867.2753	-0
867.4377	0.3093
867.6001	0.6085
867.7625	-0.2336
867.9249	0.1761
868.0872	-0
868.2495	-0
868.4118	0.8633
868.5741	-0.3736
868.7363	-0
868.8986	0.8553
869.0608	-0
869.223	0.3108
869.3851	-0
869.5473	-1.0189
869.7094	-0
869.8715	-0
870.0336	0.107
870.1957	-0.8724
870.3577	-0.1403
870.5197	0.0564
870.6817	-0
870.8437	0.4292
871.0057	-0
871.1676	0.2706
871.3295	-0
871.4914	-0.0056
871.6533	-0.107
871.8151	-0.1796
871.977	0.3661
872.1388	-0.301
872.3006	0.242
872.4623	-0.423
872.6241	-1.5798
872.7858	-0.0729
872.9475	0.4523
873.1092	-0.0509
873.2709	-0
873.4325	-0
873.5941	-0
873.7557	0.2852
873.9173	-0.2467
874.0789	0.6623
874.2404	-0.2861
874.4019	0.3205
874.5634	-0.0571
874.7249	-0
874.8863	0.2888
875.0478	0.3236
875.2092	0.6532
875.3706	-0.1277
875.5319	-0
875.6933	-0
875.8546	-0.1919
876.0159	-0.1353
876.1772	-0.3736
876.3385	-0.2721
876.4997	-0
876.6609	-0.8835
876.8221	-0
876.9833	0.3393
877.1445	0.2476
877.3056	0.4728
877.4667	-0
877.6278	0.3093
877.7889	-0.1515
877.9499	-0.3761
878.111	0.2177
878.272	-0
878.433	-0.3445
878.5939	-0.0989
878.7549	-0.7896
878.9158	-0
879.0767	-0
879.2376	-0
879.3984	-0.3916
879.5593	-0.1329
879.7201	-0.1453
879.8809	-0
880.0417	0.0039
880.2024	1.4599
880.3632	-0.1832
880.5239	0.2544
880.6846	-0
880.8452	1.2026
881.0059	0.4449
881.1665	0.3086
881.3271	-0
881.4877	0.1761
881.6483	-0.301
881.8088	0.4179
881.9693	-0
882.1298	-0
882.2903	-0
