Data from D4ACN5uM480nmA_Absorbance_12-08-01-840.txt Node
Date: Fri Feb 21 12:08:01 GMT 2025
User: LASERRRRR
Spectrometer: FLMT03099
Trigger mode: 0
Integration Time (sec): 1.500000E-2
Scans to average: 1
Electric dark correction enabled: true
Nonlinearity correction enabled: false
Boxcar width: 0
XAxis mode: Wavelengths
Number of Pixels in Spectrum: 3648
>>>>>Begin Spectral Data<<<<<
179.3399	-0.2076
179.5586	-0.2076
179.7771	-0.2076
179.9957	0.1964
180.2143	-0.3191
180.4329	-0
180.6514	-0
180.8699	-0.5633
181.0885	-0
181.307	0.1881
181.5255	1.2368
181.744	-0.376
181.9625	0.1465
182.181	-0.1215
182.3994	-0
182.6179	-0.9404
182.8363	-0
183.0547	-0
183.2732	0.1541
183.4916	0.1566
183.71	0.1973
183.9284	0.3578
184.1467	0.4945
184.3651	0.2838
184.5835	-0.0067
184.8018	0.3684
185.0201	0.1401
185.2385	0.1792
185.4568	0.5077
185.6751	0.2007
185.8934	0.0997
186.1117	0.2016
186.3299	0.1455
186.5482	0.0718
186.7664	0.2443
186.9847	0.174
187.2029	0.3907
187.4211	0.1327
187.6393	0.1768
187.8575	0.0687
188.0757	0.2685
188.2939	0.1683
188.512	0.2691
188.7302	0.2703
188.9483	0.3239
189.1665	0.3107
189.3846	0.0298
189.6027	0.0737
189.8208	0.4532
190.0389	0.0647
190.257	0.3551
190.475	0.1177
190.6931	0.3992
190.9111	0.3354
191.1292	0.3322
191.3472	0.3245
191.5652	0.4308
191.7832	0.1821
192.0012	0.2004
192.2192	0.364
192.4371	0.288
192.6551	0.2966
192.873	0.2405
193.091	0.2871
193.3089	0.1177
193.5268	0.4038
193.7447	0.2791
193.9626	0.452
194.1805	0.3851
194.3984	0.4251
194.6162	0.5744
194.8341	0.3741
195.0519	0.5325
195.2697	0.5399
195.4875	0.6585
195.7054	0.4862
195.9231	0.424
196.1409	0.6038
196.3587	0.6807
196.5765	0.5619
196.7942	0.6729
197.012	0.6484
197.2297	0.5557
197.4474	0.7427
197.6651	0.6307
197.8828	0.6475
198.1005	0.7463
198.3182	0.6973
198.5358	0.5148
198.7535	0.5214
198.9711	0.6577
199.1888	0.5385
199.4064	0.6169
199.624	0.6411
199.8416	0.5199
200.0592	0.6483
200.2767	0.6119
200.4943	0.5818
200.7119	0.5875
200.9294	0.5935
201.1469	0.5752
201.3645	0.5975
201.582	0.5069
201.7995	0.5542
202.017	0.535
202.2344	0.5161
202.4519	0.594
202.6694	0.5478
202.8868	0.5481
203.1042	0.5597
203.3217	0.5519
203.5391	0.494
203.7565	0.5205
203.9739	0.4671
204.1913	0.4877
204.4086	0.5007
204.626	0.5267
204.8433	0.4929
205.0607	0.4996
205.278	0.5424
205.4953	0.4864
205.7126	0.4654
205.9299	0.4909
206.1472	0.529
206.3644	0.4871
206.5817	0.4673
206.7989	0.4889
207.0162	0.474
207.2334	0.4259
207.4506	0.4307
207.6678	0.446
207.885	0.4244
208.1022	0.4645
208.3194	0.4345
208.5365	0.4542
208.7537	0.4366
208.9708	0.448
209.1879	0.3973
209.405	0.4516
209.6222	0.4408
209.8392	0.4168
210.0563	0.4265
210.2734	0.4015
210.4905	0.4073
210.7075	0.4349
210.9245	0.4058
211.1416	0.4166
211.3586	0.4165
211.5756	0.4202
211.7926	0.429
212.0096	0.4162
212.2265	0.4063
212.4435	0.42
212.6604	0.4031
212.8774	0.4314
213.0943	0.407
213.3112	0.4155
213.5281	0.4126
213.745	0.4028
213.9619	0.4026
214.1788	0.3998
214.3956	0.4147
214.6125	0.4012
214.8293	0.4014
215.0461	0.4048
215.2629	0.401
215.4798	0.3918
215.6965	0.3882
215.9133	0.3979
216.1301	0.4212
216.3469	0.3865
216.5636	0.4176
216.7803	0.415
216.9971	0.4253
217.2138	0.3855
217.4305	0.3915
217.6472	0.4221
217.8639	0.4109
218.0805	0.4157
218.2972	0.4342
218.5138	0.4243
218.7305	0.4183
218.9471	0.4234
219.1637	0.4153
219.3803	0.4162
219.5969	0.4242
219.8135	0.4213
220.0301	0.4044
220.2466	0.4411
220.4632	0.4081
220.6797	0.4184
220.8962	0.4208
221.1127	0.4342
221.3292	0.4203
221.5457	0.4472
221.7622	0.434
221.9787	0.4347
222.1951	0.4374
222.4116	0.435
222.628	0.4483
222.8444	0.4423
223.0608	0.4483
223.2772	0.4554
223.4936	0.4359
223.71	0.4581
223.9264	0.4489
224.1427	0.4747
224.3591	0.465
224.5754	0.4663
224.7917	0.4549
225.008	0.4541
225.2243	0.4465
225.4406	0.4599
225.6569	0.4611
225.8732	0.465
226.0894	0.4787
226.3057	0.4468
226.5219	0.4731
226.7381	0.4646
226.9543	0.4716
227.1705	0.4846
227.3867	0.4858
227.6029	0.4651
227.8191	0.4844
228.0352	0.5086
228.2513	0.4912
228.4675	0.4902
228.6836	0.5037
228.8997	0.4991
229.1158	0.4829
229.3319	0.4805
229.548	0.5016
229.764	0.509
229.9801	0.5022
230.1961	0.5147
230.4121	0.5114
230.6282	0.5056
230.8442	0.5083
231.0602	0.5128
231.2761	0.5148
231.4921	0.521
231.7081	0.5092
231.924	0.509
232.14	0.5206
232.3559	0.523
232.5718	0.5224
232.7877	0.5384
233.0036	0.5186
233.2195	0.5198
233.4353	0.5356
233.6512	0.5251
233.867	0.5233
234.0829	0.5287
234.2987	0.5306
234.5145	0.531
234.7303	0.5249
234.9461	0.533
235.1619	0.5364
235.3776	0.5311
235.5934	0.5344
235.8091	0.5324
236.0249	0.5398
236.2406	0.5338
236.4563	0.5431
236.672	0.5379
236.8877	0.5371
237.1034	0.5242
237.319	0.5483
237.5347	0.516
237.7503	0.5299
237.966	0.5253
238.1816	0.5289
238.3972	0.5356
238.6128	0.5465
238.8284	0.5331
239.0439	0.5348
239.2595	0.5239
239.475	0.5313
239.6906	0.531
239.9061	0.5301
240.1216	0.5309
240.3371	0.5158
240.5526	0.5151
240.7681	0.5261
240.9836	0.5189
241.199	0.5062
241.4145	0.5054
241.6299	0.4932
241.8453	0.4878
242.0607	0.4833
242.2761	0.4733
242.4915	0.473
242.7069	0.4681
242.9223	0.4679
243.1376	0.4498
243.353	0.4404
243.5683	0.4305
243.7836	0.4232
243.9989	0.4204
244.2142	0.4089
244.4295	0.4043
244.6448	0.4009
244.86	0.3887
245.0753	0.3768
245.2905	0.3802
245.5057	0.3707
245.721	0.3575
245.9362	0.3498
246.1514	0.3389
246.3665	0.3423
246.5817	0.3321
246.7969	0.3261
247.012	0.3276
247.2271	0.3121
247.4423	0.304
247.6574	0.309
247.8725	0.3047
248.0876	0.289
248.3026	0.2852
248.5177	0.2825
248.7328	0.2818
248.9478	0.2739
249.1628	0.2674
249.3779	0.27
249.5929	0.2604
249.8079	0.2535
250.0228	0.2503
250.2378	0.2575
250.4528	0.2492
250.6677	0.2394
250.8827	0.2356
251.0976	0.2402
251.3125	0.2357
251.5274	0.2317
251.7423	0.2253
251.9572	0.2202
252.172	0.2226
252.3869	0.2257
252.6017	0.2229
252.8166	0.2209
253.0314	0.2218
253.2462	0.2155
253.461	0.2154
253.6758	0.2186
253.8906	0.2122
254.1053	0.1974
254.3201	0.2043
254.5348	0.2045
254.7496	0.1984
254.9643	0.2075
255.179	0.2003
255.3937	0.1971
255.6083	0.1976
255.823	0.1972
256.0377	0.203
256.2523	0.1957
256.467	0.203
256.6816	0.2015
256.8962	0.1942
257.1108	0.1894
257.3254	0.1905
257.54	0.1953
257.7545	0.1866
257.9691	0.1913
258.1836	0.1879
258.3981	0.1918
258.6127	0.1884
258.8272	0.1914
259.0417	0.1847
259.2561	0.1896
259.4706	0.1938
259.6851	0.1874
259.8995	0.1768
260.114	0.1866
260.3284	0.1881
260.5428	0.1783
260.7572	0.1852
260.9716	0.1808
261.186	0.1838
261.4003	0.1857
261.6147	0.1853
261.829	0.1799
262.0433	0.1803
262.2577	0.1905
262.472	0.1822
262.6863	0.1839
262.9005	0.1864
263.1148	0.1811
263.3291	0.1864
263.5433	0.1861
263.7576	0.1811
263.9718	0.1915
264.186	0.191
264.4002	0.1828
264.6144	0.1921
264.8286	0.1917
265.0427	0.1942
265.2569	0.1863
265.471	0.1912
265.6851	0.1824
265.8993	0.1852
266.1134	0.1881
266.3275	0.1856
266.5415	0.1846
266.7556	0.1815
266.9697	0.1878
267.1837	0.1801
267.3978	0.1922
267.6118	0.184
267.8258	0.1849
268.0398	0.1824
268.2538	0.185
268.4677	0.1874
268.6817	0.1766
268.8957	0.1817
269.1096	0.1775
269.3235	0.1855
269.5374	0.1817
269.7514	0.1851
269.9652	0.18
270.1791	0.1802
270.393	0.179
270.6068	0.1763
270.8207	0.1717
271.0345	0.1745
271.2483	0.1794
271.4622	0.18
271.676	0.1683
271.8897	0.1759
272.1035	0.1755
272.3173	0.1677
272.531	0.1707
272.7448	0.1719
272.9585	0.1771
273.1722	0.1729
273.3859	0.1711
273.5996	0.1724
273.8133	0.165
274.0269	0.179
274.2406	0.1749
274.4542	0.1699
274.6679	0.1747
274.8815	0.1745
275.0951	0.1749
275.3087	0.1791
275.5223	0.1715
275.7358	0.1753
275.9494	0.1727
276.1629	0.1794
276.3765	0.169
276.59	0.1755
276.8035	0.1828
277.017	0.1762
277.2305	0.1755
277.444	0.1757
277.6574	0.1793
277.8709	0.1783
278.0843	0.1797
278.2978	0.183
278.5112	0.1781
278.7246	0.1837
278.938	0.1748
279.1513	0.1788
279.3647	0.18
279.5781	0.1783
279.7914	0.181
280.0047	0.1762
280.2181	0.1814
280.4314	0.1757
280.6447	0.1851
280.8579	0.1784
281.0712	0.1803
281.2845	0.183
281.4977	0.1834
281.711	0.179
281.9242	0.1871
282.1374	0.1822
282.3506	0.1923
282.5638	0.1837
282.7769	0.182
282.9901	0.1855
283.2033	0.1863
283.4164	0.1845
283.6295	0.1858
283.8426	0.1821
284.0557	0.1837
284.2688	0.1881
284.4819	0.1859
284.695	0.1925
284.908	0.1856
285.1211	0.1899
285.3341	0.2012
285.5471	0.1884
285.7601	0.193
285.9731	0.1892
286.1861	0.1919
286.3991	0.1952
286.612	0.1938
286.825	0.1962
287.0379	0.2024
287.2508	0.1972
287.4637	0.194
287.6766	0.1935
287.8895	0.1943
288.1024	0.1913
288.3152	0.1952
288.5281	0.1945
288.7409	0.2007
288.9538	0.192
289.1666	0.202
289.3794	0.1996
289.5922	0.1931
289.8049	0.2024
290.0177	0.2026
290.2304	0.2013
290.4432	0.1921
290.6559	0.1913
290.8686	0.2039
291.0813	0.2035
291.294	0.2023
291.5067	0.2022
291.7194	0.1999
291.932	0.1944
292.1447	0.2021
292.3573	0.2002
292.5699	0.2075
292.7825	0.2028
292.9951	0.1958
293.2077	0.2046
293.4203	0.2069
293.6328	0.1987
293.8454	0.2033
294.0579	0.2013
294.2704	0.2029
294.4829	0.2001
294.6954	0.1973
294.9079	0.2028
295.1204	0.2015
295.3328	0.1976
295.5453	0.2009
295.7577	0.1964
295.9701	0.2007
296.1825	0.1967
296.3949	0.2063
296.6073	0.2049
296.8197	0.2028
297.0321	0.1988
297.2444	0.2006
297.4567	0.196
297.6691	0.2002
297.8814	0.2007
298.0937	0.2018
298.306	0.1967
298.5182	0.2027
298.7305	0.1939
298.9428	0.1932
299.155	0.196
299.3672	0.2018
299.5794	0.1975
299.7916	0.1988
300.0038	0.1951
300.216	0.1979
300.4282	0.1947
300.6403	0.1956
300.8525	0.2016
301.0646	0.1974
301.2767	0.1995
301.4888	0.201
301.7009	0.1983
301.913	0.2017
302.125	0.1905
302.3371	0.2009
302.5491	0.1999
302.7612	0.195
302.9732	0.1947
303.1852	0.1927
303.3972	0.1945
303.6092	0.1931
303.8211	0.1921
304.0331	0.1923
304.245	0.1895
304.457	0.1969
304.6689	0.1965
304.8808	0.1921
305.0927	0.1913
305.3046	0.1882
305.5164	0.1822
305.7283	0.1918
305.9401	0.1828
306.152	0.176
306.3638	0.18
306.5756	0.1838
306.7874	0.1801
306.9992	0.1778
307.2109	0.1743
307.4227	0.1731
307.6344	0.1722
307.8462	0.1689
308.0579	0.1702
308.2696	0.1675
308.4813	0.1601
308.693	0.1652
308.9046	0.1616
309.1163	0.1604
309.328	0.1532
309.5396	0.1613
309.7512	0.1556
309.9628	0.1563
310.1744	0.1562
310.386	0.1526
310.5976	0.1472
310.8091	0.1483
311.0207	0.145
311.2322	0.1463
311.4437	0.1437
311.6552	0.1431
311.8667	0.138
312.0782	0.1379
312.2897	0.1409
312.5012	0.1399
312.7126	0.1319
312.924	0.1302
313.1355	0.1328
313.3469	0.1296
313.5583	0.1322
313.7696	0.1273
313.981	0.1267
314.1924	0.1249
314.4037	0.1298
314.6151	0.1217
314.8264	0.1286
315.0377	0.1321
315.249	0.1208
315.4603	0.1269
315.6716	0.1288
315.8828	0.1241
316.0941	0.1201
316.3053	0.1189
316.5165	0.1172
316.7277	0.1186
316.9389	0.1167
317.1501	0.1194
317.3613	0.1174
317.5724	0.1175
317.7836	0.116
317.9947	0.118
318.2058	0.1206
318.417	0.1164
318.6281	0.1135
318.8391	0.1172
319.0502	0.1182
319.2613	0.1147
319.4723	0.1177
319.6834	0.1183
319.8944	0.1165
320.1054	0.1147
320.3164	0.119
320.5274	0.1102
320.7383	0.1159
320.9493	0.1163
321.1602	0.1156
321.3712	0.1178
321.5821	0.1201
321.793	0.1134
322.0039	0.1147
322.2148	0.1199
322.4257	0.1198
322.6365	0.1145
322.8474	0.1164
323.0582	0.1204
323.269	0.1128
323.4798	0.1127
323.6906	0.1185
323.9014	0.1164
324.1122	0.1166
324.3229	0.1201
324.5337	0.1187
324.7444	0.117
324.9551	0.1198
325.1658	0.1187
325.3765	0.1202
325.5872	0.1176
325.7979	0.1103
326.0085	0.1148
326.2192	0.1103
326.4298	0.1225
326.6404	0.1211
326.851	0.1202
327.0616	0.1239
327.2722	0.129
327.4828	0.1191
327.6933	0.1154
327.9039	0.1273
328.1144	0.116
328.3249	0.1288
328.5354	0.1181
328.7459	0.1244
328.9564	0.1252
329.1669	0.1311
329.3773	0.1215
329.5878	0.1229
329.7982	0.1201
330.0086	0.1217
330.219	0.1199
330.4294	0.1254
330.6398	0.1279
330.8502	0.1232
331.0605	0.1195
331.2708	0.1282
331.4812	0.1218
331.6915	0.1224
331.9018	0.1174
332.1121	0.1311
332.3224	0.1306
332.5326	0.1308
332.7429	0.1214
332.9531	0.1249
333.1633	0.1241
333.3735	0.1255
333.5837	0.1251
333.7939	0.126
334.0041	0.1219
334.2143	0.1213
334.4244	0.1252
334.6346	0.1302
334.8447	0.1258
335.0548	0.1266
335.2649	0.1278
335.475	0.1226
335.685	0.1251
335.8951	0.1332
336.1051	0.1326
336.3152	0.1259
336.5252	0.126
336.7352	0.1227
336.9452	0.13
337.1552	0.1238
337.3652	0.1323
337.5751	0.1229
337.7851	0.1212
337.995	0.1301
338.2049	0.1377
338.4148	0.1373
338.6247	0.1338
338.8346	0.1284
339.0445	0.1274
339.2543	0.1364
339.4642	0.1386
339.674	0.136
339.8838	0.1314
340.0936	0.1274
340.3034	0.1426
340.5132	0.1281
340.7229	0.1337
340.9327	0.1367
341.1424	0.1361
341.3522	0.1411
341.5619	0.1327
341.7716	0.1374
341.9813	0.1444
342.1909	0.1396
342.4006	0.1445
342.6102	0.1331
342.8199	0.1431
343.0295	0.1461
343.2391	0.1374
343.4487	0.1487
343.6583	0.1558
343.8679	0.1428
344.0774	0.1473
344.287	0.1455
344.4965	0.1461
344.706	0.1505
344.9155	0.1382
345.125	0.1508
345.3345	0.1453
345.544	0.1495
345.7534	0.1495
345.9629	0.1494
346.1723	0.1457
346.3817	0.1472
346.5911	0.1553
346.8005	0.1524
347.0099	0.1583
347.2193	0.1484
347.4286	0.1553
347.638	0.1498
347.8473	0.155
348.0566	0.1595
348.2659	0.1641
348.4752	0.1578
348.6845	0.1598
348.8937	0.1634
349.103	0.1528
349.3122	0.1636
349.5214	0.159
349.7306	0.1578
349.9398	0.1577
350.149	0.1647
350.3582	0.158
350.5674	0.1638
350.7765	0.1626
350.9856	0.1668
351.1948	0.1691
351.4039	0.1668
351.613	0.1758
351.822	0.169
352.0311	0.1692
352.2402	0.1659
352.4492	0.1699
352.6582	0.1625
352.8672	0.1697
353.0762	0.1716
353.2852	0.1683
353.4942	0.1735
353.7032	0.172
353.9121	0.1769
354.1211	0.1706
354.33	0.1734
354.5389	0.1811
354.7478	0.181
354.9567	0.1796
355.1655	0.1775
355.3744	0.1758
355.5833	0.1851
355.7921	0.1836
356.0009	0.1786
356.2097	0.1875
356.4185	0.1905
356.6273	0.1764
356.8361	0.1871
357.0448	0.1911
357.2536	0.1872
357.4623	0.1883
357.671	0.1851
357.8797	0.1915
358.0884	0.1877
358.2971	0.1859
358.5057	0.1932
358.7144	0.2041
358.923	0.1968
359.1316	0.1975
359.3402	0.1966
359.5488	0.2023
359.7574	0.1971
359.966	0.1987
360.1746	0.2013
360.3831	0.2082
360.5916	0.2043
360.8002	0.209
361.0087	0.2133
361.2172	0.2148
361.4256	0.206
361.6341	0.2181
361.8426	0.208
362.051	0.2067
362.2594	0.2173
362.4678	0.2163
362.6762	0.2145
362.8846	0.2224
363.093	0.2182
363.3014	0.2243
363.5097	0.2213
363.718	0.2352
363.9264	0.2295
364.1347	0.2207
364.343	0.2281
364.5513	0.2267
364.7595	0.2328
364.9678	0.2342
365.176	0.2277
365.3842	0.2349
365.5925	0.2339
365.8007	0.2298
366.0089	0.233
366.217	0.2364
366.4252	0.2359
366.6333	0.2341
366.8415	0.2314
367.0496	0.242
367.2577	0.2433
367.4658	0.2531
367.6739	0.2396
367.882	0.2438
368.09	0.2496
368.2981	0.243
368.5061	0.2502
368.7141	0.2364
368.9221	0.2477
369.1301	0.2523
369.3381	0.257
369.5461	0.2531
369.754	0.2479
369.962	0.2584
370.1699	0.2592
370.3778	0.2578
370.5857	0.2566
370.7936	0.2594
371.0015	0.2585
371.2093	0.2584
371.4172	0.2629
371.625	0.2593
371.8328	0.264
372.0406	0.2609
372.2484	0.2607
372.4562	0.2689
372.664	0.2707
372.8717	0.27
373.0795	0.2679
373.2872	0.2673
373.4949	0.2719
373.7026	0.2835
373.9103	0.2645
374.118	0.2713
374.3256	0.2784
374.5333	0.2702
374.7409	0.2718
374.9485	0.2796
375.1561	0.2724
375.3637	0.2637
375.5713	0.2829
375.7789	0.2685
375.9864	0.2795
376.194	0.2761
376.4015	0.2833
376.609	0.2923
376.8165	0.2889
377.024	0.2816
377.2315	0.297
377.4389	0.276
377.6464	0.2911
377.8538	0.2932
378.0612	0.2792
378.2686	0.2864
378.476	0.2874
378.6834	0.2837
378.8908	0.2926
379.0981	0.2986
379.3055	0.2976
379.5128	0.3035
379.7201	0.3
379.9274	0.3028
380.1347	0.2936
380.342	0.3068
380.5492	0.2976
380.7565	0.3051
380.9637	0.2914
381.1709	0.2961
381.3781	0.3054
381.5853	0.3058
381.7925	0.3054
381.9997	0.3101
382.2068	0.2952
382.4139	0.3101
382.6211	0.315
382.8282	0.3113
383.0353	0.3124
383.2424	0.3082
383.4494	0.3168
383.6565	0.3089
383.8635	0.321
384.0706	0.3013
384.2776	0.3193
384.4846	0.3182
384.6916	0.3104
384.8986	0.3126
385.1055	0.3152
385.3125	0.3092
385.5194	0.3125
385.7263	0.3138
385.9333	0.3153
386.1402	0.3146
386.347	0.3121
386.5539	0.3173
386.7608	0.3194
386.9676	0.3183
387.1744	0.3191
387.3813	0.3053
387.5881	0.3201
387.7948	0.3097
388.0016	0.3115
388.2084	0.311
388.4151	0.3019
388.6219	0.3041
388.8286	0.3093
389.0353	0.299
389.242	0.3014
389.4487	0.3182
389.6553	0.3047
389.862	0.3059
390.0686	0.3185
390.2753	0.2992
390.4819	0.3149
390.6885	0.3153
390.8951	0.3111
391.1016	0.3131
391.3082	0.2963
391.5147	0.2986
391.7213	0.2971
391.9278	0.298
392.1343	0.3001
392.3408	0.2829
392.5473	0.2902
392.7537	0.2995
392.9602	0.2899
393.1666	0.2945
393.373	0.285
393.5794	0.2942
393.7858	0.2896
393.9922	0.2972
394.1986	0.2872
394.4049	0.2835
394.6113	0.2915
394.8176	0.2747
395.0239	0.2681
395.2302	0.2736
395.4365	0.2658
395.6428	0.277
395.8491	0.2781
396.0553	0.2762
396.2615	0.2701
396.4678	0.2772
396.674	0.2754
396.8802	0.2645
397.0863	0.2623
397.2925	0.2626
397.4987	0.2682
397.7048	0.2708
397.9109	0.2754
398.117	0.272
398.3231	0.2623
398.5292	0.2785
398.7353	0.2653
398.9413	0.2686
399.1474	0.2765
399.3534	0.2663
399.5594	0.2682
399.7654	0.2709
399.9714	0.2749
400.1774	0.2595
400.3833	0.2687
400.5893	0.2652
400.7952	0.2619
401.0011	0.2589
401.207	0.2659
401.4129	0.2556
401.6188	0.2705
401.8247	0.2719
402.0305	0.2647
402.2364	0.2688
402.4422	0.2637
402.648	0.2834
402.8538	0.2729
403.0596	0.26
403.2654	0.2678
403.4711	0.2686
403.6768	0.2657
403.8826	0.2742
404.0883	0.2626
404.294	0.2712
404.4997	0.265
404.7054	0.2647
404.911	0.2729
405.1167	0.2664
405.3223	0.2712
405.5279	0.2713
405.7335	0.2646
405.9391	0.2609
406.1447	0.271
406.3502	0.2688
406.5558	0.2718
406.7613	0.269
406.9668	0.2748
407.1724	0.2707
407.3778	0.2764
407.5833	0.2719
407.7888	0.2671
407.9942	0.2618
408.1997	0.2705
408.4051	0.2673
408.6105	0.2694
408.8159	0.2721
409.0213	0.2726
409.2267	0.2604
409.432	0.2796
409.6374	0.2625
409.8427	0.2718
410.048	0.2669
410.2533	0.2595
410.4586	0.2759
410.6639	0.275
410.8691	0.2759
411.0744	0.2723
411.2796	0.2695
411.4848	0.2569
411.69	0.2749
411.8952	0.2712
412.1004	0.2673
412.3056	0.2574
412.5107	0.2694
412.7158	0.2727
412.921	0.273
413.1261	0.2709
413.3312	0.2583
413.5362	0.2643
413.7413	0.2652
413.9464	0.2651
414.1514	0.2628
414.3564	0.2582
414.5614	0.2673
414.7664	0.2602
414.9714	0.2631
415.1764	0.2613
415.3813	0.2457
415.5863	0.2615
415.7912	0.2564
415.9961	0.2632
416.201	0.2701
416.4059	0.257
416.6108	0.2536
416.8156	0.252
417.0205	0.2613
417.2253	0.2602
417.4301	0.2698
417.6349	0.2637
417.8397	0.2696
418.0445	0.267
418.2492	0.2572
418.454	0.257
418.6587	0.2495
418.8634	0.2659
419.0681	0.2574
419.2728	0.2373
419.4775	0.2515
419.6822	0.2579
419.8868	0.2598
420.0915	0.2568
420.2961	0.2384
420.5007	0.254
420.7053	0.2613
420.9099	0.2403
421.1144	0.2445
421.319	0.2399
421.5235	0.2419
421.728	0.2424
421.9325	0.2517
422.137	0.2419
422.3415	0.2421
422.546	0.2442
422.7504	0.2536
422.9549	0.2403
423.1593	0.2349
423.3637	0.2362
423.5681	0.2492
423.7725	0.2411
423.9769	0.2444
424.1812	0.2349
424.3856	0.2418
424.5899	0.2364
424.7942	0.2285
424.9985	0.2273
425.2028	0.2363
425.4071	0.2115
425.6113	0.2247
425.8156	0.2189
426.0198	0.2218
426.224	0.2262
426.4282	0.2268
426.6324	0.2138
426.8366	0.2163
427.0407	0.2175
427.2449	0.2216
427.449	0.2183
427.6531	0.2239
427.8572	0.22
428.0613	0.2018
428.2654	0.2097
428.4694	0.1996
428.6735	0.2084
428.8775	0.2002
429.0815	0.2157
429.2855	0.1984
429.4895	0.1987
429.6935	0.2006
429.8975	0.2078
430.1014	0.2036
430.3053	0.2004
430.5093	0.2005
430.7132	0.1995
430.9171	0.1927
431.1209	0.1872
431.3248	0.1872
431.5286	0.1781
431.7325	0.186
431.9363	0.1875
432.1401	0.192
432.3439	0.1847
432.5477	0.1879
432.7514	0.1771
432.9552	0.1701
433.1589	0.1716
433.3627	0.1754
433.5664	0.1716
433.7701	0.1686
433.9737	0.1692
434.1774	0.1666
434.3811	0.1757
434.5847	0.163
434.7883	0.1567
434.9919	0.1505
435.1955	0.1564
435.3991	0.1536
435.6027	0.1529
435.8062	0.1429
436.0098	0.152
436.2133	0.1464
436.4168	0.1523
436.6203	0.1363
436.8238	0.1504
437.0272	0.1397
437.2307	0.1373
437.4341	0.1366
437.6375	0.1278
437.841	0.1386
438.0443	0.126
438.2477	0.1219
438.4511	0.1354
438.6545	0.1235
438.8578	0.129
439.0611	0.1241
439.2644	0.1114
439.4677	0.1152
439.671	0.1155
439.8743	0.1157
440.0775	0.1123
440.2808	0.1237
440.484	0.1028
440.6872	0.1078
440.8904	0.1074
441.0936	0.1224
441.2967	0.0982
441.4999	0.1037
441.703	0.1071
441.9062	0.0986
442.1093	0.1017
442.3124	0.0997
442.5155	0.093
442.7185	0.086
442.9216	0.0955
443.1246	0.0908
443.3276	0.0873
443.5307	0.0831
443.7337	0.0856
443.9366	0.0853
444.1396	0.0757
444.3426	0.0874
444.5455	0.0726
444.7484	0.0679
444.9513	0.0758
445.1542	0.0765
445.3571	0.0635
445.56	0.0669
445.7628	0.0805
445.9657	0.0794
446.1685	0.0771
446.3713	0.0758
446.5741	0.0566
446.7769	0.0668
446.9797	0.0631
447.1824	0.0688
447.3852	0.0711
447.5879	0.0678
447.7906	0.0537
447.9933	0.0637
448.196	0.0527
448.3986	0.0602
448.6013	0.0595
448.8039	0.058
449.0066	0.0589
449.2092	0.044
449.4118	0.0541
449.6143	0.0512
449.8169	0.0425
450.0195	0.0535
450.222	0.0568
450.4245	0.0587
450.627	0.0454
450.8295	0.0442
451.032	0.0419
451.2345	0.0417
451.4369	0.0453
451.6394	0.0439
451.8418	0.036
452.0442	0.0408
452.2466	0.037
452.449	0.0337
452.6513	0.0409
452.8537	0.0398
453.056	0.0434
453.2583	0.0355
453.4607	0.0385
453.663	0.0284
453.8652	0.0372
454.0675	0.0337
454.2697	0.0316
454.472	0.0278
454.6742	0.0284
454.8764	0.0286
455.0786	0.0332
455.2808	0.0384
455.4829	0.0214
455.6851	0.0315
455.8872	0.0361
456.0893	0.0282
456.2915	0.0244
456.4935	0.0264
456.6956	0.0305
456.8977	0.0236
457.0997	0.0264
457.3018	0.0236
457.5038	0.0245
457.7058	0.0313
457.9078	0.034
458.1098	0.019
458.3117	0.0228
458.5137	0.0318
458.7156	0.0296
458.9175	0.0199
459.1194	0.0183
459.3213	0.0193
459.5232	0.019
459.725	0.0273
459.9269	0.0202
460.1287	0.0111
460.3305	0.0185
460.5323	0.0245
460.7341	0.0179
460.9359	0.0126
461.1376	0.0162
461.3394	0.0103
461.5411	0.0109
461.7428	0.0203
461.9445	0.0057
462.1462	0.0142
462.3479	0.0127
462.5495	0.0079
462.7512	0.0041
462.9528	0.0231
463.1544	0.0109
463.356	0.0165
463.5576	0.0072
463.7592	0.0054
463.9607	0.0143
464.1623	0.0135
464.3638	0.0176
464.5653	0.0253
464.7668	0.0036
464.9683	0.0178
465.1697	0.0089
465.3712	0.0116
465.5726	0.0133
465.7741	0.0145
465.9755	0.0126
466.1769	0.0116
466.3782	0.008
466.5796	0.0053
466.7809	0.0083
466.9823	0.0062
467.1836	0.0141
467.3849	0.0057
467.5862	-0.0001
467.7875	0.016
467.9887	0.0082
468.19	0.003
468.3912	0.012
468.5924	0.0115
468.7936	-0.0055
468.9948	0.0149
469.196	0.0113
469.3972	0.0245
469.5983	0.0125
469.7994	0.0001
470.0006	0.0113
470.2017	0.0188
470.4027	0.0049
470.6038	0.0082
470.8049	0.0024
471.0059	0.011
471.2069	0.0133
471.408	-0.0005
471.6089	0.0128
471.8099	0.011
472.0109	0.0045
472.2119	0.0167
472.4128	0.0063
472.6137	0.0023
472.8146	0.0062
473.0155	-0.0022
473.2164	-0.0043
473.4173	0.0158
473.6181	0.0101
473.819	-0.0002
474.0198	0.0019
474.2206	0.0057
474.4214	0.0082
474.6222	0.0018
474.8229	0.0052
475.0237	0.0114
475.2244	0.0057
475.4251	-0.0035
475.6258	0.0005
475.8265	0.0007
476.0272	0.0021
476.2278	0.0043
476.4285	0.0057
476.6291	0.0118
476.8297	-0.0023
477.0303	0.0045
477.2309	-0.0009
477.4315	0.0089
477.632	0.0012
477.8326	0.0055
478.0331	0.001
478.2336	0.0172
478.4341	0.0041
478.6346	0.0016
478.8351	0.0058
479.0355	0.0059
479.236	0.0069
479.4364	-0.0034
479.6368	0.003
479.8372	0.0015
480.0376	-0.0096
480.2379	-0.0031
480.4383	0.0025
480.6386	0.005
480.8389	0.0037
481.0392	0.0045
481.2395	0.0071
481.4398	0.004
481.6401	0.0065
481.8403	-0.0058
482.0405	0.0017
482.2408	-0.0012
482.441	0.0005
482.6411	-0.0016
482.8413	-0.0031
483.0415	0.0025
483.2416	0.0022
483.4417	0.0045
483.6419	0.0038
483.8419	-0.0024
484.042	0.0028
484.2421	-0.0106
484.4422	0.0043
484.6422	0.007
484.8422	-0.0003
485.0422	-0.0031
485.2422	0.005
485.4422	-0.0024
485.6422	0.0006
485.8421	-0.0016
486.042	0.0066
486.242	0.0041
486.4419	0.005
486.6417	0.002
486.8416	0.0035
487.0415	-0.0007
487.2413	0.0104
487.4411	-0.0004
487.641	0.0071
487.8408	0.0082
488.0405	0.0003
488.2403	0.0054
488.4401	-0.0009
488.6398	0.0096
488.8395	0.0008
489.0392	0.0013
489.2389	0.0014
489.4386	-0.0121
489.6383	-0.0002
489.8379	-0.0031
490.0376	0.0107
490.2372	-0.0091
490.4368	0.0094
490.6364	0.0123
490.836	0.0023
491.0355	0.0061
491.2351	0.0092
491.4346	0.0049
491.6341	-0.0048
491.8336	-0.0108
492.0331	0.0046
492.2326	0.0043
492.432	0.0051
492.6315	0.0034
492.8309	0.008
493.0303	0.0005
493.2297	-0.0043
493.4291	-0.0041
493.6284	0.0072
493.8278	0.0069
494.0271	0.0044
494.2264	0.0052
494.4257	-0.0029
494.625	-0.0008
494.8243	0.0047
495.0236	0.0037
495.2228	-0.0072
495.422	0.0058
495.6213	0.0036
495.8205	0.0063
496.0196	0.0021
496.2188	0.0043
496.418	-0.0026
496.6171	0.0064
496.8162	0.0001
497.0153	0.0063
497.2144	-0.0006
497.4135	0.0017
497.6126	0.0009
497.8116	0.0058
498.0107	0.0074
498.2097	0.0072
498.4087	0.0083
498.6077	-0.0048
498.8067	0.0097
499.0056	0.0015
499.2046	0.0021
499.4035	0.0029
499.6024	-0.0131
499.8013	0.0045
500.0002	0.0026
500.199	0.003
500.3979	0.0064
500.5967	-0.0094
500.7956	-0.0026
500.9944	0.0097
501.1932	0.0013
501.3919	0.007
501.5907	0.0078
501.7895	-0.0002
501.9882	-0.0024
502.1869	0.002
502.3856	-0.0035
502.5843	0.001
502.783	0.0066
502.9816	-0.0077
503.1803	0.0039
503.3789	-0.0019
503.5775	0.0009
503.7761	-0.0007
503.9747	-0.0015
504.1732	0.0081
504.3718	-0.0011
504.5703	-0.0003
504.7689	-0.0019
504.9674	-0.0021
505.1658	0.0063
505.3643	0.0063
505.5628	0.0008
505.7612	0.0089
505.9597	-0.0003
506.1581	-0.0083
506.3565	-0.0021
506.5549	0.003
506.7532	0.0071
506.9516	0.0066
507.1499	-0.0053
507.3482	0.014
507.5465	-0.0058
507.7448	0.0058
507.9431	-0.0016
508.1414	0.0019
508.3396	-0.0006
508.5379	0.002
508.7361	0.0088
508.9343	-0.0029
509.1325	0.0103
509.3306	-0.0011
509.5288	0.011
509.7269	0.0105
509.9251	-0.0019
510.1232	-0.0092
510.3213	-0.0036
510.5193	0.005
510.7174	-0.008
510.9154	0.0078
511.1135	-0.0034
511.3115	-0.0008
511.5095	0.0073
511.7075	0.0038
511.9055	-0.0016
512.1034	0.0063
512.3014	0.0017
512.4993	0.0053
512.6972	-0.0102
512.8951	0.0066
513.093	0.0031
513.2908	0.0046
513.4887	-0.0025
513.6865	-0.001
513.8844	-0
514.0822	0.0032
514.2799	-0.0032
514.4777	0.0129
514.6755	-0.0041
514.8732	-0.0046
515.0709	0.0065
515.2687	-0.0019
515.4664	-0.0097
515.664	0.0087
515.8617	0.0052
516.0594	-0.0027
516.257	0.0142
516.4546	-0.0026
516.6522	0.0004
516.8498	-0.0021
517.0474	0.001
517.2449	0.0016
517.4425	0.0002
517.64	0.001
517.8375	0.0125
518.035	-0.0049
518.2325	-0.0025
518.43	-0.0012
518.6274	-0.0051
518.8249	0.0082
519.0223	-0.0031
519.2197	-0.004
519.4171	0.0002
519.6145	0.0023
519.8118	0.0026
520.0092	0.0038
520.2065	-0.0069
520.4038	0.0026
520.6011	0.0109
520.7984	0.0012
520.9956	0.0018
521.1929	0.0058
521.3901	0.0107
521.5874	-0.001
521.7846	0.0022
521.9818	-0
522.1789	0.017
522.3761	0.0124
522.5732	0.0105
522.7704	-0.0048
522.9675	0.0044
523.1646	0.0129
523.3617	-0.0012
523.5587	-0.0046
523.7558	0.0102
523.9528	0.0122
524.1498	-0.0029
524.3468	-0.0129
524.5438	-0.0041
524.7408	-0.0051
524.9378	0.0072
525.1347	0.0029
525.3316	0.0186
525.5285	-0.0022
525.7254	-0.0004
525.9223	0.008
526.1192	-0.0017
526.316	-0.0089
526.5129	0.0107
526.7097	-0.0077
526.9065	0.0107
527.1033	0.0001
527.3	0.0018
527.4968	-0.007
527.6935	0.0039
527.8903	0.001
528.087	-0.0004
528.2837	0.0047
528.4804	0.0083
528.677	0.0053
528.8737	-0
529.0703	0.0007
529.2669	0.0034
529.4635	0.0144
529.6601	0.0055
529.8567	0.0012
530.0532	0.0075
530.2498	-0.0057
530.4463	0.0099
530.6428	-0.004
530.8393	0.0034
531.0358	-0.0035
531.2322	-0.0005
531.4287	0.0012
531.6251	-0.0031
531.8215	0.0084
532.0179	-0.0145
532.2143	0.0103
532.4107	0.0035
532.607	0.0015
532.8034	-0.0047
532.9997	0.0078
533.196	0.0014
533.3923	0.0016
533.5886	0.0083
533.7848	-0.0123
533.9811	-0.0115
534.1773	0.0004
534.3735	-0.0003
534.5697	0.008
534.7659	0.0009
534.9621	0.0162
535.1582	0.0013
535.3544	0.0016
535.5505	-0.0051
535.7466	-0.001
535.9427	-0.0048
536.1387	0.002
536.3348	0.0042
536.5308	0.0153
536.7269	-0.0046
536.9229	-0.0052
537.1189	-0.0023
537.3148	-0.0081
537.5108	0.0055
537.7068	0.0048
537.9027	0.0072
538.0986	-0.0048
538.2945	0.0038
538.4904	-0.0031
538.6863	0.0098
538.8821	0.0012
539.078	-0.0053
539.2738	-0.0074
539.4696	0.011
539.6654	0.0007
539.8611	-0.0037
540.0569	0.0087
540.2526	0.0058
540.4484	-0.0007
540.6441	0.0025
540.8398	-0.0002
541.0355	0.0019
541.2311	0.0045
541.4268	0.015
541.6224	0.008
541.818	-0.0026
542.0136	-0.0046
542.2092	0.0067
542.4048	0.0068
542.6003	0.0024
542.7959	0.0039
542.9914	0.0021
543.1869	-0.0052
543.3824	0.0018
543.5779	0.0041
543.7734	0.0025
543.9688	0.006
544.1642	-0.0002
544.3596	-0.0054
544.555	-0.0007
544.7504	-0.0071
544.9458	0.002
545.1411	-0.0019
545.3365	0.0023
545.5318	-0.0001
545.7271	-0.006
545.9224	-0.0065
546.1177	0.0096
546.3129	-0.0113
546.5081	-0.0055
546.7034	-0.0042
546.8986	-0.008
547.0938	0.003
547.289	-0.004
547.4841	0.0084
547.6793	-0.0087
547.8744	0.0029
548.0695	0.0001
548.2646	-0.0071
548.4597	-0.0077
548.6548	0.0016
548.8498	-0.0066
549.0448	0.0024
549.2399	-0.01
549.4349	0.0031
549.6298	-0.0145
549.8248	-0.004
550.0198	0.0065
550.2147	-0.0054
550.4096	-0.0117
550.6045	0.0026
550.7994	0.0028
550.9943	-0.0038
551.1892	-0.006
551.384	0.0017
551.5788	0.0001
551.7737	-0.0059
551.9685	0.007
552.1632	0.0069
552.358	0.0003
552.5528	-0.0055
552.7475	0.0014
552.9422	-0.0004
553.1369	0.0099
553.3316	-0.0107
553.5263	-0.013
553.7209	-0.0076
553.9156	0.0052
554.1102	-0.0046
554.3048	0.0122
554.4994	0.0103
554.694	0.0047
554.8885	0.008
555.0831	-0.0003
555.2776	-0.0069
555.4721	-0.0106
555.6666	0.0052
555.8611	0.0005
556.0555	0.0032
556.25	-0.0006
556.4444	-0.0011
556.6388	-0.0026
556.8332	0.0069
557.0276	0.0113
557.222	-0.0022
557.4163	-0.0013
557.6107	0.0044
557.805	-0.0008
557.9993	0.0028
558.1936	0.0113
558.3879	-0.0012
558.5821	0.0046
558.7764	0.0144
558.9706	-0.0006
559.1648	-0.0117
559.359	0.021
559.5532	-0.015
559.7473	0.0018
559.9415	-0.0001
560.1356	-0
560.3297	0.0002
560.5238	-0.0001
560.7179	-0.0064
560.9119	0.0055
561.106	-0.0093
561.3	0.0022
561.494	0.0003
561.688	-0.0026
561.882	-0.0015
562.076	0.0051
562.2699	0.0016
562.4639	0.0106
562.6578	0.0096
562.8517	0.0031
563.0456	0.001
563.2395	-0.0003
563.4333	0.0104
563.6272	0.0062
563.821	0.0021
564.0148	0.006
564.2086	0.0023
564.4024	0.003
564.5961	0.0026
564.7899	-0.0002
564.9836	-0.0082
565.1773	-0.0016
565.371	0.0017
565.5647	-0.0084
565.7584	-0.0011
565.952	0.0022
566.1456	0.0083
566.3393	0.0059
566.5329	0.0005
566.7264	-0.0011
566.92	0.0063
567.1136	0.007
567.3071	-0.0033
567.5006	-0.0031
567.6941	0.0028
567.8876	0.0043
568.0811	-0.0054
568.2745	0.0038
568.468	0.0097
568.6614	0.0057
568.8548	-0.0067
569.0482	0.0049
569.2416	-0.007
569.4349	-0.0008
569.6283	-0.0003
569.8216	0.0037
570.0149	-0.0006
570.2082	-0.0022
570.4015	0.0019
570.5947	0.0027
570.788	-0.0001
570.9812	0.003
571.1744	0.0002
571.3676	-0.0016
571.5608	-0.0037
571.754	-0.0027
571.9471	0.0028
572.1402	-0.0007
572.3333	0.0041
572.5264	-0.0008
572.7195	0.0034
572.9126	0.0021
573.1057	-0.0032
573.2987	0.0015
573.4917	0.0028
573.6847	-0.0014
573.8777	0.0014
574.0707	0.0005
574.2636	0.0049
574.4566	-0.0013
574.6495	0.0051
574.8424	0.0006
575.0353	-0.0008
575.2281	-0.0015
575.421	-0.0014
575.6138	0.0015
575.8067	0.0016
575.9995	-0.0002
576.1923	0.0013
576.385	-0.0021
576.5778	-0.0017
576.7706	0.0038
576.9633	0.0075
577.156	-0
577.3487	-0.0012
577.5414	-0.0008
577.734	0.003
577.9267	0.0001
578.1193	-0
578.3119	-0.0013
578.5045	-0.0007
578.6971	-0.0037
578.8897	0.0023
579.0822	0.0042
579.2747	-0.0021
579.4673	0.003
579.6598	-0.0027
579.8522	0.0034
580.0447	-0.0029
580.2372	0.0046
580.4296	-0.0032
580.622	0.003
580.8144	0.0004
581.0068	0.0017
581.1992	0.0037
581.3915	-0.0008
581.5839	0.0009
581.7762	0.0008
581.9685	-0.0014
582.1608	-0.0004
582.353	-0.0023
582.5453	0.0015
582.7375	0.0037
582.9298	0.0008
583.122	-0.0004
583.3142	0.0037
583.5063	-0.0024
583.6985	-0.0024
583.8906	-0.0004
584.0827	0.0024
584.2749	-0.001
584.4669	0.0027
584.659	-0.0019
584.8511	0.0034
585.0431	0.0006
585.2352	-0.0075
585.4272	0.003
585.6192	-0.0018
585.8111	-0.0074
586.0031	0.0015
586.195	0.0019
586.387	-0.0019
586.5789	0.0056
586.7708	-0.0022
586.9627	0.0011
587.1545	0.0008
587.3464	0.0005
587.5382	0.001
587.73	0.0019
587.9218	-0
588.1136	0.0008
588.3053	-0.0017
588.4971	0.0021
588.6888	0.0029
588.8805	0.0032
589.0722	-0.0066
589.2639	-0.0024
589.4556	-0.0027
589.6472	0.003
589.8389	0
590.0305	0.0069
590.2221	0.0082
590.4137	-0.0066
590.6052	0.0025
590.7968	0.0086
590.9883	0.0078
591.1798	-0.0067
591.3713	0.0006
591.5628	0.0018
591.7543	0.0005
591.9458	0.0035
592.1372	-0
592.3286	-0.0021
592.52	0.0014
592.7114	-0.004
592.9028	-0.0044
593.0941	-0.0007
593.2855	0.0035
593.4768	0.006
593.6681	-0.0038
593.8594	0.0004
594.0506	0.0062
594.2419	-0.005
594.4331	-0.0023
594.6244	0.0077
594.8156	-0.0015
595.0067	0.0003
595.1979	-0.0052
595.3891	-0.0014
595.5802	-0.0032
595.7713	-0.0031
595.9624	0.0004
596.1535	-0.0073
596.3446	-0.0025
596.5357	-0.0047
596.7267	0.0055
596.9177	-0.0005
597.1087	-0.004
597.2997	0.0007
597.4907	0.0005
597.6817	0.0018
597.8726	-0.0043
598.0635	-0.0025
598.2544	-0.0035
598.4453	-0.0053
598.6362	-0.0053
598.827	0.0068
599.0179	0.0026
599.2087	-0.0008
599.3995	-0
599.5903	-0.0015
599.7811	-0.0014
599.9718	0.004
600.1626	0.0027
600.3533	0.0042
600.544	0.002
600.7347	0.0032
600.9254	0.0035
601.116	0.0003
601.3067	0.0027
601.4973	0.0058
601.6879	0.0017
601.8785	-0.0014
602.0691	-0.0005
602.2596	-0.0002
602.4502	0.0014
602.6407	0.0034
602.8312	-0.0006
603.0217	0.0007
603.2122	-0.0023
603.4027	-0.0013
603.5931	0.0006
603.7835	0.0016
603.9739	-0.0048
604.1643	-0.0029
604.3547	0.0025
604.5451	-0
604.7354	-0.005
604.9257	-0.004
605.116	-0.0049
605.3063	-0.0022
605.4966	0.0003
605.6869	-0.0044
605.8771	-0.0027
606.0673	0.0007
606.2575	-0.0005
606.4477	0.0024
606.6379	-0.0058
606.8281	-0.0066
607.0182	-0.0008
607.2083	-0.0056
607.3985	0.0063
607.5885	-0.002
607.7786	0.0049
607.9687	-0.0004
608.1587	0.0024
608.3488	-0.0045
608.5388	0.0025
608.7288	-0.0033
608.9187	0.0033
609.1087	0.005
609.2986	0.0002
609.4886	0.0053
609.6785	0.0051
609.8684	-0.0029
610.0582	0.0052
610.2481	-0.0019
610.4379	-0.0021
610.6278	-0.0053
610.8176	-0.0044
611.0074	-0.0044
611.1971	0.0012
611.3869	0.0004
611.5766	-0.0015
611.7664	0.0029
611.9561	0.0005
612.1458	-0.0034
612.3354	0.0063
612.5251	-0.0007
612.7147	0.0082
612.9044	-0.0012
613.094	0.0005
613.2836	-0.001
613.4731	-0.0028
613.6627	-0.0014
613.8522	-0.0073
614.0417	-0.0012
614.2313	-0.012
614.4207	0.0026
614.6102	-0.004
614.7997	-0.004
614.9891	-0.0074
615.1785	-0.0043
615.3679	0.0016
615.5573	-0.0125
615.7467	-0.0034
615.9361	-0.0098
616.1254	0.0006
616.3147	0.0035
616.504	0.0001
616.6933	-0.0015
616.8826	0.0004
617.0718	-0.0105
617.2611	-0.0006
617.4503	0.0038
617.6395	0.0079
617.8287	0.0025
618.0179	-0.0075
618.207	-0.0009
618.3961	0.0012
618.5853	0.0027
618.7744	0.006
618.9634	0.0051
619.1525	0.0102
619.3416	-0.0032
619.5306	-0.0052
619.7196	-0.0049
619.9086	0.0033
620.0976	-0.0019
620.2866	0.0074
620.4755	0.0136
620.6645	-0.003
620.8534	0.0026
621.0423	-0.0102
621.2312	-0.0085
621.42	-0.0028
621.6089	0.004
621.7977	0.0074
621.9865	0.0031
622.1753	-0.0011
622.3641	-0.0049
622.5529	-0.0108
622.7416	-0.0097
622.9303	0.0014
623.1191	-0.0034
623.3078	-0.0147
623.4964	-0.0094
623.6851	0.0052
623.8737	-0.0035
624.0624	0.0018
624.251	0.0035
624.4396	0.0021
624.6282	0.0062
624.8167	0.0111
625.0053	-0.0004
625.1938	-0.0027
625.3823	0.0015
625.5708	-0.0064
625.7593	0.0016
625.9477	0.0033
626.1362	-0.004
626.3246	-0.002
626.513	0.0057
626.7014	-0.0091
626.8898	0.009
627.0781	0.0015
627.2665	0.011
627.4548	0.0089
627.6431	-0.0105
627.8314	0.0018
628.0197	0.0028
628.2079	-0.0029
628.3962	0.0107
628.5844	0.0024
628.7726	-0.0137
628.9608	-0.0068
629.1489	-0.0035
629.3371	0.0029
629.5252	0.0104
629.7134	0.001
629.9015	0.0008
630.0895	-0.0064
630.2776	0.0017
630.4657	-0.0051
630.6537	-0.0043
630.8417	-0.0138
631.0297	0.0039
631.2177	-0.0034
631.4057	-0.0084
631.5936	0.0011
631.7815	-0.0149
631.9695	0.0062
632.1574	-0.0016
632.3452	0.0076
632.5331	-0.0017
632.7209	0.0023
632.9088	-0.0124
633.0966	-0.0015
633.2844	-0.0144
633.4722	0.0008
633.6599	-0.0143
633.8477	-0.0008
634.0354	0.0042
634.2231	0.0179
634.4108	-0.011
634.5985	-0.0127
634.7861	-0.0083
634.9738	0.0111
635.1614	0.008
635.349	-0.0046
635.5366	-0.0081
635.7242	0.0047
635.9117	0.0064
636.0993	-0.0006
636.2868	-0.0061
636.4743	0.0114
636.6618	-0.0002
636.8492	0.0086
637.0367	0.0128
637.2241	0.0002
637.4115	0.0171
637.5989	0.0185
637.7863	-0.009
637.9737	-0.0027
638.161	-0.0066
638.3484	-0
638.5357	0.0049
638.723	0.0037
638.9103	0.0045
639.0975	-0.0043
639.2848	0.0106
639.472	-0.0138
639.6592	0.0208
639.8464	0.007
640.0336	0.0255
640.2208	-0.0129
640.4079	0.0083
640.595	-0.0134
640.7821	-0.0031
640.9692	-0.0078
641.1563	0.008
641.3434	0.016
641.5304	0.0146
641.7174	0.0021
641.9044	-0.0034
642.0914	-0.0092
642.2784	0.0232
642.4653	0.0097
642.6523	-0.0011
642.8392	0.018
643.0261	-0.005
643.213	0.0007
643.3999	-0.0174
643.5867	0.0009
643.7735	-0.0041
643.9604	-0.0156
644.1472	0.0101
644.3339	-0.0062
644.5207	-0.0102
644.7075	0.0014
644.8942	0.0212
645.0809	-0.0042
645.2676	-0.0032
645.4543	-0.0003
645.6409	-0.0044
645.8276	-0.0059
646.0142	0.0243
646.2008	-0.0078
646.3874	0.0199
646.574	-0.029
646.7605	-0.0023
646.9471	-0.003
647.1336	-0
647.3201	0.0091
647.5066	-0.0104
647.6931	0.0096
647.8795	0.0083
648.0659	-0.0223
648.2524	-0.0018
648.4388	0.008
648.6252	-0.0136
648.8115	0.0232
648.9979	-0.0014
649.1842	-0.0129
649.3705	0.009
649.5568	-0.0169
649.7431	-0.006
649.9294	-0.0137
650.1156	-0.0237
650.3018	0.0071
650.488	0.0111
650.6742	0.0169
650.8604	-0.001
651.0466	-0.0032
651.2327	-0.0139
651.4188	0.0038
651.6049	-0.0122
651.791	0.0127
651.9771	0.0052
652.1632	0.0128
652.3492	-0.0016
652.5352	0.001
652.7212	-0.0166
652.9072	-0.0013
653.0932	0.0234
653.2791	-0.0103
653.465	-0.0098
653.651	0.0212
653.8369	0.0085
654.0227	-0.0127
654.2086	-0.0099
654.3944	-0.0182
654.5803	0.0112
654.7661	-0.0011
654.9519	-0.0036
655.1377	-0.0001
655.3234	-0.0001
655.5092	-0.0001
655.6949	-0.0001
655.8806	-0.0001
656.0663	-0.0001
656.2519	-0.0001
656.4376	-0.0001
656.6232	-0.0001
656.8088	-0.0001
656.9945	-0.0001
657.18	-0.0001
657.3656	-0.0001
657.5511	-0.0001
657.7367	-0.0001
657.9222	-0.0001
658.1077	-0.0001
658.2932	-0.0001
658.4786	-0.0001
658.6641	-0.0001
658.8495	-0.0001
659.0349	-0.0001
659.2203	-0.0001
659.4057	0.0078
659.591	0.0359
659.7764	0.0034
659.9617	-0.0034
660.147	0.0054
660.3323	0.0002
660.5176	0.0185
660.7028	-0.01
660.888	0.0093
661.0733	0.0067
661.2585	0.008
661.4436	0.0183
661.6288	-0.0097
661.8139	0.0089
661.9991	0.0065
662.1842	0.0131
662.3693	0.0025
662.5544	0.0002
662.7394	0.021
662.9245	-0.0014
663.1095	0.005
663.2945	-0.0087
663.4795	0.0016
663.6644	-0.0013
663.8494	-0.006
664.0343	-0.0109
664.2193	0.0019
664.4042	-0.0244
664.589	-0.0271
664.7739	-0.0023
664.9587	0.0047
665.1436	-0.0104
665.3284	-0.012
665.5132	-0.0124
665.698	0.0072
665.8827	-0.0118
666.0675	-0.0241
666.2522	0.0018
666.4369	-0.0114
666.6216	0.0032
666.8063	-0.015
666.9909	0.001
667.1756	0.0029
667.3602	-0.0044
667.5448	0.001
667.7294	0.0037
667.9139	-0.007
668.0985	0.019
668.283	-0.0096
668.4675	-0.005
668.652	0.0049
668.8365	-0.0149
669.0209	-0.021
669.2054	0.0065
669.3898	0.0068
669.5742	-0.0003
669.7586	-0.008
669.943	-0.0222
670.1273	0.0031
670.3117	0.0202
670.496	0.0042
670.6803	0.0069
670.8646	0.0249
671.0488	-0.0107
671.2331	0.0008
671.4173	-0.0027
671.6015	0.0115
671.7857	-0.0074
671.9699	0.0059
672.1541	-0.0083
672.3382	0.0141
672.5223	-0.0051
672.7064	0.0085
672.8905	-0.004
673.0746	-0.0063
673.2587	0.0038
673.4427	-0.0054
673.6267	-0.0248
673.8107	-0.017
673.9947	-0.0213
674.1787	0.0065
674.3626	-0.0042
674.5465	0.0181
674.7304	-0.0285
674.9143	0.0273
675.0982	0.0161
675.2821	0.0148
675.4659	0.004
675.6497	0.0129
675.8335	-0.0055
676.0173	0.0038
676.2011	-0.0064
676.3849	0.0136
676.5686	0.001
676.7523	0.007
676.936	-0.0066
677.1197	0.0273
677.3034	0.0137
677.487	-0.0073
677.6706	-0.0003
677.8542	-0.0009
678.0378	0.0084
678.2214	-0.0028
678.405	0.0196
678.5885	-0.0005
678.772	0.0014
678.9555	0.0179
679.139	-0.0285
679.3225	-0.0206
679.5059	-0.0075
679.6894	-0.0119
679.8728	-0.0066
680.0562	0.0061
680.2395	0.0026
680.4229	0.0007
680.6062	-0.0019
680.7896	0.0178
680.9729	-0.0014
681.1562	-0.0093
681.3394	-0.0023
681.5227	-0.0248
681.7059	-0.0182
681.8891	0.0101
682.0723	-0.0169
682.2555	0.0421
682.4387	0.015
682.6218	-0.0071
682.805	0.0162
682.9881	-0.0006
683.1712	0.0392
683.3542	-0.0063
683.5373	0.0158
683.7203	0.0039
683.9034	0.0213
684.0864	-0.0048
684.2694	0.015
684.4523	-0.018
684.6353	0.0052
684.8182	0.0088
685.0011	-0.0012
685.184	0.0012
685.3669	-0.0138
685.5498	0.0094
685.7326	-0.0012
685.9154	0.0006
686.0982	0.0087
686.281	0.0022
686.4638	0.006
686.6465	0.013
686.8293	0.0082
687.012	-0.0082
687.1947	-0.0028
687.3774	-0.0147
687.56	0.0151
687.7427	-0.0083
687.9253	0.0094
688.1079	0.0212
688.2905	0.0083
688.4731	0.0265
688.6556	-0.0003
688.8382	-0.0006
689.0207	0.004
689.2032	-0.0198
689.3857	-0.0167
689.5681	-0.0242
689.7506	-0.0191
689.933	-0.0094
690.1154	0.0042
690.2978	0.0011
690.4802	0.0047
690.6626	-0.0165
690.8449	-0.0106
691.0272	0.0046
691.2095	0.0004
691.3918	-0.0133
691.5741	-0.0039
691.7563	0.0046
691.9386	-0.0136
692.1208	-0.0267
692.303	0.0071
692.4852	0.0033
692.6673	-0.0135
692.8495	-0.0264
693.0316	-0.0075
693.2137	0.0197
693.3958	0.0123
693.5778	-0.0263
693.7599	-0.0412
693.9419	0.0181
694.1239	-0.0221
694.3059	0.0073
694.4879	-0.0249
694.6699	0.0014
694.8518	0.013
695.0337	-0.0134
695.2157	-0.0065
695.3975	-0.0213
695.5794	-0.0185
695.7613	0.0184
695.9431	-0.0151
696.1249	-0.0014
696.3067	0.001
696.4885	-0.0049
696.6703	-0.0031
696.852	-0.0161
697.0337	-0
697.2154	-0.0053
697.3971	0.0118
697.5788	0.009
697.7605	-0.0039
697.9421	-0.0163
698.1237	0.01
698.3053	-0.0321
698.4869	-0.0176
698.6685	-0.0012
698.85	0.01
699.0315	-0.0145
699.213	0.0221
699.3945	0.0159
699.576	-0.0008
699.7575	-0.0004
699.9389	0.0187
700.1203	-0.0106
700.3017	-0.0239
700.4831	-0.0184
700.6645	-0.013
700.8458	0.0098
701.0271	0.0004
701.2084	-0.0285
701.3897	-0.0019
701.571	0.0105
701.7523	-0.0307
701.9335	0.0106
702.1147	-0.014
702.2959	0.0153
702.4771	0.0018
702.6583	-0.0158
702.8394	-0.0075
703.0205	-0.0087
703.2016	-0.0281
703.3827	0.017
703.5638	0.0004
703.7449	-0.0232
703.9259	0.0033
704.1069	0.0255
704.2879	0.0059
704.4689	0.003
704.6499	-0.0434
704.8308	0.0085
705.0117	-0.0398
705.1927	-0.0051
705.3735	0.0029
705.5544	-0.0205
705.7353	-0.0062
705.9161	0.0117
706.0969	-0.0033
706.2777	0.0145
706.4585	0.0009
706.6393	-0.0089
706.82	-0.0119
707.0007	0.0064
707.1815	0.0089
707.3621	-0
707.5428	0.0131
707.7235	0.0106
707.9041	-0.0109
708.0847	-0.0073
708.2653	0.0052
708.4459	0.0067
708.6265	-0.0178
708.807	-0.0021
708.9875	0.013
709.168	0.0039
709.3485	-0.0116
709.529	0.0082
709.7095	-0.0228
709.8899	-0.0067
710.0703	-0.0058
710.2507	-0.0032
710.4311	-0.0147
710.6115	0.0069
710.7918	-0.0115
710.9721	0.0032
711.1524	-0.0215
711.3327	-0.0072
711.513	-0.0004
711.6932	-0.0316
711.8735	-0.005
712.0537	-0.0037
712.2339	-0.0013
712.4141	-0.0116
712.5942	-0.0157
712.7744	0.0041
712.9545	0.0003
713.1346	0.0072
713.3147	0.0026
713.4947	-0.0133
713.6748	-0.0188
713.8548	-0.0183
714.0348	0.0306
714.2148	0.011
714.3948	0.0053
714.5748	-0.0065
714.7547	-0.0057
714.9346	-0.0096
715.1145	0.0027
715.2944	0.0326
715.4743	-0.0221
715.6541	-0.0127
715.834	0.0233
716.0138	0.0126
716.1936	-0.0241
716.3733	0.001
716.5531	0.0456
716.7328	-0.0153
716.9126	0.0059
717.0923	0.0031
717.2719	-0.0052
717.4516	-0.0179
717.6312	-0.0098
717.8109	-0.0041
717.9905	-0.0011
718.1701	-0.0371
718.3496	-0.0016
718.5292	0.0015
718.7087	0.0235
718.8882	0.0319
719.0677	-0.0435
719.2472	0.0145
719.4267	0.0075
719.6061	-0.0022
719.7856	0.0207
719.965	0.0161
720.1443	-0.0118
720.3237	-0.0106
720.5031	0.0034
720.6824	-0.0181
720.8617	0.0049
721.041	0.0316
721.2203	-0.004
721.3995	-0.0195
721.5788	-0.0057
721.758	0.0025
721.9372	0.0099
722.1164	0.0072
722.2956	0.0065
722.4747	0.0138
722.6538	0.0219
722.8329	-0.0197
723.012	0.0055
723.1911	-0.0125
723.3702	-0.0232
723.5492	-0.0045
723.7282	0.0269
723.9072	-0.0194
724.0862	-0.0114
724.2652	-0.0095
724.4441	0.0012
724.623	-0.0147
724.8019	-0.0011
724.9808	-0.0015
725.1597	0.0077
725.3385	0.0052
725.5174	0.0263
725.6962	0.0275
725.875	0.0173
726.0538	-0.0095
726.2325	-0.0118
726.4112	0.0097
726.59	0.0115
726.7687	0.0142
726.9474	-0.0246
727.126	-0.0126
727.3047	0.0206
727.4833	0.0196
727.6619	0.0281
727.8405	-0.0109
728.0191	-0.0386
728.1976	-0.0242
728.3762	-0.0113
728.5547	-0.0054
728.7332	-0.0043
728.9116	-0.042
729.0901	0.0336
729.2686	-0.033
729.447	-0.0251
729.6254	0.0147
729.8038	-0.0074
729.9821	0.013
730.1605	-0.0036
730.3388	-0.02
730.5171	-0.0081
730.6954	0.0364
730.8737	0.0118
731.0519	-0.0008
731.2302	-0.0155
731.4084	-0.0081
731.5866	-0.0084
731.7648	-0.0087
731.9429	-0.0061
732.1211	-0.0182
732.2992	0.0009
732.4773	-0.0118
732.6554	0.0079
732.8335	0.005
733.0115	-0.0042
733.1896	-0.0124
733.3676	-0.0107
733.5456	0.0126
733.7235	0.0033
733.9015	-0.0021
734.0794	-0.0016
734.2574	0.0131
734.4353	-0.0034
734.6131	0.0019
734.791	0.0232
734.9689	-0.0006
735.1467	-0.0025
735.3245	0.0016
735.5023	0.008
735.68	0.0121
735.8578	-0.0064
736.0355	-0.01
736.2132	0.0128
736.3909	-0.0156
736.5686	-0.0046
736.7463	-0.0064
736.9239	0.002
737.1015	-0.0019
737.2791	-0.0073
737.4567	-0.0059
737.6343	-0.0131
737.8118	-0.0191
737.9894	-0.006
738.1669	-0.0149
738.3444	-0.0037
738.5218	-0.0126
738.6993	-0.0051
738.8767	0.0028
739.0541	0.0069
739.2315	-0.0212
739.4089	0.0063
739.5863	0.0038
739.7636	0.0221
739.9409	-0.0123
740.1182	0.0251
740.2955	-0.0597
740.4728	0.0234
740.65	-0.0066
740.8272	-0.0176
741.0044	-0.0086
741.1816	-0.0027
741.3588	-0.019
741.5359	0.0175
741.7131	0.0268
741.8902	-0.0146
742.0673	0.0046
742.2444	-0.0211
742.4214	-0.0028
742.5985	0.013
742.7755	-0.0305
742.9525	0.0233
743.1295	-0.008
743.3064	0.0019
743.4834	0.0082
743.6603	0.0087
743.8372	0.0052
744.0141	0.0162
744.191	0.0231
744.3678	-0.0081
744.5446	0.011
744.7215	0.0037
744.8982	-0.0226
745.075	0.0023
745.2518	-0.0246
745.4285	-0.0211
745.6052	0.0137
745.7819	0.0256
745.9586	0.0068
746.1353	-0.013
746.3119	-0.0225
746.4885	-0.0041
746.6651	-0.014
746.8417	-0.0265
747.0183	-0.007
747.1948	-0.0156
747.3714	0.0324
747.5479	0.0168
747.7244	-0.0307
747.9008	0.014
748.0773	0.0176
748.2537	0.0005
748.4301	-0.0071
748.6065	-0.0307
748.7829	-0.0308
748.9593	-0.014
749.1356	-0.0025
749.3119	-0.0227
749.4882	-0.0103
749.6645	0.0107
749.8408	-0.0205
750.017	-0.0013
750.1933	0.022
750.3695	0.0019
750.5457	-0.0098
750.7218	0.01
750.898	-0.0329
751.0741	-0.0022
751.2502	0.0015
751.4263	0.0013
751.6024	0.0255
751.7784	-0.0268
751.9545	-0.0378
752.1305	-0.0263
752.3065	0.0203
752.4825	-0.017
752.6584	-0.0049
752.8344	-0.0055
753.0103	-0.0281
753.1862	-0.0183
753.3621	-0.0206
753.5379	0.0042
753.7138	-0.0238
753.8896	0.0441
754.0654	0.0051
754.2412	0.0193
754.417	-0.0264
754.5927	-0.0004
754.7685	-0.0286
754.9442	0.0048
755.1199	-0.0123
755.2956	0.0294
755.4712	-0.0261
755.6469	-0.0098
755.8225	0.0143
755.9981	0.014
756.1736	0.0333
756.3492	-0.0152
756.5248	-0.0102
756.7003	-0.0011
756.8758	-0.0169
757.0513	-0.005
757.2267	-0.0055
757.4022	-0.0034
757.5776	-0.0138
757.753	-0.0039
757.9284	-0.0054
758.1038	-0.0089
758.2791	0.0026
758.4545	-0.0113
758.6298	-0.0031
758.8051	-0.0008
758.9803	-0.0084
759.1556	-0.008
759.3308	-0.0113
759.506	0.0026
759.6812	-0.0093
759.8564	-0.0247
760.0316	-0.0043
760.2067	-0.0141
760.3819	-0.0004
760.557	-0.0112
760.732	0.0302
760.9071	0.0015
761.0821	0.0047
761.2572	-0.002
761.4322	-0.0119
761.6072	-0.0098
761.7821	0.0133
761.9571	0.0049
762.132	0.0056
762.3069	0.0019
762.4818	0.0292
762.6567	0.0178
762.8316	0.0077
763.0064	-0.019
763.1812	-0.0108
763.356	0.0119
763.5308	-0.0193
763.7055	0.0097
763.8803	-0.0072
764.055	0.007
764.2297	-0.0093
764.4044	0.0036
764.579	-0.0028
764.7537	-0.0237
764.9283	-0.0297
765.1029	-0.0031
765.2775	-0.0067
765.4521	0.0098
765.6266	-0.0318
765.8011	-0.0154
765.9756	0.0111
766.1501	0.0174
766.3246	0.0033
766.4991	-0.033
766.6735	0.0021
766.8479	-0.0038
767.0223	0.0336
767.1967	-0.0208
767.371	0.0016
767.5454	-0.0029
767.7197	0.0175
767.894	-0.0072
768.0683	-0.0092
768.2425	0.0218
768.4168	0.0062
768.591	-0.0116
768.7652	-0.0116
768.9394	0.0016
769.1135	-0.0018
769.2877	0.0359
769.4618	0.0051
769.6359	0.0099
769.81	-0.0138
769.984	-0.0023
770.1581	0.0145
770.3321	-0.0238
770.5061	-0.0119
770.6801	0.0013
770.8541	-0.0187
771.028	-0.0124
771.202	-0.0146
771.3759	0.0208
771.5498	-0.013
771.7236	-0
771.8975	-0.0132
772.0713	0.0106
772.2451	-0.0098
772.4189	0.0065
772.5927	0.001
772.7665	0.0405
772.9402	0.0191
773.1139	0.0078
773.2876	-0.0088
773.4613	0.0089
773.635	-0.0152
773.8086	-0.0424
773.9822	0.0083
774.1558	0.0077
774.3294	-0.0454
774.503	0.0126
774.6765	0.0075
774.8501	0.0182
775.0236	0.0118
775.1971	-0.0185
775.3705	0.0089
775.544	0.037
775.7174	-0.0204
775.8908	0.0709
776.0642	0.0102
776.2376	-0.0384
776.4109	0.0475
776.5843	0.0099
776.7576	0.0068
776.9309	0.0133
777.1041	-0.0098
777.2774	0.0033
777.4506	-0.0333
777.6238	0.0155
777.797	0.0263
777.9702	0.0283
778.1434	0.0247
778.3165	-0.0091
778.4896	-0.0424
778.6627	-0.0057
778.8358	-0.0012
779.0089	0.0029
779.1819	0.0023
779.3549	0.0185
779.5279	0.0151
779.7009	0.0007
779.8739	-0.0393
780.0468	0.0316
780.2197	-0.0443
780.3926	-0.0163
780.5655	-0.0442
780.7384	0.0212
780.9112	-0.0154
781.0841	0.0059
781.2569	0.0091
781.4297	0.0243
781.6024	-0.0068
781.7752	-0.044
781.9479	-0.0045
782.1206	0.0102
782.2933	-0.0047
782.466	-0.0109
782.6386	-0.0344
782.8113	0.0024
782.9839	-0.0108
783.1565	-0.0222
783.329	0.008
783.5016	0.0054
783.6741	-0.0001
783.8466	-0.0711
784.0191	0.0007
784.1916	0.007
784.3641	-0.005
784.5365	-0.0117
784.7089	0.0007
784.8813	0.0234
785.0537	-0.0037
785.2261	-0.0008
785.3984	-0.0044
785.5707	-0.0021
785.743	-0.021
785.9153	0.0381
786.0876	-0.0264
786.2598	0.0154
786.432	-0.0122
786.6042	0.0081
786.7764	-0.014
786.9486	0.0128
787.1207	0.0116
787.2928	-0.0242
787.4649	-0.0163
787.637	0.018
787.8091	-0.0244
787.9811	0.0029
788.1532	0.0168
788.3252	-0.0164
788.4972	0.0047
788.6691	0.0091
788.8411	0.0017
789.013	0.0119
789.1849	0.0078
789.3568	0.0273
789.5287	-0.0538
789.7005	0.0212
789.8723	-0.003
790.0442	-0.037
790.2159	0.035
790.3877	-0.0129
790.5595	0.0546
790.7312	-0.0433
790.9029	-0.037
791.0746	-0.0068
791.2463	0.0574
791.4179	-0.0567
791.5896	-0.0657
791.7612	-0.024
791.9328	0.0223
792.1044	-0.023
792.2759	0.0334
792.4474	0.0211
792.619	0.0577
792.7905	0.0121
792.9619	0.0079
793.1334	-0.0178
793.3048	-0.0437
793.4762	-0.0727
793.6476	-0.0068
793.819	-0.0112
793.9904	0.0202
794.1617	-0.0055
794.333	-0.0238
794.5043	-0.0195
794.6756	0.0112
794.8469	0.0213
795.0181	-0.022
795.1893	-0.0418
795.3605	-0.0256
795.5317	0.0046
795.7029	-0.0017
795.874	-0.0321
796.0452	0.0111
796.2163	0.0424
796.3873	0.0433
796.5584	-0.0324
796.7294	-0.0537
796.9005	-0.0607
797.0715	0.0239
797.2425	-0.0098
797.4134	0.0232
797.5844	0.0662
797.7553	-0.0136
797.9262	0.0272
798.0971	0.0189
798.2679	-0.0025
798.4388	-0.0372
798.6096	0.0337
798.7804	0.0129
798.9512	0.0385
799.122	0.0758
799.2927	-0.065
799.4635	0.02
799.6342	-0.078
799.8049	0.0426
799.9755	-0.0017
800.1462	-0.0159
800.3168	-0.0438
800.4874	0.0229
800.658	0.0108
800.8286	-0.0623
800.9991	0.1022
801.1696	-0.0332
801.3402	-0.0631
801.5106	-0.1523
801.6811	-0.035
801.8516	-0.0347
802.022	-0.0786
802.1924	-0.1068
802.3628	-0.087
802.5332	-0.0198
802.7035	-0.0926
802.8739	-0.0128
803.0442	0.0479
803.2145	-0.018
803.3847	-0.0991
803.555	-0.0498
803.7252	-0.0259
803.8954	0.029
804.0656	-0.0445
804.2358	-0.0361
804.4059	0.0152
804.5761	-0.0036
804.7462	-0.0595
804.9163	-0.0695
805.0864	0.0085
805.2564	-0.0473
805.4264	-0.0295
805.5965	-0.0491
805.7665	0.0462
805.9364	-0.0019
806.1064	-0.0574
806.2763	0.0341
806.4462	0.0068
806.6161	-0.0259
806.786	-0.0061
806.9559	0.021
807.1257	-0.0199
807.2955	0.0372
807.4653	-0.1074
807.6351	-0.0684
807.8048	-0.0195
807.9746	-0.068
808.1443	-0.0409
808.314	0.0153
808.4837	-0.0481
808.6533	-0.0514
808.8229	-0.0614
808.9926	0.0294
809.1622	-0.027
809.3317	-0.0524
809.5013	0.0187
809.6708	-0.0293
809.8403	0.0521
810.0098	0.0828
810.1793	0.1208
810.3488	0.1392
810.5182	-0.0326
810.6876	-0.0247
810.857	-0.0241
811.0264	-0.0588
811.1958	-0.0002
811.3651	0.0432
811.5344	0.0023
811.7037	0.0436
811.873	0.0748
812.0422	-0.0049
812.2115	-0.088
812.3807	0.0449
812.5499	-0.0447
812.7191	0.0539
812.8882	-0.0094
813.0574	-0.0806
813.2265	-0.0032
813.3956	-0.0312
813.5646	-0.0488
813.7337	-0.1129
813.9027	-0.0302
814.0718	-0.0318
814.2407	-0.0946
814.4097	-0.0557
814.5787	-0.0074
814.7476	-0.0113
814.9165	-0.0017
815.0854	-0.0123
815.2543	-0.078
815.4232	-0.0874
815.592	0.0722
815.7608	0.0312
815.9296	0.0427
816.0984	-0.0628
816.2671	-0.1203
816.4359	0.1332
816.6046	0.0557
816.7733	-0.0751
816.942	0.1
817.1106	-0.2944
817.2793	0.0056
817.4479	-0.1092
817.6165	-0.0522
817.785	0.0527
817.9536	0.0151
818.1221	0.0302
818.2906	0.0509
818.4591	0.0276
818.6276	0.0304
818.7961	-0.0225
818.9645	0.0466
819.1329	0.1738
819.3013	-0.009
819.4697	0.0217
819.638	-0.1113
819.8064	-0.097
819.9747	0.2715
820.143	0.0243
820.3113	0.0606
820.4795	0.0767
820.6477	-0.1599
820.816	0.0783
820.9842	-0.0276
821.1523	0.0808
821.3205	0.0204
821.4886	-0.0267
821.6567	0.0083
821.8248	-0.0474
821.9929	0.0697
822.1609	0.0226
822.329	-0.0031
822.497	-0.0545
822.665	0.069
822.833	0.0086
823.0009	-0.0559
823.1688	-0.0052
823.3367	-0.1759
823.5046	0.0612
823.6725	0.081
823.8404	-0.2249
824.0082	0.0225
824.176	-0.0527
824.3438	0.2077
824.5116	0.0807
824.6793	-0.1441
824.847	-0.0992
825.0147	0.3336
825.1824	-0.0099
825.3501	0.0929
825.5177	-0.0877
825.6854	0.2151
825.853	-0.0817
826.0206	0.0069
826.1881	0.0883
826.3557	0.0026
826.5232	-0.0581
826.6907	-0.0156
826.8582	-0.0951
827.0257	-0.0321
827.1931	0.0666
827.3605	0.0522
827.528	-0.0049
827.6953	-0.0002
827.8627	-0.0099
828.03	0.0199
828.1974	-0.1909
828.3647	0.0053
828.532	0.1094
828.6992	0.0262
828.8665	-0.0645
829.0337	-0.1126
829.2009	0.0783
829.3681	0.0474
829.5352	-0.0701
829.7024	-0.1249
829.8695	-0.0424
830.0366	0.2554
830.2037	0.0279
830.3707	-0.0191
830.5378	0.1255
830.7048	-0.3097
830.8718	-0.0064
831.0388	0.0761
831.2057	0.2818
831.3727	-0.0693
831.5396	-0.145
831.7065	0.0929
831.8734	-0.5033
832.0402	0.4056
832.2071	-0.1022
832.3739	0.1929
832.5407	-0
832.7075	-0.0455
832.8742	0.123
833.041	-0.0672
833.2077	0.2351
833.3744	0.0707
833.541	-0.1294
833.7077	0.0385
833.8743	0.1195
834.0409	-0.1333
834.2075	0.1276
834.3741	0.0698
834.5407	-0.3879
834.7072	0.1574
834.8737	0.3359
835.0402	0.0714
835.2067	0.4468
835.3731	-0.0045
835.5395	-0.0139
835.706	0.2488
835.8723	-0.1622
836.0387	0.1214
836.2051	0.3197
836.3714	-0.2335
836.5377	-0.2051
836.704	0.1545
836.8703	0.0269
837.0365	-0
837.2027	-0.3108
837.3689	0.412
837.5351	-0.3132
837.7013	0.2817
837.8674	-0.528
838.0335	0.0249
838.1997	0.0884
838.3657	0.2501
838.5318	-0.7678
838.6978	0.6476
838.8639	0.0068
839.0299	0.1771
839.1958	0.1881
839.3618	-0
839.5277	-0.1862
839.6937	-0.4741
839.8596	-0.1192
840.0254	0.1306
840.1913	0.2617
840.3571	0.0718
840.523	0.2648
840.6888	-0.1869
840.8545	-0.104
841.0203	0.007
841.186	-0.0826
841.3517	0.1795
841.5174	0.2046
841.6831	0.1591
841.8488	-0.12
842.0144	0.0219
842.18	0.0976
842.3456	0.431
842.5112	-0
842.6767	-0.5348
842.8422	0.0207
843.0077	0.4304
843.1732	-0.2506
843.3387	0.0557
843.5042	0.1857
843.6696	0.0804
843.835	-0.2857
844.0004	-0.1738
844.1657	0.2501
844.3311	-0.2981
844.4964	-0.0328
844.6617	-0
844.827	0.3501
844.9923	0.0413
845.1575	0.6154
845.3227	0.1119
845.4879	0.1883
845.6531	-0.0013
845.8183	-0.1607
845.9834	-0.842
846.1485	-0.2997
846.3136	0.0694
846.4787	-0
846.6438	0.6393
846.8088	-0
846.9738	-0
847.1388	0.0757
847.3038	-0.0489
847.4687	-0.9866
847.6337	2.1131
847.7986	-0.0417
847.9635	-0.0556
848.1284	-0.2966
848.2932	-0.0344
848.458	-0.1226
848.6228	-0.2321
848.7876	-0
848.9524	0.0981
849.1172	-0.3556
849.2819	-0
849.4466	0.7296
849.6113	-0.1625
849.7759	0.1127
849.9406	-0.2004
850.1052	-0.186
850.2698	-0.426
850.4344	-0.1116
850.599	0.0344
850.7635	0.0223
850.928	0.1503
851.0925	0.694
851.257	-0
851.4215	-0.5358
851.5859	0.5603
851.7503	-0
851.9147	-0
852.0791	-0.2208
852.2434	0.1131
852.4078	-0
852.5721	0.0615
852.7364	0.1515
852.9007	-0.1307
853.0649	0.4509
853.2291	0.0778
853.3934	-0
853.5575	-0.0996
853.7217	0.1049
853.8859	0.4519
854.05	-0.7472
854.2141	-0
854.3782	-0
854.5423	-0.8509
854.7063	-0.0673
854.8703	0.1119
855.0343	0.0651
855.1983	-0.0611
855.3623	-0.1309
855.5262	-0.4655
855.6901	0.4284
855.854	-0.0884
856.0179	-0
856.1818	-0.6064
856.3456	0.4425
856.5094	-0
856.6732	-0.005
856.837	0.467
857.0008	-0
857.1645	-0
857.3282	-0.0464
857.4919	-0.0919
857.6556	-0.008
857.8192	-0.2398
857.9828	-0.518
858.1465	-0
858.31	-0
858.4736	0.0924
858.6372	-0.2116
858.8007	-1.1001
858.9642	0.1883
859.1277	-0
859.2911	0.5293
859.4546	0.0266
859.618	-0.4143
859.7814	-0
859.9448	-0
860.1081	-0.2684
860.2715	-0.5324
860.4348	-0
860.5981	-0.6892
860.7614	-0
860.9246	-0.0163
861.0879	-0.0025
861.2511	0.7889
861.4143	0.3615
861.5774	-0.131
861.7406	-0.2121
861.9037	0.0497
862.0668	-0.3699
862.2299	-2.0226
862.393	-0
862.556	0.1303
862.7191	0.3633
862.8821	-0.3001
863.0451	-0.0769
863.208	-0.4409
863.371	0.4955
863.5339	-0.1133
863.6968	0.0739
863.8597	-0
864.0225	0.3167
864.1854	0.0309
864.3482	0.6006
864.511	0.1013
864.6737	-0
864.8365	0.034
864.9992	-0.2157
865.1619	0.5028
865.3246	-0.0786
865.4873	-0.011
865.65	-0
865.8126	0.0533
865.9752	-0.2346
866.1378	-0.8826
866.3004	0.2498
866.4629	-0
866.6254	-0.8926
866.7879	-0.1249
866.9504	-0
867.1129	1.0364
867.2753	-0.1511
867.4377	0.2155
867.6001	0.4344
867.7625	-0.2051
867.9249	0.3083
868.0872	-0
868.2495	-0
868.4118	-0.3444
868.5741	-0
868.7363	-0
868.8986	-0
869.0608	-0
869.223	0.3821
869.3851	-0
869.5473	-1.2535
869.7094	-0
869.8715	1.2942
870.0336	-0.1407
870.1957	-0
870.3577	-0
870.5197	0.0908
870.6817	-0
870.8437	-0
871.0057	-0
871.1676	-0.1194
871.3295	0.1285
871.4914	-0.1523
871.6533	0.4152
871.8151	-0.3755
871.977	-0
872.1388	-0.97
872.3006	0.0895
872.4623	-0.5942
872.6241	-1.7877
872.7858	-0
872.9475	-0.5847
873.1092	0.3616
873.2709	0.7311
873.4325	-0
873.5941	-0.6445
873.7557	-0.486
873.9173	-0.7578
874.0789	0.0368
874.2404	-0.4072
874.4019	0.3235
874.5634	-0.3602
874.7249	-0.0032
874.8863	-0.5721
875.0478	-0.1383
875.2092	0.9432
875.3706	-0.3029
875.5319	0.3522
875.6933	0.8794
875.8546	-0
876.0159	-0.1991
876.1772	-0
876.3385	-0
876.4997	-0.141
876.6609	-0
876.8221	0.237
876.9833	0.289
877.1445	-0.0424
877.3056	-0.1074
877.4667	-1.2711
877.6278	0.2014
877.7889	0.0955
877.9499	-0.0341
878.111	0.1852
878.272	-0.0694
878.433	0.1838
878.5939	0.1795
878.7549	-0.8098
878.9158	0.4033
879.0767	-0
879.2376	-0
879.3984	-0
879.5593	-0.5819
879.7201	-0.299
879.8809	-0.2861
880.0417	0.3722
880.2024	0.268
880.3632	0.0161
880.5239	0.8618
880.6846	-0.0882
880.8452	0.3552
881.0059	-0
881.1665	0.222
881.3271	0.0619
881.4877	0.5283
881.6483	-0.5509
881.8088	-0
881.9693	0.6014
882.1298	0.6014
882.2903	0.6014
