Data from D4ACN5uM480nmA_Absorbance_12-08-00-190.txt Node
Date: Fri Feb 21 12:08:00 GMT 2025
User: LASERRRRR
Spectrometer: FLMT03099
Trigger mode: 0
Integration Time (sec): 1.500000E-2
Scans to average: 1
Electric dark correction enabled: true
Nonlinearity correction enabled: false
Boxcar width: 0
XAxis mode: Wavelengths
Number of Pixels in Spectrum: 3648
>>>>>Begin Spectral Data<<<<<
179.3399	-0
179.5586	-0
179.7771	-0
179.9957	0.3997
180.2143	-0.3668
180.4329	-0
180.6514	-0
180.8699	-0
181.0885	-0
181.307	0.619
181.5255	0.3495
181.744	-0
181.9625	0.9482
182.181	-0
182.3994	-0
182.6179	-0
182.8363	0.468
183.0547	-0
183.2732	0.2635
183.4916	0.3605
183.71	0.0689
183.9284	0.2561
184.1467	0.0765
184.3651	0.1993
184.5835	0.0416
184.8018	0.1659
185.0201	0.2952
185.2385	0.0868
185.4568	0.2955
185.6751	0.3063
185.8934	0.3052
186.1117	0.2946
186.3299	0.2124
186.5482	0.1289
186.7664	0.3798
186.9847	0.2521
187.2029	0.2667
187.4211	0.1607
187.6393	0.2344
187.8575	0.1975
188.0757	1.2386
188.2939	0.2192
188.512	0.21
188.7302	-0.095
188.9483	0.2785
189.1665	0.4459
189.3846	-0.0537
189.6027	0.1861
189.8208	0.3074
190.0389	0.2699
190.257	0.1598
190.475	0.3988
190.6931	0.2808
190.9111	0.2531
191.1292	0.1856
191.3472	0.265
191.5652	0.5687
191.7832	0.4968
192.0012	0.2576
192.2192	0.2549
192.4371	0.3057
192.6551	0.218
192.873	0.3666
193.091	0.3522
193.3089	0.1228
193.5268	0.3572
193.7447	0.5445
193.9626	0.4582
194.1805	0.2039
194.3984	0.4832
194.6162	0.5024
194.8341	0.6332
195.0519	0.5449
195.2697	0.5456
195.4875	0.7686
195.7054	0.4447
195.9231	0.4999
196.1409	0.4315
196.3587	0.6525
196.5765	0.537
196.7942	0.5979
197.012	0.5401
197.2297	0.4813
197.4474	0.8155
197.6651	0.5656
197.8828	0.9146
198.1005	0.6523
198.3182	0.5076
198.5358	0.5472
198.7535	0.625
198.9711	0.6692
199.1888	0.5631
199.4064	0.6997
199.624	0.6592
199.8416	0.5465
200.0592	0.5504
200.2767	0.4829
200.4943	0.6566
200.7119	0.5564
200.9294	0.6511
201.1469	0.6539
201.3645	0.6017
201.582	0.5383
201.7995	0.6621
202.017	0.6067
202.2344	0.5361
202.4519	0.5337
202.6694	0.6014
202.8868	0.5992
203.1042	0.5563
203.3217	0.5004
203.5391	0.5655
203.7565	0.5349
203.9739	0.4974
204.1913	0.54
204.4086	0.5678
204.626	0.4729
204.8433	0.5111
205.0607	0.5129
205.278	0.5359
205.4953	0.458
205.7126	0.4733
205.9299	0.4879
206.1472	0.5302
206.3644	0.4833
206.5817	0.5068
206.7989	0.4591
207.0162	0.4335
207.2334	0.4538
207.4506	0.4533
207.6678	0.4468
207.885	0.4708
208.1022	0.4306
208.3194	0.4484
208.5365	0.4519
208.7537	0.4545
208.9708	0.456
209.1879	0.4311
209.405	0.4191
209.6222	0.4376
209.8392	0.4366
210.0563	0.4385
210.2734	0.4021
210.4905	0.4326
210.7075	0.4305
210.9245	0.4013
211.1416	0.4354
211.3586	0.3926
211.5756	0.4087
211.7926	0.404
212.0096	0.4132
212.2265	0.4168
212.4435	0.4136
212.6604	0.4046
212.8774	0.3978
213.0943	0.4264
213.3112	0.4165
213.5281	0.4318
213.745	0.3807
213.9619	0.4164
214.1788	0.4167
214.3956	0.3875
214.6125	0.4111
214.8293	0.4195
215.0461	0.4068
215.2629	0.3857
215.4798	0.3874
215.6965	0.4041
215.9133	0.4253
216.1301	0.3961
216.3469	0.4066
216.5636	0.4029
216.7803	0.4114
216.9971	0.418
217.2138	0.4123
217.4305	0.4282
217.6472	0.4174
217.8639	0.4095
218.0805	0.4217
218.2972	0.4187
218.5138	0.4135
218.7305	0.4464
218.9471	0.4109
219.1637	0.4292
219.3803	0.4163
219.5969	0.4355
219.8135	0.4392
220.0301	0.415
220.2466	0.4412
220.4632	0.4123
220.6797	0.4257
220.8962	0.4331
221.1127	0.4471
221.3292	0.4271
221.5457	0.4457
221.7622	0.4328
221.9787	0.4251
222.1951	0.4479
222.4116	0.4405
222.628	0.4408
222.8444	0.4512
223.0608	0.4552
223.2772	0.4543
223.4936	0.4532
223.71	0.4521
223.9264	0.4388
224.1427	0.4487
224.3591	0.4554
224.5754	0.4653
224.7917	0.462
225.008	0.4672
225.2243	0.4497
225.4406	0.4733
225.6569	0.457
225.8732	0.4521
226.0894	0.4724
226.3057	0.4646
226.5219	0.4709
226.7381	0.4642
226.9543	0.4719
227.1705	0.4663
227.3867	0.4972
227.6029	0.4622
227.8191	0.4806
228.0352	0.4911
228.2513	0.4861
228.4675	0.487
228.6836	0.5174
228.8997	0.495
229.1158	0.4935
229.3319	0.4867
229.548	0.4873
229.764	0.5052
229.9801	0.5021
230.1961	0.5153
230.4121	0.505
230.6282	0.511
230.8442	0.5102
231.0602	0.5112
231.2761	0.516
231.4921	0.5125
231.7081	0.5155
231.924	0.5155
232.14	0.5239
232.3559	0.5255
232.5718	0.5286
232.7877	0.5183
233.0036	0.515
233.2195	0.5357
233.4353	0.5218
233.6512	0.5244
233.867	0.5474
234.0829	0.5381
234.2987	0.5318
234.5145	0.5419
234.7303	0.5282
234.9461	0.5342
235.1619	0.5229
235.3776	0.5286
235.5934	0.5251
235.8091	0.5353
236.0249	0.5376
236.2406	0.5325
236.4563	0.5414
236.672	0.5352
236.8877	0.5277
237.1034	0.5225
237.319	0.5409
237.5347	0.5325
237.7503	0.5247
237.966	0.5361
238.1816	0.5363
238.3972	0.5375
238.6128	0.542
238.8284	0.5322
239.0439	0.5354
239.2595	0.5473
239.475	0.5337
239.6906	0.5279
239.9061	0.5228
240.1216	0.529
240.3371	0.5085
240.5526	0.5133
240.7681	0.5264
240.9836	0.522
241.199	0.5123
241.4145	0.4983
241.6299	0.4922
241.8453	0.4972
242.0607	0.4834
242.2761	0.4882
242.4915	0.4706
242.7069	0.4701
242.9223	0.4627
243.1376	0.4528
243.353	0.4422
243.5683	0.4436
243.7836	0.4242
243.9989	0.419
244.2142	0.4147
244.4295	0.4103
244.6448	0.4012
244.86	0.3921
245.0753	0.3783
245.2905	0.3697
245.5057	0.3682
245.721	0.3637
245.9362	0.3532
246.1514	0.3416
246.3665	0.3357
246.5817	0.336
246.7969	0.3175
247.012	0.3279
247.2271	0.3143
247.4423	0.3125
247.6574	0.3122
247.8725	0.3025
248.0876	0.2945
248.3026	0.2847
248.5177	0.2787
248.7328	0.2761
248.9478	0.2716
249.1628	0.266
249.3779	0.2688
249.5929	0.2599
249.8079	0.2553
250.0228	0.2484
250.2378	0.2539
250.4528	0.2516
250.6677	0.2439
250.8827	0.2345
251.0976	0.2422
251.3125	0.2348
251.5274	0.2363
251.7423	0.2282
251.9572	0.2245
252.172	0.2222
252.3869	0.2178
252.6017	0.215
252.8166	0.2127
253.0314	0.2177
253.2462	0.2073
253.461	0.2153
253.6758	0.2092
253.8906	0.2102
254.1053	0.2061
254.3201	0.1992
254.5348	0.2059
254.7496	0.2028
254.9643	0.2056
255.179	0.2029
255.3937	0.197
255.6083	0.2006
255.823	0.2025
256.0377	0.1989
256.2523	0.1968
256.467	0.2018
256.6816	0.1995
256.8962	0.1964
257.1108	0.1929
257.3254	0.1913
257.54	0.1919
257.7545	0.1911
257.9691	0.1934
258.1836	0.1916
258.3981	0.1887
258.6127	0.1846
258.8272	0.1859
259.0417	0.181
259.2561	0.1902
259.4706	0.1892
259.6851	0.1876
259.8995	0.1831
260.114	0.1832
260.3284	0.1828
260.5428	0.1827
260.7572	0.1871
260.9716	0.1835
261.186	0.1854
261.4003	0.1882
261.6147	0.1814
261.829	0.1799
262.0433	0.1767
262.2577	0.1866
262.472	0.1895
262.6863	0.1868
262.9005	0.193
263.1148	0.1832
263.3291	0.1919
263.5433	0.1883
263.7576	0.1805
263.9718	0.1909
264.186	0.1843
264.4002	0.1848
264.6144	0.1903
264.8286	0.1878
265.0427	0.1896
265.2569	0.1876
265.471	0.1829
265.6851	0.187
265.8993	0.1808
266.1134	0.1868
266.3275	0.1835
266.5415	0.1837
266.7556	0.1845
266.9697	0.1816
267.1837	0.18
267.3978	0.1921
267.6118	0.1845
267.8258	0.1833
268.0398	0.1776
268.2538	0.1816
268.4677	0.1839
268.6817	0.1824
268.8957	0.1756
269.1096	0.1793
269.3235	0.1875
269.5374	0.1833
269.7514	0.183
269.9652	0.1799
270.1791	0.1793
270.393	0.1839
270.6068	0.1772
270.8207	0.1734
271.0345	0.1754
271.2483	0.1777
271.4622	0.177
271.676	0.1754
271.8897	0.1758
272.1035	0.1759
272.3173	0.1706
272.531	0.1707
272.7448	0.1666
272.9585	0.1768
273.1722	0.1745
273.3859	0.1734
273.5996	0.1696
273.8133	0.165
274.0269	0.1708
274.2406	0.1756
274.4542	0.1635
274.6679	0.1761
274.8815	0.1737
275.0951	0.1779
275.3087	0.174
275.5223	0.1709
275.7358	0.1737
275.9494	0.1705
276.1629	0.1764
276.3765	0.1696
276.59	0.1714
276.8035	0.1814
277.017	0.1746
277.2305	0.1769
277.444	0.1749
277.6574	0.1771
277.8709	0.1704
278.0843	0.1842
278.2978	0.1766
278.5112	0.1766
278.7246	0.1751
278.938	0.1759
279.1513	0.1753
279.3647	0.1756
279.5781	0.1774
279.7914	0.1763
280.0047	0.1815
280.2181	0.1822
280.4314	0.1831
280.6447	0.1808
280.8579	0.1765
281.0712	0.1853
281.2845	0.187
281.4977	0.1892
281.711	0.1831
281.9242	0.1828
282.1374	0.1898
282.3506	0.1865
282.5638	0.1847
282.7769	0.1861
282.9901	0.1893
283.2033	0.1928
283.4164	0.1808
283.6295	0.1842
283.8426	0.1876
284.0557	0.1884
284.2688	0.1945
284.4819	0.1946
284.695	0.1906
284.908	0.1925
285.1211	0.1959
285.3341	0.1964
285.5471	0.1959
285.7601	0.1951
285.9731	0.1914
286.1861	0.1909
286.3991	0.1926
286.612	0.1905
286.825	0.192
287.0379	0.1999
287.2508	0.1917
287.4637	0.1944
287.6766	0.195
287.8895	0.1913
288.1024	0.1979
288.3152	0.1952
288.5281	0.1968
288.7409	0.1975
288.9538	0.1949
289.1666	0.201
289.3794	0.1943
289.5922	0.1937
289.8049	0.1993
290.0177	0.1985
290.2304	0.201
290.4432	0.1967
290.6559	0.191
290.8686	0.1995
291.0813	0.2011
291.294	0.1995
291.5067	0.2014
291.7194	0.1962
291.932	0.2001
292.1447	0.2011
292.3573	0.1962
292.5699	0.2003
292.7825	0.2035
292.9951	0.2
293.2077	0.2032
293.4203	0.2011
293.6328	0.2039
293.8454	0.1947
294.0579	0.207
294.2704	0.2041
294.4829	0.2009
294.6954	0.2016
294.9079	0.2053
295.1204	0.2002
295.3328	0.2014
295.5453	0.2021
295.7577	0.1992
295.9701	0.1986
296.1825	0.2005
296.3949	0.2105
296.6073	0.203
296.8197	0.2052
297.0321	0.1953
297.2444	0.1999
297.4567	0.1945
297.6691	0.2041
297.8814	0.1996
298.0937	0.199
298.306	0.1952
298.5182	0.2044
298.7305	0.197
298.9428	0.2027
299.155	0.1963
299.3672	0.2003
299.5794	0.1932
299.7916	0.2003
300.0038	0.1932
300.216	0.2021
300.4282	0.1932
300.6403	0.1981
300.8525	0.2003
301.0646	0.2017
301.2767	0.1963
301.4888	0.1956
301.7009	0.1962
301.913	0.2021
302.125	0.2002
302.3371	0.1957
302.5491	0.1984
302.7612	0.1981
302.9732	0.1895
303.1852	0.1951
303.3972	0.1964
303.6092	0.1899
303.8211	0.1883
304.0331	0.1904
304.245	0.1938
304.457	0.198
304.6689	0.1933
304.8808	0.1895
305.0927	0.1919
305.3046	0.1859
305.5164	0.1889
305.7283	0.1857
305.9401	0.1826
306.152	0.1797
306.3638	0.1782
306.5756	0.1806
306.7874	0.1844
306.9992	0.1794
307.2109	0.1735
307.4227	0.173
307.6344	0.1773
307.8462	0.1745
308.0579	0.1638
308.2696	0.1625
308.4813	0.156
308.693	0.1711
308.9046	0.1587
309.1163	0.1609
309.328	0.1553
309.5396	0.1587
309.7512	0.1585
309.9628	0.155
310.1744	0.154
310.386	0.1489
310.5976	0.1502
310.8091	0.1459
311.0207	0.1455
311.2322	0.1438
311.4437	0.1484
311.6552	0.1443
311.8667	0.1439
312.0782	0.1411
312.2897	0.1383
312.5012	0.1434
312.7126	0.1314
312.924	0.138
313.1355	0.1338
313.3469	0.1272
313.5583	0.1342
313.7696	0.1248
313.981	0.1298
314.1924	0.1292
314.4037	0.1259
314.6151	0.1253
314.8264	0.1265
315.0377	0.1372
315.249	0.1228
315.4603	0.1215
315.6716	0.1217
315.8828	0.1232
316.0941	0.1185
316.3053	0.1212
316.5165	0.1181
316.7277	0.1298
316.9389	0.1223
317.1501	0.1223
317.3613	0.1111
317.5724	0.1193
317.7836	0.1219
317.9947	0.116
318.2058	0.116
318.417	0.1218
318.6281	0.1163
318.8391	0.1209
319.0502	0.1173
319.2613	0.1125
319.4723	0.1199
319.6834	0.1125
319.8944	0.1172
320.1054	0.1168
320.3164	0.1168
320.5274	0.1179
320.7383	0.1191
320.9493	0.1122
321.1602	0.1124
321.3712	0.1179
321.5821	0.1265
321.793	0.1204
322.0039	0.1185
322.2148	0.1177
322.4257	0.1199
322.6365	0.1106
322.8474	0.1172
323.0582	0.1136
323.269	0.1134
323.4798	0.1175
323.6906	0.1158
323.9014	0.1155
324.1122	0.1177
324.3229	0.1236
324.5337	0.1221
324.7444	0.1114
324.9551	0.1217
325.1658	0.1199
325.3765	0.1225
325.5872	0.114
325.7979	0.1194
326.0085	0.1169
326.2192	0.1159
326.4298	0.1205
326.6404	0.1197
326.851	0.1186
327.0616	0.1166
327.2722	0.1243
327.4828	0.1161
327.6933	0.1244
327.9039	0.1227
328.1144	0.1201
328.3249	0.1266
328.5354	0.116
328.7459	0.1198
328.9564	0.1274
329.1669	0.1244
329.3773	0.1269
329.5878	0.1275
329.7982	0.1227
330.0086	0.1233
330.219	0.1266
330.4294	0.1311
330.6398	0.1296
330.8502	0.1162
331.0605	0.1263
331.2708	0.1265
331.4812	0.1243
331.6915	0.1198
331.9018	0.1193
332.1121	0.1323
332.3224	0.1243
332.5326	0.1235
332.7429	0.1246
332.9531	0.1244
333.1633	0.1251
333.3735	0.1233
333.5837	0.1304
333.7939	0.1234
334.0041	0.1265
334.2143	0.1276
334.4244	0.1248
334.6346	0.1222
334.8447	0.127
335.0548	0.1311
335.2649	0.1261
335.475	0.1275
335.685	0.1264
335.8951	0.1292
336.1051	0.1252
336.3152	0.1339
336.5252	0.1251
336.7352	0.1228
336.9452	0.1313
337.1552	0.1289
337.3652	0.1378
337.5751	0.1252
337.7851	0.1291
337.995	0.1349
338.2049	0.1318
338.4148	0.1238
338.6247	0.1317
338.8346	0.1231
339.0445	0.1326
339.2543	0.1347
339.4642	0.1343
339.674	0.1434
339.8838	0.1349
340.0936	0.1331
340.3034	0.1429
340.5132	0.1352
340.7229	0.1389
340.9327	0.1389
341.1424	0.1403
341.3522	0.1411
341.5619	0.1395
341.7716	0.142
341.9813	0.1409
342.1909	0.1417
342.4006	0.1416
342.6102	0.1376
342.8199	0.1354
343.0295	0.1461
343.2391	0.1372
343.4487	0.142
343.6583	0.1488
343.8679	0.1453
344.0774	0.1369
344.287	0.1497
344.4965	0.1477
344.706	0.1487
344.9155	0.1453
345.125	0.1478
345.3345	0.1403
345.544	0.1518
345.7534	0.1455
345.9629	0.1513
346.1723	0.1482
346.3817	0.1509
346.5911	0.1526
346.8005	0.1485
347.0099	0.156
347.2193	0.1468
347.4286	0.1496
347.638	0.1507
347.8473	0.156
348.0566	0.1537
348.2659	0.1609
348.4752	0.1564
348.6845	0.1605
348.8937	0.1536
349.103	0.1551
349.3122	0.1637
349.5214	0.1612
349.7306	0.1587
349.9398	0.1581
350.149	0.1674
350.3582	0.1443
350.5674	0.1656
350.7765	0.1626
350.9856	0.165
351.1948	0.1625
351.4039	0.1621
351.613	0.1739
351.822	0.1637
352.0311	0.1628
352.2402	0.1725
352.4492	0.1745
352.6582	0.166
352.8672	0.1737
353.0762	0.1722
353.2852	0.1766
353.4942	0.1651
353.7032	0.1691
353.9121	0.1767
354.1211	0.1734
354.33	0.1777
354.5389	0.1863
354.7478	0.176
354.9567	0.1784
355.1655	0.1807
355.3744	0.1794
355.5833	0.1845
355.7921	0.1797
356.0009	0.1777
356.2097	0.1817
356.4185	0.1922
356.6273	0.184
356.8361	0.1887
357.0448	0.1872
357.2536	0.1864
357.4623	0.182
357.671	0.1868
357.8797	0.1927
358.0884	0.1868
358.2971	0.1921
358.5057	0.1858
358.7144	0.1999
358.923	0.1961
359.1316	0.1915
359.3402	0.2018
359.5488	0.1991
359.7574	0.1983
359.966	0.2005
360.1746	0.1934
360.3831	0.2099
360.5916	0.1992
360.8002	0.217
361.0087	0.2078
361.2172	0.2155
361.4256	0.1938
361.6341	0.2209
361.8426	0.2172
362.051	0.208
362.2594	0.211
362.4678	0.2162
362.6762	0.222
362.8846	0.2244
363.093	0.2166
363.3014	0.2212
363.5097	0.2177
363.718	0.228
363.9264	0.2228
364.1347	0.2196
364.343	0.2299
364.5513	0.2233
364.7595	0.2313
364.9678	0.2303
365.176	0.2271
365.3842	0.2366
365.5925	0.2283
365.8007	0.2325
366.0089	0.2336
366.217	0.2411
366.4252	0.2375
366.6333	0.2394
366.8415	0.2399
367.0496	0.2407
367.2577	0.2441
367.4658	0.2437
367.6739	0.2383
367.882	0.2428
368.09	0.2368
368.2981	0.2381
368.5061	0.2462
368.7141	0.2505
368.9221	0.2518
369.1301	0.2481
369.3381	0.2622
369.5461	0.2569
369.754	0.2518
369.962	0.2595
370.1699	0.2654
370.3778	0.2615
370.5857	0.2639
370.7936	0.2662
371.0015	0.2543
371.2093	0.2668
371.4172	0.2615
371.625	0.2655
371.8328	0.2677
372.0406	0.2633
372.2484	0.2641
372.4562	0.2685
372.664	0.27
372.8717	0.2747
373.0795	0.269
373.2872	0.2732
373.4949	0.2798
373.7026	0.2834
373.9103	0.2661
374.118	0.2777
374.3256	0.2775
374.5333	0.2772
374.7409	0.2727
374.9485	0.2841
375.1561	0.2809
375.3637	0.2751
375.5713	0.2797
375.7789	0.2821
375.9864	0.2882
376.194	0.2835
376.4015	0.2865
376.609	0.2892
376.8165	0.2833
377.024	0.279
377.2315	0.2962
377.4389	0.2809
377.6464	0.2887
377.8538	0.2894
378.0612	0.2813
378.2686	0.2918
378.476	0.2808
378.6834	0.2869
378.8908	0.2923
379.0981	0.2934
379.3055	0.3005
379.5128	0.2914
379.7201	0.2889
379.9274	0.2929
380.1347	0.3029
380.342	0.3022
380.5492	0.2983
380.7565	0.2983
380.9637	0.2968
381.1709	0.3018
381.3781	0.3094
381.5853	0.3041
381.7925	0.3093
381.9997	0.3072
382.2068	0.3063
382.4139	0.3177
382.6211	0.3103
382.8282	0.3179
383.0353	0.3138
383.2424	0.3142
383.4494	0.3116
383.6565	0.3146
383.8635	0.3235
384.0706	0.3158
384.2776	0.3128
384.4846	0.3122
384.6916	0.3103
384.8986	0.3222
385.1055	0.3185
385.3125	0.3147
385.5194	0.303
385.7263	0.3103
385.9333	0.3071
386.1402	0.3217
386.347	0.3186
386.5539	0.3249
386.7608	0.3196
386.9676	0.3086
387.1744	0.3162
387.3813	0.3064
387.5881	0.3222
387.7948	0.3173
388.0016	0.3126
388.2084	0.3121
388.4151	0.3114
388.6219	0.3166
388.8286	0.3148
389.0353	0.3071
389.242	0.3079
389.4487	0.3169
389.6553	0.3047
389.862	0.3038
390.0686	0.31
390.2753	0.307
390.4819	0.309
390.6885	0.2947
390.8951	0.3181
391.1016	0.3113
391.3082	0.3004
391.5147	0.2975
391.7213	0.3028
391.9278	0.2982
392.1343	0.3028
392.3408	0.2886
392.5473	0.2943
392.7537	0.2928
392.9602	0.2959
393.1666	0.2912
393.373	0.2955
393.5794	0.2821
393.7858	0.2931
393.9922	0.2982
394.1986	0.2851
394.4049	0.2842
394.6113	0.2823
394.8176	0.2764
395.0239	0.2812
395.2302	0.2723
395.4365	0.2941
395.6428	0.2756
395.8491	0.2716
396.0553	0.2791
396.2615	0.2743
396.4678	0.2761
396.674	0.2656
396.8802	0.2674
397.0863	0.2668
397.2925	0.2657
397.4987	0.2613
397.7048	0.2791
397.9109	0.2811
398.117	0.2705
398.3231	0.2743
398.5292	0.2789
398.7353	0.2614
398.9413	0.271
399.1474	0.2738
399.3534	0.2772
399.5594	0.273
399.7654	0.2643
399.9714	0.259
400.1774	0.2596
400.3833	0.2752
400.5893	0.2593
400.7952	0.2726
401.0011	0.2651
401.207	0.2721
401.4129	0.2685
401.6188	0.2607
401.8247	0.2675
402.0305	0.2603
402.2364	0.2719
402.4422	0.279
402.648	0.2718
402.8538	0.2698
403.0596	0.2559
403.2654	0.2623
403.4711	0.272
403.6768	0.266
403.8826	0.2631
404.0883	0.2601
404.294	0.2668
404.4997	0.2599
404.7054	0.2669
404.911	0.2643
405.1167	0.2699
405.3223	0.2724
405.5279	0.271
405.7335	0.2654
405.9391	0.2679
406.1447	0.2761
406.3502	0.279
406.5558	0.2761
406.7613	0.2739
406.9668	0.2697
407.1724	0.2774
407.3778	0.2696
407.5833	0.2627
407.7888	0.2755
407.9942	0.2731
408.1997	0.2645
408.4051	0.2642
408.6105	0.2667
408.8159	0.272
409.0213	0.2755
409.2267	0.2687
409.432	0.275
409.6374	0.2672
409.8427	0.2692
410.048	0.2709
410.2533	0.2662
410.4586	0.2676
410.6639	0.2657
410.8691	0.2776
411.0744	0.2658
411.2796	0.2701
411.4848	0.2736
411.69	0.2689
411.8952	0.2709
412.1004	0.2667
412.3056	0.2586
412.5107	0.2668
412.7158	0.2753
412.921	0.265
413.1261	0.2622
413.3312	0.2648
413.5362	0.2593
413.7413	0.2638
413.9464	0.2586
414.1514	0.2651
414.3564	0.2553
414.5614	0.2593
414.7664	0.2634
414.9714	0.2678
415.1764	0.2701
415.3813	0.2489
415.5863	0.2559
415.7912	0.2725
415.9961	0.2647
416.201	0.2591
416.4059	0.2593
416.6108	0.2622
416.8156	0.2528
417.0205	0.2689
417.2253	0.2659
417.4301	0.2648
417.6349	0.2652
417.8397	0.268
418.0445	0.2662
418.2492	0.2646
418.454	0.2623
418.6587	0.2561
418.8634	0.2572
419.0681	0.2506
419.2728	0.2504
419.4775	0.2605
419.6822	0.2421
419.8868	0.255
420.0915	0.2488
420.2961	0.2506
420.5007	0.249
420.7053	0.2549
420.9099	0.2385
421.1144	0.2475
421.319	0.242
421.5235	0.2416
421.728	0.2351
421.9325	0.2532
422.137	0.2358
422.3415	0.2423
422.546	0.2418
422.7504	0.2414
422.9549	0.2324
423.1593	0.2528
423.3637	0.2472
423.5681	0.2439
423.7725	0.2354
423.9769	0.2362
424.1812	0.2439
424.3856	0.2389
424.5899	0.236
424.7942	0.2265
424.9985	0.2413
425.2028	0.2343
425.4071	0.2147
425.6113	0.2253
425.8156	0.2206
426.0198	0.2167
426.224	0.2291
426.4282	0.2265
426.6324	0.2334
426.8366	0.2206
427.0407	0.2227
427.2449	0.224
427.449	0.2183
427.6531	0.2206
427.8572	0.2191
428.0613	0.2125
428.2654	0.2166
428.4694	0.2099
428.6735	0.2096
428.8775	0.2084
429.0815	0.2059
429.2855	0.2069
429.4895	0.2025
429.6935	0.196
429.8975	0.2139
430.1014	0.2006
430.3053	0.2033
430.5093	0.1904
430.7132	0.2001
430.9171	0.1915
431.1209	0.2063
431.3248	0.1852
431.5286	0.1802
431.7325	0.1948
431.9363	0.1871
432.1401	0.1755
432.3439	0.1829
432.5477	0.1867
432.7514	0.1796
432.9552	0.1637
433.1589	0.1772
433.3627	0.1771
433.5664	0.1697
433.7701	0.1715
433.9737	0.1707
434.1774	0.1733
434.3811	0.1664
434.5847	0.1599
434.7883	0.1695
434.9919	0.1547
435.1955	0.1513
435.3991	0.1576
435.6027	0.1535
435.8062	0.1517
436.0098	0.1565
436.2133	0.1532
436.4168	0.1469
436.6203	0.1402
436.8238	0.1425
437.0272	0.143
437.2307	0.1345
437.4341	0.131
437.6375	0.129
437.841	0.1281
438.0443	0.1366
438.2477	0.1258
438.4511	0.1365
438.6545	0.128
438.8578	0.1299
439.0611	0.1235
439.2644	0.1179
439.4677	0.1171
439.671	0.1224
439.8743	0.1154
440.0775	0.1146
440.2808	0.1293
440.484	0.108
440.6872	0.1107
440.8904	0.1084
441.0936	0.1137
441.2967	0.1013
441.4999	0.1045
441.703	0.1021
441.9062	0.1098
442.1093	0.1025
442.3124	0.0981
442.5155	0.0962
442.7185	0.0879
442.9216	0.0915
443.1246	0.0962
443.3276	0.0779
443.5307	0.0875
443.7337	0.0823
443.9366	0.0872
444.1396	0.0835
444.3426	0.0813
444.5455	0.079
444.7484	0.0717
444.9513	0.0867
445.1542	0.0884
445.3571	0.0729
445.56	0.0654
445.7628	0.0719
445.9657	0.074
446.1685	0.0843
446.3713	0.0665
446.5741	0.062
446.7769	0.0699
446.9797	0.067
447.1824	0.0663
447.3852	0.0592
447.5879	0.0626
447.7906	0.066
447.9933	0.0607
448.196	0.0517
448.3986	0.0544
448.6013	0.0571
448.8039	0.0569
449.0066	0.0491
449.2092	0.0522
449.4118	0.0496
449.6143	0.0519
449.8169	0.0483
450.0195	0.0486
450.222	0.047
450.4245	0.0581
450.627	0.0458
450.8295	0.0463
451.032	0.0421
451.2345	0.0398
451.4369	0.0424
451.6394	0.0391
451.8418	0.0379
452.0442	0.0378
452.2466	0.0434
452.449	0.0359
452.6513	0.0311
452.8537	0.0378
453.056	0.0465
453.2583	0.0411
453.4607	0.0338
453.663	0.0405
453.8652	0.0278
454.0675	0.0378
454.2697	0.0405
454.472	0.0346
454.6742	0.0263
454.8764	0.0318
455.0786	0.0363
455.2808	0.0329
455.4829	0.0165
455.6851	0.0279
455.8872	0.0325
456.0893	0.0216
456.2915	0.0256
456.4935	0.0228
456.6956	0.0301
456.8977	0.0254
457.0997	0.0245
457.3018	0.0295
457.5038	0.0238
457.7058	0.0152
457.9078	0.0235
458.1098	0.0186
458.3117	0.0211
458.5137	0.026
458.7156	0.0341
458.9175	0.0221
459.1194	0.0286
459.3213	0.014
459.5232	0.0118
459.725	0.0186
459.9269	0.017
460.1287	0.0139
460.3305	0.0109
460.5323	0.0195
460.7341	0.0176
460.9359	0.0155
461.1376	0.0185
461.3394	0.0109
461.5411	0.0133
461.7428	0.0167
461.9445	0.0153
462.1462	0.0174
462.3479	0.0064
462.5495	0.015
462.7512	0.0147
462.9528	0.0167
463.1544	0.0049
463.356	0.0101
463.5576	0.0045
463.7592	0.011
463.9607	0.012
464.1623	0.0059
464.3638	-0.0047
464.5653	0.014
464.7668	0.0077
464.9683	0.015
465.1697	0.0112
465.3712	0.0051
465.5726	0.0094
465.7741	0.0145
465.9755	0.0089
466.1769	0.0086
466.3782	0.007
466.5796	0.008
466.7809	0.0174
466.9823	0.0085
467.1836	0.0136
467.3849	0.0035
467.5862	-0.0015
467.7875	0.0165
467.9887	0.0143
468.19	0.0103
468.3912	0.0059
468.5924	0.0167
468.7936	0.0027
468.9948	0.0019
469.196	0.0121
469.3972	0.0157
469.5983	-0.0025
469.7994	0.0053
470.0006	0.0066
470.2017	0.0093
470.4027	0.0001
470.6038	0.0072
470.8049	0.0026
471.0059	0.011
471.2069	-0.001
471.408	0.0062
471.6089	0.0119
471.8099	0.0041
472.0109	-0.0042
472.2119	0.0171
472.4128	0.0127
472.6137	0.0118
472.8146	0.0023
473.0155	-0.001
473.2164	-0.0075
473.4173	0.0089
473.6181	0.0009
473.819	0.0007
474.0198	0.008
474.2206	0.0083
474.4214	0.0147
474.6222	0.0025
474.8229	0.0051
475.0237	0.0006
475.2244	0.0078
475.4251	0.0011
475.6258	0.0082
475.8265	0.0002
476.0272	-0.004
476.2278	-0.0015
476.4285	-0.005
476.6291	0.0138
476.8297	-0.004
477.0303	0.0033
477.2309	-0.0016
477.4315	0.0063
477.632	0.0012
477.8326	0.002
478.0331	-0.0064
478.2336	0.0123
478.4341	-0.0002
478.6346	-0.0011
478.8351	0.011
479.0355	0.0067
479.236	0.0133
479.4364	0.0058
479.6368	0.0009
479.8372	0.0111
480.0376	-0.0049
480.2379	0.0004
480.4383	0.0066
480.6386	0.0056
480.8389	0.0055
481.0392	0.0174
481.2395	0.0049
481.4398	0.0068
481.6401	0.0062
481.8403	0.0016
482.0405	-0.0014
482.2408	-0.0033
482.441	0.0051
482.6411	0.0017
482.8413	-0.0082
483.0415	0.0009
483.2416	0.0071
483.4417	0.0052
483.6419	0.006
483.8419	-0.0025
484.042	-0.003
484.2421	0.0008
484.4422	0.0096
484.6422	0.0066
484.8422	0.0063
485.0422	0.0044
485.2422	-0.0001
485.4422	-0.0016
485.6422	-0.0011
485.8421	-0.0025
486.042	0.005
486.242	0.0008
486.4419	0.0035
486.6417	-0.0003
486.8416	0.0047
487.0415	-0.0048
487.2413	0.0017
487.4411	0.0053
487.641	0.0028
487.8408	-0.0024
488.0405	0.0009
488.2403	-0.0015
488.4401	-0.0002
488.6398	0.01
488.8395	0.0042
489.0392	0.0072
489.2389	0.0062
489.4386	-0.003
489.6383	0.0028
489.8379	0.0002
490.0376	0.0136
490.2372	-0.0059
490.4368	0.0057
490.6364	0.0039
490.836	-0.0066
491.0355	0.0067
491.2351	0.0059
491.4346	0.0013
491.6341	-0.0016
491.8336	-0.0101
492.0331	-0.0027
492.2326	0.005
492.432	0.0033
492.6315	0.0038
492.8309	0.0036
493.0303	-0.0064
493.2297	-0.0015
493.4291	-0.0081
493.6284	-0.0019
493.8278	0.0117
494.0271	0.0008
494.2264	0.0106
494.4257	0.0012
494.625	0.0014
494.8243	0.004
495.0236	0.0118
495.2228	-0.0061
495.422	0.0041
495.6213	0.0019
495.8205	-0.0027
496.0196	0.0046
496.2188	0.0067
496.418	0.0024
496.6171	0.002
496.8162	0.0063
497.0153	0.0008
497.2144	-0.0013
497.4135	0.0136
497.6126	-0.0078
497.8116	0.0029
498.0107	0.004
498.2097	0.0079
498.4087	-0.0021
498.6077	0.0125
498.8067	0.0103
499.0056	-0.0025
499.2046	0.0023
499.4035	0.0013
499.6024	-0.0099
499.8013	0.0053
500.0002	0.0015
500.199	0.0043
500.3979	0.0035
500.5967	-0.0011
500.7956	-0.0027
500.9944	0.0043
501.1932	0.0047
501.3919	0.0081
501.5907	0.0008
501.7895	-0.0044
501.9882	0.0013
502.1869	0.0054
502.3856	-0.0045
502.5843	0.0006
502.783	0.0031
502.9816	-0.0104
503.1803	0.0092
503.3789	0.0041
503.5775	0.0073
503.7761	0.0014
503.9747	-0.0035
504.1732	-0.0028
504.3718	-0.002
504.5703	0.0042
504.7689	0.0001
504.9674	-0.0022
505.1658	-0.0016
505.3643	0.0015
505.5628	-0.003
505.7612	0.005
505.9597	0.0094
506.1581	0.0004
506.3565	0.0022
506.5549	0.0075
506.7532	0.0025
506.9516	0.0013
507.1499	0.0059
507.3482	0.0096
507.5465	-0.0001
507.7448	0.0043
507.9431	-0.0013
508.1414	-0.0057
508.3396	0.0064
508.5379	0.0035
508.7361	0.0138
508.9343	0.0016
509.1325	0.0032
509.3306	-0.0007
509.5288	0.0049
509.7269	0.0043
509.9251	0.0031
510.1232	-0.0095
510.3213	-0.0027
510.5193	0.0051
510.7174	-0.0075
510.9154	0.0094
511.1135	0.0015
511.3115	0.0032
511.5095	0.0058
511.7075	0.0007
511.9055	0.01
512.1034	0.0123
512.3014	0.0007
512.4993	0.0027
512.6972	-0.0022
512.8951	0.0098
513.093	-0.0034
513.2908	0.0032
513.4887	0.006
513.6865	-0.003
513.8844	-0.0024
514.0822	-0.0001
514.2799	-0.0015
514.4777	0.0017
514.6755	0.0061
514.8732	-0.0004
515.0709	0.0004
515.2687	-0.0031
515.4664	-0.0114
515.664	0.0117
515.8617	0.0077
516.0594	-0.0054
516.257	0.0079
516.4546	-0.0036
516.6522	-0.0034
516.8498	-0.0115
517.0474	-0.0037
517.2449	0.0034
517.4425	-0.0044
517.64	0.0071
517.8375	0.0035
518.035	-0.0038
518.2325	-0.0039
518.43	0.0009
518.6274	-0.0071
518.8249	0.0079
519.0223	-0.0087
519.2197	0.0022
519.4171	-0.0014
519.6145	0.0054
519.8118	-0.0028
520.0092	0.0008
520.2065	0.0047
520.4038	0.009
520.6011	0.0003
520.7984	0.0025
520.9956	-0.0002
521.1929	0.0023
521.3901	0.0129
521.5874	-0.004
521.7846	-0.0082
521.9818	-0.0116
522.1789	0.0096
522.3761	0.0028
522.5732	0.0053
522.7704	-0.001
522.9675	-0.0032
523.1646	0.0061
523.3617	-0.001
523.5587	0.0033
523.7558	0.0042
523.9528	0.0098
524.1498	0.0097
524.3468	-0.003
524.5438	-0.0014
524.7408	-0.0039
524.9378	0.0108
525.1347	0.0149
525.3316	0.0123
525.5285	0.0004
525.7254	-0.0085
525.9223	-0.0124
526.1192	-0.0097
526.316	-0.0105
526.5129	0.0077
526.7097	-0.0061
526.9065	0.0067
527.1033	-0.0049
527.3	0.0004
527.4968	-0.0024
527.6935	0.0039
527.8903	0.0043
528.087	0.0078
528.2837	0.0038
528.4804	0.0043
528.677	0.0042
528.8737	-0.0058
529.0703	0.0058
529.2669	0.0101
529.4635	0.0154
529.6601	0.0095
529.8567	0.016
530.0532	0.0105
530.2498	-0.0086
530.4463	0.0062
530.6428	-0.0093
530.8393	-0.0039
531.0358	0.0002
531.2322	0.005
531.4287	-0.0016
531.6251	-0.0045
531.8215	-0.0023
532.0179	-0.0139
532.2143	0.012
532.4107	-0.0077
532.607	0.0021
532.8034	0.0086
532.9997	0.0022
533.196	0.0044
533.3923	-0.0017
533.5886	0.0069
533.7848	-0.0098
533.9811	-0.0074
534.1773	0.0005
534.3735	0.0086
534.5697	-0.0001
534.7659	0.0036
534.9621	0.01
535.1582	0.0075
535.3544	0.0054
535.5505	-0.0011
535.7466	0.0023
535.9427	-0.0107
536.1387	0.0076
536.3348	0.0102
536.5308	0.0144
536.7269	-0.0023
536.9229	0.0048
537.1189	-0.0021
537.3148	-0.0078
537.5108	0.0058
537.7068	0.0067
537.9027	0.0119
538.0986	-0.0065
538.2945	-0.0037
538.4904	-0.0044
538.6863	0.0102
538.8821	-0.0061
539.078	-0.0048
539.2738	-0.0115
539.4696	0.0019
539.6654	-0.0022
539.8611	0.0049
540.0569	-0.0072
540.2526	0.0002
540.4484	-0.0021
540.6441	-0.0001
540.8398	-0.0097
541.0355	0.011
541.2311	0.0072
541.4268	0.0032
541.6224	0.0047
541.818	-0.0042
542.0136	-0.0101
542.2092	0.012
542.4048	0.0066
542.6003	-0.0001
542.7959	0.009
542.9914	-0.0015
543.1869	0.0027
543.3824	0.0065
543.5779	0.0027
543.7734	-0.0015
543.9688	0.0034
544.1642	0.0068
544.3596	-0.004
544.555	0.0121
544.7504	0.0021
544.9458	0.0014
545.1411	-0.0021
545.3365	0.002
545.5318	-0.0021
545.7271	0.0123
545.9224	-0.0064
546.1177	0.0024
546.3129	-0.006
546.5081	-0.003
546.7034	-0.0011
546.8986	0.0085
547.0938	-0.0055
547.289	-0.0015
547.4841	0.0067
547.6793	-0.0056
547.8744	0.0052
548.0695	-0.0022
548.2646	-0.0072
548.4597	-0.0071
548.6548	0.0037
548.8498	0.0066
549.0448	0.001
549.2399	0.0068
549.4349	0.0086
549.6298	-0.0086
549.8248	0.0023
550.0198	0.0082
550.2147	-0.0027
550.4096	-0.0051
550.6045	0.0009
550.7994	0.0023
550.9943	-0.0037
551.1892	0.0041
551.384	0.0017
551.5788	0.0048
551.7737	-0.0032
551.9685	-0.0002
552.1632	0.0067
552.358	0.0028
552.5528	-0.0051
552.7475	0.0012
552.9422	0.004
553.1369	0.0022
553.3316	-0.015
553.5263	-0.0087
553.7209	0.0005
553.9156	0.0074
554.1102	-0.0048
554.3048	0.0136
554.4994	0.0046
554.694	-0.0011
554.8885	0.0108
555.0831	0.0072
555.2776	-0.0011
555.4721	-0.0131
555.6666	0.0051
555.8611	-0.005
556.0555	0.0013
556.25	0.0031
556.4444	0.0044
556.6388	-0.0066
556.8332	-0.0036
557.0276	0.0122
557.222	-0.0025
557.4163	0.0001
557.6107	-0.0005
557.805	-0.0143
557.9993	0.0076
558.1936	0.0066
558.3879	0.0061
558.5821	-0.0002
558.7764	0.0095
558.9706	0.0028
559.1648	0.0057
559.359	0.0074
559.5532	-0.0191
559.7473	0.005
559.9415	0.0048
560.1356	0.0096
560.3297	-0.0054
560.5238	0.0115
560.7179	-0.0019
560.9119	0.008
561.106	-0.0023
561.3	-0.0012
561.494	0.0058
561.688	0.0067
561.882	0.0005
562.076	0.0001
562.2699	0.0025
562.4639	0.0067
562.6578	0.0028
562.8517	0.0061
563.0456	-0.0028
563.2395	-0.0008
563.4333	-0.004
563.6272	0.0077
563.821	0.0092
564.0148	-0.0071
564.2086	0.0016
564.4024	-0.0086
564.5961	0.0039
564.7899	0.0059
564.9836	0.0042
565.1773	0.0059
565.371	0.0034
565.5647	0.0034
565.7584	0.0028
565.952	-0.0087
566.1456	0.0065
566.3393	0.0072
566.5329	-0.0055
566.7264	-0.0015
566.92	0.0001
567.1136	0.0022
567.3071	0.0026
567.5006	-0.0126
567.6941	-0
567.8876	-0.0023
568.0811	-0.0055
568.2745	-0.011
568.468	0.0029
568.6614	0.0049
568.8548	-0.0036
569.0482	0.0066
569.2416	-0.0011
569.4349	0.0002
569.6283	-0.0014
569.8216	0.0002
570.0149	0.0016
570.2082	-0.0064
570.4015	0.0042
570.5947	-0.0063
570.788	0.0018
570.9812	-0.0017
571.1744	-0.0025
571.3676	-0.0057
571.5608	-0.003
571.754	-0.0027
571.9471	0.0018
572.1402	0.0029
572.3333	-0.0007
572.5264	-0.0003
572.7195	0.004
572.9126	-0.0005
573.1057	0.003
573.2987	0.0052
573.4917	-0
573.6847	-0.0009
573.8777	0.0023
574.0707	-0.0011
574.2636	0.0013
574.4566	0.0017
574.6495	0.0047
574.8424	-0.003
575.0353	0
575.2281	0.0025
575.421	0.0004
575.6138	-0.0014
575.8067	-0.0002
575.9995	-0.0001
576.1923	0.0057
576.385	0.0001
576.5778	-0.002
576.7706	0.0025
576.9633	0.0008
577.156	-0.0018
577.3487	0.0006
577.5414	0
577.734	-0.0013
577.9267	-0.0012
578.1193	0.0058
578.3119	-0.0045
578.5045	0.0004
578.6971	-0.0035
578.8897	-0.0029
579.0822	0.0008
579.2747	-0.0041
579.4673	-0.0006
579.6598	-0.005
579.8522	0.0076
580.0447	-0.0029
580.2372	0.0043
580.4296	-0.003
580.622	0.003
580.8144	0.0014
581.0068	0.0008
581.1992	0.0038
581.3915	-0.0015
581.5839	0.0044
581.7762	0.0007
581.9685	-0.0005
582.1608	0.0004
582.353	0.0022
582.5453	0.0027
582.7375	-0.001
582.9298	0.0005
583.122	-0.0041
583.3142	0.0032
583.5063	-0.0038
583.6985	-0.0021
583.8906	0.0004
584.0827	0.0011
584.2749	-0.0014
584.4669	-0.0034
584.659	-0.0021
584.8511	-0.0001
585.0431	0.0004
585.2352	-0.0051
585.4272	0.0008
585.6192	-0.0022
585.8111	-0.0076
586.0031	-0.0016
586.195	0.0014
586.387	0.0008
586.5789	0.0023
586.7708	-0.0011
586.9627	0.0014
587.1545	-0.007
587.3464	0.0001
587.5382	-0.0027
587.73	0.0028
587.9218	0.0023
588.1136	0.0001
588.3053	0.0012
588.4971	0.0055
588.6888	0.0013
588.8805	0.0036
589.0722	-0.0002
589.2639	-0.001
589.4556	-0.0053
589.6472	0.0029
589.8389	-0.0006
590.0305	0.0013
590.2221	0.0085
590.4137	-0.0032
590.6052	-0.0007
590.7968	0.0027
590.9883	0.004
591.1798	-0.0032
591.3713	-0.0049
591.5628	0.0031
591.7543	0.0038
591.9458	-0.0002
592.1372	-0.0021
592.3286	-0.0016
592.52	-0.0037
592.7114	-0.0051
592.9028	-0.0039
593.0941	-0.0026
593.2855	0.0028
593.4768	0.0033
593.6681	0.0016
593.8594	-0.002
594.0506	0.0092
594.2419	-0.002
594.4331	-0.0046
594.6244	-0.001
594.8156	0.0038
595.0067	0.0001
595.1979	0.0003
595.3891	-0.0059
595.5802	-0.0008
595.7713	0.0035
595.9624	0.0048
596.1535	-0.0009
596.3446	-0.0008
596.5357	0.0023
596.7267	0.003
596.9177	-0.0004
597.1087	0.0015
597.2997	-0.0005
597.4907	0.0073
597.6817	-0.0008
597.8726	0.0008
598.0635	0.0001
598.2544	-0.0018
598.4453	-0.0049
598.6362	-0.0019
598.827	0.0045
599.0179	0.004
599.2087	-0.0012
599.3995	0.0017
599.5903	-0.0001
599.7811	0.0027
599.9718	-0.004
600.1626	0.0015
600.3533	-0.0024
600.544	0.0008
600.7347	0.0033
600.9254	0.0063
601.116	-0.0015
601.3067	0.0105
601.4973	0.0032
601.6879	-0.0063
601.8785	-0.0016
602.0691	0.0024
602.2596	-0.0027
602.4502	-0.0004
602.6407	0.0027
602.8312	0.0029
603.0217	0.0098
603.2122	0.0063
603.4027	-0.0044
603.5931	0.0022
603.7835	0.0005
603.9739	-0.0001
604.1643	0.001
604.3547	0.0056
604.5451	0.0037
604.7354	-0.0055
604.9257	-0.0002
605.116	0.0005
605.3063	-0.0053
605.4966	0.006
605.6869	-0.0012
605.8771	0.0034
606.0673	-0.0057
606.2575	0.0014
606.4477	0.0055
606.6379	-0.0052
606.8281	-0.0075
607.0182	0.0006
607.2083	-0.0017
607.3985	0.006
607.5885	0.004
607.7786	0.0116
607.9687	-0.0057
608.1587	0.0009
608.3488	-0.0047
608.5388	-0.0005
608.7288	-0.0068
608.9187	0.0127
609.1087	-0.0017
609.2986	0
609.4886	0.0087
609.6785	0.0068
609.8684	-0.0026
610.0582	0
610.2481	-0.003
610.4379	-0.0023
610.6278	-0.0085
610.8176	-0.0003
611.0074	-0.0069
611.1971	0.0024
611.3869	0.0009
611.5766	0.0029
611.7664	0.0078
611.9561	-0.0044
612.1458	0.0004
612.3354	0.0009
612.5251	-0.0008
612.7147	-0.0023
612.9044	-0.0034
613.094	0.0022
613.2836	-0.0009
613.4731	-0.0018
613.6627	0.0002
613.8522	-0.0045
614.0417	0.0001
614.2313	-0.0067
614.4207	-0.0017
614.6102	-0.0048
614.7997	0.0003
614.9891	0.0006
615.1785	0.0054
615.3679	-0.0018
615.5573	-0.005
615.7467	-0.0073
615.9361	-0.0086
616.1254	0.0013
616.3147	0.0024
616.504	0.0003
616.6933	0.0035
616.8826	0.005
617.0718	-0.009
617.2611	-0.0021
617.4503	-0.0019
617.6395	-0.0045
617.8287	0.0012
618.0179	0.0042
618.207	-0.0053
618.3961	0.0051
618.5853	-0.001
618.7744	0.0114
618.9634	0.0032
619.1525	-0.0033
619.3416	-0.0028
619.5306	-0.0017
619.7196	-0.0043
619.9086	0.007
620.0976	0.0011
620.2866	-0.0002
620.4755	0.0207
620.6645	-0.0023
620.8534	-0.0029
621.0423	-0.0071
621.2312	-0.0128
621.42	-0.0057
621.6089	0.008
621.7977	0.0015
621.9865	0.0024
622.1753	0.0055
622.3641	-0.0106
622.5529	-0.0183
622.7416	-0.0029
622.9303	0.0001
623.1191	-0.0026
623.3078	-0.005
623.4964	-0.0122
623.6851	0.0097
623.8737	0.0146
624.0624	-0.001
624.251	0
624.4396	-0.0018
624.6282	0.0057
624.8167	0.0011
625.0053	0.0001
625.1938	-0.0024
625.3823	-0.0045
625.5708	0.0016
625.7593	-0.0004
625.9477	-0.0021
626.1362	-0.0053
626.3246	-0.0095
626.513	0.008
626.7014	-0.0131
626.8898	0.0027
627.0781	0.0064
627.2665	0.0067
627.4548	0.0123
627.6431	-0.0037
627.8314	0.0147
628.0197	0.011
628.2079	-0.0136
628.3962	-0.0011
628.5844	-0.0041
628.7726	0.0087
628.9608	0.0006
629.1489	-0.0065
629.3371	-0.0042
629.5252	0.0158
629.7134	0.0088
629.9015	-0.0044
630.0895	-0.0074
630.2776	-0.0045
630.4657	0.0044
630.6537	-0.0008
630.8417	-0.0085
631.0297	-0.0001
631.2177	0.0032
631.4057	-0.012
631.5936	-0.0068
631.7815	0.0003
631.9695	0.0102
632.1574	0.0046
632.3452	0.0049
632.5331	-0.0108
632.7209	0.0082
632.9088	0.0016
633.0966	0.0105
633.2844	-0.0106
633.4722	0.0087
633.6599	-0.0169
633.8477	-0.0095
634.0354	0.0019
634.2231	0.0166
634.4108	-0.0058
634.5985	0.0072
634.7861	-0.0049
634.9738	-0.0068
635.1614	0.005
635.349	-0.0048
635.5366	0.0182
635.7242	0.0013
635.9117	0.016
636.0993	-0.0046
636.2868	-0.0115
636.4743	0.0065
636.6618	0.0063
636.8492	-0.0102
637.0367	-0.0132
637.2241	-0.0056
637.4115	0.0237
637.5989	0.0182
637.7863	-0.0163
637.9737	0.0031
638.161	0.0007
638.3484	0.0039
638.5357	-0.0083
638.723	-0.0021
638.9103	-0.0018
639.0975	0.0008
639.2848	0.0105
639.472	-0.011
639.6592	0.0057
639.8464	0.0198
640.0336	-0.0007
640.2208	-0.0004
640.4079	0.0225
640.595	-0.0014
640.7821	-0.0083
640.9692	0.0177
641.1563	0.0011
641.3434	0.0204
641.5304	0.0037
641.7174	0.0122
641.9044	-0.0035
642.0914	-0.0047
642.2784	0.0179
642.4653	-0.007
642.6523	0.0119
642.8392	0.0097
643.0261	-0.0031
643.213	0.0123
643.3999	-0.0029
643.5867	-0.008
643.7735	0.0132
643.9604	-0.0036
644.1472	-0.0091
644.3339	-0.0084
644.5207	-0.0203
644.7075	-0.0016
644.8942	0.0134
645.0809	-0.0169
645.2676	-0.0014
645.4543	0.0073
645.6409	-0.0126
645.8276	0.0042
646.0142	-0.0043
646.2008	0.0072
646.3874	0.0063
646.574	-0.0122
646.7605	0.0047
646.9471	0.0067
647.1336	0.0122
647.3201	0.0138
647.5066	-0.0229
647.6931	0.0092
647.8795	0.0045
648.0659	-0.0003
648.2524	0.0017
648.4388	-0.0031
648.6252	-0.0144
648.8115	0.0198
648.9979	0.0058
649.1842	-0.0184
649.3705	-0.002
649.5568	-0.0135
649.7431	0.0005
649.9294	0.0014
650.1156	-0.0007
650.3018	0.014
650.488	-0.0221
650.6742	0.0059
650.8604	-0.0133
651.0466	0.0057
651.2327	-0.0169
651.4188	-0.0061
651.6049	-0.0092
651.791	0.0192
651.9771	-0.0063
652.1632	0.0064
652.3492	0.0046
652.5352	0.006
652.7212	-0.0156
652.9072	0.0036
653.0932	0.0142
653.2791	-0.0004
653.465	-0.0058
653.651	0.0127
653.8369	0.0239
654.0227	-0.0092
654.2086	-0.0132
654.3944	-0.0063
654.5803	0.0132
654.7661	0.0011
654.9519	-0.003
655.1377	0
655.3234	0
655.5092	0
655.6949	0
655.8806	0
656.0663	0
656.2519	0
656.4376	0
656.6232	0
656.8088	0
656.9945	0
657.18	0
657.3656	0
657.5511	0
657.7367	0
657.9222	0
658.1077	0
658.2932	0
658.4786	0
658.6641	0
658.8495	0
659.0349	0
659.2203	0
659.4057	0.0218
659.591	0.0581
659.7764	-0.0084
659.9617	-0.0051
660.147	0.0056
660.3323	0.0013
660.5176	0.0016
660.7028	0.0064
660.888	-0.0025
661.0733	0.0087
661.2585	0.0237
661.4436	-0.0032
661.6288	0.0102
661.8139	0.0023
661.9991	-0.0034
662.1842	0.0036
662.3693	-0.0035
662.5544	0.0066
662.7394	0.0278
662.9245	0.0064
663.1095	0.03
663.2945	-0.0086
663.4795	0.0067
663.6644	-0.0065
663.8494	0.0331
664.0343	-0.0056
664.2193	-0.0055
664.4042	-0.0016
664.589	-0.011
664.7739	-0.0168
664.9587	-0.0171
665.1436	0.0008
665.3284	-0.0002
665.5132	0.0027
665.698	-0.0134
665.8827	-0.0249
666.0675	-0.0002
666.2522	0.012
666.4369	-0.0063
666.6216	-0.0049
666.8063	0.016
666.9909	0.0053
667.1756	0.0057
667.3602	-0.0043
667.5448	0.0297
667.7294	0.015
667.9139	-0.0286
668.0985	-0.0209
668.283	-0.0176
668.4675	0.0142
668.652	-0.0034
668.8365	-0.0234
669.0209	-0.0219
669.2054	-0.0019
669.3898	-0.0213
669.5742	0.029
669.7586	0.0054
669.943	-0.0302
670.1273	0.0067
670.3117	0.0058
670.496	0.0209
670.6803	0.0181
670.8646	0.0049
671.0488	-0.009
671.2331	-0.0057
671.4173	0.0002
671.6015	-0.0024
671.7857	-0.0008
671.9699	0.0136
672.1541	0.0014
672.3382	0.0071
672.5223	-0.0025
672.7064	-0.0074
672.8905	0.0159
673.0746	0.0135
673.2587	-0.001
673.4427	-0.005
673.6267	-0.0205
673.8107	-0.0014
673.9947	0.0171
674.1787	0.0069
674.3626	-0.0073
674.5465	0.0021
674.7304	-0.0392
674.9143	0.0221
675.0982	0.0093
675.2821	0.0152
675.4659	-0.0021
675.6497	0.0219
675.8335	-0.0042
676.0173	-0.0058
676.2011	-0.0156
676.3849	-0.0035
676.5686	0.0324
676.7523	-0.0133
676.936	-0.0031
677.1197	-0.0013
677.3034	0.0209
677.487	0.0234
677.6706	-0.0231
677.8542	0.0062
678.0378	0.0027
678.2214	-0.0106
678.405	0.0132
678.5885	0.0087
678.772	-0.0218
678.9555	0.0097
679.139	-0.0067
679.3225	-0.0055
679.5059	0.001
679.6894	-0.0086
679.8728	0.0065
680.0562	0.0025
680.2395	0.0015
680.4229	-0.0073
680.6062	0.0029
680.7896	0.013
680.9729	0.0165
681.1562	-0.0115
681.3394	0.0187
681.5227	-0.0266
681.7059	-0.0207
681.8891	0.0066
682.0723	-0.0247
682.2555	0.0176
682.4387	0.0004
682.6218	-0.0066
682.805	0.0001
682.9881	-0.008
683.1712	0.0168
683.3542	-0.0057
683.5373	0.0182
683.7203	0.0033
683.9034	0.004
684.0864	-0.0172
684.2694	0.0112
684.4523	0.0022
684.6353	-0.0064
684.8182	-0.0073
685.0011	-0.0081
685.184	-0.0098
685.3669	-0.0148
685.5498	0.0166
685.7326	0.0035
685.9154	-0.0008
686.0982	-0.001
686.281	-0.0024
686.4638	0.0072
686.6465	0.0083
686.8293	0.0017
687.012	-0.01
687.1947	0.0139
687.3774	0.018
687.56	0.0135
687.7427	0.006
687.9253	0.0173
688.1079	0.0054
688.2905	0.0115
688.4731	0.0151
688.6556	0.0068
688.8382	0.0129
689.0207	0.0046
689.2032	-0.0251
689.3857	-0.0069
689.5681	-0.0165
689.7506	-0.002
689.933	-0.0034
690.1154	-0.01
690.2978	-0.0054
690.4802	-0.0125
690.6626	0.0034
690.8449	-0.0167
691.0272	-0.0089
691.2095	0.0095
691.3918	0.0005
691.5741	0.0012
691.7563	0.0137
691.9386	0.0054
692.1208	-0.0007
692.303	0.0179
692.4852	0.0075
692.6673	-0.0235
692.8495	-0.0086
693.0316	-0.0035
693.2137	0.0221
693.3958	0.011
693.5778	-0.0256
693.7599	-0.0349
693.9419	0.0217
694.1239	-0.0024
694.3059	-0.0143
694.4879	-0.0399
694.6699	0.0161
694.8518	0.005
695.0337	0.0081
695.2157	0.0085
695.3975	0.001
695.5794	-0.0184
695.7613	0.019
695.9431	-0.0142
696.1249	0.0074
696.3067	0.0077
696.4885	-0.009
696.6703	0.0042
696.852	-0.0031
697.0337	-0.0127
697.2154	0.0021
697.3971	0.0148
697.5788	0.0104
697.7605	0.0123
697.9421	-0.0028
698.1237	0.0106
698.3053	0.0003
698.4869	0.0053
698.6685	-0.002
698.85	0.013
699.0315	-0.0018
699.213	0.0382
699.3945	0.0065
699.576	-0.0079
699.7575	-0.0061
699.9389	-0.0128
700.1203	-0.0081
700.3017	-0.0214
700.4831	0.0005
700.6645	0.0025
700.8458	0.0131
701.0271	-0.0015
701.2084	-0.0207
701.3897	0.0169
701.571	-0.0018
701.7523	-0.0101
701.9335	0.0275
702.1147	-0.0199
702.2959	0.0178
702.4771	0.0082
702.6583	0.0001
702.8394	-0.0177
703.0205	0.0004
703.2016	0.0015
703.3827	0.0057
703.5638	-0.0091
703.7449	-0.0208
703.9259	0.0069
704.1069	0.0232
704.2879	0.0275
704.4689	0.0001
704.6499	-0.0248
704.8308	-0.0197
705.0117	-0.0339
705.1927	-0.006
705.3735	0.003
705.5544	0.0265
705.7353	0.0177
705.9161	0.0162
706.0969	-0.0052
706.2777	-0.0002
706.4585	-0.0057
706.6393	0.0172
706.82	-0.0322
707.0007	0.0007
707.1815	0.0158
707.3621	0.0042
707.5428	0.0091
707.7235	0.0253
707.9041	-0.0269
708.0847	-0.0005
708.2653	-0.0168
708.4459	0.0056
708.6265	0.014
708.807	0.0218
708.9875	-0.0105
709.168	-0.0063
709.3485	0.0208
709.529	-0.002
709.7095	-0.0102
709.8899	0.0288
710.0703	-0.0028
710.2507	-0.0022
710.4311	0.0186
710.6115	0.0172
710.7918	-0.0107
710.9721	0.0174
711.1524	-0.004
711.3327	-0.0063
711.513	-0.0023
711.6932	-0.0267
711.8735	0.0141
712.0537	-0.0052
712.2339	0.0102
712.4141	0.0116
712.5942	-0.0006
712.7744	0.0099
712.9545	-0.0022
713.1346	-0.0057
713.3147	0.0135
713.4947	0.0004
713.6748	-0.0032
713.8548	0.0058
714.0348	0.0181
714.2148	-0.0008
714.3948	0.0223
714.5748	-0.0139
714.7547	-0.0092
714.9346	0.0163
715.1145	0.0035
715.2944	-0.0121
715.4743	-0.0051
715.6541	-0.0008
715.834	0.0098
716.0138	0.0093
716.1936	0.013
716.3733	-0.0177
716.5531	0.0193
716.7328	-0.0351
716.9126	-0.0352
717.0923	0.0022
717.2719	-0.0046
717.4516	-0.0149
717.6312	-0.0089
717.8109	0.0114
717.9905	0.0239
718.1701	-0.0259
718.3496	0.0009
718.5292	-0.0268
718.7087	0.0109
718.8882	0.0327
719.0677	0.0048
719.2472	0.015
719.4267	-0.0099
719.6061	0.0052
719.7856	-0.0076
719.965	0.0085
720.1443	-0.0136
720.3237	0.0082
720.5031	0.0046
720.6824	0.0013
720.8617	-0.0074
721.041	0.0071
721.2203	0.0057
721.3995	0.0049
721.5788	-0.0007
721.758	-0.0016
721.9372	0.0017
722.1164	0.0142
722.2956	-0.0034
722.4747	0.0023
722.6538	-0.017
722.8329	-0.0232
723.012	0.0117
723.1911	0.0164
723.3702	-0.0116
723.5492	0.0091
723.7282	-0.0046
723.9072	-0.0179
724.0862	-0.0227
724.2652	-0.0085
724.4441	0.005
724.623	0.0056
724.8019	0.0108
724.9808	0.004
725.1597	-0.0017
725.3385	-0.0177
725.5174	0.0347
725.6962	0.0157
725.875	0.0042
726.0538	-0.0108
726.2325	0.0015
726.4112	0.0076
726.59	0.005
726.7687	0.0058
726.9474	0.0086
727.126	0.0076
727.3047	-0.0103
727.4833	0.0431
727.6619	0.0239
727.8405	0.0257
728.0191	-0.0311
728.1976	-0.0292
728.3762	-0.0225
728.5547	0.0129
728.7332	0.0051
728.9116	-0.044
729.0901	0.0079
729.2686	0.0004
729.447	-0.0121
729.6254	0.0119
729.8038	-0.0038
729.9821	0.0031
730.1605	-0.018
730.3388	-0.0061
730.5171	-0.0057
730.6954	0.0101
730.8737	0.0143
731.0519	0.0105
731.2302	-0.0218
731.4084	-0.0157
731.5866	-0.0128
731.7648	-0.0083
731.9429	-0.0084
732.1211	-0.0152
732.2992	-0.002
732.4773	0.0103
732.6554	-0.0044
732.8335	0.0198
733.0115	0.0034
733.1896	-0.0072
733.3676	0.0098
733.5456	0.0066
733.7235	0.0092
733.9015	0.0092
734.0794	0.0083
734.2574	0.0081
734.4353	-0.0062
734.6131	0.0001
734.791	0.0333
734.9689	0.0177
735.1467	0.0003
735.3245	-0.001
735.5023	0.0045
735.68	-0.0147
735.8578	-0.0172
736.0355	-0.0075
736.2132	0.0017
736.3909	-0.0171
736.5686	-0.0029
736.7463	-0.0036
736.9239	-0.0062
737.1015	-0.0021
737.2791	-0.0191
737.4567	0.0029
737.6343	-0.0021
737.8118	-0.0054
737.9894	0.0054
738.1669	0.0008
738.3444	-0.0049
738.5218	0.0225
738.6993	-0.0083
738.8767	0.0071
739.0541	0.0236
739.2315	0.0099
739.4089	-0.0125
739.5863	0.0194
739.7636	-0.005
739.9409	-0.0014
740.1182	0.0081
740.2955	-0.0477
740.4728	0.0309
740.65	-0.033
740.8272	-0.0042
741.0044	0.0032
741.1816	0.0107
741.3588	0.0115
741.5359	0.0046
741.7131	0.0202
741.8902	0.0005
742.0673	0.0256
742.2444	0.0038
742.4214	0.0181
742.5985	-0.0036
742.7755	-0.0217
742.9525	0.0491
743.1295	-0.019
743.3064	0.0259
743.4834	-0.0049
743.6603	-0.0223
743.8372	0.0064
744.0141	0.0237
744.191	0.0233
744.3678	0.0228
744.5446	0.0191
744.7215	-0.0003
744.8982	0.024
745.075	0.0063
745.2518	0.0127
745.4285	0.0025
745.6052	-0.0026
745.7819	-0.0237
745.9586	-0.0066
746.1353	-0.0054
746.3119	-0.0261
746.4885	-0.0093
746.6651	-0.0292
746.8417	0.001
747.0183	-0.0138
747.1948	-0.0101
747.3714	0.0116
747.5479	-0.0207
747.7244	-0.0339
747.9008	0.0147
748.0773	0.0029
748.2537	0.0241
748.4301	0.0453
748.6065	-0.0089
748.7829	-0.0118
748.9593	0.0079
749.1356	0.0012
749.3119	0.011
749.4882	0.0036
749.6645	-0.0092
749.8408	-0.0082
750.017	0.0049
750.1933	0.0185
750.3695	0.0187
750.5457	-0.0196
750.7218	-0.0015
750.898	-0.0091
751.0741	0.001
751.2502	0.0122
751.4263	-0.007
751.6024	0.0196
751.7784	-0.0494
751.9545	-0.0208
752.1305	0.0171
752.3065	0.0249
752.4825	-0.0205
752.6584	-0.0112
752.8344	-0.0057
753.0103	-0.0325
753.1862	-0.0162
753.3621	-0.0175
753.5379	-0.015
753.7138	-0.0152
753.8896	-0.002
754.0654	-0.0168
754.2412	0.0277
754.417	-0.0021
754.5927	-0.0045
754.7685	-0.003
754.9442	0.0138
755.1199	0.004
755.2956	0.004
755.4712	-0.0202
755.6469	-0.0079
755.8225	0.0032
755.9981	-0.0028
756.1736	0.0189
756.3492	-0.0022
756.5248	-0.0286
756.7003	-0.0019
756.8758	-0.0151
757.0513	0.0005
757.2267	-0.0026
757.4022	-0.0157
757.5776	-0.0182
757.753	0.0044
757.9284	0.0008
758.1038	0.011
758.2791	-0.0034
758.4545	-0.0178
758.6298	-0.0204
758.8051	-0.001
758.9803	-0.0137
759.1556	-0.0126
759.3308	0.0012
759.506	0.0152
759.6812	-0.0109
759.8564	-0.0227
760.0316	-0.0127
760.2067	-0.0125
760.3819	-0.0097
760.557	0.0102
760.732	0.0303
760.9071	-0.0168
761.0821	-0.0112
761.2572	-0.0027
761.4322	-0.0192
761.6072	0.0122
761.7821	0.0121
761.9571	-0.0103
762.132	0.0029
762.3069	-0.0101
762.4818	0.0029
762.6567	0.0287
762.8316	-0.0135
763.0064	-0.023
763.1812	-0.0143
763.356	-0.0027
763.5308	-0.0242
763.7055	0.0274
763.8803	0.0027
764.055	0.0048
764.2297	-0.0109
764.4044	0.0023
764.579	-0.0034
764.7537	-0.0141
764.9283	-0.0243
765.1029	0.0071
765.2775	-0.0317
765.4521	0.0134
765.6266	-0.0252
765.8011	-0.0246
765.9756	0.0041
766.1501	0.0402
766.3246	0.0044
766.4991	-0.0147
766.6735	-0.0058
766.8479	-0.0138
767.0223	0.0118
767.1967	-0.0106
767.371	-0.0004
767.5454	0.0189
767.7197	-0.0108
767.894	-0.014
768.0683	-0.0124
768.2425	-0.0031
768.4168	0.0309
768.591	-0.0031
768.7652	0.0035
768.9394	0.0073
769.1135	0.0153
769.2877	0.0118
769.4618	0.0285
769.6359	0.0057
769.81	-0.0055
769.984	-0.0048
770.1581	0.0119
770.3321	-0.0215
770.5061	0.0112
770.6801	0.0196
770.8541	0.0099
771.028	0.0114
771.202	-0.0304
771.3759	-0.0289
771.5498	-0.0099
771.7236	-0.0105
771.8975	-0.0341
772.0713	-0.0008
772.2451	0.0106
772.4189	-0.0059
772.5927	-0.0358
772.7665	0.0296
772.9402	0.0115
773.1139	-0.0216
773.2876	0.0012
773.4613	0.0091
773.635	-0.0089
773.8086	0.0008
773.9822	-0.0099
774.1558	0.0151
774.3294	-0.0301
774.503	0.02
774.6765	0.014
774.8501	0.0164
775.0236	0.0135
775.1971	-0.013
775.3705	-0.0109
775.544	-0.0068
775.7174	-0.014
775.8908	0.046
776.0642	0.0036
776.2376	-0.0381
776.4109	0.0407
776.5843	-0.0242
776.7576	0.008
776.9309	0.0583
777.1041	-0.0267
777.2774	-0.0178
777.4506	0.0002
777.6238	-0.0023
777.797	-0.0282
777.9702	0.0481
778.1434	0.0296
778.3165	0.01
778.4896	-0.0179
778.6627	0.0291
778.8358	-0.0127
779.0089	0.02
779.1819	-0.001
779.3549	0.0151
779.5279	-0.017
779.7009	-0.0147
779.8739	-0.042
780.0468	0.0093
780.2197	-0.0204
780.3926	-0.0051
780.5655	-0.0048
780.7384	0.0291
780.9112	0.0248
781.0841	-0.0197
781.2569	-0.0158
781.4297	0.0297
781.6024	0.0155
781.7752	-0.0141
781.9479	-0.0195
782.1206	0.0115
782.2933	0.0025
782.466	-0.0084
782.6386	-0.0166
782.8113	0.0002
782.9839	0.0094
783.1565	-0.0277
783.329	-0.0067
783.5016	-0.0384
783.6741	-0.006
783.8466	-0.0237
784.0191	0.0225
784.1916	-0.0029
784.3641	-0.0566
784.5365	0.016
784.7089	-0.0179
784.8813	0.0129
785.0537	-0.0085
785.2261	-0.0261
785.3984	-0.0296
785.5707	0.016
785.743	-0.0392
785.9153	-0.0012
786.0876	-0.0193
786.2598	0.0127
786.432	-0.0052
786.6042	0.0279
786.7764	0.0186
786.9486	0.0207
787.1207	0.0211
787.2928	-0.0246
787.4649	-0.0062
787.637	0.0013
787.8091	-0.0354
787.9811	0.0228
788.1532	0.0213
788.3252	-0.0232
788.4972	-0.0188
788.6691	0.039
788.8411	-0.0016
789.013	0.019
789.1849	-0.0239
789.3568	0.0251
789.5287	-0.0164
789.7005	0.0242
789.8723	-0.0458
790.0442	-0.0624
790.2159	-0.0121
790.3877	0.0049
790.5595	0.0398
790.7312	-0.0617
790.9029	-0.0157
791.0746	-0.0196
791.2463	0.0228
791.4179	-0.0595
791.5896	-0.0358
791.7612	-0.0313
791.9328	0.0254
792.1044	-0.0398
792.2759	-0.0225
792.4474	-0.0428
792.619	0.0557
792.7905	-0.0465
792.9619	0.0129
793.1334	-0.03
793.3048	0.0012
793.4762	-0.0684
793.6476	-0.0125
793.819	-0.0388
793.9904	0.015
794.1617	-0.0276
794.333	-0.0005
794.5043	-0.0446
794.6756	0.0464
794.8469	0.0169
795.0181	-0.0262
795.1893	-0.0176
795.3605	-0.0135
795.5317	0.0158
795.7029	0.0059
795.874	-0.0256
796.0452	-0.016
796.2163	0.0144
796.3873	0.061
796.5584	0.0101
796.7294	-0.0315
796.9005	-0.1161
797.0715	-0.0054
797.2425	0.0205
797.4134	-0.0031
797.5844	0.0269
797.7553	0.0118
797.9262	-0.0437
798.0971	-0.086
798.2679	-0.0057
798.4388	-0.0945
798.6096	-0.0213
798.7804	0.0282
798.9512	0.0063
799.122	0.046
799.2927	-0.1062
799.4635	0.0556
799.6342	-0.0437
799.8049	-0.0035
799.9755	0.0357
800.1462	0.0702
800.3168	-0.0324
800.4874	0.0264
800.658	0.0541
800.8286	-0.0098
800.9991	0.0775
801.1696	-0.0011
801.3402	-0.1053
801.5106	-0.0597
801.6811	-0.0294
801.8516	-0.053
802.022	-0.0056
802.1924	-0.1366
802.3628	-0.0087
802.5332	0.0318
802.7035	-0.0393
802.8739	0.0173
803.0442	-0.0065
803.2145	-0.0607
803.3847	-0.0986
803.555	-0.0168
803.7252	-0.0468
803.8954	0.0573
804.0656	0.0157
804.2358	0.0105
804.4059	0.0448
804.5761	0.0057
804.7462	0.0964
804.9163	-0.0882
805.0864	-0.0181
805.2564	-0.0281
805.4264	0.0743
805.5965	0.0263
805.7665	0.1209
805.9364	-0.053
806.1064	-0.0894
806.2763	0.019
806.4462	0.0445
806.6161	0.0391
806.786	0.0339
806.9559	0.0552
807.1257	-0.0659
807.2955	0.0492
807.4653	-0.0024
807.6351	-0.0497
807.8048	-0.0375
807.9746	-0.0407
808.1443	0.0307
808.314	0.0917
808.4837	-0.1187
808.6533	0.0138
808.8229	-0.0535
808.9926	0.0157
809.1622	-0.0035
809.3317	-0.033
809.5013	0.0439
809.6708	0.1003
809.8403	-0.0168
810.0098	0.1728
810.1793	0.0483
810.3488	0.0551
810.5182	0.0244
810.6876	0.0499
810.857	0.0289
811.0264	-0.0931
811.1958	-0.1184
811.3651	-0.0596
811.5344	-0.0043
811.7037	-0.0492
811.873	0.1418
812.0422	-0.0064
812.2115	0.1171
812.3807	0.038
812.5499	0.0029
812.7191	-0.0879
812.8882	-0.0514
813.0574	-0.1133
813.2265	-0.0517
813.3956	-0.0554
813.5646	0.0131
813.7337	-0.171
813.9027	0.0064
814.0718	-0.0609
814.2407	-0.0707
814.4097	0.0201
814.5787	0.0018
814.7476	-0.0067
814.9165	0.0386
815.0854	0.0547
815.2543	-0.05
815.4232	-0.0393
815.592	0.1053
815.7608	0.0567
815.9296	-0.0128
816.0984	-0.0028
816.2671	-0.1397
816.4359	0.1601
816.6046	0.0205
816.7733	-0.1031
816.942	0.1217
817.1106	-0.2175
817.2793	0.0215
817.4479	-0.0266
817.6165	-0.0825
817.785	0.0508
817.9536	0.0481
818.1221	-0.0168
818.2906	0.132
818.4591	0.0639
818.6276	-0.021
818.7961	0.0555
818.9645	0.0033
819.1329	0.1526
819.3013	-0.0223
819.4697	0.0837
819.638	0.1725
819.8064	0.0268
819.9747	-0.0192
820.143	-0.0126
820.3113	0.0939
820.4795	-0.0603
820.6477	0.0371
820.816	-0.017
820.9842	-0.156
821.1523	0.2634
821.3205	-0.0359
821.4886	-0.037
821.6567	0.0309
821.8248	0.0711
821.9929	-0.0263
822.1609	0.0008
822.329	0.1034
822.497	-0.0662
822.665	0.0667
822.833	-0.0333
823.0009	-0.1943
823.1688	-0.1322
823.3367	-0.2346
823.5046	0.0915
823.6725	0.0788
823.8404	0.0806
824.0082	-0.0639
824.176	0.1996
824.3438	0.0467
824.5116	0.0328
824.6793	0.0266
824.847	-0.1277
825.0147	0.0412
825.1824	-0.0922
825.3501	0.2441
825.5177	-0.0188
825.6854	0.1218
825.853	-0.0062
826.0206	0.163
826.1881	-0.0894
826.3557	0.1998
826.5232	0.0782
826.6907	0.0608
826.8582	-0.0631
827.0257	-0.0966
827.1931	0.1629
827.3605	-0.0072
827.528	0.243
827.6953	0.0764
827.8627	0.064
828.03	0.109
828.1974	-0.1819
828.3647	0.0962
828.532	0.0667
828.6992	0.1489
828.8665	0.0152
829.0337	-0.012
829.2009	0.1645
829.3681	0.1591
829.5352	0.243
829.7024	-0.0429
829.8695	-0.1507
830.0366	0.3321
830.2037	0.1187
830.3707	0.135
830.5378	0.1487
830.7048	-0.2397
830.8718	-0.0383
831.0388	0.1084
831.2057	-0.3113
831.3727	0.142
831.5396	-0.1692
831.7065	0.1686
831.8734	-0.5481
832.0402	-0.0107
832.2071	-0.0216
832.3739	-0
832.5407	-0
832.7075	0.0639
832.8742	0.1144
833.041	0.1672
833.2077	0.3132
833.3744	-0.14
833.541	-0.1786
833.7077	0.1371
833.8743	-0.1003
834.0409	-0.1505
834.2075	-0.0152
834.3741	-0.0524
834.5407	-0.3446
834.7072	-0.0187
834.8737	0.3651
835.0402	-0.4316
835.2067	0.2062
835.3731	0.258
835.5395	0.0486
835.706	-0.3519
835.8723	0.1547
836.0387	0.0986
836.2051	-0.0454
836.3714	-0.0076
836.5377	0.0028
836.704	-0.0241
836.8703	-0.1348
837.0365	0.4309
837.2027	-0.4547
837.3689	0.0018
837.5351	-0.2157
837.7013	0.4141
837.8674	-0.4508
838.0335	-0.0755
838.1997	0.5422
838.3657	-0
838.5318	-0.7368
838.6978	-0
838.8639	-0.0267
839.0299	0.2938
839.1958	0.0459
839.3618	0.3307
839.5277	-0.2041
839.6937	-0.2734
839.8596	-0.1716
840.0254	0.1533
840.1913	0.6165
840.3571	-0.1147
840.523	0.0375
840.6888	0.0293
840.8545	-0.1613
841.0203	0.0676
841.186	-0.0296
841.3517	0.175
841.5174	0.1728
841.6831	0.2419
841.8488	0.2414
842.0144	0.0651
842.18	-0.0851
842.3456	0.0318
842.5112	0.4831
842.6767	-0.0886
842.8422	0.7703
843.0077	0.1017
843.1732	-0.4156
843.3387	1.0837
843.5042	-0
843.6696	-0.2403
843.835	0.1938
844.0004	-0.0112
844.1657	-0
844.3311	-0.3432
844.4964	-0.0294
844.6617	0.8893
844.827	1.241
844.9923	0.1216
845.1575	-0.9224
845.3227	-0.1222
845.4879	0.1371
845.6531	-0.1557
845.8183	0.142
845.9834	-0.5307
846.1485	-0.056
846.3136	0.02
846.4787	-0
846.6438	0.0563
846.8088	-0.8573
846.9738	0.004
847.1388	0.0016
847.3038	-0.0564
847.4687	-1.117
847.6337	0.4599
847.7986	0.3993
847.9635	0.5297
848.1284	-0.314
848.2932	-0.0891
848.458	0.0419
848.6228	-0
848.7876	14.1484
848.9524	-0.1021
849.1172	0.1237
849.2819	-0
849.4466	-0.0138
849.6113	-0.2635
849.7759	-0
849.9406	-0.1281
850.1052	-0.4219
850.2698	-1.4942
850.4344	0.153
850.599	13.9352
850.7635	-0.1334
850.928	0.2073
851.0925	-0.1811
851.257	-0
851.4215	0.2175
851.5859	-0.0724
851.7503	-0
851.9147	-0
852.0791	0.0486
852.2434	-0.0075
852.4078	0.6284
852.5721	0.8722
852.7364	0.1547
852.9007	0.094
853.0649	0.0396
853.2291	0.7293
853.3934	13.9984
853.5575	-0.1688
853.7217	-0.3822
853.8859	-0
854.05	-0.2341
854.2141	0.1101
854.3782	0.1539
854.5423	-0.0492
854.7063	-0.2356
854.8703	0.3557
855.0343	0.0534
855.1983	-0.0185
855.3623	0.303
855.5262	-0.1829
855.6901	0.6105
855.854	0.0733
856.0179	-0
856.1818	-0.426
856.3456	1.6556
856.5094	-0.1684
856.6732	-0.5199
856.837	0.1895
857.0008	0.2052
857.1645	-0
857.3282	-0.0742
857.4919	0.0565
857.6556	0.3339
857.8192	-0.3775
857.9828	-0.4588
858.1465	-0
858.31	-0
858.4736	0.2465
858.6372	-0.0166
858.8007	-1.3199
858.9642	0.6543
859.1277	-0
859.2911	0.0611
859.4546	-0.2768
859.618	-0.265
859.7814	-0
859.9448	0.2145
860.1081	-0
860.2715	0.1481
860.4348	0.0848
860.5981	-0.3623
860.7614	-0
860.9246	0.0197
861.0879	-0.2775
861.2511	-0
861.4143	0.07
861.5774	-0
861.7406	-0.2711
861.9037	0.8603
862.0668	0.0134
862.2299	-0
862.393	-0
862.556	-0
862.7191	0.261
862.8821	-0.101
863.0451	0.1896
863.208	-0.3375
863.371	0.2573
863.5339	-0.1318
863.6968	-0.6021
863.8597	-0
864.0225	-0
864.1854	-0.0068
864.3482	0.1235
864.511	-0.2564
864.6737	13.6589
864.8365	0.2464
864.9992	-0.1447
865.1619	0.3386
865.3246	-0
865.4873	-0
865.65	-0
865.8126	-0.0291
865.9752	-0.2967
866.1378	-0.8209
866.3004	0.8184
866.4629	-0.3346
866.6254	-0
866.7879	0.4477
866.9504	-0
867.1129	0.1279
867.2753	-0.2331
867.4377	0.5659
867.6001	0.1257
867.7625	0.0386
867.9249	0.0848
868.0872	-0.1679
868.2495	-0
868.4118	-0.295
868.5741	0.0714
868.7363	0.9918
868.8986	-0.4737
869.0608	-0
869.223	-0.076
869.3851	0.1868
869.5473	-1.4331
869.7094	-0
869.8715	0.641
870.0336	-0.0444
870.1957	-0.4058
870.3577	-0.4006
870.5197	0.9754
870.6817	-0
870.8437	-0
871.0057	-0
871.1676	0.1586
871.3295	0.8985
871.4914	-0
871.6533	-0.0339
871.8151	-0.5575
871.977	-0
872.1388	-0.3332
872.3006	-0.0518
872.4623	0.188
872.6241	-2.1703
872.7858	0.1903
872.9475	0.3274
873.1092	0.7239
873.2709	0.0199
873.4325	-0
873.5941	-0.6642
873.7557	-0.426
873.9173	-0.9157
874.0789	0.6421
874.2404	-0.1929
874.4019	-0.0896
874.5634	-0.0991
874.7249	0.2061
874.8863	-0.5765
875.0478	0.1266
875.2092	-0
875.3706	0.0403
875.5319	-0
875.6933	-0
875.8546	-0.2276
876.0159	-0.0318
876.1772	-0
876.3385	-0.6021
876.4997	-0.3549
876.6609	-0
876.8221	0.0168
876.9833	-0.1301
877.1445	0.1099
877.3056	14.0558
877.4667	-0.8573
877.6278	-0
877.7889	0.3694
877.9499	-0.6102
878.111	-0.0194
878.272	-0
878.433	0.1538
878.5939	-0.1349
878.7549	-0.8062
878.9158	-0
879.0767	-0
879.2376	-0.028
879.3984	-0
879.5593	-0.0158
879.7201	0.0308
879.8809	-0
880.0417	0.1645
880.2024	0.0339
880.3632	-0.221
880.5239	0.0045
880.6846	-0
880.8452	0.243
881.0059	-0
881.1665	0.1961
881.3271	0.1656
881.4877	0.8837
881.6483	-0.8239
881.8088	-0.3248
881.9693	-0
882.1298	-0
882.2903	-0
