Data from D4ACN5uM480nmA_Absorbance_12-08-01-030.txt Node
Date: Fri Feb 21 12:08:01 GMT 2025
User: LASERRRRR
Spectrometer: FLMT03099
Trigger mode: 0
Integration Time (sec): 1.500000E-2
Scans to average: 1
Electric dark correction enabled: true
Nonlinearity correction enabled: false
Boxcar width: 0
XAxis mode: Wavelengths
Number of Pixels in Spectrum: 3648
>>>>>Begin Spectral Data<<<<<
179.3399	-0
179.5586	-0
179.7771	-0
179.9957	0.0667
180.2143	-0.3846
180.4329	-0
180.6514	-0
180.8699	-0.1673
181.0885	0.532
181.307	-0
181.5255	0.1628
181.744	-0
181.9625	-0.2468
182.181	0.6102
182.3994	-0
182.6179	-0
182.8363	0.4332
183.0547	-0
183.2732	0.1076
183.4916	0.431
183.71	0.1904
183.9284	0.3554
184.1467	-0
184.3651	0.5303
184.5835	0.0427
184.8018	0.279
185.0201	0.1719
185.2385	0.171
185.4568	0.2612
185.6751	0.2031
185.8934	0.4779
186.1117	0.1012
186.3299	0.1572
186.5482	0.2586
186.7664	0.1495
186.9847	0.3413
187.2029	0.3243
187.4211	0.3529
187.6393	0.3062
187.8575	0.6986
188.0757	0.5314
188.2939	0.2212
188.512	0.2604
188.7302	-0.0185
188.9483	0.1267
189.1665	1.3158
189.3846	0.3747
189.6027	0.1215
189.8208	0.4349
190.0389	0.3091
190.257	0.1739
190.475	0.1769
190.6931	0.4718
190.9111	0.8272
191.1292	0.3354
191.3472	0.3178
191.5652	0.22
191.7832	0.2413
192.0012	0.3188
192.2192	0.2119
192.4371	0.2595
192.6551	0.4256
192.873	0.2527
193.091	0.3712
193.3089	0.2271
193.5268	0.4447
193.7447	0.3658
193.9626	0.3514
194.1805	0.451
194.3984	0.5355
194.6162	0.4732
194.8341	0.7184
195.0519	0.4636
195.2697	0.6869
195.4875	0.7773
195.7054	0.4538
195.9231	0.5405
196.1409	0.5371
196.3587	0.4773
196.5765	0.5226
196.7942	0.6715
197.012	0.5684
197.2297	0.6025
197.4474	0.6691
197.6651	0.5928
197.8828	0.7141
198.1005	0.6796
198.3182	0.6859
198.5358	0.495
198.7535	0.7154
198.9711	0.6809
199.1888	0.6423
199.4064	0.5514
199.624	0.6427
199.8416	0.5598
200.0592	0.7115
200.2767	0.5751
200.4943	0.7094
200.7119	0.5667
200.9294	0.5637
201.1469	0.6052
201.3645	0.6715
201.582	0.5251
201.7995	0.6297
202.017	0.5879
202.2344	0.5684
202.4519	0.6005
202.6694	0.5891
202.8868	0.5652
203.1042	0.5214
203.3217	0.5137
203.5391	0.5272
203.7565	0.4863
203.9739	0.5199
204.1913	0.5253
204.4086	0.5268
204.626	0.4872
204.8433	0.5078
205.0607	0.5312
205.278	0.5343
205.4953	0.472
205.7126	0.5032
205.9299	0.4326
206.1472	0.4443
206.3644	0.4836
206.5817	0.4754
206.7989	0.4871
207.0162	0.3932
207.2334	0.4339
207.4506	0.4329
207.6678	0.4286
207.885	0.4356
208.1022	0.4155
208.3194	0.4486
208.5365	0.4649
208.7537	0.4389
208.9708	0.4618
209.1879	0.4072
209.405	0.4284
209.6222	0.4112
209.8392	0.4135
210.0563	0.4112
210.2734	0.398
210.4905	0.4272
210.7075	0.4484
210.9245	0.4071
211.1416	0.3977
211.3586	0.4037
211.5756	0.4075
211.7926	0.3935
212.0096	0.402
212.2265	0.3934
212.4435	0.4403
212.6604	0.4069
212.8774	0.3984
213.0943	0.416
213.3112	0.4076
213.5281	0.4161
213.745	0.3995
213.9619	0.4045
214.1788	0.4097
214.3956	0.4183
214.6125	0.4131
214.8293	0.4067
215.0461	0.3959
215.2629	0.3958
215.4798	0.3831
215.6965	0.383
215.9133	0.3982
216.1301	0.4085
216.3469	0.395
216.5636	0.413
216.7803	0.4088
216.9971	0.4079
217.2138	0.3947
217.4305	0.4173
217.6472	0.4242
217.8639	0.3896
218.0805	0.4177
218.2972	0.4118
218.5138	0.4319
218.7305	0.3983
218.9471	0.4215
219.1637	0.4149
219.3803	0.431
219.5969	0.4224
219.8135	0.427
220.0301	0.411
220.2466	0.4169
220.4632	0.4281
220.6797	0.4319
220.8962	0.4273
221.1127	0.4346
221.3292	0.4457
221.5457	0.44
221.7622	0.4366
221.9787	0.444
222.1951	0.4364
222.4116	0.4425
222.628	0.4478
222.8444	0.4594
223.0608	0.4417
223.2772	0.4393
223.4936	0.4329
223.71	0.4446
223.9264	0.4508
224.1427	0.4503
224.3591	0.466
224.5754	0.449
224.7917	0.4707
225.008	0.4582
225.2243	0.4597
225.4406	0.4639
225.6569	0.4702
225.8732	0.4571
226.0894	0.4596
226.3057	0.4641
226.5219	0.4789
226.7381	0.4711
226.9543	0.4628
227.1705	0.47
227.3867	0.4777
227.6029	0.4813
227.8191	0.471
228.0352	0.4982
228.2513	0.4968
228.4675	0.488
228.6836	0.4905
228.8997	0.5099
229.1158	0.4872
229.3319	0.5018
229.548	0.4915
229.764	0.4985
229.9801	0.5149
230.1961	0.5066
230.4121	0.5057
230.6282	0.5124
230.8442	0.5212
231.0602	0.5182
231.2761	0.5241
231.4921	0.5023
231.7081	0.5157
231.924	0.5208
232.14	0.5316
232.3559	0.5282
232.5718	0.5256
232.7877	0.5223
233.0036	0.5161
233.2195	0.5289
233.4353	0.534
233.6512	0.5333
233.867	0.5382
234.0829	0.5191
234.2987	0.5383
234.5145	0.544
234.7303	0.5388
234.9461	0.5334
235.1619	0.5335
235.3776	0.5265
235.5934	0.5368
235.8091	0.5264
236.0249	0.5226
236.2406	0.5315
236.4563	0.55
236.672	0.5376
236.8877	0.5406
237.1034	0.5366
237.319	0.5476
237.5347	0.5239
237.7503	0.5411
237.966	0.5396
238.1816	0.5219
238.3972	0.5514
238.6128	0.5343
238.8284	0.525
239.0439	0.5349
239.2595	0.5229
239.475	0.5294
239.6906	0.5317
239.9061	0.5382
240.1216	0.5291
240.3371	0.5199
240.5526	0.5114
240.7681	0.5286
240.9836	0.5154
241.199	0.5084
241.4145	0.501
241.6299	0.5067
241.8453	0.4947
242.0607	0.4847
242.2761	0.4845
242.4915	0.4701
242.7069	0.4601
242.9223	0.459
243.1376	0.466
243.353	0.4495
243.5683	0.4353
243.7836	0.4296
243.9989	0.4224
244.2142	0.4101
244.4295	0.4036
244.6448	0.3952
244.86	0.3999
245.0753	0.3797
245.2905	0.3808
245.5057	0.3692
245.721	0.3662
245.9362	0.3598
246.1514	0.3361
246.3665	0.3432
246.5817	0.3398
246.7969	0.3243
247.012	0.3239
247.2271	0.3071
247.4423	0.3041
247.6574	0.3114
247.8725	0.298
248.0876	0.292
248.3026	0.2881
248.5177	0.2812
248.7328	0.2847
248.9478	0.2827
249.1628	0.2673
249.3779	0.267
249.5929	0.2634
249.8079	0.253
250.0228	0.247
250.2378	0.2517
250.4528	0.2457
250.6677	0.2439
250.8827	0.2422
251.0976	0.2425
251.3125	0.2375
251.5274	0.2322
251.7423	0.2291
251.9572	0.2206
252.172	0.2223
252.3869	0.2232
252.6017	0.2149
252.8166	0.2173
253.0314	0.2178
253.2462	0.2127
253.461	0.2184
253.6758	0.2047
253.8906	0.2061
254.1053	0.2032
254.3201	0.2042
254.5348	0.2004
254.7496	0.2083
254.9643	0.2081
255.179	0.1978
255.3937	0.2028
255.6083	0.1964
255.823	0.1996
256.0377	0.195
256.2523	0.2007
256.467	0.1979
256.6816	0.1991
256.8962	0.1883
257.1108	0.1913
257.3254	0.1924
257.54	0.1953
257.7545	0.1945
257.9691	0.1931
258.1836	0.1921
258.3981	0.189
258.6127	0.1819
258.8272	0.1917
259.0417	0.184
259.2561	0.1858
259.4706	0.1834
259.6851	0.1811
259.8995	0.1752
260.114	0.1871
260.3284	0.1848
260.5428	0.1805
260.7572	0.1924
260.9716	0.1867
261.186	0.1837
261.4003	0.1929
261.6147	0.1794
261.829	0.1831
262.0433	0.1851
262.2577	0.1905
262.472	0.1857
262.6863	0.19
262.9005	0.1866
263.1148	0.1791
263.3291	0.1856
263.5433	0.1852
263.7576	0.1863
263.9718	0.1859
264.186	0.1853
264.4002	0.1851
264.6144	0.1889
264.8286	0.1921
265.0427	0.1913
265.2569	0.185
265.471	0.1803
265.6851	0.1863
265.8993	0.1876
266.1134	0.1888
266.3275	0.1821
266.5415	0.1853
266.7556	0.1865
266.9697	0.1805
267.1837	0.1899
267.3978	0.1944
267.6118	0.1852
267.8258	0.1826
268.0398	0.1845
268.2538	0.1879
268.4677	0.1772
268.6817	0.1839
268.8957	0.1843
269.1096	0.1727
269.3235	0.1865
269.5374	0.1786
269.7514	0.1823
269.9652	0.1834
270.1791	0.1746
270.393	0.1846
270.6068	0.1704
270.8207	0.1765
271.0345	0.1765
271.2483	0.1784
271.4622	0.1749
271.676	0.1699
271.8897	0.179
272.1035	0.1699
272.3173	0.175
272.531	0.171
272.7448	0.1753
272.9585	0.1761
273.1722	0.1782
273.3859	0.1714
273.5996	0.1711
273.8133	0.1697
274.0269	0.182
274.2406	0.174
274.4542	0.1724
274.6679	0.1671
274.8815	0.1746
275.0951	0.1758
275.3087	0.1704
275.5223	0.1724
275.7358	0.1837
275.9494	0.1758
276.1629	0.1782
276.3765	0.1702
276.59	0.1733
276.8035	0.178
277.017	0.1787
277.2305	0.1804
277.444	0.1778
277.6574	0.1771
277.8709	0.1792
278.0843	0.1743
278.2978	0.1703
278.5112	0.1813
278.7246	0.1771
278.938	0.1773
279.1513	0.1798
279.3647	0.1744
279.5781	0.1745
279.7914	0.1787
280.0047	0.1714
280.2181	0.182
280.4314	0.183
280.6447	0.1882
280.8579	0.1779
281.0712	0.1825
281.2845	0.1875
281.4977	0.1884
281.711	0.1872
281.9242	0.1831
282.1374	0.1815
282.3506	0.1822
282.5638	0.1813
282.7769	0.1841
282.9901	0.1788
283.2033	0.1852
283.4164	0.1882
283.6295	0.1826
283.8426	0.1879
284.0557	0.1865
284.2688	0.1898
284.4819	0.1925
284.695	0.1927
284.908	0.1936
285.1211	0.1865
285.3341	0.1953
285.5471	0.193
285.7601	0.196
285.9731	0.1924
286.1861	0.1883
286.3991	0.1902
286.612	0.1941
286.825	0.1975
287.0379	0.1955
287.2508	0.1899
287.4637	0.1985
287.6766	0.197
287.8895	0.1913
288.1024	0.1968
288.3152	0.1928
288.5281	0.1879
288.7409	0.1919
288.9538	0.1994
289.1666	0.1966
289.3794	0.2029
289.5922	0.1994
289.8049	0.2015
290.0177	0.1914
290.2304	0.2024
290.4432	0.1972
290.6559	0.1904
290.8686	0.2026
291.0813	0.1997
291.294	0.2005
291.5067	0.2022
291.7194	0.198
291.932	0.2082
292.1447	0.2016
292.3573	0.2
292.5699	0.2006
292.7825	0.1988
292.9951	0.201
293.2077	0.1998
293.4203	0.1986
293.6328	0.2001
293.8454	0.1994
294.0579	0.2017
294.2704	0.2018
294.4829	0.198
294.6954	0.1974
294.9079	0.2038
295.1204	0.196
295.3328	0.2018
295.5453	0.196
295.7577	0.1961
295.9701	0.1988
296.1825	0.1975
296.3949	0.2055
296.6073	0.2053
296.8197	0.1985
297.0321	0.1985
297.2444	0.2041
297.4567	0.1982
297.6691	0.197
297.8814	0.1985
298.0937	0.2011
298.306	0.1997
298.5182	0.2064
298.7305	0.1985
298.9428	0.1983
299.155	0.1987
299.3672	0.2
299.5794	0.192
299.7916	0.1943
300.0038	0.1926
300.216	0.202
300.4282	0.1964
300.6403	0.1989
300.8525	0.1994
301.0646	0.1954
301.2767	0.1955
301.4888	0.1986
301.7009	0.1935
301.913	0.2056
302.125	0.2004
302.3371	0.1917
302.5491	0.1987
302.7612	0.1943
302.9732	0.1941
303.1852	0.195
303.3972	0.195
303.6092	0.1977
303.8211	0.1899
304.0331	0.1926
304.245	0.1978
304.457	0.2032
304.6689	0.1933
304.8808	0.1936
305.0927	0.1936
305.3046	0.1849
305.5164	0.1835
305.7283	0.1866
305.9401	0.182
306.152	0.1897
306.3638	0.1762
306.5756	0.1835
306.7874	0.1777
306.9992	0.183
307.2109	0.1737
307.4227	0.1749
307.6344	0.1725
307.8462	0.176
308.0579	0.1704
308.2696	0.1628
308.4813	0.1565
308.693	0.1658
308.9046	0.1634
309.1163	0.1574
309.328	0.1552
309.5396	0.1577
309.7512	0.1527
309.9628	0.1561
310.1744	0.1581
310.386	0.1523
310.5976	0.1416
310.8091	0.1446
311.0207	0.1482
311.2322	0.1477
311.4437	0.1417
311.6552	0.1388
311.8667	0.1371
312.0782	0.1397
312.2897	0.145
312.5012	0.1447
312.7126	0.1306
312.924	0.1388
313.1355	0.1311
313.3469	0.1286
313.5583	0.1337
313.7696	0.1248
313.981	0.1256
314.1924	0.132
314.4037	0.1232
314.6151	0.1276
314.8264	0.1334
315.0377	0.1261
315.249	0.1225
315.4603	0.1207
315.6716	0.1288
315.8828	0.1241
316.0941	0.1188
316.3053	0.1196
316.5165	0.1224
316.7277	0.1272
316.9389	0.121
317.1501	0.1215
317.3613	0.1148
317.5724	0.1193
317.7836	0.1204
317.9947	0.113
318.2058	0.1145
318.417	0.1149
318.6281	0.1198
318.8391	0.1173
319.0502	0.1156
319.2613	0.1132
319.4723	0.1171
319.6834	0.1202
319.8944	0.1186
320.1054	0.1161
320.3164	0.1207
320.5274	0.108
320.7383	0.1138
320.9493	0.1114
321.1602	0.1204
321.3712	0.1158
321.5821	0.1149
321.793	0.1129
322.0039	0.1179
322.2148	0.117
322.4257	0.1151
322.6365	0.1132
322.8474	0.1169
323.0582	0.1186
323.269	0.1125
323.4798	0.1206
323.6906	0.1155
323.9014	0.1103
324.1122	0.1171
324.3229	0.1182
324.5337	0.1208
324.7444	0.1164
324.9551	0.123
325.1658	0.1232
325.3765	0.1192
325.5872	0.1164
325.7979	0.1171
326.0085	0.1166
326.2192	0.1147
326.4298	0.1218
326.6404	0.1171
326.851	0.1218
327.0616	0.1209
327.2722	0.1296
327.4828	0.1179
327.6933	0.1216
327.9039	0.1196
328.1144	0.1189
328.3249	0.1214
328.5354	0.1163
328.7459	0.1185
328.9564	0.1265
329.1669	0.1219
329.3773	0.1245
329.5878	0.1204
329.7982	0.1219
330.0086	0.1212
330.219	0.1208
330.4294	0.124
330.6398	0.1257
330.8502	0.1291
331.0605	0.1239
331.2708	0.1252
331.4812	0.1222
331.6915	0.1172
331.9018	0.1165
332.1121	0.1273
332.3224	0.1279
332.5326	0.1256
332.7429	0.1192
332.9531	0.1239
333.1633	0.125
333.3735	0.1236
333.5837	0.1205
333.7939	0.1268
334.0041	0.1216
334.2143	0.1276
334.4244	0.1232
334.6346	0.1256
334.8447	0.1294
335.0548	0.1259
335.2649	0.1303
335.475	0.1316
335.685	0.1298
335.8951	0.1317
336.1051	0.1322
336.3152	0.1336
336.5252	0.1273
336.7352	0.1259
336.9452	0.1322
337.1552	0.1316
337.3652	0.1275
337.5751	0.1292
337.7851	0.1266
337.995	0.1324
338.2049	0.1342
338.4148	0.1318
338.6247	0.1357
338.8346	0.127
339.0445	0.131
339.2543	0.1292
339.4642	0.1349
339.674	0.1358
339.8838	0.1345
340.0936	0.1319
340.3034	0.1332
340.5132	0.1362
340.7229	0.1361
340.9327	0.1411
341.1424	0.1315
341.3522	0.1418
341.5619	0.1391
341.7716	0.1411
341.9813	0.1419
342.1909	0.1426
342.4006	0.1407
342.6102	0.1431
342.8199	0.1352
343.0295	0.1385
343.2391	0.139
343.4487	0.1486
343.6583	0.1505
343.8679	0.147
344.0774	0.1456
344.287	0.1451
344.4965	0.1481
344.706	0.1453
344.9155	0.1449
345.125	0.1473
345.3345	0.1462
345.544	0.1535
345.7534	0.1456
345.9629	0.1498
346.1723	0.1469
346.3817	0.1505
346.5911	0.1503
346.8005	0.1472
347.0099	0.1532
347.2193	0.1493
347.4286	0.1567
347.638	0.1471
347.8473	0.1531
348.0566	0.1549
348.2659	0.1544
348.4752	0.1578
348.6845	0.1587
348.8937	0.1621
349.103	0.1526
349.3122	0.1626
349.5214	0.1569
349.7306	0.159
349.9398	0.1626
350.149	0.1677
350.3582	0.1622
350.5674	0.1642
350.7765	0.1672
350.9856	0.1589
351.1948	0.1634
351.4039	0.1673
351.613	0.1699
351.822	0.1674
352.0311	0.1618
352.2402	0.1642
352.4492	0.1726
352.6582	0.1666
352.8672	0.175
353.0762	0.1739
353.2852	0.1745
353.4942	0.1678
353.7032	0.1675
353.9121	0.1692
354.1211	0.1752
354.33	0.1779
354.5389	0.1789
354.7478	0.1755
354.9567	0.1731
355.1655	0.1773
355.3744	0.1751
355.5833	0.1853
355.7921	0.18
356.0009	0.1797
356.2097	0.1877
356.4185	0.1935
356.6273	0.1834
356.8361	0.1837
357.0448	0.1922
357.2536	0.1935
357.4623	0.187
357.671	0.1771
357.8797	0.1904
358.0884	0.1818
358.2971	0.1918
358.5057	0.1888
358.7144	0.1984
358.923	0.1978
359.1316	0.191
359.3402	0.2006
359.5488	0.1954
359.7574	0.2007
359.966	0.2072
360.1746	0.1994
360.3831	0.2078
360.5916	0.206
360.8002	0.2065
361.0087	0.2098
361.2172	0.2123
361.4256	0.2012
361.6341	0.2144
361.8426	0.2106
362.051	0.2071
362.2594	0.2096
362.4678	0.2142
362.6762	0.2236
362.8846	0.2213
363.093	0.2169
363.3014	0.2206
363.5097	0.2173
363.718	0.2232
363.9264	0.219
364.1347	0.2276
364.343	0.2404
364.5513	0.2274
364.7595	0.2329
364.9678	0.23
365.176	0.2331
365.3842	0.2287
365.5925	0.2302
365.8007	0.2322
366.0089	0.2331
366.217	0.2374
366.4252	0.2366
366.6333	0.2362
366.8415	0.2352
367.0496	0.2445
367.2577	0.2523
367.4658	0.2471
367.6739	0.2414
367.882	0.2522
368.09	0.2415
368.2981	0.2396
368.5061	0.242
368.7141	0.2516
368.9221	0.2508
369.1301	0.2518
369.3381	0.2572
369.5461	0.2538
369.754	0.2529
369.962	0.2585
370.1699	0.2554
370.3778	0.2582
370.5857	0.2553
370.7936	0.2615
371.0015	0.2486
371.2093	0.2643
371.4172	0.2616
371.625	0.2592
371.8328	0.2717
372.0406	0.2633
372.2484	0.2618
372.4562	0.2639
372.664	0.2776
372.8717	0.2653
373.0795	0.2686
373.2872	0.2687
373.4949	0.264
373.7026	0.2841
373.9103	0.2664
374.118	0.2676
374.3256	0.2841
374.5333	0.2739
374.7409	0.2792
374.9485	0.2695
375.1561	0.2722
375.3637	0.2692
375.5713	0.272
375.7789	0.275
375.9864	0.2791
376.194	0.284
376.4015	0.2834
376.609	0.2794
376.8165	0.2793
377.024	0.2843
377.2315	0.2884
377.4389	0.2714
377.6464	0.2766
377.8538	0.2882
378.0612	0.2867
378.2686	0.2964
378.476	0.299
378.6834	0.2905
378.8908	0.2888
379.0981	0.294
379.3055	0.3024
379.5128	0.2885
379.7201	0.2956
379.9274	0.2902
380.1347	0.3001
380.342	0.2976
380.5492	0.3002
380.7565	0.2953
380.9637	0.2935
381.1709	0.2962
381.3781	0.3114
381.5853	0.3073
381.7925	0.3119
381.9997	0.3077
382.2068	0.3008
382.4139	0.3124
382.6211	0.312
382.8282	0.3007
383.0353	0.3046
383.2424	0.3087
383.4494	0.3115
383.6565	0.3094
383.8635	0.3153
384.0706	0.3137
384.2776	0.3198
384.4846	0.3212
384.6916	0.3035
384.8986	0.3149
385.1055	0.3185
385.3125	0.3149
385.5194	0.3153
385.7263	0.3161
385.9333	0.311
386.1402	0.3267
386.347	0.3173
386.5539	0.3154
386.7608	0.3191
386.9676	0.3208
387.1744	0.3195
387.3813	0.3111
387.5881	0.3141
387.7948	0.3151
388.0016	0.3156
388.2084	0.3205
388.4151	0.3136
388.6219	0.3103
388.8286	0.3198
389.0353	0.3076
389.242	0.3023
389.4487	0.3129
389.6553	0.3036
389.862	0.3089
390.0686	0.3089
390.2753	0.3019
390.4819	0.3062
390.6885	0.3083
390.8951	0.3047
391.1016	0.3079
391.3082	0.2957
391.5147	0.2942
391.7213	0.2945
391.9278	0.3116
392.1343	0.2904
392.3408	0.2934
392.5473	0.2961
392.7537	0.2963
392.9602	0.2847
393.1666	0.2936
393.373	0.2874
393.5794	0.282
393.7858	0.2992
393.9922	0.2834
394.1986	0.2881
394.4049	0.2808
394.6113	0.2876
394.8176	0.2717
395.0239	0.2751
395.2302	0.2745
395.4365	0.2707
395.6428	0.2797
395.8491	0.2733
396.0553	0.272
396.2615	0.2683
396.4678	0.2798
396.674	0.2686
396.8802	0.275
397.0863	0.2663
397.2925	0.2715
397.4987	0.2725
397.7048	0.28
397.9109	0.2734
398.117	0.2666
398.3231	0.2782
398.5292	0.2694
398.7353	0.263
398.9413	0.2768
399.1474	0.2741
399.3534	0.2649
399.5594	0.2689
399.7654	0.2628
399.9714	0.2623
400.1774	0.2519
400.3833	0.2727
400.5893	0.2685
400.7952	0.2737
401.0011	0.2671
401.207	0.2698
401.4129	0.2591
401.6188	0.2678
401.8247	0.2579
402.0305	0.2609
402.2364	0.2693
402.4422	0.2638
402.648	0.2679
402.8538	0.2802
403.0596	0.261
403.2654	0.2664
403.4711	0.268
403.6768	0.2675
403.8826	0.2756
404.0883	0.2592
404.294	0.2743
404.4997	0.2651
404.7054	0.2633
404.911	0.2587
405.1167	0.2625
405.3223	0.2694
405.5279	0.2663
405.7335	0.2593
405.9391	0.2697
406.1447	0.2578
406.3502	0.2872
406.5558	0.2695
406.7613	0.269
406.9668	0.2678
407.1724	0.2763
407.3778	0.2672
407.5833	0.2623
407.7888	0.2722
407.9942	0.2703
408.1997	0.2704
408.4051	0.2686
408.6105	0.2706
408.8159	0.2725
409.0213	0.2689
409.2267	0.2643
409.432	0.2705
409.6374	0.2713
409.8427	0.2788
410.048	0.2651
410.2533	0.2574
410.4586	0.274
410.6639	0.2676
410.8691	0.2707
411.0744	0.254
411.2796	0.2687
411.4848	0.2595
411.69	0.2654
411.8952	0.2712
412.1004	0.2643
412.3056	0.2702
412.5107	0.2602
412.7158	0.261
412.921	0.2628
413.1261	0.2606
413.3312	0.2637
413.5362	0.2582
413.7413	0.2602
413.9464	0.2556
414.1514	0.2598
414.3564	0.2646
414.5614	0.2527
414.7664	0.2579
414.9714	0.2753
415.1764	0.2662
415.3813	0.2574
415.5863	0.2535
415.7912	0.2582
415.9961	0.2601
416.201	0.2551
416.4059	0.2625
416.6108	0.2521
416.8156	0.2533
417.0205	0.2669
417.2253	0.2639
417.4301	0.2644
417.6349	0.2581
417.8397	0.2623
418.0445	0.2557
418.2492	0.2559
418.454	0.2549
418.6587	0.2576
418.8634	0.2623
419.0681	0.2514
419.2728	0.2479
419.4775	0.2523
419.6822	0.2518
419.8868	0.2558
420.0915	0.2569
420.2961	0.2495
420.5007	0.2492
420.7053	0.2458
420.9099	0.2419
421.1144	0.2436
421.319	0.2501
421.5235	0.2448
421.728	0.2472
421.9325	0.253
422.137	0.2492
422.3415	0.2344
422.546	0.239
422.7504	0.2365
422.9549	0.2396
423.1593	0.2366
423.3637	0.2377
423.5681	0.2382
423.7725	0.2376
423.9769	0.2309
424.1812	0.2313
424.3856	0.2412
424.5899	0.2317
424.7942	0.2229
424.9985	0.2252
425.2028	0.2317
425.4071	0.211
425.6113	0.228
425.8156	0.2285
426.0198	0.2209
426.224	0.2195
426.4282	0.2283
426.6324	0.2265
426.8366	0.2245
427.0407	0.2196
427.2449	0.2234
427.449	0.2212
427.6531	0.2174
427.8572	0.2223
428.0613	0.2193
428.2654	0.2252
428.4694	0.2115
428.6735	0.2125
428.8775	0.2032
429.0815	0.2143
429.2855	0.2064
429.4895	0.2003
429.6935	0.1948
429.8975	0.2078
430.1014	0.2005
430.3053	0.1967
430.5093	0.202
430.7132	0.1916
430.9171	0.1834
431.1209	0.1909
431.3248	0.1917
431.5286	0.1815
431.7325	0.1899
431.9363	0.1943
432.1401	0.1751
432.3439	0.1773
432.5477	0.18
432.7514	0.1754
432.9552	0.1687
433.1589	0.1695
433.3627	0.1793
433.5664	0.174
433.7701	0.1664
433.9737	0.1712
434.1774	0.1663
434.3811	0.1713
434.5847	0.1628
434.7883	0.1633
434.9919	0.1569
435.1955	0.1542
435.3991	0.1492
435.6027	0.149
435.8062	0.1473
436.0098	0.1554
436.2133	0.154
436.4168	0.143
436.6203	0.1362
436.8238	0.143
437.0272	0.1354
437.2307	0.1357
437.4341	0.1409
437.6375	0.1336
437.841	0.1273
438.0443	0.1277
438.2477	0.1249
438.4511	0.1257
438.6545	0.1251
438.8578	0.1276
439.0611	0.1261
439.2644	0.1191
439.4677	0.122
439.671	0.1127
439.8743	0.1184
440.0775	0.107
440.2808	0.1242
440.484	0.1027
440.6872	0.1052
440.8904	0.1086
441.0936	0.1118
441.2967	0.1072
441.4999	0.11
441.703	0.1016
441.9062	0.1021
442.1093	0.1043
442.3124	0.0964
442.5155	0.0936
442.7185	0.0881
442.9216	0.0938
443.1246	0.0948
443.3276	0.0852
443.5307	0.0811
443.7337	0.0875
443.9366	0.0857
444.1396	0.0792
444.3426	0.0895
444.5455	0.0818
444.7484	0.0776
444.9513	0.0758
445.1542	0.0776
445.3571	0.072
445.56	0.0797
445.7628	0.0662
445.9657	0.0755
446.1685	0.0782
446.3713	0.0657
446.5741	0.0573
446.7769	0.0691
446.9797	0.0652
447.1824	0.067
447.3852	0.0552
447.5879	0.064
447.7906	0.0548
447.9933	0.0651
448.196	0.0547
448.3986	0.0536
448.6013	0.0565
448.8039	0.0642
449.0066	0.049
449.2092	0.0532
449.4118	0.0552
449.6143	0.0537
449.8169	0.0535
450.0195	0.0456
450.222	0.0525
450.4245	0.0541
450.627	0.0386
450.8295	0.0379
451.032	0.0462
451.2345	0.0426
451.4369	0.0424
451.6394	0.0438
451.8418	0.0413
452.0442	0.0343
452.2466	0.0477
452.449	0.037
452.6513	0.0334
452.8537	0.039
453.056	0.0381
453.2583	0.0368
453.4607	0.0411
453.663	0.0355
453.8652	0.0308
454.0675	0.0362
454.2697	0.0223
454.472	0.0328
454.6742	0.025
454.8764	0.0298
455.0786	0.0332
455.2808	0.032
455.4829	0.0203
455.6851	0.018
455.8872	0.0292
456.0893	0.0305
456.2915	0.026
456.4935	0.0182
456.6956	0.0257
456.8977	0.0264
457.0997	0.0295
457.3018	0.0292
457.5038	0.0271
457.7058	0.0233
457.9078	0.023
458.1098	0.0267
458.3117	0.0287
458.5137	0.0276
458.7156	0.0249
458.9175	0.0198
459.1194	0.019
459.3213	0.0203
459.5232	0.0164
459.725	0.019
459.9269	0.0134
460.1287	0.0109
460.3305	0.0108
460.5323	0.0169
460.7341	0.0099
460.9359	0.0173
461.1376	0.0224
461.3394	0.0165
461.5411	0.0176
461.7428	0.0148
461.9445	0.0023
462.1462	0.0073
462.3479	0.0153
462.5495	0.0105
462.7512	0.0047
462.9528	0.007
463.1544	0.0176
463.356	0.0093
463.5576	0.0024
463.7592	0.0003
463.9607	0.0054
464.1623	0.0097
464.3638	0.0134
464.5653	0.0053
464.7668	0.014
464.9683	0.0098
465.1697	0.0043
465.3712	0.0064
465.5726	0.0168
465.7741	0.0099
465.9755	0.0066
466.1769	0.0086
466.3782	0.0063
466.5796	0.0119
466.7809	0.0162
466.9823	0.0036
467.1836	0.0172
467.3849	0.0143
467.5862	-0.0084
467.7875	0.0126
467.9887	0.0098
468.19	0.0039
468.3912	0.0121
468.5924	0.0152
468.7936	0.0007
468.9948	0.0161
469.196	0.002
469.3972	0.0148
469.5983	0.0023
469.7994	0.0072
470.0006	0.0061
470.2017	0.0016
470.4027	0.0035
470.6038	-0.0029
470.8049	-0.0005
471.0059	0.0129
471.2069	0.0135
471.408	0.0004
471.6089	0.0087
471.8099	0.0075
472.0109	0.0021
472.2119	0.0216
472.4128	0.0226
472.6137	0.0015
472.8146	-0.0003
473.0155	-0.0023
473.2164	-0.0068
473.4173	0.0105
473.6181	0.0091
473.819	-0.0011
474.0198	0.0027
474.2206	0.0129
474.4214	0.0104
474.6222	0.0033
474.8229	-0.0002
475.0237	-0.0002
475.2244	0.0058
475.4251	-0.0066
475.6258	0.0053
475.8265	0.003
476.0272	0.0043
476.2278	0.0024
476.4285	-0.0003
476.6291	0.0114
476.8297	-0.0072
477.0303	0.0044
477.2309	-0.0002
477.4315	0.0093
477.632	0
477.8326	-0.0002
478.0331	-0.0008
478.2336	0.0127
478.4341	0.0035
478.6346	0.0007
478.8351	0.0125
479.0355	0.0039
479.236	0.0046
479.4364	-0.0024
479.6368	0.0065
479.8372	0
480.0376	-0.0039
480.2379	0.0053
480.4383	-0.0043
480.6386	0.002
480.8389	0.0012
481.0392	0.0066
481.2395	0.0053
481.4398	0.0059
481.6401	0.0008
481.8403	0.0054
482.0405	-0.0014
482.2408	0.008
482.441	0.0026
482.6411	0.009
482.8413	-0.0047
483.0415	0.002
483.2416	0.0004
483.4417	0.0022
483.6419	0.0063
483.8419	0.0042
484.042	0.0043
484.2421	-0.0005
484.4422	0.011
484.6422	0.0091
484.8422	-0.0016
485.0422	0.0061
485.2422	0.0031
485.4422	0.0008
485.6422	0.0007
485.8421	-0.0002
486.042	0.0046
486.242	0
486.4419	0.003
486.6417	0.0024
486.8416	0.0071
487.0415	0.003
487.2413	0.0041
487.4411	0.0028
487.641	0.0149
487.8408	0.0081
488.0405	0.0012
488.2403	-0.0064
488.4401	-0.0028
488.6398	0.002
488.8395	0.0001
489.0392	0.0038
489.2389	0.0014
489.4386	-0.0023
489.6383	0.0002
489.8379	0.0005
490.0376	0.0098
490.2372	-0.0102
490.4368	0.006
490.6364	0.0112
490.836	-0.0074
491.0355	0.0031
491.2351	0.0047
491.4346	0.0031
491.6341	-0.0029
491.8336	0.004
492.0331	-0.0024
492.2326	0.0049
492.432	-0.0002
492.6315	-0.0092
492.8309	0.0072
493.0303	-0.004
493.2297	-0.007
493.4291	-0.0024
493.6284	0.0017
493.8278	0.0034
494.0271	0.0022
494.2264	0.0006
494.4257	0.004
494.625	0.0008
494.8243	0.0097
495.0236	0.0004
495.2228	-0.0119
495.422	0.0073
495.6213	0.0026
495.8205	0.0003
496.0196	0.0019
496.2188	0.0035
496.418	-0.0084
496.6171	0.0091
496.8162	0.0024
497.0153	-0.0013
497.2144	-0.0057
497.4135	-0.0009
497.6126	-0.0085
497.8116	0.0025
498.0107	-0.0015
498.2097	0.0067
498.4087	-0.0076
498.6077	0.0095
498.8067	0.012
499.0056	-0.0024
499.2046	-0.0075
499.4035	0.0074
499.6024	-0.0062
499.8013	-0.0033
500.0002	0.0033
500.199	0.0034
500.3979	0.0089
500.5967	-0.0041
500.7956	-0.007
500.9944	0.003
501.1932	0.008
501.3919	0.0053
501.5907	0.0031
501.7895	-0.0096
501.9882	-0.0056
502.1869	0.003
502.3856	0.0012
502.5843	0.0046
502.783	0.0041
502.9816	-0.0022
503.1803	0.0088
503.3789	0.0081
503.5775	-0.0008
503.7761	0.0027
503.9747	-0.0113
504.1732	0.0059
504.3718	-0.0024
504.5703	-0.0082
504.7689	-0.0019
504.9674	-0.0043
505.1658	0.0096
505.3643	0.0012
505.5628	0.0027
505.7612	-0.0012
505.9597	0.014
506.1581	-0.0057
506.3565	-0.0072
506.5549	0.0002
506.7532	0.003
506.9516	0.0054
507.1499	-0.0011
507.3482	0.01
507.5465	-0.0069
507.7448	-0.0017
507.9431	-0.0044
508.1414	0.0065
508.3396	0.0011
508.5379	0.0043
508.7361	0.0104
508.9343	0.0017
509.1325	0.0123
509.3306	-0.0048
509.5288	0.0095
509.7269	-0.002
509.9251	-0.0066
510.1232	-0.0096
510.3213	-0
510.5193	0.0008
510.7174	-0.0006
510.9154	0.0016
511.1135	0.0014
511.3115	0.0035
511.5095	-0.0039
511.7075	-0.0006
511.9055	0.0067
512.1034	0.0059
512.3014	0.0015
512.4993	0.0007
512.6972	0.0019
512.8951	0.0028
513.093	0.0004
513.2908	0.0001
513.4887	0.0066
513.6865	-0.0097
513.8844	0.0015
514.0822	-0.0005
514.2799	-0.0004
514.4777	0.0086
514.6755	0.013
514.8732	-0.0057
515.0709	0.0115
515.2687	-0.0035
515.4664	-0.0102
515.664	0.0029
515.8617	-0.0016
516.0594	0.0005
516.257	0.0058
516.4546	0.0037
516.6522	0.0082
516.8498	-0.0022
517.0474	-0.0098
517.2449	-0.0013
517.4425	-0.0001
517.64	0.0054
517.8375	0.0143
518.035	0.0028
518.2325	-0.0051
518.43	-0.0085
518.6274	-0.0057
518.8249	0.0013
519.0223	-0.0016
519.2197	-0.0022
519.4171	0.0109
519.6145	-0.0082
519.8118	0.0105
520.0092	-0.0102
520.2065	-0.0008
520.4038	0.0015
520.6011	0.0083
520.7984	0.0022
520.9956	0.0057
521.1929	-0.0014
521.3901	0.0049
521.5874	-0.0025
521.7846	-0.0072
521.9818	-0.0078
522.1789	0.0039
522.3761	0.0011
522.5732	0.0077
522.7704	0.0043
522.9675	-0.0042
523.1646	0.0093
523.3617	0.0019
523.5587	0.0067
523.7558	0.0045
523.9528	0.0008
524.1498	-0.0017
524.3468	0.0062
524.5438	-0.0105
524.7408	-0.0028
524.9378	-0.0005
525.1347	-0.0011
525.3316	0.0021
525.5285	-0.0028
525.7254	-0.0002
525.9223	-0.0033
526.1192	-0.0145
526.316	0.0003
526.5129	0.0055
526.7097	-0.0011
526.9065	0.0035
527.1033	-0.0035
527.3	0.0005
527.4968	0.0014
527.6935	0.0141
527.8903	0.0046
528.087	-0.006
528.2837	0.0104
528.4804	0.0089
528.677	0.0041
528.8737	-0.0027
529.0703	0.0056
529.2669	-0.0017
529.4635	0.0111
529.6601	0.0073
529.8567	0.0043
530.0532	0.0038
530.2498	-0.005
530.4463	0.0111
530.6428	0.001
530.8393	0.0023
531.0358	0.0002
531.2322	0.0002
531.4287	-0.0035
531.6251	-0.0072
531.8215	0.0011
532.0179	-0.0093
532.2143	0.0053
532.4107	-0.0057
532.607	-0.0091
532.8034	0.0085
532.9997	0.0035
533.196	0.0141
533.3923	0.0005
533.5886	-0.0018
533.7848	-0.009
533.9811	-0.0107
534.1773	-0.0044
534.3735	0.0039
534.5697	-0.0048
534.7659	0.0078
534.9621	0.0065
535.1582	0.0078
535.3544	0.0109
535.5505	-0.0034
535.7466	0.0052
535.9427	0.002
536.1387	0.0037
536.3348	0.0096
536.5308	0.0148
536.7269	-0.0147
536.9229	0.0002
537.1189	-0.0009
537.3148	-0.0075
537.5108	-0.0005
537.7068	0.0046
537.9027	-0.0044
538.0986	-0.0139
538.2945	-0.0054
538.4904	-0.0085
538.6863	-0.0019
538.8821	-0.0004
539.078	-0.0016
539.2738	-0.0123
539.4696	0.0096
539.6654	-0.0061
539.8611	-0.0011
540.0569	-0.0071
540.2526	-0.0073
540.4484	-0.0053
540.6441	0.0061
540.8398	-0.0014
541.0355	0.0013
541.2311	0.0037
541.4268	0.0009
541.6224	-0.0005
541.818	0.0006
542.0136	-0.0048
542.2092	0.0035
542.4048	-0.0054
542.6003	0.0085
542.7959	0.0083
542.9914	0.0017
543.1869	-0.0054
543.3824	0.0052
543.5779	0.0042
543.7734	-0.0113
543.9688	0.003
544.1642	-0.0007
544.3596	0.0021
544.555	0.0076
544.7504	0.0052
544.9458	-0.005
545.1411	-0.0122
545.3365	0.0016
545.5318	0.005
545.7271	0.0066
545.9224	0.0008
546.1177	0.0014
546.3129	-0.0107
546.5081	-0.01
546.7034	-0.0076
546.8986	0.0047
547.0938	-0.0085
547.289	-0.0033
547.4841	0.0008
547.6793	-0.0094
547.8744	-0.0007
548.0695	-0.0065
548.2646	-0.0111
548.4597	-0.0106
548.6548	0.006
548.8498	0.0011
549.0448	0.0091
549.2399	-0.0079
549.4349	0.0068
549.6298	-0.0095
549.8248	-0.0004
550.0198	0.0149
550.2147	-0.0089
550.4096	0.0088
550.6045	0.0038
550.7994	-0.0032
550.9943	-0.0078
551.1892	-0.0052
551.384	0.0144
551.5788	0.0037
551.7737	-0.0062
551.9685	0.0029
552.1632	-0.0019
552.358	-0.0079
552.5528	0.0005
552.7475	-0.0027
552.9422	-0.0035
553.1369	0.0007
553.3316	0.0041
553.5263	-0.0059
553.7209	-0.0009
553.9156	0.0003
554.1102	-0.0027
554.3048	0.0044
554.4994	0.0044
554.694	0.0047
554.8885	0.0016
555.0831	0.0042
555.2776	0.0007
555.4721	-0.0147
555.6666	-0.0023
555.8611	-0.0046
556.0555	0.0089
556.25	0.0154
556.4444	-0.0111
556.6388	0.0056
556.8332	-0.012
557.0276	0.0146
557.222	-0.0067
557.4163	0.004
557.6107	-0.0027
557.805	-0.0064
557.9993	0.0031
558.1936	0.0123
558.3879	-0.0025
558.5821	-0.0028
558.7764	0.0143
558.9706	0.0054
559.1648	-0.0022
559.359	0.0165
559.5532	-0.0049
559.7473	0.0062
559.9415	0.0046
560.1356	-0.0051
560.3297	-0.0011
560.5238	-0.0026
560.7179	-0.002
560.9119	0.0089
561.106	0.0014
561.3	-0.0053
561.494	0.009
561.688	-0.0011
561.882	-0.0009
562.076	0.0027
562.2699	0.0125
562.4639	0.0062
562.6578	0.0021
562.8517	0.0067
563.0456	-0.0057
563.2395	0.0018
563.4333	-0.0035
563.6272	0.0067
563.821	0.0053
564.0148	-0.0048
564.2086	-0.0006
564.4024	-0.0039
564.5961	-0.0032
564.7899	-0.0028
564.9836	0.0016
565.1773	0.005
565.371	0.0003
565.5647	-0.0041
565.7584	0.0029
565.952	0.0015
566.1456	0.0024
566.3393	-0.0009
566.5329	0.0013
566.7264	0.0034
566.92	0.0049
567.1136	0.0005
567.3071	0.0027
567.5006	0.003
567.6941	0.0084
567.8876	-0.0054
568.0811	-0.0024
568.2745	-0.0058
568.468	0.0085
568.6614	0.0031
568.8548	-0.0058
569.0482	0.0021
569.2416	-0.0042
569.4349	-0.0003
569.6283	0.0079
569.8216	-0.0017
570.0149	0.0059
570.2082	0.0012
570.4015	0.0083
570.5947	-0.0046
570.788	-0.0018
570.9812	0.0007
571.1744	-0.0009
571.3676	0.0017
571.5608	-0.0005
571.754	0.0014
571.9471	0.0043
572.1402	-0.0006
572.3333	-0.0036
572.5264	0.002
572.7195	0.0031
572.9126	0.0043
573.1057	-0.0015
573.2987	0.0001
573.4917	-0.0009
573.6847	-0.0037
573.8777	0.0014
574.0707	-0.0054
574.2636	0.0001
574.4566	0.0001
574.6495	0.0034
574.8424	-0.0012
575.0353	-0.0042
575.2281	0.0006
575.421	-0.0006
575.6138	-0.0069
575.8067	0.0028
575.9995	-0.0041
576.1923	-0.0019
576.385	-0.0039
576.5778	-0.0005
576.7706	0.0039
576.9633	0.0004
577.156	-0.0007
577.3487	-0.0018
577.5414	0.0013
577.734	-0.0005
577.9267	0.001
578.1193	0.0004
578.3119	-0.0051
578.5045	-0.0029
578.6971	-0.0033
578.8897	0.0006
579.0822	0.004
579.2747	-0.0055
579.4673	0.0012
579.6598	0.0026
579.8522	0.0002
580.0447	-0.0026
580.2372	0.0048
580.4296	-0.0026
580.622	0.0001
580.8144	0.0007
581.0068	0.0012
581.1992	0.0051
581.3915	-0.0008
581.5839	0.004
581.7762	0.0033
581.9685	-0.0015
582.1608	0.0031
582.353	0.0014
582.5453	0.0006
582.7375	0.0002
582.9298	-0.0003
583.122	-0.0054
583.3142	0.0052
583.5063	0.0006
583.6985	0.002
583.8906	0.0021
584.0827	-0.0014
584.2749	0.0009
584.4669	0.0034
584.659	0.0007
584.8511	-0.0016
585.0431	-0.0002
585.2352	-0.0079
585.4272	-0.0011
585.6192	-0.0016
585.8111	-0.0048
586.0031	0.0031
586.195	-0.0012
586.387	-0
586.5789	-0.0037
586.7708	-0.0043
586.9627	0.0025
587.1545	0.0034
587.3464	0.0019
587.5382	-0.0008
587.73	-0.001
587.9218	-0.0025
588.1136	-0.0027
588.3053	0.0009
588.4971	0.0006
588.6888	0.0029
588.8805	0.003
589.0722	-0.002
589.2639	-0.0016
589.4556	-0.0046
589.6472	0.0001
589.8389	-0.0016
590.0305	0.0007
590.2221	0.0094
590.4137	-0.002
590.6052	0.0028
590.7968	0.0009
590.9883	0.0064
591.1798	-0.0028
591.3713	-0.0064
591.5628	0.0001
591.7543	-0.0006
591.9458	-0.0026
592.1372	0.001
592.3286	-0.0018
592.52	-0.0022
592.7114	-0.0054
592.9028	-0.0009
593.0941	-0.0017
593.2855	0.0032
593.4768	-0.0002
593.6681	0.0024
593.8594	-0.0019
594.0506	0.0057
594.2419	-0.009
594.4331	-0.0051
594.6244	0.0043
594.8156	0.0036
595.0067	-0.0061
595.1979	-0.0041
595.3891	0.0018
595.5802	-0.0011
595.7713	-0.0047
595.9624	0.0032
596.1535	0.0023
596.3446	-0.0021
596.5357	-0.0028
596.7267	-0.0004
596.9177	-0.0005
597.1087	0.0019
597.2997	0.0013
597.4907	0.0052
597.6817	0.0037
597.8726	0.0078
598.0635	0.005
598.2544	0.0021
598.4453	-0.0029
598.6362	-0.0063
598.827	0.0012
599.0179	-0.0021
599.2087	-0.0008
599.3995	0.004
599.5903	0.0023
599.7811	-0.0054
599.9718	0.0016
600.1626	-0.0002
600.3533	0.0007
600.544	-0.0042
600.7347	0.0009
600.9254	0.0031
601.116	0.0017
601.3067	-0.0015
601.4973	0.006
601.6879	-0.0024
601.8785	-0.0031
602.0691	0.003
602.2596	-0.0013
602.4502	0.0013
602.6407	0.0026
602.8312	0.0016
603.0217	0.0012
603.2122	0.0038
603.4027	-0.0053
603.5931	-0.0006
603.7835	0.0019
603.9739	0.0025
604.1643	-0.0016
604.3547	0.0006
604.5451	0.0028
604.7354	-0.0021
604.9257	-0.0004
605.116	-0.0005
605.3063	-0.0041
605.4966	0.002
605.6869	0.0011
605.8771	0.0037
606.0673	0.0029
606.2575	-0.0003
606.4477	0.0041
606.6379	-0.0029
606.8281	-0.0025
607.0182	-0.0009
607.2083	-0.0012
607.3985	0.0047
607.5885	0.0048
607.7786	0.0066
607.9687	-0.0062
608.1587	-0.0051
608.3488	-0.002
608.5388	0.0051
608.7288	-0.0033
608.9187	0.0111
609.1087	0.0059
609.2986	-0.0012
609.4886	0.0059
609.6785	0.0037
609.8684	-0.0047
610.0582	-0.005
610.2481	0.0013
610.4379	-0.0042
610.6278	-0.0126
610.8176	-0.0086
611.0074	-0.0039
611.1971	0.0113
611.3869	0.0005
611.5766	0.0085
611.7664	0.0028
611.9561	0.0033
612.1458	-0.0012
612.3354	0.0041
612.5251	-0.0032
612.7147	0.0018
612.9044	0.0075
613.094	0.0012
613.2836	-0.0033
613.4731	-0.0007
613.6627	0.0088
613.8522	-0.0038
614.0417	-0.0038
614.2313	-0.0079
614.4207	0.0021
614.6102	-0.0051
614.7997	-0.0031
614.9891	-0.0021
615.1785	-0.0038
615.3679	-0.0026
615.5573	-0.0028
615.7467	-0.0047
615.9361	-0.0043
616.1254	-0.0038
616.3147	-0.0005
616.504	-0.0046
616.6933	-0.0014
616.8826	0.0032
617.0718	-0.0038
617.2611	-0.0068
617.4503	-0.0041
617.6395	0.0027
617.8287	0.0086
618.0179	0.0021
618.207	-0.0048
618.3961	0.0012
618.5853	0.0025
618.7744	-0.0007
618.9634	0.002
619.1525	-0.0003
619.3416	0.0018
619.5306	-0.0012
619.7196	-0.0044
619.9086	0.0072
620.0976	0.0038
620.2866	0.0072
620.4755	0.0144
620.6645	-0.0191
620.8534	-0.0024
621.0423	-0.0037
621.2312	-0.0036
621.42	-0.0048
621.6089	-0.002
621.7977	0.0052
621.9865	0.0021
622.1753	0.0028
622.3641	-0.0143
622.5529	-0.0041
622.7416	0.0015
622.9303	-0.0056
623.1191	-0.0088
623.3078	-0.0035
623.4964	-0.0084
623.6851	0.0041
623.8737	0.0068
624.0624	-0.0081
624.251	-0.001
624.4396	-0.0033
624.6282	0.0039
624.8167	0.0044
625.0053	0.0011
625.1938	0.0022
625.3823	-0.0049
625.5708	-0.0018
625.7593	0.001
625.9477	-0.015
626.1362	-0.0081
626.3246	-0.006
626.513	0.0042
626.7014	-0.003
626.8898	-0.0003
627.0781	0.0038
627.2665	0.0054
627.4548	0.0006
627.6431	-0.0024
627.8314	0.002
628.0197	0.0075
628.2079	0.0074
628.3962	0.0108
628.5844	0.0069
628.7726	-0.0044
628.9608	-0.0038
629.1489	-0.003
629.3371	-0.002
629.5252	0.0106
629.7134	0.0106
629.9015	-0.0102
630.0895	-0.0064
630.2776	0.0007
630.4657	0.007
630.6537	-0.0069
630.8417	-0.011
631.0297	-0.0063
631.2177	0.0005
631.4057	-0.0115
631.5936	-0.0084
631.7815	-0.0034
631.9695	0.0073
632.1574	-0.0058
632.3452	-0.0042
632.5331	-0.0076
632.7209	0.0096
632.9088	-0.011
633.0966	0.0126
633.2844	-0.0083
633.4722	0.0028
633.6599	-0.0258
633.8477	0.0083
634.0354	-0.0075
634.2231	0.0066
634.4108	-0.0082
634.5985	-0.0102
634.7861	-0.0139
634.9738	-0.0069
635.1614	0.0093
635.349	-0.0199
635.5366	0.0123
635.7242	-0.0061
635.9117	0.0102
636.0993	-0.0247
636.2868	-0.0068
636.4743	0.0256
636.6618	-0.0033
636.8492	0.0054
637.0367	-0.0117
637.2241	-0.0047
637.4115	0.0105
637.5989	0.0102
637.7863	-0.0174
637.9737	0.0041
638.161	0.007
638.3484	0.0122
638.5357	-0.0018
638.723	-0.0055
638.9103	0.0006
639.0975	0.0098
639.2848	0.0146
639.472	-0.0061
639.6592	0.0067
639.8464	0.0171
640.0336	0.0099
640.2208	-0.0071
640.4079	0.0014
640.595	-0.006
640.7821	-0.0179
640.9692	0.019
641.1563	0.0077
641.3434	0.0024
641.5304	-0.0067
641.7174	-0.0011
641.9044	0.0019
642.0914	-0.0015
642.2784	0.0202
642.4653	-0.01
642.6523	0.0069
642.8392	0.0056
643.0261	0.0004
643.213	-0.0131
643.3999	0.0055
643.5867	0.004
643.7735	-0.008
643.9604	-0.002
644.1472	-0.002
644.3339	-0.0155
644.5207	-0.005
644.7075	-0.0033
644.8942	0.0163
645.0809	-0.0074
645.2676	0.013
645.4543	-0.0144
645.6409	-0.003
645.8276	-0.0097
646.0142	0.0053
646.2008	0.0027
646.3874	-0.0092
646.574	-0.0109
646.7605	0.0022
646.9471	0.004
647.1336	0.003
647.3201	0.0022
647.5066	-0.0026
647.6931	0.0045
647.8795	0.0223
648.0659	-0.0189
648.2524	-0.0079
648.4388	0.0063
648.6252	-0.0054
648.8115	0.0179
648.9979	-0.0058
649.1842	-0.0036
649.3705	-0.002
649.5568	-0.012
649.7431	-0.0087
649.9294	0.0052
650.1156	-0.0166
650.3018	0.0128
650.488	-0.009
650.6742	-0.0034
650.8604	0.0043
651.0466	0.0183
651.2327	-0.0132
651.4188	-0.0034
651.6049	0.001
651.791	0.0223
651.9771	-0.013
652.1632	0.0084
652.3492	0.0101
652.5352	0.0059
652.7212	-0.0143
652.9072	-0.0072
653.0932	0.0064
653.2791	-0.0118
653.465	-0.0099
653.651	0.0137
653.8369	0.0003
654.0227	-0.0044
654.2086	-0.0108
654.3944	-0.0161
654.5803	0.0034
654.7661	-0.0024
654.9519	-0.0013
655.1377	0.0002
655.3234	0.0002
655.5092	0.0002
655.6949	0.0002
655.8806	0.0002
656.0663	0.0002
656.2519	0.0002
656.4376	0.0002
656.6232	0.0002
656.8088	0.0002
656.9945	0.0002
657.18	0.0002
657.3656	0.0002
657.5511	0.0001
657.7367	0.0002
657.9222	0.0002
658.1077	0.0001
658.2932	0.0001
658.4786	0.0001
658.6641	0.0002
658.8495	0.0002
659.0349	0.0002
659.2203	0.0002
659.4057	0.0144
659.591	0.0199
659.7764	0.0072
659.9617	-0.0049
660.147	-0.0044
660.3323	0.0091
660.5176	0.0062
660.7028	0.0152
660.888	0.0127
661.0733	0.0159
661.2585	0.0057
661.4436	0.0102
661.6288	-0.0014
661.8139	0.0076
661.9991	0.0085
662.1842	0.0181
662.3693	0.0035
662.5544	-0.0042
662.7394	0.0141
662.9245	0.0147
663.1095	0.0091
663.2945	-0.0015
663.4795	-0.0034
663.6644	-0.0022
663.8494	0.0242
664.0343	-0.0049
664.2193	-0.014
664.4042	-0.0018
664.589	-0.0066
664.7739	-0.012
664.9587	0.0004
665.1436	0.0001
665.3284	-0.0011
665.5132	-0.003
665.698	0.001
665.8827	-0.0122
666.0675	-0.0033
666.2522	-0.0038
666.4369	-0.0075
666.6216	-0.0183
666.8063	-0.0223
666.9909	-0.0056
667.1756	0.0101
667.3602	-0.0144
667.5448	0.0101
667.7294	0.0176
667.9139	-0.0058
668.0985	0.0054
668.283	0.027
668.4675	-0.0082
668.652	-0.0022
668.8365	-0.012
669.0209	-0.0019
669.2054	0.0028
669.3898	-0.0134
669.5742	0.0136
669.7586	-0.0044
669.943	-0.0419
670.1273	-0.0063
670.3117	0.0027
670.496	0.0054
670.6803	0.0056
670.8646	0.0176
671.0488	-0.0018
671.2331	-0.0065
671.4173	0.0092
671.6015	-0.0069
671.7857	-0.0219
671.9699	0.013
672.1541	0.0027
672.3382	0.0022
672.5223	-0.0032
672.7064	-0.0082
672.8905	-0.0036
673.0746	0.0012
673.2587	0.0097
673.4427	0.0022
673.6267	-0.0285
673.8107	-0.0049
673.9947	-0.0115
674.1787	-0.0004
674.3626	-0.0186
674.5465	0.0068
674.7304	-0.0336
674.9143	0.0046
675.0982	0.0046
675.2821	-0.0013
675.4659	0.0099
675.6497	0.0189
675.8335	-0.0136
676.0173	0.0049
676.2011	-0.0083
676.3849	-0.0034
676.5686	-0.0005
676.7523	0.015
676.936	-0.0253
677.1197	-0.0001
677.3034	0.0111
677.487	-0.0032
677.6706	-0.0174
677.8542	-0.0052
678.0378	-0.0027
678.2214	-0.0113
678.405	0.0062
678.5885	0.0008
678.772	-0.0279
678.9555	0.0046
679.139	-0.0088
679.3225	-0.0147
679.5059	0.0015
679.6894	-0.0107
679.8728	-0.0193
680.0562	0.0114
680.2395	-0.0175
680.4229	-0.0057
680.6062	-0.012
680.7896	-0.0119
680.9729	0.0006
681.1562	0.0009
681.3394	-0.0102
681.5227	-0.0071
681.7059	-0.0213
681.8891	0.004
682.0723	-0.0249
682.2555	0.0293
682.4387	0.0015
682.6218	-0.0219
682.805	-0.0028
682.9881	-0.0024
683.1712	0.0066
683.3542	-0.0177
683.5373	0.0061
683.7203	0.0001
683.9034	-0.004
684.0864	0.0001
684.2694	-0.0021
684.4523	0.0048
684.6353	0.0037
684.8182	-0.0013
685.0011	-0.0132
685.184	-0.0028
685.3669	-0.0141
685.5498	0.0028
685.7326	-0.0219
685.9154	-0.0075
686.0982	0.0091
686.281	-0.0125
686.4638	-0.0041
686.6465	-0.0047
686.8293	0.001
687.012	0.0037
687.1947	0.0066
687.3774	0.0022
687.56	-0.0054
687.7427	0.0219
687.9253	0.0139
688.1079	0.0061
688.2905	-0.0001
688.4731	0.0022
688.6556	-0.0104
688.8382	0.0026
689.0207	0.0085
689.2032	-0.0142
689.3857	-0.0186
689.5681	-0.027
689.7506	-0.0134
689.933	0.0133
690.1154	0.0026
690.2978	-0.0216
690.4802	0.0021
690.6626	-0.0251
690.8449	-0.023
691.0272	-0.0215
691.2095	-0.0183
691.3918	-0.0065
691.5741	0.0123
691.7563	0.0064
691.9386	-0.0059
692.1208	-0.0241
692.303	-0.0109
692.4852	-0.0034
692.6673	-0.0122
692.8495	-0.0092
693.0316	-0.0004
693.2137	0.0456
693.3958	0.0045
693.5778	-0.0427
693.7599	-0.0345
693.9419	0.0124
694.1239	-0.0126
694.3059	-0.0244
694.4879	-0.0132
694.6699	0.0081
694.8518	-0.0104
695.0337	-0.0074
695.2157	-0.0112
695.3975	-0.0109
695.5794	0.0137
695.7613	-0.0006
695.9431	-0.0117
696.1249	-0.0106
696.3067	-0.0032
696.4885	-0.0114
696.6703	0.0143
696.852	-0.0046
697.0337	0.0003
697.2154	0.0076
697.3971	-0.0042
697.5788	0.0223
697.7605	0.0009
697.9421	-0.0156
698.1237	0.0144
698.3053	0.0107
698.4869	0.0109
698.6685	0.0115
698.85	0.0084
699.0315	-0.0048
699.213	0.0254
699.3945	0.0029
699.576	-0.0106
699.7575	-0.0102
699.9389	-0.0181
700.1203	-0.0176
700.3017	-0.0256
700.4831	-0.0053
700.6645	-0.0089
700.8458	0.0165
701.0271	0.0032
701.2084	-0.0222
701.3897	-0.0081
701.571	0.0376
701.7523	-0.0168
701.9335	0.0179
702.1147	0.0053
702.2959	0.0109
702.4771	-0.0026
702.6583	-0.0194
702.8394	-0.0008
703.0205	0.002
703.2016	-0.0023
703.3827	0.0207
703.5638	-0.015
703.7449	-0.0156
703.9259	0.0112
704.1069	0.0096
704.2879	-0.006
704.4689	-0.0019
704.6499	-0.0309
704.8308	-0.0076
705.0117	-0.0379
705.1927	-0.0033
705.3735	0.0027
705.5544	0.0306
705.7353	0.0073
705.9161	0.0059
706.0969	0.0128
706.2777	-0.0017
706.4585	0.0023
706.6393	-0.0067
706.82	-0.0189
707.0007	-0.0042
707.1815	0.0181
707.3621	-0.0109
707.5428	-0.0006
707.7235	0.0223
707.9041	-0.0121
708.0847	-0.0132
708.2653	-0.0016
708.4459	-0.0094
708.6265	-0.0369
708.807	0.018
708.9875	-0.0027
709.168	0.0002
709.3485	0.0034
709.529	0.0281
709.7095	-0.0067
709.8899	-0.0102
710.0703	0.0164
710.2507	-0.01
710.4311	0.0011
710.6115	-0.0028
710.7918	-0.0137
710.9721	-0.0087
711.1524	-0.0061
711.3327	-0.0171
711.513	-0.0332
711.6932	-0.0515
711.8735	0.0011
712.0537	-0.0099
712.2339	0.0245
712.4141	-0.0009
712.5942	0.0305
712.7744	0.0023
712.9545	0.0128
713.1346	-0.004
713.3147	-0.003
713.4947	-0.0093
713.6748	-0.0123
713.8548	-0.0038
714.0348	0.0165
714.2148	-0.0166
714.3948	0.0043
714.5748	-0.009
714.7547	-0.0123
714.9346	-0.0101
715.1145	0.0009
715.2944	0.0109
715.4743	-0.0094
715.6541	-0.0281
715.834	-0.0105
716.0138	0.0301
716.1936	0.0059
716.3733	0.0008
716.5531	0.0234
716.7328	-0.0531
716.9126	-0.0141
717.0923	0.015
717.2719	-0.0104
717.4516	-0.0473
717.6312	-0.0258
717.8109	0.015
717.9905	0.0146
718.1701	-0.0069
718.3496	0.0237
718.5292	-0.0207
718.7087	0.0332
718.8882	0.0191
719.0677	0.001
719.2472	0.0081
719.4267	-0.0145
719.6061	-0.0205
719.7856	-0.0032
719.965	0.034
720.1443	-0.0162
720.3237	0.0249
720.5031	0.0078
720.6824	-0.0182
720.8617	0.004
721.041	0.0198
721.2203	-0.0213
721.3995	-0.0119
721.5788	-0.0074
721.758	-0.0039
721.9372	-0.0115
722.1164	0.0223
722.2956	0.0077
722.4747	0.0155
722.6538	-0.0024
722.8329	-0.0303
723.012	0.0315
723.1911	0.0218
723.3702	-0.0204
723.5492	-0.018
723.7282	-0.0132
723.9072	-0.02
724.0862	-0.0273
724.2652	-0.0215
724.4441	0.0085
724.623	-0.0133
724.8019	-0.0117
724.9808	0.0096
725.1597	-0.0085
725.3385	0.002
725.5174	0.0272
725.6962	0.0364
725.875	-0.0159
726.0538	0.0088
726.2325	0.013
726.4112	0.0006
726.59	0.0137
726.7687	0.0079
726.9474	-0.0093
727.126	-0.0246
727.3047	-0.0013
727.4833	0.0275
727.6619	0.0381
727.8405	-0.0046
728.0191	-0.0417
728.1976	-0.0056
728.3762	-0.016
728.5547	0.0145
728.7332	0.0133
728.9116	-0.0422
729.0901	0.0245
729.2686	-0.0259
729.447	-0.0143
729.6254	0.0094
729.8038	-0.0053
729.9821	0.025
730.1605	-0.0084
730.3388	-0.0023
730.5171	-0.01
730.6954	0.032
730.8737	0.0161
731.0519	0.0137
731.2302	0.0049
731.4084	-0.0015
731.5866	-0.0094
731.7648	-0.0035
731.9429	-0.0176
732.1211	-0.0278
732.2992	-0.0063
732.4773	0.0023
732.6554	-0.0139
732.8335	0.0057
733.0115	-0.0203
733.1896	-0.0047
733.3676	-0.0147
733.5456	0.0017
733.7235	-0.0014
733.9015	-0.0133
734.0794	-0.005
734.2574	0.0178
734.4353	-0.0108
734.6131	-0.0128
734.791	0.0179
734.9689	0.0105
735.1467	0.0061
735.3245	0.0177
735.5023	0.0032
735.68	0.0088
735.8578	-0.0225
736.0355	-0.0023
736.2132	-0.0125
736.3909	-0.001
736.5686	-0.0004
736.7463	-0.0174
736.9239	0.0095
737.1015	-0.0183
737.2791	-0.0048
737.4567	-0.0222
737.6343	-0.0129
737.8118	0.0194
737.9894	0.0056
738.1669	0.0087
738.3444	-0.0035
738.5218	0.0151
738.6993	-0.0092
738.8767	-0.006
739.0541	0.0116
739.2315	-0.0055
739.4089	-0.0084
739.5863	0.0239
739.7636	0.0145
739.9409	0.0144
740.1182	0.003
740.2955	-0.0508
740.4728	0.0216
740.65	-0.0118
740.8272	-0.0499
741.0044	0.0185
741.1816	0.0335
741.3588	-0.0216
741.5359	0.0319
741.7131	0.0063
741.8902	-0.0062
742.0673	0.0257
742.2444	-0.0074
742.4214	-0.003
742.5985	0.0111
742.7755	-0.0238
742.9525	0.0062
743.1295	-0.0155
743.3064	0.0008
743.4834	-0.0254
743.6603	0.0212
743.8372	-0.0059
744.0141	0.016
744.191	-0.0318
744.3678	0.0053
744.5446	-0.002
744.7215	0.0035
744.8982	0.0177
745.075	0.0242
745.2518	-0.0166
745.4285	0.0112
745.6052	0.0016
745.7819	0.0224
745.9586	0.0057
746.1353	0.0059
746.3119	-0.006
746.4885	0.0075
746.6651	-0.0477
746.8417	-0.0073
747.0183	-0.009
747.1948	-0.0065
747.3714	0.0074
747.5479	-0.0008
747.7244	-0.0749
747.9008	0.0019
748.0773	0.0105
748.2537	0.0423
748.4301	0.017
748.6065	-0.0344
748.7829	0.0113
748.9593	0.0127
749.1356	0.0099
749.3119	-0.0028
749.4882	0.0034
749.6645	0.0115
749.8408	0.0018
750.017	-0.0017
750.1933	0.0122
750.3695	-0.0005
750.5457	-0.0185
750.7218	0.0077
750.898	-0.0421
751.0741	0.0008
751.2502	0.0033
751.4263	-0.0311
751.6024	0.0288
751.7784	-0.0308
751.9545	-0.0478
752.1305	-0.0097
752.3065	0.0131
752.4825	-0.0175
752.6584	-0.013
752.8344	0.0173
753.0103	-0.0034
753.1862	-0.0244
753.3621	-0.0337
753.5379	-0.0156
753.7138	-0.0305
753.8896	0.0262
754.0654	0.0133
754.2412	0.0312
754.417	-0.0118
754.5927	-0.026
754.7685	-0.0059
754.9442	0.01
755.1199	-0.0118
755.2956	0.0086
755.4712	-0.0147
755.6469	-0.0046
755.8225	-0.0032
755.9981	-0.0152
756.1736	0.0142
756.3492	-0.016
756.5248	-0.0141
756.7003	0.0012
756.8758	-0.0045
757.0513	0.0007
757.2267	-0.0047
757.4022	-0.0137
757.5776	-0.0317
757.753	-0.0143
757.9284	-0.0065
758.1038	-0.036
758.2791	-0.0061
758.4545	-0.0335
758.6298	-0.0068
758.8051	0.007
758.9803	-0.0112
759.1556	-0.0267
759.3308	-0.0175
759.506	0.0014
759.6812	-0.0109
759.8564	-0.0021
760.0316	0.0053
760.2067	-0.0056
760.3819	0.0001
760.557	0.0018
760.732	0.0203
760.9071	0.0062
761.0821	0.0195
761.2572	-0.0079
761.4322	0.0082
761.6072	-0.0198
761.7821	0.0157
761.9571	0.0059
762.132	0.0082
762.3069	0.0079
762.4818	0.0154
762.6567	0.0327
762.8316	-0.0186
763.0064	-0.0278
763.1812	-0.0142
763.356	0.0009
763.5308	-0.0191
763.7055	-0.0039
763.8803	-0.0087
764.055	0.0025
764.2297	-0.0168
764.4044	-0.0041
764.579	0.0051
764.7537	-0.009
764.9283	-0.0208
765.1029	0.0113
765.2775	-0.0189
765.4521	-0.0114
765.6266	-0.0122
765.8011	-0.0012
765.9756	-0.0099
766.1501	0.0293
766.3246	-0.0178
766.4991	-0.014
766.6735	0.0108
766.8479	-0.011
767.0223	0.0257
767.1967	0.0034
767.371	0.0174
767.5454	0.015
767.7197	-0.0192
767.894	-0.0135
768.0683	0.0084
768.2425	-0.0027
768.4168	0.0074
768.591	0.025
768.7652	0.0157
768.9394	0.0034
769.1135	-0.0063
769.2877	0.0037
769.4618	0.0254
769.6359	0.011
769.81	-0.0088
769.984	0.0029
770.1581	0.0074
770.3321	-0.0126
770.5061	-0.0109
770.6801	0.0145
770.8541	-0.0374
771.028	-0.0236
771.202	-0.0268
771.3759	0.0063
771.5498	-0.0033
771.7236	-0.0025
771.8975	-0.0339
772.0713	-0.0115
772.2451	-0.0061
772.4189	0.0048
772.5927	-0.0375
772.7665	0.0253
772.9402	0.0183
773.1139	-0.0351
773.2876	0.0247
773.4613	0.0245
773.635	-0.0081
773.8086	-0.0268
773.9822	-0.0255
774.1558	0.0036
774.3294	-0.0193
774.503	0.0152
774.6765	0.0381
774.8501	-0.0242
775.0236	0.0153
775.1971	-0.0027
775.3705	-0.02
775.544	0.0338
775.7174	-0.0696
775.8908	0.0499
776.0642	0.0276
776.2376	-0.0681
776.4109	0.0582
776.5843	-0.0128
776.7576	0.0039
776.9309	0.0438
777.1041	0.0014
777.2774	-0.0151
777.4506	-0.0409
777.6238	-0.0283
777.797	-0.0114
777.9702	0.0186
778.1434	-0.0103
778.3165	0.0071
778.4896	-0.0171
778.6627	0.0332
778.8358	0.0217
779.0089	-0.0014
779.1819	-0.0031
779.3549	0.0444
779.5279	0.0122
779.7009	-0.0296
779.8739	-0.0396
780.0468	0.0336
780.2197	-0.0412
780.3926	-0.0101
780.5655	-0.0009
780.7384	-0.0094
780.9112	0.0371
781.0841	-0.0051
781.2569	0.0027
781.4297	0.0425
781.6024	-0.0098
781.7752	-0.0024
781.9479	-0.0522
782.1206	0.0295
782.2933	0.0121
782.466	0.0097
782.6386	0.0118
782.8113	-0.0038
782.9839	0.0032
783.1565	-0.0038
783.329	0.0078
783.5016	0.0182
783.6741	-0.0138
783.8466	-0.0369
784.0191	-0.0032
784.1916	-0.046
784.3641	-0.0283
784.5365	0.0496
784.7089	-0.0011
784.8813	0.0398
785.0537	-0.0182
785.2261	0.026
785.3984	-0.0376
785.5707	0.043
785.743	-0.0505
785.9153	-0.0024
786.0876	-0.0486
786.2598	0.0107
786.432	-0.008
786.6042	0.0347
786.7764	-0.0035
786.9486	-0.0147
787.1207	0.0227
787.2928	-0.0107
787.4649	-0.0034
787.637	0.0113
787.8091	-0.0096
787.9811	0.0193
788.1532	0.0087
788.3252	0.0103
788.4972	-0.0164
788.6691	0.0349
788.8411	-0.0144
789.013	-0.0227
789.1849	0.0335
789.3568	0.0131
789.5287	-0.0485
789.7005	0.0106
789.8723	-0.0358
790.0442	-0.0593
790.2159	0.0357
790.3877	-0.0141
790.5595	0.0824
790.7312	-0.0417
790.9029	-0.0065
791.0746	0.0371
791.2463	-0.0113
791.4179	-0.0099
791.5896	0.0142
791.7612	-0.0563
791.9328	-0.0374
792.1044	0.0032
792.2759	0.004
792.4474	-0.0082
792.619	0.0767
792.7905	0.0588
792.9619	0.0311
793.1334	0.0019
793.3048	-0.0073
793.4762	-0.0697
793.6476	-0.0267
793.819	-0.0268
793.9904	0.0262
794.1617	-0.0216
794.333	-0.0186
794.5043	0.0098
794.6756	0.0156
794.8469	0.0042
795.0181	-0.0094
795.1893	-0.0051
795.3605	-0.0387
795.5317	0.0266
795.7029	0.0254
795.874	0.016
796.0452	0.004
796.2163	0.0245
796.3873	0.0115
796.5584	0.0446
796.7294	-0.087
796.9005	0.0046
797.0715	0.0082
797.2425	0.0595
797.4134	0.0216
797.5844	0.0393
797.7553	0.0099
797.9262	0.0256
798.0971	-0.0407
798.2679	0.0104
798.4388	-0.0705
798.6096	0.0396
798.7804	-0.0144
798.9512	0.0067
799.122	0.0352
799.2927	0.0081
799.4635	0.1166
799.6342	0.0262
799.8049	0.0492
799.9755	0.0487
800.1462	0.066
800.3168	0.0144
800.4874	0.0225
800.658	0.0609
800.8286	-0.0075
800.9991	0.0009
801.1696	-0.0021
801.3402	-0.0715
801.5106	-0.0405
801.6811	-0.0305
801.8516	-0.0265
802.022	0.0222
802.1924	-0.0647
802.3628	-0.0347
802.5332	-0.1167
802.7035	-0.0701
802.8739	0.0771
803.0442	0.0652
803.2145	0.0029
803.3847	-0.0335
803.555	-0.0302
803.7252	0.0466
803.8954	0.0858
804.0656	-0.0006
804.2358	-0.0765
804.4059	0.0521
804.5761	0.0117
804.7462	-0.0082
804.9163	-0.0159
805.0864	0.0114
805.2564	0.0104
805.4264	-0.0025
805.5965	0.0129
805.7665	0.0384
805.9364	-0.1109
806.1064	-0.0031
806.2763	0.0064
806.4462	0.0427
806.6161	-0.0395
806.786	-0.0054
806.9559	0.0785
807.1257	-0.0202
807.2955	0.0113
807.4653	-0.0318
807.6351	-0.0289
807.8048	-0.0602
807.9746	-0.0169
808.1443	-0.0208
808.314	0.0113
808.4837	-0.0648
808.6533	0.0798
808.8229	-0.059
808.9926	-0.0555
809.1622	-0.0321
809.3317	-0.0127
809.5013	0.22
809.6708	0.0991
809.8403	0.087
810.0098	0.1294
810.1793	-0.0299
810.3488	0.0162
810.5182	0.0599
810.6876	-0.0047
810.857	-0.0548
811.0264	-0.0526
811.1958	-0.0497
811.3651	0.0015
811.5344	-0.0252
811.7037	-0.0887
811.873	0.0803
812.0422	0.0255
812.2115	0.1336
812.3807	0.1063
812.5499	0.0331
812.7191	0.065
812.8882	-0.077
813.0574	-0.0275
813.2265	-0.0041
813.3956	0.0036
813.5646	0.0294
813.7337	-0.0054
813.9027	-0.052
814.0718	-0.0022
814.2407	-0.1082
814.4097	-0.0054
814.5787	0.0023
814.7476	0.0394
814.9165	-0.0357
815.0854	0.095
815.2543	0.0138
815.4232	0.0095
815.592	0.1218
815.7608	0.181
815.9296	-0.0376
816.0984	0.0214
816.2671	0.0074
816.4359	0.0851
816.6046	0.0706
816.7733	-0.0015
816.942	0.0821
817.1106	-0.1713
817.2793	-0.0182
817.4479	-0.0068
817.6165	-0.0316
817.785	-0.0205
817.9536	0.0488
818.1221	-0.0124
818.2906	0.2444
818.4591	0.0508
818.6276	0.0595
818.7961	-0.0068
818.9645	-0.0164
819.1329	0.1912
819.3013	-0.0791
819.4697	0.2345
819.638	0.0333
819.8064	-0.1176
819.9747	0.0281
820.143	0.1377
820.3113	0.0527
820.4795	0.0456
820.6477	0.018
820.816	0.0336
820.9842	-0.1089
821.1523	0.0963
821.3205	0.0665
821.4886	0.009
821.6567	-0.0253
821.8248	-0.0342
821.9929	0.0203
822.1609	-0.0661
822.329	0.1231
822.497	-0.0209
822.665	0.2462
822.833	-0.0107
823.0009	0.0167
823.1688	0.2724
823.3367	-0.2227
823.5046	0.1029
823.6725	0.1071
823.8404	0.0146
824.0082	-0.0764
824.176	0.1107
824.3438	0.0571
824.5116	0.1156
824.6793	0.0887
824.847	0.1178
825.0147	0.0274
825.1824	0.1294
825.3501	0.0116
825.5177	0.0375
825.6854	0.0322
825.853	0.0476
826.0206	-0.0761
826.1881	0.3047
826.3557	0.1131
826.5232	0.1566
826.6907	0.0884
826.8582	0.0364
827.0257	0.0623
827.1931	0.181
827.3605	-0.1103
827.528	0.0072
827.6953	0.064
827.8627	0.0729
828.03	-0.054
828.1974	-0.07
828.3647	0.1605
828.532	0.0473
828.6992	0.046
828.8665	0.119
829.0337	0.0698
829.2009	0.0039
829.3681	0.0463
829.5352	0.076
829.7024	0.1646
829.8695	-0.0062
830.0366	0.1768
830.2037	0.0745
830.3707	-0.052
830.5378	0.0434
830.7048	-0.1605
830.8718	-0.078
831.0388	0.2393
831.2057	-0.3091
831.3727	0.2647
831.5396	-0.0031
831.7065	0.2829
831.8734	-0.4453
832.0402	0.0995
832.2071	-0.0638
832.3739	0.1291
832.5407	-0
832.7075	0.4892
832.8742	0.0058
833.041	-0.1529
833.2077	0.1415
833.3744	0.0539
833.541	-0.074
833.7077	0.0074
833.8743	0.0311
834.0409	-0.034
834.2075	0.0186
834.3741	-0.0136
834.5407	-0.1408
834.7072	0.0722
834.8737	0.0747
835.0402	-0.1575
835.2067	0.1393
835.3731	0.0423
835.5395	-0.0888
835.706	-0.1481
835.8723	0.0178
836.0387	0.0388
836.2051	-0
836.3714	-0.1849
836.5377	-0.1134
836.704	0.3805
836.8703	-0.1476
837.0365	0.5147
837.2027	-0.3372
837.3689	1.956
837.5351	-0.3022
837.7013	0.1804
837.8674	-0
838.0335	0.0232
838.1997	0.2721
838.3657	-0.3297
838.5318	-0.3546
838.6978	0.2175
838.8639	0.1325
839.0299	0.4658
839.1958	0.3392
839.3618	0.0052
839.5277	0.5485
839.6937	-0.0294
839.8596	-0.0461
840.0254	0.241
840.1913	0.3769
840.3571	-0.0187
840.523	0.0065
840.6888	0.1185
840.8545	-0.1504
841.0203	-0.0914
841.186	1.4017
841.3517	0.1705
841.5174	0.7213
841.6831	0.3869
841.8488	0.0915
842.0144	0.1325
842.18	-0.0189
842.3456	0.0344
842.5112	-0.3372
842.6767	-0.0296
842.8422	0.0882
843.0077	0.204
843.1732	0.5042
843.3387	-0.1676
843.5042	-0
843.6696	-0
843.835	-0.1834
844.0004	-0.1439
844.1657	0.5154
844.3311	-0.286
844.4964	-0
844.6617	-0
844.827	0.4962
844.9923	0.0654
845.1575	-0
845.3227	0.5269
845.4879	0.0572
845.6531	-0
845.8183	0.6296
845.9834	-0
846.1485	-0.0066
846.3136	0.119
846.4787	-0.3322
846.6438	-0
846.8088	-0
846.9738	-0
847.1388	0.9495
847.3038	0.8657
847.4687	0.9165
847.6337	1.21
847.7986	0.5491
847.9635	0.0705
848.1284	-0
848.2932	-0.0071
848.458	0.151
848.6228	0.2011
848.7876	0.2999
848.9524	-0.048
849.1172	0.6422
849.2819	-0
849.4466	-0
849.6113	0.2746
849.7759	-0
849.9406	-0.1249
850.1052	-0.3784
850.2698	-0
850.4344	0.3444
850.599	-0
850.7635	0.4163
850.928	1.2228
851.0925	-0.2016
851.257	0.0942
851.4215	-0.6107
851.5859	0.0163
851.7503	-0
851.9147	-1.454
852.0791	0.2993
852.2434	-0.2598
852.4078	-0
852.5721	0.197
852.7364	0.2205
852.9007	-0.2259
853.0649	-0
853.2291	0.5172
853.3934	-0
853.5575	-0.3317
853.7217	-0.3585
853.8859	0.5815
854.05	-0.8441
854.2141	-0
854.3782	0.3576
854.5423	-0.3068
854.7063	0.2112
854.8703	-0
855.0343	-0.0145
855.1983	0.1954
855.3623	0.9105
855.5262	-0.7372
855.6901	-0.0585
855.854	-0.1
856.0179	-0
856.1818	-0
856.3456	0.1284
856.5094	-0
856.6732	0.4344
856.837	0.1746
857.0008	-0.1415
857.1645	-0
857.3282	0.244
857.4919	0.5147
857.6556	0.45
857.8192	-0.4767
857.9828	-0.2511
858.1465	0.6514
858.31	-0.4929
858.4736	1.1338
858.6372	0.1818
858.8007	-0.7148
858.9642	0.259
859.1277	-0
859.2911	-0.0406
859.4546	-0.1316
859.618	-0.4279
859.7814	-0
859.9448	0.4418
860.1081	-0
860.2715	0.0659
860.4348	0.173
860.5981	0.1631
860.7614	-0
860.9246	-0.3023
861.0879	-0.2016
861.2511	0.2677
861.4143	-0
861.5774	0.3005
861.7406	-0
861.9037	0.995
862.0668	-0.3307
862.2299	-0
862.393	0.3427
862.556	-0
862.7191	-0.0373
862.8821	0.3001
863.0451	-0
863.208	-0
863.371	0.3423
863.5339	-0.1987
863.6968	-0
863.8597	-0
864.0225	-0
864.1854	-0.363
864.3482	1.1804
864.511	0.4191
864.6737	0.2784
864.8365	0.4404
864.9992	0.1106
865.1619	0.5658
865.3246	-0.3609
865.4873	-0.71
865.65	-0
865.8126	-0
865.9752	-0.465
866.1378	-0.9636
866.3004	0.5508
866.4629	0.2194
866.6254	-0.7712
866.7879	-0
866.9504	-0
867.1129	-0.0391
867.2753	0.0452
867.4377	0.5993
867.6001	0.1451
867.7625	0.1104
867.9249	-0
868.0872	0.7415
868.2495	0.0949
868.4118	0.1256
868.5741	0.0925
868.7363	-0
868.8986	-0.6438
869.0608	-0
869.223	1.3242
869.3851	0.0205
869.5473	-1.5092
869.7094	-0
869.8715	-0
870.0336	0.1565
870.1957	-0
870.3577	0.5001
870.5197	-0.1987
870.6817	-0
870.8437	1.3347
871.0057	-0
871.1676	0.1534
871.3295	0.6487
871.4914	-0
871.6533	-0.3515
871.8151	-0.3045
871.977	1.5508
872.1388	-0.1571
872.3006	0.139
872.4623	-0.0619
872.6241	-1.1663
872.7858	0.5425
872.9475	-0.5666
873.1092	0.2381
873.2709	0.2005
873.4325	-0
873.5941	-0.7818
873.7557	-0.5569
873.9173	-1.0406
874.0789	-0.0126
874.2404	-0.5582
874.4019	0.416
874.5634	0.187
874.7249	0.8293
874.8863	-0
875.0478	-0
875.2092	-0
875.3706	-0.4992
875.5319	0.0986
875.6933	0.2359
875.8546	0.4869
876.0159	-0
876.1772	-0
876.3385	-0.8295
876.4997	-0.3919
876.6609	-0
876.8221	1.3467
876.9833	-0.2187
877.1445	-0.0703
877.3056	-0
877.4667	-0
877.6278	-0.4976
877.7889	-0.2055
877.9499	-0.4177
878.111	-0.0374
878.272	-0
878.433	1.3299
878.5939	0.4416
878.7549	-0
878.9158	-0.787
879.0767	1.2642
879.2376	-0.6116
879.3984	0.2515
879.5593	-0.2208
879.7201	-0.1481
879.8809	-0.0569
880.0417	-0.0124
880.2024	0.608
880.3632	-0.447
880.5239	1.5608
880.6846	-0
880.8452	0.0681
881.0059	-0.507
881.1665	0.5651
881.3271	-0
881.4877	0.3355
881.6483	-1.5111
881.8088	0.1002
881.9693	-0
882.1298	-0
882.2903	-0
