Data from D4ACN5uM480nmA_Absorbance_12-08-01-900.txt Node
Date: Fri Feb 21 12:08:01 GMT 2025
User: LASERRRRR
Spectrometer: FLMT03099
Trigger mode: 0
Integration Time (sec): 1.500000E-2
Scans to average: 1
Electric dark correction enabled: true
Nonlinearity correction enabled: false
Boxcar width: 0
XAxis mode: Wavelengths
Number of Pixels in Spectrum: 3648
>>>>>Begin Spectral Data<<<<<
179.3399	-0.0531
179.5586	-0.0531
179.7771	-0.0531
179.9957	0.2933
180.2143	0.7703
180.4329	-0
180.6514	-0.3068
180.8699	-0
181.0885	-0
181.307	-0.1129
181.5255	0.6669
181.744	-0.5485
181.9625	0.4476
182.181	0.6102
182.3994	-0
182.6179	-0.8802
182.8363	-0
183.0547	-0
183.2732	0.2595
183.4916	0.431
183.71	-0.0047
183.9284	0.2698
184.1467	0.1485
184.3651	0.2981
184.5835	0.1207
184.8018	0.5359
185.0201	0.2359
185.2385	0.0986
185.4568	0.0943
185.6751	0.2421
185.8934	0.5909
186.1117	0.2555
186.3299	0.4172
186.5482	0.1014
186.7664	0.2076
186.9847	0.6093
187.2029	0.1636
187.4211	0.329
187.6393	0.2359
187.8575	0.0904
188.0757	0.4536
188.2939	0.1465
188.512	0.101
188.7302	-0.054
188.9483	0.3747
189.1665	0.5292
189.3846	0.1399
189.6027	0.1075
189.8208	0.4125
190.0389	0.2926
190.257	0.2052
190.475	0.5505
190.6931	0.2121
190.9111	0.7406
191.1292	0.2112
191.3472	0.2012
191.5652	0.4572
191.7832	0.3062
192.0012	0.505
192.2192	0.393
192.4371	0.3113
192.6551	0.4776
192.873	0.3066
193.091	0.5736
193.3089	0.1558
193.5268	0.3278
193.7447	0.2976
193.9626	0.5153
194.1805	0.5415
194.3984	0.3738
194.6162	0.4566
194.8341	0.8444
195.0519	0.5029
195.2697	0.5181
195.4875	0.579
195.7054	0.5387
195.9231	0.4101
196.1409	0.6063
196.3587	0.5684
196.5765	0.5076
196.7942	0.6799
197.012	0.6509
197.2297	0.5963
197.4474	0.844
197.6651	0.509
197.8828	0.6879
198.1005	0.5997
198.3182	0.6629
198.5358	0.6112
198.7535	0.541
198.9711	0.634
199.1888	0.665
199.4064	0.5337
199.624	0.5841
199.8416	0.5525
200.0592	0.6289
200.2767	0.5947
200.4943	0.6906
200.7119	0.6136
200.9294	0.5539
201.1469	0.6435
201.3645	0.6097
201.582	0.5677
201.7995	0.6944
202.017	0.5476
202.2344	0.5556
202.4519	0.5706
202.6694	0.5157
202.8868	0.5922
203.1042	0.5467
203.3217	0.5551
203.5391	0.5133
203.7565	0.5075
203.9739	0.5287
204.1913	0.5135
204.4086	0.5188
204.626	0.5313
204.8433	0.49
205.0607	0.5167
205.278	0.5229
205.4953	0.4591
205.7126	0.4712
205.9299	0.4606
206.1472	0.4825
206.3644	0.4868
206.5817	0.4724
206.7989	0.4767
207.0162	0.4455
207.2334	0.46
207.4506	0.4478
207.6678	0.4361
207.885	0.4242
208.1022	0.4278
208.3194	0.4126
208.5365	0.4675
208.7537	0.4567
208.9708	0.4763
209.1879	0.4492
209.405	0.4108
209.6222	0.4049
209.8392	0.4351
210.0563	0.4469
210.2734	0.4134
210.4905	0.4252
210.7075	0.4194
210.9245	0.4224
211.1416	0.3923
211.3586	0.382
211.5756	0.4265
211.7926	0.3981
212.0096	0.3967
212.2265	0.4048
212.4435	0.4202
212.6604	0.4021
212.8774	0.4234
213.0943	0.4339
213.3112	0.4162
213.5281	0.4345
213.745	0.4085
213.9619	0.3825
214.1788	0.4156
214.3956	0.4075
214.6125	0.4082
214.8293	0.4261
215.0461	0.3916
215.2629	0.3972
215.4798	0.3903
215.6965	0.3871
215.9133	0.4009
216.1301	0.403
216.3469	0.4146
216.5636	0.3981
216.7803	0.4272
216.9971	0.4311
217.2138	0.426
217.4305	0.4346
217.6472	0.419
217.8639	0.4219
218.0805	0.4116
218.2972	0.4418
218.5138	0.4354
218.7305	0.4185
218.9471	0.4221
219.1637	0.4356
219.3803	0.4116
219.5969	0.4244
219.8135	0.4245
220.0301	0.4123
220.2466	0.4355
220.4632	0.4174
220.6797	0.4391
220.8962	0.4327
221.1127	0.4245
221.3292	0.4427
221.5457	0.4302
221.7622	0.4322
221.9787	0.4438
222.1951	0.4381
222.4116	0.4518
222.628	0.4505
222.8444	0.4479
223.0608	0.4316
223.2772	0.4272
223.4936	0.4554
223.71	0.4379
223.9264	0.4552
224.1427	0.4569
224.3591	0.4636
224.5754	0.4496
224.7917	0.4504
225.008	0.4628
225.2243	0.4558
225.4406	0.4708
225.6569	0.461
225.8732	0.4762
226.0894	0.4801
226.3057	0.4481
226.5219	0.4635
226.7381	0.4565
226.9543	0.4698
227.1705	0.4724
227.3867	0.4721
227.6029	0.4756
227.8191	0.4724
228.0352	0.4922
228.2513	0.5055
228.4675	0.4996
228.6836	0.4938
228.8997	0.4976
229.1158	0.5006
229.3319	0.4996
229.548	0.4873
229.764	0.4997
229.9801	0.5049
230.1961	0.4998
230.4121	0.5219
230.6282	0.5053
230.8442	0.5169
231.0602	0.5128
231.2761	0.5164
231.4921	0.52
231.7081	0.5186
231.924	0.5186
232.14	0.5199
232.3559	0.5293
232.5718	0.5331
232.7877	0.5338
233.0036	0.5175
233.2195	0.5239
233.4353	0.5226
233.6512	0.5406
233.867	0.5315
234.0829	0.5212
234.2987	0.5223
234.5145	0.5417
234.7303	0.5362
234.9461	0.5407
235.1619	0.5331
235.3776	0.531
235.5934	0.5342
235.8091	0.5371
236.0249	0.522
236.2406	0.5367
236.4563	0.5376
236.672	0.5375
236.8877	0.5391
237.1034	0.5309
237.319	0.5346
237.5347	0.522
237.7503	0.5357
237.966	0.5291
238.1816	0.5262
238.3972	0.5511
238.6128	0.5308
238.8284	0.5315
239.0439	0.5446
239.2595	0.5357
239.475	0.529
239.6906	0.5312
239.9061	0.526
240.1216	0.5363
240.3371	0.5117
240.5526	0.5218
240.7681	0.5291
240.9836	0.521
241.199	0.5192
241.4145	0.5033
241.6299	0.4974
241.8453	0.4916
242.0607	0.4894
242.2761	0.4776
242.4915	0.4704
242.7069	0.4658
242.9223	0.4577
243.1376	0.443
243.353	0.4445
243.5683	0.4466
243.7836	0.4296
243.9989	0.4231
244.2142	0.4131
244.4295	0.4128
244.6448	0.3989
244.86	0.392
245.0753	0.3839
245.2905	0.3766
245.5057	0.37
245.721	0.3562
245.9362	0.3569
246.1514	0.3451
246.3665	0.337
246.5817	0.3388
246.7969	0.3202
247.012	0.3257
247.2271	0.3056
247.4423	0.3041
247.6574	0.3114
247.8725	0.3019
248.0876	0.2991
248.3026	0.2846
248.5177	0.2808
248.7328	0.2752
248.9478	0.2729
249.1628	0.2721
249.3779	0.2712
249.5929	0.2653
249.8079	0.249
250.0228	0.2483
250.2378	0.2508
250.4528	0.2548
250.6677	0.2489
250.8827	0.2367
251.0976	0.2374
251.3125	0.2364
251.5274	0.2341
251.7423	0.2265
251.9572	0.2254
252.172	0.2177
252.3869	0.2152
252.6017	0.219
252.8166	0.2183
253.0314	0.2234
253.2462	0.2144
253.461	0.2157
253.6758	0.2107
253.8906	0.2097
254.1053	0.1981
254.3201	0.2114
254.5348	0.2013
254.7496	0.205
254.9643	0.2031
255.179	0.2048
255.3937	0.1973
255.6083	0.1967
255.823	0.1959
256.0377	0.204
256.2523	0.1946
256.467	0.1954
256.6816	0.1941
256.8962	0.1956
257.1108	0.1929
257.3254	0.1873
257.54	0.1958
257.7545	0.2
257.9691	0.1929
258.1836	0.1842
258.3981	0.1844
258.6127	0.1877
258.8272	0.1905
259.0417	0.1856
259.2561	0.1876
259.4706	0.1959
259.6851	0.1888
259.8995	0.1804
260.114	0.1853
260.3284	0.1841
260.5428	0.184
260.7572	0.1891
260.9716	0.1886
261.186	0.1797
261.4003	0.1861
261.6147	0.1836
261.829	0.184
262.0433	0.1864
262.2577	0.1895
262.472	0.1889
262.6863	0.1881
262.9005	0.1876
263.1148	0.1837
263.3291	0.1852
263.5433	0.1832
263.7576	0.1837
263.9718	0.1888
264.186	0.1866
264.4002	0.1849
264.6144	0.1887
264.8286	0.1899
265.0427	0.19
265.2569	0.1833
265.471	0.1857
265.6851	0.1793
265.8993	0.1927
266.1134	0.1894
266.3275	0.1874
266.5415	0.1824
266.7556	0.1826
266.9697	0.1826
267.1837	0.1776
267.3978	0.1923
267.6118	0.1825
267.8258	0.1879
268.0398	0.1881
268.2538	0.1854
268.4677	0.1804
268.6817	0.1724
268.8957	0.1824
269.1096	0.1789
269.3235	0.1872
269.5374	0.1814
269.7514	0.1794
269.9652	0.1844
270.1791	0.1798
270.393	0.182
270.6068	0.174
270.8207	0.1754
271.0345	0.1757
271.2483	0.1791
271.4622	0.1774
271.676	0.1745
271.8897	0.1715
272.1035	0.1763
272.3173	0.174
272.531	0.177
272.7448	0.1734
272.9585	0.1735
273.1722	0.1758
273.3859	0.1663
273.5996	0.1724
273.8133	0.1682
274.0269	0.1778
274.2406	0.1724
274.4542	0.164
274.6679	0.1661
274.8815	0.1766
275.0951	0.1753
275.3087	0.1742
275.5223	0.1705
275.7358	0.1757
275.9494	0.1716
276.1629	0.1755
276.3765	0.1756
276.59	0.1766
276.8035	0.1734
277.017	0.1783
277.2305	0.1778
277.444	0.1785
277.6574	0.1751
277.8709	0.1795
278.0843	0.1735
278.2978	0.1796
278.5112	0.1792
278.7246	0.1783
278.938	0.1793
279.1513	0.1807
279.3647	0.1756
279.5781	0.1783
279.7914	0.1813
280.0047	0.1817
280.2181	0.1798
280.4314	0.1809
280.6447	0.1856
280.8579	0.1809
281.0712	0.1806
281.2845	0.1835
281.4977	0.1888
281.711	0.1856
281.9242	0.1832
282.1374	0.1828
282.3506	0.1846
282.5638	0.1841
282.7769	0.1863
282.9901	0.1899
283.2033	0.1903
283.4164	0.1855
283.6295	0.184
283.8426	0.1826
284.0557	0.1885
284.2688	0.1925
284.4819	0.1868
284.695	0.1904
284.908	0.192
285.1211	0.1876
285.3341	0.1949
285.5471	0.1958
285.7601	0.1902
285.9731	0.1926
286.1861	0.1879
286.3991	0.1939
286.612	0.1987
286.825	0.1876
287.0379	0.2027
287.2508	0.1983
287.4637	0.1948
287.6766	0.1945
287.8895	0.1964
288.1024	0.1958
288.3152	0.1966
288.5281	0.1995
288.7409	0.1921
288.9538	0.1965
289.1666	0.2
289.3794	0.2037
289.5922	0.1989
289.8049	0.2039
290.0177	0.1993
290.2304	0.2002
290.4432	0.2011
290.6559	0.1939
290.8686	0.1996
291.0813	0.2012
291.294	0.2074
291.5067	0.2022
291.7194	0.1971
291.932	0.1976
292.1447	0.1967
292.3573	0.1975
292.5699	0.2015
292.7825	0.2024
292.9951	0.2006
293.2077	0.2022
293.4203	0.207
293.6328	0.1956
293.8454	0.2051
294.0579	0.2068
294.2704	0.1975
294.4829	0.2013
294.6954	0.2018
294.9079	0.2049
295.1204	0.1972
295.3328	0.201
295.5453	0.1966
295.7577	0.1981
295.9701	0.1983
296.1825	0.1999
296.3949	0.1973
296.6073	0.1995
296.8197	0.2044
297.0321	0.2035
297.2444	0.198
297.4567	0.1947
297.6691	0.1989
297.8814	0.1994
298.0937	0.1959
298.306	0.2008
298.5182	0.2019
298.7305	0.2012
298.9428	0.1976
299.155	0.1958
299.3672	0.2026
299.5794	0.1956
299.7916	0.2011
300.0038	0.1981
300.216	0.2064
300.4282	0.1935
300.6403	0.1981
300.8525	0.2001
301.0646	0.1978
301.2767	0.1982
301.4888	0.201
301.7009	0.1965
301.913	0.1975
302.125	0.1992
302.3371	0.1977
302.5491	0.2019
302.7612	0.1963
302.9732	0.1949
303.1852	0.194
303.3972	0.1897
303.6092	0.1921
303.8211	0.192
304.0331	0.1956
304.245	0.1931
304.457	0.1969
304.6689	0.1936
304.8808	0.1941
305.0927	0.195
305.3046	0.1828
305.5164	0.1872
305.7283	0.1885
305.9401	0.1805
306.152	0.1809
306.3638	0.1832
306.5756	0.1808
306.7874	0.1811
306.9992	0.1751
307.2109	0.1746
307.4227	0.1684
307.6344	0.1743
307.8462	0.1722
308.0579	0.167
308.2696	0.1675
308.4813	0.1601
308.693	0.1668
308.9046	0.1579
309.1163	0.1552
309.328	0.1515
309.5396	0.1641
309.7512	0.1551
309.9628	0.1543
310.1744	0.1503
310.386	0.1498
310.5976	0.1443
310.8091	0.1487
311.0207	0.1489
311.2322	0.1486
311.4437	0.1427
311.6552	0.147
311.8667	0.1402
312.0782	0.1431
312.2897	0.1453
312.5012	0.1442
312.7126	0.1305
312.924	0.1399
313.1355	0.1329
313.3469	0.1279
313.5583	0.131
313.7696	0.1289
313.981	0.1248
314.1924	0.1279
314.4037	0.1243
314.6151	0.1292
314.8264	0.1268
315.0377	0.1275
315.249	0.121
315.4603	0.1245
315.6716	0.1281
315.8828	0.1205
316.0941	0.1256
316.3053	0.124
316.5165	0.1232
316.7277	0.1228
316.9389	0.1201
317.1501	0.1189
317.3613	0.117
317.5724	0.1225
317.7836	0.1181
317.9947	0.1146
318.2058	0.1183
318.417	0.1155
318.6281	0.1172
318.8391	0.1194
319.0502	0.1226
319.2613	0.1144
319.4723	0.1159
319.6834	0.1175
319.8944	0.1225
320.1054	0.1136
320.3164	0.1186
320.5274	0.1109
320.7383	0.1156
320.9493	0.1143
321.1602	0.1155
321.3712	0.1174
321.5821	0.117
321.793	0.1154
322.0039	0.1149
322.2148	0.1227
322.4257	0.118
322.6365	0.1137
322.8474	0.1126
323.0582	0.1221
323.269	0.1151
323.4798	0.116
323.6906	0.1144
323.9014	0.1176
324.1122	0.114
324.3229	0.1196
324.5337	0.1238
324.7444	0.1166
324.9551	0.1178
325.1658	0.1176
325.3765	0.1194
325.5872	0.124
325.7979	0.1176
326.0085	0.1204
326.2192	0.1155
326.4298	0.1214
326.6404	0.118
326.851	0.116
327.0616	0.126
327.2722	0.127
327.4828	0.1143
327.6933	0.1194
327.9039	0.1254
328.1144	0.1199
328.3249	0.1227
328.5354	0.1231
328.7459	0.1227
328.9564	0.125
329.1669	0.1245
329.3773	0.1237
329.5878	0.1191
329.7982	0.1277
330.0086	0.1237
330.219	0.1261
330.4294	0.1256
330.6398	0.1323
330.8502	0.1205
331.0605	0.1188
331.2708	0.1265
331.4812	0.1262
331.6915	0.1201
331.9018	0.1234
332.1121	0.1332
332.3224	0.1313
332.5326	0.1283
332.7429	0.1196
332.9531	0.1281
333.1633	0.1279
333.3735	0.1249
333.5837	0.1287
333.7939	0.1274
334.0041	0.1246
334.2143	0.1269
334.4244	0.1197
334.6346	0.1229
334.8447	0.1288
335.0548	0.1264
335.2649	0.1307
335.475	0.1288
335.685	0.1253
335.8951	0.1327
336.1051	0.1306
336.3152	0.1317
336.5252	0.1277
336.7352	0.1252
336.9452	0.1326
337.1552	0.1288
337.3652	0.1289
337.5751	0.131
337.7851	0.1282
337.995	0.1337
338.2049	0.1268
338.4148	0.13
338.6247	0.1334
338.8346	0.1283
339.0445	0.1315
339.2543	0.1382
339.4642	0.137
339.674	0.132
339.8838	0.1342
340.0936	0.1369
340.3034	0.1359
340.5132	0.1301
340.7229	0.1378
340.9327	0.1377
341.1424	0.1385
341.3522	0.144
341.5619	0.1334
341.7716	0.1416
341.9813	0.1413
342.1909	0.1408
342.4006	0.1452
342.6102	0.1384
342.8199	0.136
343.0295	0.1445
343.2391	0.1392
343.4487	0.1457
343.6583	0.1488
343.8679	0.1458
344.0774	0.1423
344.287	0.1474
344.4965	0.1436
344.706	0.1437
344.9155	0.1455
345.125	0.1402
345.3345	0.1455
345.544	0.1446
345.7534	0.1514
345.9629	0.1518
346.1723	0.1476
346.3817	0.153
346.5911	0.1503
346.8005	0.1518
347.0099	0.1517
347.2193	0.148
347.4286	0.1511
347.638	0.1518
347.8473	0.1525
348.0566	0.1497
348.2659	0.1607
348.4752	0.1545
348.6845	0.1625
348.8937	0.1586
349.103	0.1582
349.3122	0.1648
349.5214	0.1596
349.7306	0.158
349.9398	0.1551
350.149	0.1579
350.3582	0.1594
350.5674	0.1632
350.7765	0.1622
350.9856	0.1608
351.1948	0.1669
351.4039	0.1673
351.613	0.1693
351.822	0.1699
352.0311	0.1619
352.2402	0.1664
352.4492	0.1722
352.6582	0.169
352.8672	0.1747
353.0762	0.1733
353.2852	0.1715
353.4942	0.1717
353.7032	0.1708
353.9121	0.175
354.1211	0.1751
354.33	0.1823
354.5389	0.1797
354.7478	0.181
354.9567	0.1818
355.1655	0.1819
355.3744	0.1792
355.5833	0.1833
355.7921	0.1773
356.0009	0.1749
356.2097	0.1864
356.4185	0.1895
356.6273	0.1842
356.8361	0.198
357.0448	0.1903
357.2536	0.1833
357.4623	0.1868
357.671	0.1933
357.8797	0.1906
358.0884	0.1908
358.2971	0.1883
358.5057	0.1918
358.7144	0.2006
358.923	0.2019
359.1316	0.1914
359.3402	0.2021
359.5488	0.1996
359.7574	0.2029
359.966	0.204
360.1746	0.2105
360.3831	0.2002
360.5916	0.2069
360.8002	0.2093
361.0087	0.2105
361.2172	0.2121
361.4256	0.2001
361.6341	0.2189
361.8426	0.2051
362.051	0.2125
362.2594	0.2117
362.4678	0.2167
362.6762	0.2099
362.8846	0.2193
363.093	0.2148
363.3014	0.2176
363.5097	0.2093
363.718	0.2293
363.9264	0.2272
364.1347	0.2291
364.343	0.2313
364.5513	0.2255
364.7595	0.2302
364.9678	0.2326
365.176	0.2302
365.3842	0.2323
365.5925	0.2205
365.8007	0.2325
366.0089	0.2329
366.217	0.2364
366.4252	0.2389
366.6333	0.2335
366.8415	0.2378
367.0496	0.233
367.2577	0.2479
367.4658	0.2476
367.6739	0.2407
367.882	0.2545
368.09	0.249
368.2981	0.2414
368.5061	0.2461
368.7141	0.2435
368.9221	0.24
369.1301	0.2503
369.3381	0.2543
369.5461	0.2594
369.754	0.2491
369.962	0.2532
370.1699	0.2681
370.3778	0.2547
370.5857	0.2586
370.7936	0.2609
371.0015	0.2484
371.2093	0.267
371.4172	0.2573
371.625	0.2691
371.8328	0.2655
372.0406	0.2672
372.2484	0.2695
372.4562	0.2663
372.664	0.265
372.8717	0.2664
373.0795	0.2689
373.2872	0.2712
373.4949	0.2758
373.7026	0.2825
373.9103	0.267
374.118	0.2733
374.3256	0.2724
374.5333	0.2723
374.7409	0.2681
374.9485	0.2674
375.1561	0.2805
375.3637	0.2755
375.5713	0.2682
375.7789	0.2789
375.9864	0.2822
376.194	0.2951
376.4015	0.2908
376.609	0.2828
376.8165	0.2853
377.024	0.2806
377.2315	0.2951
377.4389	0.2724
377.6464	0.293
377.8538	0.2886
378.0612	0.2803
378.2686	0.2816
378.476	0.2941
378.6834	0.2831
378.8908	0.2953
379.0981	0.3013
379.3055	0.2969
379.5128	0.2987
379.7201	0.3018
379.9274	0.2918
380.1347	0.3132
380.342	0.3056
380.5492	0.3013
380.7565	0.3025
380.9637	0.3014
381.1709	0.3028
381.3781	0.2993
381.5853	0.3048
381.7925	0.3041
381.9997	0.3001
382.2068	0.3043
382.4139	0.2976
382.6211	0.2995
382.8282	0.3095
383.0353	0.3083
383.2424	0.305
383.4494	0.3045
383.6565	0.316
383.8635	0.3209
384.0706	0.3116
384.2776	0.3192
384.4846	0.3156
384.6916	0.3036
384.8986	0.322
385.1055	0.3126
385.3125	0.316
385.5194	0.3059
385.7263	0.3096
385.9333	0.309
386.1402	0.3174
386.347	0.3146
386.5539	0.321
386.7608	0.3161
386.9676	0.3119
387.1744	0.3219
387.3813	0.3187
387.5881	0.3181
387.7948	0.3167
388.0016	0.3131
388.2084	0.3146
388.4151	0.3084
388.6219	0.3171
388.8286	0.3108
389.0353	0.3028
389.242	0.3091
389.4487	0.3068
389.6553	0.3117
389.862	0.3057
390.0686	0.3079
390.2753	0.2981
390.4819	0.3089
390.6885	0.3085
390.8951	0.3145
391.1016	0.3079
391.3082	0.2949
391.5147	0.2965
391.7213	0.2955
391.9278	0.2978
392.1343	0.3001
392.3408	0.2964
392.5473	0.2876
392.7537	0.2949
392.9602	0.3002
393.1666	0.2844
393.373	0.2922
393.5794	0.2917
393.7858	0.2958
393.9922	0.2885
394.1986	0.2856
394.4049	0.2862
394.6113	0.285
394.8176	0.2776
395.0239	0.2789
395.2302	0.273
395.4365	0.274
395.6428	0.2843
395.8491	0.2854
396.0553	0.2719
396.2615	0.2696
396.4678	0.2791
396.674	0.2811
396.8802	0.2694
397.0863	0.2704
397.2925	0.2702
397.4987	0.2681
397.7048	0.2738
397.9109	0.2819
398.117	0.2691
398.3231	0.2822
398.5292	0.2777
398.7353	0.2692
398.9413	0.2687
399.1474	0.2767
399.3534	0.2713
399.5594	0.275
399.7654	0.2701
399.9714	0.2658
400.1774	0.2643
400.3833	0.2666
400.5893	0.2642
400.7952	0.2686
401.0011	0.2611
401.207	0.269
401.4129	0.2623
401.6188	0.2661
401.8247	0.2602
402.0305	0.2623
402.2364	0.2655
402.4422	0.2675
402.648	0.2793
402.8538	0.2746
403.0596	0.2591
403.2654	0.2657
403.4711	0.2679
403.6768	0.2708
403.8826	0.2634
404.0883	0.2555
404.294	0.2662
404.4997	0.2608
404.7054	0.2635
404.911	0.2702
405.1167	0.2734
405.3223	0.2716
405.5279	0.2591
405.7335	0.2647
405.9391	0.257
406.1447	0.2659
406.3502	0.2656
406.5558	0.2711
406.7613	0.2803
406.9668	0.2776
407.1724	0.2798
407.3778	0.265
407.5833	0.264
407.7888	0.2697
407.9942	0.2711
408.1997	0.261
408.4051	0.263
408.6105	0.2679
408.8159	0.2695
409.0213	0.2634
409.2267	0.2599
409.432	0.2688
409.6374	0.271
409.8427	0.2665
410.048	0.2618
410.2533	0.2601
410.4586	0.2667
410.6639	0.2681
410.8691	0.2622
411.0744	0.2719
411.2796	0.2673
411.4848	0.2655
411.69	0.2588
411.8952	0.2686
412.1004	0.261
412.3056	0.2641
412.5107	0.2684
412.7158	0.2664
412.921	0.2688
413.1261	0.2624
413.3312	0.2694
413.5362	0.2692
413.7413	0.2665
413.9464	0.2652
414.1514	0.2662
414.3564	0.2575
414.5614	0.2565
414.7664	0.2539
414.9714	0.2664
415.1764	0.2647
415.3813	0.2546
415.5863	0.2593
415.7912	0.2629
415.9961	0.2548
416.201	0.2672
416.4059	0.2624
416.6108	0.2584
416.8156	0.2567
417.0205	0.2587
417.2253	0.268
417.4301	0.2545
417.6349	0.2688
417.8397	0.2688
418.0445	0.2586
418.2492	0.2613
418.454	0.2535
418.6587	0.266
418.8634	0.2504
419.0681	0.2481
419.2728	0.2583
419.4775	0.26
419.6822	0.2463
419.8868	0.2587
420.0915	0.2623
420.2961	0.242
420.5007	0.2523
420.7053	0.252
420.9099	0.2395
421.1144	0.2408
421.319	0.2476
421.5235	0.2467
421.728	0.2465
421.9325	0.2495
422.137	0.246
422.3415	0.2376
422.546	0.2437
422.7504	0.2463
422.9549	0.2407
423.1593	0.2404
423.3637	0.2282
423.5681	0.2395
423.7725	0.2401
423.9769	0.2442
424.1812	0.233
424.3856	0.2381
424.5899	0.2331
424.7942	0.2265
424.9985	0.2277
425.2028	0.2355
425.4071	0.2205
425.6113	0.2334
425.8156	0.2304
426.0198	0.2208
426.224	0.2323
426.4282	0.2194
426.6324	0.2262
426.8366	0.2158
427.0407	0.2259
427.2449	0.2275
427.449	0.2199
427.6531	0.2066
427.8572	0.2206
428.0613	0.2017
428.2654	0.2297
428.4694	0.2106
428.6735	0.209
428.8775	0.2131
429.0815	0.2084
429.2855	0.2062
429.4895	0.2006
429.6935	0.2028
429.8975	0.2043
430.1014	0.1948
430.3053	0.2018
430.5093	0.1996
430.7132	0.2038
430.9171	0.1808
431.1209	0.1912
431.3248	0.1925
431.5286	0.1841
431.7325	0.189
431.9363	0.1803
432.1401	0.1791
432.3439	0.1808
432.5477	0.1815
432.7514	0.18
432.9552	0.1773
433.1589	0.1712
433.3627	0.1754
433.5664	0.1743
433.7701	0.1756
433.9737	0.1618
434.1774	0.1668
434.3811	0.1643
434.5847	0.1609
434.7883	0.168
434.9919	0.1536
435.1955	0.162
435.3991	0.1597
435.6027	0.1545
435.8062	0.1534
436.0098	0.164
436.2133	0.1585
436.4168	0.1495
436.6203	0.1418
436.8238	0.1448
437.0272	0.1333
437.2307	0.1229
437.4341	0.1374
437.6375	0.1372
437.841	0.1355
438.0443	0.1392
438.2477	0.1233
438.4511	0.1332
438.6545	0.1252
438.8578	0.1306
439.0611	0.1312
439.2644	0.1164
439.4677	0.1175
439.671	0.1117
439.8743	0.1126
440.0775	0.117
440.2808	0.1221
440.484	0.107
440.6872	0.1047
440.8904	0.1115
441.0936	0.1118
441.2967	0.1031
441.4999	0.1069
441.703	0.1017
441.9062	0.1051
442.1093	0.0987
442.3124	0.1029
442.5155	0.0913
442.7185	0.0841
442.9216	0.0881
443.1246	0.0952
443.3276	0.0839
443.5307	0.0929
443.7337	0.0883
443.9366	0.0872
444.1396	0.0821
444.3426	0.0851
444.5455	0.0737
444.7484	0.0751
444.9513	0.0849
445.1542	0.0763
445.3571	0.0642
445.56	0.0724
445.7628	0.0686
445.9657	0.0766
446.1685	0.0841
446.3713	0.0642
446.5741	0.0582
446.7769	0.0638
446.9797	0.0626
447.1824	0.0648
447.3852	0.0622
447.5879	0.0619
447.7906	0.063
447.9933	0.0606
448.196	0.0551
448.3986	0.0544
448.6013	0.064
448.8039	0.0523
449.0066	0.0522
449.2092	0.0426
449.4118	0.0515
449.6143	0.058
449.8169	0.053
450.0195	0.0519
450.222	0.0491
450.4245	0.0494
450.627	0.0456
450.8295	0.04
451.032	0.0451
451.2345	0.0445
451.4369	0.0495
451.6394	0.0479
451.8418	0.0454
452.0442	0.0473
452.2466	0.0372
452.449	0.0341
452.6513	0.0367
452.8537	0.0456
453.056	0.0446
453.2583	0.0377
453.4607	0.0316
453.663	0.0384
453.8652	0.0336
454.0675	0.0399
454.2697	0.0353
454.472	0.0266
454.6742	0.0307
454.8764	0.0279
455.0786	0.0276
455.2808	0.0287
455.4829	0.0263
455.6851	0.0263
455.8872	0.03
456.0893	0.0345
456.2915	0.0227
456.4935	0.0151
456.6956	0.0187
456.8977	0.0262
457.0997	0.0304
457.3018	0.0278
457.5038	0.0302
457.7058	0.0216
457.9078	0.0264
458.1098	0.0262
458.3117	0.0266
458.5137	0.0237
458.7156	0.0292
458.9175	0.0149
459.1194	0.0264
459.3213	0.0139
459.5232	0.0155
459.725	0.0219
459.9269	0.0183
460.1287	0.0096
460.3305	0.0181
460.5323	0.0272
460.7341	0.0126
460.9359	0.0183
461.1376	0.0168
461.3394	0.005
461.5411	0.0208
461.7428	0.0234
461.9445	0.0185
462.1462	0.0114
462.3479	0.0097
462.5495	0.0121
462.7512	0.0094
462.9528	0.0163
463.1544	0.001
463.356	0.0139
463.5576	0.0135
463.7592	0.0015
463.9607	0.0067
464.1623	0.0076
464.3638	0.0127
464.5653	0.0159
464.7668	0.0092
464.9683	0.0224
465.1697	0.0109
465.3712	0.0104
465.5726	0.0158
465.7741	0.0134
465.9755	0.0114
466.1769	0.0089
466.3782	0.0114
466.5796	0.0142
466.7809	0.0223
466.9823	0.0068
467.1836	0.0186
467.3849	0.0164
467.5862	-0.0048
467.7875	0.0074
467.9887	0.005
468.19	0.0091
468.3912	0.0111
468.5924	0.0172
468.7936	0.0084
468.9948	0.005
469.196	0.0063
469.3972	0.0149
469.5983	0.0052
469.7994	0.0073
470.0006	0.0051
470.2017	0.0106
470.4027	0.0021
470.6038	-0.0009
470.8049	0.0039
471.0059	0.0108
471.2069	0.0089
471.408	0.0022
471.6089	0.0053
471.8099	0.0026
472.0109	0.0056
472.2119	0.0224
472.4128	0.0081
472.6137	0.0051
472.8146	0.0025
473.0155	0.0056
473.2164	-0.0038
473.4173	0.0076
473.6181	0.0134
473.819	-0.0014
474.0198	0.0046
474.2206	0.0076
474.4214	0.0175
474.6222	0.0088
474.8229	0.0077
475.0237	0.0049
475.2244	0.0106
475.4251	-0.0041
475.6258	-0.0003
475.8265	-0.0006
476.0272	0.0008
476.2278	-0.0046
476.4285	0.0013
476.6291	0.0098
476.8297	0
477.0303	0.0021
477.2309	-0.0047
477.4315	0.0092
477.632	0.0028
477.8326	0.0046
478.0331	0.0016
478.2336	0.0107
478.4341	0.0038
478.6346	0.0025
478.8351	0.0119
479.0355	0.0083
479.236	0.0051
479.4364	-0.0006
479.6368	0.0073
479.8372	0.0086
480.0376	0.0027
480.2379	0.0055
480.4383	0.004
480.6386	0.0066
480.8389	-0.0016
481.0392	0.0063
481.2395	0.0094
481.4398	0.0046
481.6401	0.009
481.8403	-0.004
482.0405	-0.004
482.2408	0.0066
482.441	0.0028
482.6411	0.0002
482.8413	-0.0007
483.0415	0.0017
483.2416	0.0056
483.4417	0.0005
483.6419	0.0003
483.8419	-0.0036
484.042	-0.0001
484.2421	-0.0051
484.4422	0.0111
484.6422	0.0016
484.8422	-0.0022
485.0422	0.0025
485.2422	0.0056
485.4422	0.0014
485.6422	0.0012
485.8421	0.0001
486.042	0.0052
486.242	0.0008
486.4419	0.0077
486.6417	0.0049
486.8416	0.0094
487.0415	-0.0001
487.2413	0.0068
487.4411	0.0019
487.641	0.0058
487.8408	0.0067
488.0405	0.0036
488.2403	-0.0083
488.4401	-0.0072
488.6398	0.0006
488.8395	0.0069
489.0392	0.0048
489.2389	0.0031
489.4386	0.0029
489.6383	-0.0015
489.8379	0.0015
490.0376	0.0128
490.2372	0.0008
490.4368	0.0103
490.6364	0.0095
490.836	-0.0051
491.0355	0.0034
491.2351	0.0083
491.4346	0.0017
491.6341	-0.0041
491.8336	-0.0067
492.0331	-0.0004
492.2326	0.0035
492.432	0.0041
492.6315	-0.0006
492.8309	0.0095
493.0303	-0.0053
493.2297	-0.0013
493.4291	-0.0027
493.6284	0.0031
493.8278	-0.0001
494.0271	0.0003
494.2264	0.0036
494.4257	0.0026
494.625	-0.0031
494.8243	0
495.0236	0.0028
495.2228	-0.0056
495.422	0.0025
495.6213	0.0036
495.8205	0.0054
496.0196	0.0041
496.2188	-0.0014
496.418	-0.0038
496.6171	0.0049
496.8162	-0.0012
497.0153	-0.0013
497.2144	-0.0012
497.4135	0.0052
497.6126	-0.0002
497.8116	-0.0046
498.0107	-0.0052
498.2097	0.005
498.4087	0.0025
498.6077	0.0056
498.8067	0.0137
499.0056	-0.0019
499.2046	0.0045
499.4035	-0.0012
499.6024	-0.003
499.8013	0.0043
500.0002	0.0088
500.199	0.0054
500.3979	0.0067
500.5967	0.0006
500.7956	-0.0003
500.9944	0.0034
501.1932	0.0041
501.3919	0.0051
501.5907	0.0106
501.7895	-0.002
501.9882	0.0009
502.1869	-0.0007
502.3856	-0.0025
502.5843	0.0055
502.783	0.0033
502.9816	-0.0106
503.1803	0.0038
503.3789	0.0068
503.5775	-0.0009
503.7761	0.006
503.9747	-0.0055
504.1732	0.0026
504.3718	0.0025
504.5703	0.0061
504.7689	-0.004
504.9674	-0.0059
505.1658	0.0016
505.3643	-0.0037
505.5628	0.0127
505.7612	0.005
505.9597	0.0043
506.1581	-0.0018
506.3565	-0.0044
506.5549	0.0044
506.7532	-0.0028
506.9516	0.001
507.1499	0.0051
507.3482	0.0107
507.5465	0.0025
507.7448	0.0052
507.9431	-0.0036
508.1414	-0.0053
508.3396	0.0009
508.5379	0.0027
508.7361	0.0069
508.9343	0.0071
509.1325	0.008
509.3306	0.006
509.5288	0.0071
509.7269	0.0011
509.9251	-0.0046
510.1232	-0.0041
510.3213	-0.0043
510.5193	-0.0016
510.7174	-0.0099
510.9154	0.0096
511.1135	-0.0016
511.3115	0.0081
511.5095	0.0073
511.7075	-0.005
511.9055	0.0133
512.1034	0.0032
512.3014	-0.0011
512.4993	0.0073
512.6972	0.0007
512.8951	-0.0013
513.093	-0.0035
513.2908	0.0073
513.4887	0.0083
513.6865	0.0033
513.8844	0.0024
514.0822	0.0012
514.2799	-0.0012
514.4777	-0.0006
514.6755	0.0039
514.8732	-0.001
515.0709	0.0127
515.2687	0.0058
515.4664	-0.0083
515.664	0.0055
515.8617	0.0129
516.0594	0.0028
516.257	0.0115
516.4546	-0.0057
516.6522	-0.0018
516.8498	0.0047
517.0474	-0.0136
517.2449	-0.0027
517.4425	0.0017
517.64	0.0043
517.8375	0.0035
518.035	-0.0033
518.2325	-0.004
518.43	0.0027
518.6274	-0.0025
518.8249	0.0064
519.0223	-0.0042
519.2197	0.0051
519.4171	-0.0043
519.6145	0.0004
519.8118	-0.0066
520.0092	-0.0004
520.2065	-0.0017
520.4038	-0.0014
520.6011	0.0072
520.7984	0.0007
520.9956	0.0001
521.1929	0.0046
521.3901	0.0058
521.5874	0.013
521.7846	-0.0032
521.9818	0.002
522.1789	0.0115
522.3761	-0.0029
522.5732	-0.0044
522.7704	0.009
522.9675	0.0009
523.1646	0.0107
523.3617	-0.0023
523.5587	0.0074
523.7558	0.0005
523.9528	0.0116
524.1498	0.0019
524.3468	-0.0025
524.5438	-0.0071
524.7408	-0.0064
524.9378	0.019
525.1347	0.0098
525.3316	0.016
525.5285	-0.0012
525.7254	0.0032
525.9223	-0.0071
526.1192	0.0023
526.316	-0.011
526.5129	0.0057
526.7097	0.0012
526.9065	0.0072
527.1033	-0.0028
527.3	-0.0066
527.4968	0.0034
527.6935	0.0111
527.8903	0.0009
528.087	0.0055
528.2837	0.0068
528.4804	0.0031
528.677	0.005
528.8737	-0.0085
529.0703	0.0105
529.2669	0.0036
529.4635	0.0247
529.6601	0.0076
529.8567	0.0031
530.0532	0.0006
530.2498	-0.0064
530.4463	0.0069
530.6428	-0.0023
530.8393	0.0068
531.0358	-0.0005
531.2322	0.0033
531.4287	-0.0006
531.6251	-0.0014
531.8215	0.007
532.0179	-0.0043
532.2143	0.0106
532.4107	-0.0023
532.607	0.0032
532.8034	0.0041
532.9997	0.0054
533.196	0.0136
533.3923	0.0027
533.5886	0.0085
533.7848	-0.0052
533.9811	-0.0043
534.1773	0.0023
534.3735	0.0084
534.5697	0.0095
534.7659	-0.0015
534.9621	0.0139
535.1582	0.0085
535.3544	0.0055
535.5505	0.0004
535.7466	0.0029
535.9427	0.0043
536.1387	-0.0002
536.3348	0.0094
536.5308	0.0157
536.7269	-0.0052
536.9229	-0.005
537.1189	-0.0075
537.3148	-0.0023
537.5108	-0.0132
537.7068	-0.0048
537.9027	0.0101
538.0986	-0.0091
538.2945	0.0064
538.4904	-0.0033
538.6863	0.008
538.8821	-0.008
539.078	-0.0057
539.2738	-0.0043
539.4696	0.0094
539.6654	0.0023
539.8611	0.0035
540.0569	-0.0052
540.2526	-0.0036
540.4484	-0.0098
540.6441	0.0004
540.8398	-0.0049
541.0355	0.0095
541.2311	-0.0029
541.4268	-0.0047
541.6224	0.006
541.818	-0.0025
542.0136	-0.0043
542.2092	-0.0051
542.4048	0.0108
542.6003	0.0077
542.7959	0.0051
542.9914	-0.0015
543.1869	-0.0009
543.3824	-0.0076
543.5779	0.0045
543.7734	0.0056
543.9688	0.0021
544.1642	0.0078
544.3596	-0.0056
544.555	0.0104
544.7504	0.0052
544.9458	0.0007
545.1411	-0.0007
545.3365	0.0096
545.5318	-0.0054
545.7271	0.0145
545.9224	-0.0041
546.1177	0.0141
546.3129	-0.0089
546.5081	-0.0068
546.7034	0.0045
546.8986	0.0006
547.0938	-0.0071
547.289	0.0003
547.4841	0.0035
547.6793	-0.0081
547.8744	-0.0007
548.0695	0.0055
548.2646	-0.0085
548.4597	0.0037
548.6548	0.0103
548.8498	0.0062
549.0448	0.0074
549.2399	0.0009
549.4349	0.0079
549.6298	-0.0165
549.8248	0.0001
550.0198	0.0125
550.2147	-0.0017
550.4096	0.0028
550.6045	0.0005
550.7994	0.0063
550.9943	-0.0041
551.1892	0.0016
551.384	0.0065
551.5788	0.0023
551.7737	-0.0072
551.9685	0.0089
552.1632	0.0047
552.358	0.0028
552.5528	-0.0078
552.7475	-0.0034
552.9422	-0.004
553.1369	0.0065
553.3316	-0.0088
553.5263	-0.0037
553.7209	0.0007
553.9156	0.0039
554.1102	0.0063
554.3048	0.0022
554.4994	0.0089
554.694	0.0032
554.8885	0.0029
555.0831	0.0053
555.2776	-0.006
555.4721	-0.0065
555.6666	0.0051
555.8611	-0.0101
556.0555	0.0076
556.25	0.0039
556.4444	0.0023
556.6388	0.0063
556.8332	-0.0035
557.0276	0.0149
557.222	-0.0049
557.4163	0.0084
557.6107	0.0022
557.805	-0.0044
557.9993	-0.0012
558.1936	0.0105
558.3879	-0.0033
558.5821	-0.0023
558.7764	0.0155
558.9706	-0.0081
559.1648	-0.0078
559.359	0.012
559.5532	-0.0071
559.7473	0.0011
559.9415	0.005
560.1356	0.0092
560.3297	-0.0033
560.5238	-0.003
560.7179	0.0006
560.9119	0.0136
561.106	-0.0004
561.3	-0
561.494	0.0025
561.688	-0.0019
561.882	0.0031
562.076	0.0179
562.2699	0.0085
562.4639	0.0067
562.6578	0.0099
562.8517	0.0068
563.0456	0.0034
563.2395	-0.001
563.4333	0.0038
563.6272	0.0136
563.821	0.0058
564.0148	-0.0069
564.2086	-0.0007
564.4024	-0.0028
564.5961	0.004
564.7899	0.0047
564.9836	0.0052
565.1773	-0.0054
565.371	0.0029
565.5647	0.0011
565.7584	0.0015
565.952	-0.0019
566.1456	0.0052
566.3393	0.013
566.5329	0.0032
566.7264	-0.0064
566.92	0.0008
567.1136	0.0013
567.3071	0.0088
567.5006	-0.0099
567.6941	0.0063
567.8876	-0.0067
568.0811	-0.0115
568.2745	0.0004
568.468	0.0047
568.6614	0.0023
568.8548	-0.0064
569.0482	0.0023
569.2416	-0.0005
569.4349	0.0011
569.6283	-0.0018
569.8216	0.0006
570.0149	0.0058
570.2082	-0.0027
570.4015	0.0067
570.5947	-0.0035
570.788	-0.0008
570.9812	-0.0018
571.1744	-0.003
571.3676	-0.0042
571.5608	-0.0032
571.754	-0.0042
571.9471	0.0024
572.1402	0.0017
572.3333	0.0002
572.5264	0.0002
572.7195	0.0051
572.9126	-0.0031
573.1057	0.0011
573.2987	0.0014
573.4917	0.0007
573.6847	0.0005
573.8777	0.005
574.0707	-0.0042
574.2636	-0.0013
574.4566	-0.0003
574.6495	0.0038
574.8424	-0
575.0353	-0.0047
575.2281	-0.0029
575.421	-0.0011
575.6138	-0.005
575.8067	0.0007
575.9995	-0.0027
576.1923	0.0019
576.385	-0.0008
576.5778	-0.0032
576.7706	0.0025
576.9633	0.0047
577.156	-0.0006
577.3487	0.0008
577.5414	-0.0005
577.734	-0.0023
577.9267	-0.0022
578.1193	0.0001
578.3119	-0.0027
578.5045	-0.0043
578.6971	0.0001
578.8897	0.0014
579.0822	0.0022
579.2747	-0.0055
579.4673	-0.0018
579.6598	-0.0002
579.8522	0.0024
580.0447	-0.0024
580.2372	0.0007
580.4296	-0.0049
580.622	0.0045
580.8144	-0.0003
581.0068	0.0029
581.1992	0.001
581.3915	-0.0005
581.5839	0.0045
581.7762	0.0011
581.9685	-0.0025
582.1608	0.0011
582.353	-0.0024
582.5453	0.0017
582.7375	0.0033
582.9298	-0.0035
583.122	-0.0017
583.3142	0.0054
583.5063	-0.0041
583.6985	-0.0019
583.8906	-0.0004
584.0827	0.0048
584.2749	0.0005
584.4669	0.0018
584.659	-0.0021
584.8511	0.0015
585.0431	0
585.2352	-0.0027
585.4272	-0.0047
585.6192	-0.0004
585.8111	-0.0061
586.0031	-0.0012
586.195	0.0041
586.387	0.0046
586.5789	-0.0001
586.7708	-0.0024
586.9627	0.0021
587.1545	-0.0037
587.3464	-0.0003
587.5382	-0.0008
587.73	0.0009
587.9218	0.0011
588.1136	-0.0013
588.3053	-0.0008
588.4971	0.0027
588.6888	0.0058
588.8805	0.003
589.0722	0.0024
589.2639	-0.0013
589.4556	-0.0006
589.6472	-0
589.8389	0.0075
590.0305	-0.0002
590.2221	0.0071
590.4137	-0.0027
590.6052	-0.0015
590.7968	0.0002
590.9883	-0.0016
591.1798	-0.0055
591.3713	-0.005
591.5628	0.0021
591.7543	0.0039
591.9458	0.0001
592.1372	-0.0016
592.3286	-0.002
592.52	-0.0003
592.7114	-0.0024
592.9028	-0.0008
593.0941	-0.0041
593.2855	0.0048
593.4768	0.0027
593.6681	-0.0012
593.8594	-0.0024
594.0506	0.007
594.2419	-0.0002
594.4331	-0.0057
594.6244	0.0031
594.8156	0.0013
595.0067	0.0048
595.1979	-0.0072
595.3891	0.0004
595.5802	0.0021
595.7713	-0.0025
595.9624	0.0043
596.1535	-0.0071
596.3446	-0.0026
596.5357	-0.008
596.7267	0.0016
596.9177	-0.0035
597.1087	-0.0013
597.2997	0.0062
597.4907	-0.005
597.6817	0.0068
597.8726	0.0034
598.0635	-0.0014
598.2544	-0.0047
598.4453	-0.0028
598.6362	-0.0051
598.827	-0.0004
599.0179	0.0069
599.2087	-0.0021
599.3995	0.0036
599.5903	0.0014
599.7811	0.0033
599.9718	-0.0007
600.1626	0.0032
600.3533	-0.0005
600.544	-0.004
600.7347	0.0019
600.9254	0.0005
601.116	0.0043
601.3067	0.0028
601.4973	0.0028
601.6879	-0.0024
601.8785	0.0022
602.0691	0.0001
602.2596	0.0002
602.4502	0.0001
602.6407	0.0044
602.8312	0.0015
603.0217	0.0046
603.2122	0.003
603.4027	-0.0021
603.5931	0.0004
603.7835	-0.0057
603.9739	0.0004
604.1643	0.0061
604.3547	0.0087
604.5451	0.0016
604.7354	0.0013
604.9257	0.0037
605.116	-0.0002
605.3063	0.0009
605.4966	0.0005
605.6869	-0.0008
605.8771	0.001
606.0673	-0.0044
606.2575	-0.0009
606.4477	0.0037
606.6379	0.0017
606.8281	-0.0052
607.0182	0.0023
607.2083	0.0044
607.3985	-0
607.5885	0.0038
607.7786	0.0078
607.9687	-0.0046
608.1587	-0.0043
608.3488	-0.007
608.5388	0.0106
608.7288	-0.0087
608.9187	0.01
609.1087	0.001
609.2986	-0.0036
609.4886	-0.0024
609.6785	-0.0004
609.8684	-0.0112
610.0582	0.0046
610.2481	-0.0018
610.4379	-0.0002
610.6278	-0.0032
610.8176	0.0003
611.0074	-0.006
611.1971	-0.0014
611.3869	-0.0022
611.5766	0.0017
611.7664	-0.002
611.9561	0.0029
612.1458	-0.0004
612.3354	-0.0006
612.5251	0.0024
612.7147	0.001
612.9044	-0.0043
613.094	0.0029
613.2836	-0.0053
613.4731	0.0008
613.6627	0.002
613.8522	0.0003
614.0417	-0.0038
614.2313	-0.005
614.4207	0.0093
614.6102	0.0012
614.7997	0.0033
614.9891	0.0014
615.1785	0.0024
615.3679	0.0075
615.5573	-0.0054
615.7467	-0.0021
615.9361	-0.0062
616.1254	-0.0025
616.3147	0.0004
616.504	0.0003
616.6933	-0.0033
616.8826	0.0086
617.0718	-0.0047
617.2611	-0.001
617.4503	0.0042
617.6395	0.007
617.8287	0.0012
618.0179	-0.0084
618.207	-0.0015
618.3961	-0.0006
618.5853	0.0095
618.7744	0.0054
618.9634	0.0069
619.1525	0.0018
619.3416	0.002
619.5306	-0.0036
619.7196	-0.014
619.9086	0.0117
620.0976	-0.0039
620.2866	0.008
620.4755	0.011
620.6645	-0.0129
620.8534	-0.0041
621.0423	-0.006
621.2312	-0.0053
621.42	-0.0088
621.6089	0.008
621.7977	0.0003
621.9865	0.001
622.1753	0.0132
622.3641	-0.009
622.5529	-0.0055
622.7416	-0.0033
622.9303	-0.0032
623.1191	-0.0048
623.3078	-0.0042
623.4964	-0.0047
623.6851	0.01
623.8737	0.0124
624.0624	-0.002
624.251	0.0085
624.4396	0.003
624.6282	-0.0032
624.8167	0.0154
625.0053	-0.0033
625.1938	0.0025
625.3823	-0.0043
625.5708	0.0062
625.7593	-0.0015
625.9477	-0.0036
626.1362	-0.0072
626.3246	-0.0118
626.513	0.002
626.7014	-0.0025
626.8898	0.0128
627.0781	0.009
627.2665	0.0018
627.4548	0.0003
627.6431	-0.0008
627.8314	0.0038
628.0197	0.0029
628.2079	-0.0124
628.3962	-0.0082
628.5844	0.0027
628.7726	-0.0024
628.9608	0.0027
629.1489	-0.0117
629.3371	-0.0062
629.5252	0.0093
629.7134	0.0019
629.9015	-0.0099
630.0895	0.0036
630.2776	-0.0042
630.4657	0.0209
630.6537	-0.0061
630.8417	0.0088
631.0297	-0.0094
631.2177	0.0062
631.4057	0.0046
631.5936	-0.0094
631.7815	-0.003
631.9695	0.0118
632.1574	-0.0015
632.3452	0.0038
632.5331	-0.0044
632.7209	0.0133
632.9088	-0.0004
633.0966	0.0092
633.2844	-0.0199
633.4722	0.0037
633.6599	0.0014
633.8477	-0.0127
634.0354	0.0068
634.2231	0.0136
634.4108	0.0044
634.5985	0.001
634.7861	-0.0127
634.9738	-0.0004
635.1614	0.0118
635.349	0.0006
635.5366	-0.0021
635.7242	0.0144
635.9117	0.0041
636.0993	-0.0055
636.2868	-0.0057
636.4743	0.0223
636.6618	-0.0114
636.8492	0.0072
637.0367	0.0098
637.2241	0.0031
637.4115	-0.0071
637.5989	0.0033
637.7863	-0.0141
637.9737	-0.0057
638.161	0.0023
638.3484	0.0117
638.5357	-0.0136
638.723	0.0042
638.9103	0.0155
639.0975	0.0065
639.2848	0.0094
639.472	0.0047
639.6592	0.019
639.8464	0.0153
640.0336	0.0042
640.2208	-0.0043
640.4079	0.0072
640.595	-0.0011
640.7821	-0.0009
640.9692	0.0091
641.1563	0.0092
641.3434	0.0292
641.5304	0.0053
641.7174	0.0099
641.9044	-0.0023
642.0914	-0.0025
642.2784	0.0083
642.4653	0.005
642.6523	0.0087
642.8392	0.0192
643.0261	0.0081
643.213	0.0117
643.3999	0.0048
643.5867	0.0132
643.7735	0.0001
643.9604	-0.0152
644.1472	-0.0109
644.3339	-0.0169
644.5207	0.0001
644.7075	-0.0183
644.8942	0.0275
645.0809	-0.0057
645.2676	0.0011
645.4543	0.0274
645.6409	0.0073
645.8276	-0.0228
646.0142	0.0004
646.2008	-0.0085
646.3874	0.0244
646.574	-0.024
646.7605	0.0093
646.9471	0.0185
647.1336	0.0212
647.3201	-0.0086
647.5066	-0.0044
647.6931	0.0104
647.8795	0.012
648.0659	-0.0108
648.2524	-0.0058
648.4388	0.0049
648.6252	-0.0119
648.8115	0.0191
648.9979	0.0033
649.1842	-0.019
649.3705	0.0068
649.5568	0.0043
649.7431	0.0153
649.9294	-0.0022
650.1156	0.0056
650.3018	0.0197
650.488	0.0108
650.6742	-0.0076
650.8604	0.0105
651.0466	0.0237
651.2327	-0.0168
651.4188	-0.0097
651.6049	-0.0112
651.791	0.0266
651.9771	0.0036
652.1632	-0.0119
652.3492	-0.0042
652.5352	0.0057
652.7212	0.0054
652.9072	-0.0111
653.0932	0.008
653.2791	0.0031
653.465	-0.0144
653.651	0.0051
653.8369	0.0146
654.0227	0.0003
654.2086	-0.01
654.3944	-0.017
654.5803	0.0049
654.7661	-0.0091
654.9519	-0.0037
655.1377	0
655.3234	0
655.5092	0
655.6949	0
655.8806	0
656.0663	0
656.2519	0
656.4376	0
656.6232	0
656.8088	0
656.9945	0
657.18	0
657.3656	0
657.5511	0
657.7367	0
657.9222	0
658.1077	0
658.2932	0
658.4786	0
658.6641	0
658.8495	0
659.0349	0
659.2203	0
659.4057	0.0097
659.591	0.0334
659.7764	0.0053
659.9617	-0.0194
660.147	-0.0048
660.3323	-0.0048
660.5176	0.0124
660.7028	0.0138
660.888	0.0125
661.0733	-0.013
661.2585	0.0325
661.4436	0.0092
661.6288	0.008
661.8139	0.027
661.9991	0.0069
662.1842	0.0136
662.3693	0.0035
662.5544	0.0048
662.7394	0.0119
662.9245	0.0122
663.1095	0.0071
663.2945	-0.0094
663.4795	0.0037
663.6644	0.0063
663.8494	0.0103
664.0343	-0.0084
664.2193	0.0083
664.4042	-0.015
664.589	-0.0071
664.7739	-0.005
664.9587	-0.0094
665.1436	0.0071
665.3284	0.0009
665.5132	0.011
665.698	0.0027
665.8827	-0.0292
666.0675	-0.0126
666.2522	0.036
666.4369	-0.0075
666.6216	-0.0131
666.8063	-0.0033
666.9909	-0.0005
667.1756	0.0271
667.3602	-0.0065
667.5448	0.0288
667.7294	-0.0097
667.9139	-0.0047
668.0985	-0.0102
668.283	0.0026
668.4675	0.0031
668.652	-0.0005
668.8365	-0.0291
669.0209	-0.0015
669.2054	0.0087
669.3898	-0.0147
669.5742	0.0171
669.7586	0.0086
669.943	-0.0154
670.1273	0.022
670.3117	0.0097
670.496	0.006
670.6803	-0.0007
670.8646	0.0112
671.0488	0.0136
671.2331	-0.0084
671.4173	0.015
671.6015	-0.0038
671.7857	-0.0327
671.9699	0.0062
672.1541	-0.0059
672.3382	0.0153
672.5223	-0.0116
672.7064	-0.0091
672.8905	0.0168
673.0746	-0.0033
673.2587	0.0205
673.4427	-0.0035
673.6267	-0.0229
673.8107	-0.0188
673.9947	-0.0025
674.1787	0.0295
674.3626	-0.0034
674.5465	0.0217
674.7304	-0.0196
674.9143	0.0037
675.0982	0.0166
675.2821	0.0103
675.4659	0.015
675.6497	0.0242
675.8335	0.0132
676.0173	0.0068
676.2011	-0.0133
676.3849	0.0105
676.5686	0.0132
676.7523	0.0102
676.936	-0.0245
677.1197	0.0359
677.3034	0.0149
677.487	0.0054
677.6706	0.0058
677.8542	-0.001
678.0378	-0.0013
678.2214	-0.0043
678.405	0.0053
678.5885	-0.0105
678.772	-0.0096
678.9555	0.001
679.139	-0.0158
679.3225	-0.0151
679.5059	-0.0076
679.6894	-0.0263
679.8728	-0.0127
680.0562	0.0172
680.2395	-0.0037
680.4229	-0.0072
680.6062	0.0141
680.7896	-0.0039
680.9729	0.0151
681.1562	-0.0207
681.3394	0.0105
681.5227	-0.0214
681.7059	-0.0064
681.8891	0.0251
682.0723	-0.0173
682.2555	0.018
682.4387	0.0165
682.6218	-0.0115
682.805	0.0037
682.9881	-0.0131
683.1712	0.0201
683.3542	-0.0233
683.5373	0.0006
683.7203	0.021
683.9034	0.0124
684.0864	0.0012
684.2694	-0.0117
684.4523	0.0108
684.6353	-0.006
684.8182	0.0061
685.0011	0.0008
685.184	-0.0044
685.3669	0.0004
685.5498	0.0178
685.7326	0.0111
685.9154	-0.0139
686.0982	-0.0129
686.281	-0.006
686.4638	0.0029
686.6465	-0.0076
686.8293	0.0062
687.012	-0.0187
687.1947	0.0133
687.3774	0.004
687.56	-0.0094
687.7427	0.0004
687.9253	0.0162
688.1079	0.0178
688.2905	-0.0013
688.4731	0.0188
688.6556	-0.0157
688.8382	0.0088
689.0207	-0.0176
689.2032	-0.0137
689.3857	0.0175
689.5681	-0.0075
689.7506	-0.0055
689.933	-0.0113
690.1154	-0.0043
690.2978	0.0066
690.4802	0.0097
690.6626	-0.0039
690.8449	-0.018
691.0272	-0.0263
691.2095	-0.0025
691.3918	-0.0191
691.5741	0.0149
691.7563	0.0086
691.9386	-0.0134
692.1208	0.0119
692.303	0.012
692.4852	-0.0044
692.6673	-0.0083
692.8495	-0.0078
693.0316	0.0029
693.2137	0.0309
693.3958	0.01
693.5778	-0.0288
693.7599	-0.0195
693.9419	0.018
694.1239	0.0126
694.3059	0.0069
694.4879	-0.0209
694.6699	0.0139
694.8518	0.0071
695.0337	-0.0044
695.2157	0.0068
695.3975	-0.0103
695.5794	-0.0237
695.7613	0.0253
695.9431	-0.0253
696.1249	-0.0161
696.3067	-0.0203
696.4885	0.0044
696.6703	-0.0068
696.852	-0.0154
697.0337	-0.0056
697.2154	0.0086
697.3971	0.0128
697.5788	0.023
697.7605	-0.0134
697.9421	-0.0075
698.1237	0.0045
698.3053	0.0098
698.4869	0.0109
698.6685	0.0085
698.85	0.0167
699.0315	-0.0112
699.213	0.0024
699.3945	0.0022
699.576	0.0072
699.7575	0.0093
699.9389	-0.0253
700.1203	-0.0156
700.3017	-0.0147
700.4831	-0.001
700.6645	-0.0022
700.8458	0.0169
701.0271	-0.0039
701.2084	-0.0144
701.3897	-0.0089
701.571	-0.0087
701.7523	-0.0172
701.9335	0.0237
702.1147	0.0024
702.2959	0.0229
702.4771	-0.0051
702.6583	-0.0342
702.8394	0.0022
703.0205	-0.0102
703.2016	-0.0052
703.3827	-0.0057
703.5638	-0.012
703.7449	0.0269
703.9259	-0.0064
704.1069	0.0081
704.2879	0.0109
704.4689	-0.0097
704.6499	-0.0375
704.8308	-0.0095
705.0117	-0.0168
705.1927	0.006
705.3735	0.0061
705.5544	-0.0053
705.7353	0.0031
705.9161	0.0145
706.0969	0.0143
706.2777	0.0004
706.4585	0.0067
706.6393	-0.0003
706.82	-0.0214
707.0007	-0.0001
707.1815	0.0049
707.3621	0.0197
707.5428	0.0094
707.7235	0.0162
707.9041	-0.0129
708.0847	0.0106
708.2653	0.001
708.4459	0.0084
708.6265	-0.0274
708.807	0.004
708.9875	-0.002
709.168	0.0281
709.3485	0.0228
709.529	0.0269
709.7095	-0.0229
709.8899	0.0218
710.0703	0.0012
710.2507	-0.0043
710.4311	-0.0071
710.6115	0.0065
710.7918	0.0016
710.9721	-0.002
711.1524	0.007
711.3327	-0.0018
711.513	0.0048
711.6932	-0.0232
711.8735	0.0095
712.0537	0.0325
712.2339	0.0171
712.4141	0.0117
712.5942	-0.0045
712.7744	0.0193
712.9545	0.0214
713.1346	0.0137
713.3147	0.0109
713.4947	-0.0139
713.6748	0.0051
713.8548	-0.0015
714.0348	0.0247
714.2148	-0.0114
714.3948	0.0347
714.5748	0.0064
714.7547	0.0042
714.9346	-0.0022
715.1145	0.0073
715.2944	0.0041
715.4743	-0.0034
715.6541	0.0079
715.834	0.0338
716.0138	0.0496
716.1936	-0.0164
716.3733	0.0259
716.5531	0.0052
716.7328	-0.0155
716.9126	-0.029
717.0923	0.0171
717.2719	-0.0011
717.4516	-0.0197
717.6312	-0.0108
717.8109	0.0243
717.9905	-0.0088
718.1701	-0.038
718.3496	0.0014
718.5292	-0.0052
718.7087	0.0206
718.8882	0.0134
719.0677	-0.0163
719.2472	0.0347
719.4267	0.0132
719.6061	0.0132
719.7856	0.0037
719.965	0.0121
720.1443	-0.0139
720.3237	0.0189
720.5031	0.0101
720.6824	0.0155
720.8617	0.0059
721.041	0.0028
721.2203	-0.0202
721.3995	-0.01
721.5788	0.0097
721.758	0.0011
721.9372	0.0089
722.1164	0.017
722.2956	0.0038
722.4747	-0.008
722.6538	0.0163
722.8329	-0.0171
723.012	0.0189
723.1911	0.0041
723.3702	-0.0196
723.5492	-0.015
723.7282	0.0346
723.9072	-0.0271
724.0862	0.0077
724.2652	-0.0132
724.4441	0.0271
724.623	-0.0186
724.8019	-0.0023
724.9808	0.0085
725.1597	0.0066
725.3385	0.0013
725.5174	0.0047
725.6962	0.0155
725.875	0.0019
726.0538	0.0289
726.2325	-0.0154
726.4112	0.0031
726.59	0.0021
726.7687	0.0096
726.9474	-0.0023
727.126	-0.0002
727.3047	0.0197
727.4833	0.0326
727.6619	0.0223
727.8405	-0.0026
728.0191	-0.0303
728.1976	-0.0154
728.3762	-0.016
728.5547	0.0251
728.7332	0.0144
728.9116	-0.0362
729.0901	0.0164
729.2686	-0.0346
729.447	-0.0193
729.6254	0.0133
729.8038	-0.0075
729.9821	0.0057
730.1605	-0.0187
730.3388	-0.0135
730.5171	-0.0252
730.6954	0.0317
730.8737	0.0098
731.0519	0.0114
731.2302	-0.0328
731.4084	0.0064
731.5866	-0.0061
731.7648	0.0011
731.9429	-0.0038
732.1211	-0.0261
732.2992	-0.0242
732.4773	-0.0122
732.6554	-0.0015
732.8335	0.0077
733.0115	-0.013
733.1896	-0.0124
733.3676	0.0061
733.5456	-0.0035
733.7235	0.0032
733.9015	-0.0019
734.0794	0.002
734.2574	0.0106
734.4353	0.0025
734.6131	-0.0021
734.791	0.0249
734.9689	0.0022
735.1467	-0.0079
735.3245	0.0035
735.5023	0.0082
735.68	0.0186
735.8578	0.0067
736.0355	0.0129
736.2132	0.0163
736.3909	-0.0007
736.5686	0.021
736.7463	-0.0112
736.9239	0.0203
737.1015	-0.0117
737.2791	-0.0021
737.4567	0.0065
737.6343	0.0006
737.8118	0.0156
737.9894	0.0125
738.1669	-0.0015
738.3444	-0.0133
738.5218	0.0085
738.6993	0.0007
738.8767	-0.006
739.0541	0.0073
739.2315	0.007
739.4089	0.0056
739.5863	0.0159
739.7636	0.0047
739.9409	0.0035
740.1182	0.0026
740.2955	-0.0283
740.4728	0.0064
740.65	-0.0007
740.8272	-0.0172
741.0044	0.0375
741.1816	0.0386
741.3588	-0.0058
741.5359	0.0298
741.7131	0.0231
741.8902	-0.021
742.0673	0.0096
742.2444	0.0031
742.4214	0.0091
742.5985	0.0015
742.7755	-0.034
742.9525	0.0348
743.1295	0.0048
743.3064	0.014
743.4834	-0.0063
743.6603	-0.0167
743.8372	0.0173
744.0141	0.0233
744.191	-0.0137
744.3678	0.0113
744.5446	-0.0024
744.7215	-0.0211
744.8982	0.0027
745.075	0.0369
745.2518	0.0056
745.4285	0.0107
745.6052	0.0094
745.7819	0.0239
745.9586	0.0187
746.1353	0.0163
746.3119	-0.0085
746.4885	-0.0047
746.6651	-0.04
746.8417	-0.0237
747.0183	-0.0127
747.1948	-0.0087
747.3714	-0.0109
747.5479	-0.0301
747.7244	-0.0291
747.9008	0.0062
748.0773	0.037
748.2537	0.0099
748.4301	0.0065
748.6065	-0.0213
748.7829	-0.0002
748.9593	-0.0171
749.1356	0.0117
749.3119	-0.0055
749.4882	-0.0086
749.6645	0.0177
749.8408	0.0015
750.017	0.0044
750.1933	0.0339
750.3695	0.0091
750.5457	-0.0082
750.7218	0.0202
750.898	-0.0318
751.0741	0.0234
751.2502	-0.0039
751.4263	-0.0066
751.6024	0.0288
751.7784	-0.0319
751.9545	-0.0286
752.1305	0.0104
752.3065	0.0083
752.4825	-0.0175
752.6584	-0.0095
752.8344	0.0061
753.0103	0.0002
753.1862	-0.0116
753.3621	-0.0092
753.5379	-0.0071
753.7138	-0.0232
753.8896	0.0116
754.0654	-0.0082
754.2412	0.0312
754.417	-0.0191
754.5927	0.007
754.7685	-0.0361
754.9442	-0.0078
755.1199	-0.013
755.2956	0.0227
755.4712	-0.0047
755.6469	-0.0052
755.8225	0.032
755.9981	0.0058
756.1736	0.0155
756.3492	-0.016
756.5248	-0.0047
756.7003	-0.0193
756.8758	0.0039
757.0513	-0.0036
757.2267	-0.0115
757.4022	-0.0017
757.5776	-0.0076
757.753	-0.0141
757.9284	-0.0003
758.1038	-0.0137
758.2791	0.0019
758.4545	0.0002
758.6298	-0.0079
758.8051	-0.0122
758.9803	-0.008
759.1556	-0.0116
759.3308	0.0008
759.506	0.0126
759.6812	-0.0005
759.8564	-0.0118
760.0316	-0.0003
760.2067	-0.0223
760.3819	0.0129
760.557	0.0042
760.732	0.0282
760.9071	-0.0038
761.0821	0.0067
761.2572	0.0209
761.4322	0.0043
761.6072	-0.0085
761.7821	0.0256
761.9571	-0.0091
762.132	-0.0072
762.3069	0.0048
762.4818	0.0014
762.6567	-0.0012
762.8316	0.0169
763.0064	-0.0201
763.1812	-0.0009
763.356	0.0276
763.5308	-0.0112
763.7055	0.0033
763.8803	-0.0169
764.055	0.0009
764.2297	-0.0003
764.4044	-0.0005
764.579	-0.0169
764.7537	-0.0049
764.9283	-0.037
765.1029	0.009
765.2775	-0.0348
765.4521	-0.0004
765.6266	-0.0428
765.8011	-0.0084
765.9756	0.0084
766.1501	0.0023
766.3246	-0.0192
766.4991	0.0103
766.6735	-0.0056
766.8479	-0.0167
767.0223	0.0246
767.1967	-0.0175
767.371	0.0112
767.5454	0.0424
767.7197	0.0151
767.894	-0.0244
768.0683	0.0057
768.2425	-0.008
768.4168	0.031
768.591	0.0187
768.7652	-0.0077
768.9394	0.0042
769.1135	-0.011
769.2877	0.0239
769.4618	0.0245
769.6359	0.0007
769.81	-0.026
769.984	-0.005
770.1581	-0.0028
770.3321	-0.0203
770.5061	0.0095
770.6801	0.0166
770.8541	-0.0138
771.028	-0.0178
771.202	-0.0307
771.3759	-0.0216
771.5498	0.0096
771.7236	-0.0044
771.8975	-0.0291
772.0713	0.0239
772.2451	-0.0051
772.4189	-0.015
772.5927	-0.0017
772.7665	0.0368
772.9402	0.0062
773.1139	0.0088
773.2876	0.0177
773.4613	0.0302
773.635	0.0154
773.8086	-0.0165
773.9822	0.0048
774.1558	-0.0239
774.3294	-0.0157
774.503	0.0102
774.6765	0.0411
774.8501	0.0488
775.0236	0.0244
775.1971	-0.024
775.3705	-0.0231
775.544	0.0475
775.7174	-0.081
775.8908	0.0499
776.0642	0.0258
776.2376	0.0025
776.4109	0.0536
776.5843	0.0115
776.7576	0.0198
776.9309	-0.002
777.1041	0.0114
777.2774	0.0211
777.4506	0.0563
777.6238	0.0022
777.797	-0.0085
777.9702	0.0274
778.1434	0.0394
778.3165	-0.0015
778.4896	-0.0194
778.6627	0.0232
778.8358	-0.0091
779.0089	-0.0014
779.1819	-0.0149
779.3549	0.0141
779.5279	-0.0387
779.7009	-0.0242
779.8739	-0.0097
780.0468	0.0298
780.2197	-0.0032
780.3926	-0.0431
780.5655	0.0117
780.7384	0.0254
780.9112	0.0234
781.0841	0.0227
781.2569	-0.0035
781.4297	0.0535
781.6024	-0.0216
781.7752	-0.0082
781.9479	-0.0102
782.1206	0.033
782.2933	0.0151
782.466	-0.0145
782.6386	-0.0234
782.8113	-0.0038
782.9839	0.0131
783.1565	0.0113
783.329	-0.0187
783.5016	-0.0068
783.6741	-0.0338
783.8466	-0.0688
784.0191	-0.0317
784.1916	0.0327
784.3641	-0.0348
784.5365	0.017
784.7089	0.0211
784.8813	0.0124
785.0537	0.0041
785.2261	0.0462
785.3984	0.0034
785.5707	0.0017
785.743	-0.0595
785.9153	0.0253
786.0876	-0.016
786.2598	0.01
786.432	0.0146
786.6042	0.0282
786.7764	0.0084
786.9486	0.0092
787.1207	-0.0066
787.2928	-0.0021
787.4649	0.0315
787.637	0.0003
787.8091	-0.0144
787.9811	0.026
788.1532	0.0215
788.3252	-0.0363
788.4972	-0.0242
788.6691	0.0486
788.8411	-0.0038
789.013	0.001
789.1849	0.0104
789.3568	-0.0202
789.5287	0.0032
789.7005	0.0489
789.8723	-0.0304
790.0442	-0.063
790.2159	0.0015
790.3877	0.0224
790.5595	-0.0004
790.7312	-0.017
790.9029	-0.0183
791.0746	0.0191
791.2463	0.0118
791.4179	-0.0724
791.5896	-0.0273
791.7612	-0.0177
791.9328	-0.0107
792.1044	-0.0234
792.2759	0.0452
792.4474	-0.0317
792.619	0.1076
792.7905	-0.0017
792.9619	0.0323
793.1334	-0.0112
793.3048	0.0026
793.4762	-0.0631
793.6476	-0.01
793.819	-0.0209
793.9904	0.005
794.1617	0.0203
794.333	-0.0162
794.5043	0.0066
794.6756	0.0386
794.8469	-0.0003
795.0181	-0.012
795.1893	-0.0433
795.3605	-0.0132
795.5317	0.0631
795.7029	0.0153
795.874	0.016
796.0452	-0.0251
796.2163	-0.0028
796.3873	0.0881
796.5584	-0.0086
796.7294	-0.09
796.9005	0.0063
797.0715	0.0157
797.2425	-0.002
797.4134	0.0075
797.5844	0.0802
797.7553	0.0181
797.9262	-0.0292
798.0971	-0.0304
798.2679	-0.0088
798.4388	-0.1188
798.6096	-0.0415
798.7804	-0.0255
798.9512	0.054
799.122	0.0278
799.2927	-0.0007
799.4635	0.0735
799.6342	0.034
799.8049	-0.0264
799.9755	-0.0134
800.1462	-0.0059
800.3168	-0.0108
800.4874	0.1017
800.658	0.0083
800.8286	-0.0831
800.9991	0.0426
801.1696	-0.0211
801.3402	-0.1082
801.5106	-0.0957
801.6811	0.0636
801.8516	0.0644
802.022	-0.0825
802.1924	-0.0218
802.3628	-0.072
802.5332	-0.0109
802.7035	-0.0067
802.8739	0.0837
803.0442	0.0775
803.2145	-0.0098
803.3847	-0.0545
803.555	0.0053
803.7252	-0.0105
803.8954	-0.018
804.0656	-0.0609
804.2358	-0.0163
804.4059	0.1006
804.5761	-0.0518
804.7462	-0.0697
804.9163	-0.0412
805.0864	0.0168
805.2564	-0.0479
805.4264	-0.0575
805.5965	0.0413
805.7665	0.034
805.9364	-0.0919
806.1064	-0.0131
806.2763	0.0563
806.4462	-0.0297
806.6161	0.023
806.786	-0.0124
806.9559	0.0922
807.1257	-0.0342
807.2955	0.0123
807.4653	-0.0491
807.6351	-0.0183
807.8048	-0.0126
807.9746	0.0178
808.1443	0.0311
808.314	0.0685
808.4837	-0.0113
808.6533	0.0746
808.8229	-0.0997
808.9926	-0.0036
809.1622	-0.0117
809.3317	-0.0144
809.5013	0.1584
809.6708	0.0405
809.8403	0.0462
810.0098	0.0445
810.1793	0.0533
810.3488	0.089
810.5182	-0.0333
810.6876	0.0211
810.857	0.0893
811.0264	-0.1365
811.1958	0.0366
811.3651	-0.0036
811.5344	-0.0845
811.7037	-0.0631
811.873	0.0929
812.0422	-0.0538
812.2115	-0.0033
812.3807	-0.0081
812.5499	0.1104
812.7191	0.0867
812.8882	-0.0394
813.0574	-0.1931
813.2265	-0.007
813.3956	0.0226
813.5646	-0.0225
813.7337	-0.0957
813.9027	-0.0416
814.0718	0.0088
814.2407	-0.119
814.4097	0.0448
814.5787	0.0763
814.7476	0.0733
814.9165	0.0498
815.0854	0.0063
815.2543	0.0163
815.4232	-0.0526
815.592	-0.0173
815.7608	-0.0431
815.9296	-0.0376
816.0984	0.2753
816.2671	-0.0155
816.4359	0.0664
816.6046	0.1008
816.7733	-0.1449
816.942	0.0202
817.1106	-0.2191
817.2793	-0.0209
817.4479	-0.0734
817.6165	-0.0196
817.785	-0.118
817.9536	0.0467
818.1221	0.1519
818.2906	-0.0082
818.4591	-0.0451
818.6276	0.0456
818.7961	0.1346
818.9645	-0.0114
819.1329	0.4306
819.3013	-0.0615
819.4697	0.1121
819.638	-0.1346
819.8064	0.0373
819.9747	-0.1103
820.143	0.1285
820.3113	0.126
820.4795	0.0258
820.6477	0.0974
820.816	0.0897
820.9842	0.005
821.1523	0.0644
821.3205	0.0462
821.4886	-0.0382
821.6567	-0.0193
821.8248	0.0495
821.9929	-0.0363
822.1609	0.0903
822.329	0.1119
822.497	-0.0041
822.665	0.0166
822.833	-0.1283
823.0009	-0.134
823.1688	0.0333
823.3367	-0.0314
823.5046	0.0633
823.6725	0.2278
823.8404	-0.1426
824.0082	0.0488
824.176	0.1211
824.3438	0.0571
824.5116	0.1003
824.6793	0.1065
824.847	0.2153
825.0147	0.3301
825.1824	0.1382
825.3501	0.0349
825.5177	0.0565
825.6854	-0.0041
825.853	-0.0737
826.0206	-0.0731
826.1881	0.077
826.3557	-0.0149
826.5232	0.1482
826.6907	0.0669
826.8582	0.0676
827.0257	-0.1679
827.1931	0.0687
827.3605	0.0193
827.528	0.0876
827.6953	0.0225
827.8627	0.1218
828.03	0.0431
828.1974	-0.1166
828.3647	0.1079
828.532	0.1353
828.6992	-0.0666
828.8665	0.0027
829.0337	0.0965
829.2009	0.1693
829.3681	-0.0102
829.5352	0.0862
829.7024	-0.0222
829.8695	-0.0893
830.0366	0.2537
830.2037	0.05
830.3707	-0.0687
830.5378	0.2033
830.7048	-0.1341
830.8718	-0.068
831.0388	0.2613
831.2057	0.0529
831.3727	-0.0031
831.5396	-0.0386
831.7065	0.5878
831.8734	-0.4371
832.0402	-0.0428
832.2071	0.2194
832.3739	0.1456
832.5407	-0
832.7075	0.1542
832.8742	0.7081
833.041	0.019
833.2077	0.2137
833.3744	0.0847
833.541	0.1373
833.7077	0.1024
833.8743	-0.0881
834.0409	-0.0922
834.2075	-0.0173
834.3741	0.1291
834.5407	-0.291
834.7072	0.1119
834.8737	0.0307
835.0402	-0.4985
835.2067	0.1266
835.3731	0.0661
835.5395	0.0906
835.706	0.0813
835.8723	-0.0095
836.0387	0.2053
836.2051	0.1181
836.3714	-0.27
836.5377	0.2674
836.704	-0.0558
836.8703	-0.0527
837.0365	-0.0873
837.2027	-0.0098
837.3689	0.0503
837.5351	-0.1216
837.7013	0.0936
837.8674	-1.1546
838.0335	-0.0572
838.1997	0.286
838.3657	-0
838.5318	-0.3773
838.6978	-0.3752
838.8639	-0.1175
839.0299	0.2497
839.1958	0.4892
839.3618	-0
839.5277	-0.1223
839.6937	0.0354
839.8596	0.6551
840.0254	-0.1061
840.1913	0.703
840.3571	-0.0437
840.523	0.0065
840.6888	-0.1752
840.8545	-0.2046
841.0203	-0.1648
841.186	0.3271
841.3517	0.4119
841.5174	0.3051
841.6831	0.2446
841.8488	0.2014
842.0144	0.043
842.18	0.3084
842.3456	0.2659
842.5112	-0
842.6767	-0.3267
842.8422	-0.1061
843.0077	0.3069
843.1732	0.1618
843.3387	-0.0572
843.5042	-0
843.6696	-0.2052
843.835	-0
844.0004	0.0447
844.1657	0.1039
844.3311	0.1029
844.4964	-0
844.6617	-0
844.827	0.3823
844.9923	-0.0829
845.1575	-0
845.3227	0.6086
845.4879	-0.2457
845.6531	0.08
845.8183	-0
845.9834	-0.2499
846.1485	-0.4014
846.3136	0.6385
846.4787	-0
846.6438	0.4682
846.8088	-1.4674
846.9738	-0
847.1388	0.0512
847.3038	0.0075
847.4687	-0
847.6337	1.0717
847.7986	0.1912
847.9635	-0.1161
848.1284	-0
848.2932	0.0102
848.458	0.291
848.6228	-0.2661
848.7876	1.273
848.9524	0.2711
849.1172	-0.3239
849.2819	-0
849.4466	0.9405
849.6113	-0.2466
849.7759	0.2336
849.9406	-0.0954
850.1052	-0.6462
850.2698	-0.4674
850.4344	0.3444
850.599	0.0184
850.7635	-0
850.928	0.1181
851.0925	0.3122
851.257	-0.0441
851.4215	-0.0688
851.5859	0.5995
851.7503	-0
851.9147	-0
852.0791	-0.5094
852.2434	0.0486
852.4078	-0
852.5721	0.197
852.7364	1.2436
852.9007	-0.3078
853.0649	0.4246
853.2291	0.1694
853.3934	0.2718
853.5575	-0.2286
853.7217	-0.0325
853.8859	0.219
854.05	-0.8996
854.2141	-0
854.3782	0.5357
854.5423	-0.2711
854.7063	0.2575
854.8703	0.6208
855.0343	0.0421
855.1983	-0.1408
855.3623	0.0748
855.5262	-0
855.6901	0.3279
855.854	0.0776
856.0179	-0
856.1818	-0
856.3456	-0
856.5094	-0.0503
856.6732	-0.495
856.837	0.768
857.0008	-0
857.1645	-0
857.3282	0.3375
857.4919	-0.1333
857.6556	0.6296
857.8192	-0.0918
857.9828	-0.4427
858.1465	0.3148
858.31	-0
858.4736	-0.2567
858.6372	-0.0308
858.8007	-0.0738
858.9642	0.8304
859.1277	-0.3739
859.2911	0.0046
859.4546	0.2148
859.618	-0.0631
859.7814	-0
859.9448	0.1988
860.1081	-0
860.2715	-0
860.4348	-0.0726
860.5981	-0
860.7614	-0.1109
860.9246	0.0769
861.0879	-0.6362
861.2511	0.8858
861.4143	0.7233
861.5774	0.0489
861.7406	-0
861.9037	-0
862.0668	-0
862.2299	-2.252
862.393	-0.1787
862.556	0.8293
862.7191	0.2057
862.8821	-0.2592
863.0451	0.0531
863.208	-0
863.371	-0.0486
863.5339	0.1345
863.6968	-0
863.8597	-0.7712
864.0225	-0.5247
864.1854	0.183
864.3482	0.838
864.511	-0.0054
864.6737	1.4825
864.8365	0.9907
864.9992	-0.0935
865.1619	0.1216
865.3246	0.5686
865.4873	-0.5551
865.65	-0
865.8126	0.087
865.9752	-0.0551
866.1378	-0.7039
866.3004	0.0945
866.4629	-0.195
866.6254	-0
866.7879	0.3989
866.9504	-0
867.1129	-0.1539
867.2753	-0.358
867.4377	0.2569
867.6001	0.2849
867.7625	-0.3502
867.9249	-0
868.0872	-0.1742
868.2495	-0
868.4118	0.3234
868.5741	-0
868.7363	-0
868.8986	1.5085
869.0608	-0
869.223	0.5838
869.3851	-0
869.5473	-1.2978
869.7094	-0.2614
869.8715	-0
870.0336	0.2797
870.1957	-0.9469
870.3577	-0
870.5197	0.0054
870.6817	-0
870.8437	0.2689
871.0057	-0
871.1676	0.0088
871.3295	0.8528
871.4914	-0.2555
871.6533	0.3889
871.8151	-0
871.977	0.2328
872.1388	-0
872.3006	0.0862
872.4623	-0.4912
872.6241	-0
872.7858	0.1714
872.9475	-0
873.1092	0.78
873.2709	0.1612
873.4325	-0
873.5941	-0.8239
873.7557	-0.7974
873.9173	-0.8857
874.0789	-0
874.2404	0.3035
874.4019	0.0225
874.5634	-0
874.7249	-0
874.8863	-0
875.0478	0.2205
875.2092	0.4381
875.3706	-0.485
875.5319	1.8146
875.6933	-0.2667
875.8546	-0
876.0159	0.0321
876.1772	-0.8239
876.3385	-0.6203
876.4997	0.6962
876.6609	-0
876.8221	0.1426
876.9833	-0.1503
877.1445	-0.0577
877.3056	0.0102
877.4667	-1.2772
877.6278	0.3689
877.7889	0.6838
877.9499	-0.0728
878.111	0.7519
878.272	-0.5399
878.433	-0
878.5939	-0
878.7549	-0.0887
878.9158	-0.327
879.0767	-0
879.2376	-1.0095
879.3984	1.4129
879.5593	-0.3134
879.7201	0.4374
879.8809	-0.3275
880.0417	0.4063
880.2024	-0.0236
880.3632	0.1312
880.5239	-0
880.6846	-0.1008
880.8452	0.3739
881.0059	0.8641
881.1665	0.6117
881.3271	-0.1388
881.4877	0.082
881.6483	-0
881.8088	-0.24
881.9693	0.4553
882.1298	0.4553
882.2903	0.4553
