Data from D4ACN5uM480nmA_Absorbance_12-08-00-581.txt Node
Date: Fri Feb 21 12:08:00 GMT 2025
User: LASERRRRR
Spectrometer: FLMT03099
Trigger mode: 0
Integration Time (sec): 1.500000E-2
Scans to average: 1
Electric dark correction enabled: true
Nonlinearity correction enabled: false
Boxcar width: 0
XAxis mode: Wavelengths
Number of Pixels in Spectrum: 3648
>>>>>Begin Spectral Data<<<<<
179.3399	-0
179.5586	-0
179.7771	-0
179.9957	0.155
180.2143	-0.0879
180.4329	-0
180.6514	-0
180.8699	-0
181.0885	-0.2599
181.307	1.2081
181.5255	0.3001
181.744	-0.6525
181.9625	0.3031
182.181	0.8751
182.3994	-0
182.6179	-0.2782
182.8363	-0
183.0547	-0
183.2732	0.0497
183.4916	0.5077
183.71	0.1046
183.9284	0.0623
184.1467	0.7099
184.3651	0.2074
184.5835	0.1587
184.8018	0.27
185.0201	0.3354
185.2385	0.1333
185.4568	0.27
185.6751	0.2871
185.8934	0.4354
186.1117	0.0153
186.3299	0.0932
186.5482	0.1075
186.7664	0.1391
186.9847	0.2136
187.2029	0.2022
187.4211	0.1484
187.6393	0.1462
187.8575	0.1317
188.0757	0.263
188.2939	0.1692
188.512	0.2385
188.7302	0.1069
188.9483	0.2502
189.1665	0.3601
189.3846	0.3467
189.6027	-0.0103
189.8208	0.4878
190.0389	0.1943
190.257	0.2218
190.475	0.2564
190.6931	0.124
190.9111	0.4569
191.1292	0.1493
191.3472	0.1993
191.5652	0.2799
191.7832	0.3857
192.0012	0.2375
192.2192	0.1774
192.4371	0.3009
192.6551	0.2794
192.873	0.3747
193.091	0.2387
193.3089	0.2757
193.5268	0.3946
193.7447	0.3877
193.9626	0.5637
194.1805	0.3413
194.3984	0.3823
194.6162	0.2563
194.8341	0.3916
195.0519	0.5635
195.2697	0.684
195.4875	0.6072
195.7054	0.4664
195.9231	0.3963
196.1409	0.5652
196.3587	0.56
196.5765	0.4833
196.7942	0.7315
197.012	0.5367
197.2297	0.5478
197.4474	0.6528
197.6651	0.4861
197.8828	0.5951
198.1005	0.5334
198.3182	0.6074
198.5358	0.5196
198.7535	0.5099
198.9711	0.6088
199.1888	0.6535
199.4064	0.6487
199.624	0.5203
199.8416	0.5893
200.0592	0.6023
200.2767	0.606
200.4943	0.5804
200.7119	0.6276
200.9294	0.5596
201.1469	0.541
201.3645	0.6297
201.582	0.6434
201.7995	0.6618
202.017	0.5163
202.2344	0.5648
202.4519	0.5647
202.6694	0.5715
202.8868	0.4854
203.1042	0.4991
203.3217	0.5142
203.5391	0.517
203.7565	0.507
203.9739	0.5205
204.1913	0.4762
204.4086	0.5534
204.626	0.5269
204.8433	0.5165
205.0607	0.4741
205.278	0.5436
205.4953	0.4579
205.7126	0.5011
205.9299	0.4734
206.1472	0.5232
206.3644	0.4529
206.5817	0.5058
206.7989	0.4513
207.0162	0.4495
207.2334	0.4386
207.4506	0.4135
207.6678	0.4416
207.885	0.4507
208.1022	0.4281
208.3194	0.409
208.5365	0.4443
208.7537	0.4337
208.9708	0.4584
209.1879	0.4053
209.405	0.4153
209.6222	0.4205
209.8392	0.4646
210.0563	0.4198
210.2734	0.4136
210.4905	0.427
210.7075	0.4487
210.9245	0.4116
211.1416	0.4209
211.3586	0.4198
211.5756	0.3977
211.7926	0.443
212.0096	0.4031
212.2265	0.4204
212.4435	0.4187
212.6604	0.4071
212.8774	0.3876
213.0943	0.4238
213.3112	0.4143
213.5281	0.4231
213.745	0.3981
213.9619	0.4062
214.1788	0.4049
214.3956	0.4215
214.6125	0.4118
214.8293	0.421
215.0461	0.3811
215.2629	0.4132
215.4798	0.4117
215.6965	0.3872
215.9133	0.4178
216.1301	0.4004
216.3469	0.3935
216.5636	0.4099
216.7803	0.3991
216.9971	0.4234
217.2138	0.4086
217.4305	0.4436
217.6472	0.4201
217.8639	0.407
218.0805	0.4139
218.2972	0.427
218.5138	0.4116
218.7305	0.4073
218.9471	0.4392
219.1637	0.42
219.3803	0.4216
219.5969	0.41
219.8135	0.4175
220.0301	0.4041
220.2466	0.4261
220.4632	0.4162
220.6797	0.4285
220.8962	0.4224
221.1127	0.4424
221.3292	0.4265
221.5457	0.4052
221.7622	0.4309
221.9787	0.4447
222.1951	0.4403
222.4116	0.4255
222.628	0.4376
222.8444	0.4334
223.0608	0.4324
223.2772	0.4505
223.4936	0.4596
223.71	0.4459
223.9264	0.4372
224.1427	0.4626
224.3591	0.456
224.5754	0.4619
224.7917	0.4652
225.008	0.4635
225.2243	0.4675
225.4406	0.4589
225.6569	0.463
225.8732	0.4489
226.0894	0.4867
226.3057	0.4574
226.5219	0.4653
226.7381	0.4642
226.9543	0.4694
227.1705	0.4819
227.3867	0.4885
227.6029	0.4681
227.8191	0.4895
228.0352	0.4999
228.2513	0.4952
228.4675	0.4803
228.6836	0.4986
228.8997	0.4954
229.1158	0.503
229.3319	0.4974
229.548	0.4933
229.764	0.5083
229.9801	0.5117
230.1961	0.5118
230.4121	0.4969
230.6282	0.4998
230.8442	0.505
231.0602	0.5296
231.2761	0.5238
231.4921	0.5162
231.7081	0.5188
231.924	0.502
232.14	0.519
232.3559	0.5303
232.5718	0.5313
232.7877	0.5246
233.0036	0.5313
233.2195	0.5346
233.4353	0.5274
233.6512	0.5314
233.867	0.5352
234.0829	0.5217
234.2987	0.5244
234.5145	0.5399
234.7303	0.5282
234.9461	0.543
235.1619	0.5428
235.3776	0.536
235.5934	0.5367
235.8091	0.5337
236.0249	0.5274
236.2406	0.5363
236.4563	0.5286
236.672	0.5416
236.8877	0.5385
237.1034	0.5315
237.319	0.5406
237.5347	0.5344
237.7503	0.535
237.966	0.5348
238.1816	0.5375
238.3972	0.5455
238.6128	0.5379
238.8284	0.5455
239.0439	0.5492
239.2595	0.535
239.475	0.5376
239.6906	0.5403
239.9061	0.5287
240.1216	0.5321
240.3371	0.5171
240.5526	0.5177
240.7681	0.5212
240.9836	0.5166
241.199	0.5166
241.4145	0.4966
241.6299	0.5
241.8453	0.4869
242.0607	0.4775
242.2761	0.4829
242.4915	0.4679
242.7069	0.4684
242.9223	0.4604
243.1376	0.4561
243.353	0.4421
243.5683	0.4407
243.7836	0.4211
243.9989	0.4241
244.2142	0.4112
244.4295	0.4023
244.6448	0.3924
244.86	0.3867
245.0753	0.3832
245.2905	0.3729
245.5057	0.3701
245.721	0.358
245.9362	0.3483
246.1514	0.344
246.3665	0.3358
246.5817	0.3354
246.7969	0.3283
247.012	0.3158
247.2271	0.3088
247.4423	0.3018
247.6574	0.3166
247.8725	0.3025
248.0876	0.2932
248.3026	0.283
248.5177	0.2862
248.7328	0.2791
248.9478	0.2744
249.1628	0.2637
249.3779	0.268
249.5929	0.2595
249.8079	0.249
250.0228	0.2485
250.2378	0.2524
250.4528	0.2517
250.6677	0.2442
250.8827	0.2374
251.0976	0.2394
251.3125	0.2389
251.5274	0.2355
251.7423	0.2307
251.9572	0.2237
252.172	0.2173
252.3869	0.2222
252.6017	0.2157
252.8166	0.2171
253.0314	0.2179
253.2462	0.2143
253.461	0.2091
253.6758	0.2119
253.8906	0.2112
254.1053	0.2034
254.3201	0.2111
254.5348	0.2002
254.7496	0.2041
254.9643	0.2039
255.179	0.2038
255.3937	0.1972
255.6083	0.2011
255.823	0.1982
256.0377	0.1958
256.2523	0.2021
256.467	0.1959
256.6816	0.2016
256.8962	0.1925
257.1108	0.1972
257.3254	0.1951
257.54	0.196
257.7545	0.1908
257.9691	0.1894
258.1836	0.1871
258.3981	0.1906
258.6127	0.1802
258.8272	0.1879
259.0417	0.1858
259.2561	0.1897
259.4706	0.1882
259.6851	0.1868
259.8995	0.183
260.114	0.1858
260.3284	0.1861
260.5428	0.1825
260.7572	0.1936
260.9716	0.1833
261.186	0.1888
261.4003	0.1912
261.6147	0.1849
261.829	0.1807
262.0433	0.1826
262.2577	0.1888
262.472	0.182
262.6863	0.1851
262.9005	0.1885
263.1148	0.1807
263.3291	0.1855
263.5433	0.185
263.7576	0.1829
263.9718	0.1875
264.186	0.1905
264.4002	0.1839
264.6144	0.1862
264.8286	0.187
265.0427	0.1927
265.2569	0.1874
265.471	0.1868
265.6851	0.1846
265.8993	0.1847
266.1134	0.1859
266.3275	0.1822
266.5415	0.1872
266.7556	0.1816
266.9697	0.1824
267.1837	0.1894
267.3978	0.1897
267.6118	0.1825
267.8258	0.1909
268.0398	0.1832
268.2538	0.1806
268.4677	0.1819
268.6817	0.1742
268.8957	0.1856
269.1096	0.1762
269.3235	0.189
269.5374	0.1782
269.7514	0.1829
269.9652	0.1818
270.1791	0.1898
270.393	0.1822
270.6068	0.1757
270.8207	0.175
271.0345	0.1693
271.2483	0.1765
271.4622	0.1785
271.676	0.1763
271.8897	0.176
272.1035	0.1775
272.3173	0.1756
272.531	0.176
272.7448	0.1724
272.9585	0.1766
273.1722	0.1775
273.3859	0.172
273.5996	0.1704
273.8133	0.1693
274.0269	0.1767
274.2406	0.1778
274.4542	0.1692
274.6679	0.1692
274.8815	0.1754
275.0951	0.178
275.3087	0.173
275.5223	0.1738
275.7358	0.1795
275.9494	0.1694
276.1629	0.1742
276.3765	0.174
276.59	0.182
276.8035	0.1773
277.017	0.1761
277.2305	0.1793
277.444	0.1804
277.6574	0.177
277.8709	0.1784
278.0843	0.1758
278.2978	0.1815
278.5112	0.1819
278.7246	0.1804
278.938	0.1796
279.1513	0.1806
279.3647	0.1847
279.5781	0.1754
279.7914	0.1784
280.0047	0.1786
280.2181	0.1854
280.4314	0.1808
280.6447	0.1872
280.8579	0.1762
281.0712	0.1821
281.2845	0.1874
281.4977	0.1864
281.711	0.1777
281.9242	0.1824
282.1374	0.1864
282.3506	0.192
282.5638	0.1866
282.7769	0.1843
282.9901	0.1858
283.2033	0.1843
283.4164	0.1844
283.6295	0.179
283.8426	0.1841
284.0557	0.1869
284.2688	0.1939
284.4819	0.1949
284.695	0.195
284.908	0.1931
285.1211	0.188
285.3341	0.1905
285.5471	0.1921
285.7601	0.1928
285.9731	0.1878
286.1861	0.1958
286.3991	0.1911
286.612	0.1909
286.825	0.1924
287.0379	0.1975
287.2508	0.1941
287.4637	0.1963
287.6766	0.1946
287.8895	0.188
288.1024	0.2011
288.3152	0.1952
288.5281	0.1964
288.7409	0.1999
288.9538	0.1952
289.1666	0.2018
289.3794	0.2019
289.5922	0.1919
289.8049	0.2018
290.0177	0.1993
290.2304	0.2025
290.4432	0.1977
290.6559	0.1976
290.8686	0.202
291.0813	0.1972
291.294	0.1998
291.5067	0.199
291.7194	0.1954
291.932	0.2038
292.1447	0.2056
292.3573	0.1992
292.5699	0.2033
292.7825	0.2026
292.9951	0.1995
293.2077	0.195
293.4203	0.2033
293.6328	0.1933
293.8454	0.1999
294.0579	0.2032
294.2704	0.1984
294.4829	0.1973
294.6954	0.2027
294.9079	0.2051
295.1204	0.1983
295.3328	0.2004
295.5453	0.1979
295.7577	0.1996
295.9701	0.1999
296.1825	0.1941
296.3949	0.2037
296.6073	0.2036
296.8197	0.1995
297.0321	0.2007
297.2444	0.1962
297.4567	0.1922
297.6691	0.2025
297.8814	0.1984
298.0937	0.2
298.306	0.2012
298.5182	0.204
298.7305	0.1982
298.9428	0.2002
299.155	0.1954
299.3672	0.2033
299.5794	0.1957
299.7916	0.199
300.0038	0.1944
300.216	0.2005
300.4282	0.1938
300.6403	0.199
300.8525	0.2044
301.0646	0.1952
301.2767	0.1942
301.4888	0.1995
301.7009	0.2007
301.913	0.2062
302.125	0.1976
302.3371	0.1985
302.5491	0.1968
302.7612	0.1992
302.9732	0.1917
303.1852	0.1965
303.3972	0.195
303.6092	0.1906
303.8211	0.1925
304.0331	0.1881
304.245	0.1959
304.457	0.1925
304.6689	0.1944
304.8808	0.1976
305.0927	0.1945
305.3046	0.183
305.5164	0.1871
305.7283	0.1908
305.9401	0.1767
306.152	0.1855
306.3638	0.184
306.5756	0.1809
306.7874	0.1821
306.9992	0.179
307.2109	0.1686
307.4227	0.1771
307.6344	0.1751
307.8462	0.1708
308.0579	0.1677
308.2696	0.1658
308.4813	0.1595
308.693	0.162
308.9046	0.1615
309.1163	0.1594
309.328	0.1541
309.5396	0.1616
309.7512	0.1542
309.9628	0.1516
310.1744	0.1551
310.386	0.1458
310.5976	0.1422
310.8091	0.1499
311.0207	0.1532
311.2322	0.1472
311.4437	0.1425
311.6552	0.143
311.8667	0.1428
312.0782	0.1437
312.2897	0.1426
312.5012	0.1397
312.7126	0.1322
312.924	0.1335
313.1355	0.1345
313.3469	0.1261
313.5583	0.1356
313.7696	0.1263
313.981	0.1311
314.1924	0.1206
314.4037	0.1246
314.6151	0.127
314.8264	0.1256
315.0377	0.1225
315.249	0.121
315.4603	0.1242
315.6716	0.1237
315.8828	0.1225
316.0941	0.1209
316.3053	0.1135
316.5165	0.1174
316.7277	0.1228
316.9389	0.1161
317.1501	0.1189
317.3613	0.1168
317.5724	0.1214
317.7836	0.1155
317.9947	0.1111
318.2058	0.1197
318.417	0.117
318.6281	0.1177
318.8391	0.1183
319.0502	0.1187
319.2613	0.1188
319.4723	0.1182
319.6834	0.1186
319.8944	0.1233
320.1054	0.1135
320.3164	0.1191
320.5274	0.1142
320.7383	0.111
320.9493	0.1181
321.1602	0.1183
321.3712	0.1147
321.5821	0.1206
321.793	0.1161
322.0039	0.1193
322.2148	0.1155
322.4257	0.1182
322.6365	0.1127
322.8474	0.1175
323.0582	0.1165
323.269	0.1222
323.4798	0.1157
323.6906	0.1159
323.9014	0.1135
324.1122	0.1129
324.3229	0.1173
324.5337	0.1225
324.7444	0.1141
324.9551	0.1186
325.1658	0.1204
325.3765	0.1182
325.5872	0.1132
325.7979	0.1218
326.0085	0.1202
326.2192	0.1204
326.4298	0.1219
326.6404	0.1196
326.851	0.1233
327.0616	0.1228
327.2722	0.1239
327.4828	0.1189
327.6933	0.1212
327.9039	0.1233
328.1144	0.119
328.3249	0.1206
328.5354	0.1175
328.7459	0.1198
328.9564	0.1282
329.1669	0.1148
329.3773	0.1189
329.5878	0.1238
329.7982	0.1204
330.0086	0.1284
330.219	0.1247
330.4294	0.1299
330.6398	0.1257
330.8502	0.1267
331.0605	0.125
331.2708	0.1236
331.4812	0.1197
331.6915	0.1218
331.9018	0.1136
332.1121	0.129
332.3224	0.1244
332.5326	0.1289
332.7429	0.121
332.9531	0.13
333.1633	0.1279
333.3735	0.1217
333.5837	0.1317
333.7939	0.1246
334.0041	0.1204
334.2143	0.1247
334.4244	0.1235
334.6346	0.1233
334.8447	0.1239
335.0548	0.1279
335.2649	0.1237
335.475	0.1271
335.685	0.1288
335.8951	0.1289
336.1051	0.1321
336.3152	0.1253
336.5252	0.1287
336.7352	0.1167
336.9452	0.131
337.1552	0.1307
337.3652	0.1272
337.5751	0.1314
337.7851	0.1271
337.995	0.132
338.2049	0.1322
338.4148	0.1291
338.6247	0.1299
338.8346	0.1242
339.0445	0.1346
339.2543	0.1338
339.4642	0.1339
339.674	0.134
339.8838	0.1312
340.0936	0.1343
340.3034	0.1378
340.5132	0.1268
340.7229	0.1365
340.9327	0.1419
341.1424	0.1349
341.3522	0.1302
341.5619	0.1344
341.7716	0.1405
341.9813	0.1404
342.1909	0.1386
342.4006	0.1451
342.6102	0.1402
342.8199	0.14
343.0295	0.143
343.2391	0.1389
343.4487	0.1476
343.6583	0.1496
343.8679	0.1394
344.0774	0.145
344.287	0.1449
344.4965	0.1401
344.706	0.1463
344.9155	0.1407
345.125	0.1423
345.3345	0.1455
345.544	0.1526
345.7534	0.148
345.9629	0.147
346.1723	0.15
346.3817	0.1503
346.5911	0.1479
346.8005	0.1515
347.0099	0.1598
347.2193	0.1513
347.4286	0.1498
347.638	0.151
347.8473	0.1559
348.0566	0.1564
348.2659	0.1581
348.4752	0.1555
348.6845	0.1666
348.8937	0.1622
349.103	0.1573
349.3122	0.1634
349.5214	0.157
349.7306	0.156
349.9398	0.1614
350.149	0.1652
350.3582	0.162
350.5674	0.1633
350.7765	0.1681
350.9856	0.1608
351.1948	0.163
351.4039	0.1591
351.613	0.1779
351.822	0.1631
352.0311	0.1685
352.2402	0.1705
352.4492	0.1642
352.6582	0.1648
352.8672	0.1692
353.0762	0.1743
353.2852	0.1738
353.4942	0.1769
353.7032	0.1745
353.9121	0.1681
354.1211	0.1746
354.33	0.1802
354.5389	0.1829
354.7478	0.1743
354.9567	0.1767
355.1655	0.1765
355.3744	0.1848
355.5833	0.1808
355.7921	0.1752
356.0009	0.1806
356.2097	0.1845
356.4185	0.1886
356.6273	0.1802
356.8361	0.1988
357.0448	0.1924
357.2536	0.1881
357.4623	0.182
357.671	0.1861
357.8797	0.1934
358.0884	0.1889
358.2971	0.1935
358.5057	0.1852
358.7144	0.1977
358.923	0.1955
359.1316	0.1897
359.3402	0.2003
359.5488	0.191
359.7574	0.2026
359.966	0.202
360.1746	0.1991
360.3831	0.2059
360.5916	0.206
360.8002	0.216
361.0087	0.2011
361.2172	0.2095
361.4256	0.2007
361.6341	0.215
361.8426	0.2076
362.051	0.2129
362.2594	0.2136
362.4678	0.2146
362.6762	0.2245
362.8846	0.225
363.093	0.2174
363.3014	0.2226
363.5097	0.2155
363.718	0.2244
363.9264	0.2226
364.1347	0.2323
364.343	0.2299
364.5513	0.2257
364.7595	0.2312
364.9678	0.2361
365.176	0.2299
365.3842	0.232
365.5925	0.2331
365.8007	0.2298
366.0089	0.2382
366.217	0.2345
366.4252	0.2354
366.6333	0.237
366.8415	0.2419
367.0496	0.2424
367.2577	0.2399
367.4658	0.2398
367.6739	0.2378
367.882	0.2453
368.09	0.2355
368.2981	0.2427
368.5061	0.2468
368.7141	0.2411
368.9221	0.2468
369.1301	0.2491
369.3381	0.2539
369.5461	0.2452
369.754	0.2521
369.962	0.2531
370.1699	0.2632
370.3778	0.2579
370.5857	0.2596
370.7936	0.2631
371.0015	0.2469
371.2093	0.2643
371.4172	0.2639
371.625	0.2613
371.8328	0.2731
372.0406	0.2574
372.2484	0.2601
372.4562	0.2678
372.664	0.2647
372.8717	0.2668
373.0795	0.2665
373.2872	0.2736
373.4949	0.2713
373.7026	0.2798
373.9103	0.2693
374.118	0.2696
374.3256	0.282
374.5333	0.2723
374.7409	0.2674
374.9485	0.2692
375.1561	0.2853
375.3637	0.2728
375.5713	0.2767
375.7789	0.2811
375.9864	0.2784
376.194	0.2903
376.4015	0.2802
376.609	0.2851
376.8165	0.2936
377.024	0.2724
377.2315	0.2885
377.4389	0.2701
377.6464	0.2855
377.8538	0.281
378.0612	0.2858
378.2686	0.2931
378.476	0.2925
378.6834	0.2818
378.8908	0.2989
379.0981	0.2978
379.3055	0.3031
379.5128	0.2976
379.7201	0.2991
379.9274	0.2885
380.1347	0.2933
380.342	0.3051
380.5492	0.2992
380.7565	0.3078
380.9637	0.2945
381.1709	0.2959
381.3781	0.3032
381.5853	0.3009
381.7925	0.3074
381.9997	0.3116
382.2068	0.3016
382.4139	0.3118
382.6211	0.3128
382.8282	0.3145
383.0353	0.3053
383.2424	0.3089
383.4494	0.3143
383.6565	0.3043
383.8635	0.3145
384.0706	0.3095
384.2776	0.3208
384.4846	0.3165
384.6916	0.314
384.8986	0.3167
385.1055	0.3102
385.3125	0.3195
385.5194	0.3055
385.7263	0.322
385.9333	0.3158
386.1402	0.3186
386.347	0.3163
386.5539	0.318
386.7608	0.3228
386.9676	0.311
387.1744	0.3144
387.3813	0.3159
387.5881	0.3153
387.7948	0.3091
388.0016	0.3128
388.2084	0.2982
388.4151	0.3181
388.6219	0.3101
388.8286	0.3146
389.0353	0.3097
389.242	0.3047
389.4487	0.3102
389.6553	0.3209
389.862	0.3136
390.0686	0.3083
390.2753	0.2971
390.4819	0.3038
390.6885	0.3024
390.8951	0.3095
391.1016	0.3044
391.3082	0.2855
391.5147	0.2928
391.7213	0.3054
391.9278	0.2944
392.1343	0.301
392.3408	0.2825
392.5473	0.292
392.7537	0.3041
392.9602	0.2951
393.1666	0.2919
393.373	0.2927
393.5794	0.292
393.7858	0.2892
393.9922	0.286
394.1986	0.2829
394.4049	0.2795
394.6113	0.2866
394.8176	0.2685
395.0239	0.2811
395.2302	0.2685
395.4365	0.2743
395.6428	0.2831
395.8491	0.2867
396.0553	0.2691
396.2615	0.2761
396.4678	0.278
396.674	0.2736
396.8802	0.272
397.0863	0.272
397.2925	0.2697
397.4987	0.2621
397.7048	0.274
397.9109	0.2745
398.117	0.2624
398.3231	0.288
398.5292	0.2709
398.7353	0.2623
398.9413	0.268
399.1474	0.2788
399.3534	0.2712
399.5594	0.2792
399.7654	0.2678
399.9714	0.2689
400.1774	0.2751
400.3833	0.2775
400.5893	0.2633
400.7952	0.2622
401.0011	0.2538
401.207	0.2594
401.4129	0.2677
401.6188	0.2643
401.8247	0.2691
402.0305	0.2641
402.2364	0.2728
402.4422	0.269
402.648	0.2695
402.8538	0.2716
403.0596	0.263
403.2654	0.2665
403.4711	0.2729
403.6768	0.2781
403.8826	0.2608
404.0883	0.2616
404.294	0.2679
404.4997	0.258
404.7054	0.259
404.911	0.2652
405.1167	0.2706
405.3223	0.2757
405.5279	0.2678
405.7335	0.2625
405.9391	0.2719
406.1447	0.2638
406.3502	0.2741
406.5558	0.2856
406.7613	0.2767
406.9668	0.2664
407.1724	0.2721
407.3778	0.2762
407.5833	0.2654
407.7888	0.2758
407.9942	0.2585
408.1997	0.2596
408.4051	0.2626
408.6105	0.2694
408.8159	0.2617
409.0213	0.2712
409.2267	0.2677
409.432	0.2702
409.6374	0.2709
409.8427	0.2541
410.048	0.261
410.2533	0.2621
410.4586	0.2715
410.6639	0.2804
410.8691	0.2836
411.0744	0.2625
411.2796	0.266
411.4848	0.263
411.69	0.2695
411.8952	0.2715
412.1004	0.259
412.3056	0.2679
412.5107	0.2651
412.7158	0.2632
412.921	0.2658
413.1261	0.2668
413.3312	0.2634
413.5362	0.2669
413.7413	0.2663
413.9464	0.2544
414.1514	0.2659
414.3564	0.2609
414.5614	0.2588
414.7664	0.2567
414.9714	0.2557
415.1764	0.2683
415.3813	0.2553
415.5863	0.2546
415.7912	0.26
415.9961	0.2555
416.201	0.2619
416.4059	0.2581
416.6108	0.2576
416.8156	0.2559
417.0205	0.2553
417.2253	0.261
417.4301	0.2649
417.6349	0.2452
417.8397	0.2588
418.0445	0.2541
418.2492	0.2597
418.454	0.2618
418.6587	0.2518
418.8634	0.2503
419.0681	0.2479
419.2728	0.2489
419.4775	0.2516
419.6822	0.2417
419.8868	0.2503
420.0915	0.263
420.2961	0.251
420.5007	0.2488
420.7053	0.2605
420.9099	0.2445
421.1144	0.252
421.319	0.2419
421.5235	0.246
421.728	0.245
421.9325	0.259
422.137	0.2539
422.3415	0.2385
422.546	0.2486
422.7504	0.2391
422.9549	0.2332
423.1593	0.2421
423.3637	0.235
423.5681	0.2372
423.7725	0.236
423.9769	0.2372
424.1812	0.238
424.3856	0.2363
424.5899	0.2389
424.7942	0.2343
424.9985	0.2312
425.2028	0.2342
425.4071	0.2158
425.6113	0.2287
425.8156	0.2377
426.0198	0.2243
426.224	0.229
426.4282	0.2209
426.6324	0.2232
426.8366	0.218
427.0407	0.2291
427.2449	0.2212
427.449	0.2169
427.6531	0.219
427.8572	0.2207
428.0613	0.2124
428.2654	0.211
428.4694	0.2029
428.6735	0.2051
428.8775	0.211
429.0815	0.21
429.2855	0.2005
429.4895	0.2001
429.6935	0.1993
429.8975	0.2054
430.1014	0.1931
430.3053	0.1955
430.5093	0.2005
430.7132	0.1929
430.9171	0.1897
431.1209	0.1983
431.3248	0.1954
431.5286	0.1764
431.7325	0.1993
431.9363	0.1824
432.1401	0.1859
432.3439	0.1745
432.5477	0.1841
432.7514	0.1777
432.9552	0.1754
433.1589	0.1759
433.3627	0.1736
433.5664	0.1753
433.7701	0.172
433.9737	0.1635
434.1774	0.1701
434.3811	0.158
434.5847	0.1567
434.7883	0.1653
434.9919	0.1498
435.1955	0.1601
435.3991	0.1529
435.6027	0.1599
435.8062	0.1493
436.0098	0.1501
436.2133	0.1615
436.4168	0.1547
436.6203	0.1366
436.8238	0.1409
437.0272	0.1408
437.2307	0.1293
437.4341	0.1322
437.6375	0.1383
437.841	0.1388
438.0443	0.134
438.2477	0.1319
438.4511	0.1311
438.6545	0.1276
438.8578	0.1258
439.0611	0.1328
439.2644	0.1245
439.4677	0.1191
439.671	0.1203
439.8743	0.1132
440.0775	0.1105
440.2808	0.1261
440.484	0.1046
440.6872	0.1054
440.8904	0.1098
441.0936	0.1077
441.2967	0.1025
441.4999	0.1042
441.703	0.1031
441.9062	0.1003
442.1093	0.1005
442.3124	0.0981
442.5155	0.096
442.7185	0.0811
442.9216	0.0992
443.1246	0.0981
443.3276	0.0868
443.5307	0.0887
443.7337	0.0908
443.9366	0.0769
444.1396	0.0783
444.3426	0.0908
444.5455	0.0715
444.7484	0.0698
444.9513	0.0779
445.1542	0.0785
445.3571	0.0663
445.56	0.0716
445.7628	0.0609
445.9657	0.0762
446.1685	0.0742
446.3713	0.0721
446.5741	0.056
446.7769	0.0727
446.9797	0.0711
447.1824	0.0616
447.3852	0.0528
447.5879	0.0575
447.7906	0.0585
447.9933	0.0669
448.196	0.0585
448.3986	0.0557
448.6013	0.0618
448.8039	0.0549
449.0066	0.0548
449.2092	0.0461
449.4118	0.0496
449.6143	0.0594
449.8169	0.0575
450.0195	0.0442
450.222	0.0451
450.4245	0.0508
450.627	0.0463
450.8295	0.0398
451.032	0.0527
451.2345	0.0387
451.4369	0.0469
451.6394	0.0446
451.8418	0.0474
452.0442	0.0391
452.2466	0.0368
452.449	0.0409
452.6513	0.0317
452.8537	0.0448
453.056	0.0388
453.2583	0.036
453.4607	0.0315
453.663	0.0325
453.8652	0.0335
454.0675	0.0262
454.2697	0.0291
454.472	0.0364
454.6742	0.0303
454.8764	0.0272
455.0786	0.0322
455.2808	0.0362
455.4829	0.0248
455.6851	0.0245
455.8872	0.0363
456.0893	0.0292
456.2915	0.0219
456.4935	0.0167
456.6956	0.0255
456.8977	0.0288
457.0997	0.0289
457.3018	0.0226
457.5038	0.0217
457.7058	0.0288
457.9078	0.0254
458.1098	0.0255
458.3117	0.0226
458.5137	0.0253
458.7156	0.0233
458.9175	0.0129
459.1194	0.0272
459.3213	0.0185
459.5232	0.0062
459.725	0.0207
459.9269	0.0226
460.1287	0.0077
460.3305	0.0202
460.5323	0.0215
460.7341	0.0171
460.9359	0.0192
461.1376	0.0217
461.3394	0.0172
461.5411	0.0215
461.7428	0.0154
461.9445	0.0149
462.1462	0.014
462.3479	0.0135
462.5495	0.0156
462.7512	0.0017
462.9528	0.0175
463.1544	0.0099
463.356	0.0148
463.5576	0.0051
463.7592	0.0112
463.9607	0.0133
464.1623	0.0104
464.3638	0.0107
464.5653	0.0171
464.7668	0.006
464.9683	0.0071
465.1697	0.0093
465.3712	0.005
465.5726	0.0094
465.7741	0.0064
465.9755	0.0072
466.1769	0.0054
466.3782	0.011
466.5796	0.0159
466.7809	0.0158
466.9823	0.003
467.1836	0.0103
467.3849	0.0069
467.5862	-0.0041
467.7875	0.0108
467.9887	0.0123
468.19	0.0065
468.3912	0.004
468.5924	0.0138
468.7936	-0.0011
468.9948	0.0119
469.196	0.0089
469.3972	0.0217
469.5983	-0.0045
469.7994	0.0089
470.0006	0.0087
470.2017	0.0113
470.4027	-0.0048
470.6038	-0.0008
470.8049	0.002
471.0059	0.0114
471.2069	0.0136
471.408	0.0053
471.6089	0.0165
471.8099	0.0143
472.0109	-0.0053
472.2119	0.021
472.4128	0.0063
472.6137	0.0005
472.8146	-0.0006
473.0155	-0.0047
473.2164	-0.0017
473.4173	0.0147
473.6181	0.0106
473.819	-0.003
474.0198	0.0016
474.2206	0
474.4214	0.0169
474.6222	0.0016
474.8229	0.0054
475.0237	0.0048
475.2244	-0.0002
475.4251	-0.0061
475.6258	0.005
475.8265	-0.0011
476.0272	0.01
476.2278	0.0022
476.4285	0.0059
476.6291	0.0069
476.8297	-0.0062
477.0303	0.0049
477.2309	-0.006
477.4315	0.0097
477.632	-0.0001
477.8326	0.0047
478.0331	0.0009
478.2336	0.0079
478.4341	0.0044
478.6346	0.0025
478.8351	0.0064
479.0355	0.0013
479.236	0.0102
479.4364	-0.0007
479.6368	-0.0023
479.8372	0.0056
480.0376	-0.004
480.2379	-0.0003
480.4383	-0.0052
480.6386	0.0011
480.8389	0.0046
481.0392	-0.0011
481.2395	0.005
481.4398	0.0046
481.6401	-0.0028
481.8403	-0.0053
482.0405	-0.0021
482.2408	0.0029
482.441	0.0001
482.6411	0.0034
482.8413	-0.0053
483.0415	0.0013
483.2416	0.003
483.4417	0.0073
483.6419	0.0079
483.8419	0.0035
484.042	-0.0021
484.2421	0.0001
484.4422	0.0032
484.6422	0.0112
484.8422	-0.0062
485.0422	0.0036
485.2422	0.0013
485.4422	-0.0013
485.6422	-0.0036
485.8421	0.0001
486.042	0.0044
486.242	0.0006
486.4419	0.0041
486.6417	0.0063
486.8416	0.0053
487.0415	-0.0021
487.2413	0.0053
487.4411	0.0008
487.641	0.0068
487.8408	0.0019
488.0405	0.0102
488.2403	-0.0011
488.4401	-0.0026
488.6398	0.0079
488.8395	-0.0048
489.0392	0.0048
489.2389	0.0049
489.4386	-0.0013
489.6383	0.0112
489.8379	-0.0011
490.0376	0.0113
490.2372	-0.0053
490.4368	0.0135
490.6364	0.0089
490.836	0.0031
491.0355	0.003
491.2351	0.0056
491.4346	0.0061
491.6341	-0.0059
491.8336	-0.0025
492.0331	-0.0005
492.2326	-0.0001
492.432	0.0012
492.6315	-0.0079
492.8309	0.0071
493.0303	-0.0101
493.2297	-0.0019
493.4291	0.001
493.6284	0.0033
493.8278	0.0021
494.0271	-0.0051
494.2264	0.0016
494.4257	0.006
494.625	-0.0019
494.8243	0.0077
495.0236	-0.0027
495.2228	-0.0078
495.422	0.0072
495.6213	0.0001
495.8205	-0.0037
496.0196	0.0013
496.2188	0.0027
496.418	-0.0047
496.6171	0.0022
496.8162	-0.0013
497.0153	0.0044
497.2144	-0.0039
497.4135	0.0086
497.6126	0.0004
497.8116	0.0011
498.0107	-0.003
498.2097	0.01
498.4087	-0.0022
498.6077	0.0098
498.8067	0.0021
499.0056	-0.0043
499.2046	0.0065
499.4035	0.0023
499.6024	-0.0042
499.8013	0.0041
500.0002	0.0034
500.199	0.0063
500.3979	0.0011
500.5967	-0.0098
500.7956	0.0056
500.9944	-0.0011
501.1932	0.0073
501.3919	-0.0001
501.5907	0.0048
501.7895	-0.0023
501.9882	-0.0008
502.1869	0.0073
502.3856	-0.0017
502.5843	-0.0042
502.783	0.0031
502.9816	-0.0042
503.1803	0.0108
503.3789	0.001
503.5775	0.0003
503.7761	0.0035
503.9747	-0.0031
504.1732	-0.0002
504.3718	0.0001
504.5703	0.0012
504.7689	-0.0001
504.9674	-0.0046
505.1658	0.009
505.3643	-0.002
505.5628	-0.0034
505.7612	0.0023
505.9597	-0.0002
506.1581	-0.0088
506.3565	-0.0065
506.5549	0.0021
506.7532	0.0016
506.9516	0.0084
507.1499	0.0016
507.3482	0.0067
507.5465	-0.0091
507.7448	0.0036
507.9431	-0.0026
508.1414	-0.0026
508.3396	0.0023
508.5379	0.0044
508.7361	0.0105
508.9343	-0.0043
509.1325	0.012
509.3306	0.002
509.5288	0.0088
509.7269	0.0027
509.9251	-0.002
510.1232	0.001
510.3213	0.0083
510.5193	0.0113
510.7174	-0.0052
510.9154	0.0015
511.1135	-0.009
511.3115	0.0051
511.5095	0.0022
511.7075	-0.0018
511.9055	0.0132
512.1034	0.0029
512.3014	-0.0034
512.4993	-0.002
512.6972	-0.0057
512.8951	-0.0023
513.093	0.0017
513.2908	0.0018
513.4887	0.008
513.6865	-0.0059
513.8844	-0.0002
514.0822	0.004
514.2799	0.0001
514.4777	0.0028
514.6755	0.0091
514.8732	-0.0025
515.0709	0.0079
515.2687	0.0029
515.4664	-0.006
515.664	0.0115
515.8617	0.0061
516.0594	0.0058
516.257	0.006
516.4546	-0.0136
516.6522	0.0013
516.8498	-0.0016
517.0474	-0.0031
517.2449	0.0013
517.4425	-0.007
517.64	0.0028
517.8375	0.0042
518.035	-0.0049
518.2325	-0.008
518.43	0.0036
518.6274	-0.0046
518.8249	0.0009
519.0223	0.0011
519.2197	0.0018
519.4171	0.0021
519.6145	-0.0051
519.8118	-0.0063
520.0092	-0.0012
520.2065	0.0002
520.4038	-0.0085
520.6011	-0.0032
520.7984	0.005
520.9956	-0.007
521.1929	0.0004
521.3901	-0.0002
521.5874	0.0043
521.7846	0.0001
521.9818	-0.0034
522.1789	0.0122
522.3761	-0.005
522.5732	-0.0052
522.7704	0.0039
522.9675	0.0026
523.1646	0.0104
523.3617	0.0019
523.5587	0.007
523.7558	0.0034
523.9528	0.002
524.1498	0.0035
524.3468	-0.0039
524.5438	-0.004
524.7408	-0.004
524.9378	0.0086
525.1347	0.0025
525.3316	0.0069
525.5285	0.0021
525.7254	0.0008
525.9223	-0.0085
526.1192	-0.0055
526.316	-0.018
526.5129	0.0053
526.7097	-0.0036
526.9065	0.0044
527.1033	-0.0029
527.3	-0.0111
527.4968	0.0072
527.6935	-0.0022
527.8903	0.0002
528.087	0.0037
528.2837	0.0024
528.4804	0.0095
528.677	0.0028
528.8737	0.0056
529.0703	-0.0023
529.2669	0.0006
529.4635	0.0146
529.6601	0.0044
529.8567	-0.0046
530.0532	0.0081
530.2498	-0.0061
530.4463	0.0016
530.6428	-0.0051
530.8393	0.0021
531.0358	-0.002
531.2322	-0.0023
531.4287	0.0026
531.6251	-0.0038
531.8215	0.0046
532.0179	-0.0013
532.2143	0.0075
532.4107	-0.0001
532.607	0.0016
532.8034	0.0065
532.9997	0.0058
533.196	0.0192
533.3923	-0.0041
533.5886	0.0033
533.7848	-0.0193
533.9811	-0.0085
534.1773	0.0061
534.3735	0.0073
534.5697	0.0012
534.7659	0.0044
534.9621	0.0098
535.1582	0.0126
535.3544	0.0099
535.5505	-0.0052
535.7466	-0.0008
535.9427	-0.0036
536.1387	-0.0068
536.3348	0.0089
536.5308	0.0153
536.7269	-0.0048
536.9229	-0.0016
537.1189	0.0016
537.3148	-0.005
537.5108	0.0016
537.7068	0.0046
537.9027	0.0078
538.0986	-0.004
538.2945	-0.0021
538.4904	-0.0097
538.6863	0.0063
538.8821	-0.007
539.078	-0.0006
539.2738	-0.004
539.4696	0.003
539.6654	0.0055
539.8611	0.0029
540.0569	-0.0009
540.2526	-0.0037
540.4484	-0.0019
540.6441	0.0052
540.8398	-0.006
541.0355	0.0089
541.2311	-0.0047
541.4268	-0.0025
541.6224	0.0075
541.818	-0.0093
542.0136	-0.0039
542.2092	-0.0016
542.4048	0.0066
542.6003	-0.0084
542.7959	0.0095
542.9914	0
543.1869	-0.0008
543.3824	0.0021
543.5779	0.0065
543.7734	-0.0006
543.9688	-0.0064
544.1642	0.0128
544.3596	-0.0024
544.555	0.0018
544.7504	0.0061
544.9458	0.0008
545.1411	-0.0039
545.3365	0.0059
545.5318	-0.0009
545.7271	0.0114
545.9224	-0.0044
546.1177	0.0125
546.3129	-0.0254
546.5081	-0.0056
546.7034	-0.0049
546.8986	0.0012
547.0938	-0.0003
547.289	0.0015
547.4841	0.0032
547.6793	-0.0036
547.8744	0.0002
548.0695	-0.0018
548.2646	-0.0034
548.4597	-0.0079
548.6548	0.0031
548.8498	-0.0054
549.0448	0.0028
549.2399	-0.0016
549.4349	0.0004
549.6298	-0.0124
549.8248	0.005
550.0198	0.0113
550.2147	-0.0108
550.4096	-0.0012
550.6045	-0.0007
550.7994	-0.0012
550.9943	-0.0071
551.1892	-0.0064
551.384	-0.0012
551.5788	0.0035
551.7737	-0.0007
551.9685	0.0094
552.1632	0.0043
552.358	-0.0013
552.5528	0.0028
552.7475	-0.0063
552.9422	-0.0005
553.1369	0.0141
553.3316	-0.0032
553.5263	-0.0028
553.7209	-0.0053
553.9156	0.0054
554.1102	0.0025
554.3048	0.0087
554.4994	-0.0003
554.694	0.0027
554.8885	-0.002
555.0831	0.0087
555.2776	-0.0048
555.4721	-0.0026
555.6666	0.0079
555.8611	-0.0169
556.0555	0.0027
556.25	-0.0026
556.4444	0.0027
556.6388	0.0109
556.8332	0.002
557.0276	0.0192
557.222	0.0004
557.4163	0.0022
557.6107	0.002
557.805	0.0029
557.9993	-0.0021
558.1936	0.0081
558.3879	0.0097
558.5821	-0.0044
558.7764	0.0106
558.9706	0.0034
559.1648	0.0007
559.359	0.0094
559.5532	-0.0108
559.7473	0.0099
559.9415	-0.0029
560.1356	0.0038
560.3297	0.0021
560.5238	0.0085
560.7179	0.0017
560.9119	0.0121
561.106	-0.0074
561.3	-0.0057
561.494	0.0104
561.688	0.0071
561.882	-0.0041
562.076	0.0113
562.2699	0.003
562.4639	0.0059
562.6578	0.009
562.8517	-0.0116
563.0456	0.0013
563.2395	-0.0023
563.4333	-0.0055
563.6272	0.0173
563.821	0.0081
564.0148	-0.0042
564.2086	0.0066
564.4024	0.0023
564.5961	-0.0021
564.7899	-0.0013
564.9836	0.0033
565.1773	-0.0014
565.371	0.0056
565.5647	-0.0108
565.7584	0.005
565.952	-0.0036
566.1456	-0.0009
566.3393	0.0199
566.5329	-0.0027
566.7264	0.0009
566.92	-0.0007
567.1136	0.0017
567.3071	-0.0069
567.5006	-0.008
567.6941	0.0072
567.8876	0.0028
568.0811	-0.0056
568.2745	-0.0031
568.468	0.0013
568.6614	0.0046
568.8548	-0.0017
569.0482	0.0032
569.2416	-0
569.4349	0.0041
569.6283	-0.003
569.8216	0.0003
570.0149	-0.0037
570.2082	-0.0047
570.4015	0.0003
570.5947	-0.0024
570.788	0.0005
570.9812	0.0002
571.1744	-0.0018
571.3676	-0.0047
571.5608	-0.004
571.754	-0.0011
571.9471	-0.0023
572.1402	0.0001
572.3333	0.001
572.5264	0.0035
572.7195	0.0037
572.9126	-0.0025
573.1057	-0.0009
573.2987	0.0012
573.4917	-0.0029
573.6847	-0.0003
573.8777	0.0016
574.0707	-0.0036
574.2636	0.0004
574.4566	-0.0004
574.6495	0.0024
574.8424	0.0006
575.0353	-0.0016
575.2281	-0.0017
575.421	-0.0007
575.6138	-0.001
575.8067	-0.0037
575.9995	-0.0017
576.1923	0.0029
576.385	-0.0025
576.5778	0
576.7706	0.0038
576.9633	0.0015
577.156	0.0016
577.3487	-0.0015
577.5414	-0.0016
577.734	-0.002
577.9267	-0.0003
578.1193	0.0038
578.3119	-0.0032
578.5045	-0.0024
578.6971	-0.0002
578.8897	0.003
579.0822	0.001
579.2747	-0.0065
579.4673	0.0002
579.6598	-0.0075
579.8522	0.0072
580.0447	-0.0012
580.2372	0.0033
580.4296	-0.0017
580.622	0.0036
580.8144	-0.0008
581.0068	-0.0007
581.1992	0.0024
581.3915	0.0009
581.5839	0.0035
581.7762	0.0035
581.9685	-0.0033
582.1608	0.0026
582.353	-0.0008
582.5453	0.001
582.7375	0.0005
582.9298	0.0019
583.122	-0.0077
583.3142	0.0046
583.5063	-0.0025
583.6985	0.0024
583.8906	-0.0044
584.0827	0.0007
584.2749	0.0042
584.4669	-0.0021
584.659	0.0016
584.8511	0.0044
585.0431	0.0004
585.2352	-0.0045
585.4272	0.0036
585.6192	-0.0024
585.8111	-0.0067
586.0031	0.0021
586.195	-0.001
586.387	0.0025
586.5789	0.0018
586.7708	-0.0014
586.9627	-0.0037
587.1545	0.0011
587.3464	0.0024
587.5382	0.0029
587.73	0.0051
587.9218	-0.0034
588.1136	-0.0061
588.3053	-0.0014
588.4971	-0.0003
588.6888	-0.0001
588.8805	0.0071
589.0722	0.0002
589.2639	-0.0021
589.4556	-0.0049
589.6472	-0.0015
589.8389	-0.0046
590.0305	-0.0005
590.2221	0.0021
590.4137	-0.0049
590.6052	0.0003
590.7968	0.0031
590.9883	-0.0047
591.1798	-0.007
591.3713	-0.008
591.5628	-0.0006
591.7543	-0.0003
591.9458	0.0027
592.1372	-0.0044
592.3286	-0.003
592.52	-0.0014
592.7114	-0.0037
592.9028	-0.0037
593.0941	0.0028
593.2855	0.0003
593.4768	0.0041
593.6681	0.0022
593.8594	-0.0047
594.0506	0.0012
594.2419	-0.0041
594.4331	-0.0036
594.6244	0.0045
594.8156	0.0044
595.0067	0.0027
595.1979	-0.0057
595.3891	-0.0033
595.5802	-0.0012
595.7713	-0.0042
595.9624	0.0018
596.1535	0.0036
596.3446	0.0006
596.5357	-0.0013
596.7267	-0.0021
596.9177	0.0009
597.1087	-0.0029
597.2997	0.005
597.4907	0.0022
597.6817	-0.0037
597.8726	0.0029
598.0635	0.0026
598.2544	-0.0044
598.4453	-0.0029
598.6362	-0.0014
598.827	0.0011
599.0179	0.0022
599.2087	-0.0064
599.3995	0.0048
599.5903	0.005
599.7811	0.005
599.9718	0.002
600.1626	-0.0004
600.3533	-0.0031
600.544	-0.0009
600.7347	0.0003
600.9254	-0.0019
601.116	-0.0046
601.3067	0.0031
601.4973	0.005
601.6879	-0.0033
601.8785	-0.004
602.0691	0.0042
602.2596	0.0025
602.4502	-0.0076
602.6407	0.0039
602.8312	0.0014
603.0217	0.0058
603.2122	-0.0006
603.4027	-0.0062
603.5931	-0.0064
603.7835	0.0011
603.9739	0.0003
604.1643	0.0005
604.3547	0.012
604.5451	0.0046
604.7354	0.0007
604.9257	0.0017
605.116	-0.0045
605.3063	0.0045
605.4966	0.0059
605.6869	-0.0018
605.8771	0.0039
606.0673	-0.0072
606.2575	-0.0013
606.4477	0.0055
606.6379	-0.0002
606.8281	-0.0043
607.0182	-0.0052
607.2083	0.0001
607.3985	0.0044
607.5885	0.0006
607.7786	0.0057
607.9687	-0.0026
608.1587	0.0022
608.3488	-0.0054
608.5388	-0.0021
608.7288	-0.0036
608.9187	0.0106
609.1087	-0.0011
609.2986	0
609.4886	0.004
609.6785	0.0028
609.8684	-0.0079
610.0582	0.0039
610.2481	-0.0034
610.4379	0.0016
610.6278	-0.0002
610.8176	-0.008
611.0074	-0.0072
611.1971	0.001
611.3869	0.0015
611.5766	-0.0016
611.7664	-0.0022
611.9561	-0.0012
612.1458	-0.0026
612.3354	0.0039
612.5251	-0.0019
612.7147	0
612.9044	0.0037
613.094	0.0042
613.2836	-0.0018
613.4731	0.0007
613.6627	-0.0003
613.8522	-0.0053
614.0417	-0.0044
614.2313	-0.0091
614.4207	0.0067
614.6102	-0.0039
614.7997	-0
614.9891	0.0001
615.1785	0.0037
615.3679	-0.0001
615.5573	-0.0077
615.7467	-0.0018
615.9361	-0.0079
616.1254	-0.0032
616.3147	0.0042
616.504	0.0013
616.6933	-0.0009
616.8826	0.0065
617.0718	-0.0023
617.2611	0.0008
617.4503	-0.0017
617.6395	0.0016
617.8287	0.0048
618.0179	-0.0023
618.207	0.003
618.3961	-0.0051
618.5853	0.0098
618.7744	0.0097
618.9634	0.0004
619.1525	0.0026
619.3416	-0.0047
619.5306	-0.0051
619.7196	-0.0086
619.9086	0.0081
620.0976	-0.0016
620.2866	0.0037
620.4755	0.0104
620.6645	-0.0021
620.8534	-0.0031
621.0423	-0.011
621.2312	-0.0023
621.42	-0.0082
621.6089	0.0096
621.7977	0.0022
621.9865	0.0002
622.1753	0.0046
622.3641	-0.008
622.5529	-0.0083
622.7416	0.0002
622.9303	0.0024
623.1191	-0.0115
623.3078	0.0021
623.4964	-0.0052
623.6851	0.0078
623.8737	0.0136
624.0624	-0.001
624.251	0.0046
624.4396	-0.0059
624.6282	0.0038
624.8167	0.0126
625.0053	-0.0087
625.1938	-0.0073
625.3823	-0.0102
625.5708	-0.0056
625.7593	-0.0051
625.9477	-0.0076
626.1362	0.0061
626.3246	-0.0109
626.513	0.0005
626.7014	-0.0036
626.8898	0.0004
627.0781	0.0046
627.2665	0.0038
627.4548	-0.0054
627.6431	-0.0125
627.8314	0.0035
628.0197	0.011
628.2079	0.004
628.3962	-0.0069
628.5844	-0.0052
628.7726	-0.0024
628.9608	-0.0005
629.1489	-0.006
629.3371	0.0001
629.5252	0.0085
629.7134	-0.0047
629.9015	-0.0067
630.0895	0.0012
630.2776	0.0027
630.4657	-0.0012
630.6537	-0.0092
630.8417	-0.0043
631.0297	0.0112
631.2177	-0.0008
631.4057	0.0003
631.5936	0.0047
631.7815	-0.0016
631.9695	0.0009
632.1574	-0.007
632.3452	0.0007
632.5331	-0.0098
632.7209	0.0063
632.9088	-0.0165
633.0966	0.0072
633.2844	0.0015
633.4722	0.0052
633.6599	-0.0148
633.8477	-0.0018
634.0354	0.0017
634.2231	0.0275
634.4108	-0.0027
634.5985	-0.0128
634.7861	0.0063
634.9738	-0.0042
635.1614	0.0017
635.349	-0.0165
635.5366	0.0104
635.7242	-0.005
635.9117	0.0183
636.0993	-0.0201
636.2868	-0.0099
636.4743	0.013
636.6618	0.01
636.8492	-0.0059
637.0367	0.0152
637.2241	-0.0048
637.4115	0.0052
637.5989	-0.0005
637.7863	-0.0045
637.9737	0.0097
638.161	-0.0012
638.3484	0.0047
638.5357	-0.0003
638.723	-0.0048
638.9103	-0.0026
639.0975	0.0171
639.2848	0.016
639.472	-0.0123
639.6592	-0.0114
639.8464	0.0048
640.0336	0.0158
640.2208	-0.0096
640.4079	0.0108
640.595	-0.0106
640.7821	-0.0025
640.9692	0.0102
641.1563	0.0076
641.3434	0.0103
641.5304	0.0085
641.7174	0.0117
641.9044	0.0014
642.0914	-0.0054
642.2784	0.0122
642.4653	-0.0016
642.6523	0.0183
642.8392	0.0106
643.0261	0.0183
643.213	0.0084
643.3999	-0.0059
643.5867	-0.0124
643.7735	0.0041
643.9604	-0.0043
644.1472	-0.0009
644.3339	-0.0084
644.5207	-0.0208
644.7075	0.0015
644.8942	0.0145
645.0809	-0.0027
645.2676	-0.0086
645.4543	0.0008
645.6409	0.0171
645.8276	-0.0151
646.0142	0.0052
646.2008	0.0097
646.3874	-0.0035
646.574	-0.0329
646.7605	-0.0066
646.9471	0.014
647.1336	0.0039
647.3201	-0.0126
647.5066	0.0019
647.6931	0.0092
647.8795	0.0117
648.0659	-0.0146
648.2524	-0.0143
648.4388	-0.0002
648.6252	-0.0212
648.8115	0.0197
648.9979	0.0056
649.1842	-0.0177
649.3705	0.0075
649.5568	-0.0165
649.7431	0.0077
649.9294	-0.0084
650.1156	-0.0156
650.3018	0.0242
650.488	0.0149
650.6742	0.0107
650.8604	-0.0053
651.0466	0.0157
651.2327	-0.0153
651.4188	-0.0239
651.6049	-0.0026
651.791	0.0148
651.9771	-0.0091
652.1632	0.0074
652.3492	-0.0072
652.5352	0.0022
652.7212	-0.0059
652.9072	0.0027
653.0932	-0.0046
653.2791	-0.0076
653.465	-0.0162
653.651	0.0052
653.8369	0.0158
654.0227	-0.0052
654.2086	-0.0095
654.3944	-0.0164
654.5803	0.0088
654.7661	0.0011
654.9519	-0.0027
655.1377	-0
655.3234	-0
655.5092	-0
655.6949	-0
655.8806	-0
656.0663	-0
656.2519	-0
656.4376	-0
656.6232	-0
656.8088	-0
656.9945	-0
657.18	-0
657.3656	-0
657.5511	-0
657.7367	-0
657.9222	-0
658.1077	-0
658.2932	-0
658.4786	-0
658.6641	-0
658.8495	-0
659.0349	-0
659.2203	-0
659.4057	0.0032
659.591	0.0369
659.7764	0.0141
659.9617	-0.0014
660.147	-0.0187
660.3323	-0.0039
660.5176	0.0018
660.7028	-0.0011
660.888	0.0096
661.0733	0.0202
661.2585	0.0229
661.4436	0.0043
661.6288	0.0118
661.8139	0.006
661.9991	-0.0157
662.1842	0.0137
662.3693	-0.0075
662.5544	-0.0038
662.7394	0.0291
662.9245	0.0081
663.1095	-0.0098
663.2945	0.0052
663.4795	-0.0092
663.6644	0.007
663.8494	-0.0002
664.0343	-0.0109
664.2193	-0.0095
664.4042	-0.0318
664.589	-0.0036
664.7739	-0.0068
664.9587	0.0045
665.1436	0.0012
665.3284	0.0142
665.5132	-0.0098
665.698	-0.0076
665.8827	-0.0162
666.0675	-0.0134
666.2522	0.0265
666.4369	-0.0262
666.6216	0.0015
666.8063	0.0152
666.9909	-0.003
667.1756	0.0106
667.3602	-0.0194
667.5448	-0.0003
667.7294	-0.0105
667.9139	-0.0024
668.0985	-0.014
668.283	-0.0068
668.4675	-0.0232
668.652	-0.0058
668.8365	-0.0447
669.0209	-0.019
669.2054	0.0069
669.3898	-0.0045
669.5742	0.026
669.7586	-0.0012
669.943	-0.0302
670.1273	0.0221
670.3117	0.0346
670.496	0.0225
670.6803	0.0125
670.8646	-0.0018
671.0488	-0.0021
671.2331	-0.0038
671.4173	-0.004
671.6015	-0.0122
671.7857	-0.0218
671.9699	0.0075
672.1541	-0.0014
672.3382	0.0032
672.5223	0.0145
672.7064	-0.0041
672.8905	0.0043
673.0746	-0.0189
673.2587	0.0153
673.4427	-0.0076
673.6267	-0.0046
673.8107	-0.0091
673.9947	-0.0063
674.1787	0.0376
674.3626	-0.0103
674.5465	0.001
674.7304	-0.0406
674.9143	0.0074
675.0982	-0.0072
675.2821	0.0288
675.4659	-0.0006
675.6497	-0.0199
675.8335	0.0006
676.0173	0.0045
676.2011	0.0103
676.3849	-0.011
676.5686	-0.006
676.7523	0.0135
676.936	-0.0115
677.1197	0.0019
677.3034	0.0242
677.487	-0.0167
677.6706	0.0003
677.8542	0.0061
678.0378	0.0176
678.2214	0.0036
678.405	0.0101
678.5885	0.0019
678.772	-0.0159
678.9555	0.0114
679.139	-0.0057
679.3225	-0.0237
679.5059	-0.0013
679.6894	-0.0072
679.8728	-0.0065
680.0562	0.0108
680.2395	-0.0102
680.4229	-0.0095
680.6062	-0.0031
680.7896	0.0053
680.9729	-0.0025
681.1562	-0.0116
681.3394	0.0032
681.5227	-0.0121
681.7059	-0.0129
681.8891	0.0063
682.0723	-0.0186
682.2555	0.0093
682.4387	0.0127
682.6218	-0.002
682.805	0.0018
682.9881	-0.005
683.1712	0.0078
683.3542	-0.0176
683.5373	0.013
683.7203	-0.0014
683.9034	0.0125
684.0864	-0.0075
684.2694	-0.0026
684.4523	-0.0025
684.6353	0.0041
684.8182	0.0108
685.0011	0.0033
685.184	0.0034
685.3669	-0.0086
685.5498	-0.0014
685.7326	-0.0044
685.9154	-0.0042
686.0982	0.0044
686.281	-0.0143
686.4638	0.0076
686.6465	-0.0012
686.8293	-0.0135
687.012	-0.0004
687.1947	0.0126
687.3774	-0.0072
687.56	0.001
687.7427	-0.0037
687.9253	0.012
688.1079	0.0101
688.2905	-0.0075
688.4731	0.0346
688.6556	-0.0225
688.8382	0
689.0207	-0.0197
689.2032	-0.021
689.3857	0.0003
689.5681	-0.0121
689.7506	-0.015
689.933	-0.0084
690.1154	-0.0074
690.2978	-0.0201
690.4802	-0.0094
690.6626	-0.0035
690.8449	-0.0278
691.0272	-0.0212
691.2095	-0.0124
691.3918	-0.0036
691.5741	0.0103
691.7563	0.0137
691.9386	-0.0105
692.1208	-0.0191
692.303	0.0221
692.4852	-0.004
692.6673	-0.0077
692.8495	0.0008
693.0316	-0.0102
693.2137	0.0369
693.3958	0.0003
693.5778	-0.0133
693.7599	-0.033
693.9419	0.0291
694.1239	-0.0071
694.3059	-0.041
694.4879	-0.014
694.6699	0.0208
694.8518	0.0216
695.0337	0.0083
695.2157	-0.0071
695.3975	0.0131
695.5794	-0.0145
695.7613	0.0235
695.9431	-0.0135
696.1249	-0.0046
696.3067	0.0008
696.4885	-0.0007
696.6703	0.0087
696.852	-0.0093
697.0337	-0.0046
697.2154	0.0083
697.3971	0.0105
697.5788	0.0247
697.7605	-0.0107
697.9421	-0.0079
698.1237	0.0143
698.3053	-0.0108
698.4869	0.0125
698.6685	-0.0017
698.85	-0.0032
699.0315	-0.0031
699.213	0.0074
699.3945	0.0078
699.576	0.0074
699.7575	-0.0218
699.9389	-0.0156
700.1203	-0.0166
700.3017	-0.0046
700.4831	0.002
700.6645	0.0073
700.8458	0.0328
701.0271	0.0088
701.2084	-0.015
701.3897	0.0117
701.571	0.016
701.7523	-0.0084
701.9335	0.0174
702.1147	-0.017
702.2959	0.0243
702.4771	-0.0031
702.6583	-0.0258
702.8394	0.006
703.0205	0.0032
703.2016	-0.0003
703.3827	0.0052
703.5638	0.0142
703.7449	-0.0064
703.9259	-0.0114
704.1069	0.0236
704.2879	0.0167
704.4689	0.0303
704.6499	-0.0273
704.8308	-0.0212
705.0117	-0.0111
705.1927	-0.012
705.3735	0.0103
705.5544	-0.0132
705.7353	0.0198
705.9161	0.0025
706.0969	-0.0026
706.2777	0.0224
706.4585	-0.0069
706.6393	0.0091
706.82	-0.0114
707.0007	-0.005
707.1815	0.0087
707.3621	0.0023
707.5428	0.0096
707.7235	0.0126
707.9041	-0.0079
708.0847	-0.0035
708.2653	-0.0126
708.4459	-0.0036
708.6265	-0.0266
708.807	0.0099
708.9875	0.0101
709.168	0.0076
709.3485	0.0133
709.529	0.0351
709.7095	-0.0273
709.8899	0.0277
710.0703	0.0207
710.2507	-0.0195
710.4311	0.0007
710.6115	-0.0023
710.7918	-0.0223
710.9721	-0.0029
711.1524	0.0053
711.3327	0
711.513	-0.0081
711.6932	-0.0319
711.8735	-0.0215
712.0537	0.01
712.2339	0.0088
712.4141	-0.0042
712.5942	0.0227
712.7744	0.0091
712.9545	0.0288
713.1346	-0.0003
713.3147	0.0078
713.4947	0.0028
713.6748	-0.014
713.8548	-0.0014
714.0348	0.0107
714.2148	0.0062
714.3948	0.0143
714.5748	-0.0058
714.7547	-0.0063
714.9346	0.0028
715.1145	0.0161
715.2944	0.0075
715.4743	-0.012
715.6541	-0.0169
715.834	0.006
716.0138	0.0147
716.1936	-0.0266
716.3733	0.0187
716.5531	-0.009
716.7328	-0.0326
716.9126	-0.0282
717.0923	0.0233
717.2719	0.0033
717.4516	-0.0096
717.6312	-0.0345
717.8109	0.0175
717.9905	-0.0104
718.1701	-0.0312
718.3496	0.0182
718.5292	-0.025
718.7087	0.0023
718.8882	0.0218
719.0677	-0.0085
719.2472	0.0175
719.4267	-0.0044
719.6061	-0.0117
719.7856	0.0377
719.965	0.0162
720.1443	-0.0067
720.3237	0.028
720.5031	0.0126
720.6824	0.0058
720.8617	0.0015
721.041	0.0078
721.2203	-0.0023
721.3995	-0.0183
721.5788	-0.0052
721.758	0.0116
721.9372	0.0394
722.1164	-0.0124
722.2956	-0.0082
722.4747	0.0259
722.6538	0.0049
722.8329	-0.0256
723.012	0.0095
723.1911	0.0207
723.3702	-0.0189
723.5492	-0.0157
723.7282	0.0061
723.9072	-0.0256
724.0862	-0.0068
724.2652	0.0088
724.4441	0.0021
724.623	-0.0131
724.8019	0.0275
724.9808	-0.0099
725.1597	-0.0038
725.3385	-0.0141
725.5174	0.0172
725.6962	0.0139
725.875	0.0107
726.0538	0.0134
726.2325	0.0162
726.4112	0.0201
726.59	0.0065
726.7687	0.0223
726.9474	0.0142
727.126	0.0113
727.3047	0.0035
727.4833	0.0193
727.6619	0.035
727.8405	-0.0089
728.0191	-0.0393
728.1976	-0.0333
728.3762	-0.027
728.5547	-0.0025
728.7332	0.0094
728.9116	-0.0434
729.0901	-0.0083
729.2686	-0.0235
729.447	-0.0045
729.6254	0.0147
729.8038	-0.0058
729.9821	0.0108
730.1605	0.002
730.3388	-0.0129
730.5171	-0.0073
730.6954	0.0076
730.8737	0.0116
731.0519	0.0081
731.2302	0.007
731.4084	-0.0119
731.5866	-0.0216
731.7648	-0.0298
731.9429	-0.0142
732.1211	-0.0063
732.2992	-0.0195
732.4773	-0.0243
732.6554	-0.0086
732.8335	0.0209
733.0115	-0.011
733.1896	0
733.3676	-0.0032
733.5456	0.0105
733.7235	-0.0009
733.9015	-0.0105
734.0794	-0.0103
734.2574	0.0107
734.4353	0.0093
734.6131	0.0082
734.791	0.0198
734.9689	0.0017
735.1467	0.011
735.3245	0.002
735.5023	-0.003
735.68	0.005
735.8578	-0.024
736.0355	0.005
736.2132	0
736.3909	-0.0053
736.5686	0.02
736.7463	-0.0162
736.9239	0.0135
737.1015	-0.007
737.2791	-0.0016
737.4567	0.0174
737.6343	0.0036
737.8118	-0.008
737.9894	0.0029
738.1669	0.0143
738.3444	-0.0049
738.5218	0.0045
738.6993	0.0125
738.8767	-0.0179
739.0541	0.0161
739.2315	0.0014
739.4089	0.0167
739.5863	0.0088
739.7636	0.0136
739.9409	-0.0225
740.1182	0.0128
740.2955	-0.0372
740.4728	0.0184
740.65	0.0218
740.8272	-0.008
741.0044	0.0423
741.1816	0.0226
741.3588	-0.0155
741.5359	0.0156
741.7131	0.0417
741.8902	-0.0141
742.0673	0.038
742.2444	0.0066
742.4214	-0.004
742.5985	0.0135
742.7755	-0.0113
742.9525	-0.0027
743.1295	-0.0295
743.3064	-0.0179
743.4834	-0.0015
743.6603	-0.016
743.8372	0.0146
744.0141	0.009
744.191	0.006
744.3678	-0.004
744.5446	0.0247
744.7215	0.0057
744.8982	0.0043
745.075	-0.0061
745.2518	-0.0075
745.4285	-0.0092
745.6052	0.0217
745.7819	-0.0187
745.9586	0.0069
746.1353	-0.0035
746.3119	-0.0159
746.4885	0.0166
746.6651	-0.0368
746.8417	-0.0062
747.0183	-0.0224
747.1948	-0.0275
747.3714	-0.0014
747.5479	0.007
747.7244	-0.0526
747.9008	0.0075
748.0773	0.0241
748.2537	0.0165
748.4301	0.0125
748.6065	-0.027
748.7829	-0.0273
748.9593	-0.0136
749.1356	-0.0077
749.3119	-0.0077
749.4882	-0.0112
749.6645	-0.0018
749.8408	-0.0105
750.017	0.0104
750.1933	0.0195
750.3695	0.0238
750.5457	-0.0118
750.7218	0.0279
750.898	-0.0164
751.0741	0.0077
751.2502	0.0196
751.4263	-0.0096
751.6024	0.0055
751.7784	-0.0285
751.9545	-0.0322
752.1305	0.0051
752.3065	0.0555
752.4825	-0.0253
752.6584	-0.0068
752.8344	-0.0065
753.0103	-0.0051
753.1862	-0.0121
753.3621	-0.0127
753.5379	-0.0224
753.7138	-0.0442
753.8896	0.0334
754.0654	-0.0162
754.2412	0.0119
754.417	-0.0042
754.5927	0.0043
754.7685	-0.0247
754.9442	-0.0076
755.1199	0.0019
755.2956	0.0311
755.4712	-0.0243
755.6469	-0.0204
755.8225	0.0088
755.9981	-0.013
756.1736	0.0116
756.3492	-0.0171
756.5248	-0.014
756.7003	-0.0009
756.8758	-0.0066
757.0513	-0.0082
757.2267	-0.0077
757.4022	-0.002
757.5776	-0.034
757.753	-0.0068
757.9284	-0.0095
758.1038	-0.0196
758.2791	-0.0091
758.4545	-0.009
758.6298	-0.0005
758.8051	0.0101
758.9803	-0.0118
759.1556	-0.0157
759.3308	-0.0038
759.506	0.0102
759.6812	-0.0131
759.8564	-0.0055
760.0316	0.0019
760.2067	-0.0088
760.3819	-0.002
760.557	0.0024
760.732	0.0168
760.9071	-0.0118
761.0821	0.0095
761.2572	0.0051
761.4322	-0.0109
761.6072	0.0036
761.7821	0.0254
761.9571	-0.0209
762.132	0.008
762.3069	0.0046
762.4818	0.004
762.6567	-0.0029
762.8316	0.0152
763.0064	-0.0025
763.1812	-0.0092
763.356	0.007
763.5308	-0.0233
763.7055	-0.0025
763.8803	0.0085
764.055	0.0031
764.2297	-0.0121
764.4044	0.0036
764.579	0.0122
764.7537	-0.0019
764.9283	-0.017
765.1029	0.0018
765.2775	-0.0233
765.4521	0.0116
765.6266	-0.001
765.8011	-0.0143
765.9756	0.018
766.1501	0.0021
766.3246	-0.0051
766.4991	-0.0481
766.6735	-0.0227
766.8479	-0.0005
767.0223	0.0028
767.1967	-0.0113
767.371	-0.0148
767.5454	-0.0004
767.7197	-0.0048
767.894	-0.021
768.0683	-0.0133
768.2425	-0.0089
768.4168	0.0096
768.591	-0.0081
768.7652	-0.0049
768.9394	-0.0039
769.1135	0.0175
769.2877	0.0091
769.4618	0.0026
769.6359	0.0232
769.81	-0.0095
769.984	0.0061
770.1581	0.0181
770.3321	-0.015
770.5061	0.0079
770.6801	0.0088
770.8541	-0.0313
771.028	0.0066
771.202	-0.0266
771.3759	-0.0071
771.5498	-0.0061
771.7236	0.0033
771.8975	-0.0505
772.0713	0.0088
772.2451	-0.0088
772.4189	-0.0412
772.5927	-0.007
772.7665	0.0458
772.9402	0.0231
773.1139	-0.0207
773.2876	0.0215
773.4613	0.0012
773.635	-0.0173
773.8086	-0.0222
773.9822	-0.0234
774.1558	0.021
774.3294	-0.0146
774.503	0.0007
774.6765	0.0118
774.8501	0.0149
775.0236	0.0422
775.1971	0.0285
775.3705	0.0215
775.544	0.0314
775.7174	-0.0413
775.8908	0.0324
776.0642	-0.0008
776.2376	0.004
776.4109	0.0679
776.5843	-0.0062
776.7576	0.0452
776.9309	0.0326
777.1041	-0.0318
777.2774	0.0017
777.4506	-0.0215
777.6238	-0.01
777.797	-0.0304
777.9702	0.0058
778.1434	-0.0137
778.3165	-0.0102
778.4896	-0.0134
778.6627	0.0063
778.8358	-0.0151
779.0089	-0.0023
779.1819	-0.0102
779.3549	0.041
779.5279	-0.0108
779.7009	-0.0128
779.8739	-0.0178
780.0468	0.0127
780.2197	-0.0014
780.3926	0.0001
780.5655	-0.017
780.7384	-0.0051
780.9112	-0.0068
781.0841	-0.0068
781.2569	-0.0089
781.4297	0.0216
781.6024	-0.0143
781.7752	-0.0168
781.9479	-0.0196
782.1206	0.0038
782.2933	-0.0136
782.466	-0.0046
782.6386	-0.0017
782.8113	-0.017
782.9839	0.0285
783.1565	-0.0283
783.329	0.0029
783.5016	-0.0176
783.6741	-0.011
783.8466	-0.0509
784.0191	0.0044
784.1916	-0.0336
784.3641	-0.0488
784.5365	0.0354
784.7089	0.0198
784.8813	0.0212
785.0537	-0.0193
785.2261	-0.0053
785.3984	-0.0325
785.5707	0.0159
785.743	-0.0444
785.9153	-0.0088
786.0876	-0.0525
786.2598	0.0015
786.432	-0.0045
786.6042	0.0186
786.7764	-0.0489
786.9486	-0.0066
787.1207	0.0264
787.2928	-0.0311
787.4649	0.0257
787.637	0.0235
787.8091	-0.0232
787.9811	-0.0142
788.1532	-0.0212
788.3252	-0.0061
788.4972	-0.0256
788.6691	0.0126
788.8411	-0.0017
789.013	0.006
789.1849	-0.0378
789.3568	0.0427
789.5287	-0.063
789.7005	0.0392
789.8723	-0.0503
790.0442	-0.0699
790.2159	0.0049
790.3877	0.0123
790.5595	0.0064
790.7312	-0.0185
790.9029	0.0011
791.0746	0.0001
791.2463	0.0332
791.4179	-0.0471
791.5896	0.0045
791.7612	-0.0315
791.9328	0.0362
792.1044	-0.0534
792.2759	0.0324
792.4474	-0.0592
792.619	0.0473
792.7905	0.03
792.9619	-0.0044
793.1334	-0.0424
793.3048	-0.0068
793.4762	-0.0252
793.6476	-0.0383
793.819	-0.0185
793.9904	0.0083
794.1617	0.0124
794.333	0.0305
794.5043	-0.0235
794.6756	0.0182
794.8469	0.0342
795.0181	0.0007
795.1893	-0.017
795.3605	-0.0122
795.5317	-0.0202
795.7029	0.0009
795.874	-0.0185
796.0452	0.0643
796.2163	0.0048
796.3873	0.0961
796.5584	0.0367
796.7294	-0.1279
796.9005	-0.0527
797.0715	-0.0456
797.2425	0.0072
797.4134	0.0001
797.5844	0.0722
797.7553	-0.0422
797.9262	0.0405
798.0971	-0.024
798.2679	0.0579
798.4388	-0.0662
798.6096	0.0137
798.7804	0.0349
798.9512	0.0134
799.122	0.0001
799.2927	-0.0995
799.4635	0.0728
799.6342	-0.0224
799.8049	0.05
799.9755	-0.0173
800.1462	0.0779
800.3168	0.0214
800.4874	-0.0284
800.658	-0.0328
800.8286	-0.0621
800.9991	0.0467
801.1696	-0.026
801.3402	-0.0366
801.5106	0.0002
801.6811	-0.0747
801.8516	-0.0362
802.022	-0.0537
802.1924	-0.1386
802.3628	-0.0021
802.5332	-0.149
802.7035	-0.0809
802.8739	0.0568
803.0442	0.0072
803.2145	-0.0053
803.3847	-0.0243
803.555	-0.0157
803.7252	-0.0146
803.8954	0.0831
804.0656	-0.047
804.2358	-0.0191
804.4059	0.0412
804.5761	0.0502
804.7462	-0.0476
804.9163	-0.0206
805.0864	0.0036
805.2564	0.0076
805.4264	-0.0292
805.5965	0.0587
805.7665	0.0028
805.9364	-0.0517
806.1064	0.0014
806.2763	-0.0431
806.4462	-0.019
806.6161	-0.024
806.786	-0.0069
806.9559	0.0455
807.1257	-0.0258
807.2955	0.0646
807.4653	-0.0627
807.6351	-0.0203
807.8048	-0.0928
807.9746	-0.0358
808.1443	0.0909
808.314	0.0264
808.4837	-0.0135
808.6533	0.0516
808.8229	-0.0612
808.9926	-0.0247
809.1622	-0.0292
809.3317	0.0125
809.5013	0.0882
809.6708	0.043
809.8403	0.0802
810.0098	0.0454
810.1793	-0.0662
810.3488	-0.0209
810.5182	-0.0439
810.6876	0.0584
810.857	-0.1367
811.0264	-0.0976
811.1958	-0.015
811.3651	-0.0883
811.5344	-0.0023
811.7037	-0.0025
811.873	0.0036
812.0422	-0.0847
812.2115	0.0441
812.3807	-0.0092
812.5499	0.0121
812.7191	0.0151
812.8882	-0.1382
813.0574	-0.1532
813.2265	0.0401
813.3956	-0.0329
813.5646	-0.0902
813.7337	-0.0912
813.9027	-0.0597
814.0718	0.0112
814.2407	-0.0159
814.4097	-0.0187
814.5787	-0.0499
814.7476	0.0264
814.9165	0.0332
815.0854	0.0917
815.2543	-0.1053
815.4232	-0.0696
815.592	0.1809
815.7608	-0.0187
815.9296	0.0744
816.0984	0.1201
816.2671	-0.2165
816.4359	0.068
816.6046	0.0755
816.7733	-0.1254
816.942	0.0311
817.1106	-0.2518
817.2793	-0.0616
817.4479	-0.1088
817.6165	-0.0404
817.785	0.0476
817.9536	0.0919
818.1221	0.0021
818.2906	0.0651
818.4591	-0.0781
818.6276	0.1185
818.7961	0.0147
818.9645	0.053
819.1329	0.1518
819.3013	0.0469
819.4697	0.0456
819.638	-0.1107
819.8064	-0.1527
819.9747	-0.0159
820.143	0.0107
820.3113	0.0033
820.4795	0.0272
820.6477	-0.1133
820.816	-0.0596
820.9842	-0.0121
821.1523	0.0998
821.3205	0.0474
821.4886	0.0609
821.6567	0.0217
821.8248	0.0733
821.9929	0.0215
822.1609	-0.1041
822.329	0.0782
822.497	0.0759
822.665	0.0367
822.833	-0.1829
823.0009	-0.152
823.1688	0.0053
823.3367	-0.3375
823.5046	0.081
823.6725	0.0653
823.8404	-0.0368
824.0082	0.0297
824.176	0.0692
824.3438	0.2217
824.5116	0.1203
824.6793	-0.1732
824.847	0.1141
825.0147	0.0351
825.1824	0.0979
825.3501	0.052
825.5177	-0.0138
825.6854	0.3008
825.853	-0.044
826.0206	0.0003
826.1881	0.0209
826.3557	0.0765
826.5232	0.1545
826.6907	0.0953
826.8582	-0.087
827.0257	-0.1229
827.1931	0.0638
827.3605	-0.0429
827.528	0.0687
827.6953	0.0557
827.8627	0.0413
828.03	-0.0191
828.1974	-0.1769
828.3647	-0.0266
828.532	0.032
828.6992	-0.0217
828.8665	0.0241
829.0337	0.0724
829.2009	0.1193
829.3681	-0.0588
829.5352	-0.0321
829.7024	-0.1923
829.8695	-0.1695
830.0366	0.2064
830.2037	0.1868
830.3707	0.0281
830.5378	0.3727
830.7048	-0.3182
830.8718	-0.2221
831.0388	0.0347
831.2057	-0.2917
831.3727	-0.0068
831.5396	-0.2482
831.7065	0.0448
831.8734	-0.3405
832.0402	-0.0586
832.2071	-0.0355
832.3739	0.0515
832.5407	-0
832.7075	0.1431
832.8742	0.598
833.041	-0.0784
833.2077	-0.2374
833.3744	0.0614
833.541	0.0653
833.7077	-0.0088
833.8743	0.1995
834.0409	-0.008
834.2075	0.0787
834.3741	-0.0458
834.5407	0.3961
834.7072	0.6167
834.8737	0.2191
835.0402	-0.2857
835.2067	0.0445
835.3731	-0.1072
835.5395	0.1778
835.706	-0.0854
835.8723	0.1251
836.0387	0.281
836.2051	0.5278
836.3714	-0.2993
836.5377	0.0365
836.704	-0.0803
836.8703	-0.1258
837.0365	0.189
837.2027	-0.1565
837.3689	-0.0205
837.5351	-0.1919
837.7013	-0.0329
837.8674	-0
838.0335	-0.0593
838.1997	0.5918
838.3657	0.2823
838.5318	-0.6171
838.6978	-0
838.8639	0.1477
839.0299	0.3091
839.1958	0.0111
839.3618	0.3275
839.5277	-0.3097
839.6937	-0.4026
839.8596	-0.0821
840.0254	0.0639
840.1913	0.7142
840.3571	-0.1558
840.523	0.129
840.6888	-0.0061
840.8545	-0.1626
841.0203	0.075
841.186	0.0137
841.3517	0.3733
841.5174	0.0938
841.6831	1.2611
841.8488	0.1962
842.0144	0.1581
842.18	0.0427
842.3456	0.155
842.5112	0.0266
842.6767	-0.4057
842.8422	-0.294
843.0077	0.0336
843.1732	0.5232
843.3387	0.2652
843.5042	1.1989
843.6696	0.617
843.835	0.0771
844.0004	0.0556
844.1657	-0.294
844.3311	-0.3127
844.4964	0.2106
844.6617	-0
844.827	0.172
844.9923	-0.1855
845.1575	-0
845.3227	0.2892
845.4879	-0.018
845.6531	-0.2984
845.8183	0.1202
845.9834	-0.1687
846.1485	-0.2474
846.3136	0.0813
846.4787	-0.3643
846.6438	0.2612
846.8088	-1.3208
846.9738	-0
847.1388	-0.0753
847.3038	0.014
847.4687	-0
847.6337	0.4013
847.7986	0.1179
847.9635	-0.186
848.1284	-0
848.2932	-0.0475
848.458	0.1315
848.6228	-0
848.7876	0.4877
848.9524	0.0321
849.1172	0.5541
849.2819	-0.203
849.4466	0.7466
849.6113	0.2871
849.7759	0.6907
849.9406	-0.286
850.1052	0.2669
850.2698	-1.3208
850.4344	0.5303
850.599	-0
850.7635	0.2178
850.928	1.7202
851.0925	-0.0108
851.257	-0.4595
851.4215	0.2967
851.5859	0.2428
851.7503	-0
851.9147	-0
852.0791	-0.4447
852.2434	-0.1847
852.4078	-0
852.5721	0.001
852.7364	0.3142
852.9007	-0.256
853.0649	0.3459
853.2291	0.2827
853.3934	-0
853.5575	1.2114
853.7217	0.11
853.8859	0.1615
854.05	-1.2349
854.2141	-0
854.3782	-0.0404
854.5423	-0.6978
854.7063	0.204
854.8703	0.0454
855.0343	0.0388
855.1983	0.1399
855.3623	0.2847
855.5262	-0.9535
855.6901	0.1056
855.854	0.0009
856.0179	-0
856.1818	-0.3882
856.3456	0.1619
856.5094	0.7559
856.6732	-0
856.837	0.0913
857.0008	0.3724
857.1645	-0
857.3282	0.0656
857.4919	0.216
857.6556	0.0479
857.8192	-0.3982
857.9828	-0.4392
858.1465	0.2934
858.31	-1.0189
858.4736	0.1246
858.6372	-0.2739
858.8007	-0.8825
858.9642	1.9298
859.1277	-0.4498
859.2911	-0.0071
859.4546	0.0011
859.618	-0.2133
859.7814	-0
859.9448	-0
860.1081	-0
860.2715	-0
860.4348	0.5849
860.5981	-0.5176
860.7614	-0
860.9246	-0.1191
861.0879	-0.3399
861.2511	0.1168
861.4143	0.4992
861.5774	0.7015
861.7406	-0
861.9037	-0
862.0668	-0
862.2299	-2.3277
862.393	-0
862.556	-0
862.7191	-0.1282
862.8821	-0.3488
863.0451	0.1876
863.208	0.534
863.371	0.6865
863.5339	-0.1655
863.6968	-0.4702
863.8597	-0
864.0225	-0
864.1854	-0.1978
864.3482	-0.0318
864.511	-0.0365
864.6737	-0
864.8365	0.021
864.9992	-0
865.1619	-0.0978
865.3246	0.096
865.4873	-0.953
865.65	-1.0088
865.8126	-0
865.9752	0.6891
866.1378	-0.5894
866.3004	1.7057
866.4629	-0.1827
866.6254	-0
866.7879	0.1143
866.9504	-0
867.1129	0.0519
867.2753	-0.248
867.4377	0.814
867.6001	0.5342
867.7625	-0.4137
867.9249	-0
868.0872	0.1116
868.2495	0.4059
868.4118	-0
868.5741	-0.1687
868.7363	0.3592
868.8986	-0.4979
869.0608	0.7273
869.223	0.0497
869.3851	0.1904
869.5473	-1.3815
869.7094	-0.3098
869.8715	-0.1016
870.0336	0.3397
870.1957	-0
870.3577	-0.0493
870.5197	0.4151
870.6817	-0
870.8437	0.3654
871.0057	-0
871.1676	-0.0703
871.3295	0.2044
871.4914	-0
871.6533	-0
871.8151	-0.335
871.977	0.3078
872.1388	-0
872.3006	0.3806
872.4623	-0.7255
872.6241	-1.3153
872.7858	-0.1543
872.9475	-0
873.1092	0.1301
873.2709	0.7389
873.4325	-0
873.5941	-0
873.7557	-0.4895
873.9173	-0.9533
874.0789	-0.0421
874.2404	-0.1286
874.4019	-0.2307
874.5634	0.4735
874.7249	-0.2314
874.8863	-0.2292
875.0478	-0.0739
875.2092	0.0829
875.3706	-0.063
875.5319	0.3027
875.6933	-0.3067
875.8546	-0.034
876.0159	-0.0446
876.1772	-0.2449
876.3385	-0.627
876.4997	-0.2786
876.6609	0.2926
876.8221	0.5641
876.9833	-0.294
877.1445	0.2391
877.3056	0.251
877.4667	-0
877.6278	-0
877.7889	-0
877.9499	0.16
878.111	0.187
878.272	-0.4867
878.433	-0.6109
878.5939	-0
878.7549	-0
878.9158	-0
879.0767	-0
879.2376	0.6532
879.3984	0.7362
879.5593	-0.3081
879.7201	2.0394
879.8809	-0
880.0417	0.2656
880.2024	0.1711
880.3632	-0.0914
880.5239	-0.4088
880.6846	-0.4836
880.8452	-0
881.0059	-0
881.1665	0.1584
881.3271	0.1293
881.4877	0.1329
881.6483	-1.3511
881.8088	0.3402
881.9693	0.871
882.1298	0.871
882.2903	0.871
