Data from D4ACN5uM480nmA_Absorbance_12-08-02-065.txt Node
Date: Fri Feb 21 12:08:02 GMT 2025
User: LASERRRRR
Spectrometer: FLMT03099
Trigger mode: 0
Integration Time (sec): 1.500000E-2
Scans to average: 1
Electric dark correction enabled: true
Nonlinearity correction enabled: false
Boxcar width: 0
XAxis mode: Wavelengths
Number of Pixels in Spectrum: 3648
>>>>>Begin Spectral Data<<<<<
179.3399	0.6118
179.5586	0.6118
179.7771	0.6118
179.9957	0.2069
180.2143	-0
180.4329	-0
180.6514	-0
180.8699	-0.3836
181.0885	-0.0509
181.307	0.0312
181.5255	0.2171
181.744	-0
181.9625	-0
182.181	-0.1117
182.3994	-0
182.6179	-0
182.8363	-0
183.0547	-0
183.2732	0.3482
183.4916	0.1764
183.71	0.2766
183.9284	0.1797
184.1467	-0.1366
184.3651	0.2289
184.5835	0.1305
184.8018	0.1639
185.0201	0.1444
185.2385	-0.0471
185.4568	0.0797
185.6751	0.0814
185.8934	0.2074
186.1117	0.0181
186.3299	0.3312
186.5482	0.26
186.7664	0.3363
186.9847	0.2967
187.2029	0.2804
187.4211	0.1398
187.6393	0.1415
187.8575	0.2262
188.0757	0.3171
188.2939	0.01
188.512	0.0478
188.7302	0.1702
188.9483	0.2839
189.1665	0.2033
189.3846	0.1767
189.6027	0.3323
189.8208	0.2178
190.0389	0.4328
190.257	0.4491
190.475	0.5082
190.6931	0.4474
190.9111	0.3411
191.1292	0.3178
191.3472	0.2632
191.5652	0.6492
191.7832	0.2916
192.0012	0.2639
192.2192	0.3127
192.4371	0.2008
192.6551	0.1681
192.873	0.2148
193.091	0.4512
193.3089	0.0171
193.5268	0.6073
193.7447	0.4207
193.9626	0.4116
194.1805	0.3733
194.3984	0.5944
194.6162	0.4149
194.8341	0.237
195.0519	0.4771
195.2697	0.6943
195.4875	0.6531
195.7054	0.4226
195.9231	0.4318
196.1409	0.7535
196.3587	0.5462
196.5765	0.4882
196.7942	0.6522
197.012	0.5537
197.2297	0.5583
197.4474	0.721
197.6651	0.5029
197.8828	0.6606
198.1005	0.6479
198.3182	0.6067
198.5358	0.537
198.7535	0.5172
198.9711	0.5597
199.1888	0.5158
199.4064	0.5172
199.624	0.6947
199.8416	0.6132
200.0592	0.5364
200.2767	0.6096
200.4943	0.6432
200.7119	0.5431
200.9294	0.5969
201.1469	0.6209
201.3645	0.6511
201.582	0.5392
201.7995	0.5961
202.017	0.5506
202.2344	0.5329
202.4519	0.636
202.6694	0.5254
202.8868	0.6294
203.1042	0.552
203.3217	0.5228
203.5391	0.551
203.7565	0.4856
203.9739	0.517
204.1913	0.4707
204.4086	0.5181
204.626	0.5415
204.8433	0.4937
205.0607	0.4886
205.278	0.5317
205.4953	0.4966
205.7126	0.4839
205.9299	0.4585
206.1472	0.4897
206.3644	0.4976
206.5817	0.4951
206.7989	0.4617
207.0162	0.4569
207.2334	0.443
207.4506	0.4588
207.6678	0.4525
207.885	0.4487
208.1022	0.443
208.3194	0.4524
208.5365	0.4651
208.7537	0.4693
208.9708	0.4413
209.1879	0.403
209.405	0.4157
209.6222	0.4066
209.8392	0.4319
210.0563	0.3875
210.2734	0.3866
210.4905	0.3987
210.7075	0.4569
210.9245	0.3888
211.1416	0.4446
211.3586	0.4128
211.5756	0.4112
211.7926	0.4094
212.0096	0.3938
212.2265	0.3935
212.4435	0.4212
212.6604	0.4022
212.8774	0.4014
213.0943	0.4415
213.3112	0.3977
213.5281	0.423
213.745	0.3988
213.9619	0.3792
214.1788	0.4063
214.3956	0.4319
214.6125	0.4042
214.8293	0.43
215.0461	0.4011
215.2629	0.4124
215.4798	0.3907
215.6965	0.3707
215.9133	0.3855
216.1301	0.4134
216.3469	0.4106
216.5636	0.4091
216.7803	0.3967
216.9971	0.4124
217.2138	0.4082
217.4305	0.4084
217.6472	0.4143
217.8639	0.4045
218.0805	0.3996
218.2972	0.4254
218.5138	0.4311
218.7305	0.4339
218.9471	0.4252
219.1637	0.4176
219.3803	0.4184
219.5969	0.4222
219.8135	0.4403
220.0301	0.4301
220.2466	0.4336
220.4632	0.4204
220.6797	0.4297
220.8962	0.4198
221.1127	0.4217
221.3292	0.4175
221.5457	0.4264
221.7622	0.4352
221.9787	0.4532
222.1951	0.4362
222.4116	0.4529
222.628	0.4444
222.8444	0.456
223.0608	0.4345
223.2772	0.4392
223.4936	0.4482
223.71	0.4456
223.9264	0.4436
224.1427	0.4458
224.3591	0.4558
224.5754	0.4564
224.7917	0.4542
225.008	0.4494
225.2243	0.4631
225.4406	0.4732
225.6569	0.459
225.8732	0.464
226.0894	0.4873
226.3057	0.4749
226.5219	0.4559
226.7381	0.4684
226.9543	0.4606
227.1705	0.4805
227.3867	0.4868
227.6029	0.4769
227.8191	0.4924
228.0352	0.4841
228.2513	0.4846
228.4675	0.4798
228.6836	0.4959
228.8997	0.4951
229.1158	0.4766
229.3319	0.5054
229.548	0.5091
229.764	0.5
229.9801	0.5039
230.1961	0.5027
230.4121	0.5197
230.6282	0.4994
230.8442	0.5077
231.0602	0.529
231.2761	0.5287
231.4921	0.5249
231.7081	0.5172
231.924	0.5205
232.14	0.5165
232.3559	0.5284
232.5718	0.536
232.7877	0.5335
233.0036	0.5227
233.2195	0.5367
233.4353	0.5322
233.6512	0.5292
233.867	0.5306
234.0829	0.5261
234.2987	0.5222
234.5145	0.5304
234.7303	0.5317
234.9461	0.5313
235.1619	0.5435
235.3776	0.5268
235.5934	0.5317
235.8091	0.527
236.0249	0.5263
236.2406	0.5374
236.4563	0.5408
236.672	0.5225
236.8877	0.5304
237.1034	0.5435
237.319	0.552
237.5347	0.5361
237.7503	0.5529
237.966	0.5432
238.1816	0.5326
238.3972	0.5304
238.6128	0.5435
238.8284	0.5472
239.0439	0.536
239.2595	0.5323
239.475	0.531
239.6906	0.5264
239.9061	0.5296
240.1216	0.5257
240.3371	0.5182
240.5526	0.5183
240.7681	0.52
240.9836	0.5152
241.199	0.5147
241.4145	0.4941
241.6299	0.4919
241.8453	0.4997
242.0607	0.4889
242.2761	0.4853
242.4915	0.4713
242.7069	0.4672
242.9223	0.461
243.1376	0.4494
243.353	0.4402
243.5683	0.44
243.7836	0.433
243.9989	0.4142
244.2142	0.4174
244.4295	0.4066
244.6448	0.3996
244.86	0.3887
245.0753	0.3783
245.2905	0.3756
245.5057	0.3681
245.721	0.358
245.9362	0.3487
246.1514	0.3349
246.3665	0.3497
246.5817	0.3321
246.7969	0.3236
247.012	0.3159
247.2271	0.3149
247.4423	0.3058
247.6574	0.3049
247.8725	0.3016
248.0876	0.291
248.3026	0.2863
248.5177	0.2776
248.7328	0.2828
248.9478	0.2755
249.1628	0.2658
249.3779	0.263
249.5929	0.2611
249.8079	0.2501
250.0228	0.2584
250.2378	0.2551
250.4528	0.2518
250.6677	0.2358
250.8827	0.2358
251.0976	0.2436
251.3125	0.231
251.5274	0.2354
251.7423	0.2303
251.9572	0.2173
252.172	0.2188
252.3869	0.2169
252.6017	0.2179
252.8166	0.2167
253.0314	0.2189
253.2462	0.2145
253.461	0.2128
253.6758	0.2075
253.8906	0.2123
254.1053	0.2036
254.3201	0.2045
254.5348	0.2041
254.7496	0.2072
254.9643	0.204
255.179	0.2039
255.3937	0.1984
255.6083	0.2004
255.823	0.1984
256.0377	0.1992
256.2523	0.2034
256.467	0.1937
256.6816	0.1978
256.8962	0.1973
257.1108	0.1987
257.3254	0.1974
257.54	0.1922
257.7545	0.1935
257.9691	0.1901
258.1836	0.1897
258.3981	0.1857
258.6127	0.18
258.8272	0.1926
259.0417	0.1837
259.2561	0.1866
259.4706	0.1896
259.6851	0.1837
259.8995	0.1793
260.114	0.1889
260.3284	0.185
260.5428	0.1818
260.7572	0.1879
260.9716	0.1792
261.186	0.1771
261.4003	0.1936
261.6147	0.1859
261.829	0.1816
262.0433	0.1848
262.2577	0.1807
262.472	0.1827
262.6863	0.1926
262.9005	0.1872
263.1148	0.1784
263.3291	0.1904
263.5433	0.1873
263.7576	0.1828
263.9718	0.1924
264.186	0.1879
264.4002	0.1805
264.6144	0.1881
264.8286	0.1831
265.0427	0.1927
265.2569	0.1862
265.471	0.1882
265.6851	0.1841
265.8993	0.1885
266.1134	0.1873
266.3275	0.1881
266.5415	0.1873
266.7556	0.1859
266.9697	0.1848
267.1837	0.1828
267.3978	0.1892
267.6118	0.1855
267.8258	0.1862
268.0398	0.1797
268.2538	0.1863
268.4677	0.1833
268.6817	0.1765
268.8957	0.1833
269.1096	0.1743
269.3235	0.1859
269.5374	0.1764
269.7514	0.184
269.9652	0.1795
270.1791	0.1823
270.393	0.1835
270.6068	0.1763
270.8207	0.1813
271.0345	0.173
271.2483	0.1784
271.4622	0.1781
271.676	0.175
271.8897	0.1733
272.1035	0.1768
272.3173	0.1735
272.531	0.1765
272.7448	0.1755
272.9585	0.1732
273.1722	0.177
273.3859	0.1721
273.5996	0.1699
273.8133	0.1662
274.0269	0.1763
274.2406	0.1701
274.4542	0.1668
274.6679	0.1687
274.8815	0.1721
275.0951	0.1772
275.3087	0.1754
275.5223	0.167
275.7358	0.1762
275.9494	0.1753
276.1629	0.1768
276.3765	0.1725
276.59	0.1763
276.8035	0.1807
277.017	0.1806
277.2305	0.1799
277.444	0.1753
277.6574	0.1776
277.8709	0.1774
278.0843	0.1773
278.2978	0.179
278.5112	0.1833
278.7246	0.1731
278.938	0.186
279.1513	0.1811
279.3647	0.18
279.5781	0.1776
279.7914	0.1804
280.0047	0.1828
280.2181	0.1858
280.4314	0.181
280.6447	0.1865
280.8579	0.1795
281.0712	0.1806
281.2845	0.1822
281.4977	0.1859
281.711	0.1823
281.9242	0.1878
282.1374	0.1836
282.3506	0.1863
282.5638	0.1854
282.7769	0.1832
282.9901	0.1812
283.2033	0.1917
283.4164	0.1844
283.6295	0.1845
283.8426	0.1848
284.0557	0.1858
284.2688	0.1856
284.4819	0.1934
284.695	0.1954
284.908	0.1911
285.1211	0.1892
285.3341	0.194
285.5471	0.1911
285.7601	0.1896
285.9731	0.1924
286.1861	0.191
286.3991	0.1905
286.612	0.1931
286.825	0.1906
287.0379	0.1944
287.2508	0.2011
287.4637	0.1958
287.6766	0.1977
287.8895	0.1905
288.1024	0.1987
288.3152	0.1922
288.5281	0.1961
288.7409	0.1945
288.9538	0.1919
289.1666	0.2005
289.3794	0.203
289.5922	0.1923
289.8049	0.2151
290.0177	0.2053
290.2304	0.1992
290.4432	0.201
290.6559	0.1935
290.8686	0.203
291.0813	0.2016
291.294	0.2005
291.5067	0.2022
291.7194	0.1972
291.932	0.2032
292.1447	0.2006
292.3573	0.204
292.5699	0.2037
292.7825	0.1993
292.9951	0.1981
293.2077	0.202
293.4203	0.2018
293.6328	0.1934
293.8454	0.2012
294.0579	0.2072
294.2704	0.199
294.4829	0.1988
294.6954	0.1963
294.9079	0.2021
295.1204	0.2025
295.3328	0.2022
295.5453	0.201
295.7577	0.1946
295.9701	0.1974
296.1825	0.1966
296.3949	0.2059
296.6073	0.2004
296.8197	0.202
297.0321	0.202
297.2444	0.1997
297.4567	0.2046
297.6691	0.1987
297.8814	0.2002
298.0937	0.2004
298.306	0.1952
298.5182	0.1991
298.7305	0.1987
298.9428	0.1967
299.155	0.2037
299.3672	0.2036
299.5794	0.1949
299.7916	0.1972
300.0038	0.2009
300.216	0.2003
300.4282	0.1917
300.6403	0.2014
300.8525	0.2024
301.0646	0.197
301.2767	0.1983
301.4888	0.1977
301.7009	0.2061
301.913	0.1962
302.125	0.2036
302.3371	0.1976
302.5491	0.1991
302.7612	0.1991
302.9732	0.1935
303.1852	0.2009
303.3972	0.1932
303.6092	0.1974
303.8211	0.1896
304.0331	0.1901
304.245	0.1957
304.457	0.1941
304.6689	0.1904
304.8808	0.1895
305.0927	0.1915
305.3046	0.1881
305.5164	0.1889
305.7283	0.1892
305.9401	0.1793
306.152	0.1827
306.3638	0.1773
306.5756	0.1816
306.7874	0.1799
306.9992	0.18
307.2109	0.1742
307.4227	0.1736
307.6344	0.1709
307.8462	0.1791
308.0579	0.1696
308.2696	0.1604
308.4813	0.1617
308.693	0.1664
308.9046	0.1627
309.1163	0.167
309.328	0.1575
309.5396	0.1554
309.7512	0.1562
309.9628	0.1581
310.1744	0.1537
310.386	0.1539
310.5976	0.1411
310.8091	0.1418
311.0207	0.1512
311.2322	0.1497
311.4437	0.1464
311.6552	0.148
311.8667	0.1359
312.0782	0.1395
312.2897	0.1419
312.5012	0.1394
312.7126	0.1282
312.924	0.1356
313.1355	0.1287
313.3469	0.1276
313.5583	0.1238
313.7696	0.1309
313.981	0.1286
314.1924	0.1294
314.4037	0.1239
314.6151	0.1305
314.8264	0.1221
315.0377	0.1275
315.249	0.1185
315.4603	0.1202
315.6716	0.1256
315.8828	0.1257
316.0941	0.1203
316.3053	0.1171
316.5165	0.1181
316.7277	0.1221
316.9389	0.1226
317.1501	0.1179
317.3613	0.1144
317.5724	0.1189
317.7836	0.1217
317.9947	0.1154
318.2058	0.1148
318.417	0.1184
318.6281	0.1132
318.8391	0.1172
319.0502	0.1152
319.2613	0.1156
319.4723	0.1178
319.6834	0.1161
319.8944	0.1205
320.1054	0.1125
320.3164	0.1169
320.5274	0.1121
320.7383	0.1154
320.9493	0.118
321.1602	0.1141
321.3712	0.1206
321.5821	0.1173
321.793	0.1149
322.0039	0.1203
322.2148	0.1165
322.4257	0.1218
322.6365	0.1166
322.8474	0.1131
323.0582	0.1184
323.269	0.1167
323.4798	0.1153
323.6906	0.1194
323.9014	0.1143
324.1122	0.1205
324.3229	0.1185
324.5337	0.1102
324.7444	0.1181
324.9551	0.1169
325.1658	0.1244
325.3765	0.1172
325.5872	0.1151
325.7979	0.1211
326.0085	0.1198
326.2192	0.1109
326.4298	0.1202
326.6404	0.1209
326.851	0.1188
327.0616	0.1202
327.2722	0.1262
327.4828	0.1169
327.6933	0.1242
327.9039	0.1189
328.1144	0.12
328.3249	0.1174
328.5354	0.1219
328.7459	0.1234
328.9564	0.1197
329.1669	0.123
329.3773	0.1244
329.5878	0.1229
329.7982	0.1224
330.0086	0.1253
330.219	0.1197
330.4294	0.1229
330.6398	0.1301
330.8502	0.1294
331.0605	0.1282
331.2708	0.1252
331.4812	0.1298
331.6915	0.1207
331.9018	0.1221
332.1121	0.1262
332.3224	0.1277
332.5326	0.1283
332.7429	0.1219
332.9531	0.1228
333.1633	0.1208
333.3735	0.122
333.5837	0.1234
333.7939	0.1266
334.0041	0.1243
334.2143	0.1316
334.4244	0.126
334.6346	0.1232
334.8447	0.1239
335.0548	0.1307
335.2649	0.1275
335.475	0.1222
335.685	0.1224
335.8951	0.1258
336.1051	0.1329
336.3152	0.1218
336.5252	0.1315
336.7352	0.1275
336.9452	0.1275
337.1552	0.1368
337.3652	0.1279
337.5751	0.1299
337.7851	0.1214
337.995	0.1303
338.2049	0.1334
338.4148	0.1252
338.6247	0.1291
338.8346	0.1246
339.0445	0.1311
339.2543	0.1337
339.4642	0.1358
339.674	0.137
339.8838	0.1301
340.0936	0.1312
340.3034	0.1358
340.5132	0.1361
340.7229	0.1344
340.9327	0.1402
341.1424	0.1329
341.3522	0.1453
341.5619	0.1363
341.7716	0.134
341.9813	0.1378
342.1909	0.144
342.4006	0.1406
342.6102	0.144
342.8199	0.1409
343.0295	0.1488
343.2391	0.1402
343.4487	0.1493
343.6583	0.1471
343.8679	0.143
344.0774	0.1439
344.287	0.1407
344.4965	0.146
344.706	0.1496
344.9155	0.1451
345.125	0.1485
345.3345	0.1422
345.544	0.1505
345.7534	0.1509
345.9629	0.1493
346.1723	0.1482
346.3817	0.1509
346.5911	0.1518
346.8005	0.1542
347.0099	0.1557
347.2193	0.1446
347.4286	0.1482
347.638	0.1599
347.8473	0.1575
348.0566	0.1587
348.2659	0.1568
348.4752	0.1539
348.6845	0.1626
348.8937	0.1623
349.103	0.152
349.3122	0.1656
349.5214	0.162
349.7306	0.1598
349.9398	0.1599
350.149	0.1615
350.3582	0.1642
350.5674	0.1657
350.7765	0.1634
350.9856	0.1588
351.1948	0.1601
351.4039	0.1663
351.613	0.1764
351.822	0.1703
352.0311	0.1643
352.2402	0.175
352.4492	0.1716
352.6582	0.1686
352.8672	0.179
353.0762	0.1709
353.2852	0.174
353.4942	0.1735
353.7032	0.1703
353.9121	0.1731
354.1211	0.1666
354.33	0.1766
354.5389	0.1738
354.7478	0.181
354.9567	0.1759
355.1655	0.1826
355.3744	0.1806
355.5833	0.1797
355.7921	0.1791
356.0009	0.1796
356.2097	0.1878
356.4185	0.1875
356.6273	0.1807
356.8361	0.1974
357.0448	0.185
357.2536	0.1877
357.4623	0.1866
357.671	0.1907
357.8797	0.1951
358.0884	0.1959
358.2971	0.1921
358.5057	0.1857
358.7144	0.199
358.923	0.1985
359.1316	0.1933
359.3402	0.1995
359.5488	0.2018
359.7574	0.2003
359.966	0.2015
360.1746	0.2022
360.3831	0.2026
360.5916	0.2037
360.8002	0.2093
361.0087	0.2057
361.2172	0.2113
361.4256	0.2051
361.6341	0.2106
361.8426	0.2033
362.051	0.2082
362.2594	0.2172
362.4678	0.2125
362.6762	0.2225
362.8846	0.2208
363.093	0.2144
363.3014	0.226
363.5097	0.2137
363.718	0.2304
363.9264	0.2261
364.1347	0.2283
364.343	0.2275
364.5513	0.2296
364.7595	0.2291
364.9678	0.2304
365.176	0.2312
365.3842	0.231
365.5925	0.2302
365.8007	0.2349
366.0089	0.2351
366.217	0.2345
366.4252	0.2342
366.6333	0.2318
366.8415	0.2325
367.0496	0.2399
367.2577	0.2486
367.4658	0.2438
367.6739	0.2395
367.882	0.245
368.09	0.2408
368.2981	0.2373
368.5061	0.259
368.7141	0.2403
368.9221	0.2529
369.1301	0.2516
369.3381	0.2571
369.5461	0.2574
369.754	0.2541
369.962	0.2569
370.1699	0.2554
370.3778	0.2552
370.5857	0.2554
370.7936	0.2574
371.0015	0.2567
371.2093	0.2541
371.4172	0.2574
371.625	0.2577
371.8328	0.2727
372.0406	0.2615
372.2484	0.2591
372.4562	0.2598
372.664	0.2683
372.8717	0.2636
373.0795	0.271
373.2872	0.2627
373.4949	0.2732
373.7026	0.2838
373.9103	0.2595
374.118	0.2667
374.3256	0.2818
374.5333	0.2655
374.7409	0.2629
374.9485	0.2745
375.1561	0.2809
375.3637	0.2703
375.5713	0.2701
375.7789	0.2729
375.9864	0.2779
376.194	0.2825
376.4015	0.2823
376.609	0.2895
376.8165	0.2871
377.024	0.2861
377.2315	0.2853
377.4389	0.2796
377.6464	0.2863
377.8538	0.2881
378.0612	0.2905
378.2686	0.2849
378.476	0.2965
378.6834	0.285
378.8908	0.2914
379.0981	0.2968
379.3055	0.3041
379.5128	0.2959
379.7201	0.2887
379.9274	0.294
380.1347	0.3003
380.342	0.2956
380.5492	0.3001
380.7565	0.3
380.9637	0.2958
381.1709	0.3047
381.3781	0.3009
381.5853	0.3022
381.7925	0.3127
381.9997	0.3058
382.2068	0.2959
382.4139	0.3081
382.6211	0.3172
382.8282	0.3052
383.0353	0.3096
383.2424	0.3001
383.4494	0.3108
383.6565	0.3096
383.8635	0.3173
384.0706	0.3128
384.2776	0.3166
384.4846	0.3165
384.6916	0.3014
384.8986	0.321
385.1055	0.3192
385.3125	0.3009
385.5194	0.3101
385.7263	0.3175
385.9333	0.3172
386.1402	0.3258
386.347	0.314
386.5539	0.3155
386.7608	0.323
386.9676	0.3079
387.1744	0.3107
387.3813	0.3173
387.5881	0.3168
387.7948	0.3121
388.0016	0.3125
388.2084	0.3083
388.4151	0.3067
388.6219	0.3181
388.8286	0.3159
389.0353	0.3057
389.242	0.3019
389.4487	0.3103
389.6553	0.3084
389.862	0.3081
390.0686	0.3065
390.2753	0.3017
390.4819	0.3054
390.6885	0.3042
390.8951	0.3043
391.1016	0.3152
391.3082	0.294
391.5147	0.3018
391.7213	0.3045
391.9278	0.3009
392.1343	0.29
392.3408	0.2935
392.5473	0.2934
392.7537	0.2872
392.9602	0.291
393.1666	0.2937
393.373	0.2874
393.5794	0.2931
393.7858	0.2945
393.9922	0.2947
394.1986	0.2799
394.4049	0.2809
394.6113	0.2868
394.8176	0.276
395.0239	0.2771
395.2302	0.2798
395.4365	0.2835
395.6428	0.2786
395.8491	0.2754
396.0553	0.2682
396.2615	0.2708
396.4678	0.2778
396.674	0.2723
396.8802	0.2701
397.0863	0.2673
397.2925	0.2666
397.4987	0.2773
397.7048	0.2745
397.9109	0.2692
398.117	0.2632
398.3231	0.2695
398.5292	0.2691
398.7353	0.2661
398.9413	0.256
399.1474	0.2767
399.3534	0.2829
399.5594	0.2623
399.7654	0.2755
399.9714	0.2638
400.1774	0.2666
400.3833	0.2712
400.5893	0.2641
400.7952	0.2721
401.0011	0.2622
401.207	0.2681
401.4129	0.2658
401.6188	0.2681
401.8247	0.2713
402.0305	0.2733
402.2364	0.2808
402.4422	0.2717
402.648	0.2749
402.8538	0.2793
403.0596	0.2611
403.2654	0.2598
403.4711	0.2686
403.6768	0.266
403.8826	0.2736
404.0883	0.265
404.294	0.2674
404.4997	0.2666
404.7054	0.2628
404.911	0.2687
405.1167	0.2715
405.3223	0.273
405.5279	0.2636
405.7335	0.2566
405.9391	0.265
406.1447	0.2649
406.3502	0.2735
406.5558	0.2733
406.7613	0.2692
406.9668	0.2596
407.1724	0.2698
407.3778	0.2719
407.5833	0.2598
407.7888	0.268
407.9942	0.2575
408.1997	0.2659
408.4051	0.2695
408.6105	0.2843
408.8159	0.2726
409.0213	0.2758
409.2267	0.2572
409.432	0.2683
409.6374	0.2703
409.8427	0.2726
410.048	0.2591
410.2533	0.2635
410.4586	0.2703
410.6639	0.2633
410.8691	0.2758
411.0744	0.2637
411.2796	0.2716
411.4848	0.2636
411.69	0.2708
411.8952	0.2786
412.1004	0.2668
412.3056	0.2529
412.5107	0.2673
412.7158	0.2683
412.921	0.2637
413.1261	0.2631
413.3312	0.2533
413.5362	0.2698
413.7413	0.2682
413.9464	0.2572
414.1514	0.2545
414.3564	0.2601
414.5614	0.2631
414.7664	0.2668
414.9714	0.273
415.1764	0.2634
415.3813	0.2527
415.5863	0.2638
415.7912	0.2693
415.9961	0.2538
416.201	0.2611
416.4059	0.2639
416.6108	0.2602
416.8156	0.2494
417.0205	0.2591
417.2253	0.2601
417.4301	0.2732
417.6349	0.2501
417.8397	0.2675
418.0445	0.2545
418.2492	0.2604
418.454	0.2635
418.6587	0.26
418.8634	0.2578
419.0681	0.249
419.2728	0.2449
419.4775	0.2601
419.6822	0.2545
419.8868	0.2475
420.0915	0.255
420.2961	0.247
420.5007	0.2457
420.7053	0.2487
420.9099	0.2436
421.1144	0.2428
421.319	0.2429
421.5235	0.2421
421.728	0.2529
421.9325	0.2493
422.137	0.2376
422.3415	0.2365
422.546	0.2425
422.7504	0.2424
422.9549	0.2466
423.1593	0.242
423.3637	0.2293
423.5681	0.238
423.7725	0.2416
423.9769	0.2426
424.1812	0.241
424.3856	0.2325
424.5899	0.2326
424.7942	0.221
424.9985	0.2256
425.2028	0.2278
425.4071	0.2163
425.6113	0.2275
425.8156	0.2297
426.0198	0.221
426.224	0.2304
426.4282	0.2186
426.6324	0.2271
426.8366	0.225
427.0407	0.2154
427.2449	0.2117
427.449	0.2073
427.6531	0.2215
427.8572	0.2114
428.0613	0.1987
428.2654	0.2131
428.4694	0.2035
428.6735	0.2127
428.8775	0.2111
429.0815	0.2188
429.2855	0.2093
429.4895	0.1971
429.6935	0.192
429.8975	0.2106
430.1014	0.1986
430.3053	0.1922
430.5093	0.1986
430.7132	0.1945
430.9171	0.1913
431.1209	0.1975
431.3248	0.1821
431.5286	0.178
431.7325	0.1916
431.9363	0.1836
432.1401	0.1811
432.3439	0.1761
432.5477	0.179
432.7514	0.1659
432.9552	0.1681
433.1589	0.1741
433.3627	0.1769
433.5664	0.1697
433.7701	0.1637
433.9737	0.1675
434.1774	0.1743
434.3811	0.1605
434.5847	0.1686
434.7883	0.1594
434.9919	0.1502
435.1955	0.1554
435.3991	0.1585
435.6027	0.1558
435.8062	0.1483
436.0098	0.1561
436.2133	0.1568
436.4168	0.1509
436.6203	0.1501
436.8238	0.1479
437.0272	0.1402
437.2307	0.1364
437.4341	0.1335
437.6375	0.1252
437.841	0.1329
438.0443	0.1332
438.2477	0.13
438.4511	0.1288
438.6545	0.1292
438.8578	0.1263
439.0611	0.1294
439.2644	0.1221
439.4677	0.1182
439.671	0.1115
439.8743	0.1117
440.0775	0.1116
440.2808	0.1197
440.484	0.1044
440.6872	0.1044
440.8904	0.1003
441.0936	0.1102
441.2967	0.101
441.4999	0.1065
441.703	0.1064
441.9062	0.0926
442.1093	0.0929
442.3124	0.1039
442.5155	0.0873
442.7185	0.0863
442.9216	0.0953
443.1246	0.089
443.3276	0.0802
443.5307	0.0896
443.7337	0.0877
443.9366	0.0861
444.1396	0.0871
444.3426	0.0787
444.5455	0.0778
444.7484	0.074
444.9513	0.0771
445.1542	0.0721
445.3571	0.0712
445.56	0.0699
445.7628	0.0681
445.9657	0.0698
446.1685	0.0794
446.3713	0.0773
446.5741	0.0587
446.7769	0.069
446.9797	0.0656
447.1824	0.0646
447.3852	0.0574
447.5879	0.0652
447.7906	0.0597
447.9933	0.0659
448.196	0.0583
448.3986	0.0568
448.6013	0.0539
448.8039	0.0511
449.0066	0.0578
449.2092	0.0428
449.4118	0.0598
449.6143	0.0513
449.8169	0.0524
450.0195	0.0443
450.222	0.048
450.4245	0.0546
450.627	0.0542
450.8295	0.044
451.032	0.0479
451.2345	0.0452
451.4369	0.0418
451.6394	0.0458
451.8418	0.0387
452.0442	0.0387
452.2466	0.0519
452.449	0.036
452.6513	0.0394
452.8537	0.0374
453.056	0.0346
453.2583	0.0389
453.4607	0.0282
453.663	0.0412
453.8652	0.0342
454.0675	0.0394
454.2697	0.0224
454.472	0.0339
454.6742	0.0196
454.8764	0.0363
455.0786	0.0324
455.2808	0.0325
455.4829	0.0201
455.6851	0.0331
455.8872	0.031
456.0893	0.0252
456.2915	0.0221
456.4935	0.0276
456.6956	0.0241
456.8977	0.0255
457.0997	0.0233
457.3018	0.027
457.5038	0.0217
457.7058	0.0153
457.9078	0.031
458.1098	0.0276
458.3117	0.0217
458.5137	0.0237
458.7156	0.0226
458.9175	0.0161
459.1194	0.0317
459.3213	0.0108
459.5232	0.0104
459.725	0.0216
459.9269	0.0163
460.1287	0.0081
460.3305	0.0261
460.5323	0.0128
460.7341	0.0189
460.9359	0.0097
461.1376	0.0143
461.3394	0.0135
461.5411	0.0235
461.7428	0.0216
461.9445	0.0177
462.1462	0.0177
462.3479	0.0093
462.5495	0.0126
462.7512	0.0081
462.9528	0.0104
463.1544	0.0105
463.356	0.0147
463.5576	0.0092
463.7592	0.0067
463.9607	0.0076
464.1623	0.0252
464.3638	0.0073
464.5653	0.0125
464.7668	0.0169
464.9683	0.0115
465.1697	0.0027
465.3712	0.0069
465.5726	0.0113
465.7741	0.0032
465.9755	0.0083
466.1769	0.0071
466.3782	0.0031
466.5796	0.0161
466.7809	0.0151
466.9823	0.0179
467.1836	0.0113
467.3849	0.0091
467.5862	-0.0052
467.7875	0.0086
467.9887	0.0155
468.19	0.0024
468.3912	0.0075
468.5924	0.0196
468.7936	-0.0006
468.9948	0.008
469.196	0.0005
469.3972	0.0184
469.5983	-0.0003
469.7994	0.0114
470.0006	0.0049
470.2017	0.0161
470.4027	0.0039
470.6038	-0.0011
470.8049	0.0013
471.0059	0.0129
471.2069	0.0121
471.408	0.0089
471.6089	0.003
471.8099	0.0068
472.0109	0.0035
472.2119	0.0194
472.4128	0.0086
472.6137	-0.0026
472.8146	0.0077
473.0155	-0.0006
473.2164	0.0007
473.4173	0.0124
473.6181	0.0029
473.819	0.003
474.0198	0.0015
474.2206	0.0037
474.4214	0.0117
474.6222	0.0107
474.8229	0.0105
475.0237	0.0076
475.2244	0.0149
475.4251	-0.0036
475.6258	0.0028
475.8265	-0.0012
476.0272	0.002
476.2278	0.0031
476.4285	-0.0004
476.6291	0.0074
476.8297	0.0039
477.0303	0.0055
477.2309	-0.0029
477.4315	0.0105
477.632	-0.0013
477.8326	0.0049
478.0331	0.0051
478.2336	0.0028
478.4341	0.0045
478.6346	-0.0014
478.8351	0.0006
479.0355	0.0051
479.236	0.0042
479.4364	0.0039
479.6368	0.003
479.8372	0.0099
480.0376	0.0024
480.2379	0.0145
480.4383	-0.0003
480.6386	-0.0011
480.8389	0.0016
481.0392	0.0105
481.2395	0.0142
481.4398	0.0035
481.6401	0.003
481.8403	-0.0046
482.0405	-0.0017
482.2408	0.0015
482.441	0.0029
482.6411	-0.0006
482.8413	-0.0031
483.0415	0.0006
483.2416	-0.0016
483.4417	-0.0076
483.6419	0.0034
483.8419	-0.0005
484.042	-0.0066
484.2421	-0.0033
484.4422	0.006
484.6422	0.0066
484.8422	0.0034
485.0422	0.004
485.2422	0.0035
485.4422	-0.0029
485.6422	-0.0032
485.8421	-0.0021
486.042	0.009
486.242	-0.0021
486.4419	0.0029
486.6417	-0.003
486.8416	0.0082
487.0415	0.0007
487.2413	0.0065
487.4411	0.0004
487.641	0.0069
487.8408	0.0114
488.0405	0.0052
488.2403	-0.0061
488.4401	-0.0014
488.6398	0.0047
488.8395	-0.0026
489.0392	0.0006
489.2389	0.0021
489.4386	-0.0023
489.6383	0.0047
489.8379	0.0003
490.0376	0.009
490.2372	0.0001
490.4368	0.0073
490.6364	0.0056
490.836	-0.0043
491.0355	-0.0058
491.2351	0.0027
491.4346	0.0072
491.6341	-0.0091
491.8336	-0.0012
492.0331	0.0022
492.2326	-0.0008
492.432	0.0051
492.6315	0.0016
492.8309	0.0096
493.0303	-0.0052
493.2297	0.0027
493.4291	0.0005
493.6284	0.0119
493.8278	0.0017
494.0271	0.0022
494.2264	0.0005
494.4257	0.0012
494.625	0.003
494.8243	0.0013
495.0236	0.0049
495.2228	-0.0041
495.422	0.0092
495.6213	-0.004
495.8205	0.0031
496.0196	0.0053
496.2188	0.0032
496.418	-0.0012
496.6171	0.0031
496.8162	0.002
497.0153	0.0006
497.2144	-0.0028
497.4135	-0.0029
497.6126	-0.0096
497.8116	-0.0029
498.0107	-0.0019
498.2097	0.0117
498.4087	0.0006
498.6077	0.0029
498.8067	0.0083
499.0056	-0.0051
499.2046	-0.002
499.4035	0.0011
499.6024	-0.0032
499.8013	0.0063
500.0002	0.0017
500.199	0.0056
500.3979	-0.0001
500.5967	-0.0062
500.7956	0.0012
500.9944	0.0018
501.1932	-0.0006
501.3919	0.0034
501.5907	0.0007
501.7895	-0.0058
501.9882	-0.0063
502.1869	0.0094
502.3856	-0.0049
502.5843	-0.0026
502.783	0.0099
502.9816	-0.003
503.1803	0.0121
503.3789	-0.0041
503.5775	0.004
503.7761	-0.0004
503.9747	-0.006
504.1732	0.0092
504.3718	0.0024
504.5703	-0.0002
504.7689	-0.0106
504.9674	0.0005
505.1658	0.0061
505.3643	0.0104
505.5628	0.0049
505.7612	0.0116
505.9597	0.0026
506.1581	-0.0048
506.3565	-0.0007
506.5549	0.0105
506.7532	0.0046
506.9516	-0.004
507.1499	0.0069
507.3482	0.0122
507.5465	-0.0096
507.7448	0.0096
507.9431	0.0006
508.1414	0.0108
508.3396	-0.0026
508.5379	-0.0046
508.7361	0.0024
508.9343	0.0039
509.1325	0.0041
509.3306	-0.0026
509.5288	0.0076
509.7269	0.0018
509.9251	-0.0041
510.1232	-0.006
510.3213	-0.0018
510.5193	0.0116
510.7174	-0.0052
510.9154	0.0119
511.1135	0.0019
511.3115	-0.0034
511.5095	-0.0037
511.7075	-0.0011
511.9055	0.0041
512.1034	0.0036
512.3014	-0.0018
512.4993	-0.0013
512.6972	-0.002
512.8951	-0.0002
513.093	0.0008
513.2908	-0.0001
513.4887	0.0071
513.6865	-0.0151
513.8844	-0.0017
514.0822	0.0081
514.2799	0.0064
514.4777	0.0079
514.6755	0.005
514.8732	-0.0012
515.0709	0.0073
515.2687	-0.003
515.4664	-0.0148
515.664	0.0088
515.8617	0.0211
516.0594	0.0005
516.257	0.003
516.4546	0.0011
516.6522	-0.0045
516.8498	-0.0059
517.0474	-0.008
517.2449	0.0152
517.4425	-0.0061
517.64	0.0009
517.8375	0.0059
518.035	0.0006
518.2325	-0.0068
518.43	0.0015
518.6274	-0.0055
518.8249	0.0005
519.0223	0.0009
519.2197	-0.0083
519.4171	0.0006
519.6145	-0.0082
519.8118	0.0018
520.0092	-0.0003
520.2065	0.0072
520.4038	-0.0033
520.6011	0.0036
520.7984	0.0053
520.9956	0.0051
521.1929	0.0063
521.3901	0.0075
521.5874	0.0061
521.7846	0.0013
521.9818	-0.0001
522.1789	0.0189
522.3761	0.0033
522.5732	-0.0021
522.7704	-0.0083
522.9675	0.0029
523.1646	0.0155
523.3617	-0.0017
523.5587	0.0043
523.7558	0.0061
523.9528	-0.0031
524.1498	-0.008
524.3468	-0.0083
524.5438	0.001
524.7408	-0.0076
524.9378	-0.0047
525.1347	0.0063
525.3316	0.0062
525.5285	0.0032
525.7254	0.0034
525.9223	-0.0021
526.1192	0.0077
526.316	-0.0059
526.5129	0.0035
526.7097	0.0017
526.9065	0.0111
527.1033	0.005
527.3	-0.0035
527.4968	-0.0067
527.6935	0.0038
527.8903	0.0114
528.087	0.0036
528.2837	0.011
528.4804	0.0048
528.677	-0.0013
528.8737	-0.0046
529.0703	0.0083
529.2669	-0.0088
529.4635	0.0079
529.6601	0.004
529.8567	0.0054
530.0532	0.0091
530.2498	-0.0019
530.4463	0.0099
530.6428	-0.0043
530.8393	-0.0006
531.0358	-0.0012
531.2322	-0.0034
531.4287	-0.0124
531.6251	0.0061
531.8215	0.0064
532.0179	-0.0042
532.2143	0.0123
532.4107	0.0123
532.607	0.002
532.8034	0.0022
532.9997	0.0029
533.196	0.0117
533.3923	-0.0026
533.5886	0.0003
533.7848	-0.0054
533.9811	-0.0096
534.1773	0.0025
534.3735	0.0102
534.5697	-0.0024
534.7659	0.0001
534.9621	0.0061
535.1582	0.0053
535.3544	0.0068
535.5505	0.0052
535.7466	-0.004
535.9427	-0.0064
536.1387	0.0068
536.3348	0.0082
536.5308	0.0168
536.7269	-0.0064
536.9229	0.0005
537.1189	-0.007
537.3148	-0.0082
537.5108	0.0038
537.7068	0.0017
537.9027	-0.0004
538.0986	0.0005
538.2945	0.0057
538.4904	0.0012
538.6863	0.0055
538.8821	-0.0008
539.078	-0.0051
539.2738	-0.0139
539.4696	0.0023
539.6654	-0.0042
539.8611	0.0037
540.0569	0.0071
540.2526	0.0024
540.4484	-0.0015
540.6441	0.002
540.8398	0.0029
541.0355	-0.0053
541.2311	0.0026
541.4268	-0.003
541.6224	0.0058
541.818	-0.0027
542.0136	-0.0091
542.2092	0.0088
542.4048	-0.0046
542.6003	0.0092
542.7959	0.0014
542.9914	-0.0003
543.1869	-0.0032
543.3824	0.0066
543.5779	0.003
543.7734	-0.0074
543.9688	-0.0025
544.1642	0.0061
544.3596	-0.004
544.555	0.0034
544.7504	-0.0006
544.9458	0.0005
545.1411	-0.0055
545.3365	0.0164
545.5318	0.0058
545.7271	0.0114
545.9224	-0.0055
546.1177	0.0025
546.3129	-0.0051
546.5081	-0.0117
546.7034	0.0013
546.8986	0.0026
547.0938	0.0046
547.289	-0.0002
547.4841	-0.0004
547.6793	-0.0136
547.8744	-0.0024
548.0695	-0.0004
548.2646	-0.0089
548.4597	-0.0031
548.6548	0.005
548.8498	-0.0015
549.0448	0.0014
549.2399	0.0005
549.4349	0.0104
549.6298	-0.0019
549.8248	-0.0038
550.0198	0.002
550.2147	-0.0055
550.4096	0.0064
550.6045	0.0026
550.7994	0.008
550.9943	-0.0056
551.1892	-0.0026
551.384	0.0118
551.5788	0.0038
551.7737	-0.0035
551.9685	0.0006
552.1632	0.0087
552.358	-0.0009
552.5528	0.0008
552.7475	0.0014
552.9422	0.0021
553.1369	0.0027
553.3316	-0.0066
553.5263	-0.0051
553.7209	-0.0105
553.9156	0.0107
554.1102	0.0027
554.3048	0.0041
554.4994	-0.0042
554.694	0.0032
554.8885	0.0009
555.0831	0.0037
555.2776	-0.0039
555.4721	-0.0192
555.6666	0.0169
555.8611	-0.007
556.0555	0.0088
556.25	-0.0099
556.4444	-0.0015
556.6388	-0.0066
556.8332	-0.0019
557.0276	0.0102
557.222	-0.0009
557.4163	0.0019
557.6107	-0.0047
557.805	-0.0091
557.9993	-0.0069
558.1936	0.0055
558.3879	0.0056
558.5821	-0.0093
558.7764	0.0185
558.9706	0.0023
559.1648	0.0062
559.359	0.0107
559.5532	-0.0162
559.7473	0.0035
559.9415	0.0036
560.1356	-0.0022
560.3297	0.0021
560.5238	0.0015
560.7179	0.0039
560.9119	0.0054
561.106	-0.0015
561.3	-0.0039
561.494	0.0013
561.688	0.005
561.882	-0.0027
562.076	0.0111
562.2699	0.0032
562.4639	-0.0027
562.6578	0.0057
562.8517	-0.0001
563.0456	0.0027
563.2395	0.0025
563.4333	0.0057
563.6272	0.0089
563.821	0.0036
564.0148	-0.004
564.2086	-0.0063
564.4024	-0.0051
564.5961	0.0021
564.7899	-0.0099
564.9836	0.0026
565.1773	-0.002
565.371	0.0008
565.5647	-0.002
565.7584	0.0052
565.952	-0.007
566.1456	0.003
566.3393	0.0068
566.5329	0.0002
566.7264	0.006
566.92	0.0044
567.1136	0.0012
567.3071	0.0015
567.5006	-0.0048
567.6941	0.0118
567.8876	0.0016
568.0811	-0.0078
568.2745	-0.0013
568.468	0.0027
568.6614	-0.0023
568.8548	-0.0032
569.0482	0.0023
569.2416	0.0001
569.4349	-0.0003
569.6283	0.0021
569.8216	0.0007
570.0149	-0.0034
570.2082	-0.0043
570.4015	0.0036
570.5947	-0.0034
570.788	0.0018
570.9812	0.0013
571.1744	-0.0024
571.3676	-0.0003
571.5608	-0.0005
571.754	-0.0049
571.9471	0.0008
572.1402	0.0023
572.3333	-0.0018
572.5264	0.0031
572.7195	0.0036
572.9126	0.0033
573.1057	-0.0008
573.2987	0.0044
573.4917	-0.0017
573.6847	-0.002
573.8777	-0.0014
574.0707	-0.0039
574.2636	0.0014
574.4566	0.0033
574.6495	0.0036
574.8424	-0.0014
575.0353	-0.0018
575.2281	-0.0005
575.421	-0.0009
575.6138	0.0012
575.8067	-0.0024
575.9995	0.0056
576.1923	0.0075
576.385	-0.001
576.5778	-0.002
576.7706	0.006
576.9633	0.0033
577.156	0.0047
577.3487	0.0009
577.5414	-0.0021
577.734	-0.0001
577.9267	-0.0014
578.1193	0.0007
578.3119	-0.0052
578.5045	0.0005
578.6971	-0.0019
578.8897	-0.0019
579.0822	0.0046
579.2747	-0.007
579.4673	0.0006
579.6598	-0.0033
579.8522	0.0018
580.0447	0.0021
580.2372	0.0043
580.4296	-0
580.622	0.0033
580.8144	-0.0004
581.0068	0.0013
581.1992	-0.0006
581.3915	-0.0025
581.5839	0.0017
581.7762	0.0018
581.9685	0.0017
582.1608	0.0038
582.353	-0.0006
582.5453	0.0005
582.7375	-0.0001
582.9298	-0.0019
583.122	-0.0066
583.3142	0.0005
583.5063	-0.0046
583.6985	-0
583.8906	-0.0025
584.0827	0.0014
584.2749	-0.0011
584.4669	0.0043
584.659	-0.0003
584.8511	0.0026
585.0431	0.0006
585.2352	-0.0048
585.4272	0.0016
585.6192	0.0007
585.8111	-0.0059
586.0031	0.0017
586.195	0.0023
586.387	0.0032
586.5789	0.001
586.7708	-0.0021
586.9627	0.0021
587.1545	-0.0002
587.3464	-0.0007
587.5382	0.002
587.73	0.0054
587.9218	-0.0007
588.1136	-0.0057
588.3053	-0.0014
588.4971	-0.0048
588.6888	-0.0003
588.8805	0.0025
589.0722	-0.0034
589.2639	-0.0066
589.4556	-0.0045
589.6472	-0.0019
589.8389	-0.0024
590.0305	0.0023
590.2221	0.0058
590.4137	-0.0051
590.6052	0.0054
590.7968	0.0038
590.9883	0.0013
591.1798	-0.0046
591.3713	-0.0058
591.5628	0.001
591.7543	-0.0009
591.9458	-0.0025
592.1372	-0.0003
592.3286	0.0039
592.52	-0.0012
592.7114	-0.0041
592.9028	-0.0034
593.0941	0.0042
593.2855	0.0002
593.4768	0.0014
593.6681	0.0004
593.8594	-0.0037
594.0506	0.0004
594.2419	-0.0044
594.4331	-0.0036
594.6244	0.0023
594.8156	-0.0033
595.0067	0.0007
595.1979	-0.0065
595.3891	-0.0021
595.5802	-0.0004
595.7713	0.0001
595.9624	0.0033
596.1535	-0.0041
596.3446	-0.0056
596.5357	-0.0069
596.7267	0.0055
596.9177	0.0028
597.1087	0.0047
597.2997	0.0021
597.4907	-0.0007
597.6817	0.001
597.8726	0.0023
598.0635	-0.0033
598.2544	-0.0002
598.4453	-0.0033
598.6362	-0.0036
598.827	-0.0014
599.0179	0.0003
599.2087	-0.0005
599.3995	-0.0007
599.5903	-0.0018
599.7811	0.0002
599.9718	-0.0005
600.1626	-0
600.3533	-0.0004
600.544	0.0037
600.7347	0.0021
600.9254	0.0017
601.116	0.0013
601.3067	0.0032
601.4973	0.0064
601.6879	0.0011
601.8785	-0.0021
602.0691	0.0013
602.2596	-0.0015
602.4502	-0.0061
602.6407	0.006
602.8312	-0.0016
603.0217	0.0037
603.2122	0.0072
603.4027	-0.0048
603.5931	0.0003
603.7835	-0.0025
603.9739	-0.0018
604.1643	0.0035
604.3547	0.0036
604.5451	-0.0023
604.7354	-0.0032
604.9257	-0.0031
605.116	-0.0041
605.3063	-0.0029
605.4966	0.003
605.6869	0.0051
605.8771	0.0016
606.0673	-0.0068
606.2575	-0.0047
606.4477	0.0072
606.6379	-0.0045
606.8281	-0.0033
607.0182	-0.0024
607.2083	-0.0027
607.3985	-0.0024
607.5885	0.0007
607.7786	-0
607.9687	-0.0035
608.1587	0.0007
608.3488	-0.0031
608.5388	0.0028
608.7288	-0.0032
608.9187	0.0132
609.1087	0.001
609.2986	-0.0031
609.4886	0.0026
609.6785	-0
609.8684	-0.0022
610.0582	0.0017
610.2481	-0.0039
610.4379	0.0027
610.6278	-0.0067
610.8176	-0.0009
611.0074	-0.0083
611.1971	0.0028
611.3869	0.0006
611.5766	0.0003
611.7664	0.0031
611.9561	-0.0085
612.1458	0.0021
612.3354	0.0063
612.5251	-0.0017
612.7147	0.0013
612.9044	-0.0034
613.094	0.004
613.2836	0.0034
613.4731	0.0009
613.6627	0
613.8522	-0.0088
614.0417	-0.0022
614.2313	-0.0114
614.4207	0.0025
614.6102	-0.0031
614.7997	-0.0073
614.9891	-0.0045
615.1785	-0.0058
615.3679	0.0014
615.5573	-0.0069
615.7467	-0.0011
615.9361	-0.0142
616.1254	-0.0007
616.3147	0.0063
616.504	0.0028
616.6933	0.0004
616.8826	0.0111
617.0718	-0.0039
617.2611	-0.0037
617.4503	-0.0027
617.6395	0.0084
617.8287	-0.0052
618.0179	-0.0044
618.207	-0.006
618.3961	0.0007
618.5853	0.0038
618.7744	0.0062
618.9634	-0.0037
619.1525	0.0006
619.3416	0.0034
619.5306	-0.0009
619.7196	-0.0007
619.9086	0.0098
620.0976	-0.005
620.2866	0.0052
620.4755	0.0132
620.6645	-0.011
620.8534	-0.0042
621.0423	0.0086
621.2312	-0.0141
621.42	-0.0026
621.6089	-0.0045
621.7977	-0
621.9865	0.0074
622.1753	0.0051
622.3641	-0.0069
622.5529	-0.0094
622.7416	0.003
622.9303	-0.0068
623.1191	-0.0025
623.3078	-0.0054
623.4964	-0.009
623.6851	0.0074
623.8737	0.0096
624.0624	0.0015
624.251	0.0023
624.4396	0.0045
624.6282	0.0013
624.8167	0.008
625.0053	0.0036
625.1938	-0.0013
625.3823	-0.0044
625.5708	-0.0026
625.7593	-0.0026
625.9477	0.0005
626.1362	-0.008
626.3246	-0.0076
626.513	0.0019
626.7014	-0.0031
626.8898	0.0029
627.0781	0.0036
627.2665	0.0056
627.4548	-0.007
627.6431	0.0007
627.8314	-0.0057
628.0197	0.0032
628.2079	-0.0029
628.3962	-0.0014
628.5844	0.0033
628.7726	-0.0003
628.9608	-0.0016
629.1489	-0.0009
629.3371	-0.0076
629.5252	-0
629.7134	0.0027
629.9015	-0.0061
630.0895	0.0047
630.2776	-0.0129
630.4657	0.0084
630.6537	-0.0018
630.8417	-0.0125
631.0297	0.0005
631.2177	0.002
631.4057	-0.0014
631.5936	-0.0051
631.7815	-0.0018
631.9695	0.0168
632.1574	-0.0029
632.3452	-0.0082
632.5331	-0.0048
632.7209	0.0152
632.9088	-0.0095
633.0966	0.0079
633.2844	0.005
633.4722	0.0152
633.6599	-0.0055
633.8477	-0.0062
634.0354	-0.002
634.2231	0.013
634.4108	-0.0117
634.5985	0.0049
634.7861	-0.0069
634.9738	0.0118
635.1614	0.0144
635.349	-0.0106
635.5366	0.0122
635.7242	-0.0077
635.9117	0.0057
636.0993	-0.0164
636.2868	-0.0085
636.4743	0.0204
636.6618	-0.0051
636.8492	-0.0007
637.0367	0.0018
637.2241	0.0073
637.4115	0.016
637.5989	0.0071
637.7863	-0.0051
637.9737	-0.0011
638.161	-0.0065
638.3484	0.0008
638.5357	-0.0073
638.723	-0.0002
638.9103	0.0147
639.0975	-0.0031
639.2848	0.0197
639.472	-0.0036
639.6592	0.0018
639.8464	0.0166
640.0336	-0.0023
640.2208	-0.0016
640.4079	0.0197
640.595	-0.0141
640.7821	-0.0066
640.9692	0.0223
641.1563	0.0082
641.3434	0.0048
641.5304	0.0021
641.7174	-0.0009
641.9044	-0.008
642.0914	-0.0019
642.2784	0.013
642.4653	-0.0153
642.6523	-0.0058
642.8392	0.0175
643.0261	0.011
643.213	0.0024
643.3999	-0.0232
643.5867	0.0023
643.7735	0.0211
643.9604	-0.0078
644.1472	-0.0237
644.3339	-0.0106
644.5207	-0.0239
644.7075	-0.001
644.8942	0.0161
645.0809	-0.0116
645.2676	-0.0118
645.4543	-0.002
645.6409	-0.007
645.8276	-0.0089
646.0142	0.001
646.2008	-0.0054
646.3874	0.0051
646.574	-0.038
646.7605	-0.0112
646.9471	-0.0184
647.1336	0.0019
647.3201	0.0015
647.5066	-0.0048
647.6931	-0.0056
647.8795	0.0011
648.0659	-0.0262
648.2524	0.0074
648.4388	0.0114
648.6252	-0.0159
648.8115	0.0174
648.9979	-0.0139
649.1842	-0.0214
649.3705	0.0102
649.5568	-0.0066
649.7431	-0.0043
649.9294	-0.0046
650.1156	-0.0178
650.3018	0.0051
650.488	0.009
650.6742	0.005
650.8604	-0.0049
651.0466	0.0078
651.2327	-0.0252
651.4188	-0.0131
651.6049	-0.0124
651.791	0.0014
651.9771	-0.0117
652.1632	-0.0073
652.3492	-0.0061
652.5352	-0.0014
652.7212	-0.0101
652.9072	-0.0052
653.0932	-0.0131
653.2791	-0.0093
653.465	-0.0011
653.651	-0.0013
653.8369	0.0134
654.0227	-0.018
654.2086	-0.0068
654.3944	-0.0086
654.5803	0.0033
654.7661	-0.0091
654.9519	-0.0029
655.1377	-0
655.3234	-0
655.5092	-0
655.6949	-0
655.8806	-0
656.0663	-0
656.2519	-0
656.4376	-0
656.6232	-0
656.8088	-0
656.9945	-0
657.18	-0
657.3656	-0
657.5511	-0
657.7367	-0
657.9222	-0
658.1077	-0
658.2932	-0
658.4786	-0
658.6641	-0
658.8495	-0
659.0349	-0
659.2203	-0
659.4057	0.0072
659.591	0.0585
659.7764	0.0009
659.9617	-0.0038
660.147	-0.0052
660.3323	-0.0116
660.5176	0.0124
660.7028	-0.0085
660.888	0.0157
661.0733	0.004
661.2585	0.0142
661.4436	0.004
661.6288	-0.0053
661.8139	0.015
661.9991	0.0052
662.1842	-0.0006
662.3693	-0.0018
662.5544	-0.0081
662.7394	0.0155
662.9245	0.0041
663.1095	-0.0039
663.2945	0.0031
663.4795	0.0063
663.6644	0.0061
663.8494	0.009
664.0343	-0.0059
664.2193	0.0026
664.4042	-0.0006
664.589	-0.0094
664.7739	-0.0036
664.9587	-0.0096
665.1436	0.0027
665.3284	0.0079
665.5132	-0
665.698	0.0066
665.8827	-0.0166
666.0675	-0.0107
666.2522	0.0031
666.4369	0.0006
666.6216	-0.0043
666.8063	-0.0074
666.9909	0.0121
667.1756	0.0196
667.3602	-0.014
667.5448	-0.0051
667.7294	0.008
667.9139	0.0035
668.0985	-0.0123
668.283	-0.0243
668.4675	-0.0158
668.652	-0.0045
668.8365	-0.0404
669.0209	-0.0035
669.2054	0.0098
669.3898	0.0045
669.5742	0.0188
669.7586	0.0116
669.943	-0.0147
670.1273	0.024
670.3117	0.0107
670.496	0.0051
670.6803	-0.0057
670.8646	0.0292
671.0488	0.0004
671.2331	-0.006
671.4173	0.0105
671.6015	-0.0142
671.7857	-0.014
671.9699	0.0005
672.1541	0.0028
672.3382	0.0062
672.5223	0.0035
672.7064	0.011
672.8905	-0.0129
673.0746	-0.0141
673.2587	0.0119
673.4427	-0.0183
673.6267	-0.013
673.8107	-0.0165
673.9947	-0.0073
674.1787	-0.0007
674.3626	0.0012
674.5465	-0.0033
674.7304	-0.0212
674.9143	0.0015
675.0982	0.0086
675.2821	-0.0086
675.4659	0.0097
675.6497	-0.0105
675.8335	0.0003
676.0173	0.015
676.2011	-0.0083
676.3849	0.0146
676.5686	0.0088
676.7523	0.0063
676.936	-0.0235
677.1197	0.0002
677.3034	0.0157
677.487	0.0011
677.6706	-0.0147
677.8542	0.0052
678.0378	0.0084
678.2214	-0.0019
678.405	0.0016
678.5885	0.0048
678.772	-0.0068
678.9555	-0.0017
679.139	-0.0185
679.3225	0.0004
679.5059	-0.0155
679.6894	-0.0172
679.8728	-0.0131
680.0562	-0.0116
680.2395	-0.006
680.4229	0.003
680.6062	0.0152
680.7896	-0.0062
680.9729	0.0011
681.1562	-0.0128
681.3394	-0.0071
681.5227	-0.0388
681.7059	-0.0185
681.8891	-0.0009
682.0723	-0.0101
682.2555	0.0146
682.4387	0.0082
682.6218	-0.0215
682.805	-0.0126
682.9881	0.0113
683.1712	0.0162
683.3542	-0.0128
683.5373	0.0009
683.7203	-0.0057
683.9034	-0.0011
684.0864	-0.0038
684.2694	0.0129
684.4523	-0.0064
684.6353	0.0102
684.8182	-0.0072
685.0011	0.0048
685.184	-0.0004
685.3669	-0.0066
685.5498	0.0061
685.7326	-0.015
685.9154	-0.003
686.0982	0.0045
686.281	0.0008
686.4638	0.0071
686.6465	-0.0106
686.8293	-0.015
687.012	0.0025
687.1947	-0.0055
687.3774	0.0052
687.56	0.007
687.7427	0.0065
687.9253	0.0036
688.1079	0.0151
688.2905	-0.0139
688.4731	0.0144
688.6556	0.012
688.8382	-0.0003
689.0207	-0.0183
689.2032	-0.0177
689.3857	0.0051
689.5681	-0.0099
689.7506	0.0024
689.933	-0.024
690.1154	-0.0191
690.2978	-0.0132
690.4802	0.0123
690.6626	0.0168
690.8449	-0.021
691.0272	-0.013
691.2095	0.0083
691.3918	0.0002
691.5741	0.0198
691.7563	0.0221
691.9386	-0.0098
692.1208	-0.0024
692.303	-0.0008
692.4852	0.0089
692.6673	-0.0022
692.8495	-0.0162
693.0316	-0.006
693.2137	0.0224
693.3958	0.0236
693.5778	-0.0269
693.7599	-0.014
693.9419	0.0122
694.1239	-0.0187
694.3059	-0.0279
694.4879	-0.0125
694.6699	0.0154
694.8518	0.0199
695.0337	-0.0046
695.2157	-0.009
695.3975	0.0177
695.5794	-0.0057
695.7613	0.0192
695.9431	-0.0301
696.1249	-0.0099
696.3067	-0.0019
696.4885	-0.0012
696.6703	0.006
696.852	-0.0047
697.0337	0.0019
697.2154	0.02
697.3971	0.0267
697.5788	0.0221
697.7605	0.0068
697.9421	-0.0148
698.1237	0.015
698.3053	-0.0152
698.4869	0.0041
698.6685	-0.0059
698.85	-0.0129
699.0315	0.011
699.213	0.007
699.3945	0.0033
699.576	-0.0044
699.7575	-0.0245
699.9389	0.0047
700.1203	0.0024
700.3017	-0.0101
700.4831	-0.006
700.6645	0.0187
700.8458	-0.0062
701.0271	-0.0203
701.2084	-0.0172
701.3897	0.0112
701.571	-0.0198
701.7523	-0.0362
701.9335	0.0059
702.1147	-0.0069
702.2959	0.011
702.4771	0.0163
702.6583	0.0062
702.8394	-0.0143
703.0205	0.0003
703.2016	-0.0264
703.3827	0.0104
703.5638	-0.01
703.7449	-0.0061
703.9259	-0.0056
704.1069	0.0385
704.2879	0.017
704.4689	-0.0113
704.6499	-0.0177
704.8308	-0.033
705.0117	-0.0388
705.1927	0.0082
705.3735	0.0117
705.5544	0.0088
705.7353	0.0133
705.9161	0.0095
706.0969	0.0153
706.2777	0.0087
706.4585	0.0043
706.6393	0.0127
706.82	-0.0145
707.0007	0.0026
707.1815	0.0181
707.3621	-0.0097
707.5428	0.0221
707.7235	0.016
707.9041	-0.0147
708.0847	-0.0191
708.2653	-0.0061
708.4459	-0.0084
708.6265	-0.0152
708.807	-0.0025
708.9875	-0.0034
709.168	-0.0209
709.3485	0.0028
709.529	0.0028
709.7095	-0.0181
709.8899	0.0535
710.0703	-0.01
710.2507	-0.0055
710.4311	0.0129
710.6115	-0.0105
710.7918	0.0146
710.9721	-0.0146
711.1524	-0.0016
711.3327	-0.0056
711.513	-0.0236
711.6932	-0.0303
711.8735	0.0041
712.0537	-0.0005
712.2339	0.0181
712.4141	-0.0005
712.5942	0.0021
712.7744	0.0296
712.9545	-0.0161
713.1346	-0.0234
713.3147	0.0127
713.4947	-0.0006
713.6748	-0
713.8548	-0.0099
714.0348	0.0043
714.2148	0.0002
714.3948	0.0044
714.5748	-0.0086
714.7547	-0.0174
714.9346	-0.0035
715.1145	0.0057
715.2944	0.0085
715.4743	-0.0085
715.6541	-0.0141
715.834	-0.0068
716.0138	0.0272
716.1936	-0.0125
716.3733	-0.0121
716.5531	0.0064
716.7328	-0.0412
716.9126	-0.0191
717.0923	0.0067
717.2719	-0.0085
717.4516	-0.0277
717.6312	-0.0143
717.8109	-0.0038
717.9905	0.0054
718.1701	-0.0219
718.3496	0.0091
718.5292	-0.0232
718.7087	0.027
718.8882	0.0238
719.0677	-0.0169
719.2472	0.0287
719.4267	0.0191
719.6061	0.0016
719.7856	0.0034
719.965	0.0333
720.1443	-0.0009
720.3237	0.0499
720.5031	0.0121
720.6824	-0.0027
720.8617	0.0048
721.041	0.0119
721.2203	0.0055
721.3995	-0.0064
721.5788	-0.0188
721.758	0.0291
721.9372	-0.007
722.1164	-0.0141
722.2956	0.0025
722.4747	0.0039
722.6538	0.0298
722.8329	-0.017
723.012	0.0172
723.1911	0.035
723.3702	-0.0303
723.5492	0.0085
723.7282	0.0029
723.9072	-0.0248
724.0862	-0.0123
724.2652	-0.0095
724.4441	0.0016
724.623	-0.017
724.8019	-0.0242
724.9808	-0.0117
725.1597	-0.0015
725.3385	-0.0125
725.5174	0.0178
725.6962	0.0128
725.875	-0.0021
726.0538	-0.0057
726.2325	-0.0314
726.4112	0.026
726.59	-0.0268
726.7687	-0.0131
726.9474	-0.0125
727.126	-0.0253
727.3047	-0.01
727.4833	0.0378
727.6619	0.04
727.8405	-0.019
728.0191	-0.0068
728.1976	-0.0398
728.3762	-0.0373
728.5547	0.0139
728.7332	-0.0001
728.9116	-0.0438
729.0901	0.0286
729.2686	-0.0333
729.447	-0.0161
729.6254	0.0176
729.8038	-0.003
729.9821	-0.004
730.1605	-0.0184
730.3388	-0.0228
730.5171	-0.0115
730.6954	0.0144
730.8737	0.013
731.0519	-0.0093
731.2302	-0.0174
731.4084	-0.0003
731.5866	-0.0085
731.7648	-0.0246
731.9429	-0.0175
732.1211	-0.0168
732.2992	-0.0077
732.4773	0.0023
732.6554	-0.0006
732.8335	0.0106
733.0115	-0.0116
733.1896	-0
733.3676	-0.0013
733.5456	-0.0039
733.7235	0.0114
733.9015	-0.0063
734.0794	-0.0149
734.2574	0.0009
734.4353	-0.0161
734.6131	0.0171
734.791	-0.0069
734.9689	0.0005
735.1467	0.0127
735.3245	0.0044
735.5023	0.0231
735.68	-0.0201
735.8578	0.0033
736.0355	0.0068
736.2132	0.013
736.3909	0.0008
736.5686	-0.0057
736.7463	-0.0059
736.9239	0.002
737.1015	0.009
737.2791	-0.0332
737.4567	-0.0001
737.6343	-0.0121
737.8118	-0.0251
737.9894	-0.0095
738.1669	-0.0034
738.3444	-0.0197
738.5218	0.0027
738.6993	-0.0092
738.8767	0.0002
739.0541	0.016
739.2315	-0.0044
739.4089	0.0129
739.5863	0.0058
739.7636	-0.0058
739.9409	0.0036
740.1182	-0.0028
740.2955	-0.0253
740.4728	-0.0037
740.65	-0.002
740.8272	-0.0249
741.0044	0.0245
741.1816	0.0236
741.3588	0.024
741.5359	0.0019
741.7131	0.0397
741.8902	-0.0053
742.0673	0.005
742.2444	-0.0017
742.4214	-0.0025
742.5985	0.0138
742.7755	-0.0131
742.9525	0.0295
743.1295	-0.0407
743.3064	-0.0044
743.4834	-0.0067
743.6603	-0.0181
743.8372	-0.001
744.0141	0.0269
744.191	-0.0183
744.3678	0.0036
744.5446	0.0063
744.7215	-0.0065
744.8982	0.0139
745.075	-0.0024
745.2518	-0.001
745.4285	-0.013
745.6052	-0.0028
745.7819	-0.0081
745.9586	0.0109
746.1353	-0.0247
746.3119	-0.0054
746.4885	0.0004
746.6651	-0.0267
746.8417	-0.0345
747.0183	0.0109
747.1948	-0.0086
747.3714	0.0042
747.5479	-0.0168
747.7244	-0.0461
747.9008	0.0296
748.0773	0.0199
748.2537	0.0005
748.4301	-0.0026
748.6065	-0.0119
748.7829	-0.0104
748.9593	-0.0099
749.1356	0.0118
749.3119	-0.0153
749.4882	-0.0019
749.6645	0.0109
749.8408	-0.0254
750.017	0.0106
750.1933	0.02
750.3695	0.022
750.5457	-0.0116
750.7218	0.0119
750.898	-0.0058
751.0741	0.0142
751.2502	0.0299
751.4263	0.0111
751.6024	0.0221
751.7784	-0.0144
751.9545	-0.0228
752.1305	0.0109
752.3065	0.0187
752.4825	0.0158
752.6584	0.0049
752.8344	-0.0059
753.0103	-0.0004
753.1862	0.0036
753.3621	-0.0044
753.5379	-0.0323
753.7138	-0.0321
753.8896	0.026
754.0654	0.0059
754.2412	0.0062
754.417	0.0141
754.5927	-0.0008
754.7685	-0.0116
754.9442	-0.0115
755.1199	-0.0046
755.2956	0.0263
755.4712	0.0021
755.6469	-0.0069
755.8225	0.0082
755.9981	-0.0061
756.1736	0.0115
756.3492	-0.0041
756.5248	-0.009
756.7003	-0.0143
756.8758	-0.0218
757.0513	0.0016
757.2267	-0.0145
757.4022	-0.0072
757.5776	-0.0063
757.753	-0.0202
757.9284	-0.0167
758.1038	-0.0194
758.2791	0.0087
758.4545	-0.021
758.6298	-0.0162
758.8051	0.001
758.9803	0.001
759.1556	-0.0139
759.3308	-0.0037
759.506	0.0172
759.6812	-0.0023
759.8564	-0.0124
760.0316	-0.0059
760.2067	-0.0159
760.3819	-0.0043
760.557	-0.0041
760.732	0.0174
760.9071	-0.005
761.0821	-0.0021
761.2572	0.0039
761.4322	-0.0135
761.6072	-0.015
761.7821	0.0151
761.9571	0.0007
762.132	-0.0044
762.3069	-0.0027
762.4818	0.0091
762.6567	0.0114
762.8316	0.011
763.0064	-0.0294
763.1812	-0.0173
763.356	-0.011
763.5308	-0.0059
763.7055	0.0062
763.8803	0.0162
764.055	-0.0024
764.2297	0.0012
764.4044	-0.0126
764.579	-0.0059
764.7537	-0.0163
764.9283	-0.0067
765.1029	0.0149
765.2775	0.0039
765.4521	0.0216
765.6266	-0.0153
765.8011	-0.0044
765.9756	-0.0041
766.1501	0.04
766.3246	-0.0085
766.4991	-0.0326
766.6735	-0.013
766.8479	0.0081
767.0223	0.0082
767.1967	0.0042
767.371	0.0186
767.5454	-0.0039
767.7197	0.0125
767.894	-0.0199
768.0683	-0.0197
768.2425	-0.0083
768.4168	0.0082
768.591	0.0263
768.7652	-0.035
768.9394	-0.025
769.1135	0.0083
769.2877	0.0231
769.4618	0.0125
769.6359	0.0004
769.81	0.0034
769.984	0.02
770.1581	0.034
770.3321	-0.037
770.5061	0.0125
770.6801	0.0101
770.8541	-0.0144
771.028	-0.0051
771.202	-0.043
771.3759	0.0039
771.5498	0.0008
771.7236	-0.017
771.8975	-0.0557
772.0713	0.0165
772.2451	0.0039
772.4189	0.0231
772.5927	-0.0111
772.7665	0.0405
772.9402	0.0185
773.1139	0.0067
773.2876	0.0105
773.4613	0.0017
773.635	0.0045
773.8086	-0.026
773.9822	0.0121
774.1558	-0.0225
774.3294	0.0044
774.503	0.0054
774.6765	0.0331
774.8501	0.0245
775.0236	0.0065
775.1971	-0.0435
775.3705	-0.0057
775.544	0.0034
775.7174	0.0053
775.8908	0.033
776.0642	-0.0118
776.2376	-0.0294
776.4109	0.0466
776.5843	-0.009
776.7576	0.0085
776.9309	0.0279
777.1041	0.0153
777.2774	-0.0149
777.4506	-0.0383
777.6238	0.0016
777.797	-0.0113
777.9702	0.0201
778.1434	-0.0107
778.3165	-0.0001
778.4896	-0.0095
778.6627	0.0261
778.8358	-0.0118
779.0089	-0.0036
779.1819	-0.0137
779.3549	0.0554
779.5279	-0.0295
779.7009	-0.0447
779.8739	-0.027
780.0468	0.0154
780.2197	-0.0221
780.3926	-0.0202
780.5655	-0.0324
780.7384	-0.0047
780.9112	-0.004
781.0841	-0.0402
781.2569	0.0052
781.4297	0.0182
781.6024	-0.0126
781.7752	0.0026
781.9479	-0.01
782.1206	0.0151
782.2933	-0.0115
782.466	0.004
782.6386	0.0039
782.8113	-0.0078
782.9839	0.0271
783.1565	-0.0019
783.329	0.001
783.5016	-0.0049
783.6741	-0.0232
783.8466	-0.04
784.0191	-0.0652
784.1916	0.023
784.3641	-0.0552
784.5365	0.049
784.7089	-0.0065
784.8813	0.0195
785.0537	0.047
785.2261	0.0311
785.3984	-0.0244
785.5707	0.0446
785.743	-0.0256
785.9153	0.0457
786.0876	-0.0309
786.2598	0.0425
786.432	0.0092
786.6042	0.0319
786.7764	-0.0064
786.9486	0.0442
787.1207	-0.0127
787.2928	0.017
787.4649	0.0063
787.637	0.0204
787.8091	0.0049
787.9811	-0.0001
788.1532	-0.0242
788.3252	-0.0188
788.4972	-0.0219
788.6691	0.0412
788.8411	-0.0148
789.013	0.0214
789.1849	-0.0386
789.3568	-0.0071
789.5287	-0.0499
789.7005	0.0309
789.8723	-0.0247
790.0442	-0.0618
790.2159	0.0338
790.3877	0.0256
790.5595	0.0158
790.7312	-0.0481
790.9029	-0.019
791.0746	0.0301
791.2463	0.0201
791.4179	0.0094
791.5896	-0.0523
791.7612	-0.035
791.9328	0.0076
792.1044	-0.0266
792.2759	0.0009
792.4474	-0.0314
792.619	-0.0012
792.7905	-0.0014
792.9619	-0.0113
793.1334	0.001
793.3048	0.0099
793.4762	-0.0406
793.6476	-0.0406
793.819	-0.0652
793.9904	0.0087
794.1617	-0.0121
794.333	-0.0136
794.5043	-0.0165
794.6756	0.0292
794.8469	-0.0259
795.0181	-0.0021
795.1893	-0.0562
795.3605	-0.0353
795.5317	0.0187
795.7029	0.0072
795.874	-0.0339
796.0452	-0.029
796.2163	0.0115
796.3873	0.0216
796.5584	0.0668
796.7294	-0.1241
796.9005	-0.0547
797.0715	0.0176
797.2425	-0.0154
797.4134	-0.0266
797.5844	0.0451
797.7553	-0.007
797.9262	0.0144
798.0971	-0.0064
798.2679	0.0715
798.4388	-0.0973
798.6096	0.0417
798.7804	-0.004
798.9512	0.007
799.122	0.0881
799.2927	0.0249
799.4635	0.0752
799.6342	-0.0159
799.8049	0.0425
799.9755	-0.0314
800.1462	0.0304
800.3168	-0.0303
800.4874	0.0155
800.658	0.1384
800.8286	-0.058
800.9991	0.0768
801.1696	0.0307
801.3402	-0.0554
801.5106	-0.1062
801.6811	-0.0548
801.8516	-0.0278
802.022	-0.0648
802.1924	-0.1374
802.3628	-0.0428
802.5332	-0.1162
802.7035	-0.014
802.8739	0.0339
803.0442	-0.0621
803.2145	-0.0093
803.3847	0.0033
803.555	-0.0538
803.7252	0.0471
803.8954	0.021
804.0656	0.0508
804.2358	-0.0728
804.4059	0.0525
804.5761	0.1106
804.7462	-0.0693
804.9163	-0.0355
805.0864	-0.0187
805.2564	-0.0201
805.4264	-0.0799
805.5965	0.0148
805.7665	0.1344
805.9364	-0.0657
806.1064	-0.0381
806.2763	0.0688
806.4462	0.0137
806.6161	0.0314
806.786	-0.0257
806.9559	0.0299
807.1257	-0.057
807.2955	0.0487
807.4653	-0.0869
807.6351	-0.0312
807.8048	-0.0545
807.9746	0.0053
808.1443	0.0656
808.314	0.0826
808.4837	-0.0018
808.6533	0.0193
808.8229	-0.0885
808.9926	-0.087
809.1622	0.0577
809.3317	-0.0764
809.5013	0.0169
809.6708	0.0459
809.8403	0.0684
810.0098	0.0917
810.1793	0.035
810.3488	0.0915
810.5182	0.0103
810.6876	-0.0118
810.857	-0.0518
811.0264	-0.0961
811.1958	-0.023
811.3651	-0.0327
811.5344	-0.0316
811.7037	-0.0859
811.873	0.0245
812.0422	0.0043
812.2115	0.1281
812.3807	0.0609
812.5499	-0.005
812.7191	0.0142
812.8882	-0.1205
813.0574	-0.1233
813.2265	-0.0502
813.3956	0.0256
813.5646	-0.0077
813.7337	-0.1148
813.9027	-0.0685
814.0718	-0.008
814.2407	-0.0852
814.4097	-0.0175
814.5787	0.035
814.7476	0.0216
814.9165	0.0126
815.0854	0.0363
815.2543	-0.07
815.4232	-0.0208
815.592	0.0892
815.7608	0.0107
815.9296	-0.0542
816.0984	0.0858
816.2671	-0.2228
816.4359	0.0703
816.6046	0.0222
816.7733	0.131
816.942	0.0208
817.1106	-0.0733
817.2793	-0.0365
817.4479	-0.0088
817.6165	0.0082
817.785	-0.084
817.9536	0.0451
818.1221	0.0449
818.2906	0.002
818.4591	-0.0149
818.6276	-0.047
818.7961	0.0053
818.9645	-0.0233
819.1329	0.0489
819.3013	-0.0426
819.4697	0.3246
819.638	0.0731
819.8064	-0.1293
819.9747	-0.0475
820.143	-0.0784
820.3113	0.0304
820.4795	0.021
820.6477	-0.173
820.816	0.0047
820.9842	0.032
821.1523	0.0945
821.3205	-0.0136
821.4886	0.0258
821.6567	0.006
821.8248	0.083
821.9929	0.0777
822.1609	0.0124
822.329	-0.036
822.497	-0.0983
822.665	0.0234
822.833	-0.1747
823.0009	-0.1654
823.1688	-0.1265
823.3367	-0.3299
823.5046	0.2317
823.6725	-0.0296
823.8404	-0.0431
824.0082	0.0289
824.176	0.112
824.3438	0.0628
824.5116	0.1355
824.6793	-0.0813
824.847	-0.0579
825.0147	0.0338
825.1824	0.0771
825.3501	0.3967
825.5177	-0.0005
825.6854	0.1824
825.853	0.0066
826.0206	-0.0633
826.1881	-0.0007
826.3557	0.198
826.5232	-0.0609
826.6907	0.0918
826.8582	0.0133
827.0257	-0.0941
827.1931	0.1908
827.3605	-0.0247
827.528	-0.0141
827.6953	0.0484
827.8627	-0.0468
828.03	0.0598
828.1974	-0.1126
828.3647	0.0948
828.532	0.154
828.6992	0.147
828.8665	0.152
829.0337	-0.0546
829.2009	0.0635
829.3681	0.0505
829.5352	-0.0981
829.7024	0.1444
829.8695	-0.1425
830.0366	0.0692
830.2037	0.0864
830.3707	0.093
830.5378	0.0805
830.7048	-0.2412
830.8718	-0.0069
831.0388	0.2339
831.2057	-0.2077
831.3727	-0.0699
831.5396	0.204
831.7065	-0.0128
831.8734	-0.5039
832.0402	0.5452
832.2071	-0.2319
832.3739	0.165
832.5407	-0
832.7075	0.1268
832.8742	0.1351
833.041	-0.1413
833.2077	0.4676
833.3744	-0.0693
833.541	-0.0828
833.7077	-0.0054
833.8743	0.0524
834.0409	-0.0521
834.2075	0.0549
834.3741	0.1587
834.5407	-0.0228
834.7072	-0.0086
834.8737	0.2441
835.0402	-0.2395
835.2067	0.1743
835.3731	0.1724
835.5395	-0.0678
835.706	0.5423
835.8723	-0.0579
836.0387	0.0555
836.2051	0.1299
836.3714	-0.0017
836.5377	-0.1024
836.704	-0.0857
836.8703	-0.0392
837.0365	0.0338
837.2027	-0.6703
837.3689	-0.0153
837.5351	-0.2937
837.7013	-0.1253
837.8674	-0.0167
838.0335	-0.0429
838.1997	0.1155
838.3657	-0
838.5318	-0.2424
838.6978	0.1904
838.8639	0.3347
839.0299	0.1182
839.1958	0.08
839.3618	0.0967
839.5277	-0.1729
839.6937	0.0911
839.8596	-0.0234
840.0254	-0.0105
840.1913	0.2014
840.3571	-0.2505
840.523	0.0093
840.6888	-0.132
840.8545	0.4435
841.0203	-0.3007
841.186	0.012
841.3517	0.0513
841.5174	0.1149
841.6831	0.4771
841.8488	-0.0265
842.0144	0.1555
842.18	0.0149
842.3456	0.1954
842.5112	0.6162
842.6767	-0.4923
842.8422	0.5579
843.0077	-0.0074
843.1732	-0.0246
843.3387	-0.1393
843.5042	-0
843.6696	-0.3
843.835	0.3672
844.0004	-0.0555
844.1657	-0
844.3311	-0.6555
844.4964	-0.272
844.6617	-0
844.827	0.1115
844.9923	-0.16
845.1575	-0
845.3227	0.1558
845.4879	0.1317
845.6531	0.3778
845.8183	0.0986
845.9834	0.0462
846.1485	-0.3998
846.3136	0.2004
846.4787	0.1685
846.6438	0.1444
846.8088	-0
846.9738	-0
847.1388	0.0251
847.3038	0.1841
847.4687	-0
847.6337	-0.0751
847.7986	0.3199
847.9635	0.0219
848.1284	-0
848.2932	0.8687
848.458	0.3145
848.6228	0.1443
848.7876	-0.1117
848.9524	0.6588
849.1172	0.6588
849.2819	-0
849.4466	0.2724
849.6113	-0.1159
849.7759	0.3219
849.9406	-0.1129
850.1052	-0.2997
850.2698	-0
850.4344	0.1619
850.599	0.1608
850.7635	-0.1764
850.928	0.4176
851.0925	-0.1166
851.257	-0.7376
851.4215	-0.5521
851.5859	-0.0533
851.7503	-0
851.9147	-1.37
852.0791	-0.0945
852.2434	-0.1523
852.4078	-0
852.5721	0.5972
852.7364	0.4028
852.9007	0.283
853.0649	0.1423
853.2291	-0
853.3934	-0
853.5575	-0.3417
853.7217	-0.0039
853.8859	0.6588
854.05	-1.1336
854.2141	-0
854.3782	0.5791
854.5423	-0.8107
854.7063	0.0769
854.8703	-0.0481
855.0343	-0.0471
855.1983	0.0808
855.3623	0.0585
855.5262	-0
855.6901	0.1296
855.854	-0.0978
856.0179	-0
856.1818	-0
856.3456	-0.0721
856.5094	-0
856.6732	-0.7773
856.837	0.3339
857.0008	0.2269
857.1645	-0.1044
857.3282	0.3713
857.4919	0.692
857.6556	0.2161
857.8192	-0.2313
857.9828	-0.3884
858.1465	0.2763
858.31	-1.4168
858.4736	0.4379
858.6372	1.6646
858.8007	-0.7418
858.9642	0.2453
859.1277	-0.4448
859.2911	-0.0388
859.4546	1.1253
859.618	0.5259
859.7814	-0.6295
859.9448	-0.3307
860.1081	-0
860.2715	-0.6338
860.4348	0.2372
860.5981	-0
860.7614	-0
860.9246	-0.2516
861.0879	-0.2998
861.2511	0.7358
861.4143	0.5294
861.5774	0.1251
861.7406	-0.73
861.9037	0.3183
862.0668	-0.2112
862.2299	-0
862.393	0.9448
862.556	0.1809
862.7191	-0.0353
862.8821	-0.435
863.0451	0.1621
863.208	-0
863.371	0.1976
863.5339	0.0787
863.6968	-0
863.8597	-0
864.0225	-0
864.1854	-0
864.3482	1.7825
864.511	0.2336
864.6737	0.0183
864.8365	0.1574
864.9992	1.2655
865.1619	-0.0127
865.3246	0.0505
865.4873	-0.4133
865.65	0.3606
865.8126	-0.0513
865.9752	0.4284
866.1378	-0.5777
866.3004	-0.0688
866.4629	1.3834
866.6254	-0
866.7879	0.0208
866.9504	-0.7242
867.1129	0.4317
867.2753	0.1542
867.4377	-0
867.6001	-0.1047
867.7625	-0.3062
867.9249	-0
868.0872	-0
868.2495	-0.0269
868.4118	-0.0893
868.5741	-0.3245
868.7363	-0
868.8986	-0.0324
869.0608	0.0719
869.223	-0
869.3851	-0
869.5473	-1.4431
869.7094	-0
869.8715	-0
870.0336	-0.0217
870.1957	-0
870.3577	-0.1884
870.5197	0.1376
870.6817	-0
870.8437	0.658
871.0057	-0
871.1676	0.0452
871.3295	0.9635
871.4914	0.4142
871.6533	-0
871.8151	-0.4864
871.977	1.1276
872.1388	-0.9261
872.3006	0.0788
872.4623	-0.4034
872.6241	-0
872.7858	0.0782
872.9475	-0.7222
873.1092	-0.1346
873.2709	0.1644
873.4325	-0
873.5941	-0
873.7557	-0.3346
873.9173	-0
874.0789	-0.0977
874.2404	-0.2873
874.4019	0.3789
874.5634	0.747
874.7249	-0
874.8863	-0.3271
875.0478	0.0267
875.2092	-0
875.3706	0.6344
875.5319	-0
875.6933	0.0327
875.8546	1.4314
876.0159	-0.0682
876.1772	-0.5422
876.3385	-0
876.4997	-0.2655
876.6609	-0.9782
876.8221	-0.0085
876.9833	0.1532
877.1445	0.2896
877.3056	-0
877.4667	-1.3717
877.6278	-0
877.7889	-0.2384
877.9499	0.4771
878.111	0.2187
878.272	-0.5349
878.433	0.4201
878.5939	-0
878.7549	-0
878.9158	-0
879.0767	-0.0395
879.2376	-0
879.3984	-0.3
879.5593	-0.0987
879.7201	-0.2218
879.8809	-0
880.0417	0.1047
880.2024	0.1674
880.3632	0.8687
880.5239	0.367
880.6846	-0.5831
880.8452	0.3428
881.0059	-0
881.1665	1.0515
881.3271	-0
881.4877	-0.0239
881.6483	-1.4975
881.8088	-0.0907
881.9693	0.165
882.1298	0.165
882.2903	0.165
