Data from D4ACN5uM480nmA_Absorbance_12-08-02-084.txt Node
Date: Fri Feb 21 12:08:02 GMT 2025
User: LASERRRRR
Spectrometer: FLMT03099
Trigger mode: 0
Integration Time (sec): 1.500000E-2
Scans to average: 1
Electric dark correction enabled: true
Nonlinearity correction enabled: false
Boxcar width: 0
XAxis mode: Wavelengths
Number of Pixels in Spectrum: 3648
>>>>>Begin Spectral Data<<<<<
179.3399	0.6788
179.5586	0.6788
179.7771	0.6788
179.9957	-0.0363
180.2143	-0.424
180.4329	-0
180.6514	-0
180.8699	-0
181.0885	-0
181.307	-0.1492
181.5255	-0.2495
181.744	-0
181.9625	-0.0832
182.181	-0.2253
182.3994	-0
182.6179	-0.301
182.8363	-0.2821
183.0547	-0
183.2732	0.3052
183.4916	0.172
183.71	0.2888
183.9284	0.1511
184.1467	0.5964
184.3651	0.2059
184.5835	0.0156
184.8018	0.2024
185.0201	0.2368
185.2385	0.2667
185.4568	0.1365
185.6751	0.168
185.8934	0.2232
186.1117	0.2065
186.3299	0.1447
186.5482	0.1441
186.7664	0.3489
186.9847	0.2646
187.2029	0.271
187.4211	0.2752
187.6393	0.6573
187.8575	0.1037
188.0757	0.4162
188.2939	0.3198
188.512	0.2186
188.7302	0.2165
188.9483	0.0669
189.1665	0.2946
189.3846	0.2473
189.6027	0.1417
189.8208	0.4137
190.0389	0.3157
190.257	0.3673
190.475	0.2368
190.6931	0.3207
190.9111	0.373
191.1292	0.234
191.3472	0.4789
191.5652	0.6029
191.7832	0.2238
192.0012	0.2439
192.2192	0.3122
192.4371	0.1338
192.6551	0.3261
192.873	0.3868
193.091	0.3292
193.3089	0.3769
193.5268	0.6066
193.7447	0.4523
193.9626	0.49
194.1805	0.3544
194.3984	0.3777
194.6162	0.4825
194.8341	0.6008
195.0519	0.4801
195.2697	0.5697
195.4875	0.5474
195.7054	0.457
195.9231	0.4262
196.1409	0.585
196.3587	0.6671
196.5765	0.4478
196.7942	0.7644
197.012	0.6709
197.2297	0.5609
197.4474	0.9801
197.6651	0.6099
197.8828	0.657
198.1005	0.7536
198.3182	0.7404
198.5358	0.6117
198.7535	0.5671
198.9711	0.6732
199.1888	0.558
199.4064	0.6005
199.624	0.5441
199.8416	0.6477
200.0592	0.6153
200.2767	0.5832
200.4943	0.6796
200.7119	0.5804
200.9294	0.5792
201.1469	0.6295
201.3645	0.7315
201.582	0.5635
201.7995	0.5437
202.017	0.5682
202.2344	0.5937
202.4519	0.5842
202.6694	0.5518
202.8868	0.5613
203.1042	0.5407
203.3217	0.5387
203.5391	0.534
203.7565	0.5605
203.9739	0.5201
204.1913	0.5488
204.4086	0.5717
204.626	0.5169
204.8433	0.5245
205.0607	0.5055
205.278	0.5147
205.4953	0.5053
205.7126	0.4871
205.9299	0.5212
206.1472	0.5306
206.3644	0.4718
206.5817	0.4657
206.7989	0.4574
207.0162	0.4382
207.2334	0.4528
207.4506	0.4379
207.6678	0.4564
207.885	0.4387
208.1022	0.4966
208.3194	0.4263
208.5365	0.4822
208.7537	0.4396
208.9708	0.4296
209.1879	0.4475
209.405	0.4424
209.6222	0.4252
209.8392	0.4115
210.0563	0.4344
210.2734	0.3861
210.4905	0.3917
210.7075	0.4343
210.9245	0.4048
211.1416	0.3845
211.3586	0.4332
211.5756	0.4215
211.7926	0.4226
212.0096	0.399
212.2265	0.4372
212.4435	0.4336
212.6604	0.4101
212.8774	0.3997
213.0943	0.4053
213.3112	0.402
213.5281	0.4137
213.745	0.3817
213.9619	0.3841
214.1788	0.4017
214.3956	0.4031
214.6125	0.4001
214.8293	0.4112
215.0461	0.4059
215.2629	0.394
215.4798	0.3849
215.6965	0.3885
215.9133	0.4223
216.1301	0.3946
216.3469	0.4068
216.5636	0.4111
216.7803	0.419
216.9971	0.4331
217.2138	0.4305
217.4305	0.4294
217.6472	0.4367
217.8639	0.4027
218.0805	0.4166
218.2972	0.4112
218.5138	0.4414
218.7305	0.4275
218.9471	0.4191
219.1637	0.4402
219.3803	0.4221
219.5969	0.4049
219.8135	0.4169
220.0301	0.4256
220.2466	0.4341
220.4632	0.4282
220.6797	0.4394
220.8962	0.4296
221.1127	0.423
221.3292	0.42
221.5457	0.4282
221.7622	0.4226
221.9787	0.4461
222.1951	0.4228
222.4116	0.4423
222.628	0.4503
222.8444	0.4565
223.0608	0.4363
223.2772	0.4293
223.4936	0.4557
223.71	0.4426
223.9264	0.4432
224.1427	0.4447
224.3591	0.4588
224.5754	0.4703
224.7917	0.4585
225.008	0.4421
225.2243	0.4589
225.4406	0.4772
225.6569	0.4536
225.8732	0.4618
226.0894	0.4742
226.3057	0.4645
226.5219	0.4795
226.7381	0.4686
226.9543	0.4799
227.1705	0.4692
227.3867	0.4866
227.6029	0.4838
227.8191	0.5065
228.0352	0.4953
228.2513	0.5103
228.4675	0.496
228.6836	0.4947
228.8997	0.4937
229.1158	0.4905
229.3319	0.4958
229.548	0.4939
229.764	0.5084
229.9801	0.5066
230.1961	0.4964
230.4121	0.5095
230.6282	0.5055
230.8442	0.5056
231.0602	0.518
231.2761	0.5219
231.4921	0.5185
231.7081	0.5141
231.924	0.5264
232.14	0.5182
232.3559	0.539
232.5718	0.5225
232.7877	0.516
233.0036	0.5159
233.2195	0.5228
233.4353	0.5438
233.6512	0.545
233.867	0.539
234.0829	0.5307
234.2987	0.5223
234.5145	0.5361
234.7303	0.543
234.9461	0.5332
235.1619	0.5293
235.3776	0.5316
235.5934	0.5249
235.8091	0.5292
236.0249	0.5327
236.2406	0.5362
236.4563	0.5467
236.672	0.5478
236.8877	0.5371
237.1034	0.5398
237.319	0.5383
237.5347	0.5292
237.7503	0.5324
237.966	0.5331
238.1816	0.5261
238.3972	0.5442
238.6128	0.5369
238.8284	0.5289
239.0439	0.5433
239.2595	0.5335
239.475	0.5355
239.6906	0.5333
239.9061	0.5337
240.1216	0.5359
240.3371	0.5189
240.5526	0.5129
240.7681	0.5284
240.9836	0.5205
241.199	0.5075
241.4145	0.4985
241.6299	0.5097
241.8453	0.4931
242.0607	0.4857
242.2761	0.479
242.4915	0.477
242.7069	0.4638
242.9223	0.4684
243.1376	0.4577
243.353	0.4527
243.5683	0.4396
243.7836	0.4272
243.9989	0.4264
244.2142	0.4191
244.4295	0.4084
244.6448	0.3945
244.86	0.3943
245.0753	0.3883
245.2905	0.3789
245.5057	0.3756
245.721	0.3509
245.9362	0.3519
246.1514	0.3389
246.3665	0.3409
246.5817	0.3346
246.7969	0.3292
247.012	0.321
247.2271	0.3149
247.4423	0.3026
247.6574	0.3113
247.8725	0.3035
248.0876	0.2939
248.3026	0.2853
248.5177	0.2809
248.7328	0.2828
248.9478	0.2749
249.1628	0.2686
249.3779	0.2669
249.5929	0.2619
249.8079	0.2544
250.0228	0.2572
250.2378	0.2565
250.4528	0.2515
250.6677	0.241
250.8827	0.2396
251.0976	0.2435
251.3125	0.2371
251.5274	0.228
251.7423	0.2276
251.9572	0.2246
252.172	0.223
252.3869	0.2221
252.6017	0.2156
252.8166	0.2218
253.0314	0.2174
253.2462	0.2157
253.461	0.2124
253.6758	0.2059
253.8906	0.2081
254.1053	0.2021
254.3201	0.2077
254.5348	0.2036
254.7496	0.2077
254.9643	0.2023
255.179	0.1992
255.3937	0.2024
255.6083	0.1969
255.823	0.1959
256.0377	0.1969
256.2523	0.1936
256.467	0.197
256.6816	0.1975
256.8962	0.1892
257.1108	0.1988
257.3254	0.1928
257.54	0.1991
257.7545	0.1943
257.9691	0.1911
258.1836	0.1909
258.3981	0.1888
258.6127	0.1809
258.8272	0.187
259.0417	0.1791
259.2561	0.1862
259.4706	0.1861
259.6851	0.1856
259.8995	0.1804
260.114	0.1846
260.3284	0.1876
260.5428	0.1816
260.7572	0.1888
260.9716	0.1864
261.186	0.1808
261.4003	0.1835
261.6147	0.1838
261.829	0.183
262.0433	0.1827
262.2577	0.1895
262.472	0.1854
262.6863	0.1885
262.9005	0.1795
263.1148	0.1836
263.3291	0.1845
263.5433	0.1825
263.7576	0.1915
263.9718	0.1921
264.186	0.1927
264.4002	0.1804
264.6144	0.1945
264.8286	0.1874
265.0427	0.1909
265.2569	0.1868
265.471	0.1826
265.6851	0.182
265.8993	0.185
266.1134	0.1853
266.3275	0.1863
266.5415	0.1851
266.7556	0.182
266.9697	0.1878
267.1837	0.1796
267.3978	0.1934
267.6118	0.1829
267.8258	0.1848
268.0398	0.1859
268.2538	0.1862
268.4677	0.1816
268.6817	0.1806
268.8957	0.1802
269.1096	0.175
269.3235	0.1839
269.5374	0.1795
269.7514	0.1829
269.9652	0.1817
270.1791	0.1803
270.393	0.1853
270.6068	0.1722
270.8207	0.1751
271.0345	0.174
271.2483	0.175
271.4622	0.1744
271.676	0.1709
271.8897	0.176
272.1035	0.1701
272.3173	0.1733
272.531	0.1741
272.7448	0.171
272.9585	0.1753
273.1722	0.1745
273.3859	0.1687
273.5996	0.1735
273.8133	0.1706
274.0269	0.1766
274.2406	0.1735
274.4542	0.1681
274.6679	0.1716
274.8815	0.1722
275.0951	0.1774
275.3087	0.1814
275.5223	0.1711
275.7358	0.1791
275.9494	0.1769
276.1629	0.1799
276.3765	0.1742
276.59	0.1762
276.8035	0.1778
277.017	0.1853
277.2305	0.173
277.444	0.1802
277.6574	0.1757
277.8709	0.1779
278.0843	0.179
278.2978	0.1838
278.5112	0.1852
278.7246	0.1792
278.938	0.1812
279.1513	0.1806
279.3647	0.1829
279.5781	0.1806
279.7914	0.1816
280.0047	0.1786
280.2181	0.1848
280.4314	0.1811
280.6447	0.1863
280.8579	0.1792
281.0712	0.1849
281.2845	0.1827
281.4977	0.1885
281.711	0.1799
281.9242	0.1882
282.1374	0.1877
282.3506	0.186
282.5638	0.1884
282.7769	0.1879
282.9901	0.1899
283.2033	0.1819
283.4164	0.1855
283.6295	0.1846
283.8426	0.1875
284.0557	0.1831
284.2688	0.1936
284.4819	0.1945
284.695	0.192
284.908	0.1919
285.1211	0.1866
285.3341	0.1934
285.5471	0.1947
285.7601	0.1908
285.9731	0.1916
286.1861	0.1907
286.3991	0.1922
286.612	0.1942
286.825	0.1939
287.0379	0.1967
287.2508	0.191
287.4637	0.194
287.6766	0.1989
287.8895	0.1924
288.1024	0.1914
288.3152	0.1924
288.5281	0.1965
288.7409	0.1966
288.9538	0.1982
289.1666	0.1985
289.3794	0.1965
289.5922	0.1979
289.8049	0.2008
290.0177	0.2005
290.2304	0.1985
290.4432	0.1953
290.6559	0.191
290.8686	0.1978
291.0813	0.1988
291.294	0.1992
291.5067	0.2082
291.7194	0.2005
291.932	0.1988
292.1447	0.1974
292.3573	0.1989
292.5699	0.2043
292.7825	0.2019
292.9951	0.1986
293.2077	0.2034
293.4203	0.199
293.6328	0.198
293.8454	0.1989
294.0579	0.2019
294.2704	0.2035
294.4829	0.2004
294.6954	0.2003
294.9079	0.2058
295.1204	0.2024
295.3328	0.1974
295.5453	0.2007
295.7577	0.1995
295.9701	0.1955
296.1825	0.194
296.3949	0.2024
296.6073	0.2001
296.8197	0.2021
297.0321	0.2006
297.2444	0.198
297.4567	0.1964
297.6691	0.1958
297.8814	0.1972
298.0937	0.1979
298.306	0.2005
298.5182	0.206
298.7305	0.2011
298.9428	0.1932
299.155	0.1966
299.3672	0.2014
299.5794	0.196
299.7916	0.2014
300.0038	0.1937
300.216	0.2021
300.4282	0.1948
300.6403	0.1983
300.8525	0.2027
301.0646	0.1939
301.2767	0.196
301.4888	0.1931
301.7009	0.2014
301.913	0.2046
302.125	0.1994
302.3371	0.1982
302.5491	0.2031
302.7612	0.1911
302.9732	0.191
303.1852	0.1918
303.3972	0.1989
303.6092	0.1962
303.8211	0.1895
304.0331	0.1951
304.245	0.1881
304.457	0.1911
304.6689	0.1918
304.8808	0.194
305.0927	0.1893
305.3046	0.1834
305.5164	0.1839
305.7283	0.1907
305.9401	0.1807
306.152	0.1818
306.3638	0.18
306.5756	0.186
306.7874	0.1771
306.9992	0.1819
307.2109	0.1785
307.4227	0.1753
307.6344	0.1708
307.8462	0.17
308.0579	0.1628
308.2696	0.164
308.4813	0.162
308.693	0.1633
308.9046	0.1659
309.1163	0.1615
309.328	0.159
309.5396	0.154
309.7512	0.1529
309.9628	0.1527
310.1744	0.1504
310.386	0.1429
310.5976	0.1462
310.8091	0.1484
311.0207	0.1469
311.2322	0.1463
311.4437	0.1464
311.6552	0.1455
311.8667	0.1427
312.0782	0.1424
312.2897	0.1386
312.5012	0.1418
312.7126	0.1351
312.924	0.1351
313.1355	0.1309
313.3469	0.1279
313.5583	0.1311
313.7696	0.1326
313.981	0.1304
314.1924	0.1274
314.4037	0.122
314.6151	0.1258
314.8264	0.128
315.0377	0.1304
315.249	0.1161
315.4603	0.1236
315.6716	0.129
315.8828	0.1245
316.0941	0.1208
316.3053	0.119
316.5165	0.1216
316.7277	0.1262
316.9389	0.1234
317.1501	0.1183
317.3613	0.1178
317.5724	0.1208
317.7836	0.1142
317.9947	0.11
318.2058	0.1158
318.417	0.1184
318.6281	0.1178
318.8391	0.1197
319.0502	0.1162
319.2613	0.1128
319.4723	0.1167
319.6834	0.1237
319.8944	0.1233
320.1054	0.1156
320.3164	0.1198
320.5274	0.1115
320.7383	0.1156
320.9493	0.1152
321.1602	0.1179
321.3712	0.119
321.5821	0.1177
321.793	0.1183
322.0039	0.1189
322.2148	0.118
322.4257	0.1191
322.6365	0.1192
322.8474	0.1112
323.0582	0.1134
323.269	0.1166
323.4798	0.1165
323.6906	0.1198
323.9014	0.1098
324.1122	0.1138
324.3229	0.1182
324.5337	0.1213
324.7444	0.1113
324.9551	0.1206
325.1658	0.1138
325.3765	0.1209
325.5872	0.1173
325.7979	0.1177
326.0085	0.1218
326.2192	0.1151
326.4298	0.121
326.6404	0.116
326.851	0.1199
327.0616	0.1272
327.2722	0.123
327.4828	0.1178
327.6933	0.124
327.9039	0.1157
328.1144	0.1185
328.3249	0.1201
328.5354	0.1213
328.7459	0.1222
328.9564	0.1262
329.1669	0.1211
329.3773	0.1241
329.5878	0.1245
329.7982	0.1188
330.0086	0.1253
330.219	0.1265
330.4294	0.1234
330.6398	0.1299
330.8502	0.1285
331.0605	0.1231
331.2708	0.1277
331.4812	0.1244
331.6915	0.1173
331.9018	0.1237
332.1121	0.135
332.3224	0.1259
332.5326	0.1261
332.7429	0.1205
332.9531	0.1224
333.1633	0.1255
333.3735	0.1258
333.5837	0.134
333.7939	0.1233
334.0041	0.127
334.2143	0.13
334.4244	0.1244
334.6346	0.122
334.8447	0.125
335.0548	0.1279
335.2649	0.1304
335.475	0.1248
335.685	0.1187
335.8951	0.1295
336.1051	0.1274
336.3152	0.1291
336.5252	0.1271
336.7352	0.1268
336.9452	0.1297
337.1552	0.1318
337.3652	0.1257
337.5751	0.1276
337.7851	0.1309
337.995	0.1308
338.2049	0.1278
338.4148	0.1255
338.6247	0.1272
338.8346	0.1283
339.0445	0.1358
339.2543	0.1363
339.4642	0.1404
339.674	0.1348
339.8838	0.1337
340.0936	0.1299
340.3034	0.131
340.5132	0.1334
340.7229	0.143
340.9327	0.1435
341.1424	0.1368
341.3522	0.1374
341.5619	0.1386
341.7716	0.1408
341.9813	0.141
342.1909	0.1446
342.4006	0.1459
342.6102	0.1424
342.8199	0.1322
343.0295	0.1354
343.2391	0.145
343.4487	0.1489
343.6583	0.1498
343.8679	0.146
344.0774	0.142
344.287	0.1466
344.4965	0.1486
344.706	0.1518
344.9155	0.1446
345.125	0.1468
345.3345	0.1456
345.544	0.1511
345.7534	0.1439
345.9629	0.1502
346.1723	0.1451
346.3817	0.1504
346.5911	0.1532
346.8005	0.1505
347.0099	0.154
347.2193	0.1449
347.4286	0.1554
347.638	0.1541
347.8473	0.1572
348.0566	0.1617
348.2659	0.1618
348.4752	0.1571
348.6845	0.1597
348.8937	0.1648
349.103	0.1525
349.3122	0.1676
349.5214	0.1581
349.7306	0.166
349.9398	0.1627
350.149	0.1604
350.3582	0.1582
350.5674	0.1684
350.7765	0.1662
350.9856	0.1649
351.1948	0.1659
351.4039	0.1627
351.613	0.1803
351.822	0.1724
352.0311	0.1643
352.2402	0.1698
352.4492	0.168
352.6582	0.1689
352.8672	0.1685
353.0762	0.1678
353.2852	0.1713
353.4942	0.1758
353.7032	0.1694
353.9121	0.1744
354.1211	0.1746
354.33	0.1792
354.5389	0.183
354.7478	0.1836
354.9567	0.176
355.1655	0.1806
355.3744	0.1842
355.5833	0.1773
355.7921	0.1797
356.0009	0.1791
356.2097	0.185
356.4185	0.1884
356.6273	0.1849
356.8361	0.1947
357.0448	0.1948
357.2536	0.1868
357.4623	0.1874
357.671	0.1828
357.8797	0.1967
358.0884	0.1841
358.2971	0.1954
358.5057	0.1962
358.7144	0.193
358.923	0.1959
359.1316	0.1918
359.3402	0.1925
359.5488	0.2004
359.7574	0.1972
359.966	0.202
360.1746	0.1944
360.3831	0.2105
360.5916	0.2067
360.8002	0.2089
361.0087	0.212
361.2172	0.209
361.4256	0.2042
361.6341	0.2091
361.8426	0.211
362.051	0.2102
362.2594	0.2168
362.4678	0.2153
362.6762	0.2202
362.8846	0.2261
363.093	0.2199
363.3014	0.2236
363.5097	0.2179
363.718	0.2247
363.9264	0.2153
364.1347	0.2298
364.343	0.2316
364.5513	0.2236
364.7595	0.234
364.9678	0.2311
365.176	0.2312
365.3842	0.2314
365.5925	0.2236
365.8007	0.237
366.0089	0.2375
366.217	0.2329
366.4252	0.2375
366.6333	0.2322
366.8415	0.2389
367.0496	0.2386
367.2577	0.2355
367.4658	0.247
367.6739	0.2422
367.882	0.2519
368.09	0.2483
368.2981	0.2395
368.5061	0.2492
368.7141	0.2449
368.9221	0.2499
369.1301	0.2515
369.3381	0.2636
369.5461	0.2595
369.754	0.2461
369.962	0.2544
370.1699	0.2629
370.3778	0.2543
370.5857	0.2644
370.7936	0.2639
371.0015	0.2607
371.2093	0.2606
371.4172	0.273
371.625	0.2632
371.8328	0.2673
372.0406	0.2563
372.2484	0.2627
372.4562	0.2707
372.664	0.2649
372.8717	0.2689
373.0795	0.2651
373.2872	0.2631
373.4949	0.2782
373.7026	0.2754
373.9103	0.2651
374.118	0.2673
374.3256	0.2869
374.5333	0.2614
374.7409	0.2672
374.9485	0.2764
375.1561	0.2762
375.3637	0.272
375.5713	0.2824
375.7789	0.2836
375.9864	0.2828
376.194	0.2803
376.4015	0.2867
376.609	0.2852
376.8165	0.2882
377.024	0.2849
377.2315	0.2951
377.4389	0.2748
377.6464	0.3
377.8538	0.2959
378.0612	0.2792
378.2686	0.2897
378.476	0.2833
378.6834	0.2902
378.8908	0.2906
379.0981	0.2932
379.3055	0.3019
379.5128	0.2931
379.7201	0.2904
379.9274	0.2794
380.1347	0.3017
380.342	0.299
380.5492	0.2935
380.7565	0.296
380.9637	0.3004
381.1709	0.3092
381.3781	0.3099
381.5853	0.3041
381.7925	0.3084
381.9997	0.2987
382.2068	0.2977
382.4139	0.313
382.6211	0.3087
382.8282	0.3136
383.0353	0.3083
383.2424	0.3137
383.4494	0.3129
383.6565	0.3102
383.8635	0.3164
384.0706	0.3139
384.2776	0.31
384.4846	0.3122
384.6916	0.3089
384.8986	0.3153
385.1055	0.3133
385.3125	0.3039
385.5194	0.31
385.7263	0.3133
385.9333	0.3176
386.1402	0.3119
386.347	0.3096
386.5539	0.3121
386.7608	0.3283
386.9676	0.3023
387.1744	0.3095
387.3813	0.3168
387.5881	0.3098
387.7948	0.3184
388.0016	0.303
388.2084	0.3172
388.4151	0.3159
388.6219	0.3036
388.8286	0.3083
389.0353	0.3098
389.242	0.3124
389.4487	0.3058
389.6553	0.3104
389.862	0.3082
390.0686	0.3067
390.2753	0.3019
390.4819	0.3055
390.6885	0.3008
390.8951	0.3206
391.1016	0.3059
391.3082	0.2943
391.5147	0.2995
391.7213	0.3067
391.9278	0.3053
392.1343	0.296
392.3408	0.289
392.5473	0.2938
392.7537	0.2865
392.9602	0.2948
393.1666	0.292
393.373	0.2917
393.5794	0.2896
393.7858	0.292
393.9922	0.2871
394.1986	0.2883
394.4049	0.2817
394.6113	0.2911
394.8176	0.2759
395.0239	0.2772
395.2302	0.2753
395.4365	0.277
395.6428	0.2833
395.8491	0.2695
396.0553	0.2687
396.2615	0.2747
396.4678	0.2801
396.674	0.2695
396.8802	0.2758
397.0863	0.2659
397.2925	0.2675
397.4987	0.2711
397.7048	0.28
397.9109	0.2789
398.117	0.2601
398.3231	0.2795
398.5292	0.2688
398.7353	0.2641
398.9413	0.2677
399.1474	0.266
399.3534	0.2628
399.5594	0.2801
399.7654	0.2693
399.9714	0.2665
400.1774	0.2616
400.3833	0.2759
400.5893	0.2638
400.7952	0.2769
401.0011	0.2596
401.207	0.2712
401.4129	0.2746
401.6188	0.264
401.8247	0.2788
402.0305	0.2719
402.2364	0.2647
402.4422	0.2697
402.648	0.2697
402.8538	0.2683
403.0596	0.2604
403.2654	0.2662
403.4711	0.2697
403.6768	0.276
403.8826	0.2588
404.0883	0.2588
404.294	0.2739
404.4997	0.2639
404.7054	0.26
404.911	0.2619
405.1167	0.2725
405.3223	0.276
405.5279	0.27
405.7335	0.2631
405.9391	0.2569
406.1447	0.2699
406.3502	0.2706
406.5558	0.2766
406.7613	0.2681
406.9668	0.2792
407.1724	0.2681
407.3778	0.27
407.5833	0.2634
407.7888	0.2623
407.9942	0.2621
408.1997	0.2648
408.4051	0.2571
408.6105	0.2595
408.8159	0.2636
409.0213	0.2712
409.2267	0.2557
409.432	0.2689
409.6374	0.265
409.8427	0.2695
410.048	0.2613
410.2533	0.2618
410.4586	0.2689
410.6639	0.2609
410.8691	0.2778
411.0744	0.267
411.2796	0.2643
411.4848	0.2634
411.69	0.2709
411.8952	0.264
412.1004	0.2676
412.3056	0.2566
412.5107	0.2618
412.7158	0.269
412.921	0.2707
413.1261	0.2691
413.3312	0.2588
413.5362	0.2696
413.7413	0.2669
413.9464	0.2657
414.1514	0.2555
414.3564	0.2531
414.5614	0.2539
414.7664	0.2679
414.9714	0.2741
415.1764	0.2592
415.3813	0.254
415.5863	0.2558
415.7912	0.2562
415.9961	0.2707
416.201	0.2741
416.4059	0.2585
416.6108	0.2573
416.8156	0.255
417.0205	0.2565
417.2253	0.2592
417.4301	0.265
417.6349	0.2512
417.8397	0.2676
418.0445	0.2589
418.2492	0.2672
418.454	0.2588
418.6587	0.2626
418.8634	0.255
419.0681	0.2513
419.2728	0.2548
419.4775	0.2559
419.6822	0.2569
419.8868	0.2554
420.0915	0.2644
420.2961	0.2353
420.5007	0.2566
420.7053	0.2549
420.9099	0.2412
421.1144	0.2357
421.319	0.2463
421.5235	0.2481
421.728	0.2449
421.9325	0.2462
422.137	0.2458
422.3415	0.2417
422.546	0.2466
422.7504	0.2467
422.9549	0.2425
423.1593	0.2354
423.3637	0.2173
423.5681	0.2509
423.7725	0.2283
423.9769	0.2314
424.1812	0.2459
424.3856	0.2371
424.5899	0.2363
424.7942	0.2201
424.9985	0.2376
425.2028	0.2347
425.4071	0.2234
425.6113	0.2238
425.8156	0.2226
426.0198	0.2251
426.224	0.2274
426.4282	0.2338
426.6324	0.2144
426.8366	0.2255
427.0407	0.2259
427.2449	0.211
427.449	0.2188
427.6531	0.2151
427.8572	0.2164
428.0613	0.2177
428.2654	0.2135
428.4694	0.2066
428.6735	0.2078
428.8775	0.2127
429.0815	0.2082
429.2855	0.202
429.4895	0.2017
429.6935	0.1984
429.8975	0.2063
430.1014	0.1941
430.3053	0.1895
430.5093	0.1948
430.7132	0.1991
430.9171	0.188
431.1209	0.2037
431.3248	0.1872
431.5286	0.1809
431.7325	0.1971
431.9363	0.1891
432.1401	0.1771
432.3439	0.1775
432.5477	0.1765
432.7514	0.1711
432.9552	0.1763
433.1589	0.1784
433.3627	0.1759
433.5664	0.18
433.7701	0.1713
433.9737	0.1686
434.1774	0.1664
434.3811	0.1664
434.5847	0.1697
434.7883	0.1591
434.9919	0.1581
435.1955	0.1564
435.3991	0.1554
435.6027	0.1486
435.8062	0.1452
436.0098	0.1554
436.2133	0.1568
436.4168	0.1423
436.6203	0.1461
436.8238	0.1477
437.0272	0.1428
437.2307	0.139
437.4341	0.1339
437.6375	0.1374
437.841	0.1357
438.0443	0.1324
438.2477	0.1266
438.4511	0.1329
438.6545	0.1284
438.8578	0.1282
439.0611	0.1281
439.2644	0.122
439.4677	0.1134
439.671	0.1246
439.8743	0.1116
440.0775	0.1178
440.2808	0.1258
440.484	0.1047
440.6872	0.1066
440.8904	0.0957
441.0936	0.1156
441.2967	0.1049
441.4999	0.1023
441.703	0.103
441.9062	0.1073
442.1093	0.0985
442.3124	0.1026
442.5155	0.0959
442.7185	0.0785
442.9216	0.0953
443.1246	0.094
443.3276	0.0861
443.5307	0.0896
443.7337	0.0886
443.9366	0.0847
444.1396	0.0811
444.3426	0.0841
444.5455	0.0811
444.7484	0.0754
444.9513	0.0811
445.1542	0.0809
445.3571	0.0722
445.56	0.0684
445.7628	0.0664
445.9657	0.0768
446.1685	0.0708
446.3713	0.0709
446.5741	0.0579
446.7769	0.0668
446.9797	0.0636
447.1824	0.0626
447.3852	0.0543
447.5879	0.0632
447.7906	0.0652
447.9933	0.0637
448.196	0.0518
448.3986	0.054
448.6013	0.0627
448.8039	0.055
449.0066	0.0616
449.2092	0.0484
449.4118	0.0505
449.6143	0.0511
449.8169	0.0514
450.0195	0.0493
450.222	0.0477
450.4245	0.0582
450.627	0.0477
450.8295	0.048
451.032	0.0469
451.2345	0.0418
451.4369	0.047
451.6394	0.0474
451.8418	0.0432
452.0442	0.0465
452.2466	0.0368
452.449	0.0378
452.6513	0.0436
452.8537	0.0358
453.056	0.0332
453.2583	0.0349
453.4607	0.0401
453.663	0.0378
453.8652	0.0311
454.0675	0.0395
454.2697	0.0347
454.472	0.0333
454.6742	0.0287
454.8764	0.028
455.0786	0.0343
455.2808	0.0408
455.4829	0.03
455.6851	0.0189
455.8872	0.0273
456.0893	0.0316
456.2915	0.0198
456.4935	0.0211
456.6956	0.0372
456.8977	0.0296
457.0997	0.0302
457.3018	0.0316
457.5038	0.0216
457.7058	0.0203
457.9078	0.0248
458.1098	0.0223
458.3117	0.017
458.5137	0.0324
458.7156	0.028
458.9175	0.0209
459.1194	0.0213
459.3213	0.0172
459.5232	0.0093
459.725	0.021
459.9269	0.0115
460.1287	0.0092
460.3305	0.0098
460.5323	0.0195
460.7341	0.0183
460.9359	0.0174
461.1376	0.024
461.3394	0.0067
461.5411	0.0202
461.7428	0.0132
461.9445	0.0176
462.1462	0.0134
462.3479	0.013
462.5495	0.0064
462.7512	0.0111
462.9528	0.0161
463.1544	0.0096
463.356	0.0147
463.5576	0.0023
463.7592	0.007
463.9607	0.0044
464.1623	0.015
464.3638	0.0152
464.5653	0.0131
464.7668	0.0113
464.9683	0.0153
465.1697	0.0093
465.3712	0.0113
465.5726	0.0162
465.7741	0.0075
465.9755	0.0104
466.1769	0.0077
466.3782	0.0098
466.5796	0.0108
466.7809	0.0157
466.9823	0.0051
467.1836	0.0118
467.3849	0.0105
467.5862	-0.0002
467.7875	0.0047
467.9887	0.0119
468.19	0.0106
468.3912	0.0055
468.5924	0.0154
468.7936	-0.0023
468.9948	0.0082
469.196	0.0103
469.3972	0.015
469.5983	0.0024
469.7994	0.0158
470.0006	0.0024
470.2017	0.0073
470.4027	-0.0047
470.6038	-0.0021
470.8049	0.0034
471.0059	0.0107
471.2069	0.0122
471.408	0.0101
471.6089	0.011
471.8099	0.0083
472.0109	0.0006
472.2119	0.0209
472.4128	0.0099
472.6137	0.0034
472.8146	0.0059
473.0155	-0.0008
473.2164	-0.0081
473.4173	0.0089
473.6181	0.0111
473.819	-0.0007
474.0198	0.0008
474.2206	0.0026
474.4214	0.0132
474.6222	-0.0046
474.8229	0.0039
475.0237	0.0067
475.2244	0.0106
475.4251	-0.0043
475.6258	0
475.8265	0.0009
476.0272	0.0019
476.2278	0.0014
476.4285	-0.0004
476.6291	0.0113
476.8297	-0.0043
477.0303	0.0014
477.2309	0.0021
477.4315	0.0001
477.632	-0.0037
477.8326	0.0014
478.0331	-0.0006
478.2336	0.0073
478.4341	0.0004
478.6346	0.0065
478.8351	0.0077
479.0355	0.0028
479.236	0.0074
479.4364	0.0053
479.6368	0.0103
479.8372	0.0119
480.0376	0.0024
480.2379	-0.0002
480.4383	-0.0003
480.6386	0.007
480.8389	0.0082
481.0392	0.003
481.2395	0.0033
481.4398	0.0072
481.6401	0.0005
481.8403	0.0001
482.0405	0.0005
482.2408	0.0023
482.441	-0.0025
482.6411	-0.0001
482.8413	0.0003
483.0415	0.011
483.2416	0.0052
483.4417	0.0047
483.6419	0.0029
483.8419	-0.0008
484.042	-0.0038
484.2421	-0.0008
484.4422	0.0015
484.6422	0.0107
484.8422	-0.0019
485.0422	0.0007
485.2422	0.0027
485.4422	0.0006
485.6422	-0.0043
485.8421	0.0014
486.042	0.0039
486.242	0.0022
486.4419	0.0057
486.6417	0.003
486.8416	0.0022
487.0415	-0.0017
487.2413	0.0055
487.4411	0.0009
487.641	0.0058
487.8408	0.0004
488.0405	0.0051
488.2403	-0.0022
488.4401	-0.0014
488.6398	0.0026
488.8395	0.0093
489.0392	0.0095
489.2389	0.0096
489.4386	-0.0076
489.6383	0.0036
489.8379	-0.0038
490.0376	0.0117
490.2372	-0.004
490.4368	0.0017
490.6364	0.0073
490.836	0.0007
491.0355	0.0063
491.2351	0.006
491.4346	0.0027
491.6341	-0.0079
491.8336	-0.0012
492.0331	0.0016
492.2326	-0.0071
492.432	-0.0012
492.6315	-0.0078
492.8309	0.0106
493.0303	-0.0082
493.2297	0.0014
493.4291	-0.0072
493.6284	0.0034
493.8278	0.0027
494.0271	0.0058
494.2264	0.0049
494.4257	0.0006
494.625	0.0027
494.8243	0.0103
495.0236	0.0031
495.2228	-0.0037
495.422	0.0063
495.6213	0.0031
495.8205	0.0017
496.0196	-0.0006
496.2188	0.0081
496.418	-0.0053
496.6171	0.0029
496.8162	0.0029
497.0153	-0.0008
497.2144	-0.0037
497.4135	-0.0011
497.6126	-0.0038
497.8116	0.0032
498.0107	0
498.2097	0.0065
498.4087	0.0079
498.6077	0.0075
498.8067	0.0061
499.0056	0.0014
499.2046	0.0055
499.4035	0.0001
499.6024	-0.0026
499.8013	0.0045
500.0002	0.0083
500.199	0.0017
500.3979	0.003
500.5967	0.0011
500.7956	0.0089
500.9944	0.002
501.1932	0.0046
501.3919	0.0059
501.5907	0.0062
501.7895	-0.004
501.9882	0.0004
502.1869	0.0124
502.3856	-0.0026
502.5843	-0.0015
502.783	0.009
502.9816	0.0004
503.1803	0.0096
503.3789	0.0095
503.5775	0.0069
503.7761	0.0029
503.9747	-0.0047
504.1732	0.0071
504.3718	-0.0002
504.5703	-0.0032
504.7689	-0.009
504.9674	-0.001
505.1658	0.0044
505.3643	0.0044
505.5628	0.0097
505.7612	-0.0017
505.9597	0.0012
506.1581	-0.0014
506.3565	-0.0072
506.5549	0.0051
506.7532	0.0055
506.9516	0.0045
507.1499	0.0031
507.3482	0.0123
507.5465	-0.0055
507.7448	0.0054
507.9431	-0.0099
508.1414	0.0011
508.3396	0.009
508.5379	-0.0004
508.7361	0.0034
508.9343	0.0025
509.1325	0.0089
509.3306	-0.0009
509.5288	0.006
509.7269	-0.0018
509.9251	-0.0036
510.1232	-0.0086
510.3213	-0.0019
510.5193	0.002
510.7174	-0.0067
510.9154	0.0059
511.1135	-0.006
511.3115	0.0033
511.5095	0.0031
511.7075	0.002
511.9055	0.0062
512.1034	0.0067
512.3014	-0.0045
512.4993	-0.0033
512.6972	-0.0048
512.8951	0.0029
513.093	0.0006
513.2908	0.0064
513.4887	0.0099
513.6865	-0.0025
513.8844	-0.0009
514.0822	-0.0039
514.2799	0.003
514.4777	0.0107
514.6755	0.008
514.8732	-0.0014
515.0709	0.0038
515.2687	-0.0036
515.4664	-0.0059
515.664	0.0058
515.8617	0.0152
516.0594	0.0099
516.257	0.0091
516.4546	-0.0026
516.6522	-0.0027
516.8498	0.0072
517.0474	0.0005
517.2449	-0.0065
517.4425	0.0017
517.64	0.0015
517.8375	0.0049
518.035	-0.0046
518.2325	-0.005
518.43	-0.0032
518.6274	-0.0075
518.8249	-0.002
519.0223	-0.0109
519.2197	0.0001
519.4171	0.0031
519.6145	-0.0003
519.8118	-0.0028
520.0092	-0.0046
520.2065	0.0075
520.4038	0.0025
520.6011	0.0138
520.7984	0.0053
520.9956	0.0038
521.1929	-0.0071
521.3901	0.007
521.5874	-0.0011
521.7846	0.0008
521.9818	-0.0021
522.1789	0.0249
522.3761	-0.0007
522.5732	-0.007
522.7704	0.0041
522.9675	-0.0015
523.1646	0.0101
523.3617	0.0006
523.5587	-0.0031
523.7558	-0.004
523.9528	0.0079
524.1498	0.0017
524.3468	-0.0007
524.5438	-0.0059
524.7408	-0.0035
524.9378	0.0039
525.1347	0.0102
525.3316	0.0054
525.5285	-0.0012
525.7254	-0.0044
525.9223	0.0031
526.1192	0.0057
526.316	-0.0052
526.5129	0.001
526.7097	-0.0021
526.9065	0.0127
527.1033	-0.0108
527.3	-0.0063
527.4968	0.0055
527.6935	-0.0041
527.8903	0.0118
528.087	0.0009
528.2837	0.0005
528.4804	0.0075
528.677	0.0066
528.8737	0.007
529.0703	0.0086
529.2669	-0.003
529.4635	0.0064
529.6601	-0.0008
529.8567	0.0147
530.0532	0.0033
530.2498	-0.0089
530.4463	0.0084
530.6428	0.0017
530.8393	-0.0006
531.0358	-0.0009
531.2322	-0.0024
531.4287	-0.0089
531.6251	-0.0086
531.8215	0.0089
532.0179	-0.0046
532.2143	0.0097
532.4107	0.0063
532.607	-0.0003
532.8034	-0.0005
532.9997	-0.0017
533.196	0.0074
533.3923	-0
533.5886	0.0079
533.7848	-0.0108
533.9811	-0.0063
534.1773	-0.003
534.3735	0.0071
534.5697	-0.0021
534.7659	0.0071
534.9621	0.0028
535.1582	0.0033
535.3544	0.0072
535.5505	0.0044
535.7466	0.0034
535.9427	-0.005
536.1387	-0.0016
536.3348	0.0075
536.5308	0.0149
536.7269	-0.0012
536.9229	0.0084
537.1189	0.0063
537.3148	-0.0134
537.5108	-0.0032
537.7068	0.0033
537.9027	0.0071
538.0986	0.0022
538.2945	0.0046
538.4904	0.0015
538.6863	0.0173
538.8821	0.0073
539.078	-0.0067
539.2738	-0.0082
539.4696	0.0033
539.6654	0.0115
539.8611	0.0002
540.0569	-0.0004
540.2526	0.0004
540.4484	-0.005
540.6441	-0
540.8398	-0.0034
541.0355	0.0093
541.2311	0.004
541.4268	-0.0081
541.6224	0.0011
541.818	-0.001
542.0136	-0.002
542.2092	-0.0043
542.4048	0.0004
542.6003	0.0101
542.7959	0.0081
542.9914	0.003
543.1869	-0.0016
543.3824	-0.0001
543.5779	-0
543.7734	-0.0039
543.9688	0.0062
544.1642	-0.0019
544.3596	-0.0023
544.555	-0.0028
544.7504	0.0044
544.9458	0.0001
545.1411	0.0031
545.3365	0.0047
545.5318	0.0046
545.7271	0.0164
545.9224	0.0007
546.1177	0.0039
546.3129	-0.0133
546.5081	-0.0041
546.7034	0.0001
546.8986	0.0054
547.0938	-0.0009
547.289	0.0062
547.4841	-0.0002
547.6793	-0.0066
547.8744	-0.0007
548.0695	-0.0022
548.2646	-0.0083
548.4597	-0.0054
548.6548	0.0052
548.8498	-0.0006
549.0448	0.0052
549.2399	0.0008
549.4349	0.0078
549.6298	-0.0098
549.8248	-0.003
550.0198	0.0046
550.2147	-0.007
550.4096	-0.0056
550.6045	0.0024
550.7994	0.014
550.9943	0.0067
551.1892	-0.0102
551.384	0.0044
551.5788	0.0115
551.7737	0.0024
551.9685	0.0008
552.1632	0.009
552.358	-0.0068
552.5528	-0.0013
552.7475	-0.0015
552.9422	0.0012
553.1369	0.0022
553.3316	-0.0023
553.5263	0.0046
553.7209	0.0011
553.9156	0.0067
554.1102	0.003
554.3048	0.0028
554.4994	-0.0006
554.694	0.0132
554.8885	-0.0021
555.0831	0.011
555.2776	-0.0097
555.4721	-0.0132
555.6666	0.0022
555.8611	-0.0125
556.0555	0.0049
556.25	0.0031
556.4444	-0.0066
556.6388	-0.0042
556.8332	-0.0086
557.0276	0.0084
557.222	-0.0006
557.4163	0.0018
557.6107	-0.0016
557.805	-0.0033
557.9993	-0.0098
558.1936	0.016
558.3879	0.0062
558.5821	-0.0029
558.7764	0.0067
558.9706	-0.0091
559.1648	0.0037
559.359	0.0131
559.5532	-0.0091
559.7473	0.0106
559.9415	0.0015
560.1356	0.0062
560.3297	0.001
560.5238	-0
560.7179	-0.002
560.9119	0.0103
561.106	-0.0076
561.3	-0.0079
561.494	0.0002
561.688	-0.003
561.882	-0.0011
562.076	0.0092
562.2699	0.0047
562.4639	0.0061
562.6578	0.0074
562.8517	-0.0035
563.0456	0.0025
563.2395	-0.001
563.4333	0.0026
563.6272	0.0068
563.821	0.0096
564.0148	-0.0024
564.2086	0.0052
564.4024	-0.0034
564.5961	0.001
564.7899	-0.0046
564.9836	0.0099
565.1773	0.0071
565.371	0.0034
565.5647	-0.0006
565.7584	-0.0051
565.952	0.003
566.1456	0.0028
566.3393	0.0059
566.5329	-0.0025
566.7264	0.0024
566.92	-0.0011
567.1136	-0.0001
567.3071	0.0014
567.5006	-0.0045
567.6941	0.0006
567.8876	0.0034
568.0811	-0.0099
568.2745	-0.0008
568.468	0.0044
568.6614	0.0028
568.8548	-0.0035
569.0482	0.0025
569.2416	-0.0018
569.4349	0.0011
569.6283	0.0025
569.8216	0.0006
570.0149	0.0072
570.2082	-0.0067
570.4015	0.0016
570.5947	0.0012
570.788	-0.0007
570.9812	-0.0037
571.1744	-0.0034
571.3676	0.0003
571.5608	-0.0015
571.754	-0.0041
571.9471	0.0067
572.1402	0.0004
572.3333	-0.0045
572.5264	0.0069
572.7195	0.0035
572.9126	-0.0017
573.1057	0.0003
573.2987	-0.0026
573.4917	0.0005
573.6847	0.0031
573.8777	0.0009
574.0707	-0.0019
574.2636	0.0015
574.4566	0.0002
574.6495	0.0012
574.8424	-0.0003
575.0353	-0.0022
575.2281	0.0028
575.421	-0.0021
575.6138	-0.0007
575.8067	-0.0007
575.9995	-0.0013
576.1923	0.005
576.385	0.0006
576.5778	-0.0024
576.7706	0.004
576.9633	0.0025
577.156	0.0011
577.3487	0.0002
577.5414	-0.0004
577.734	-0.002
577.9267	0.0022
578.1193	-0.001
578.3119	-0.0025
578.5045	-0.0054
578.6971	-0.0047
578.8897	-0.0001
579.0822	0.0021
579.2747	-0.004
579.4673	-0.0004
579.6598	-0.002
579.8522	0.004
580.0447	-0.0031
580.2372	0.0005
580.4296	-0.0048
580.622	0.0048
580.8144	0.0026
581.0068	0.0006
581.1992	0.0023
581.3915	-0.0003
581.5839	0.0028
581.7762	0.0056
581.9685	-0.0035
582.1608	0.003
582.353	0.0004
582.5453	0.0017
582.7375	0.004
582.9298	0.0005
583.122	-0.0042
583.3142	0.0034
583.5063	-0.0026
583.6985	-0.0028
583.8906	-0.0024
584.0827	-0.0024
584.2749	0.0033
584.4669	0.0003
584.659	0.0001
584.8511	0.0019
585.0431	-0.0001
585.2352	-0.0068
585.4272	-0.0016
585.6192	0.0016
585.8111	-0.0098
586.0031	-0.0022
586.195	-0.001
586.387	0.005
586.5789	0.0042
586.7708	-0.0029
586.9627	0.004
587.1545	-0.0006
587.3464	0.0031
587.5382	-0.0007
587.73	0.0039
587.9218	0.0012
588.1136	-0.0034
588.3053	-0.0029
588.4971	0.0036
588.6888	-0.0012
588.8805	0.006
589.0722	-0.0007
589.2639	-0.003
589.4556	-0.0019
589.6472	0.0001
589.8389	-0.0005
590.0305	0.0014
590.2221	0.0006
590.4137	0.0018
590.6052	-0
590.7968	-0.0021
590.9883	-0.0025
591.1798	-0.0042
591.3713	-0.0033
591.5628	0.0028
591.7543	0.0064
591.9458	-0.003
592.1372	-0.0042
592.3286	-0.0022
592.52	0.0004
592.7114	-0.0021
592.9028	-0.0009
593.0941	0.0002
593.2855	-0.0017
593.4768	-0.0035
593.6681	-0.0024
593.8594	-0.0018
594.0506	-0.0009
594.2419	-0.0028
594.4331	-0.0009
594.6244	0.0005
594.8156	-0.0005
595.0067	-0.0004
595.1979	-0.007
595.3891	-0.0043
595.5802	-0.0063
595.7713	0.0067
595.9624	0.0019
596.1535	0.0019
596.3446	-0.0037
596.5357	-0.0056
596.7267	0.0042
596.9177	0.0008
597.1087	0.0022
597.2997	0.0019
597.4907	0.0015
597.6817	-0.0072
597.8726	0.0061
598.0635	0.0028
598.2544	-0.0093
598.4453	-0.0029
598.6362	-0.0049
598.827	0.0042
599.0179	0.0024
599.2087	-0.0012
599.3995	0.006
599.5903	0.0006
599.7811	0.0007
599.9718	0.0008
600.1626	0.0009
600.3533	0.0009
600.544	-0.002
600.7347	-0.0032
600.9254	-0.0016
601.116	0.0008
601.3067	0.0063
601.4973	0.0054
601.6879	0.0036
601.8785	0.0051
602.0691	-0.0002
602.2596	0.0002
602.4502	0.0021
602.6407	0.0095
602.8312	0.0036
603.0217	0.0059
603.2122	0.0096
603.4027	-0.0037
603.5931	-0.0023
603.7835	0.0042
603.9739	0.0056
604.1643	0.001
604.3547	0.0064
604.5451	0.0018
604.7354	-0.0063
604.9257	-0.0025
605.116	0.001
605.3063	0.0029
605.4966	0.0004
605.6869	-0.0028
605.8771	0.0006
606.0673	-0.0063
606.2575	0.005
606.4477	0.0084
606.6379	0.0003
606.8281	-0.0093
607.0182	-0.0046
607.2083	-0.0015
607.3985	0.0027
607.5885	0.0027
607.7786	0.0092
607.9687	-0.0079
608.1587	-0.0013
608.3488	-0.0036
608.5388	-0.0029
608.7288	-0.0032
608.9187	0.0085
609.1087	-0.0006
609.2986	-0.0027
609.4886	0.0097
609.6785	0.0017
609.8684	-0.0011
610.0582	-0
610.2481	-0.0012
610.4379	0.0017
610.6278	-0.0055
610.8176	-0.0066
611.0074	0.003
611.1971	-0.0008
611.3869	-0
611.5766	-0.0003
611.7664	0.0097
611.9561	-0.0026
612.1458	0.0007
612.3354	0.0082
612.5251	0.0094
612.7147	0.0071
612.9044	-0.0005
613.094	-0.0025
613.2836	-0.0043
613.4731	0.0078
613.6627	0.0024
613.8522	-0.0109
614.0417	-0.002
614.2313	-0.0058
614.4207	0.0062
614.6102	-0.0009
614.7997	-0.0079
614.9891	-0.0008
615.1785	-0.0011
615.3679	0.0027
615.5573	-0.0018
615.7467	-0.003
615.9361	-0.0018
616.1254	0.0034
616.3147	-0.0002
616.504	0.0001
616.6933	0.0028
616.8826	0.0087
617.0718	-0.0112
617.2611	-0.0056
617.4503	-0.0001
617.6395	-0.0003
617.8287	0.0011
618.0179	-0.003
618.207	0.0033
618.3961	-0.0025
618.5853	-0.0011
618.7744	0.0005
618.9634	-0.001
619.1525	0.0035
619.3416	-0.0047
619.5306	0.0103
619.7196	-0.005
619.9086	0.0081
620.0976	0.0054
620.2866	0.0089
620.4755	0.0135
620.6645	-0.0057
620.8534	-0.0019
621.0423	-0.0029
621.2312	-0.005
621.42	0.007
621.6089	-0.0005
621.7977	-0.007
621.9865	0.0058
622.1753	0.0049
622.3641	-0.0107
622.5529	-0.0073
622.7416	-0.0104
622.9303	0.0001
623.1191	-0.0056
623.3078	-0.005
623.4964	-0.0062
623.6851	0.0056
623.8737	0.0029
624.0624	-0.001
624.251	0.0033
624.4396	0.004
624.6282	0.0033
624.8167	0.0024
625.0053	0.0008
625.1938	0.0002
625.3823	0.0086
625.5708	-0.0018
625.7593	-0.0021
625.9477	-0.0029
626.1362	-0.0045
626.3246	0.0069
626.513	0.0056
626.7014	-0.0075
626.8898	0.0031
627.0781	0.0004
627.2665	0.0128
627.4548	0.0002
627.6431	-0.0072
627.8314	0.0007
628.0197	-0.0002
628.2079	-0.0028
628.3962	-0.0013
628.5844	0.011
628.7726	0.0033
628.9608	-0.0016
629.1489	0.0072
629.3371	-0.0101
629.5252	0.0168
629.7134	0.0064
629.9015	0.001
630.0895	0.0062
630.2776	-0.0105
630.4657	-0.0084
630.6537	0.002
630.8417	0.0015
631.0297	-0.0003
631.2177	-0.0039
631.4057	-0.0134
631.5936	-0.0071
631.7815	-0.0074
631.9695	0.0129
632.1574	-0.0031
632.3452	0.0052
632.5331	-0.0017
632.7209	0.0209
632.9088	-0.0056
633.0966	0.0126
633.2844	-0.0178
633.4722	0.0003
633.6599	-0.0012
633.8477	0.0037
634.0354	0.0146
634.2231	0.0176
634.4108	-0.0004
634.5985	-0.0194
634.7861	-0.0071
634.9738	0.0067
635.1614	-0.0007
635.349	-0.0157
635.5366	0.0012
635.7242	0.0022
635.9117	0.0161
636.0993	-0.0131
636.2868	-0.016
636.4743	0.0172
636.6618	0.0018
636.8492	0.0158
637.0367	0.0068
637.2241	0.0033
637.4115	0.0058
637.5989	0.0098
637.7863	-0.0054
637.9737	0.0097
638.161	0.0064
638.3484	0.0043
638.5357	-0.0049
638.723	-0.0088
638.9103	-0.0019
639.0975	0.0091
639.2848	0.0314
639.472	-0.012
639.6592	0.0098
639.8464	0.0066
640.0336	0.0015
640.2208	0.0014
640.4079	0.0137
640.595	-0.0048
640.7821	-0.0019
640.9692	0.0174
641.1563	0.0065
641.3434	0.0056
641.5304	-0.0048
641.7174	-0.0017
641.9044	-0.0007
642.0914	-0.0045
642.2784	0.0342
642.4653	-0.0023
642.6523	0.0097
642.8392	0.0163
643.0261	-0.0034
643.213	0.027
643.3999	0.0207
643.5867	-0.0008
643.7735	0.0038
643.9604	0.0031
644.1472	-0.0053
644.3339	-0.012
644.5207	0.0014
644.7075	0.0116
644.8942	0.0399
645.0809	-0.0092
645.2676	0.0107
645.4543	0.0039
645.6409	-0.0081
645.8276	0.0035
646.0142	-0.0022
646.2008	0.0076
646.3874	0.0013
646.574	-0.0205
646.7605	0.0064
646.9471	0.0058
647.1336	0.0041
647.3201	-0.008
647.5066	-0.018
647.6931	0.0229
647.8795	0.0184
648.0659	-0.0036
648.2524	-0.0102
648.4388	-0.0075
648.6252	-0.0075
648.8115	0.0192
648.9979	0.0121
649.1842	-0.0234
649.3705	-0.0027
649.5568	-0.0107
649.7431	-0.0024
649.9294	-0.0094
650.1156	0.0014
650.3018	-0.0121
650.488	0.0043
650.6742	0.0063
650.8604	0.0033
651.0466	0.0009
651.2327	-0.0184
651.4188	-0.0104
651.6049	-0.0131
651.791	0.0238
651.9771	-0.0096
652.1632	0.0006
652.3492	-0.0002
652.5352	0.0152
652.7212	0.0082
652.9072	0.0058
653.0932	0.0008
653.2791	-0.0023
653.465	-0.0221
653.651	0.0152
653.8369	0.0179
654.0227	-0.0097
654.2086	-0.0329
654.3944	-0.0222
654.5803	0.0088
654.7661	-0.0011
654.9519	-0.0032
655.1377	0
655.3234	0
655.5092	0
655.6949	0
655.8806	0
656.0663	0
656.2519	0
656.4376	0
656.6232	0
656.8088	0
656.9945	0
657.18	0
657.3656	0
657.5511	0
657.7367	0
657.9222	0
658.1077	0
658.2932	0
658.4786	0
658.6641	0
658.8495	0
659.0349	0
659.2203	0
659.4057	0.015
659.591	0.0454
659.7764	0.0101
659.9617	-0.0062
660.147	-0.0054
660.3323	-0.0011
660.5176	0.0124
660.7028	-0.0041
660.888	0.0099
661.0733	-0.0017
661.2585	0.0185
661.4436	0.0034
661.6288	-0.0056
661.8139	0.0173
661.9991	0.0083
662.1842	0.0147
662.3693	0.0015
662.5544	0.012
662.7394	0.0358
662.9245	0.0044
663.1095	0.0105
663.2945	-0.0118
663.4795	-0.01
663.6644	-0.0032
663.8494	0.0034
664.0343	-0.0017
664.2193	-0.0027
664.4042	-0.0192
664.589	-0.0091
664.7739	-0.0112
664.9587	0.0004
665.1436	-0.002
665.3284	0.0099
665.5132	0.0097
665.698	0.0019
665.8827	-0.021
666.0675	-0.0029
666.2522	0.0147
666.4369	0.0091
666.6216	0.001
666.8063	-0.0078
666.9909	-0.0055
667.1756	0.0118
667.3602	-0.0038
667.5448	0.0084
667.7294	-0.0054
667.9139	-0.0116
668.0985	-0.0204
668.283	0.0069
668.4675	-0.0043
668.652	-0.0201
668.8365	-0.0056
669.0209	-0.0161
669.2054	0.0101
669.3898	0.0041
669.5742	0.0242
669.7586	-0.0022
669.943	-0.0153
670.1273	0.0088
670.3117	0.0101
670.496	-0.0023
670.6803	0.006
670.8646	0.0034
671.0488	0.0016
671.2331	0.0262
671.4173	0.006
671.6015	0.0016
671.7857	-0.0116
671.9699	-0.0017
672.1541	0.0091
672.3382	0.001
672.5223	-0.0002
672.7064	-0.0068
672.8905	0.0045
673.0746	-0.0093
673.2587	0.0208
673.4427	-0.0093
673.6267	-0.0122
673.8107	-0.0159
673.9947	0.0172
674.1787	0.0071
674.3626	0.0042
674.5465	-0.002
674.7304	-0.0374
674.9143	0.017
675.0982	-0.0138
675.2821	0.0089
675.4659	-0.0105
675.6497	-0.0059
675.8335	-0.0064
676.0173	0.0135
676.2011	-0.0067
676.3849	-0.0124
676.5686	-0.0051
676.7523	0.0039
676.936	-0.0205
677.1197	-0.0065
677.3034	0.0149
677.487	-0.0022
677.6706	-0.0054
677.8542	0.023
678.0378	0.0035
678.2214	0.0016
678.405	-0.0021
678.5885	0.0111
678.772	0.0011
678.9555	0.0124
679.139	-0.0106
679.3225	-0.0193
679.5059	0.0021
679.6894	-0.0021
679.8728	-0.0127
680.0562	0.0193
680.2395	0.0089
680.4229	-0.0236
680.6062	-0.0094
680.7896	0.0007
680.9729	0.0195
681.1562	-0.0154
681.3394	0.0134
681.5227	-0.0194
681.7059	0.0103
681.8891	0.0092
682.0723	-0.0134
682.2555	0.0219
682.4387	0.0156
682.6218	-0.015
682.805	-0.0089
682.9881	0.011
683.1712	0.0215
683.3542	-0.0053
683.5373	0.0099
683.7203	0.0009
683.9034	0.0055
684.0864	0.005
684.2694	0.005
684.4523	-0.0122
684.6353	0.0065
684.8182	0.0113
685.0011	0.0077
685.184	0.0087
685.3669	-0.0118
685.5498	-0.0048
685.7326	-0.01
685.9154	0.0052
686.0982	0.0026
686.281	0.0028
686.4638	0.0032
686.6465	0.0006
686.8293	-0.0136
687.012	0.0008
687.1947	0.0079
687.3774	0.0054
687.56	-0.0005
687.7427	0.001
687.9253	0.0139
688.1079	-0.0015
688.2905	0.0209
688.4731	0.0348
688.6556	-0.0027
688.8382	0.0063
689.0207	-0.0116
689.2032	-0.0102
689.3857	-0.0219
689.5681	-0.0046
689.7506	0.0032
689.933	-0.0128
690.1154	-0.0223
690.2978	-0.0135
690.4802	0.0159
690.6626	-0.0043
690.8449	-0.0159
691.0272	-0.009
691.2095	-0.0069
691.3918	-0.0162
691.5741	-0.0146
691.7563	-0.0008
691.9386	-0.0013
692.1208	-0.0075
692.303	-0.0083
692.4852	-0.0055
692.6673	0.0004
692.8495	-0.0099
693.0316	-0.0066
693.2137	0.032
693.3958	0.0182
693.5778	-0.0032
693.7599	-0.0252
693.9419	-0.0021
694.1239	0.0064
694.3059	-0.0049
694.4879	-0.0208
694.6699	0.0102
694.8518	0.0032
695.0337	-0.0068
695.2157	0.019
695.3975	0.022
695.5794	-0.0153
695.7613	0.0139
695.9431	-0.0309
696.1249	0.0213
696.3067	0.0095
696.4885	0.0109
696.6703	-0.0124
696.852	-0.0034
697.0337	0.0072
697.2154	0.0047
697.3971	0.0167
697.5788	0.0204
697.7605	-0.0015
697.9421	-0.0148
698.1237	0.0035
698.3053	-0.0061
698.4869	-0.0055
698.6685	0.013
698.85	-0.0047
699.0315	-0.0007
699.213	0.0006
699.3945	0.009
699.576	-0.0119
699.7575	-0.0083
699.9389	-0.0142
700.1203	-0.0018
700.3017	-0.013
700.4831	-0.0284
700.6645	0.0129
700.8458	0.0194
701.0271	-0.0215
701.2084	-0.0507
701.3897	-0.0148
701.571	-0.0057
701.7523	-0.0164
701.9335	0.0254
702.1147	0.0095
702.2959	0.022
702.4771	0.0024
702.6583	-0.0143
702.8394	0.0009
703.0205	-0.0098
703.2016	-0.0001
703.3827	0.0154
703.5638	-0.0097
703.7449	0.0003
703.9259	-0.0012
704.1069	0.0153
704.2879	0.0231
704.4689	0.02
704.6499	-0.0327
704.8308	0.0099
705.0117	-0.0001
705.1927	0.0081
705.3735	-0.0125
705.5544	0.0008
705.7353	0.0094
705.9161	0.0271
706.0969	0.0026
706.2777	-0.0028
706.4585	-0.0044
706.6393	-0.0167
706.82	-0.0176
707.0007	-0.0126
707.1815	-0.0013
707.3621	0.0054
707.5428	0.0209
707.7235	0.0051
707.9041	-0.02
708.0847	0.0043
708.2653	-0.0038
708.4459	0.0079
708.6265	-0.0059
708.807	0.0227
708.9875	0.0032
709.168	0.0278
709.3485	0.0071
709.529	-0.0085
709.7095	0.0052
709.8899	0.0165
710.0703	0.0236
710.2507	-0.001
710.4311	-0.0092
710.6115	0.0036
710.7918	-0.0287
710.9721	-0.0192
711.1524	0.009
711.3327	-0.0288
711.513	-0.0126
711.6932	-0.027
711.8735	0.0292
712.0537	-0.0189
712.2339	0.0032
712.4141	0.0199
712.5942	0.0264
712.7744	-0.008
712.9545	0.0204
713.1346	0.0154
713.3147	0.004
713.4947	-0.0125
713.6748	-0.0014
713.8548	-0.0015
714.0348	0.0202
714.2148	-0.0105
714.3948	0.0173
714.5748	0.0024
714.7547	-0.0077
714.9346	0.0079
715.1145	-0.0018
715.2944	-0.0043
715.4743	0.0151
715.6541	-0.0179
715.834	0.0166
716.0138	0.0276
716.1936	-0.0061
716.3733	0.0164
716.5531	0.039
716.7328	-0.0525
716.9126	-0.006
717.0923	0.0308
717.2719	-0.0043
717.4516	-0.0217
717.6312	-0.0289
717.8109	0.0124
717.9905	0.0284
718.1701	-0.0169
718.3496	-0.0036
718.5292	-0.0269
718.7087	0.0161
718.8882	0.0322
719.0677	-0.0188
719.2472	0.0104
719.4267	-0.0008
719.6061	-0.0192
719.7856	-0.0061
719.965	0.0173
720.1443	-0.0134
720.3237	0.0084
720.5031	0.0168
720.6824	-0.016
720.8617	0.0086
721.041	0.0111
721.2203	0.0063
721.3995	-0.0222
721.5788	-0.0001
721.758	-0.0076
721.9372	0.0174
722.1164	0.0281
722.2956	0.0186
722.4747	-0.0058
722.6538	0.0016
722.8329	-0.0207
723.012	0.0137
723.1911	-0.0009
723.3702	-0.0203
723.5492	-0.0023
723.7282	-0.0123
723.9072	-0.0314
724.0862	-0.0155
724.2652	-0.001
724.4441	0.044
724.623	-0.0133
724.8019	0.0189
724.9808	-0.01
725.1597	-0.007
725.3385	-0.0118
725.5174	0.0307
725.6962	0.0162
725.875	0.0009
726.0538	0.0162
726.2325	0.0021
726.4112	0.001
726.59	0.0087
726.7687	0.0264
726.9474	0.014
727.126	-0.005
727.3047	-0.0074
727.4833	0.0257
727.6619	0.028
727.8405	-0.0015
728.0191	-0.0231
728.1976	-0.0165
728.3762	-0.0333
728.5547	0.005
728.7332	-0.0054
728.9116	-0.02
729.0901	0.019
729.2686	-0.0239
729.447	-0.0098
729.6254	0.0043
729.8038	-0.0106
729.9821	0.0196
730.1605	-0.0078
730.3388	0.0154
730.5171	-0.0058
730.6954	0.0134
730.8737	0.0234
731.0519	0.0027
731.2302	-0.0069
731.4084	0.0016
731.5866	-0.0199
731.7648	-0.0004
731.9429	0.0012
732.1211	-0.0031
732.2992	-0.0113
732.4773	-0.0086
732.6554	0.0084
732.8335	0.0041
733.0115	-0.0034
733.1896	-0.0135
733.3676	0.0082
733.5456	0.0055
733.7235	0.0075
733.9015	-0.0106
734.0794	-0.0038
734.2574	-0.0003
734.4353	0.0098
734.6131	0.0247
734.791	0.0326
734.9689	-0.0077
735.1467	-0.002
735.3245	0.0044
735.5023	0.0248
735.68	-0.0039
735.8578	-0.0133
736.0355	0.0046
736.2132	-0.0051
736.3909	-0.0015
736.5686	0.0016
736.7463	-0.0065
736.9239	-0.0004
737.1015	-0.0129
737.2791	-0.008
737.4567	0.0162
737.6343	-0.0008
737.8118	-0.0045
737.9894	-0.0022
738.1669	0.0146
738.3444	-0.0032
738.5218	0.0285
738.6993	-0.0008
738.8767	-0.0037
739.0541	0.0071
739.2315	-0.0076
739.4089	0.0044
739.5863	0.012
739.7636	0.0202
739.9409	0.001
740.1182	0.0035
740.2955	-0.0463
740.4728	0.0396
740.65	-0.0085
740.8272	0.0142
741.0044	-0.0052
741.1816	0.0274
741.3588	0.0192
741.5359	0.0149
741.7131	0.0477
741.8902	-0.0113
742.0673	0.0097
742.2444	-0.0066
742.4214	-0.0143
742.5985	0.0281
742.7755	-0.0118
742.9525	0.0086
743.1295	-0.0212
743.3064	-0.0044
743.4834	-0.0151
743.6603	0.0123
743.8372	0.0056
744.0141	0.0349
744.191	0.0083
744.3678	0.0259
744.5446	0.0188
744.7215	0.0032
744.8982	0.0051
745.075	0.0051
745.2518	-0.0202
745.4285	-0.0066
745.6052	0.0282
745.7819	0.0052
745.9586	0.0169
746.1353	0.006
746.3119	0.0098
746.4885	-0.0042
746.6651	-0.0399
746.8417	-0.0241
747.0183	-0.0136
747.1948	-0.0006
747.3714	0.0051
747.5479	0.0212
747.7244	-0.0342
747.9008	0.0306
748.0773	0.0106
748.2537	0.0262
748.4301	0.0171
748.6065	-0.0272
748.7829	0.0184
748.9593	-0.0077
749.1356	-0.0057
749.3119	-0.0078
749.4882	0.0069
749.6645	0.0078
749.8408	-0.0205
750.017	0.0073
750.1933	0.0135
750.3695	0.0058
750.5457	-0.0064
750.7218	-0.0059
750.898	-0.0253
751.0741	0.0191
751.2502	0.0075
751.4263	0.0038
751.6024	0.0155
751.7784	-0.0257
751.9545	-0.0144
752.1305	0.0258
752.3065	0.0288
752.4825	-0.008
752.6584	-0.0021
752.8344	0.0039
753.0103	-0.0088
753.1862	-0.0041
753.3621	-0.0134
753.5379	-0.0232
753.7138	-0.0224
753.8896	0.0227
754.0654	0.0137
754.2412	0.0286
754.417	-0.0068
754.5927	-0.0209
754.7685	-0.0319
754.9442	-0.0162
755.1199	-0.0263
755.2956	0.015
755.4712	-0.0138
755.6469	-0.0139
755.8225	0.0189
755.9981	0.012
756.1736	0.0188
756.3492	-0.0197
756.5248	-0.0197
756.7003	-0.0084
756.8758	-0.0051
757.0513	-0.0166
757.2267	-0.0067
757.4022	0.0036
757.5776	-0.0159
757.753	-0.0071
757.9284	-0.0143
758.1038	-0.0079
758.2791	-0.0197
758.4545	-0.021
758.6298	-0.0103
758.8051	-0.0099
758.9803	-0.0048
759.1556	-0.0224
759.3308	0.0009
759.506	0.0061
759.6812	-0.0102
759.8564	-0.0014
760.0316	0.0047
760.2067	-0.0231
760.3819	-0.0027
760.557	-0.0077
760.732	0.0174
760.9071	-0.0184
761.0821	-0.0151
761.2572	-0.0009
761.4322	-0.0339
761.6072	-0.0201
761.7821	0.021
761.9571	-0.0072
762.132	0.0248
762.3069	0.0007
762.4818	0.0143
762.6567	0.017
762.8316	0.0261
763.0064	-0.0084
763.1812	-0.0134
763.356	-0.0153
763.5308	-0.0168
763.7055	-0.0038
763.8803	-0.0078
764.055	0.0012
764.2297	-0.014
764.4044	-0.0153
764.579	-0.0091
764.7537	-0.0092
764.9283	-0.021
765.1029	0.0064
765.2775	-0.0253
765.4521	0.01
765.6266	-0.0257
765.8011	-0.0303
765.9756	0.004
766.1501	0.0195
766.3246	-0.0015
766.4991	-0.0119
766.6735	-0.0077
766.8479	0.0137
767.0223	0.0317
767.1967	0.0029
767.371	-0.0278
767.5454	0.0106
767.7197	-0.0123
767.894	-0.0022
768.0683	-0.0089
768.2425	-0.0094
768.4168	0.0112
768.591	-0.0019
768.7652	0.0257
768.9394	0.0235
769.1135	-0.019
769.2877	-0.0135
769.4618	-0.0014
769.6359	-0.0297
769.81	0.0096
769.984	-0.0065
770.1581	0.0203
770.3321	0.0258
770.5061	-0.0143
770.6801	0.008
770.8541	-0.0195
771.028	-0.0167
771.202	-0.0355
771.3759	-0.0017
771.5498	-0.0093
771.7236	-0.0139
771.8975	-0.0493
772.0713	0.0018
772.2451	0.0014
772.4189	0.0019
772.5927	-0.017
772.7665	0.0338
772.9402	0.0224
773.1139	0.0228
773.2876	0.0048
773.4613	-0.0152
773.635	0.0137
773.8086	-0.0127
773.9822	0.0056
774.1558	0.0011
774.3294	-0.0206
774.503	0.0117
774.6765	0.0495
774.8501	0.0301
775.0236	-0.0088
775.1971	-0.0457
775.3705	-0.0034
775.544	0.0507
775.7174	-0.0223
775.8908	0.033
776.0642	0.0127
776.2376	-0.0147
776.4109	0.0229
776.5843	0.0098
776.7576	-0.0045
776.9309	0.0132
777.1041	-0.0271
777.2774	-0.0301
777.4506	-0.0392
777.6238	-0.0242
777.797	0.0051
777.9702	0.0427
778.1434	0.014
778.3165	0.016
778.4896	-0.026
778.6627	0.0288
778.8358	-0.0007
779.0089	0.0366
779.1819	-0.0126
779.3549	0.0113
779.5279	-0.0338
779.7009	0.0153
779.8739	0.0167
780.0468	-0.0125
780.2197	-0.0528
780.3926	0.0092
780.5655	0.0267
780.7384	0.0093
780.9112	0.0048
781.0841	-0.0288
781.2569	-0.0039
781.4297	0.0126
781.6024	0.0087
781.7752	-0.0292
781.9479	0.0094
782.1206	0.0189
782.2933	0.0039
782.466	-0.0104
782.6386	0.0155
782.8113	0.0005
782.9839	0.0056
783.1565	0.0041
783.329	0.038
783.5016	-0.0253
783.6741	-0.0094
783.8466	-0.0531
784.0191	0.0313
784.1916	0.0006
784.3641	-0.0178
784.5365	0.0359
784.7089	0.0046
784.8813	0.0367
785.0537	0.0177
785.2261	-0.0301
785.3984	0.0028
785.5707	0.032
785.743	-0.0196
785.9153	0.0247
786.0876	-0.0302
786.2598	0.0093
786.432	0.0092
786.6042	0.0205
786.7764	0.0174
786.9486	0.0218
787.1207	0.0148
787.2928	-0.0249
787.4649	0.0344
787.637	0.0585
787.8091	-0.0204
787.9811	0.0069
788.1532	-0.006
788.3252	-0.0044
788.4972	-0.0169
788.6691	0.0278
788.8411	0.0077
789.013	0.0078
789.1849	0.0186
789.3568	-0.0033
789.5287	-0.0451
789.7005	0.0264
789.8723	-0.0675
790.0442	-0.0525
790.2159	0.0144
790.3877	0.0711
790.5595	0.0427
790.7312	-0.0463
790.9029	-0.023
791.0746	0.0146
791.2463	-0.0154
791.4179	-0.0245
791.5896	-0.0404
791.7612	-0.0551
791.9328	-0.0155
792.1044	-0.0359
792.2759	0.0504
792.4474	-0.0399
792.619	0.0575
792.7905	-0.0039
792.9619	0.0626
793.1334	-0.0294
793.3048	-0.015
793.4762	-0.0433
793.6476	-0.0187
793.819	-0.0267
793.9904	-0.0105
794.1617	-0.0227
794.333	-0.0424
794.5043	0.0042
794.6756	0.0357
794.8469	-0.0077
795.0181	-0.032
795.1893	-0.0297
795.3605	-0.0185
795.5317	0.0333
795.7029	0.0006
795.874	0.0212
796.0452	-0.0291
796.2163	-0.025
796.3873	0.0496
796.5584	0.0648
796.7294	-0.1458
796.9005	-0.067
797.0715	0.0299
797.2425	-0.0315
797.4134	-0.0048
797.5844	0.0775
797.7553	0.0341
797.9262	0.0097
798.0971	0.0226
798.2679	0.0231
798.4388	-0.0566
798.6096	-0.0466
798.7804	0.0221
798.9512	0.0396
799.122	0.0838
799.2927	-0.0683
799.4635	0.0174
799.6342	-0.0351
799.8049	0.0113
799.9755	-0.0209
800.1462	0.0632
800.3168	0.0041
800.4874	0.0898
800.658	-0.0266
800.8286	-0.0139
800.9991	0.0254
801.1696	-0.0136
801.3402	0.0894
801.5106	-0.036
801.6811	0.0238
801.8516	0.011
802.022	-0.0358
802.1924	-0.1627
802.3628	-0.0796
802.5332	-0.0154
802.7035	-0.0992
802.8739	-0.0322
803.0442	0.012
803.2145	-0.0235
803.3847	-0.0543
803.555	-0.0615
803.7252	-0.0004
803.8954	0.0971
804.0656	0.0088
804.2358	-0.0064
804.4059	0.1183
804.5761	0.1408
804.7462	-0.0241
804.9163	-0.0119
805.0864	-0.0551
805.2564	0.0014
805.4264	-0.0756
805.5965	0.0056
805.7665	0.0386
805.9364	-0.0206
806.1064	-0.0116
806.2763	0.0466
806.4462	-0.0109
806.6161	-0.0124
806.786	0.0173
806.9559	0.0258
807.1257	-0.0599
807.2955	0.0416
807.4653	-0.0176
807.6351	-0.0339
807.8048	-0.0396
807.9746	-0.0153
808.1443	0.0021
808.314	0.0797
808.4837	-0.033
808.6533	0.0161
808.8229	-0.0468
808.9926	-0.0237
809.1622	0.0504
809.3317	-0.0707
809.5013	0.1088
809.6708	0.0309
809.8403	0.0447
810.0098	0.1219
810.1793	0.0939
810.3488	0.1434
810.5182	0.0188
810.6876	0.0402
810.857	0.0799
811.0264	-0.0748
811.1958	0.0151
811.3651	0.0877
811.5344	-0.0272
811.7037	-0.1126
811.873	0.0933
812.0422	0.0089
812.2115	0.0159
812.3807	0.2213
812.5499	-0.0234
812.7191	0.0139
812.8882	0.0085
813.0574	-0.1405
813.2265	-0.0094
813.3956	-0.113
813.5646	0.0541
813.7337	-0.1097
813.9027	0.0381
814.0718	0.0304
814.2407	-0.0637
814.4097	-0.0207
814.5787	-0.0619
814.7476	0.0444
814.9165	-0.0067
815.0854	-0.0004
815.2543	-0.0243
815.4232	-0.1381
815.592	0.1069
815.7608	0.0077
815.9296	0.1
816.0984	-0.0298
816.2671	-0.0691
816.4359	0.1735
816.6046	0.0162
816.7733	-0.0382
816.942	0.0017
817.1106	-0.1388
817.2793	-0.1339
817.4479	-0.1391
817.6165	0.0372
817.785	0.0303
817.9536	0.0911
818.1221	0.0277
818.2906	0.1403
818.4591	0.0068
818.6276	-0.0079
818.7961	0.1431
818.9645	-0.0058
819.1329	0.2018
819.3013	0.0298
819.4697	0.1467
819.638	0.1024
819.8064	-0.0975
819.9747	-0.0867
820.143	0.1432
820.3113	0.2302
820.4795	0.0639
820.6477	-0.1068
820.816	-0.0133
820.9842	0.1013
821.1523	0.1886
821.3205	0.0367
821.4886	-0.0158
821.6567	0.0925
821.8248	0.0194
821.9929	0.0183
822.1609	0.0154
822.329	-0.1428
822.497	-0.1054
822.665	0.1306
822.833	-0.1073
823.0009	0.084
823.1688	0.0785
823.3367	-0.2112
823.5046	-0.0167
823.6725	-0.0523
823.8404	-0.0177
824.0082	-0.0008
824.176	-0.0316
824.3438	0.0489
824.5116	0.1761
824.6793	-0.0415
824.847	-0.0865
825.0147	0.2745
825.1824	0.1665
825.3501	-0.0226
825.5177	0.0636
825.6854	0.0973
825.853	0.0902
826.0206	-0.0217
826.1881	0.0366
826.3557	0.1284
826.5232	0.0112
826.6907	0.0621
826.8582	0.0906
827.0257	0.1101
827.1931	0.1332
827.3605	0.0031
827.528	0.1112
827.6953	0.0481
827.8627	-0.0441
828.03	0.0021
828.1974	0.0561
828.3647	-0.0062
828.532	0.1685
828.6992	-0.0317
828.8665	0.0225
829.0337	-0.0665
829.2009	0.1117
829.3681	0.0336
829.5352	0.3021
829.7024	-0.0723
829.8695	0.0405
830.0366	0.3417
830.2037	0.2141
830.3707	-0.0197
830.5378	0.0314
830.7048	-0.0904
830.8718	0.1974
831.0388	-0.0132
831.2057	0.3645
831.3727	-0.0236
831.5396	0.0056
831.7065	0.0426
831.8734	-0.383
832.0402	0.3566
832.2071	-0.0728
832.3739	0.0992
832.5407	-0
832.7075	0.0608
832.8742	-0
833.041	0.0279
833.2077	-0.0211
833.3744	-0.1255
833.541	-0.036
833.7077	-0.1255
833.8743	0.156
834.0409	-0.0255
834.2075	-0.0291
834.3741	-0.009
834.5407	-0.1154
834.7072	0.1025
834.8737	0.1684
835.0402	0.0941
835.2067	0.1951
835.3731	0.0477
835.5395	-0.0277
835.706	-0.1151
835.8723	0.0051
836.0387	1.0742
836.2051	0.1797
836.3714	-0.1904
836.5377	-0.0559
836.704	0.0367
836.8703	-0.1019
837.0365	0.1474
837.2027	-0.5346
837.3689	0.0681
837.5351	0.0853
837.7013	0.7462
837.8674	-1
838.0335	-0.1529
838.1997	0.1761
838.3657	-0
838.5318	-0.691
838.6978	0.3067
838.8639	-0.0369
839.0299	0.4215
839.1958	0.3528
839.3618	0.3032
839.5277	0.1171
839.6937	-0.2314
839.8596	-0.2036
840.0254	0.5565
840.1913	0.3683
840.3571	-0.1772
840.523	0.8535
840.6888	0.0549
840.8545	0.0333
841.0203	0.1193
841.186	-0.0888
841.3517	0.1716
841.5174	0.138
841.6831	0.3163
841.8488	0.554
842.0144	0.3029
842.18	-0.0401
842.3456	0.2177
842.5112	-0.4154
842.6767	-0.3765
842.8422	0.2444
843.0077	-0.1128
843.1732	-0.1322
843.3387	-0.3824
843.5042	1.3586
843.6696	-0
843.835	0.8416
844.0004	-0.2037
844.1657	0.0995
844.3311	0.5441
844.4964	0.3267
844.6617	-0.0884
844.827	0.5278
844.9923	-0.1435
845.1575	-0
845.3227	-0.2355
845.4879	0.2846
845.6531	-0.301
845.8183	-0.0019
845.9834	-0.2449
846.1485	-0.4128
846.3136	0.2071
846.4787	0.587
846.6438	0.3753
846.8088	-1.3729
846.9738	0.695
847.1388	0.5911
847.3038	-0.1599
847.4687	-0
847.6337	-0.0498
847.7986	0.237
847.9635	0.1646
848.1284	-0.3266
848.2932	-0.1228
848.458	0.0577
848.6228	-0
848.7876	0.1427
848.9524	-0.0458
849.1172	0.2486
849.2819	-0.2449
849.4466	0.1234
849.6113	-0
849.7759	1.7818
849.9406	-0.1511
850.1052	-0
850.2698	-0
850.4344	-0
850.599	-0
850.7635	-0
850.928	-0.0357
851.0925	0.0343
851.257	-0.428
851.4215	-0
851.5859	0.2726
851.7503	-0
851.9147	-0
852.0791	-0.0792
852.2434	-0.1004
852.4078	-0
852.5721	-0.149
852.7364	-0.1241
852.9007	-0.1809
853.0649	0.3101
853.2291	0.3935
853.3934	0.1616
853.5575	0.4168
853.7217	-0.0909
853.8859	0.0596
854.05	-0.9916
854.2141	-0
854.3782	-0
854.5423	-0.2648
854.7063	-0.1054
854.8703	0.1691
855.0343	-0.0015
855.1983	-0.177
855.3623	-0.0884
855.5262	-0.0928
855.6901	0.2768
855.854	-0.2245
856.0179	-0
856.1818	-0.2139
856.3456	0.5253
856.5094	-0
856.6732	-0.6095
856.837	0.3084
857.0008	-0
857.1645	-0.361
857.3282	0.0895
857.4919	-0.1446
857.6556	-0
857.8192	-0.3939
857.9828	-0.1905
858.1465	0.7659
858.31	-1.368
858.4736	0.0034
858.6372	-0.0678
858.8007	-1.4641
858.9642	0.3387
859.1277	-0
859.2911	-0.0248
859.4546	0.6335
859.618	-0.2854
859.7814	-0
859.9448	-0
860.1081	1.0607
860.2715	-0.216
860.4348	-0.0913
860.5981	-0.4901
860.7614	0.7993
860.9246	-0.2608
861.0879	-0.5042
861.2511	-0
861.4143	-0
861.5774	0.4462
861.7406	-0.301
861.9037	-0.185
862.0668	-0.4357
862.2299	-2.2878
862.393	-0
862.556	-0.2389
862.7191	0.0958
862.8821	-0.2709
863.0451	0.1294
863.208	-0.3445
863.371	0.0398
863.5339	-0.1676
863.6968	-0.3512
863.8597	-0
864.0225	-0
864.1854	0.2196
864.3482	-0
864.511	-0.1984
864.6737	-0
864.8365	0.218
864.9992	-0.5064
865.1619	-0
865.3246	0.1652
865.4873	-0.4658
865.65	-0
865.8126	-0
865.9752	0.3054
866.1378	-0.7782
866.3004	-0.0816
866.4629	-0.2174
866.6254	-0
866.7879	0.3764
866.9504	0.4624
867.1129	0.4986
867.2753	-0.0691
867.4377	2.1222
867.6001	0.3344
867.7625	-0.112
867.9249	0.3297
868.0872	0.0883
868.2495	-0
868.4118	-0
868.5741	-0
868.7363	-0
868.8986	-0.3578
869.0608	0.5614
869.223	-0.0388
869.3851	-0
869.5473	-1.4223
869.7094	0.1139
869.8715	-0
870.0336	-0.017
870.1957	-0.9317
870.3577	0.0947
870.5197	0.4072
870.6817	-0
870.8437	0.1626
871.0057	-0
871.1676	0.1245
871.3295	0.3545
871.4914	0.355
871.6533	0.6303
871.8151	-0
871.977	0.9598
872.1388	-0.7553
872.3006	-0.1219
872.4623	-0.1642
872.6241	-1.5798
872.7858	0.2361
872.9475	-0.704
873.1092	-0
873.2709	-0
873.4325	-0
873.5941	-0
873.7557	-0
873.9173	-0.1845
874.0789	0.2603
874.2404	-0.1212
874.4019	-0.0021
874.5634	0.8275
874.7249	-0
874.8863	-0.7613
875.0478	-0.1291
875.2092	0.3048
875.3706	-0.1743
875.5319	-0
875.6933	0.6619
875.8546	-0.4187
876.0159	-0.2152
876.1772	-0
876.3385	0.2361
876.4997	0.3093
876.6609	-0.1845
876.8221	0.0694
876.9833	-0.054
877.1445	0.2884
877.3056	-0
877.4667	-0
877.6278	-0
877.7889	-0
877.9499	-0.2102
878.111	0.1945
878.272	-0
878.433	-0
878.5939	0.1563
878.7549	-0.0792
878.9158	-0.3882
879.0767	0.4349
879.2376	-0.0792
879.3984	-0
879.5593	0.5661
879.7201	0.0438
879.8809	1.5378
880.0417	0.1761
880.2024	0.0858
880.3632	-0.1228
880.5239	0.2233
880.6846	-0.423
880.8452	0.5036
881.0059	-0
881.1665	0.7285
881.3271	0.0987
881.4877	0.6532
881.6483	-1.7104
881.8088	0.0149
881.9693	1.1823
882.1298	1.1823
882.2903	1.1823
