Data from D4ACN5uM480nmA_Absorbance_12-07-59-875.txt Node
Date: Fri Feb 21 12:07:59 GMT 2025
User: LASERRRRR
Spectrometer: FLMT03099
Trigger mode: 0
Integration Time (sec): 1.500000E-2
Scans to average: 1
Electric dark correction enabled: true
Nonlinearity correction enabled: false
Boxcar width: 0
XAxis mode: Wavelengths
Number of Pixels in Spectrum: 3648
>>>>>Begin Spectral Data<<<<<
179.3399	0.3553
179.5586	0.3553
179.7771	0.3553
179.9957	0.2538
180.2143	0.6047
180.4329	0.2553
180.6514	-0
180.8699	-0.4161
181.0885	-0.1194
181.307	-0.0507
181.5255	0.0786
181.744	-0
181.9625	0.6041
182.181	1.0827
182.3994	-0
182.6179	-0.8607
182.8363	-0
183.0547	-0
183.2732	0.0444
183.4916	0.3568
183.71	0.1516
183.9284	0.2249
184.1467	0.2189
184.3651	0.2144
184.5835	0.1757
184.8018	0.3242
185.0201	0.347
185.2385	0.0281
185.4568	0.2502
185.6751	0.0809
185.8934	0.3503
186.1117	0.206
186.3299	0.3718
186.5482	0.2422
186.7664	0.5676
186.9847	0.2072
187.2029	0.2534
187.4211	0.1354
187.6393	0.53
187.8575	0.2087
188.0757	0.6276
188.2939	0.2456
188.512	0.1845
188.7302	0.3279
188.9483	0.2057
189.1665	0.5561
189.3846	0.3994
189.6027	0.3159
189.8208	0.3395
190.0389	0.1402
190.257	0.6638
190.475	0.3621
190.6931	0.4547
190.9111	0.3658
191.1292	0.148
191.3472	0.1382
191.5652	0.6311
191.7832	0.352
192.0012	0.2673
192.2192	0.1916
192.4371	0.1937
192.6551	0.2993
192.873	0.3773
193.091	0.3853
193.3089	0.152
193.5268	0.4682
193.7447	0.4813
193.9626	0.4555
194.1805	0.4652
194.3984	0.3774
194.6162	0.4106
194.8341	0.7777
195.0519	0.5619
195.2697	0.5105
195.4875	0.7399
195.7054	0.5193
195.9231	0.5921
196.1409	0.5776
196.3587	0.4434
196.5765	0.6701
196.7942	0.7155
197.012	0.7779
197.2297	0.5094
197.4474	0.7732
197.6651	0.7563
197.8828	0.7855
198.1005	0.7078
198.3182	0.5711
198.5358	0.553
198.7535	0.6185
198.9711	0.6923
199.1888	0.5786
199.4064	0.6163
199.624	0.6782
199.8416	0.549
200.0592	0.6651
200.2767	0.5619
200.4943	0.7072
200.7119	0.5769
200.9294	0.5689
201.1469	0.5732
201.3645	0.5623
201.582	0.546
201.7995	0.6246
202.017	0.6197
202.2344	0.5461
202.4519	0.5629
202.6694	0.5604
202.8868	0.5571
203.1042	0.5531
203.3217	0.4924
203.5391	0.5361
203.7565	0.4943
203.9739	0.504
204.1913	0.5354
204.4086	0.5638
204.626	0.5235
204.8433	0.5198
205.0607	0.5294
205.278	0.5461
205.4953	0.4965
205.7126	0.5176
205.9299	0.4826
206.1472	0.5535
206.3644	0.4549
206.5817	0.4974
206.7989	0.5025
207.0162	0.4162
207.2334	0.4468
207.4506	0.46
207.6678	0.4218
207.885	0.4498
208.1022	0.4393
208.3194	0.4457
208.5365	0.4503
208.7537	0.4207
208.9708	0.465
209.1879	0.4348
209.405	0.4182
209.6222	0.4197
209.8392	0.4603
210.0563	0.4206
210.2734	0.4208
210.4905	0.4606
210.7075	0.4388
210.9245	0.4298
211.1416	0.4318
211.3586	0.406
211.5756	0.4663
211.7926	0.4063
212.0096	0.3791
212.2265	0.423
212.4435	0.4313
212.6604	0.4333
212.8774	0.423
213.0943	0.4318
213.3112	0.4179
213.5281	0.4141
213.745	0.4126
213.9619	0.3623
214.1788	0.409
214.3956	0.4161
214.6125	0.4023
214.8293	0.4193
215.0461	0.4214
215.2629	0.4094
215.4798	0.4069
215.6965	0.3909
215.9133	0.4255
216.1301	0.4081
216.3469	0.4146
216.5636	0.4104
216.7803	0.4173
216.9971	0.4328
217.2138	0.4157
217.4305	0.4257
217.6472	0.4221
217.8639	0.3931
218.0805	0.4086
218.2972	0.4026
218.5138	0.4316
218.7305	0.4251
218.9471	0.4203
219.1637	0.4075
219.3803	0.4422
219.5969	0.4262
219.8135	0.4295
220.0301	0.4167
220.2466	0.436
220.4632	0.4233
220.6797	0.447
220.8962	0.4324
221.1127	0.424
221.3292	0.4274
221.5457	0.4229
221.7622	0.4356
221.9787	0.4506
222.1951	0.4345
222.4116	0.4403
222.628	0.4395
222.8444	0.4347
223.0608	0.4361
223.2772	0.4561
223.4936	0.4505
223.71	0.4522
223.9264	0.4504
224.1427	0.4567
224.3591	0.4478
224.5754	0.4577
224.7917	0.4655
225.008	0.4485
225.2243	0.4697
225.4406	0.4731
225.6569	0.4614
225.8732	0.4678
226.0894	0.4693
226.3057	0.4718
226.5219	0.4615
226.7381	0.4903
226.9543	0.4871
227.1705	0.4803
227.3867	0.4869
227.6029	0.4775
227.8191	0.4909
228.0352	0.4919
228.2513	0.4966
228.4675	0.488
228.6836	0.4927
228.8997	0.4996
229.1158	0.4879
229.3319	0.5034
229.548	0.4819
229.764	0.5023
229.9801	0.5051
230.1961	0.514
230.4121	0.5125
230.6282	0.4937
230.8442	0.5141
231.0602	0.5164
231.2761	0.5179
231.4921	0.5213
231.7081	0.5265
231.924	0.5152
232.14	0.524
232.3559	0.5357
232.5718	0.5236
232.7877	0.5357
233.0036	0.5334
233.2195	0.5278
233.4353	0.5413
233.6512	0.5456
233.867	0.5396
234.0829	0.5392
234.2987	0.5317
234.5145	0.5439
234.7303	0.5293
234.9461	0.5248
235.1619	0.5379
235.3776	0.5246
235.5934	0.5251
235.8091	0.5303
236.0249	0.5357
236.2406	0.538
236.4563	0.5474
236.672	0.5446
236.8877	0.5455
237.1034	0.5349
237.319	0.5318
237.5347	0.5262
237.7503	0.5422
237.966	0.5388
238.1816	0.5361
238.3972	0.5367
238.6128	0.5411
238.8284	0.5359
239.0439	0.5439
239.2595	0.5399
239.475	0.5426
239.6906	0.5325
239.9061	0.5292
240.1216	0.5272
240.3371	0.5197
240.5526	0.5257
240.7681	0.5277
240.9836	0.5158
241.199	0.5106
241.4145	0.4962
241.6299	0.4924
241.8453	0.4929
242.0607	0.4858
242.2761	0.4799
242.4915	0.4718
242.7069	0.4698
242.9223	0.4659
243.1376	0.4481
243.353	0.4398
243.5683	0.4456
243.7836	0.4297
243.9989	0.4234
244.2142	0.4048
244.4295	0.4045
244.6448	0.3999
244.86	0.3954
245.0753	0.3839
245.2905	0.3816
245.5057	0.3731
245.721	0.3631
245.9362	0.35
246.1514	0.3364
246.3665	0.3394
246.5817	0.3437
246.7969	0.3261
247.012	0.3175
247.2271	0.312
247.4423	0.3088
247.6574	0.3093
247.8725	0.3058
248.0876	0.286
248.3026	0.2901
248.5177	0.2827
248.7328	0.2779
248.9478	0.2714
249.1628	0.2633
249.3779	0.2684
249.5929	0.2533
249.8079	0.2595
250.0228	0.2579
250.2378	0.2512
250.4528	0.2473
250.6677	0.2435
250.8827	0.24
251.0976	0.2431
251.3125	0.2358
251.5274	0.2338
251.7423	0.2328
251.9572	0.2242
252.172	0.2253
252.3869	0.2169
252.6017	0.2196
252.8166	0.2171
253.0314	0.2227
253.2462	0.2198
253.461	0.2054
253.6758	0.2131
253.8906	0.2085
254.1053	0.2056
254.3201	0.1999
254.5348	0.2052
254.7496	0.2001
254.9643	0.2033
255.179	0.2041
255.3937	0.1964
255.6083	0.199
255.823	0.2049
256.0377	0.2006
256.2523	0.1989
256.467	0.201
256.6816	0.1951
256.8962	0.1968
257.1108	0.1955
257.3254	0.2004
257.54	0.1917
257.7545	0.1978
257.9691	0.1942
258.1836	0.1953
258.3981	0.1906
258.6127	0.1834
258.8272	0.1898
259.0417	0.1834
259.2561	0.1914
259.4706	0.1881
259.6851	0.182
259.8995	0.1806
260.114	0.1903
260.3284	0.1853
260.5428	0.1857
260.7572	0.1869
260.9716	0.1821
261.186	0.1846
261.4003	0.1896
261.6147	0.1813
261.829	0.1842
262.0433	0.181
262.2577	0.1854
262.472	0.1817
262.6863	0.1841
262.9005	0.1889
263.1148	0.1837
263.3291	0.1899
263.5433	0.1838
263.7576	0.1823
263.9718	0.1844
264.186	0.1892
264.4002	0.1829
264.6144	0.189
264.8286	0.1919
265.0427	0.1918
265.2569	0.1848
265.471	0.1808
265.6851	0.1799
265.8993	0.1832
266.1134	0.1862
266.3275	0.1819
266.5415	0.1852
266.7556	0.1837
266.9697	0.188
267.1837	0.1868
267.3978	0.1908
267.6118	0.1832
267.8258	0.1847
268.0398	0.1841
268.2538	0.1824
268.4677	0.1822
268.6817	0.177
268.8957	0.1834
269.1096	0.1718
269.3235	0.1866
269.5374	0.1746
269.7514	0.1844
269.9652	0.181
270.1791	0.1838
270.393	0.1782
270.6068	0.17
270.8207	0.173
271.0345	0.1742
271.2483	0.18
271.4622	0.174
271.676	0.1704
271.8897	0.1693
272.1035	0.1742
272.3173	0.1752
272.531	0.1766
272.7448	0.1696
272.9585	0.1779
273.1722	0.1712
273.3859	0.1696
273.5996	0.1694
273.8133	0.1677
274.0269	0.1779
274.2406	0.1756
274.4542	0.1698
274.6679	0.165
274.8815	0.1713
275.0951	0.174
275.3087	0.1756
275.5223	0.1706
275.7358	0.1784
275.9494	0.1706
276.1629	0.1737
276.3765	0.1686
276.59	0.1772
276.8035	0.1763
277.017	0.1796
277.2305	0.1773
277.444	0.1724
277.6574	0.1827
277.8709	0.1766
278.0843	0.1817
278.2978	0.181
278.5112	0.1792
278.7246	0.1759
278.938	0.1797
279.1513	0.1813
279.3647	0.1799
279.5781	0.1773
279.7914	0.1872
280.0047	0.1807
280.2181	0.1788
280.4314	0.1829
280.6447	0.1861
280.8579	0.1801
281.0712	0.1813
281.2845	0.1818
281.4977	0.1919
281.711	0.1808
281.9242	0.1843
282.1374	0.1822
282.3506	0.1859
282.5638	0.1888
282.7769	0.1872
282.9901	0.1834
283.2033	0.1887
283.4164	0.1913
283.6295	0.1852
283.8426	0.1855
284.0557	0.1888
284.2688	0.1932
284.4819	0.1907
284.695	0.1935
284.908	0.1939
285.1211	0.1888
285.3341	0.1973
285.5471	0.1945
285.7601	0.1876
285.9731	0.1936
286.1861	0.1912
286.3991	0.1899
286.612	0.1933
286.825	0.1982
287.0379	0.2009
287.2508	0.1943
287.4637	0.1997
287.6766	0.1991
287.8895	0.1949
288.1024	0.199
288.3152	0.1951
288.5281	0.2027
288.7409	0.1979
288.9538	0.1932
289.1666	0.2025
289.3794	0.2065
289.5922	0.2015
289.8049	0.2007
290.0177	0.2036
290.2304	0.2054
290.4432	0.2065
290.6559	0.1879
290.8686	0.2057
291.0813	0.2007
291.294	0.2025
291.5067	0.2012
291.7194	0.1987
291.932	0.1998
292.1447	0.1981
292.3573	0.1999
292.5699	0.1994
292.7825	0.2018
292.9951	0.1991
293.2077	0.2032
293.4203	0.2035
293.6328	0.1944
293.8454	0.2021
294.0579	0.201
294.2704	0.2055
294.4829	0.2018
294.6954	0.2008
294.9079	0.2011
295.1204	0.2041
295.3328	0.2019
295.5453	0.1972
295.7577	0.195
295.9701	0.202
296.1825	0.1997
296.3949	0.2052
296.6073	0.1993
296.8197	0.1982
297.0321	0.1989
297.2444	0.1959
297.4567	0.1979
297.6691	0.1996
297.8814	0.1966
298.0937	0.2045
298.306	0.195
298.5182	0.2023
298.7305	0.1978
298.9428	0.1939
299.155	0.198
299.3672	0.1994
299.5794	0.1975
299.7916	0.2013
300.0038	0.1982
300.216	0.1982
300.4282	0.197
300.6403	0.1958
300.8525	0.2051
301.0646	0.1963
301.2767	0.2016
301.4888	0.1993
301.7009	0.2013
301.913	0.2067
302.125	0.2
302.3371	0.1994
302.5491	0.1996
302.7612	0.1934
302.9732	0.194
303.1852	0.1972
303.3972	0.1962
303.6092	0.1936
303.8211	0.1934
304.0331	0.1892
304.245	0.1933
304.457	0.1982
304.6689	0.1938
304.8808	0.1923
305.0927	0.1892
305.3046	0.186
305.5164	0.1846
305.7283	0.1879
305.9401	0.1797
306.152	0.1816
306.3638	0.1763
306.5756	0.1858
306.7874	0.182
306.9992	0.1817
307.2109	0.1745
307.4227	0.1719
307.6344	0.1787
307.8462	0.1737
308.0579	0.1702
308.2696	0.1647
308.4813	0.1653
308.693	0.1658
308.9046	0.1629
309.1163	0.1629
309.328	0.1526
309.5396	0.1606
309.7512	0.1534
309.9628	0.1538
310.1744	0.1553
310.386	0.1487
310.5976	0.1498
310.8091	0.1509
311.0207	0.1467
311.2322	0.1524
311.4437	0.1473
311.6552	0.1474
311.8667	0.1439
312.0782	0.1429
312.2897	0.1381
312.5012	0.1411
312.7126	0.1296
312.924	0.1366
313.1355	0.136
313.3469	0.1305
313.5583	0.1371
313.7696	0.1302
313.981	0.1264
314.1924	0.1314
314.4037	0.1211
314.6151	0.1228
314.8264	0.129
315.0377	0.1323
315.249	0.1227
315.4603	0.123
315.6716	0.1251
315.8828	0.1236
316.0941	0.1174
316.3053	0.1208
316.5165	0.1189
316.7277	0.1198
316.9389	0.1186
317.1501	0.1185
317.3613	0.1188
317.5724	0.1195
317.7836	0.1216
317.9947	0.114
318.2058	0.1166
318.417	0.1114
318.6281	0.1219
318.8391	0.1176
319.0502	0.121
319.2613	0.117
319.4723	0.1138
319.6834	0.1169
319.8944	0.1162
320.1054	0.1193
320.3164	0.1205
320.5274	0.1114
320.7383	0.1161
320.9493	0.1163
321.1602	0.1148
321.3712	0.1232
321.5821	0.122
321.793	0.1165
322.0039	0.1141
322.2148	0.1194
322.4257	0.1157
322.6365	0.1222
322.8474	0.1161
323.0582	0.1223
323.269	0.117
323.4798	0.1102
323.6906	0.1258
323.9014	0.1129
324.1122	0.1147
324.3229	0.1218
324.5337	0.119
324.7444	0.1139
324.9551	0.1232
325.1658	0.1171
325.3765	0.1187
325.5872	0.1165
325.7979	0.1189
326.0085	0.1178
326.2192	0.1198
326.4298	0.1242
326.6404	0.118
326.851	0.1222
327.0616	0.1211
327.2722	0.1265
327.4828	0.1187
327.6933	0.1177
327.9039	0.1186
328.1144	0.121
328.3249	0.1239
328.5354	0.114
328.7459	0.1199
328.9564	0.1235
329.1669	0.1193
329.3773	0.1233
329.5878	0.1249
329.7982	0.1218
330.0086	0.1209
330.219	0.1206
330.4294	0.1294
330.6398	0.1272
330.8502	0.1232
331.0605	0.12
331.2708	0.1232
331.4812	0.1269
331.6915	0.1237
331.9018	0.1181
332.1121	0.1209
332.3224	0.1234
332.5326	0.1267
332.7429	0.1245
332.9531	0.1297
333.1633	0.1239
333.3735	0.1211
333.5837	0.1264
333.7939	0.1229
334.0041	0.1202
334.2143	0.1265
334.4244	0.1201
334.6346	0.1273
334.8447	0.1263
335.0548	0.1315
335.2649	0.1324
335.475	0.1264
335.685	0.1251
335.8951	0.1303
336.1051	0.1339
336.3152	0.1236
336.5252	0.1314
336.7352	0.1237
336.9452	0.1291
337.1552	0.1279
337.3652	0.1266
337.5751	0.1247
337.7851	0.1229
337.995	0.1344
338.2049	0.135
338.4148	0.1305
338.6247	0.1321
338.8346	0.1286
339.0445	0.1318
339.2543	0.1309
339.4642	0.1351
339.674	0.1371
339.8838	0.1317
340.0936	0.1339
340.3034	0.1319
340.5132	0.1329
340.7229	0.1353
340.9327	0.1406
341.1424	0.1348
341.3522	0.1345
341.5619	0.1354
341.7716	0.1385
341.9813	0.1411
342.1909	0.1389
342.4006	0.1433
342.6102	0.1402
342.8199	0.1365
343.0295	0.142
343.2391	0.1405
343.4487	0.145
343.6583	0.1456
343.8679	0.1379
344.0774	0.1407
344.287	0.1436
344.4965	0.1488
344.706	0.1442
344.9155	0.1421
345.125	0.1461
345.3345	0.1421
345.544	0.1492
345.7534	0.146
345.9629	0.1466
346.1723	0.151
346.3817	0.1479
346.5911	0.1554
346.8005	0.1479
347.0099	0.154
347.2193	0.1506
347.4286	0.1568
347.638	0.1496
347.8473	0.1556
348.0566	0.1583
348.2659	0.1599
348.4752	0.1554
348.6845	0.1582
348.8937	0.165
349.103	0.1573
349.3122	0.1615
349.5214	0.153
349.7306	0.1526
349.9398	0.1608
350.149	0.1618
350.3582	0.1579
350.5674	0.1654
350.7765	0.1643
350.9856	0.1637
351.1948	0.1668
351.4039	0.1656
351.613	0.1797
351.822	0.1686
352.0311	0.1633
352.2402	0.1675
352.4492	0.1659
352.6582	0.1672
352.8672	0.169
353.0762	0.1656
353.2852	0.1731
353.4942	0.1758
353.7032	0.1767
353.9121	0.176
354.1211	0.1736
354.33	0.1841
354.5389	0.1787
354.7478	0.1697
354.9567	0.1815
355.1655	0.1835
355.3744	0.1797
355.5833	0.1782
355.7921	0.1837
356.0009	0.1777
356.2097	0.1922
356.4185	0.1915
356.6273	0.1902
356.8361	0.1924
357.0448	0.1871
357.2536	0.1875
357.4623	0.1848
357.671	0.1867
357.8797	0.1937
358.0884	0.1844
358.2971	0.1973
358.5057	0.1925
358.7144	0.1984
358.923	0.1927
359.1316	0.1929
359.3402	0.1995
359.5488	0.2002
359.7574	0.1967
359.966	0.2041
360.1746	0.2002
360.3831	0.2052
360.5916	0.2053
360.8002	0.2108
361.0087	0.2138
361.2172	0.2143
361.4256	0.1999
361.6341	0.2226
361.8426	0.2174
362.051	0.2115
362.2594	0.2213
362.4678	0.2188
362.6762	0.2202
362.8846	0.2256
363.093	0.2186
363.3014	0.2258
363.5097	0.2155
363.718	0.2232
363.9264	0.2289
364.1347	0.2295
364.343	0.2316
364.5513	0.2264
364.7595	0.2329
364.9678	0.2222
365.176	0.2302
365.3842	0.2371
365.5925	0.2279
365.8007	0.2329
366.0089	0.2395
366.217	0.2431
366.4252	0.2361
366.6333	0.2382
366.8415	0.2372
367.0496	0.2385
367.2577	0.2492
367.4658	0.2467
367.6739	0.2476
367.882	0.2465
368.09	0.2447
368.2981	0.2458
368.5061	0.2459
368.7141	0.2461
368.9221	0.2505
369.1301	0.2579
369.3381	0.2526
369.5461	0.2628
369.754	0.2531
369.962	0.2566
370.1699	0.253
370.3778	0.2632
370.5857	0.2536
370.7936	0.2644
371.0015	0.2586
371.2093	0.2693
371.4172	0.2574
371.625	0.2633
371.8328	0.2701
372.0406	0.2631
372.2484	0.2651
372.4562	0.2611
372.664	0.2741
372.8717	0.2636
373.0795	0.2737
373.2872	0.2716
373.4949	0.2727
373.7026	0.2804
373.9103	0.2659
374.118	0.2744
374.3256	0.289
374.5333	0.27
374.7409	0.2704
374.9485	0.2726
375.1561	0.2788
375.3637	0.272
375.5713	0.2741
375.7789	0.2782
375.9864	0.2839
376.194	0.2838
376.4015	0.2835
376.609	0.2814
376.8165	0.2965
377.024	0.2819
377.2315	0.2937
377.4389	0.2726
377.6464	0.295
377.8538	0.2923
378.0612	0.2806
378.2686	0.3025
378.476	0.2855
378.6834	0.2828
378.8908	0.2898
379.0981	0.2984
379.3055	0.3016
379.5128	0.2988
379.7201	0.285
379.9274	0.2931
380.1347	0.2993
380.342	0.3015
380.5492	0.2875
380.7565	0.3075
380.9637	0.2945
381.1709	0.2936
381.3781	0.3041
381.5853	0.3015
381.7925	0.3041
381.9997	0.3091
382.2068	0.3031
382.4139	0.3014
382.6211	0.3134
382.8282	0.308
383.0353	0.2983
383.2424	0.3094
383.4494	0.3116
383.6565	0.3154
383.8635	0.3275
384.0706	0.3119
384.2776	0.3151
384.4846	0.3156
384.6916	0.3115
384.8986	0.3131
385.1055	0.3204
385.3125	0.3181
385.5194	0.3093
385.7263	0.3143
385.9333	0.3164
386.1402	0.3206
386.347	0.3188
386.5539	0.3229
386.7608	0.316
386.9676	0.3136
387.1744	0.315
387.3813	0.3163
387.5881	0.3237
387.7948	0.3113
388.0016	0.3105
388.2084	0.3174
388.4151	0.3079
388.6219	0.313
388.8286	0.31
389.0353	0.3063
389.242	0.3185
389.4487	0.3103
389.6553	0.31
389.862	0.3129
390.0686	0.3094
390.2753	0.3011
390.4819	0.3093
390.6885	0.3015
390.8951	0.3139
391.1016	0.3099
391.3082	0.2939
391.5147	0.2896
391.7213	0.2994
391.9278	0.3022
392.1343	0.3052
392.3408	0.2951
392.5473	0.2933
392.7537	0.2955
392.9602	0.2974
393.1666	0.2915
393.373	0.2846
393.5794	0.2821
393.7858	0.2866
393.9922	0.2897
394.1986	0.2792
394.4049	0.2902
394.6113	0.2923
394.8176	0.2716
395.0239	0.2817
395.2302	0.2754
395.4365	0.2896
395.6428	0.2814
395.8491	0.2752
396.0553	0.2641
396.2615	0.2789
396.4678	0.2736
396.674	0.2834
396.8802	0.2755
397.0863	0.2721
397.2925	0.2706
397.4987	0.2743
397.7048	0.2822
397.9109	0.2828
398.117	0.2704
398.3231	0.2806
398.5292	0.2734
398.7353	0.2733
398.9413	0.2619
399.1474	0.2681
399.3534	0.2775
399.5594	0.2805
399.7654	0.2705
399.9714	0.2638
400.1774	0.2661
400.3833	0.2778
400.5893	0.2708
400.7952	0.2763
401.0011	0.2601
401.207	0.2731
401.4129	0.2661
401.6188	0.2572
401.8247	0.2651
402.0305	0.2644
402.2364	0.2733
402.4422	0.2614
402.648	0.2677
402.8538	0.272
403.0596	0.2581
403.2654	0.2718
403.4711	0.2636
403.6768	0.2751
403.8826	0.2784
404.0883	0.2575
404.294	0.2692
404.4997	0.2662
404.7054	0.2606
404.911	0.2763
405.1167	0.274
405.3223	0.2749
405.5279	0.2792
405.7335	0.2601
405.9391	0.2733
406.1447	0.2737
406.3502	0.264
406.5558	0.2789
406.7613	0.2662
406.9668	0.2708
407.1724	0.2791
407.3778	0.2709
407.5833	0.2708
407.7888	0.2745
407.9942	0.2691
408.1997	0.2686
408.4051	0.262
408.6105	0.2714
408.8159	0.2743
409.0213	0.272
409.2267	0.2647
409.432	0.271
409.6374	0.2787
409.8427	0.2688
410.048	0.2689
410.2533	0.2739
410.4586	0.2709
410.6639	0.2659
410.8691	0.2674
411.0744	0.2559
411.2796	0.2679
411.4848	0.2533
411.69	0.268
411.8952	0.2696
412.1004	0.268
412.3056	0.2687
412.5107	0.2721
412.7158	0.2731
412.921	0.275
413.1261	0.2733
413.3312	0.2611
413.5362	0.2618
413.7413	0.2651
413.9464	0.267
414.1514	0.2624
414.3564	0.2558
414.5614	0.2645
414.7664	0.2598
414.9714	0.2631
415.1764	0.2641
415.3813	0.2593
415.5863	0.2579
415.7912	0.2567
415.9961	0.2568
416.201	0.2674
416.4059	0.2558
416.6108	0.2583
416.8156	0.2586
417.0205	0.2538
417.2253	0.27
417.4301	0.2682
417.6349	0.257
417.8397	0.2694
418.0445	0.259
418.2492	0.2547
418.454	0.2652
418.6587	0.2608
418.8634	0.2612
419.0681	0.2469
419.2728	0.2488
419.4775	0.2548
419.6822	0.2539
419.8868	0.2536
420.0915	0.2561
420.2961	0.243
420.5007	0.2465
420.7053	0.2557
420.9099	0.238
421.1144	0.2428
421.319	0.2447
421.5235	0.2396
421.728	0.2485
421.9325	0.2496
422.137	0.2359
422.3415	0.2429
422.546	0.2457
422.7504	0.2421
422.9549	0.2377
423.1593	0.2437
423.3637	0.2342
423.5681	0.2358
423.7725	0.2394
423.9769	0.2358
424.1812	0.2433
424.3856	0.2407
424.5899	0.2308
424.7942	0.2243
424.9985	0.2264
425.2028	0.2281
425.4071	0.2268
425.6113	0.2345
425.8156	0.2302
426.0198	0.2211
426.224	0.2302
426.4282	0.2292
426.6324	0.2143
426.8366	0.2192
427.0407	0.2246
427.2449	0.226
427.449	0.2344
427.6531	0.2219
427.8572	0.2131
428.0613	0.2106
428.2654	0.2102
428.4694	0.2137
428.6735	0.2166
428.8775	0.2157
429.0815	0.2238
429.2855	0.2108
429.4895	0.1963
429.6935	0.2044
429.8975	0.2062
430.1014	0.2034
430.3053	0.1933
430.5093	0.1939
430.7132	0.1973
430.9171	0.1884
431.1209	0.1965
431.3248	0.1988
431.5286	0.1827
431.7325	0.1884
431.9363	0.1883
432.1401	0.1839
432.3439	0.1774
432.5477	0.1849
432.7514	0.1782
432.9552	0.1731
433.1589	0.1653
433.3627	0.1755
433.5664	0.1669
433.7701	0.1754
433.9737	0.1668
434.1774	0.1693
434.3811	0.1672
434.5847	0.1625
434.7883	0.1683
434.9919	0.1595
435.1955	0.161
435.3991	0.1493
435.6027	0.1497
435.8062	0.1512
436.0098	0.1556
436.2133	0.1504
436.4168	0.1581
436.6203	0.1446
436.8238	0.1428
437.0272	0.1473
437.2307	0.1343
437.4341	0.1378
437.6375	0.1366
437.841	0.1333
438.0443	0.1382
438.2477	0.1247
438.4511	0.1322
438.6545	0.1302
438.8578	0.1277
439.0611	0.1292
439.2644	0.1186
439.4677	0.1157
439.671	0.1149
439.8743	0.1161
440.0775	0.1066
440.2808	0.1198
440.484	0.0969
440.6872	0.1053
440.8904	0.1079
441.0936	0.1155
441.2967	0.0998
441.4999	0.101
441.703	0.1099
441.9062	0.1055
442.1093	0.0984
442.3124	0.1007
442.5155	0.0875
442.7185	0.0819
442.9216	0.0944
443.1246	0.0947
443.3276	0.0865
443.5307	0.0889
443.7337	0.0889
443.9366	0.0858
444.1396	0.0836
444.3426	0.0888
444.5455	0.076
444.7484	0.0777
444.9513	0.077
445.1542	0.0787
445.3571	0.0691
445.56	0.068
445.7628	0.0772
445.9657	0.0812
446.1685	0.0744
446.3713	0.0654
446.5741	0.0608
446.7769	0.0761
446.9797	0.0674
447.1824	0.0641
447.3852	0.0591
447.5879	0.0591
447.7906	0.0646
447.9933	0.0609
448.196	0.0542
448.3986	0.0541
448.6013	0.0555
448.8039	0.0595
449.0066	0.0557
449.2092	0.0464
449.4118	0.0512
449.6143	0.057
449.8169	0.0493
450.0195	0.0471
450.222	0.0523
450.4245	0.0592
450.627	0.043
450.8295	0.0423
451.032	0.0473
451.2345	0.0396
451.4369	0.049
451.6394	0.0437
451.8418	0.049
452.0442	0.043
452.2466	0.0458
452.449	0.0374
452.6513	0.0371
452.8537	0.0326
453.056	0.0447
453.2583	0.0463
453.4607	0.0373
453.663	0.0331
453.8652	0.0362
454.0675	0.0434
454.2697	0.0334
454.472	0.0368
454.6742	0.0226
454.8764	0.0246
455.0786	0.0346
455.2808	0.0365
455.4829	0.0286
455.6851	0.0278
455.8872	0.0286
456.0893	0.0251
456.2915	0.0281
456.4935	0.0155
456.6956	0.0231
456.8977	0.0259
457.0997	0.0293
457.3018	0.0262
457.5038	0.0229
457.7058	0.0175
457.9078	0.0269
458.1098	0.0265
458.3117	0.0203
458.5137	0.0199
458.7156	0.0294
458.9175	0.0212
459.1194	0.0283
459.3213	0.0227
459.5232	0.0123
459.725	0.0182
459.9269	0.018
460.1287	0.0135
460.3305	0.0163
460.5323	0.0186
460.7341	0.0155
460.9359	0.0134
461.1376	0.0215
461.3394	0.0145
461.5411	0.0206
461.7428	0.0234
461.9445	0.0181
462.1462	0.0183
462.3479	0.0215
462.5495	0.0145
462.7512	0.0119
462.9528	0.0091
463.1544	0.0077
463.356	0.0167
463.5576	0.0041
463.7592	0.009
463.9607	0.0124
464.1623	0.0189
464.3638	0.0115
464.5653	0.015
464.7668	0.0168
464.9683	0.0174
465.1697	0.0115
465.3712	0.0084
465.5726	0.013
465.7741	0.0042
465.9755	0.0114
466.1769	0.0051
466.3782	0.0087
466.5796	0.0173
466.7809	0.0167
466.9823	0.0136
467.1836	0.0142
467.3849	0.0078
467.5862	-0.0038
467.7875	0.0155
467.9887	-0.0007
468.19	0.0103
468.3912	0.0136
468.5924	0.0171
468.7936	-0.0023
468.9948	0.0225
469.196	0.0105
469.3972	0.0142
469.5983	-0.0002
469.7994	0.0048
470.0006	0.0111
470.2017	0.0057
470.4027	0.0094
470.6038	0.0065
470.8049	-0.0082
471.0059	0.0076
471.2069	0.0148
471.408	0.0014
471.6089	0.0068
471.8099	0.0143
472.0109	0.009
472.2119	0.0143
472.4128	0.0047
472.6137	0.007
472.8146	0.0024
473.0155	-0.0045
473.2164	0.0008
473.4173	0.0104
473.6181	0.0094
473.819	-0.0039
474.0198	0.0067
474.2206	0.0091
474.4214	0.0093
474.6222	0.0029
474.8229	0.0106
475.0237	0.0016
475.2244	0.0129
475.4251	0.0029
475.6258	0.0037
475.8265	-0.0021
476.0272	0.0047
476.2278	0.0068
476.4285	0.0021
476.6291	0.0125
476.8297	-0.0036
477.0303	0.0094
477.2309	0.0087
477.4315	0.0086
477.632	-0.0005
477.8326	0.0057
478.0331	0.007
478.2336	0.0139
478.4341	-0.0001
478.6346	-0.0012
478.8351	0.0094
479.0355	0.0052
479.236	0.0086
479.4364	0.0017
479.6368	-0.0004
479.8372	0.0047
480.0376	-0.0038
480.2379	-0.0047
480.4383	-0.0037
480.6386	0.0088
480.8389	0.0018
481.0392	0.003
481.2395	0.0064
481.4398	0.006
481.6401	0.0045
481.8403	-0.0038
482.0405	0.0001
482.2408	0.0041
482.441	0.003
482.6411	-0.0001
482.8413	0.0001
483.0415	0.0041
483.2416	0.0001
483.4417	0.0054
483.6419	0.0027
483.8419	-0.0012
484.042	0.0047
484.2421	0.0039
484.4422	0.0075
484.6422	0.0077
484.8422	0.0075
485.0422	0.0001
485.2422	0.0026
485.4422	-0.0012
485.6422	0.0005
485.8421	-0.0039
486.042	0.004
486.242	0.0038
486.4419	0.0045
486.6417	0.0012
486.8416	0.0097
487.0415	0.0008
487.2413	0.0013
487.4411	0.0005
487.641	0.0063
487.8408	0.007
488.0405	0.0051
488.2403	0.0003
488.4401	-0.0037
488.6398	0.0026
488.8395	0.006
489.0392	0.001
489.2389	0.0038
489.4386	0.0041
489.6383	0.0117
489.8379	0.0025
490.0376	0.0083
490.2372	-0.0032
490.4368	0.0055
490.6364	0.0045
490.836	0.0016
491.0355	-0.0023
491.2351	0.0074
491.4346	0.0067
491.6341	0.0016
491.8336	0.001
492.0331	-0.0021
492.2326	0.0002
492.432	0.0052
492.6315	-0.004
492.8309	0.0056
493.0303	-0.0081
493.2297	-0.0054
493.4291	-0.0029
493.6284	0.0035
493.8278	0.0068
494.0271	0.001
494.2264	0.0068
494.4257	0.0111
494.625	0.0031
494.8243	0.007
495.0236	0.0014
495.2228	0.001
495.422	0.0069
495.6213	0.0005
495.8205	0.0057
496.0196	0.0058
496.2188	0.0031
496.418	-0.0075
496.6171	0.0016
496.8162	0.0076
497.0153	0.0047
497.2144	-0.0096
497.4135	0.002
497.6126	-0.0032
497.8116	0.002
498.0107	-0.0027
498.2097	0.011
498.4087	0.0109
498.6077	0.0052
498.8067	0.0072
499.0056	0.0016
499.2046	-0.0016
499.4035	0.0023
499.6024	-0.01
499.8013	0.0043
500.0002	0.0051
500.199	0
500.3979	0.0043
500.5967	-0.0086
500.7956	-0.0027
500.9944	0.0054
501.1932	0.0107
501.3919	0.0033
501.5907	0.0053
501.7895	0.0004
501.9882	-0.0046
502.1869	0.0063
502.3856	-0.0036
502.5843	0.0043
502.783	0.0073
502.9816	-0.0046
503.1803	0.0023
503.3789	0.0063
503.5775	0.0021
503.7761	0.0006
503.9747	0.0023
504.1732	0.0016
504.3718	-0.0047
504.5703	0.003
504.7689	-0.0122
504.9674	0.0001
505.1658	0.004
505.3643	0.002
505.5628	0.0039
505.7612	0.0068
505.9597	0.003
506.1581	-0.0034
506.3565	-0.0069
506.5549	0.0106
506.7532	-0.0009
506.9516	0.003
507.1499	0.0078
507.3482	0.0037
507.5465	-0.003
507.7448	0.0097
507.9431	-0.0049
508.1414	-0.0046
508.3396	-0.0051
508.5379	0.0064
508.7361	0.0129
508.9343	-0.0039
509.1325	0.0042
509.3306	-0.0006
509.5288	0.0032
509.7269	-0
509.9251	-0.0049
510.1232	-0.0011
510.3213	0.001
510.5193	0.0046
510.7174	-0.0016
510.9154	0.0091
511.1135	-0.0027
511.3115	-0.002
511.5095	0.0049
511.7075	-0.0018
511.9055	0.003
512.1034	0.0036
512.3014	-0.0023
512.4993	0.0082
512.6972	-0.0053
512.8951	0.0081
513.093	0.0094
513.2908	0.0016
513.4887	0.0204
513.6865	-0.0074
513.8844	-0.001
514.0822	0
514.2799	0.0063
514.4777	0.0002
514.6755	0.0052
514.8732	0.001
515.0709	0.0083
515.2687	-0.0008
515.4664	-0.0052
515.664	0.0006
515.8617	0.0048
516.0594	0.0007
516.257	0.0009
516.4546	-0.0007
516.6522	0.0054
516.8498	-0.0001
517.0474	-0.0016
517.2449	-0.0039
517.4425	0.0032
517.64	0.0001
517.8375	0.0159
518.035	-0.0044
518.2325	-0.0047
518.43	0.0038
518.6274	-0.0105
518.8249	-0.0008
519.0223	-0.0052
519.2197	-0.0068
519.4171	-0.0017
519.6145	-0.0023
519.8118	0.0037
520.0092	0.0043
520.2065	0.0052
520.4038	0.0004
520.6011	0.0054
520.7984	0.0018
520.9956	-0.0002
521.1929	0.0004
521.3901	0.0012
521.5874	-0.0017
521.7846	-0.0028
521.9818	0.0009
522.1789	0.0105
522.3761	0.0018
522.5732	-0.0049
522.7704	0.0015
522.9675	-0
523.1646	0.0089
523.3617	0.0002
523.5587	-0.0021
523.7558	0.0073
523.9528	0.0044
524.1498	0.0078
524.3468	-0.0075
524.5438	-0.0073
524.7408	-0.0057
524.9378	-0.0014
525.1347	0.0052
525.3316	0.0063
525.5285	0.0004
525.7254	0.0041
525.9223	0.0005
526.1192	-0.0004
526.316	-0.0073
526.5129	0.0063
526.7097	-0.006
526.9065	0.0133
527.1033	0.0019
527.3	-0.0052
527.4968	0.0047
527.6935	0.0097
527.8903	0.0091
528.087	0.0015
528.2837	0.0092
528.4804	0.0132
528.677	0.0031
528.8737	0.0001
529.0703	0.0071
529.2669	-0.0056
529.4635	0.0052
529.6601	0.0115
529.8567	-0.0013
530.0532	0.001
530.2498	-0.0116
530.4463	0.0045
530.6428	-0.0081
530.8393	-0.0015
531.0358	0.0026
531.2322	0.0027
531.4287	-0.0014
531.6251	-0.0037
531.8215	0.0008
532.0179	-0.0009
532.2143	0.0104
532.4107	0.0069
532.607	0.0038
532.8034	0.013
532.9997	0.0058
533.196	0.0026
533.3923	-0.0069
533.5886	0.0079
533.7848	-0.017
533.9811	-0.0096
534.1773	-0.0088
534.3735	0.0137
534.5697	0.0018
534.7659	0.0018
534.9621	0.0008
535.1582	-0.0025
535.3544	0.0134
535.5505	0.005
535.7466	0.0028
535.9427	-0.0028
536.1387	0.0096
536.3348	0.006
536.5308	0.0147
536.7269	-0.0011
536.9229	0.0064
537.1189	0.002
537.3148	-0.0069
537.5108	-0.0007
537.7068	-0.0043
537.9027	0.0097
538.0986	0.0016
538.2945	-0.0012
538.4904	0.0007
538.6863	0.0102
538.8821	-0.0013
539.078	0.0002
539.2738	-0.0081
539.4696	0.0092
539.6654	0.0021
539.8611	-0.005
540.0569	0.0012
540.2526	-0.0035
540.4484	-0.0016
540.6441	0.0058
540.8398	0.008
541.0355	0.0055
541.2311	-0.0001
541.4268	-0.0034
541.6224	0.0054
541.818	-0.002
542.0136	-0.0028
542.2092	0.0108
542.4048	0.0051
542.6003	0.0019
542.7959	-0.0002
542.9914	0.001
543.1869	0.0056
543.3824	0.0033
543.5779	0.0004
543.7734	0.0027
543.9688	0.0067
544.1642	0.0001
544.3596	-0.0073
544.555	0.0053
544.7504	0.0062
544.9458	-0.0068
545.1411	-0.0011
545.3365	0.0042
545.5318	0.0086
545.7271	0.0134
545.9224	0.0053
546.1177	0.009
546.3129	-0.0082
546.5081	-0.0088
546.7034	-0.0061
546.8986	-0.0048
547.0938	0.0033
547.289	-0.0003
547.4841	-0.0007
547.6793	-0.0093
547.8744	-0.0021
548.0695	0.0018
548.2646	-0.0026
548.4597	-0.0083
548.6548	-0.002
548.8498	-0.0045
549.0448	0.0072
549.2399	-0.0018
549.4349	0.0034
549.6298	-0.0079
549.8248	0.0032
550.0198	0.0142
550.2147	-0.0044
550.4096	0.0042
550.6045	-0.0046
550.7994	0.0051
550.9943	0.0066
551.1892	0.0034
551.384	0.0057
551.5788	0.0075
551.7737	-0.004
551.9685	0.0072
552.1632	0.0013
552.358	-0.0034
552.5528	0.0052
552.7475	-0.0011
552.9422	-0.0054
553.1369	0.0133
553.3316	-0.0041
553.5263	0.0009
553.7209	-0.0063
553.9156	0.0003
554.1102	0.0092
554.3048	0.0023
554.4994	0.0021
554.694	0.0048
554.8885	0.0034
555.0831	0.0069
555.2776	-0.001
555.4721	-0.0123
555.6666	0.01
555.8611	-0.0049
556.0555	0.004
556.25	0.0094
556.4444	-0.0069
556.6388	0.0011
556.8332	-0.0044
557.0276	0.0171
557.222	-0.008
557.4163	0.0036
557.6107	-0.003
557.805	-0.0093
557.9993	-0.0077
558.1936	0.0115
558.3879	0.0039
558.5821	-0.002
558.7764	0.0145
558.9706	0.0052
559.1648	-0.0011
559.359	0.0155
559.5532	-0.0066
559.7473	0.0089
559.9415	-0.0006
560.1356	0.0091
560.3297	-0.0009
560.5238	0.006
560.7179	-0.0086
560.9119	0.0112
561.106	0.0015
561.3	0.0016
561.494	0.0004
561.688	-0.0016
561.882	-0.0074
562.076	0.0091
562.2699	0.0079
562.4639	-0.0026
562.6578	0.0084
562.8517	-0.005
563.0456	0.0006
563.2395	-0.009
563.4333	0.0069
563.6272	0.0121
563.821	0.011
564.0148	-0.0017
564.2086	0.0013
564.4024	-0.004
564.5961	-0.0038
564.7899	0.0063
564.9836	-0
565.1773	0.0004
565.371	0.0081
565.5647	-0.0019
565.7584	0.0044
565.952	0.0016
566.1456	0.0042
566.3393	0.0012
566.5329	0.0015
566.7264	0.0012
566.92	0.0036
567.1136	-0.0033
567.3071	0.0056
567.5006	0.0001
567.6941	0.0103
567.8876	0.0004
568.0811	-0.0065
568.2745	0.0015
568.468	0.0026
568.6614	0.0051
568.8548	0.0003
569.0482	-0.0025
569.2416	-0.0002
569.4349	-0.0022
569.6283	0.0036
569.8216	0.0024
570.0149	-0.0015
570.2082	-0.0026
570.4015	-0.0006
570.5947	-0.006
570.788	0.0017
570.9812	0.0021
571.1744	-0.0018
571.3676	0.0016
571.5608	-0.0019
571.754	0.0005
571.9471	-0.0011
572.1402	0.0013
572.3333	0.0018
572.5264	-0.0028
572.7195	0.0057
572.9126	-0.0015
573.1057	0.0041
573.2987	0.0049
573.4917	-0.0014
573.6847	0.0022
573.8777	-0.0001
574.0707	-0.0022
574.2636	-0.0006
574.4566	-0.0003
574.6495	0.0041
574.8424	-0.0001
575.0353	0.0014
575.2281	0.0002
575.421	-0.0016
575.6138	-0.0025
575.8067	0.0001
575.9995	0.0005
576.1923	0.0037
576.385	0.0007
576.5778	0.0002
576.7706	0.0021
576.9633	0.0016
577.156	0.0042
577.3487	-0.0009
577.5414	0.0001
577.734	0.0004
577.9267	0
578.1193	0.0006
578.3119	-0.0083
578.5045	-0.0058
578.6971	-0.0021
578.8897	0.0032
579.0822	0.0017
579.2747	-0.0087
579.4673	-0.0002
579.6598	-0.0024
579.8522	0.0052
580.0447	-0.0026
580.2372	0.0062
580.4296	0.0005
580.622	0.0051
580.8144	0.0006
581.0068	0.0018
581.1992	0.0004
581.3915	-0.0002
581.5839	0.0026
581.7762	0.0032
581.9685	-0.0057
582.1608	0.0015
582.353	-0.003
582.5453	0.0055
582.7375	-0.0013
582.9298	0.002
583.122	-0.0021
583.3142	0.005
583.5063	-0.0032
583.6985	0.0003
583.8906	-0.0023
584.0827	0.0011
584.2749	0.0015
584.4669	0.0006
584.659	0.0025
584.8511	0.0049
585.0431	0.0013
585.2352	-0.0043
585.4272	0.0037
585.6192	-0.0005
585.8111	-0.0066
586.0031	0.0042
586.195	-0.0012
586.387	0.0046
586.5789	0.0027
586.7708	-0.002
586.9627	0.0017
587.1545	0.0001
587.3464	0.0003
587.5382	-0.0011
587.73	0.0036
587.9218	0.0003
588.1136	-0.009
588.3053	0.0029
588.4971	0.001
588.6888	0.0041
588.8805	0.0024
589.0722	-0.0005
589.2639	0.0026
589.4556	-0.0038
589.6472	0.0029
589.8389	0.0044
590.0305	0.0027
590.2221	0.011
590.4137	-0.0044
590.6052	0.0009
590.7968	0.0058
590.9883	0.0028
591.1798	-0.0054
591.3713	-0.004
591.5628	-0.0048
591.7543	-0.0008
591.9458	-0.0017
592.1372	-0.0055
592.3286	0.0009
592.52	-0.0024
592.7114	-0.0017
592.9028	-0.003
593.0941	0.0009
593.2855	0.0039
593.4768	0.0058
593.6681	0.0035
593.8594	-0.0048
594.0506	0.0039
594.2419	-0.0066
594.4331	-0.0033
594.6244	0.0034
594.8156	-0.003
595.0067	-0.0034
595.1979	-0.0034
595.3891	-0.0031
595.5802	-0.0052
595.7713	0.001
595.9624	0.0109
596.1535	-0.0014
596.3446	0.0001
596.5357	-0.0017
596.7267	-0.004
596.9177	0.0006
597.1087	0.0019
597.2997	0.0028
597.4907	0.0038
597.6817	-0.0041
597.8726	0.0008
598.0635	-0.0003
598.2544	-0.0036
598.4453	-0.0066
598.6362	-0.0029
598.827	0.0032
599.0179	-0.0013
599.2087	0.0014
599.3995	0.0054
599.5903	0.0066
599.7811	-0.0016
599.9718	0.0009
600.1626	0.0003
600.3533	-0.0017
600.544	-0.0041
600.7347	-0.0016
600.9254	0.003
601.116	0.0038
601.3067	-0.0012
601.4973	0.0101
601.6879	-0.0032
601.8785	0.0009
602.0691	0.007
602.2596	-0.0005
602.4502	0.0014
602.6407	0.0015
602.8312	0.0031
603.0217	0.0042
603.2122	0.0042
603.4027	-0.006
603.5931	0.0014
603.7835	0.0047
603.9739	-0.0006
604.1643	0.0027
604.3547	0.0063
604.5451	0.0022
604.7354	0.0006
604.9257	-0.0007
605.116	-0.0008
605.3063	-0.0002
605.4966	0.0006
605.6869	-0.0039
605.8771	0.003
606.0673	-0.0033
606.2575	-0.0046
606.4477	0.0083
606.6379	-0.0025
606.8281	-0.0099
607.0182	-0.0019
607.2083	0.0048
607.3985	0.0007
607.5885	-0.0005
607.7786	0.0059
607.9687	-0.0057
608.1587	-0.0001
608.3488	0.0046
608.5388	0.0032
608.7288	-0.0015
608.9187	0.0108
609.1087	0.0063
609.2986	-0.0032
609.4886	0.0029
609.6785	-0.0035
609.8684	0.0027
610.0582	0.0046
610.2481	-0.0009
610.4379	0.0058
610.6278	0.0037
610.8176	-0.0014
611.0074	-0.0047
611.1971	0.0074
611.3869	0.004
611.5766	-0.0015
611.7664	0.0097
611.9561	0.0001
612.1458	-0.0074
612.3354	0.0032
612.5251	-0.0022
612.7147	-0.0021
612.9044	-0.0035
613.094	0.0105
613.2836	0.0008
613.4731	-0.0028
613.6627	0.0046
613.8522	-0.0029
614.0417	-0.0029
614.2313	-0.0073
614.4207	-0.0006
614.6102	-0.0078
614.7997	-0.0057
614.9891	-0.0043
615.1785	0.0029
615.3679	0.0021
615.5573	-0.0067
615.7467	-0.0082
615.9361	-0.0031
616.1254	-0.002
616.3147	0.0014
616.504	-0.0006
616.6933	0.0041
616.8826	0.0059
617.0718	-0.0021
617.2611	-0.0042
617.4503	0.0013
617.6395	0.0023
617.8287	0.008
618.0179	0.0012
618.207	-0.0056
618.3961	-0.0009
618.5853	0.0004
618.7744	0.009
618.9634	0.0104
619.1525	0.0013
619.3416	0.0036
619.5306	0.0015
619.7196	-0.0052
619.9086	0.0035
620.0976	0.0004
620.2866	0.0173
620.4755	0.0095
620.6645	0.0022
620.8534	-0.0063
621.0423	-0.0098
621.2312	-0.0051
621.42	-0.0021
621.6089	-0.0045
621.7977	-0.0087
621.9865	0.0005
622.1753	0.0105
622.3641	-0.0151
622.5529	-0.0074
622.7416	-0.011
622.9303	0.0031
623.1191	-0.0013
623.3078	-0.0011
623.4964	-0.01
623.6851	0.0079
623.8737	0.0042
624.0624	-0.0021
624.251	0.0039
624.4396	-0.0083
624.6282	0.007
624.8167	0.0195
625.0053	-0.001
625.1938	-0.0073
625.3823	-0.0013
625.5708	-0.0016
625.7593	-0.0012
625.9477	-0.0053
626.1362	-0.0008
626.3246	-0.0064
626.513	0.0058
626.7014	0.0001
626.8898	-0.0031
627.0781	-0.0001
627.2665	0.0131
627.4548	0.0001
627.6431	0.0024
627.8314	0.0023
628.0197	0.0065
628.2079	-0.0039
628.3962	0.0027
628.5844	0.0038
628.7726	-0.0048
628.9608	-0.0182
629.1489	0.0019
629.3371	-0.0039
629.5252	0.0108
629.7134	0.0171
629.9015	-0.0024
630.0895	0.0003
630.2776	-0.004
630.4657	0.0196
630.6537	0.0016
630.8417	0.0016
631.0297	-0.0017
631.2177	0.0046
631.4057	-0.016
631.5936	-0.0055
631.7815	0.0024
631.9695	0.0096
632.1574	-0.0058
632.3452	0.0001
632.5331	0.0016
632.7209	0.0083
632.9088	-0.0076
633.0966	0.0123
633.2844	0.0079
633.4722	0.0053
633.6599	-0.0065
633.8477	0.0107
634.0354	0.0035
634.2231	0.0029
634.4108	-0.0011
634.5985	-0.0095
634.7861	-0.0017
634.9738	0.0134
635.1614	0.0059
635.349	-0.0081
635.5366	-0.008
635.7242	-0.0041
635.9117	0.0101
636.0993	-0.0052
636.2868	-0.0042
636.4743	0.0222
636.6618	-0.0027
636.8492	0.0079
637.0367	0.0056
637.2241	-0.0034
637.4115	0.0073
637.5989	0.0127
637.7863	-0.0056
637.9737	0.0268
638.161	-0.0052
638.3484	0.0033
638.5357	-0.0073
638.723	0.0007
638.9103	-0.0026
639.0975	0.0152
639.2848	0.0308
639.472	-0.0044
639.6592	0.0084
639.8464	0.0032
640.0336	-0.0068
640.2208	-0.0011
640.4079	-0.0057
640.595	0.0072
640.7821	-0.009
640.9692	0.0084
641.1563	0.0024
641.3434	-0.0062
641.5304	-0.0046
641.7174	0.0027
641.9044	0.0071
642.0914	-0.0157
642.2784	0.0078
642.4653	-0.0003
642.6523	0.0083
642.8392	0.0143
643.0261	0.0249
643.213	0.015
643.3999	0.0085
643.5867	0.0057
643.7735	0.0101
643.9604	-0.002
644.1472	-0.0001
644.3339	-0.0067
644.5207	-0.0052
644.7075	-0.0054
644.8942	0.0048
645.0809	-0.0023
645.2676	-0.0038
645.4543	-0.0194
645.6409	0.0148
645.8276	0.0027
646.0142	0.0279
646.2008	0.0119
646.3874	0.0207
646.574	-0.0028
646.7605	-0.0138
646.9471	0.003
647.1336	-0.0067
647.3201	-0.0003
647.5066	-0.0176
647.6931	0.0106
647.8795	0.0186
648.0659	-0.0119
648.2524	0.0046
648.4388	0.0049
648.6252	-0.0092
648.8115	0.0019
648.9979	0.0005
649.1842	-0.022
649.3705	-0.001
649.5568	-0.0202
649.7431	-0.0024
649.9294	-0.0115
650.1156	0.0044
650.3018	0.021
650.488	0.0145
650.6742	-0.0018
650.8604	0.0187
651.0466	0.026
651.2327	-0.0003
651.4188	-0.0097
651.6049	-0.0037
651.791	0.0179
651.9771	-0.0079
652.1632	0.0151
652.3492	0.0101
652.5352	0.0119
652.7212	-0.0053
652.9072	-0.005
653.0932	0.0178
653.2791	-0.0019
653.465	-0.0205
653.651	0.0292
653.8369	0.0222
654.0227	-0.0119
654.2086	-0.0054
654.3944	-0.0073
654.5803	0.0005
654.7661	-0.0092
654.9519	0.0009
655.1377	0.0001
655.3234	0.0001
655.5092	0.0001
655.6949	0.0001
655.8806	0.0001
656.0663	0.0001
656.2519	0.0001
656.4376	0.0001
656.6232	0.0001
656.8088	0.0001
656.9945	0.0001
657.18	0.0001
657.3656	0.0001
657.5511	0.0001
657.7367	0.0001
657.9222	0.0001
658.1077	0.0001
658.2932	0.0001
658.4786	0.0001
658.6641	0.0001
658.8495	0.0001
659.0349	0.0001
659.2203	0.0001
659.4057	0.0028
659.591	0.0783
659.7764	0.014
659.9617	-0.0007
660.147	0.0009
660.3323	-0.0048
660.5176	0.0004
660.7028	0.0033
660.888	0.0209
661.0733	0.0078
661.2585	0.0238
661.4436	0.0167
661.6288	0.0035
661.8139	0.0029
661.9991	0.0017
662.1842	0.0259
662.3693	0.002
662.5544	0.0143
662.7394	0.0179
662.9245	0.0136
663.1095	0.0007
663.2945	-0.0099
663.4795	0.0101
663.6644	0.0036
663.8494	0.0108
664.0343	-0.0004
664.2193	-0.0117
664.4042	-0.0205
664.589	-0.0022
664.7739	0.0009
664.9587	0.0084
665.1436	-0.0067
665.3284	-0.0044
665.5132	0.0146
665.698	-0.0015
665.8827	-0.0152
666.0675	-0.0036
666.2522	0.0039
666.4369	-0.0075
666.6216	-0.0138
666.8063	-0.0099
666.9909	0.0086
667.1756	0.0135
667.3602	-0.014
667.5448	-0.0147
667.7294	-0.0071
667.9139	-0.0036
668.0985	-0.0052
668.283	-0.0015
668.4675	0.0038
668.652	-0.0408
668.8365	-0.0209
669.0209	-0.0386
669.2054	0.0235
669.3898	0.0054
669.5742	0.0108
669.7586	0.0106
669.943	-0.0304
670.1273	0.0296
670.3117	0.0107
670.496	0.0163
670.6803	-0.0013
670.8646	0.0023
671.0488	-0.0089
671.2331	0.0038
671.4173	0.0093
671.6015	-0.0104
671.7857	-0.0235
671.9699	0.005
672.1541	0.0034
672.3382	0.0195
672.5223	0.0029
672.7064	-0.0199
672.8905	0.004
673.0746	0.0098
673.2587	0.0163
673.4427	0.0128
673.6267	-0.0249
673.8107	-0.0128
673.9947	-0.0214
674.1787	0.023
674.3626	0.0032
674.5465	0.0068
674.7304	-0.0202
674.9143	0.0256
675.0982	0.0111
675.2821	0.0295
675.4659	0.0109
675.6497	0.0107
675.8335	0.006
676.0173	0.0059
676.2011	-0.003
676.3849	0.0075
676.5686	0.0098
676.7523	-0.0011
676.936	-0.0226
677.1197	0.0086
677.3034	0.0192
677.487	-0.0013
677.6706	-0.0001
677.8542	0.0051
678.0378	0.0118
678.2214	0.0051
678.405	0.0086
678.5885	0.0113
678.772	0.0024
678.9555	-0.0045
679.139	-0.0025
679.3225	-0.0072
679.5059	0.0182
679.6894	-0.0087
679.8728	-0.0022
680.0562	0.0076
680.2395	0.0099
680.4229	-0.0178
680.6062	0.0049
680.7896	0.0062
680.9729	0.0079
681.1562	-0.02
681.3394	0.0059
681.5227	-0.0115
681.7059	-0.025
681.8891	0.0108
682.0723	-0.0092
682.2555	0.0174
682.4387	0.0214
682.6218	-0.0364
682.805	-0.0004
682.9881	0.0038
683.1712	0.0121
683.3542	-0.0082
683.5373	0.025
683.7203	0.0052
683.9034	0.0008
684.0864	0.0056
684.2694	0.0116
684.4523	0.01
684.6353	-0.0136
684.8182	0.0049
685.0011	-0.0033
685.184	0.001
685.3669	-0.0011
685.5498	0.0215
685.7326	0.0056
685.9154	-0.0017
686.0982	0.0163
686.281	0.0161
686.4638	-0.0065
686.6465	0.0025
686.8293	-0.0077
687.012	-0.0034
687.1947	0.0023
687.3774	-0.0055
687.56	0.0079
687.7427	-0.0033
687.9253	0.0233
688.1079	0.0196
688.2905	-0.0041
688.4731	0.037
688.6556	-0.0021
688.8382	-0.0058
689.0207	-0.0111
689.2032	-0.0123
689.3857	-0.0199
689.5681	-0.0144
689.7506	0.0008
689.933	-0.0001
690.1154	-0.009
690.2978	0.0019
690.4802	0.008
690.6626	-0.0066
690.8449	-0.0098
691.0272	-0.0181
691.2095	-0.0042
691.3918	0.0057
691.5741	0.0076
691.7563	0.0081
691.9386	-0.0003
692.1208	-0.008
692.303	0.0058
692.4852	0.011
692.6673	-0.0133
692.8495	-0.0225
693.0316	-0.0028
693.2137	0.0396
693.3958	0.007
693.5778	-0.0177
693.7599	-0.0212
693.9419	0.0056
694.1239	-0.0033
694.3059	-0.0056
694.4879	-0.0189
694.6699	-0.0079
694.8518	-0.0006
695.0337	0.012
695.2157	-0.012
695.3975	0.011
695.5794	-0.0388
695.7613	0.0266
695.9431	-0.0191
696.1249	0.0066
696.3067	0.0089
696.4885	-0.0045
696.6703	0.0003
696.852	-0.0248
697.0337	0.0083
697.2154	0.0232
697.3971	0.0149
697.5788	0.0218
697.7605	-0.002
697.9421	0.0091
698.1237	0.0097
698.3053	-0.0025
698.4869	0.004
698.6685	0.0037
698.85	0.0105
699.0315	0.0018
699.213	0.0138
699.3945	0.0141
699.576	0.0173
699.7575	-0.0249
699.9389	-0.0219
700.1203	0.0036
700.3017	-0.0176
700.4831	0.0327
700.6645	0.0063
700.8458	-0.0082
701.0271	0.0415
701.2084	-0.0111
701.3897	0.0159
701.571	0.0248
701.7523	0.0014
701.9335	0.0231
702.1147	-0.0088
702.2959	0.0097
702.4771	0.0018
702.6583	-0.0063
702.8394	0.0082
703.0205	-0.0183
703.2016	0.0021
703.3827	0.0028
703.5638	0.0136
703.7449	0.0231
703.9259	-0.0031
704.1069	-0.0017
704.2879	0.0129
704.4689	0.0091
704.6499	-0.0236
704.8308	-0.034
705.0117	-0.0129
705.1927	0.0123
705.3735	0.0362
705.5544	0.0107
705.7353	0.0235
705.9161	-0.005
706.0969	0.019
706.2777	-0.0004
706.4585	0.004
706.6393	0.0096
706.82	-0.0041
707.0007	0.0095
707.1815	0.0128
707.3621	0.0002
707.5428	0.0187
707.7235	0.0322
707.9041	-0.0028
708.0847	-0.0052
708.2653	0.0037
708.4459	-0.0022
708.6265	0.0121
708.807	0.0445
708.9875	0.0006
709.168	0.0031
709.3485	-0.0279
709.529	0.0114
709.7095	-0.0185
709.8899	0.0262
710.0703	0.0071
710.2507	0.0054
710.4311	0.0041
710.6115	-0.0027
710.7918	0.0081
710.9721	-0.0059
711.1524	-0.0262
711.3327	-0.0292
711.513	0.0027
711.6932	-0.0158
711.8735	0.0155
712.0537	0.0361
712.2339	-0.0071
712.4141	0.0344
712.5942	0.0138
712.7744	0.0044
712.9545	0.0245
713.1346	-0.0046
713.3147	0.0054
713.4947	-0.0134
713.6748	0.0245
713.8548	-0.0032
714.0348	0.0199
714.2148	-0.0131
714.3948	0.0091
714.5748	-0.0087
714.7547	-0.0094
714.9346	-0.0233
715.1145	-0.0088
715.2944	0.0268
715.4743	0.0219
715.6541	-0.0272
715.834	0.0081
716.0138	0.0411
716.1936	-0.0035
716.3733	0.0111
716.5531	0.0079
716.7328	-0.0138
716.9126	-0.0365
717.0923	0.0029
717.2719	0.0084
717.4516	-0.0172
717.6312	-0.0223
717.8109	0.0104
717.9905	-0.0023
718.1701	-0.0272
718.3496	-0.0164
718.5292	-0.0086
718.7087	0.034
718.8882	0.0202
719.0677	-0.017
719.2472	0.0386
719.4267	0.0067
719.6061	0.0176
719.7856	0.0201
719.965	0.0095
720.1443	0.0091
720.3237	0.0052
720.5031	0.0331
720.6824	0.022
720.8617	0.0067
721.041	0.0253
721.2203	0.003
721.3995	-0.01
721.5788	-0.0078
721.758	-0.0035
721.9372	0.006
722.1164	0.014
722.2956	0.0069
722.4747	0.0243
722.6538	0.0127
722.8329	0.0027
723.012	0.0261
723.1911	0.0054
723.3702	-0.0097
723.5492	-0.0068
723.7282	0.0016
723.9072	-0.0461
724.0862	-0.0029
724.2652	-0.0154
724.4441	0.0015
724.623	-0.0005
724.8019	-0.018
724.9808	-0.0176
725.1597	0.0034
725.3385	-0.0129
725.5174	0.0252
725.6962	0.0267
725.875	0.0144
726.0538	0.0035
726.2325	-0.008
726.4112	0.0147
726.59	0.0168
726.7687	-0.0065
726.9474	-0.0001
727.126	-0.0195
727.3047	0.0263
727.4833	0.0405
727.6619	0.0287
727.8405	-0.0059
728.0191	-0.0358
728.1976	-0.0243
728.3762	-0.0279
728.5547	0.0031
728.7332	-0.0176
728.9116	-0.0507
729.0901	0.0097
729.2686	0.0036
729.447	0.0025
729.6254	0.0264
729.8038	-0.0094
729.9821	0.0023
730.1605	-0.0084
730.3388	-0.019
730.5171	-0.0022
730.6954	0.0312
730.8737	0.0307
731.0519	0.0096
731.2302	-0.0227
731.4084	-0.0015
731.5866	-0.0064
731.7648	-0.0151
731.9429	0.0024
732.1211	0.0107
732.2992	-0.0142
732.4773	-0.017
732.6554	-0.0101
732.8335	0.0063
733.0115	-0.0171
733.1896	-0.0242
733.3676	0.0014
733.5456	0.0006
733.7235	0.0231
733.9015	-0.0157
734.0794	0.007
734.2574	0.0121
734.4353	-0.0151
734.6131	-0.0068
734.791	0.01
734.9689	0.0079
735.1467	-0.0029
735.3245	0.0262
735.5023	0.0245
735.68	0.008
735.8578	-0.0004
736.0355	0.0104
736.2132	0.0029
736.3909	-0.0123
736.5686	0.0046
736.7463	-0.0114
736.9239	0.0122
737.1015	0.0008
737.2791	-0.007
737.4567	0.0173
737.6343	0.0002
737.8118	-0.0023
737.9894	0.0139
738.1669	0.0156
738.3444	-0.0081
738.5218	0.0203
738.6993	-0.0052
738.8767	-0.0011
739.0541	0.0029
739.2315	0.017
739.4089	0.0008
739.5863	0.0106
739.7636	0.0184
739.9409	0.0175
740.1182	0.0135
740.2955	-0.0172
740.4728	0.0342
740.65	-0.0159
740.8272	-0.0193
741.0044	0.0029
741.1816	0.0213
741.3588	0.0213
741.5359	0.0118
741.7131	0.0304
741.8902	-0.0027
742.0673	0.0089
742.2444	0.0023
742.4214	0.0133
742.5985	0.0167
742.7755	-0.0002
742.9525	0.0081
743.1295	-0.0061
743.3064	0.0302
743.4834	0.0014
743.6603	0.0014
743.8372	-0.0151
744.0141	0.0069
744.191	0.0028
744.3678	0.024
744.5446	0.0136
744.7215	-0.0224
744.8982	0.0207
745.075	0.0333
745.2518	-0.0283
745.4285	0.0036
745.6052	0.0206
745.7819	-0.012
745.9586	0.0321
746.1353	-0.0087
746.3119	0.0033
746.4885	0.003
746.6651	-0.0259
746.8417	-0.0224
747.0183	-0.0266
747.1948	0.0048
747.3714	-0.0173
747.5479	0.0036
747.7244	-0.049
747.9008	0.0445
748.0773	0.0175
748.2537	-0.0013
748.4301	0.0044
748.6065	-0.0064
748.7829	0.0117
748.9593	-0.0122
749.1356	-0.0161
749.3119	0.0023
749.4882	-0.0255
749.6645	0.0096
749.8408	-0.0273
750.017	-0.0321
750.1933	0.0445
750.3695	0.0138
750.5457	-0.0305
750.7218	0.0287
750.898	-0.0295
751.0741	0.0125
751.2502	0.0152
751.4263	0.0009
751.6024	0.0295
751.7784	-0.0372
751.9545	-0.0267
752.1305	0.001
752.3065	0.0471
752.4825	-0.0326
752.6584	-0.0086
752.8344	0.0159
753.0103	-0.0261
753.1862	-0.0047
753.3621	-0.0306
753.5379	0.0041
753.7138	-0.0349
753.8896	0.038
754.0654	-0.0139
754.2412	0.0293
754.417	-0.0069
754.5927	-0.0072
754.7685	-0.0367
754.9442	-0.0027
755.1199	-0.0061
755.2956	0.0224
755.4712	-0.0203
755.6469	-0.001
755.8225	0.0251
755.9981	-0.0051
756.1736	0.0239
756.3492	0.0014
756.5248	-0.0098
756.7003	-0.0023
756.8758	-0.0108
757.0513	-0.0186
757.2267	-0.0081
757.4022	0.003
757.5776	-0.0022
757.753	-0.0096
757.9284	-0.0088
758.1038	-0.0168
758.2791	-0.0069
758.4545	-0.014
758.6298	0.0055
758.8051	-0.0193
758.9803	-0.0045
759.1556	-0.0083
759.3308	-0.0053
759.506	0.0081
759.6812	-0.0152
759.8564	-0.034
760.0316	-0.0027
760.2067	-0.0079
760.3819	0.0059
760.557	0.0008
760.732	0.0059
760.9071	0.0237
761.0821	0.0051
761.2572	0.0272
761.4322	-0.0086
761.6072	-0.0057
761.7821	0.005
761.9571	-0.0072
762.132	-0.0096
762.3069	0.0006
762.4818	-0.0144
762.6567	0.0158
762.8316	-0.003
763.0064	-0.0246
763.1812	-0.0127
763.356	-0.01
763.5308	0.0012
763.7055	-0.0084
763.8803	-0.0232
764.055	-0.0058
764.2297	-0.0196
764.4044	0.0125
764.579	-0.0089
764.7537	-0.004
764.9283	-0.0296
765.1029	-0.0044
765.2775	-0.0274
765.4521	0.0132
765.6266	-0.031
765.8011	0.0021
765.9756	0.0156
766.1501	0.0118
766.3246	0.0056
766.4991	0.0024
766.6735	-0.0416
766.8479	-0.0067
767.0223	-0.0029
767.1967	-0.0244
767.371	0.0225
767.5454	-0.0074
767.7197	0.0056
767.894	0.0153
768.0683	-0.0108
768.2425	0.0347
768.4168	0.0359
768.591	0.0176
768.7652	0.0048
768.9394	-0.0206
769.1135	0.0025
769.2877	0.0344
769.4618	-0.0019
769.6359	0.0067
769.81	0.0113
769.984	0.0271
770.1581	-0.0016
770.3321	-0.0184
770.5061	0.0212
770.6801	0.024
770.8541	-0.0001
771.028	-0.0026
771.202	-0.039
771.3759	0.0304
771.5498	-0.0071
771.7236	-0.0153
771.8975	-0.0159
772.0713	-0.0189
772.2451	0.0078
772.4189	-0.0017
772.5927	-0.0229
772.7665	0.0363
772.9402	0.0314
773.1139	-0.0085
773.2876	-0.0051
773.4613	-0.0095
773.635	0.0172
773.8086	-0.0273
773.9822	0.0113
774.1558	0.02
774.3294	-0.0556
774.503	-0.0002
774.6765	0.0315
774.8501	-0.0055
775.0236	0.0079
775.1971	-0.0277
775.3705	0.0022
775.544	0.0197
775.7174	0.0444
775.8908	0.0688
776.0642	0.0322
776.2376	-0.0395
776.4109	0.0263
776.5843	0.0042
776.7576	0.0392
776.9309	0.0313
777.1041	-0.038
777.2774	-0.0061
777.4506	-0.0134
777.6238	0.0074
777.797	-0.015
777.9702	-0.0109
778.1434	-0.0084
778.3165	-0.0075
778.4896	-0.0026
778.6627	0.0338
778.8358	0.0088
779.0089	0.0075
779.1819	0.0097
779.3549	0.0189
779.5279	0.0043
779.7009	-0.0137
779.8739	0.0021
780.0468	0.0277
780.2197	-0.0311
780.3926	-0.0196
780.5655	-0.0002
780.7384	0.0045
780.9112	0.0502
781.0841	-0.0056
781.2569	-0.0179
781.4297	0.0167
781.6024	-0.0159
781.7752	-0.0087
781.9479	-0.0177
782.1206	-0.0034
782.2933	-0.011
782.466	-0.0036
782.6386	0.0004
782.8113	-0.0126
782.9839	0.0319
783.1565	-0.012
783.329	-0.0137
783.5016	0.0195
783.6741	-0.0361
783.8466	-0.0518
784.0191	-0.0067
784.1916	0.0052
784.3641	0.0067
784.5365	0.0455
784.7089	0.0203
784.8813	0.0743
785.0537	-0.0441
785.2261	0.022
785.3984	-0.03
785.5707	0.0334
785.743	-0.0461
785.9153	0.0246
786.0876	-0.0521
786.2598	-0.0088
786.432	0.0099
786.6042	0.0318
786.7764	0.0045
786.9486	-0.0114
787.1207	0.0241
787.2928	0.0048
787.4649	0.0088
787.637	0.0056
787.8091	-0.0083
787.9811	0.0074
788.1532	-0.0147
788.3252	-0.0075
788.4972	0.0117
788.6691	0.055
788.8411	-0.0073
789.013	0.0304
789.1849	0.0222
789.3568	0.0021
789.5287	-0.0254
789.7005	-0.0253
789.8723	-0.0032
790.0442	-0.0243
790.2159	0.0421
790.3877	0.0081
790.5595	0.114
790.7312	0.0488
790.9029	-0.0172
791.0746	0.0275
791.2463	-0.0015
791.4179	0.0177
791.5896	-0.065
791.7612	-0.0521
791.9328	0.0498
792.1044	-0.0302
792.2759	0.026
792.4474	-0.0482
792.619	0.0232
792.7905	-0.025
792.9619	0.0145
793.1334	-0.0493
793.3048	-0.0217
793.4762	-0.068
793.6476	-0.0048
793.819	-0.0366
793.9904	0.0281
794.1617	-0.0002
794.333	-0.0119
794.5043	0.0073
794.6756	0.0191
794.8469	-0.0188
795.0181	0.0194
795.1893	0.0125
795.3605	-0.0105
795.5317	-0.0123
795.7029	0.0385
795.874	-0.0097
796.0452	-0.0004
796.2163	0.0283
796.3873	0.0726
796.5584	0.0836
796.7294	-0.0186
796.9005	-0.0611
797.0715	0.0069
797.2425	0.0454
797.4134	-0.0149
797.5844	0.0545
797.7553	0.0194
797.9262	-0.0134
798.0971	-0.021
798.2679	-0.0249
798.4388	-0.074
798.6096	-0.0049
798.7804	-0.0143
798.9512	0.0474
799.122	0.0543
799.2927	-0.1015
799.4635	0.051
799.6342	0.0157
799.8049	-0.008
799.9755	-0.0005
800.1462	0.074
800.3168	0.0207
800.4874	0.0794
800.658	0.148
800.8286	0.037
800.9991	0.0889
801.1696	-0.0035
801.3402	-0.1168
801.5106	-0.0649
801.6811	0.0012
801.8516	0.0894
802.022	0.0034
802.1924	-0.0499
802.3628	-0.0577
802.5332	0.0249
802.7035	-0.0457
802.8739	-0.0255
803.0442	0.0029
803.2145	0.003
803.3847	-0.0937
803.555	0.0039
803.7252	0.0061
803.8954	0.0055
804.0656	-0.0435
804.2358	0.0033
804.4059	0.0195
804.5761	0.0991
804.7462	-0.0171
804.9163	-0.0876
805.0864	-0.0141
805.2564	0.0319
805.4264	-0.0059
805.5965	0.0333
805.7665	0.0414
805.9364	0.0371
806.1064	-0.024
806.2763	0.0297
806.4462	-0.0119
806.6161	0.0132
806.786	-0.0553
806.9559	0.073
807.1257	0.0061
807.2955	0.0092
807.4653	-0.1055
807.6351	-0.0275
807.8048	-0.0507
807.9746	-0.0811
808.1443	-0.0089
808.314	0.0054
808.4837	-0.0929
808.6533	0.016
808.8229	-0.0589
808.9926	0.0055
809.1622	-0.0308
809.3317	-0.0589
809.5013	0.0745
809.6708	0.0149
809.8403	0.0663
810.0098	0.1671
810.1793	0.1227
810.3488	-0.0022
810.5182	0.0121
810.6876	0.0033
810.857	-0.0374
811.0264	-0.0286
811.1958	0.097
811.3651	-0.0009
811.5344	0.0577
811.7037	-0.1213
811.873	0.0563
812.0422	-0.0146
812.2115	0.0889
812.3807	0.1866
812.5499	-0.0367
812.7191	-0.046
812.8882	0.0114
813.0574	-0.1295
813.2265	0.02
813.3956	-0.0546
813.5646	0.0651
813.7337	-0.1168
813.9027	-0.0638
814.0718	0.0026
814.2407	-0.0817
814.4097	0.0141
814.5787	0.0221
814.7476	0.0125
814.9165	0.0428
815.0854	-0.0534
815.2543	-0.0175
815.4232	-0.0262
815.592	0.1549
815.7608	0.0908
815.9296	0.0243
816.0984	0.0336
816.2671	-0.0997
816.4359	0.0373
816.6046	-0.0064
816.7733	0.0244
816.942	0.1022
817.1106	-0.1794
817.2793	0.0814
817.4479	-0.1009
817.6165	-0.0564
817.785	-0.0082
817.9536	0.084
818.1221	0.0276
818.2906	0.1173
818.4591	0.0322
818.6276	0.0324
818.7961	0.044
818.9645	0.026
819.1329	0.4485
819.3013	-0.0689
819.4697	0.0988
819.638	0.1019
819.8064	-0.136
819.9747	-0.0175
820.143	0.0023
820.3113	0.0881
820.4795	0.181
820.6477	-0.0011
820.816	-0.0561
820.9842	-0.04
821.1523	0.1361
821.3205	0.0293
821.4886	-0.0216
821.6567	0.041
821.8248	-0.0575
821.9929	0.0181
822.1609	0.0459
822.329	0.0906
822.497	-0.0123
822.665	0.0647
822.833	0.0926
823.0009	-0.028
823.1688	-0.0689
823.3367	-0.0836
823.5046	0.048
823.6725	0.0545
823.8404	0.207
824.0082	0.1017
824.176	-0.0053
824.3438	0.2256
824.5116	0.0187
824.6793	-0.1344
824.847	0.1257
825.0147	0.4608
825.1824	0.0395
825.3501	0.0401
825.5177	0.159
825.6854	0.0324
825.853	0.04
826.0206	-0.1472
826.1881	0.0234
826.3557	0.1319
826.5232	0.0555
826.6907	0.1736
826.8582	0.1642
827.0257	-0.0722
827.1931	0.1034
827.3605	-0.0481
827.528	-0.0234
827.6953	0.0609
827.8627	0.0189
828.03	0.0311
828.1974	-0.1195
828.3647	0.0246
828.532	0.1682
828.6992	0.0914
828.8665	-0.0106
829.0337	0.1625
829.2009	0.1482
829.3681	0.0814
829.5352	0.1023
829.7024	0.2047
829.8695	-0.063
830.0366	0.1195
830.2037	0.0402
830.3707	-0.0013
830.5378	0.0352
830.7048	0.0365
830.8718	-0.1201
831.0388	0.1325
831.2057	-0.2422
831.3727	-0.0242
831.5396	-0.1073
831.7065	0.9252
831.8734	-0.3647
832.0402	-0.0962
832.2071	0.51
832.3739	0.3076
832.5407	-0
832.7075	0.0089
832.8742	0.0484
833.041	-0.0499
833.2077	0.5558
833.3744	0.4837
833.541	-0.1077
833.7077	0.1529
833.8743	0.1555
834.0409	0.0474
834.2075	0.0223
834.3741	0.1578
834.5407	0.0298
834.7072	0.0632
834.8737	0.5608
835.0402	-0
835.2067	0.4702
835.3731	0.0568
835.5395	0.0349
835.706	0.1499
835.8723	0.0114
836.0387	0.2885
836.2051	0.1097
836.3714	-0.4482
836.5377	0.4188
836.704	-0.0318
836.8703	0.3585
837.0365	-0.0654
837.2027	-0.3137
837.3689	-0.0499
837.5351	-0.1955
837.7013	0.3132
837.8674	-0
838.0335	-0.0016
838.1997	0.1139
838.3657	0.0518
838.5318	0.2553
838.6978	-0
838.8639	0.1643
839.0299	0.1572
839.1958	0.2286
839.3618	0.4233
839.5277	0.2248
839.6937	-0.3019
839.8596	0.0207
840.0254	0.1095
840.1913	0.2364
840.3571	-0.1207
840.523	0.055
840.6888	0.1753
840.8545	0.0078
841.0203	-0.059
841.186	0.2302
841.3517	0.0455
841.5174	0.169
841.6831	0.4354
841.8488	0.1437
842.0144	-0
842.18	-0.0757
842.3456	0.0197
842.5112	0.3814
842.6767	-0.1145
842.8422	-0.2208
843.0077	0.3486
843.1732	0.0078
843.3387	-0.1786
843.5042	0.315
843.6696	0.5756
843.835	0.203
844.0004	0.3147
844.1657	-0.3402
844.3311	-0
844.4964	-0
844.6617	-0
844.827	0.6183
844.9923	-0.0407
845.1575	-0
845.3227	-0
845.4879	0.1426
845.6531	-0.0501
845.8183	0.4115
845.9834	-0.1833
846.1485	-0.0053
846.3136	0.5182
846.4787	-0.0452
846.6438	0.7926
846.8088	-0.8367
846.9738	-0
847.1388	0.2477
847.3038	0.4349
847.4687	-0
847.6337	0.123
847.7986	0.2752
847.9635	-0.0877
848.1284	-0
848.2932	-0
848.458	-0.0389
848.6228	0.748
848.7876	-0
848.9524	-0
849.1172	-0.2788
849.2819	-0
849.4466	-0.0062
849.6113	0.1312
849.7759	-0
849.9406	-0.1336
850.1052	-0.0108
850.2698	-0
850.4344	-0
850.599	-0.1464
850.7635	0.142
850.928	-0
851.0925	-0.0157
851.257	-0.0416
851.4215	-0
851.5859	-0.0702
851.7503	0.7907
851.9147	-0
852.0791	-0.4478
852.2434	0.1649
852.4078	0.8284
852.5721	0.0199
852.7364	-0.0408
852.9007	-0.3405
853.0649	0.9615
853.2291	1.4839
853.3934	-0
853.5575	-0.1482
853.7217	-0.29
853.8859	0.4023
854.05	-1.1525
854.2141	-0
854.3782	0.5019
854.5423	-0
854.7063	0.198
854.8703	-0.0162
855.0343	0.0041
855.1983	-0.0727
855.3623	-0.1497
855.5262	-0
855.6901	0.1558
855.854	-0.427
856.0179	0.2881
856.1818	-0
856.3456	0.283
856.5094	-0
856.6732	-0.2727
856.837	0.678
857.0008	1.0849
857.1645	-0
857.3282	0.3396
857.4919	0.0704
857.6556	0.2942
857.8192	-0.4194
857.9828	-0.0065
858.1465	0.9687
858.31	-0
858.4736	0.1322
858.6372	0.1206
858.8007	-1.3928
858.9642	0.4217
859.1277	-0
859.2911	0.2293
859.4546	0.1744
859.618	-0.3093
859.7814	-0
859.9448	0.2986
860.1081	-0.5711
860.2715	-0.1939
860.4348	0.4474
860.5981	-0.1474
860.7614	0.4635
860.9246	-0.02
861.0879	-0.1153
861.2511	1.0485
861.4143	-0
861.5774	0.7198
861.7406	-0
861.9037	-0
862.0668	-0
862.2299	-0
862.393	0.7119
862.556	-0
862.7191	1.1381
862.8821	-0.3186
863.0451	-0.0784
863.208	-0.3023
863.371	-0
863.5339	-0.0209
863.6968	0.1066
863.8597	-0
864.0225	0.5364
864.1854	-0.1904
864.3482	-0
864.511	-0.2677
864.6737	-0
864.8365	0.0181
864.9992	-0.0962
865.1619	0.0426
865.3246	-0
865.4873	-0
865.65	-0.7332
865.8126	0.0681
865.9752	-0.3942
866.1378	0.3061
866.3004	-0.0024
866.4629	-0.0946
866.6254	-0.9722
866.7879	0.0677
866.9504	-0
867.1129	1.3597
867.2753	0.2674
867.4377	-0.1009
867.6001	0.0779
867.7625	-0.2138
867.9249	0.3545
868.0872	0.1607
868.2495	-0.2517
868.4118	-0.29
868.5741	-0
868.7363	-0
868.8986	-0.3563
869.0608	-0
869.223	1.0889
869.3851	-0
869.5473	-1.2111
869.7094	-0
869.8715	-0
870.0336	-0.0751
870.1957	-0
870.3577	-0.1786
870.5197	-0.0627
870.6817	-0
870.8437	0.4429
871.0057	-0
871.1676	0.5855
871.3295	0.5684
871.4914	-0.3647
871.6533	0.0052
871.8151	-0.4748
871.977	-0
872.1388	-0
872.3006	0.4128
872.4623	-0.2535
872.6241	-0
872.7858	-0.2419
872.9475	-0
873.1092	0.202
873.2709	-0
873.4325	-0
873.5941	-0
873.7557	-0.2983
873.9173	-0.7623
874.0789	0.4144
874.2404	-0.4043
874.4019	-0.0112
874.5634	-0.1781
874.7249	0.39
874.8863	-0.368
875.0478	0.5628
875.2092	0.8049
875.3706	-0.5761
875.5319	-0
875.6933	-0.0832
875.8546	-0
876.0159	0.6257
876.1772	-0.4858
876.3385	-0.8846
876.4997	-0
876.6609	-0.8711
876.8221	0.4592
876.9833	-0.3105
877.1445	-0
877.3056	-0.1841
877.4667	-0
877.6278	-0
877.7889	-0
877.9499	1.3563
878.111	0.1406
878.272	-0.368
878.433	0.09
878.5939	0.1547
878.7549	-0
878.9158	-0.5758
879.0767	-0
879.2376	-0
879.3984	0.1038
879.5593	-0.2066
879.7201	-0
879.8809	-0.1878
880.0417	0.1914
880.2024	0.2114
880.3632	-0.2469
880.5239	-0.1283
880.6846	-0.4745
880.8452	0.0675
881.0059	0.6058
881.1665	-0
881.3271	-0.0361
881.4877	0.2691
881.6483	-1.7095
881.8088	0.9351
881.9693	0.4344
882.1298	0.4344
882.2903	0.4344
