Data from D4ACN5uM480nmA_Absorbance_12-08-01-390.txt Node
Date: Fri Feb 21 12:08:01 GMT 2025
User: LASERRRRR
Spectrometer: FLMT03099
Trigger mode: 0
Integration Time (sec): 1.500000E-2
Scans to average: 1
Electric dark correction enabled: true
Nonlinearity correction enabled: false
Boxcar width: 0
XAxis mode: Wavelengths
Number of Pixels in Spectrum: 3648
>>>>>Begin Spectral Data<<<<<
179.3399	-0
179.5586	-0
179.7771	-0
179.9957	0.2528
180.2143	-0.3846
180.4329	0.1481
180.6514	0.574
180.8699	-0
181.0885	0.248
181.307	0.4215
181.5255	-0.0045
181.744	-0
181.9625	-0.2865
182.181	-0
182.3994	-0
182.6179	-0.7818
182.8363	-0.3823
183.0547	-0
183.2732	0.2475
183.4916	0.2052
183.71	0.1753
183.9284	0.2522
184.1467	0.5914
184.3651	0.3204
184.5835	0.0117
184.8018	0.381
185.0201	0.2534
185.2385	0.2293
185.4568	0.2612
185.6751	0.1097
185.8934	0.2061
186.1117	0.2828
186.3299	0.607
186.5482	0.1706
186.7664	0.469
186.9847	0.3727
187.2029	0.3759
187.4211	0.1823
187.6393	0.5673
187.8575	0.3584
188.0757	0.4536
188.2939	0.3186
188.512	0.2006
188.7302	0.3182
188.9483	0.7843
189.1665	0.3314
189.3846	0.291
189.6027	0.0639
189.8208	0.1561
190.0389	0.3036
190.257	0.4896
190.475	0.2909
190.6931	0.2947
190.9111	0.1754
191.1292	0.2567
191.3472	0.308
191.5652	0.3043
191.7832	0.4751
192.0012	0.4161
192.2192	0.6249
192.4371	0.4325
192.6551	0.2605
192.873	0.2265
193.091	0.4087
193.3089	0.3244
193.5268	0.6477
193.7447	0.3505
193.9626	0.4892
194.1805	0.4696
194.3984	0.5355
194.6162	0.6543
194.8341	0.4638
195.0519	0.5941
195.2697	0.841
195.4875	0.7158
195.7054	0.5003
195.9231	0.4338
196.1409	0.6497
196.3587	0.745
196.5765	0.5953
196.7942	0.706
197.012	0.7118
197.2297	0.7985
197.4474	0.644
197.6651	0.5716
197.8828	0.7102
198.1005	0.7075
198.3182	0.6173
198.5358	0.6005
198.7535	0.6283
198.9711	0.6755
199.1888	0.6448
199.4064	0.5935
199.624	0.5695
199.8416	0.5507
200.0592	0.5393
200.2767	0.6133
200.4943	0.707
200.7119	0.5801
200.9294	0.7127
201.1469	0.6435
201.3645	0.6229
201.582	0.5923
201.7995	0.6423
202.017	0.5952
202.2344	0.546
202.4519	0.5654
202.6694	0.536
202.8868	0.5937
203.1042	0.5249
203.3217	0.5444
203.5391	0.5427
203.7565	0.5244
203.9739	0.5388
204.1913	0.5353
204.4086	0.5148
204.626	0.5433
204.8433	0.5253
205.0607	0.4769
205.278	0.5591
205.4953	0.4551
205.7126	0.4806
205.9299	0.4576
206.1472	0.4818
206.3644	0.4892
206.5817	0.512
206.7989	0.4811
207.0162	0.4196
207.2334	0.4351
207.4506	0.4403
207.6678	0.4523
207.885	0.4356
208.1022	0.3919
208.3194	0.4233
208.5365	0.449
208.7537	0.4309
208.9708	0.4478
209.1879	0.4545
209.405	0.415
209.6222	0.4028
209.8392	0.4296
210.0563	0.4148
210.2734	0.4004
210.4905	0.4183
210.7075	0.4392
210.9245	0.4001
211.1416	0.3986
211.3586	0.4131
211.5756	0.4349
211.7926	0.4181
212.0096	0.4151
212.2265	0.4053
212.4435	0.3916
212.6604	0.4039
212.8774	0.4269
213.0943	0.4114
213.3112	0.4117
213.5281	0.4097
213.745	0.3999
213.9619	0.41
214.1788	0.4164
214.3956	0.4465
214.6125	0.3956
214.8293	0.397
215.0461	0.4198
215.2629	0.3983
215.4798	0.3906
215.6965	0.386
215.9133	0.4102
216.1301	0.3929
216.3469	0.416
216.5636	0.3978
216.7803	0.4012
216.9971	0.4258
217.2138	0.419
217.4305	0.415
217.6472	0.4065
217.8639	0.4035
218.0805	0.414
218.2972	0.4206
218.5138	0.4285
218.7305	0.4089
218.9471	0.4161
219.1637	0.432
219.3803	0.405
219.5969	0.4204
219.8135	0.4174
220.0301	0.425
220.2466	0.4217
220.4632	0.4297
220.6797	0.4446
220.8962	0.4311
221.1127	0.4304
221.3292	0.4473
221.5457	0.4312
221.7622	0.4295
221.9787	0.4371
222.1951	0.4414
222.4116	0.4585
222.628	0.4363
222.8444	0.4463
223.0608	0.4185
223.2772	0.4483
223.4936	0.4392
223.71	0.4518
223.9264	0.4559
224.1427	0.4609
224.3591	0.4495
224.5754	0.4452
224.7917	0.4557
225.008	0.4624
225.2243	0.4601
225.4406	0.4491
225.6569	0.4476
225.8732	0.4641
226.0894	0.4754
226.3057	0.4734
226.5219	0.47
226.7381	0.4484
226.9543	0.4735
227.1705	0.4707
227.3867	0.4963
227.6029	0.4767
227.8191	0.4848
228.0352	0.4937
228.2513	0.4955
228.4675	0.4754
228.6836	0.4964
228.8997	0.5042
229.1158	0.4872
229.3319	0.4991
229.548	0.4907
229.764	0.4997
229.9801	0.5075
230.1961	0.5107
230.4121	0.5076
230.6282	0.5096
230.8442	0.5088
231.0602	0.5213
231.2761	0.5154
231.4921	0.5214
231.7081	0.52
231.924	0.516
232.14	0.5227
232.3559	0.5364
232.5718	0.5216
232.7877	0.539
233.0036	0.5164
233.2195	0.5328
233.4353	0.5433
233.6512	0.5298
233.867	0.5241
234.0829	0.5361
234.2987	0.5234
234.5145	0.5274
234.7303	0.527
234.9461	0.5417
235.1619	0.5376
235.3776	0.5326
235.5934	0.5237
235.8091	0.5388
236.0249	0.5409
236.2406	0.5293
236.4563	0.5409
236.672	0.5342
236.8877	0.5359
237.1034	0.533
237.319	0.5382
237.5347	0.5298
237.7503	0.5306
237.966	0.5408
238.1816	0.5301
238.3972	0.5347
238.6128	0.5444
238.8284	0.5359
239.0439	0.5423
239.2595	0.5317
239.475	0.534
239.6906	0.5358
239.9061	0.5133
240.1216	0.5383
240.3371	0.5121
240.5526	0.5093
240.7681	0.5238
240.9836	0.5147
241.199	0.5026
241.4145	0.5029
241.6299	0.4943
241.8453	0.4996
242.0607	0.494
242.2761	0.4836
242.4915	0.4641
242.7069	0.4651
242.9223	0.4562
243.1376	0.452
243.353	0.4385
243.5683	0.4465
243.7836	0.4326
243.9989	0.4176
244.2142	0.4216
244.4295	0.4027
244.6448	0.3921
244.86	0.3935
245.0753	0.3818
245.2905	0.3816
245.5057	0.3679
245.721	0.3549
245.9362	0.3497
246.1514	0.337
246.3665	0.3426
246.5817	0.3404
246.7969	0.3155
247.012	0.3259
247.2271	0.309
247.4423	0.3067
247.6574	0.3102
247.8725	0.3003
248.0876	0.2918
248.3026	0.2911
248.5177	0.2813
248.7328	0.2792
248.9478	0.2737
249.1628	0.2662
249.3779	0.2638
249.5929	0.2605
249.8079	0.2564
250.0228	0.252
250.2378	0.2453
250.4528	0.2514
250.6677	0.2447
250.8827	0.2413
251.0976	0.2403
251.3125	0.2361
251.5274	0.2295
251.7423	0.2253
251.9572	0.2291
252.172	0.2189
252.3869	0.2175
252.6017	0.2127
252.8166	0.2164
253.0314	0.2251
253.2462	0.2172
253.461	0.2174
253.6758	0.2082
253.8906	0.2062
254.1053	0.2052
254.3201	0.2034
254.5348	0.2026
254.7496	0.207
254.9643	0.2068
255.179	0.2059
255.3937	0.1977
255.6083	0.1957
255.823	0.1941
256.0377	0.2007
256.2523	0.1996
256.467	0.1925
256.6816	0.2009
256.8962	0.1931
257.1108	0.1955
257.3254	0.1911
257.54	0.1912
257.7545	0.1915
257.9691	0.1911
258.1836	0.1898
258.3981	0.1918
258.6127	0.1883
258.8272	0.1874
259.0417	0.1846
259.2561	0.1847
259.4706	0.1938
259.6851	0.1859
259.8995	0.183
260.114	0.1876
260.3284	0.1885
260.5428	0.1817
260.7572	0.1808
260.9716	0.1884
261.186	0.179
261.4003	0.1819
261.6147	0.1849
261.829	0.1744
262.0433	0.1817
262.2577	0.1885
262.472	0.1845
262.6863	0.1853
262.9005	0.1851
263.1148	0.1845
263.3291	0.1863
263.5433	0.1837
263.7576	0.1849
263.9718	0.1862
264.186	0.1758
264.4002	0.182
264.6144	0.1871
264.8286	0.1853
265.0427	0.1899
265.2569	0.1883
265.471	0.1871
265.6851	0.183
265.8993	0.1801
266.1134	0.1906
266.3275	0.187
266.5415	0.177
266.7556	0.183
266.9697	0.1775
267.1837	0.1825
267.3978	0.1917
267.6118	0.185
267.8258	0.1858
268.0398	0.1828
268.2538	0.1753
268.4677	0.185
268.6817	0.175
268.8957	0.1792
269.1096	0.1778
269.3235	0.1932
269.5374	0.1836
269.7514	0.1823
269.9652	0.1834
270.1791	0.181
270.393	0.1869
270.6068	0.1705
270.8207	0.178
271.0345	0.1682
271.2483	0.1783
271.4622	0.1755
271.676	0.1758
271.8897	0.176
272.1035	0.1701
272.3173	0.1816
272.531	0.1757
272.7448	0.1664
272.9585	0.1717
273.1722	0.1744
273.3859	0.1696
273.5996	0.1696
273.8133	0.1693
274.0269	0.1812
274.2406	0.1771
274.4542	0.1681
274.6679	0.1749
274.8815	0.1748
275.0951	0.1708
275.3087	0.1752
275.5223	0.1676
275.7358	0.179
275.9494	0.1718
276.1629	0.1764
276.3765	0.1722
276.59	0.1762
276.8035	0.1785
277.017	0.1765
277.2305	0.1801
277.444	0.1812
277.6574	0.1698
277.8709	0.1754
278.0843	0.1804
278.2978	0.1817
278.5112	0.1826
278.7246	0.1804
278.938	0.1789
279.1513	0.1823
279.3647	0.1783
279.5781	0.1794
279.7914	0.1844
280.0047	0.173
280.2181	0.1801
280.4314	0.179
280.6447	0.1849
280.8579	0.1745
281.0712	0.1753
281.2845	0.187
281.4977	0.1859
281.711	0.1859
281.9242	0.1825
282.1374	0.1813
282.3506	0.187
282.5638	0.1817
282.7769	0.1852
282.9901	0.1823
283.2033	0.1862
283.4164	0.1845
283.6295	0.1763
283.8426	0.185
284.0557	0.1859
284.2688	0.1956
284.4819	0.1919
284.695	0.1919
284.908	0.1923
285.1211	0.1874
285.3341	0.1954
285.5471	0.1929
285.7601	0.1877
285.9731	0.1901
286.1861	0.1915
286.3991	0.194
286.612	0.1917
286.825	0.1897
287.0379	0.1941
287.2508	0.1923
287.4637	0.1924
287.6766	0.1932
287.8895	0.1921
288.1024	0.1902
288.3152	0.1951
288.5281	0.1979
288.7409	0.1943
288.9538	0.1955
289.1666	0.2011
289.3794	0.1981
289.5922	0.2012
289.8049	0.2028
290.0177	0.2006
290.2304	0.2044
290.4432	0.1953
290.6559	0.1927
290.8686	0.2007
291.0813	0.2017
291.294	0.2056
291.5067	0.2053
291.7194	0.1991
291.932	0.1967
292.1447	0.2057
292.3573	0.1941
292.5699	0.1986
292.7825	0.1986
292.9951	0.2005
293.2077	0.2018
293.4203	0.1992
293.6328	0.1941
293.8454	0.1983
294.0579	0.2049
294.2704	0.207
294.4829	0.1973
294.6954	0.1981
294.9079	0.2073
295.1204	0.2016
295.3328	0.1959
295.5453	0.1995
295.7577	0.1976
295.9701	0.1995
296.1825	0.1986
296.3949	0.2022
296.6073	0.1982
296.8197	0.2006
297.0321	0.2031
297.2444	0.2029
297.4567	0.1979
297.6691	0.2015
297.8814	0.201
298.0937	0.1988
298.306	0.1957
298.5182	0.2021
298.7305	0.197
298.9428	0.2041
299.155	0.2007
299.3672	0.202
299.5794	0.1908
299.7916	0.2025
300.0038	0.1946
300.216	0.202
300.4282	0.1972
300.6403	0.1947
300.8525	0.2015
301.0646	0.197
301.2767	0.1972
301.4888	0.1985
301.7009	0.201
301.913	0.2022
302.125	0.1986
302.3371	0.1944
302.5491	0.198
302.7612	0.1946
302.9732	0.1926
303.1852	0.2001
303.3972	0.1982
303.6092	0.1891
303.8211	0.1929
304.0331	0.193
304.245	0.1944
304.457	0.197
304.6689	0.1981
304.8808	0.1917
305.0927	0.1922
305.3046	0.191
305.5164	0.1813
305.7283	0.1908
305.9401	0.1843
306.152	0.1819
306.3638	0.1858
306.5756	0.1872
306.7874	0.1785
306.9992	0.1848
307.2109	0.1766
307.4227	0.1732
307.6344	0.1762
307.8462	0.1734
308.0579	0.1711
308.2696	0.1606
308.4813	0.1638
308.693	0.1651
308.9046	0.1601
309.1163	0.1626
309.328	0.1582
309.5396	0.1579
309.7512	0.1581
309.9628	0.1489
310.1744	0.1582
310.386	0.1487
310.5976	0.1454
310.8091	0.1481
311.0207	0.1455
311.2322	0.146
311.4437	0.1438
311.6552	0.1439
311.8667	0.1407
312.0782	0.1427
312.2897	0.1455
312.5012	0.1422
312.7126	0.1273
312.924	0.1339
313.1355	0.1333
313.3469	0.1285
313.5583	0.1323
313.7696	0.1309
313.981	0.1284
314.1924	0.1317
314.4037	0.1246
314.6151	0.1287
314.8264	0.1255
315.0377	0.1255
315.249	0.1275
315.4603	0.1207
315.6716	0.1212
315.8828	0.1229
316.0941	0.1239
316.3053	0.118
316.5165	0.1198
316.7277	0.1206
316.9389	0.1196
317.1501	0.1196
317.3613	0.1157
317.5724	0.1227
317.7836	0.1153
317.9947	0.112
318.2058	0.1189
318.417	0.1173
318.6281	0.1126
318.8391	0.1188
319.0502	0.1169
319.2613	0.1109
319.4723	0.1175
319.6834	0.1237
319.8944	0.1205
320.1054	0.1123
320.3164	0.1199
320.5274	0.1126
320.7383	0.1141
320.9493	0.1137
321.1602	0.1115
321.3712	0.1183
321.5821	0.1227
321.793	0.1162
322.0039	0.1167
322.2148	0.115
322.4257	0.1151
322.6365	0.1165
322.8474	0.113
323.0582	0.1181
323.269	0.1146
323.4798	0.1194
323.6906	0.119
323.9014	0.1146
324.1122	0.1197
324.3229	0.1216
324.5337	0.1207
324.7444	0.1175
324.9551	0.1224
325.1658	0.1133
325.3765	0.119
325.5872	0.1143
325.7979	0.1215
326.0085	0.1168
326.2192	0.1129
326.4298	0.1243
326.6404	0.1228
326.851	0.1225
327.0616	0.1274
327.2722	0.1232
327.4828	0.1198
327.6933	0.1196
327.9039	0.1221
328.1144	0.12
328.3249	0.1216
328.5354	0.1169
328.7459	0.12
328.9564	0.1263
329.1669	0.1261
329.3773	0.1239
329.5878	0.1191
329.7982	0.1264
330.0086	0.1256
330.219	0.1278
330.4294	0.1263
330.6398	0.1287
330.8502	0.1249
331.0605	0.1235
331.2708	0.1264
331.4812	0.1213
331.6915	0.1237
331.9018	0.1173
332.1121	0.1305
332.3224	0.1267
332.5326	0.1303
332.7429	0.1225
332.9531	0.133
333.1633	0.123
333.3735	0.1222
333.5837	0.1262
333.7939	0.1258
334.0041	0.131
334.2143	0.1258
334.4244	0.1193
334.6346	0.1251
334.8447	0.1317
335.0548	0.1234
335.2649	0.1292
335.475	0.1318
335.685	0.1234
335.8951	0.1346
336.1051	0.1257
336.3152	0.1257
336.5252	0.1302
336.7352	0.1236
336.9452	0.1327
337.1552	0.1281
337.3652	0.1311
337.5751	0.1285
337.7851	0.128
337.995	0.1307
338.2049	0.1283
338.4148	0.1299
338.6247	0.1257
338.8346	0.1272
339.0445	0.133
339.2543	0.1314
339.4642	0.133
339.674	0.132
339.8838	0.1337
340.0936	0.1342
340.3034	0.1366
340.5132	0.1312
340.7229	0.1298
340.9327	0.14
341.1424	0.1358
341.3522	0.1408
341.5619	0.1408
341.7716	0.142
341.9813	0.1472
342.1909	0.1468
342.4006	0.1427
342.6102	0.139
342.8199	0.1355
343.0295	0.1395
343.2391	0.1411
343.4487	0.147
343.6583	0.1514
343.8679	0.1419
344.0774	0.1441
344.287	0.1473
344.4965	0.1381
344.706	0.147
344.9155	0.141
345.125	0.1429
345.3345	0.1421
345.544	0.1517
345.7534	0.1513
345.9629	0.1483
346.1723	0.1447
346.3817	0.1478
346.5911	0.1531
346.8005	0.1531
347.0099	0.1581
347.2193	0.1491
347.4286	0.1517
347.638	0.1478
347.8473	0.1562
348.0566	0.1562
348.2659	0.1601
348.4752	0.1622
348.6845	0.1588
348.8937	0.1578
349.103	0.1554
349.3122	0.1581
349.5214	0.1589
349.7306	0.1596
349.9398	0.1646
350.149	0.1687
350.3582	0.1571
350.5674	0.1606
350.7765	0.1647
350.9856	0.1601
351.1948	0.1636
351.4039	0.1633
351.613	0.1726
351.822	0.167
352.0311	0.1623
352.2402	0.1696
352.4492	0.1725
352.6582	0.165
352.8672	0.1709
353.0762	0.1704
353.2852	0.1789
353.4942	0.1757
353.7032	0.1696
353.9121	0.1744
354.1211	0.1707
354.33	0.1835
354.5389	0.1793
354.7478	0.1787
354.9567	0.1738
355.1655	0.1752
355.3744	0.1794
355.5833	0.1828
355.7921	0.1854
356.0009	0.176
356.2097	0.1832
356.4185	0.1878
356.6273	0.1869
356.8361	0.1984
357.0448	0.1923
357.2536	0.1892
357.4623	0.1819
357.671	0.1888
357.8797	0.1954
358.0884	0.186
358.2971	0.1909
358.5057	0.1884
358.7144	0.2012
358.923	0.1976
359.1316	0.1937
359.3402	0.1945
359.5488	0.1992
359.7574	0.2001
359.966	0.2012
360.1746	0.198
360.3831	0.2046
360.5916	0.2016
360.8002	0.2122
361.0087	0.2105
361.2172	0.2087
361.4256	0.1999
361.6341	0.2154
361.8426	0.2127
362.051	0.2153
362.2594	0.21
362.4678	0.21
362.6762	0.2177
362.8846	0.2232
363.093	0.2221
363.3014	0.2205
363.5097	0.2199
363.718	0.2212
363.9264	0.2198
364.1347	0.2257
364.343	0.2387
364.5513	0.2261
364.7595	0.2239
364.9678	0.2248
365.176	0.2317
365.3842	0.2308
365.5925	0.2268
365.8007	0.2327
366.0089	0.2368
366.217	0.2336
366.4252	0.2383
366.6333	0.2422
366.8415	0.2381
367.0496	0.2321
367.2577	0.2508
367.4658	0.2525
367.6739	0.238
367.882	0.2397
368.09	0.2421
368.2981	0.2414
368.5061	0.2445
368.7141	0.2506
368.9221	0.2457
369.1301	0.2552
369.3381	0.2514
369.5461	0.2526
369.754	0.2553
369.962	0.2556
370.1699	0.2602
370.3778	0.2619
370.5857	0.2592
370.7936	0.2664
371.0015	0.2596
371.2093	0.2647
371.4172	0.2635
371.625	0.2596
371.8328	0.2587
372.0406	0.2617
372.2484	0.2669
372.4562	0.2627
372.664	0.2709
372.8717	0.2686
373.0795	0.2686
373.2872	0.2678
373.4949	0.272
373.7026	0.2773
373.9103	0.2617
374.118	0.275
374.3256	0.2752
374.5333	0.2783
374.7409	0.2594
374.9485	0.276
375.1561	0.2825
375.3637	0.2768
375.5713	0.2747
375.7789	0.2786
375.9864	0.2746
376.194	0.2802
376.4015	0.2794
376.609	0.2829
376.8165	0.2902
377.024	0.2798
377.2315	0.2926
377.4389	0.2799
377.6464	0.286
377.8538	0.29
378.0612	0.2868
378.2686	0.2932
378.476	0.2985
378.6834	0.2858
378.8908	0.2872
379.0981	0.2876
379.3055	0.3047
379.5128	0.2933
379.7201	0.2976
379.9274	0.2989
380.1347	0.2969
380.342	0.3019
380.5492	0.2991
380.7565	0.2984
380.9637	0.2991
381.1709	0.2955
381.3781	0.3039
381.5853	0.3064
381.7925	0.307
381.9997	0.3002
382.2068	0.305
382.4139	0.3087
382.6211	0.3073
382.8282	0.3038
383.0353	0.31
383.2424	0.3125
383.4494	0.311
383.6565	0.3024
383.8635	0.3311
384.0706	0.3125
384.2776	0.3229
384.4846	0.3127
384.6916	0.3069
384.8986	0.3144
385.1055	0.3152
385.3125	0.3169
385.5194	0.3012
385.7263	0.3046
385.9333	0.3099
386.1402	0.3197
386.347	0.3139
386.5539	0.313
386.7608	0.3125
386.9676	0.3181
387.1744	0.3129
387.3813	0.3151
387.5881	0.312
387.7948	0.3215
388.0016	0.3097
388.2084	0.3123
388.4151	0.306
388.6219	0.3076
388.8286	0.3162
389.0353	0.3017
389.242	0.3093
389.4487	0.3192
389.6553	0.303
389.862	0.3091
390.0686	0.2996
390.2753	0.3009
390.4819	0.3004
390.6885	0.2931
390.8951	0.3158
391.1016	0.3152
391.3082	0.3073
391.5147	0.2986
391.7213	0.2885
391.9278	0.2957
392.1343	0.2918
392.3408	0.2889
392.5473	0.2919
392.7537	0.2902
392.9602	0.2888
393.1666	0.2936
393.373	0.294
393.5794	0.2794
393.7858	0.2948
393.9922	0.2943
394.1986	0.2775
394.4049	0.2834
394.6113	0.2804
394.8176	0.2704
395.0239	0.2758
395.2302	0.2694
395.4365	0.2813
395.6428	0.2747
395.8491	0.2766
396.0553	0.2712
396.2615	0.2721
396.4678	0.2869
396.674	0.2709
396.8802	0.2785
397.0863	0.2726
397.2925	0.2698
397.4987	0.2685
397.7048	0.2703
397.9109	0.2693
398.117	0.2627
398.3231	0.2766
398.5292	0.2687
398.7353	0.267
398.9413	0.2678
399.1474	0.2672
399.3534	0.2673
399.5594	0.2751
399.7654	0.2757
399.9714	0.2592
400.1774	0.2569
400.3833	0.2694
400.5893	0.265
400.7952	0.2764
401.0011	0.2639
401.207	0.2741
401.4129	0.2658
401.6188	0.2617
401.8247	0.2704
402.0305	0.2663
402.2364	0.2673
402.4422	0.2705
402.648	0.2642
402.8538	0.2704
403.0596	0.2646
403.2654	0.2674
403.4711	0.2683
403.6768	0.2723
403.8826	0.2685
404.0883	0.2637
404.294	0.2601
404.4997	0.2635
404.7054	0.2604
404.911	0.262
405.1167	0.2731
405.3223	0.2691
405.5279	0.2701
405.7335	0.2624
405.9391	0.2642
406.1447	0.2757
406.3502	0.2773
406.5558	0.2643
406.7613	0.271
406.9668	0.2667
407.1724	0.2827
407.3778	0.259
407.5833	0.2753
407.7888	0.2635
407.9942	0.2726
408.1997	0.2652
408.4051	0.2818
408.6105	0.2806
408.8159	0.2597
409.0213	0.27
409.2267	0.2634
409.432	0.274
409.6374	0.2692
409.8427	0.2686
410.048	0.2472
410.2533	0.2579
410.4586	0.2664
410.6639	0.2676
410.8691	0.2781
411.0744	0.2707
411.2796	0.272
411.4848	0.2608
411.69	0.2682
411.8952	0.2649
412.1004	0.2618
412.3056	0.2666
412.5107	0.2709
412.7158	0.2706
412.921	0.2602
413.1261	0.2743
413.3312	0.2598
413.5362	0.2651
413.7413	0.2754
413.9464	0.2561
414.1514	0.2647
414.3564	0.2647
414.5614	0.2662
414.7664	0.26
414.9714	0.2698
415.1764	0.2586
415.3813	0.251
415.5863	0.2553
415.7912	0.2603
415.9961	0.2581
416.201	0.2687
416.4059	0.2496
416.6108	0.2547
416.8156	0.2556
417.0205	0.2609
417.2253	0.268
417.4301	0.2671
417.6349	0.2625
417.8397	0.2555
418.0445	0.2616
418.2492	0.2561
418.454	0.2593
418.6587	0.257
418.8634	0.2557
419.0681	0.2538
419.2728	0.2428
419.4775	0.2561
419.6822	0.2426
419.8868	0.2556
420.0915	0.2565
420.2961	0.2562
420.5007	0.2554
420.7053	0.2553
420.9099	0.236
421.1144	0.236
421.319	0.2438
421.5235	0.237
421.728	0.2454
421.9325	0.2457
422.137	0.2368
422.3415	0.2379
422.546	0.242
422.7504	0.2442
422.9549	0.2354
423.1593	0.2386
423.3637	0.2309
423.5681	0.2393
423.7725	0.2329
423.9769	0.2393
424.1812	0.2445
424.3856	0.2432
424.5899	0.2328
424.7942	0.2276
424.9985	0.2237
425.2028	0.2294
425.4071	0.2151
425.6113	0.231
425.8156	0.2271
426.0198	0.2246
426.224	0.2198
426.4282	0.2272
426.6324	0.2312
426.8366	0.217
427.0407	0.2158
427.2449	0.2255
427.449	0.2127
427.6531	0.2177
427.8572	0.2122
428.0613	0.2021
428.2654	0.2154
428.4694	0.2044
428.6735	0.2103
428.8775	0.208
429.0815	0.2112
429.2855	0.1981
429.4895	0.1922
429.6935	0.1988
429.8975	0.2032
430.1014	0.1998
430.3053	0.1974
430.5093	0.1966
430.7132	0.1933
430.9171	0.1977
431.1209	0.1952
431.3248	0.1904
431.5286	0.1763
431.7325	0.1994
431.9363	0.1877
432.1401	0.1818
432.3439	0.1721
432.5477	0.1832
432.7514	0.1689
432.9552	0.1698
433.1589	0.1745
433.3627	0.177
433.5664	0.1732
433.7701	0.1758
433.9737	0.1617
434.1774	0.171
434.3811	0.1568
434.5847	0.1584
434.7883	0.16
434.9919	0.15
435.1955	0.1674
435.3991	0.1584
435.6027	0.1451
435.8062	0.1505
436.0098	0.1579
436.2133	0.1544
436.4168	0.1514
436.6203	0.1351
436.8238	0.15
437.0272	0.1347
437.2307	0.1313
437.4341	0.1395
437.6375	0.1284
437.841	0.1392
438.0443	0.1345
438.2477	0.1328
438.4511	0.1361
438.6545	0.1282
438.8578	0.1292
439.0611	0.1305
439.2644	0.1148
439.4677	0.1179
439.671	0.1117
439.8743	0.1141
440.0775	0.12
440.2808	0.1257
440.484	0.1014
440.6872	0.0956
440.8904	0.1069
441.0936	0.1118
441.2967	0.0974
441.4999	0.1061
441.703	0.1036
441.9062	0.1056
442.1093	0.0967
442.3124	0.1046
442.5155	0.0939
442.7185	0.0798
442.9216	0.0947
443.1246	0.0901
443.3276	0.0831
443.5307	0.0845
443.7337	0.0841
443.9366	0.0895
444.1396	0.0723
444.3426	0.0887
444.5455	0.0783
444.7484	0.0746
444.9513	0.0799
445.1542	0.0824
445.3571	0.072
445.56	0.0701
445.7628	0.0641
445.9657	0.0697
446.1685	0.0783
446.3713	0.0771
446.5741	0.0642
446.7769	0.0655
446.9797	0.0581
447.1824	0.0675
447.3852	0.0576
447.5879	0.0591
447.7906	0.0561
447.9933	0.0662
448.196	0.0538
448.3986	0.0537
448.6013	0.0612
448.8039	0.0507
449.0066	0.0492
449.2092	0.0482
449.4118	0.0554
449.6143	0.0473
449.8169	0.0469
450.0195	0.0368
450.222	0.0475
450.4245	0.0505
450.627	0.0411
450.8295	0.0462
451.032	0.0431
451.2345	0.0403
451.4369	0.0429
451.6394	0.0514
451.8418	0.036
452.0442	0.0383
452.2466	0.0415
452.449	0.0344
452.6513	0.0318
452.8537	0.0446
453.056	0.0414
453.2583	0.0304
453.4607	0.03
453.663	0.0361
453.8652	0.0287
454.0675	0.0353
454.2697	0.0271
454.472	0.0294
454.6742	0.0182
454.8764	0.0254
455.0786	0.0254
455.2808	0.0322
455.4829	0.0223
455.6851	0.0313
455.8872	0.034
456.0893	0.0285
456.2915	0.0197
456.4935	0.0173
456.6956	0.0285
456.8977	0.027
457.0997	0.0342
457.3018	0.0223
457.5038	0.0211
457.7058	0.0171
457.9078	0.0312
458.1098	0.0243
458.3117	0.0232
458.5137	0.0263
458.7156	0.0308
458.9175	0.0174
459.1194	0.0193
459.3213	0.0116
459.5232	0.0106
459.725	0.028
459.9269	0.0094
460.1287	0.0185
460.3305	0.0161
460.5323	0.0235
460.7341	0.0154
460.9359	0.0178
461.1376	0.0227
461.3394	0.0112
461.5411	0.0232
461.7428	0.0117
461.9445	0.014
462.1462	0.0149
462.3479	0.0171
462.5495	0.0127
462.7512	0.0007
462.9528	0.008
463.1544	0.0152
463.356	0.0132
463.5576	0.0043
463.7592	0.004
463.9607	0.0116
464.1623	0.0175
464.3638	0.0163
464.5653	0.0077
464.7668	0.0046
464.9683	0.0075
465.1697	0.0116
465.3712	0.0144
465.5726	0.0137
465.7741	0.0055
465.9755	0.0105
466.1769	0.0116
466.3782	0.0136
466.5796	0.0091
466.7809	0.0154
466.9823	0.0088
467.1836	0.021
467.3849	0.0105
467.5862	0.0058
467.7875	0.0177
467.9887	0.0126
468.19	0.0062
468.3912	0.0109
468.5924	0.0117
468.7936	-0.0031
468.9948	0.0224
469.196	0.0129
469.3972	0.0121
469.5983	0.0048
469.7994	0.0035
470.0006	0.0092
470.2017	0.0131
470.4027	-0.0033
470.6038	0.0026
470.8049	0.0062
471.0059	0.0095
471.2069	0.0161
471.408	0.0095
471.6089	0.0174
471.8099	0.0001
472.0109	-0.0041
472.2119	0.009
472.4128	0.0106
472.6137	0.0062
472.8146	0.0132
473.0155	0.0003
473.2164	0.0003
473.4173	0.0125
473.6181	0.0117
473.819	-0.0005
474.0198	-0.0005
474.2206	0.0119
474.4214	0.0133
474.6222	0.0009
474.8229	0.0063
475.0237	0.0004
475.2244	0.012
475.4251	0.0081
475.6258	0.0115
475.8265	0.0027
476.0272	0.0027
476.2278	-0.0006
476.4285	0.0049
476.6291	0.0126
476.8297	0.0023
477.0303	0.013
477.2309	0.0014
477.4315	0.0133
477.632	0.0014
477.8326	0.0091
478.0331	0.0062
478.2336	0.0039
478.4341	0
478.6346	0.0017
478.8351	0.0103
479.0355	0.0087
479.236	-0.001
479.4364	0.0023
479.6368	0.0037
479.8372	0.0066
480.0376	-0.0028
480.2379	0.0003
480.4383	0
480.6386	-0.0008
480.8389	0.0054
481.0392	0.0066
481.2395	0.0062
481.4398	0.0084
481.6401	0.0061
481.8403	-0.0042
482.0405	-0.0033
482.2408	0.0047
482.441	0.0023
482.6411	0.0005
482.8413	-0.0056
483.0415	0.002
483.2416	0.0017
483.4417	-0.007
483.6419	0.0059
483.8419	-0.0027
484.042	-0.0036
484.2421	0.0059
484.4422	0.0044
484.6422	0.007
484.8422	0.0017
485.0422	-0.0019
485.2422	0.0044
485.4422	-0.0036
485.6422	-0.004
485.8421	0.0004
486.042	0.0078
486.242	-0.0004
486.4419	0.006
486.6417	0.0011
486.8416	0.0044
487.0415	-0.002
487.2413	0
487.4411	0.0039
487.641	0.0036
487.8408	0.0051
488.0405	0.0037
488.2403	-0.0014
488.4401	0.0046
488.6398	0.0062
488.8395	0.0028
489.0392	0.0016
489.2389	0.0045
489.4386	0.0045
489.6383	-0.0025
489.8379	0.003
490.0376	0.0061
490.2372	-0.0009
490.4368	0.0105
490.6364	0.0118
490.836	-0.0088
491.0355	0.0002
491.2351	0.0003
491.4346	0.0009
491.6341	-0.005
491.8336	-0.0002
492.0331	0.0003
492.2326	-0.0038
492.432	-0.003
492.6315	-0.0037
492.8309	0.0105
493.0303	-0.0082
493.2297	-0.0033
493.4291	-0.0036
493.6284	-0.0053
493.8278	0.0019
494.0271	0.0033
494.2264	0.0049
494.4257	0.0053
494.625	-0.0036
494.8243	0.0023
495.0236	0.0042
495.2228	-0.0022
495.422	0.0065
495.6213	0.0029
495.8205	-0.0013
496.0196	0.0036
496.2188	0.0036
496.418	-0.0118
496.6171	0.001
496.8162	0.0027
497.0153	0.0031
497.2144	-0.0084
497.4135	0.0065
497.6126	-0.009
497.8116	-0.0019
498.0107	0.0038
498.2097	0.009
498.4087	0.0066
498.6077	0.003
498.8067	0.0124
499.0056	0.0009
499.2046	0.0053
499.4035	-0.0028
499.6024	-0.0097
499.8013	0.0017
500.0002	0.0012
500.199	0.0052
500.3979	0.0048
500.5967	-0.0076
500.7956	-0.0056
500.9944	0.0046
501.1932	0.0028
501.3919	0.0024
501.5907	0.007
501.7895	-0.0065
501.9882	0.0025
502.1869	0.0025
502.3856	-0.0032
502.5843	-0.0079
502.783	0.0056
502.9816	-0.0045
503.1803	0.0066
503.3789	0.0038
503.5775	-0.0054
503.7761	0.0025
503.9747	-0.008
504.1732	0.0032
504.3718	0.0003
504.5703	0.0025
504.7689	-0.0068
504.9674	-0.0019
505.1658	0.0085
505.3643	-0.0036
505.5628	0.004
505.7612	0.0076
505.9597	0.0064
506.1581	-0.005
506.3565	-0.0165
506.5549	0.0118
506.7532	0.0075
506.9516	0.0041
507.1499	-0.001
507.3482	0.0093
507.5465	-0.0058
507.7448	0.0037
507.9431	0.0045
508.1414	-0.0028
508.3396	0.0011
508.5379	0.0017
508.7361	0.0078
508.9343	0.0027
509.1325	0.0065
509.3306	0.0007
509.5288	0.0079
509.7269	-0
509.9251	-0.0022
510.1232	0.0008
510.3213	0.0034
510.5193	0.0091
510.7174	-0.01
510.9154	0.0038
511.1135	0.0015
511.3115	-0.0061
511.5095	0.0065
511.7075	-0.0035
511.9055	0.0079
512.1034	-0.0056
512.3014	-0.004
512.4993	0.0025
512.6972	-0.0047
512.8951	0.0065
513.093	0.0038
513.2908	-0.0001
513.4887	0.0186
513.6865	-0.0119
513.8844	0.0011
514.0822	0.0016
514.2799	-0.0022
514.4777	-0.0022
514.6755	-0.0051
514.8732	0.0002
515.0709	0.0017
515.2687	0.0008
515.4664	-0.0123
515.664	0.0051
515.8617	0.0121
516.0594	0.0007
516.257	0.0046
516.4546	-0.004
516.6522	0.0041
516.8498	0.0061
517.0474	-0.007
517.2449	0.0013
517.4425	0.0018
517.64	-0.0035
517.8375	0.0098
518.035	0.0031
518.2325	-0.0049
518.43	0.0029
518.6274	-0.0061
518.8249	-0.0001
519.0223	0.0023
519.2197	-0.0001
519.4171	0.0066
519.6145	-0.0036
519.8118	-0.0015
520.0092	0.0002
520.2065	-0.0018
520.4038	-0.001
520.6011	0.0052
520.7984	0.0059
520.9956	0.0075
521.1929	0.0077
521.3901	0.0033
521.5874	-0.0014
521.7846	0.0014
521.9818	-0.0045
522.1789	0.0155
522.3761	0.001
522.5732	-0.0008
522.7704	0.0119
522.9675	-0.0091
523.1646	0.0073
523.3617	-0.0004
523.5587	0.0038
523.7558	0.0041
523.9528	0.0017
524.1498	0.0076
524.3468	-0.0031
524.5438	-0.0043
524.7408	-0.0002
524.9378	0.0027
525.1347	0.0134
525.3316	0.0137
525.5285	0.0017
525.7254	0.0038
525.9223	-0.0014
526.1192	-0.0087
526.316	-0.0144
526.5129	0.0061
526.7097	-0.0063
526.9065	0.0029
527.1033	-0.0057
527.3	-0.0024
527.4968	-0.0036
527.6935	0.0015
527.8903	0.0067
528.087	0.0008
528.2837	0.0087
528.4804	0.0095
528.677	-0.0094
528.8737	-0.0036
529.0703	0.0058
529.2669	0.011
529.4635	0.0175
529.6601	0.0009
529.8567	0.0071
530.0532	0.0005
530.2498	-0.0086
530.4463	0.0063
530.6428	-0.0108
530.8393	-0.0058
531.0358	-0.0023
531.2322	0.0055
531.4287	-0.0083
531.6251	-0.0001
531.8215	0.0017
532.0179	-0.0158
532.2143	0.0055
532.4107	0.0062
532.607	-0.0045
532.8034	-0.0005
532.9997	0.0033
533.196	0.0045
533.3923	-0.0089
533.5886	-0.0031
533.7848	-0.0117
533.9811	0.0023
534.1773	0.0042
534.3735	0.0008
534.5697	0.0012
534.7659	-0.0057
534.9621	0.0107
535.1582	0.0029
535.3544	0.0021
535.5505	0.0037
535.7466	0.0046
535.9427	-0.0023
536.1387	0.0044
536.3348	0.0049
536.5308	0.0179
536.7269	-0.0106
536.9229	0.0017
537.1189	-0.0039
537.3148	-0.0104
537.5108	-0.0005
537.7068	0.0077
537.9027	0.0058
538.0986	-0.0068
538.2945	0.0084
538.4904	0.0041
538.6863	0.0091
538.8821	-0.0106
539.078	-0.0025
539.2738	-0.0054
539.4696	0.0111
539.6654	-0.0101
539.8611	0.0038
540.0569	0.0088
540.2526	-0.0029
540.4484	-0.0126
540.6441	0.0036
540.8398	0.0014
541.0355	0.0015
541.2311	0.0048
541.4268	-0.0044
541.6224	0.0032
541.818	0.0067
542.0136	-0.0039
542.2092	0.0028
542.4048	0.0062
542.6003	0.009
542.7959	-0.0007
542.9914	-0.0089
543.1869	-0.0011
543.3824	0.0143
543.5779	0.0086
543.7734	-0.0054
543.9688	0.0008
544.1642	0.0014
544.3596	0.0017
544.555	0.0008
544.7504	0.0062
544.9458	0.0058
545.1411	0.0024
545.3365	0.002
545.5318	-0.0048
545.7271	0.011
545.9224	-0.0088
546.1177	0.0024
546.3129	-0.0064
546.5081	-0.0088
546.7034	-0.0094
546.8986	0.0097
547.0938	0.0005
547.289	-0.0033
547.4841	-0.0023
547.6793	-0.007
547.8744	-0.0005
548.0695	-0.0031
548.2646	-0.0014
548.4597	-0.0087
548.6548	0.0064
548.8498	0.0036
549.0448	0.0032
549.2399	-0.0067
549.4349	0.0103
549.6298	-0.0181
549.8248	-0.011
550.0198	0.0122
550.2147	-0.0087
550.4096	-0.003
550.6045	0.0059
550.7994	0.0003
550.9943	0.0106
551.1892	0.0073
551.384	0.0065
551.5788	0.006
551.7737	-0.008
551.9685	0.0095
552.1632	0.0019
552.358	0.0058
552.5528	-0.0016
552.7475	-0.0047
552.9422	0.008
553.1369	0.001
553.3316	-0.0115
553.5263	-0.0065
553.7209	-0.0015
553.9156	0.0027
554.1102	0.0015
554.3048	0.0047
554.4994	-0.0009
554.694	0.0048
554.8885	-0.0036
555.0831	0.0043
555.2776	-0.0053
555.4721	-0.0123
555.6666	0.0027
555.8611	-0.0057
556.0555	0.0057
556.25	-0.0055
556.4444	-0.007
556.6388	0.0051
556.8332	-0.0016
557.0276	0.0145
557.222	-0.0049
557.4163	-0.005
557.6107	-0.0104
557.805	-0.0098
557.9993	-0.0036
558.1936	0.0079
558.3879	-0.0016
558.5821	-0.0101
558.7764	0.0017
558.9706	-0.0036
559.1648	-0.0024
559.359	0.0081
559.5532	-0.0134
559.7473	0.0053
559.9415	0.0064
560.1356	-0.0016
560.3297	-0.0019
560.5238	0.0083
560.7179	-0.0046
560.9119	0.0121
561.106	-0.0064
561.3	-0.0083
561.494	0.0101
561.688	-0.0028
561.882	0.0007
562.076	0.0148
562.2699	0.0046
562.4639	0.003
562.6578	0.0084
562.8517	0.0055
563.0456	0.0008
563.2395	0.0042
563.4333	-0.0056
563.6272	0.0051
563.821	0.0067
564.0148	-0.0119
564.2086	-0.0006
564.4024	-0.0009
564.5961	-0.0019
564.7899	0.0031
564.9836	0.0047
565.1773	0.0006
565.371	0.0058
565.5647	0.0007
565.7584	0.0002
565.952	0.0038
566.1456	0.0052
566.3393	0.0025
566.5329	-0.002
566.7264	0.0043
566.92	0.0018
567.1136	0.001
567.3071	-0.0062
567.5006	-0.0059
567.6941	0.0042
567.8876	0.0027
568.0811	-0.0116
568.2745	-0.0013
568.468	0.0112
568.6614	-0.002
568.8548	-0.006
569.0482	0.0017
569.2416	-0.0034
569.4349	0.0026
569.6283	0.0053
569.8216	0.0028
570.0149	-0.0017
570.2082	-0.0031
570.4015	0.0034
570.5947	-0.0012
570.788	0.0011
570.9812	-0.0043
571.1744	-0.0004
571.3676	-0.0042
571.5608	-0.0031
571.754	-0.0011
571.9471	0.0022
572.1402	0.0001
572.3333	-0.0023
572.5264	0.005
572.7195	0.0023
572.9126	0.0002
573.1057	0.0011
573.2987	0.0031
573.4917	-0.0005
573.6847	-0.0011
573.8777	-0.0003
574.0707	-0.0048
574.2636	0.0019
574.4566	0.0017
574.6495	0.0062
574.8424	0.0002
575.0353	0.001
575.2281	-0.0014
575.421	-0.0019
575.6138	-0.0018
575.8067	0.0013
575.9995	0
576.1923	0.0028
576.385	-0.0005
576.5778	-0.0011
576.7706	0.0026
576.9633	-0
577.156	0.0014
577.3487	-0.0005
577.5414	-0.0019
577.734	0.0006
577.9267	-0.0011
578.1193	0.0007
578.3119	-0.003
578.5045	-0.001
578.6971	-0.0014
578.8897	0
579.0822	0.0029
579.2747	-0.0036
579.4673	0.0006
579.6598	0.0013
579.8522	-0.0005
580.0447	-0.0009
580.2372	0.0022
580.4296	-0.0035
580.622	-0.0017
580.8144	-0.0003
581.0068	0.002
581.1992	0.0036
581.3915	0
581.5839	0.0022
581.7762	0.0023
581.9685	0.0007
582.1608	0.0003
582.353	-0.0028
582.5453	0.0003
582.7375	-0.0008
582.9298	0.0008
583.122	-0.004
583.3142	0.004
583.5063	-0.0035
583.6985	-0.0028
583.8906	-0.0022
584.0827	-0.002
584.2749	0.0046
584.4669	-0.0006
584.659	-0.0024
584.8511	-0.0011
585.0431	0.0015
585.2352	-0.0058
585.4272	0.0012
585.6192	0.0008
585.8111	-0.0055
586.0031	-0.0021
586.195	0.0019
586.387	0.001
586.5789	0.0048
586.7708	0.0006
586.9627	0.0017
587.1545	0.0014
587.3464	0.0022
587.5382	-0.0035
587.73	0.0017
587.9218	-0.0042
588.1136	-0.0007
588.3053	-0.0058
588.4971	-0.0024
588.6888	0.0014
588.8805	0.0027
589.0722	0.0024
589.2639	0.0003
589.4556	-0.0073
589.6472	-0.0014
589.8389	-0.0025
590.0305	-0.0024
590.2221	0.0041
590.4137	-0.007
590.6052	0.0035
590.7968	0.0041
590.9883	0.0052
591.1798	-0.0097
591.3713	0.0031
591.5628	-0.0006
591.7543	0.0038
591.9458	-0.0023
592.1372	-0.0034
592.3286	-0.0024
592.52	0.0004
592.7114	-0.0065
592.9028	-0.0012
593.0941	-0.0051
593.2855	0.0044
593.4768	0.0029
593.6681	0.0016
593.8594	-0.0043
594.0506	0.0026
594.2419	-0.0078
594.4331	-0.0035
594.6244	0.0055
594.8156	-0.0013
595.0067	0.0004
595.1979	-0.0024
595.3891	-0.0045
595.5802	0.001
595.7713	0.0024
595.9624	0.0029
596.1535	0.0043
596.3446	-0.0034
596.5357	-0.0002
596.7267	0.0022
596.9177	-0.0001
597.1087	-0.0006
597.2997	0.0014
597.4907	-0.0017
597.6817	0.0017
597.8726	0.0062
598.0635	-0.0037
598.2544	-0.0089
598.4453	-0.0033
598.6362	-0.004
598.827	0.0016
599.0179	0.005
599.2087	0.0009
599.3995	0.0069
599.5903	-0
599.7811	0.0008
599.9718	0.0023
600.1626	-0
600.3533	-0.0031
600.544	-0.0076
600.7347	0.0022
600.9254	0.0002
601.116	-0.001
601.3067	0.005
601.4973	0.0103
601.6879	-0.0042
601.8785	-0.0042
602.0691	0.0006
602.2596	-0.0004
602.4502	0.0011
602.6407	0.0053
602.8312	-0.0001
603.0217	0.0016
603.2122	0.0018
603.4027	0.0007
603.5931	-0.0007
603.7835	0.0027
603.9739	-0.001
604.1643	0.0014
604.3547	0.0039
604.5451	0.0009
604.7354	-0.0071
604.9257	-0.0042
605.116	-0.0019
605.3063	-0.0023
605.4966	0.008
605.6869	-0.0023
605.8771	0.002
606.0673	-0.0026
606.2575	-0.0056
606.4477	0.0079
606.6379	-0.0011
606.8281	-0.0077
607.0182	0
607.2083	-0.007
607.3985	0.0022
607.5885	0.001
607.7786	0.0045
607.9687	0.0008
608.1587	0.0007
608.3488	-0.0091
608.5388	-0.0002
608.7288	-0.0092
608.9187	0.0081
609.1087	0.0011
609.2986	-0.0031
609.4886	0.0042
609.6785	0.001
609.8684	-0.0065
610.0582	-0
610.2481	-0.0022
610.4379	0.007
610.6278	-0.005
610.8176	0.0045
611.0074	0.0007
611.1971	0.0052
611.3869	0.0028
611.5766	0.0018
611.7664	0.003
611.9561	-0.0021
612.1458	-0.0011
612.3354	0.0022
612.5251	-0.0021
612.7147	0.0024
612.9044	-0.0003
613.094	-0.0012
613.2836	-0.0031
613.4731	-0.0051
613.6627	0.0076
613.8522	-0.0041
614.0417	0.0032
614.2313	-0.0094
614.4207	0.006
614.6102	-0.0027
614.7997	-0.0011
614.9891	0.0015
615.1785	-0.0037
615.3679	-0.0017
615.5573	-0.0061
615.7467	-0.0083
615.9361	-0.0111
616.1254	-0.0052
616.3147	0.0051
616.504	-0.0044
616.6933	0.001
616.8826	0.0069
617.0718	-0.0002
617.2611	-0.0004
617.4503	-0.0015
617.6395	-0.005
617.8287	0.0021
618.0179	-0.0059
618.207	0.0057
618.3961	-0.0071
618.5853	-0.0003
618.7744	0.0083
618.9634	0.0095
619.1525	-0.0008
619.3416	0.0034
619.5306	0.0031
619.7196	-0.0105
619.9086	0.0119
620.0976	0.0032
620.2866	-0.0007
620.4755	0.0271
620.6645	-0.0104
620.8534	-0.0001
621.0423	-0.0077
621.2312	-0.0123
621.42	-0.0003
621.6089	-0.0026
621.7977	-0.0065
621.9865	0.008
622.1753	0.0042
622.3641	-0.0068
622.5529	-0.0085
622.7416	-0.0058
622.9303	-0.0015
623.1191	-0.006
623.3078	-0.0015
623.4964	-0.0113
623.6851	-0.0004
623.8737	0.0004
624.0624	-0.0022
624.251	-0.0027
624.4396	-0.0013
624.6282	-0.0026
624.8167	0.0205
625.0053	0.0061
625.1938	-0.0006
625.3823	0.0012
625.5708	0.004
625.7593	-0.0027
625.9477	-0.0119
626.1362	-0.0078
626.3246	-0.02
626.513	-0.002
626.7014	-0.0016
626.8898	-0.0044
627.0781	0.0074
627.2665	0.0047
627.4548	0.0022
627.6431	-0.012
627.8314	-0.0026
628.0197	0.0087
628.2079	-0.0059
628.3962	0.0048
628.5844	0.0027
628.7726	0.0035
628.9608	-0.0098
629.1489	-0.0069
629.3371	-0.0009
629.5252	0.0056
629.7134	0.0119
629.9015	-0.0118
630.0895	0.003
630.2776	0.003
630.4657	0.0098
630.6537	-0.0041
630.8417	-0.0044
631.0297	-0.0027
631.2177	0.001
631.4057	-0.011
631.5936	-0.0085
631.7815	0.0029
631.9695	0.0101
632.1574	-0.0045
632.3452	0.0042
632.5331	0.0056
632.7209	0.0157
632.9088	0.01
633.0966	0.0039
633.2844	-0.0078
633.4722	-0.0012
633.6599	-0.0159
633.8477	0.0016
634.0354	0.0084
634.2231	0.0079
634.4108	0.0028
634.5985	-0.0047
634.7861	-0.016
634.9738	-0.0066
635.1614	0.0036
635.349	-0.0091
635.5366	-0.0072
635.7242	0.0105
635.9117	0.0172
636.0993	-0.0146
636.2868	-0.0025
636.4743	0.0139
636.6618	0.0024
636.8492	-0.012
637.0367	0.0021
637.2241	0.0003
637.4115	0.0022
637.5989	-0.005
637.7863	-0.0071
637.9737	0.0042
638.161	-0.0009
638.3484	0.0011
638.5357	0.0078
638.723	0.0091
638.9103	0.0011
639.0975	-0.0123
639.2848	0.0216
639.472	-0.0107
639.6592	0.0105
639.8464	0.0078
640.0336	-0.0051
640.2208	-0.0132
640.4079	0.0068
640.595	-0.0021
640.7821	0.0174
640.9692	-0.0056
641.1563	0.0167
641.3434	0.0224
641.5304	-0.0037
641.7174	0.0065
641.9044	-0.01
642.0914	-0.001
642.2784	0.0057
642.4653	0.0186
642.6523	0.0042
642.8392	-0.0014
643.0261	0.0045
643.213	0.0083
643.3999	0.0055
643.5867	-0.0118
643.7735	0.0084
643.9604	-0.0025
644.1472	-0.0018
644.3339	-0.0081
644.5207	-0.0052
644.7075	-0.0107
644.8942	0.0057
645.0809	-0.0013
645.2676	0.0011
645.4543	-0.0043
645.6409	-0.0006
645.8276	-0.0187
646.0142	-0.0025
646.2008	-0.0115
646.3874	0.0131
646.574	-0.02
646.7605	0.0101
646.9471	0.0113
647.1336	-0.0111
647.3201	0.0116
647.5066	-0.0105
647.6931	-0.0013
647.8795	0.004
648.0659	-0.0154
648.2524	0.0015
648.4388	0.0001
648.6252	-0.0207
648.8115	0.0051
648.9979	-0.0187
649.1842	-0.0181
649.3705	0.0005
649.5568	-0.0148
649.7431	-0.0025
649.9294	0.0081
650.1156	-0.0123
650.3018	0.0141
650.488	0.0014
650.6742	0.0232
650.8604	0.0009
651.0466	0.0105
651.2327	0.0026
651.4188	-0.0202
651.6049	-0.0156
651.791	0.0253
651.9771	-0.0078
652.1632	0.004
652.3492	0.0129
652.5352	0.0141
652.7212	0.0042
652.9072	0.007
653.0932	-0.0025
653.2791	-0.0086
653.465	-0.0053
653.651	-0.0007
653.8369	0.0213
654.0227	-0.0125
654.2086	0.0116
654.3944	-0.0188
654.5803	0.0075
654.7661	-0.0016
654.9519	-0.0006
655.1377	0.0002
655.3234	0.0002
655.5092	0.0002
655.6949	0.0002
655.8806	0.0002
656.0663	0.0002
656.2519	0.0002
656.4376	0.0002
656.6232	0.0002
656.8088	0.0002
656.9945	0.0002
657.18	0.0002
657.3656	0.0002
657.5511	0.0002
657.7367	0.0002
657.9222	0.0002
658.1077	0.0002
658.2932	0.0002
658.4786	0.0002
658.6641	0.0002
658.8495	0.0002
659.0349	0.0002
659.2203	0.0002
659.4057	0.0092
659.591	0.0317
659.7764	-0.0026
659.9617	-0.0149
660.147	0.0115
660.3323	-0.0141
660.5176	0.0131
660.7028	0.0067
660.888	-0.0019
661.0733	0.0184
661.2585	0.0127
661.4436	0.0201
661.6288	-0.0049
661.8139	0.0185
661.9991	0.0177
662.1842	0.0144
662.3693	0.0045
662.5544	-0.0025
662.7394	0.0223
662.9245	0.0176
663.1095	-0.004
663.2945	-0.0038
663.4795	0.0029
663.6644	-0.0009
663.8494	0.0092
664.0343	-0.01
664.2193	-0.0075
664.4042	-0.0247
664.589	-0.0048
664.7739	0.0087
664.9587	0.0001
665.1436	-0.0093
665.3284	0.0065
665.5132	0.0044
665.698	-0.0155
665.8827	-0.0187
666.0675	-0.0117
666.2522	0.0264
666.4369	-0.0238
666.6216	-0.0131
666.8063	0.0002
666.9909	-0.0086
667.1756	0.0141
667.3602	-0.0166
667.5448	-0.0154
667.7294	-0.0143
667.9139	-0.0168
668.0985	0.0065
668.283	-0.0108
668.4675	-0.0117
668.652	-0.0241
668.8365	-0.0144
669.0209	-0.0215
669.2054	-0.0078
669.3898	0.0037
669.5742	0.0111
669.7586	0.0199
669.943	-0.0093
670.1273	0.0197
670.3117	0.0204
670.496	0.0203
670.6803	0.0053
670.8646	0.0096
671.0488	0.0198
671.2331	0.0025
671.4173	0.0094
671.6015	-0.0038
671.7857	-0.0089
671.9699	0.0105
672.1541	-0.0001
672.3382	-0.0018
672.5223	-0.0089
672.7064	0.0047
672.8905	0.0129
673.0746	0.001
673.2587	0.0067
673.4427	-0.0375
673.6267	-0.0227
673.8107	-0.0157
673.9947	-0.0191
674.1787	0.0017
674.3626	-0.0324
674.5465	-0.0034
674.7304	-0.0407
674.9143	0.0219
675.0982	-0.0017
675.2821	0.0028
675.4659	-0.009
675.6497	0.0052
675.8335	0.0104
676.0173	-0.0022
676.2011	-0.0142
676.3849	-0.0131
676.5686	-0.0059
676.7523	0.0042
676.936	-0.0178
677.1197	0.0246
677.3034	0.0063
677.487	0.0044
677.6706	0.0006
677.8542	0.0183
678.0378	0.0013
678.2214	0.0006
678.405	0.0121
678.5885	-0.0015
678.772	-0.0271
678.9555	-0.0016
679.139	-0.0015
679.3225	-0.0259
679.5059	-0.008
679.6894	-0.0095
679.8728	-0.0102
680.0562	-0.0091
680.2395	-0.0103
680.4229	-0.0166
680.6062	0.0066
680.7896	0.0038
680.9729	0.0105
681.1562	-0.0156
681.3394	0.0029
681.5227	-0.0244
681.7059	-0.0084
681.8891	-0.0007
682.0723	-0.0047
682.2555	0.0167
682.4387	0.0297
682.6218	0.0053
682.805	0.0091
682.9881	-0.0004
683.1712	0.0116
683.3542	-0.0357
683.5373	0.0091
683.7203	-0.0055
683.9034	0.0012
684.0864	-0.0065
684.2694	0.0096
684.4523	-0.002
684.6353	0.0139
684.8182	-0.0089
685.0011	0.0001
685.184	-0.0031
685.3669	-0.0064
685.5498	0.008
685.7326	0.0034
685.9154	-0.0082
686.0982	0.0101
686.281	-0.0127
686.4638	0.017
686.6465	-0.0127
686.8293	-0.002
687.012	-0.0087
687.1947	0.0066
687.3774	-0.0008
687.56	-0.0205
687.7427	-0.0105
687.9253	0.0165
688.1079	0.0162
688.2905	-0.005
688.4731	0.0261
688.6556	0.0048
688.8382	-0.0101
689.0207	-0.0201
689.2032	-0.0023
689.3857	-0.0066
689.5681	-0.0041
689.7506	-0.02
689.933	0.0069
690.1154	-0.0194
690.2978	-0.016
690.4802	0.0052
690.6626	-0.0085
690.8449	-0.016
691.0272	-0.0246
691.2095	0.0043
691.3918	0.0004
691.5741	0.0102
691.7563	0.0083
691.9386	-0.0164
692.1208	-0.0108
692.303	0.0104
692.4852	0.013
692.6673	-0.0083
692.8495	-0.0102
693.0316	-0.0128
693.2137	0.0324
693.3958	-0.0068
693.5778	-0.0189
693.7599	-0.0406
693.9419	0.0142
694.1239	-0.0044
694.3059	-0.0271
694.4879	-0.0231
694.6699	0.0027
694.8518	0.0062
695.0337	0.0178
695.2157	-0.0136
695.3975	0.0047
695.5794	-0.0139
695.7613	0.0191
695.9431	-0.0295
696.1249	-0.0253
696.3067	-0.0004
696.4885	-0.0178
696.6703	-0.0001
696.852	-0.0098
697.0337	0.0017
697.2154	0.0014
697.3971	0.023
697.5788	0.0112
697.7605	-0.0103
697.9421	0.0122
698.1237	0.0237
698.3053	-0.0054
698.4869	0.0056
698.6685	0.0124
698.85	-0.0102
699.0315	-0.0134
699.213	-0.0008
699.3945	0.0127
699.576	-0.012
699.7575	-0.0002
699.9389	-0.0073
700.1203	-0.0104
700.3017	-0.0131
700.4831	0.0161
700.6645	0.012
700.8458	0.0002
701.0271	0.0073
701.2084	-0.0318
701.3897	0.0115
701.571	-0.0094
701.7523	-0.0154
701.9335	0.0479
702.1147	-0.0073
702.2959	0.0008
702.4771	-0.0044
702.6583	-0.0278
702.8394	-0.0018
703.0205	0.0041
703.2016	0.0086
703.3827	0.0092
703.5638	0.0156
703.7449	0.0039
703.9259	0.0212
704.1069	0.0254
704.2879	0.0161
704.4689	-0.008
704.6499	-0.038
704.8308	-0.011
705.0117	-0.0296
705.1927	0.0034
705.3735	0.0131
705.5544	0.0212
705.7353	-0.0063
705.9161	0.0002
706.0969	0.0034
706.2777	0.0002
706.4585	0.006
706.6393	-0.0001
706.82	-0.0202
707.0007	-0.0109
707.1815	0.0172
707.3621	0.0004
707.5428	0.0045
707.7235	0.0264
707.9041	-0.0145
708.0847	-0.0097
708.2653	0.0025
708.4459	0.009
708.6265	-0.0086
708.807	-0.0135
708.9875	-0.0031
709.168	0.0049
709.3485	0.0139
709.529	0.0265
709.7095	-0.0001
709.8899	0.0174
710.0703	-0.012
710.2507	-0.0233
710.4311	0.0115
710.6115	0.0078
710.7918	-0.0204
710.9721	0.0082
711.1524	0.004
711.3327	-0.0026
711.513	-0.0264
711.6932	-0.0279
711.8735	0.0172
712.0537	-0.0287
712.2339	0.018
712.4141	0.0097
712.5942	-0.0027
712.7744	0.0068
712.9545	-0.0008
713.1346	0.0276
713.3147	0.0103
713.4947	-0.0131
713.6748	-0.0007
713.8548	0.0059
714.0348	0.0159
714.2148	0.0052
714.3948	0.0172
714.5748	-0.0084
714.7547	-0.0169
714.9346	-0.0141
715.1145	0.0015
715.2944	0.0212
715.4743	0.0092
715.6541	-0.0351
715.834	0.0067
716.0138	0.0046
716.1936	-0.0237
716.3733	0.0163
716.5531	0.0111
716.7328	-0.021
716.9126	-0.032
717.0923	0.0008
717.2719	-0.0168
717.4516	-0.004
717.6312	-0.0377
717.8109	0.0271
717.9905	-0.0105
718.1701	-0.0018
718.3496	0.0042
718.5292	-0.0052
718.7087	0.016
718.8882	0.0227
719.0677	-0.0163
719.2472	0.0041
719.4267	0.0051
719.6061	-0.009
719.7856	-0.0062
719.965	0.0164
720.1443	0.0119
720.3237	0.0245
720.5031	0.025
720.6824	0.0049
720.8617	0.0179
721.041	0.0144
721.2203	0.0098
721.3995	-0.0219
721.5788	-0.0349
721.758	-0.0048
721.9372	-0.0099
722.1164	-0.0048
722.2956	0.0149
722.4747	-0.0132
722.6538	0.0082
722.8329	-0.0244
723.012	0.0011
723.1911	0.0105
723.3702	-0.0254
723.5492	0.0345
723.7282	0.0059
723.9072	0.0012
724.0862	-0.0007
724.2652	-0.022
724.4441	0.0241
724.623	-0.0137
724.8019	0.0042
724.9808	-0.0114
725.1597	0.0013
725.3385	-0.0289
725.5174	0.0433
725.6962	0.0148
725.875	0.0012
726.0538	-0.0135
726.2325	0.0002
726.4112	0.0107
726.59	0.0168
726.7687	0.0006
726.9474	0.0062
727.126	-0.0242
727.3047	-0.0067
727.4833	0.0229
727.6619	0.0173
727.8405	0.0075
728.0191	-0.0174
728.1976	-0.0356
728.3762	-0.0402
728.5547	0.0027
728.7332	0.0067
728.9116	-0.0404
729.0901	0.0206
729.2686	-0.0227
729.447	-0.0053
729.6254	0.0062
729.8038	0.0034
729.9821	0.0091
730.1605	-0.0043
730.3388	-0.0167
730.5171	-0.0141
730.6954	0.0259
730.8737	-0.0041
731.0519	0.007
731.2302	0.0002
731.4084	-0.006
731.5866	-0.0211
731.7648	0.0027
731.9429	-0.008
732.1211	0.0042
732.2992	-0.0016
732.4773	-0.0153
732.6554	-0.0193
732.8335	-0.002
733.0115	-0.0037
733.1896	-0.0177
733.3676	-0.0161
733.5456	0.0066
733.7235	-0.0045
733.9015	-0.0024
734.0794	-0.0091
734.2574	0.0016
734.4353	-0.0012
734.6131	0.0004
734.791	0.0153
734.9689	-0.0029
735.1467	0.0004
735.3245	-0.0023
735.5023	0.0046
735.68	-0.0111
735.8578	0.0007
736.0355	-0.0015
736.2132	0.0096
736.3909	0.005
736.5686	-0.0012
736.7463	-0.022
736.9239	0.0025
737.1015	-0.0075
737.2791	-0.0084
737.4567	-0.0043
737.6343	0.0064
737.8118	0.0241
737.9894	-0.0001
738.1669	0.0104
738.3444	0.0042
738.5218	0.0131
738.6993	-0.0032
738.8767	-0.0128
739.0541	0.0109
739.2315	0.0029
739.4089	0.0234
739.5863	0.0189
739.7636	0.0078
739.9409	0.008
740.1182	-0.0202
740.2955	-0.0121
740.4728	-0.0038
740.65	0.0017
740.8272	-0.0198
741.0044	0.0337
741.1816	0.0088
741.3588	0.0159
741.5359	0.0028
741.7131	0.0377
741.8902	-0.0105
742.0673	-0.0036
742.2444	-0.0201
742.4214	0.0026
742.5985	0.0061
742.7755	-0.011
742.9525	0.0198
743.1295	-0.0126
743.3064	0.0032
743.4834	-0.0211
743.6603	0.0449
743.8372	0.0089
744.0141	0.0238
744.191	0.0107
744.3678	0.0263
744.5446	0.0053
744.7215	-0.013
744.8982	0.0099
745.075	0.0177
745.2518	-0.0068
745.4285	0.0122
745.6052	0.0257
745.7819	-0.0092
745.9586	0.0225
746.1353	-0.0272
746.3119	-0.0319
746.4885	0.0249
746.6651	-0.0178
746.8417	-0.0177
747.0183	-0.0293
747.1948	-0.0042
747.3714	0.0137
747.5479	-0.0029
747.7244	-0.0473
747.9008	0.0539
748.0773	0.0122
748.2537	0.0087
748.4301	-0.0012
748.6065	-0.0432
748.7829	0.0023
748.9593	0.0167
749.1356	-0.0202
749.3119	-0.0118
749.4882	0.0027
749.6645	0.0136
749.8408	-0.01
750.017	0.0002
750.1933	0.0209
750.3695	-0.0076
750.5457	-0.011
750.7218	0.0153
750.898	-0.0182
751.0741	0.0217
751.2502	-0.0023
751.4263	0.0141
751.6024	0.0408
751.7784	-0.0272
751.9545	-0.0457
752.1305	-0.0063
752.3065	0.0083
752.4825	-0.0263
752.6584	-0.0058
752.8344	0.0091
753.0103	-0.023
753.1862	-0.0155
753.3621	0.0053
753.5379	-0.0169
753.7138	-0.0308
753.8896	0.0259
754.0654	0.0017
754.2412	0.0297
754.417	-0.0023
754.5927	-0.0179
754.7685	-0.0239
754.9442	-0.0166
755.1199	0.0029
755.2956	-0.0028
755.4712	-0.0153
755.6469	-0.0096
755.8225	0.0096
755.9981	0.0076
756.1736	0.0105
756.3492	-0.0124
756.5248	-0.0253
756.7003	-0.0061
756.8758	-0.0157
757.0513	-0.0085
757.2267	-0.01
757.4022	-0.0047
757.5776	-0.0309
757.753	-0.0078
757.9284	0.0088
758.1038	-0.0134
758.2791	-0.0126
758.4545	-0.0163
758.6298	-0.001
758.8051	-0.0058
758.9803	-0.0097
759.1556	-0.021
759.3308	0.0013
759.506	0.0056
759.6812	0.0064
759.8564	-0.0272
760.0316	-0.0023
760.2067	-0.0058
760.3819	-0.0112
760.557	-0.0086
760.732	0.0344
760.9071	-0.0063
761.0821	-0.0027
761.2572	0.0139
761.4322	-0.0151
761.6072	-0.015
761.7821	0.0105
761.9571	-0.0087
762.132	-0.0025
762.3069	0.006
762.4818	0.0098
762.6567	-0.0095
762.8316	0.0105
763.0064	-0.0462
763.1812	-0.0333
763.356	0.0009
763.5308	-0.0095
763.7055	0.0084
763.8803	-0.0073
764.055	-0.0011
764.2297	-0.0077
764.4044	-0.0012
764.579	-0.0126
764.7537	-0.0154
764.9283	-0.0178
765.1029	0.0056
765.2775	-0.0208
765.4521	-0.0038
765.6266	-0.0106
765.8011	0.0039
765.9756	0.0009
766.1501	0.0118
766.3246	-0.0133
766.4991	-0.0145
766.6735	-0.022
766.8479	-0.0131
767.0223	0.0211
767.1967	-0.0581
767.371	-0.0066
767.5454	0.0032
767.7197	0.0069
767.894	-0.0123
768.0683	0.0041
768.2425	-0.0052
768.4168	0.0192
768.591	-0.01
768.7652	-0.0036
768.9394	-0.0095
769.1135	-0.0058
769.2877	0.0404
769.4618	0.0007
769.6359	0.0102
769.81	-0.0019
769.984	0.0071
770.1581	-0.008
770.3321	-0.0185
770.5061	0.0077
770.6801	0.0162
770.8541	-0.027
771.028	-0.0181
771.202	-0.0379
771.3759	-0.0045
771.5498	-0.008
771.7236	-0.0153
771.8975	-0.032
772.0713	0.0124
772.2451	0.0003
772.4189	-0.0017
772.5927	-0.0087
772.7665	0.0297
772.9402	0.0111
773.1139	0.0122
773.2876	-0.0057
773.4613	-0.002
773.635	0.0038
773.8086	-0.0159
773.9822	-0.0072
774.1558	0.0173
774.3294	-0.045
774.503	-0.0024
774.6765	0.0171
774.8501	0.0071
775.0236	0.0458
775.1971	-0.0542
775.3705	0.0186
775.544	-0.003
775.7174	-0.0031
775.8908	0.0198
776.0642	0.033
776.2376	-0.0148
776.4109	0.0609
776.5843	-0.0154
776.7576	0.0118
776.9309	0.0088
777.1041	-0.0213
777.2774	-0.0326
777.4506	-0.022
777.6238	0.0161
777.797	-0.0033
777.9702	0.022
778.1434	-0.0296
778.3165	-0.0051
778.4896	-0.0061
778.6627	0.0082
778.8358	-0.0295
779.0089	-0.0014
779.1819	-0.0116
779.3549	0.0118
779.5279	-0.0067
779.7009	-0.0249
779.8739	-0.0286
780.0468	0.0124
780.2197	-0.0167
780.3926	-0.0203
780.5655	-0.0354
780.7384	-0.0064
780.9112	0.0163
781.0841	-0.0167
781.2569	-0.0188
781.4297	0.0075
781.6024	-0.0079
781.7752	-0.0494
781.9479	0.028
782.1206	-0.0002
782.2933	0.0211
782.466	-0.0116
782.6386	0.0118
782.8113	-0.0502
782.9839	0.0456
783.1565	-0.019
783.329	0.0137
783.5016	-0.0299
783.6741	0.0111
783.8466	-0.062
784.0191	-0.0017
784.1916	0.0028
784.3641	-0.0658
784.5365	0.0278
784.7089	-0.0207
784.8813	0.0247
785.0537	-0.0203
785.2261	-0.02
785.3984	0.0101
785.5707	0.024
785.743	-0.0595
785.9153	0.0282
786.0876	-0.0363
786.2598	0.0463
786.432	-0.0026
786.6042	0.0759
786.7764	-0.0096
786.9486	0.0085
787.1207	0.0454
787.2928	0.0221
787.4649	0.0247
787.637	0.0067
787.8091	-0.0046
787.9811	0.0199
788.1532	0.0087
788.3252	0.0053
788.4972	0.0009
788.6691	0.0158
788.8411	0.0301
789.013	0.0024
789.1849	0.0119
789.3568	0.0279
789.5287	-0.0493
789.7005	0.0738
789.8723	-0.0411
790.0442	-0.063
790.2159	0.0582
790.3877	-0.0013
790.5595	0.118
790.7312	-0.0004
790.9029	-0.0004
791.0746	0.0907
791.2463	0.0118
791.4179	-0.0145
791.5896	-0.0717
791.7612	-0.0406
791.9328	0.0165
792.1044	-0.0269
792.2759	0.0415
792.4474	-0.007
792.619	0.0364
792.7905	-0.0352
792.9619	0.0286
793.1334	-0.017
793.3048	-0.0331
793.4762	-0.0639
793.6476	-0.0345
793.819	0.0089
793.9904	0.017
794.1617	-0.0093
794.333	-0.0316
794.5043	0.0339
794.6756	0.0278
794.8469	0.0087
795.0181	0.0044
795.1893	-0.035
795.3605	-0.0092
795.5317	0.0323
795.7029	0.0053
795.874	-0.0004
796.0452	-0.0621
796.2163	0.0332
796.3873	0.1434
796.5584	0.0429
796.7294	-0.0526
796.9005	-0.0535
797.0715	-0.0121
797.2425	-0.0144
797.4134	-0.0061
797.5844	0.053
797.7553	0.0181
797.9262	0.013
798.0971	-0.0744
798.2679	0.0531
798.4388	-0.0741
798.6096	0.0396
798.7804	0.0454
798.9512	0.0513
799.122	0.0439
799.2927	-0.0278
799.4635	0.0368
799.6342	0.0434
799.8049	0.0059
799.9755	-0.0421
800.1462	0.0755
800.3168	-0.0375
800.4874	0.0627
800.658	-0.0419
800.8286	0.0097
800.9991	-0.0345
801.1696	0.045
801.3402	0.0441
801.5106	0.0853
801.6811	-0.0305
801.8516	-0.0336
802.022	-0.0722
802.1924	-0.0943
802.3628	-0.1027
802.5332	-0.0393
802.7035	0.0257
802.8739	0.0995
803.0442	0.0028
803.2145	-0.0186
803.3847	-0.0384
803.555	0.0218
803.7252	0.056
803.8954	-0.0079
804.0656	0.073
804.2358	0.0173
804.4059	0.093
804.5761	0.0754
804.7462	-0.0665
804.9163	-0.1047
805.0864	0.0079
805.2564	-0.0258
805.4264	-0.0216
805.5965	0.0858
805.7665	0.1214
805.9364	-0.054
806.1064	-0.0143
806.2763	0.0255
806.4462	-0.0333
806.6161	0.0191
806.786	-0.0221
806.9559	0.0419
807.1257	-0.0078
807.2955	0.0615
807.4653	-0.0293
807.6351	0.0327
807.8048	0.0276
807.9746	0.0325
808.1443	0.0081
808.314	0.032
808.4837	-0.0202
808.6533	0.0608
808.8229	-0.009
808.9926	-0.0066
809.1622	-0.0043
809.3317	-0.0768
809.5013	0.1144
809.6708	0.007
809.8403	-0.0193
810.0098	0.0876
810.1793	0.003
810.3488	0.077
810.5182	-0.0254
810.6876	0.0191
810.857	0.0926
811.0264	-0.0288
811.1958	-0.0428
811.3651	-0.0497
811.5344	0.0899
811.7037	0.0426
811.873	0.0168
812.0422	0.1321
812.2115	-0.0573
812.3807	-0.0629
812.5499	-0.0102
812.7191	0.0404
812.8882	-0.0478
813.0574	-0.0879
813.2265	-0.0403
813.3956	-0.001
813.5646	0.019
813.7337	-0.1388
813.9027	-0.0398
814.0718	0.0041
814.2407	-0.1261
814.4097	-0.0194
814.5787	-0.0122
814.7476	0.0552
814.9165	0.0272
815.0854	0.0377
815.2543	-0.0106
815.4232	-0.073
815.592	0.0547
815.7608	0.0838
815.9296	-0.0451
816.0984	0.3607
816.2671	-0.0329
816.4359	0.1428
816.6046	0.0706
816.7733	-0.0701
816.942	0.0106
817.1106	-0.1047
817.2793	-0.0679
817.4479	0.0045
817.6165	0.1468
817.785	0.0272
817.9536	0.0426
818.1221	0.0924
818.2906	0.117
818.4591	-0.0225
818.6276	0.0888
818.7961	0.0765
818.9645	0.023
819.1329	0.0844
819.3013	0.0324
819.4697	1.3304
819.638	0.0333
819.8064	-0.0017
819.9747	-0.0296
820.143	-0.0148
820.3113	0.1465
820.4795	0.0851
820.6477	-0.0711
820.816	0.0093
820.9842	-0.0257
821.1523	0.1181
821.3205	-0.0573
821.4886	-0.0236
821.6567	0.1591
821.8248	0.0956
821.9929	0.0375
822.1609	0.0421
822.329	0.0938
822.497	-0.0237
822.665	0.2514
822.833	-0.0442
823.0009	-0.16
823.1688	0.0229
823.3367	-0.0986
823.5046	0.0859
823.6725	0.1142
823.8404	-0.1051
824.0082	0.018
824.176	-0.021
824.3438	0.274
824.5116	0.0135
824.6793	0.102
824.847	0.2339
825.0147	0.6892
825.1824	0.1165
825.3501	0.3141
825.5177	0.0375
825.6854	0.2232
825.853	0.1359
826.0206	-0.0085
826.1881	0.1277
826.3557	0.0953
826.5232	0.062
826.6907	0.0514
826.8582	-0.1037
827.0257	-0.1166
827.1931	-0.004
827.3605	0.0506
827.528	0.0821
827.6953	0.0508
827.8627	0.109
828.03	-0.0204
828.1974	-0.1529
828.3647	0.0362
828.532	0.0389
828.6992	0.1834
828.8665	-0.0286
829.0337	-0.0671
829.2009	0.1112
829.3681	0.1922
829.5352	0.1126
829.7024	0.0353
829.8695	-0.0018
830.0366	0.4333
830.2037	0.0854
830.3707	0.0384
830.5378	0.1237
830.7048	-0.256
830.8718	1.4388
831.0388	0.0648
831.2057	-0.0694
831.3727	0.2786
831.5396	-0.096
831.7065	0.2287
831.8734	-0.2297
832.0402	0.1635
832.2071	0.1087
832.3739	0.2187
832.5407	-0
832.7075	0.2191
832.8742	0.1736
833.041	-0.1775
833.2077	-0.0404
833.3744	0.1354
833.541	0.2089
833.7077	0.3295
833.8743	-0.024
834.0409	0.0241
834.2075	0.0467
834.3741	0.0065
834.5407	-0.3178
834.7072	0.1224
834.8737	-0.0353
835.0402	-0.2022
835.2067	0.1329
835.3731	0.3639
835.5395	-0.086
835.706	0.0813
835.8723	0.0395
836.0387	0.2162
836.2051	-0
836.3714	-0.1198
836.5377	0.096
836.704	0.333
836.8703	-0.1332
837.0365	0.6427
837.2027	-0.6233
837.3689	-0.1158
837.5351	0.3422
837.7013	0.1156
837.8674	-0
838.0335	-0.0615
838.1997	0.9488
838.3657	0.0781
838.5318	-0.9009
838.6978	-0
838.8639	0.4369
839.0299	0.221
839.1958	0.1045
839.3618	0.4453
839.5277	-0.1675
839.6937	-0.2208
839.8596	0.0044
840.0254	0.4451
840.1913	0.4208
840.3571	-0.3218
840.523	0.2197
840.6888	-0.1182
840.8545	1.7472
841.0203	0.5359
841.186	0.1681
841.3517	0.1449
841.5174	0.0856
841.6831	0.6001
841.8488	0.0455
842.0144	-0.0103
842.18	-0.0033
842.3456	0.585
842.5112	-0
842.6767	-0.0638
842.8422	0.0882
843.0077	-0
843.1732	-0.0789
843.3387	0.6314
843.5042	-0
843.6696	-0
843.835	0.0375
844.0004	0.1875
844.1657	-0.3934
844.3311	0.2642
844.4964	0.1845
844.6617	-0
844.827	-0
844.9923	0.0942
845.1575	-0.6856
845.3227	-0.1891
845.4879	-0.1551
845.6531	-0.1947
845.8183	0.5703
845.9834	-0
846.1485	0.682
846.3136	0.3341
846.4787	-0
846.6438	0.425
846.8088	-1.2772
846.9738	-0
847.1388	0.138
847.3038	0.7813
847.4687	-0.8239
847.6337	0.21
847.7986	0.3285
847.9635	-0.0789
848.1284	-0
848.2932	-0
848.458	-0.0039
848.6228	-0
848.7876	-0
848.9524	-0
849.1172	0.4808
849.2819	-0
849.4466	-0
849.6113	-0.1829
849.7759	-0
849.9406	0.3683
850.1052	-0.4651
850.2698	-0
850.4344	0.1013
850.599	1.1567
850.7635	0.3608
850.928	0.0494
851.0925	0.2235
851.257	-0.0728
851.4215	-0
851.5859	0.1169
851.7503	-0
851.9147	-0
852.0791	-0.5094
852.2434	-0.014
852.4078	0.4191
852.5721	1.7472
852.7364	0.1297
852.9007	-0.2189
853.0649	0.338
853.2291	-0
853.3934	-0.0502
853.5575	-0.0726
853.7217	-0.2254
853.8859	-0
854.05	-0.7372
854.2141	-0
854.3782	-0
854.5423	-0.7684
854.7063	0.2415
854.8703	0.2599
855.0343	0.3661
855.1983	0.0649
855.3623	0.6675
855.5262	-0.8891
855.6901	-0
855.854	-0.1486
856.0179	-0
856.1818	-0
856.3456	0.155
856.5094	-1.0252
856.6732	-0
856.837	0.2615
857.0008	0.0134
857.1645	-0
857.3282	0.2656
857.4919	0.3944
857.6556	0.1057
857.8192	-0.2694
857.9828	-0.5955
858.1465	0.3611
858.31	-0
858.4736	-0.034
858.6372	-0
858.8007	-0.9415
858.9642	0.8941
859.1277	-0
859.2911	0.0827
859.4546	-0
859.618	-0.0064
859.7814	-0
859.9448	-0.4779
860.1081	-0
860.2715	0.1665
860.4348	-0.0051
860.5981	-0
860.7614	0.2765
860.9246	0.5664
861.0879	-0.3036
861.2511	-0
861.4143	-0
861.5774	1.6309
861.7406	0.1665
861.9037	-0
862.0668	-0.1116
862.2299	-1.9173
862.393	1.232
862.556	0.1665
862.7191	0.2664
862.8821	-0.2656
863.0451	-0
863.208	0.7278
863.371	-0.0033
863.5339	-0.094
863.6968	-0.5317
863.8597	-0
864.0225	-0
864.1854	-0.419
864.3482	0.7333
864.511	0.2507
864.6737	-0
864.8365	0.8767
864.9992	-0.1542
865.1619	0.5269
865.3246	-0.4777
865.4873	-0
865.65	-0.3727
865.8126	0.2666
865.9752	-0.4017
866.1378	-0.7156
866.3004	-0.038
866.4629	-0.1526
866.6254	-0.9958
866.7879	-0
866.9504	-0
867.1129	-0
867.2753	-0.1539
867.4377	0.7185
867.6001	-0
867.7625	0.0067
867.9249	-0.0829
868.0872	-0
868.2495	-0
868.4118	0.2332
868.5741	0.2474
868.7363	0.656
868.8986	-0.0935
869.0608	-0
869.223	0.1859
869.3851	-0
869.5473	-1.288
869.7094	-0
869.8715	-0
870.0336	0.0668
870.1957	-0
870.3577	0.4469
870.5197	0.0443
870.6817	-0
870.8437	-0
871.0057	-0.105
871.1676	0.4267
871.3295	-0.0917
871.4914	0.0626
871.6533	-0.0241
871.8151	-0
871.977	0.5016
872.1388	-0.8802
872.3006	0.3522
872.4623	-0
872.6241	-1.8731
872.7858	0.9405
872.9475	-0
873.1092	-0
873.2709	-0
873.4325	-0
873.5941	-0
873.7557	-0
873.9173	-0
874.0789	0.0433
874.2404	-0.6965
874.4019	0.3356
874.5634	-0
874.7249	0.6252
874.8863	-0.5399
875.0478	0.1579
875.2092	0.7128
875.3706	-0.2765
875.5319	-0.2107
875.6933	0.7333
875.8546	0.0659
876.0159	1.1333
876.1772	-0.615
876.3385	-0
876.4997	-0
876.6609	0.0641
876.8221	0.8348
876.9833	0.3028
877.1445	0.0766
877.3056	0.3353
877.4667	-0
877.6278	-0
877.7889	0.6091
877.9499	0.4532
878.111	0.0344
878.272	0.3699
878.433	-0
878.5939	-0
878.7549	-0
878.9158	-0.8366
879.0767	-0
879.2376	-0
879.3984	0.1011
879.5593	0.2038
879.7201	-0.1647
879.8809	-0
880.0417	0.2243
880.2024	-0
880.3632	0.2666
880.5239	-0.0413
880.6846	-0
880.8452	0.2722
881.0059	-0
881.1665	0.1211
881.3271	0.3022
881.4877	0.2889
881.6483	-1.4112
881.8088	0.4627
881.9693	-0
882.1298	-0
882.2903	-0
