Data from D4ACN5uM480nmA_Absorbance_12-08-01-825.txt Node
Date: Fri Feb 21 12:08:01 GMT 2025
User: LASERRRRR
Spectrometer: FLMT03099
Trigger mode: 0
Integration Time (sec): 1.500000E-2
Scans to average: 1
Electric dark correction enabled: true
Nonlinearity correction enabled: false
Boxcar width: 0
XAxis mode: Wavelengths
Number of Pixels in Spectrum: 3648
>>>>>Begin Spectral Data<<<<<
179.3399	0.2173
179.5586	0.2173
179.7771	0.2173
179.9957	-0.0646
180.2143	-0.4068
180.4329	-0
180.6514	-0
180.8699	-0
181.0885	-0.3237
181.307	0.3797
181.5255	0.0259
181.744	-0
181.9625	-0.2571
182.181	0.5446
182.3994	-0
182.6179	-1.1105
182.8363	-0.1085
183.0547	-0
183.2732	0.1561
183.4916	0.4925
183.71	0.054
183.9284	0.1822
184.1467	0.1354
184.3651	0.2755
184.5835	0.0011
184.8018	0.3153
185.0201	0.3024
185.2385	0.1695
185.4568	0.0702
185.6751	0.1531
185.8934	0.0891
186.1117	0.1438
186.3299	0.4316
186.5482	0.1004
186.7664	0.6098
186.9847	0.3163
187.2029	0.1619
187.4211	0.0851
187.6393	0.2785
187.8575	0.1469
188.0757	0.5049
188.2939	0.2435
188.512	0.1089
188.7302	0.3728
188.9483	0.2031
189.1665	0.4572
189.3846	-0.0128
189.6027	0.165
189.8208	0.1316
190.0389	0.1097
190.257	0.0943
190.475	0.1023
190.6931	0.331
190.9111	0.2909
191.1292	0.2597
191.3472	0.0706
191.5652	1.0909
191.7832	0.3157
192.0012	0.2742
192.2192	0.4044
192.4371	0.2091
192.6551	0.2063
192.873	0.2553
193.091	0.3792
193.3089	0.1801
193.5268	0.4323
193.7447	0.4055
193.9626	0.4779
194.1805	0.4977
194.3984	0.3901
194.6162	0.4131
194.8341	0.5279
195.0519	0.4628
195.2697	0.6738
195.4875	0.8794
195.7054	0.4264
195.9231	0.3994
196.1409	0.4937
196.3587	0.4822
196.5765	0.4416
196.7942	0.6309
197.012	0.4675
197.2297	0.5215
197.4474	0.6948
197.6651	0.5483
197.8828	0.639
198.1005	0.6688
198.3182	0.51
198.5358	0.4842
198.7535	0.5888
198.9711	0.7057
199.1888	0.632
199.4064	0.5163
199.624	0.553
199.8416	0.5274
200.0592	0.6184
200.2767	0.5054
200.4943	0.6526
200.7119	0.5713
200.9294	0.5854
201.1469	0.679
201.3645	0.6037
201.582	0.5153
201.7995	0.6491
202.017	0.5304
202.2344	0.5767
202.4519	0.5973
202.6694	0.5585
202.8868	0.5446
203.1042	0.5476
203.3217	0.5992
203.5391	0.5346
203.7565	0.5062
203.9739	0.4944
204.1913	0.5114
204.4086	0.5156
204.626	0.5194
204.8433	0.5213
205.0607	0.4767
205.278	0.5152
205.4953	0.4953
205.7126	0.519
205.9299	0.4689
206.1472	0.4793
206.3644	0.4668
206.5817	0.476
206.7989	0.4984
207.0162	0.43
207.2334	0.468
207.4506	0.4445
207.6678	0.4528
207.885	0.4534
208.1022	0.4366
208.3194	0.3924
208.5365	0.4305
208.7537	0.4338
208.9708	0.4363
209.1879	0.452
209.405	0.4207
209.6222	0.436
209.8392	0.4344
210.0563	0.4396
210.2734	0.4231
210.4905	0.4177
210.7075	0.4271
210.9245	0.4228
211.1416	0.423
211.3586	0.3773
211.5756	0.4127
211.7926	0.4274
212.0096	0.3975
212.2265	0.3964
212.4435	0.4115
212.6604	0.3697
212.8774	0.3909
213.0943	0.3923
213.3112	0.4071
213.5281	0.3915
213.745	0.3658
213.9619	0.3896
214.1788	0.403
214.3956	0.4255
214.6125	0.3822
214.8293	0.4211
215.0461	0.411
215.2629	0.3722
215.4798	0.3726
215.6965	0.3695
215.9133	0.3998
216.1301	0.3941
216.3469	0.4111
216.5636	0.3977
216.7803	0.3975
216.9971	0.4085
217.2138	0.4003
217.4305	0.4326
217.6472	0.4229
217.8639	0.4317
218.0805	0.4037
218.2972	0.41
218.5138	0.4403
218.7305	0.4039
218.9471	0.4181
219.1637	0.4331
219.3803	0.4009
219.5969	0.4244
219.8135	0.4261
220.0301	0.395
220.2466	0.4182
220.4632	0.4043
220.6797	0.4346
220.8962	0.4359
221.1127	0.4295
221.3292	0.4344
221.5457	0.4324
221.7622	0.4368
221.9787	0.4538
222.1951	0.4382
222.4116	0.4393
222.628	0.445
222.8444	0.441
223.0608	0.4178
223.2772	0.448
223.4936	0.4514
223.71	0.4312
223.9264	0.4494
224.1427	0.442
224.3591	0.4437
224.5754	0.4558
224.7917	0.4624
225.008	0.4476
225.2243	0.4572
225.4406	0.4565
225.6569	0.4467
225.8732	0.4535
226.0894	0.4639
226.3057	0.4557
226.5219	0.4724
226.7381	0.4714
226.9543	0.4688
227.1705	0.4716
227.3867	0.4831
227.6029	0.4719
227.8191	0.4841
228.0352	0.4992
228.2513	0.4956
228.4675	0.484
228.6836	0.4834
228.8997	0.4919
229.1158	0.4831
229.3319	0.4962
229.548	0.4967
229.764	0.4855
229.9801	0.5071
230.1961	0.5033
230.4121	0.5077
230.6282	0.4924
230.8442	0.5098
231.0602	0.5124
231.2761	0.5127
231.4921	0.5129
231.7081	0.5209
231.924	0.5183
232.14	0.5167
232.3559	0.5169
232.5718	0.5174
232.7877	0.5231
233.0036	0.5218
233.2195	0.5226
233.4353	0.5399
233.6512	0.5337
233.867	0.5416
234.0829	0.5289
234.2987	0.5218
234.5145	0.5362
234.7303	0.5208
234.9461	0.5274
235.1619	0.5214
235.3776	0.5241
235.5934	0.5228
235.8091	0.5247
236.0249	0.5359
236.2406	0.5398
236.4563	0.5395
236.672	0.5337
236.8877	0.5355
237.1034	0.5274
237.319	0.5373
237.5347	0.526
237.7503	0.5423
237.966	0.5388
238.1816	0.5201
238.3972	0.5396
238.6128	0.5323
238.8284	0.5379
239.0439	0.5484
239.2595	0.5383
239.475	0.5297
239.6906	0.5449
239.9061	0.5233
240.1216	0.531
240.3371	0.5153
240.5526	0.5224
240.7681	0.5322
240.9836	0.5212
241.199	0.512
241.4145	0.5028
241.6299	0.4886
241.8453	0.4959
242.0607	0.478
242.2761	0.4761
242.4915	0.4735
242.7069	0.4608
242.9223	0.4571
243.1376	0.4428
243.353	0.4366
243.5683	0.4423
243.7836	0.4243
243.9989	0.414
244.2142	0.4113
244.4295	0.4087
244.6448	0.3952
244.86	0.397
245.0753	0.3831
245.2905	0.3709
245.5057	0.3705
245.721	0.3609
245.9362	0.3444
246.1514	0.3343
246.3665	0.3385
246.5817	0.332
246.7969	0.3231
247.012	0.3134
247.2271	0.3088
247.4423	0.3058
247.6574	0.3046
247.8725	0.3019
248.0876	0.2943
248.3026	0.2888
248.5177	0.2784
248.7328	0.2732
248.9478	0.2693
249.1628	0.2647
249.3779	0.267
249.5929	0.2596
249.8079	0.2565
250.0228	0.2496
250.2378	0.2532
250.4528	0.2479
250.6677	0.2436
250.8827	0.2359
251.0976	0.239
251.3125	0.2341
251.5274	0.2311
251.7423	0.2289
251.9572	0.2205
252.172	0.2267
252.3869	0.2248
252.6017	0.2208
252.8166	0.2182
253.0314	0.2232
253.2462	0.2179
253.461	0.2144
253.6758	0.2108
253.8906	0.2075
254.1053	0.1991
254.3201	0.2032
254.5348	0.202
254.7496	0.2016
254.9643	0.1983
255.179	0.2005
255.3937	0.1982
255.6083	0.1968
255.823	0.2012
256.0377	0.2007
256.2523	0.1981
256.467	0.1991
256.6816	0.203
256.8962	0.1937
257.1108	0.1943
257.3254	0.1919
257.54	0.1942
257.7545	0.1932
257.9691	0.1882
258.1836	0.1884
258.3981	0.1868
258.6127	0.1891
258.8272	0.1827
259.0417	0.1873
259.2561	0.1804
259.4706	0.1908
259.6851	0.1865
259.8995	0.1823
260.114	0.1815
260.3284	0.1819
260.5428	0.1802
260.7572	0.1861
260.9716	0.1837
261.186	0.1778
261.4003	0.1828
261.6147	0.1826
261.829	0.1866
262.0433	0.1876
262.2577	0.1909
262.472	0.184
262.6863	0.1841
262.9005	0.1843
263.1148	0.1786
263.3291	0.1868
263.5433	0.19
263.7576	0.1801
263.9718	0.1865
264.186	0.1809
264.4002	0.1834
264.6144	0.1886
264.8286	0.1881
265.0427	0.1888
265.2569	0.1835
265.471	0.1844
265.6851	0.1828
265.8993	0.1826
266.1134	0.1889
266.3275	0.1865
266.5415	0.1814
266.7556	0.1775
266.9697	0.1859
267.1837	0.1813
267.3978	0.1889
267.6118	0.1814
267.8258	0.1864
268.0398	0.1843
268.2538	0.184
268.4677	0.1851
268.6817	0.1751
268.8957	0.1831
269.1096	0.1761
269.3235	0.192
269.5374	0.1799
269.7514	0.1814
269.9652	0.1813
270.1791	0.18
270.393	0.1787
270.6068	0.1717
270.8207	0.174
271.0345	0.176
271.2483	0.1789
271.4622	0.1794
271.676	0.1749
271.8897	0.1747
272.1035	0.1733
272.3173	0.174
272.531	0.1777
272.7448	0.1731
272.9585	0.1763
273.1722	0.1752
273.3859	0.1696
273.5996	0.1724
273.8133	0.1712
274.0269	0.1751
274.2406	0.1769
274.4542	0.166
274.6679	0.1662
274.8815	0.1762
275.0951	0.1727
275.3087	0.1805
275.5223	0.1753
275.7358	0.1764
275.9494	0.1703
276.1629	0.1717
276.3765	0.1727
276.59	0.1796
276.8035	0.1793
277.017	0.1765
277.2305	0.1767
277.444	0.1722
277.6574	0.1796
277.8709	0.177
278.0843	0.1802
278.2978	0.1787
278.5112	0.1816
278.7246	0.1766
278.938	0.1773
279.1513	0.1785
279.3647	0.1771
279.5781	0.179
279.7914	0.1807
280.0047	0.1793
280.2181	0.1849
280.4314	0.1815
280.6447	0.184
280.8579	0.178
281.0712	0.1851
281.2845	0.1845
281.4977	0.1796
281.711	0.1806
281.9242	0.1834
282.1374	0.1795
282.3506	0.1859
282.5638	0.1822
282.7769	0.1832
282.9901	0.1806
283.2033	0.187
283.4164	0.1797
283.6295	0.1858
283.8426	0.1852
284.0557	0.1833
284.2688	0.1896
284.4819	0.1911
284.695	0.1907
284.908	0.1949
285.1211	0.1832
285.3341	0.1923
285.5471	0.1938
285.7601	0.1929
285.9731	0.1909
286.1861	0.1919
286.3991	0.1924
286.612	0.1914
286.825	0.1895
287.0379	0.1965
287.2508	0.1965
287.4637	0.197
287.6766	0.2002
287.8895	0.193
288.1024	0.1943
288.3152	0.1911
288.5281	0.1969
288.7409	0.1972
288.9538	0.1961
289.1666	0.1983
289.3794	0.1978
289.5922	0.1949
289.8049	0.2037
290.0177	0.2019
290.2304	0.2016
290.4432	0.1988
290.6559	0.1912
290.8686	0.2005
291.0813	0.2038
291.294	0.2046
291.5067	0.2015
291.7194	0.1979
291.932	0.201
292.1447	0.1988
292.3573	0.2002
292.5699	0.2038
292.7825	0.1974
292.9951	0.1988
293.2077	0.205
293.4203	0.2013
293.6328	0.2008
293.8454	0.2012
294.0579	0.2008
294.2704	0.2
294.4829	0.1979
294.6954	0.1992
294.9079	0.2059
295.1204	0.1996
295.3328	0.1975
295.5453	0.2012
295.7577	0.1947
295.9701	0.1999
296.1825	0.2006
296.3949	0.2034
296.6073	0.2051
296.8197	0.2022
297.0321	0.2049
297.2444	0.1996
297.4567	0.1957
297.6691	0.1972
297.8814	0.2004
298.0937	0.1947
298.306	0.1964
298.5182	0.204
298.7305	0.1987
298.9428	0.1967
299.155	0.1965
299.3672	0.1965
299.5794	0.196
299.7916	0.2004
300.0038	0.1992
300.216	0.1985
300.4282	0.1919
300.6403	0.1959
300.8525	0.2026
301.0646	0.1986
301.2767	0.1953
301.4888	0.1954
301.7009	0.1959
301.913	0.1997
302.125	0.1956
302.3371	0.1988
302.5491	0.1976
302.7612	0.1956
302.9732	0.1921
303.1852	0.1948
303.3972	0.1964
303.6092	0.1975
303.8211	0.1869
304.0331	0.1892
304.245	0.1961
304.457	0.1945
304.6689	0.1927
304.8808	0.1899
305.0927	0.1885
305.3046	0.1865
305.5164	0.1833
305.7283	0.1872
305.9401	0.1778
306.152	0.1824
306.3638	0.1811
306.5756	0.1858
306.7874	0.178
306.9992	0.178
307.2109	0.174
307.4227	0.1715
307.6344	0.1753
307.8462	0.1691
308.0579	0.1704
308.2696	0.162
308.4813	0.1619
308.693	0.1687
308.9046	0.1611
309.1163	0.1654
309.328	0.1525
309.5396	0.1572
309.7512	0.1519
309.9628	0.1538
310.1744	0.1544
310.386	0.1522
310.5976	0.1432
310.8091	0.1467
311.0207	0.1498
311.2322	0.1484
311.4437	0.1433
311.6552	0.145
311.8667	0.1386
312.0782	0.1409
312.2897	0.1397
312.5012	0.1388
312.7126	0.1311
312.924	0.1396
313.1355	0.1282
313.3469	0.1305
313.5583	0.1313
313.7696	0.1304
313.981	0.1248
314.1924	0.126
314.4037	0.1237
314.6151	0.1246
314.8264	0.1299
315.0377	0.1281
315.249	0.124
315.4603	0.125
315.6716	0.1232
315.8828	0.1171
316.0941	0.121
316.3053	0.1211
316.5165	0.1205
316.7277	0.1236
316.9389	0.1226
317.1501	0.1213
317.3613	0.1177
317.5724	0.1216
317.7836	0.1168
317.9947	0.1095
318.2058	0.1139
318.417	0.1145
318.6281	0.1155
318.8391	0.1162
319.0502	0.1154
319.2613	0.1179
319.4723	0.1133
319.6834	0.1198
319.8944	0.1225
320.1054	0.1194
320.3164	0.1213
320.5274	0.1091
320.7383	0.1152
320.9493	0.1161
321.1602	0.1159
321.3712	0.1211
321.5821	0.1217
321.793	0.1155
322.0039	0.1195
322.2148	0.1193
322.4257	0.1177
322.6365	0.1118
322.8474	0.1111
323.0582	0.1177
323.269	0.111
323.4798	0.1199
323.6906	0.1193
323.9014	0.1142
324.1122	0.1143
324.3229	0.1188
324.5337	0.116
324.7444	0.1139
324.9551	0.1185
325.1658	0.1177
325.3765	0.1181
325.5872	0.122
325.7979	0.1195
326.0085	0.1111
326.2192	0.11
326.4298	0.1201
326.6404	0.1223
326.851	0.124
327.0616	0.1251
327.2722	0.1227
327.4828	0.1184
327.6933	0.1247
327.9039	0.1172
328.1144	0.1212
328.3249	0.1194
328.5354	0.1134
328.7459	0.1183
328.9564	0.1231
329.1669	0.123
329.3773	0.1206
329.5878	0.1269
329.7982	0.1223
330.0086	0.1257
330.219	0.1217
330.4294	0.123
330.6398	0.1251
330.8502	0.1226
331.0605	0.125
331.2708	0.1242
331.4812	0.1254
331.6915	0.122
331.9018	0.1212
332.1121	0.125
332.3224	0.1263
332.5326	0.1249
332.7429	0.116
332.9531	0.1255
333.1633	0.1235
333.3735	0.1239
333.5837	0.1239
333.7939	0.1305
334.0041	0.1189
334.2143	0.1261
334.4244	0.1198
334.6346	0.1214
334.8447	0.1302
335.0548	0.1282
335.2649	0.1337
335.475	0.1278
335.685	0.1235
335.8951	0.1259
336.1051	0.1253
336.3152	0.1302
336.5252	0.1295
336.7352	0.1228
336.9452	0.1286
337.1552	0.1329
337.3652	0.1284
337.5751	0.1308
337.7851	0.1228
337.995	0.1347
338.2049	0.1303
338.4148	0.1251
338.6247	0.1288
338.8346	0.1252
339.0445	0.1344
339.2543	0.1373
339.4642	0.1403
339.674	0.1346
339.8838	0.1284
340.0936	0.1384
340.3034	0.1326
340.5132	0.1286
340.7229	0.1395
340.9327	0.1365
341.1424	0.1382
341.3522	0.1345
341.5619	0.1356
341.7716	0.1406
341.9813	0.1466
342.1909	0.1452
342.4006	0.1398
342.6102	0.1401
342.8199	0.1352
343.0295	0.1413
343.2391	0.1404
343.4487	0.1482
343.6583	0.1497
343.8679	0.1408
344.0774	0.1463
344.287	0.1455
344.4965	0.1455
344.706	0.1461
344.9155	0.1417
345.125	0.1446
345.3345	0.1427
345.544	0.1488
345.7534	0.1487
345.9629	0.149
346.1723	0.1483
346.3817	0.1508
346.5911	0.1538
346.8005	0.1524
347.0099	0.1528
347.2193	0.1496
347.4286	0.1517
347.638	0.1546
347.8473	0.1613
348.0566	0.152
348.2659	0.1518
348.4752	0.1576
348.6845	0.1619
348.8937	0.1604
349.103	0.1558
349.3122	0.1642
349.5214	0.1595
349.7306	0.1667
349.9398	0.1573
350.149	0.1631
350.3582	0.1607
350.5674	0.1661
350.7765	0.1652
350.9856	0.1693
351.1948	0.1659
351.4039	0.1635
351.613	0.1696
351.822	0.1651
352.0311	0.1654
352.2402	0.1667
352.4492	0.1728
352.6582	0.1664
352.8672	0.1693
353.0762	0.1714
353.2852	0.172
353.4942	0.1674
353.7032	0.1697
353.9121	0.1777
354.1211	0.1694
354.33	0.1783
354.5389	0.1736
354.7478	0.1756
354.9567	0.1775
355.1655	0.179
355.3744	0.1807
355.5833	0.1794
355.7921	0.1803
356.0009	0.1787
356.2097	0.1939
356.4185	0.1883
356.6273	0.1784
356.8361	0.1914
357.0448	0.189
357.2536	0.1928
357.4623	0.1838
357.671	0.1819
357.8797	0.1901
358.0884	0.1947
358.2971	0.1941
358.5057	0.1886
358.7144	0.205
358.923	0.1958
359.1316	0.193
359.3402	0.1978
359.5488	0.199
359.7574	0.1949
359.966	0.1991
360.1746	0.203
360.3831	0.2058
360.5916	0.1997
360.8002	0.2123
361.0087	0.2063
361.2172	0.2167
361.4256	0.2022
361.6341	0.2193
361.8426	0.2051
362.051	0.2101
362.2594	0.2172
362.4678	0.2068
362.6762	0.2158
362.8846	0.2175
363.093	0.2142
363.3014	0.2254
363.5097	0.2185
363.718	0.2227
363.9264	0.22
364.1347	0.2267
364.343	0.2276
364.5513	0.2311
364.7595	0.2332
364.9678	0.2253
365.176	0.2242
365.3842	0.2237
365.5925	0.2249
365.8007	0.2315
366.0089	0.2331
366.217	0.2376
366.4252	0.2334
366.6333	0.239
366.8415	0.2356
367.0496	0.2373
367.2577	0.2451
367.4658	0.2412
367.6739	0.2387
367.882	0.2546
368.09	0.2448
368.2981	0.2379
368.5061	0.2477
368.7141	0.2485
368.9221	0.2494
369.1301	0.2484
369.3381	0.2523
369.5461	0.2605
369.754	0.2466
369.962	0.2566
370.1699	0.2558
370.3778	0.2602
370.5857	0.2608
370.7936	0.2624
371.0015	0.2556
371.2093	0.257
371.4172	0.262
371.625	0.2663
371.8328	0.2611
372.0406	0.2649
372.2484	0.259
372.4562	0.2624
372.664	0.2667
372.8717	0.2666
373.0795	0.2735
373.2872	0.2626
373.4949	0.2829
373.7026	0.28
373.9103	0.2606
374.118	0.2717
374.3256	0.2798
374.5333	0.2665
374.7409	0.2759
374.9485	0.2774
375.1561	0.2792
375.3637	0.2731
375.5713	0.2781
375.7789	0.2769
375.9864	0.2833
376.194	0.2791
376.4015	0.2873
376.609	0.2774
376.8165	0.2829
377.024	0.2845
377.2315	0.2898
377.4389	0.28
377.6464	0.2812
377.8538	0.2963
378.0612	0.2829
378.2686	0.2905
378.476	0.2873
378.6834	0.2953
378.8908	0.2854
379.0981	0.2969
379.3055	0.3072
379.5128	0.2869
379.7201	0.285
379.9274	0.2975
380.1347	0.2979
380.342	0.2956
380.5492	0.2946
380.7565	0.2987
380.9637	0.297
381.1709	0.2984
381.3781	0.3056
381.5853	0.3014
381.7925	0.3078
381.9997	0.3049
382.2068	0.302
382.4139	0.3109
382.6211	0.3155
382.8282	0.3116
383.0353	0.3022
383.2424	0.3068
383.4494	0.3201
383.6565	0.2959
383.8635	0.3215
384.0706	0.3124
384.2776	0.3174
384.4846	0.3104
384.6916	0.3036
384.8986	0.322
385.1055	0.3208
385.3125	0.309
385.5194	0.306
385.7263	0.3039
385.9333	0.3075
386.1402	0.3134
386.347	0.3134
386.5539	0.3127
386.7608	0.3206
386.9676	0.3129
387.1744	0.308
387.3813	0.3112
387.5881	0.3236
387.7948	0.3153
388.0016	0.3024
388.2084	0.3103
388.4151	0.3114
388.6219	0.3126
388.8286	0.3035
389.0353	0.3041
389.242	0.2999
389.4487	0.3043
389.6553	0.3016
389.862	0.3057
390.0686	0.3182
390.2753	0.302
390.4819	0.3054
390.6885	0.2998
390.8951	0.307
391.1016	0.3098
391.3082	0.2912
391.5147	0.3007
391.7213	0.2998
391.9278	0.3014
392.1343	0.2899
392.3408	0.284
392.5473	0.2938
392.7537	0.294
392.9602	0.2803
393.1666	0.299
393.373	0.29
393.5794	0.2862
393.7858	0.2994
393.9922	0.2904
394.1986	0.2787
394.4049	0.2915
394.6113	0.2966
394.8176	0.271
395.0239	0.274
395.2302	0.2633
395.4365	0.2785
395.6428	0.2833
395.8491	0.2749
396.0553	0.2678
396.2615	0.2726
396.4678	0.2758
396.674	0.2664
396.8802	0.2701
397.0863	0.2724
397.2925	0.2713
397.4987	0.2738
397.7048	0.2711
397.9109	0.2695
398.117	0.2643
398.3231	0.2759
398.5292	0.2772
398.7353	0.2588
398.9413	0.2718
399.1474	0.2728
399.3534	0.2659
399.5594	0.2716
399.7654	0.2685
399.9714	0.2682
400.1774	0.2663
400.3833	0.2749
400.5893	0.2514
400.7952	0.2675
401.0011	0.2598
401.207	0.2708
401.4129	0.2719
401.6188	0.2626
401.8247	0.2676
402.0305	0.2556
402.2364	0.269
402.4422	0.2639
402.648	0.2686
402.8538	0.2765
403.0596	0.2633
403.2654	0.2673
403.4711	0.2658
403.6768	0.2651
403.8826	0.2667
404.0883	0.2572
404.294	0.2674
404.4997	0.2614
404.7054	0.2665
404.911	0.2649
405.1167	0.2704
405.3223	0.2677
405.5279	0.2597
405.7335	0.2547
405.9391	0.2649
406.1447	0.2699
406.3502	0.272
406.5558	0.2662
406.7613	0.2724
406.9668	0.2621
407.1724	0.2623
407.3778	0.265
407.5833	0.2702
407.7888	0.2654
407.9942	0.2646
408.1997	0.2699
408.4051	0.2642
408.6105	0.2743
408.8159	0.2676
409.0213	0.2672
409.2267	0.2686
409.432	0.2679
409.6374	0.2658
409.8427	0.2674
410.048	0.2531
410.2533	0.2553
410.4586	0.2588
410.6639	0.2582
410.8691	0.2821
411.0744	0.2569
411.2796	0.2763
411.4848	0.2585
411.69	0.2604
411.8952	0.2583
412.1004	0.2624
412.3056	0.2604
412.5107	0.2682
412.7158	0.2681
412.921	0.2627
413.1261	0.261
413.3312	0.2588
413.5362	0.2586
413.7413	0.2635
413.9464	0.2656
414.1514	0.2612
414.3564	0.26
414.5614	0.2602
414.7664	0.2716
414.9714	0.2629
415.1764	0.2503
415.3813	0.2469
415.5863	0.2625
415.7912	0.2626
415.9961	0.258
416.201	0.2653
416.4059	0.2542
416.6108	0.2561
416.8156	0.2562
417.0205	0.2592
417.2253	0.2596
417.4301	0.262
417.6349	0.2507
417.8397	0.2711
418.0445	0.2596
418.2492	0.26
418.454	0.2536
418.6587	0.2565
418.8634	0.2524
419.0681	0.2531
419.2728	0.2549
419.4775	0.2579
419.6822	0.2541
419.8868	0.2506
420.0915	0.2572
420.2961	0.2453
420.5007	0.2521
420.7053	0.2523
420.9099	0.2441
421.1144	0.2397
421.319	0.2513
421.5235	0.2393
421.728	0.2369
421.9325	0.2426
422.137	0.2377
422.3415	0.2367
422.546	0.2381
422.7504	0.2362
422.9549	0.2327
423.1593	0.234
423.3637	0.2325
423.5681	0.2453
423.7725	0.2385
423.9769	0.2343
424.1812	0.2299
424.3856	0.2364
424.5899	0.2354
424.7942	0.2279
424.9985	0.232
425.2028	0.2307
425.4071	0.2182
425.6113	0.2275
425.8156	0.2235
426.0198	0.223
426.224	0.2237
426.4282	0.2271
426.6324	0.221
426.8366	0.2168
427.0407	0.2233
427.2449	0.2129
427.449	0.2074
427.6531	0.2148
427.8572	0.2116
428.0613	0.2144
428.2654	0.2173
428.4694	0.2102
428.6735	0.206
428.8775	0.2044
429.0815	0.2135
429.2855	0.2059
429.4895	0.1971
429.6935	0.1926
429.8975	0.2007
430.1014	0.2057
430.3053	0.19
430.5093	0.2
430.7132	0.1918
430.9171	0.1887
431.1209	0.1952
431.3248	0.1887
431.5286	0.1713
431.7325	0.1883
431.9363	0.1772
432.1401	0.1836
432.3439	0.1665
432.5477	0.184
432.7514	0.1756
432.9552	0.1782
433.1589	0.166
433.3627	0.1755
433.5664	0.1726
433.7701	0.1759
433.9737	0.1684
434.1774	0.1669
434.3811	0.1675
434.5847	0.1626
434.7883	0.1632
434.9919	0.1576
435.1955	0.1559
435.3991	0.1481
435.6027	0.153
435.8062	0.1531
436.0098	0.1537
436.2133	0.1534
436.4168	0.1416
436.6203	0.1301
436.8238	0.1317
437.0272	0.1392
437.2307	0.1317
437.4341	0.1284
437.6375	0.1279
437.841	0.1346
438.0443	0.1369
438.2477	0.1276
438.4511	0.1239
438.6545	0.1268
438.8578	0.1234
439.0611	0.126
439.2644	0.118
439.4677	0.1158
439.671	0.1148
439.8743	0.1094
440.0775	0.112
440.2808	0.1263
440.484	0.1044
440.6872	0.1027
440.8904	0.104
441.0936	0.1194
441.2967	0.0964
441.4999	0.1023
441.703	0.1053
441.9062	0.0996
442.1093	0.0902
442.3124	0.0978
442.5155	0.1013
442.7185	0.0837
442.9216	0.1002
443.1246	0.0921
443.3276	0.0861
443.5307	0.0938
443.7337	0.088
443.9366	0.086
444.1396	0.0813
444.3426	0.086
444.5455	0.0714
444.7484	0.0842
444.9513	0.0816
445.1542	0.0732
445.3571	0.0646
445.56	0.0711
445.7628	0.0672
445.9657	0.0719
446.1685	0.0712
446.3713	0.0725
446.5741	0.0553
446.7769	0.0716
446.9797	0.0671
447.1824	0.0664
447.3852	0.067
447.5879	0.0689
447.7906	0.063
447.9933	0.0584
448.196	0.0537
448.3986	0.0521
448.6013	0.0552
448.8039	0.0499
449.0066	0.048
449.2092	0.0425
449.4118	0.0559
449.6143	0.0496
449.8169	0.0533
450.0195	0.0454
450.222	0.0487
450.4245	0.0502
450.627	0.0469
450.8295	0.0386
451.032	0.05
451.2345	0.0413
451.4369	0.0461
451.6394	0.0411
451.8418	0.0427
452.0442	0.0442
452.2466	0.038
452.449	0.0398
452.6513	0.0294
452.8537	0.0382
453.056	0.0373
453.2583	0.0371
453.4607	0.0349
453.663	0.0352
453.8652	0.0259
454.0675	0.0392
454.2697	0.0343
454.472	0.0414
454.6742	0.0281
454.8764	0.0325
455.0786	0.0284
455.2808	0.023
455.4829	0.0204
455.6851	0.0222
455.8872	0.0297
456.0893	0.0233
456.2915	0.0221
456.4935	0.0193
456.6956	0.0241
456.8977	0.0216
457.0997	0.0211
457.3018	0.0236
457.5038	0.0235
457.7058	0.0162
457.9078	0.0263
458.1098	0.0201
458.3117	0.0257
458.5137	0.0266
458.7156	0.0305
458.9175	0.0176
459.1194	0.0197
459.3213	0.021
459.5232	0.0121
459.725	0.0182
459.9269	0.0153
460.1287	0.0077
460.3305	0.0155
460.5323	0.0182
460.7341	0.0138
460.9359	0.0102
461.1376	0.0203
461.3394	0.0048
461.5411	0.0172
461.7428	0.011
461.9445	0.0119
462.1462	0.0214
462.3479	0.0098
462.5495	0.015
462.7512	-0.0003
462.9528	0.0113
463.1544	0.0083
463.356	0.018
463.5576	0.0074
463.7592	0.0057
463.9607	0.009
464.1623	0.014
464.3638	0.0114
464.5653	0.0151
464.7668	0.0004
464.9683	0.012
465.1697	0.0065
465.3712	0.011
465.5726	0.0076
465.7741	-0.0004
465.9755	0.0086
466.1769	0.0045
466.3782	0.0056
466.5796	0.0129
466.7809	0.0181
466.9823	0.0022
467.1836	0.0142
467.3849	0.007
467.5862	-0.0004
467.7875	0.0106
467.9887	0.0068
468.19	0.0079
468.3912	0.0003
468.5924	0.0129
468.7936	0.0035
468.9948	0.0105
469.196	0.0063
469.3972	0.0082
469.5983	0.0068
469.7994	0.0113
470.0006	0.0053
470.2017	0.002
470.4027	-0.0001
470.6038	0.0012
470.8049	0.0003
471.0059	0.0135
471.2069	0.0003
471.408	0.0096
471.6089	0.0097
471.8099	0.0078
472.0109	0.0013
472.2119	0.0164
472.4128	0.0146
472.6137	0.0105
472.8146	0.0082
473.0155	-0.0003
473.2164	0.0033
473.4173	0.0109
473.6181	0.0146
473.819	-0.0074
474.0198	0.0025
474.2206	0.0072
474.4214	-0.0004
474.6222	0.0015
474.8229	0
475.0237	-0.0032
475.2244	0.0103
475.4251	0.0047
475.6258	0.0129
475.8265	-0.0057
476.0272	0.0042
476.2278	0.0028
476.4285	0.0035
476.6291	0.0138
476.8297	-0.0029
477.0303	0.0026
477.2309	0.0088
477.4315	0.004
477.632	0.0018
477.8326	0.0049
478.0331	0
478.2336	0.0047
478.4341	-0.0012
478.6346	0.0058
478.8351	0.0086
479.0355	0.0025
479.236	0.003
479.4364	-0.0035
479.6368	-0.0006
479.8372	0.0103
480.0376	0.0025
480.2379	0.0073
480.4383	0.0033
480.6386	0.0007
480.8389	0.0031
481.0392	0.0048
481.2395	0.0049
481.4398	0.0028
481.6401	0.0002
481.8403	-0.0034
482.0405	-0.0004
482.2408	0.0016
482.441	0.0018
482.6411	-0.004
482.8413	-0.0074
483.0415	0.0076
483.2416	0.0059
483.4417	-0
483.6419	0.0009
483.8419	-0.0019
484.042	0.0024
484.2421	0.0024
484.4422	0.0014
484.6422	0.0096
484.8422	0.0025
485.0422	0.0068
485.2422	0.0053
485.4422	-0.0021
485.6422	-0.0022
485.8421	0.0027
486.042	0.0027
486.242	0.0035
486.4419	0.0066
486.6417	0.0014
486.8416	0.0052
487.0415	-0.0052
487.2413	0.001
487.4411	0.0004
487.641	0.0056
487.8408	0.0021
488.0405	0.0043
488.2403	-0.0026
488.4401	0.0027
488.6398	0.0061
488.8395	0.0029
489.0392	0.0069
489.2389	-0.0057
489.4386	-0.0006
489.6383	-0.001
489.8379	0.0051
490.0376	0.0065
490.2372	-0.009
490.4368	0.0022
490.6364	0.0061
490.836	0.0026
491.0355	0.0041
491.2351	0.0101
491.4346	0.0031
491.6341	-0.0012
491.8336	-0.0093
492.0331	-0.0009
492.2326	0.0025
492.432	0.0026
492.6315	-0.0051
492.8309	0.0064
493.0303	-0.007
493.2297	-0.0052
493.4291	-0.0041
493.6284	0.0004
493.8278	0.0025
494.0271	-0.0029
494.2264	0.0035
494.4257	-0.0008
494.625	-0.0059
494.8243	0.0054
495.0236	-0
495.2228	-0.007
495.422	0.0076
495.6213	0.0058
495.8205	0
496.0196	0.001
496.2188	-0.0029
496.418	-0.001
496.6171	0.0076
496.8162	-0.0028
497.0153	-0.0006
497.2144	-0.003
497.4135	0.0042
497.6126	-0.0059
497.8116	0.003
498.0107	0.001
498.2097	0.003
498.4087	-0.0026
498.6077	0.0061
498.8067	0.0109
499.0056	0.0056
499.2046	0.0022
499.4035	-0.0007
499.6024	-0.0047
499.8013	0.0051
500.0002	0.0076
500.199	0.0008
500.3979	0.0033
500.5967	-0.0039
500.7956	0.0023
500.9944	0.0095
501.1932	0.0049
501.3919	0.0102
501.5907	0.0027
501.7895	0.0013
501.9882	-0.0082
502.1869	-0.0015
502.3856	-0.0067
502.5843	0.0071
502.783	0.0096
502.9816	-0.0121
503.1803	0.0054
503.3789	0.0116
503.5775	-0.0021
503.7761	-0.0056
503.9747	-0.0054
504.1732	0.0023
504.3718	-0.0026
504.5703	-0.0047
504.7689	-0.007
504.9674	-0
505.1658	0.0075
505.3643	0.0052
505.5628	0.0113
505.7612	0.0126
505.9597	0.005
506.1581	0.0017
506.3565	-0.0062
506.5549	0.0037
506.7532	-0.0053
506.9516	0.0004
507.1499	-0.0029
507.3482	0.0099
507.5465	-0.0061
507.7448	0.0058
507.9431	-0.0066
508.1414	-0.004
508.3396	0.0012
508.5379	0.0001
508.7361	0.0081
508.9343	-0.0035
509.1325	0.0119
509.3306	-0.0102
509.5288	-0.0003
509.7269	0.0067
509.9251	-0.0022
510.1232	-0.0059
510.3213	0.0008
510.5193	0.0059
510.7174	-0.0104
510.9154	-0.0009
511.1135	0.0046
511.3115	-0.0025
511.5095	0.0087
511.7075	-0.0018
511.9055	0.0105
512.1034	0.0012
512.3014	0.0001
512.4993	-0.0003
512.6972	-0.0057
512.8951	0.002
513.093	-0.0034
513.2908	-0.0064
513.4887	0.0012
513.6865	-0.0067
513.8844	0.0033
514.0822	0.0037
514.2799	-0.0021
514.4777	0.0042
514.6755	0.0058
514.8732	-0.0001
515.0709	0.0016
515.2687	-0.004
515.4664	-0.016
515.664	0.0105
515.8617	0.0139
516.0594	0.0058
516.257	0.0054
516.4546	0.004
516.6522	0.0003
516.8498	0.0011
517.0474	0.0032
517.2449	-0.001
517.4425	-0.005
517.64	0.0047
517.8375	0.0027
518.035	-0.0039
518.2325	-0.0117
518.43	-0.0043
518.6274	-0.0125
518.8249	-0.008
519.0223	-0.0038
519.2197	-0.0062
519.4171	0.0002
519.6145	-0.0035
519.8118	-0.001
520.0092	-0.0032
520.2065	0.0013
520.4038	-0.0086
520.6011	0.0087
520.7984	0.0034
520.9956	-0.0028
521.1929	0.0057
521.3901	0.0027
521.5874	-0.0043
521.7846	0.0028
521.9818	-0.0063
522.1789	0.0145
522.3761	0.0063
522.5732	-0.011
522.7704	0.0017
522.9675	-0.0086
523.1646	0.0069
523.3617	-0.0078
523.5587	0.0024
523.7558	-0.0034
523.9528	0.005
524.1498	-0.0023
524.3468	-0.0077
524.5438	-0.0092
524.7408	-0.0036
524.9378	-0.0016
525.1347	0.0026
525.3316	0.008
525.5285	0.0025
525.7254	-0.0025
525.9223	-0.0029
526.1192	-0.0053
526.316	-0.0128
526.5129	0.0081
526.7097	-0.0094
526.9065	0.0045
527.1033	-0.0002
527.3	-0.0028
527.4968	0.0006
527.6935	-0.0075
527.8903	-0.0014
528.087	0.0035
528.2837	-0.0056
528.4804	0.0082
528.677	0.0055
528.8737	-0.0039
529.0703	0.005
529.2669	-0.0001
529.4635	0.0087
529.6601	-0.0011
529.8567	0.0106
530.0532	-0.0025
530.2498	-0.0091
530.4463	0.0116
530.6428	-0.0068
530.8393	0.0087
531.0358	0.0032
531.2322	-0.0002
531.4287	-0.0071
531.6251	0.0044
531.8215	0.0001
532.0179	-0.0125
532.2143	0.0121
532.4107	-0.0007
532.607	0.0023
532.8034	0.0018
532.9997	0.0058
533.196	0.0099
533.3923	-0.0007
533.5886	-0.0001
533.7848	-0.0078
533.9811	-0.0114
534.1773	-0.0079
534.3735	0.0063
534.5697	0.0026
534.7659	0.0007
534.9621	0.0088
535.1582	0.0095
535.3544	0.0105
535.5505	0.0037
535.7466	-0.0004
535.9427	-0.0104
536.1387	0.0066
536.3348	0.0083
536.5308	0.0069
536.7269	0.0002
536.9229	-0.0014
537.1189	0.0039
537.3148	-0.0105
537.5108	-0.0026
537.7068	0.002
537.9027	0.0101
538.0986	-0.0094
538.2945	0.0012
538.4904	-0.0009
538.6863	0.0143
538.8821	-0.0105
539.078	-0.0107
539.2738	-0.0041
539.4696	0.0115
539.6654	0.0003
539.8611	-0.0012
540.0569	0
540.2526	0.001
540.4484	-0.0017
540.6441	0.0007
540.8398	-0.0048
541.0355	-0.0001
541.2311	0.0055
541.4268	0.0017
541.6224	0.004
541.818	-0.0066
542.0136	-0.0049
542.2092	0.0002
542.4048	-0.0016
542.6003	0.002
542.7959	0.0021
542.9914	0.0023
543.1869	0.0007
543.3824	0.0005
543.5779	-0.0059
543.7734	-0.0028
543.9688	0.0047
544.1642	0.0011
544.3596	-0.0059
544.555	0.0093
544.7504	0.0012
544.9458	-0.007
545.1411	0.0009
545.3365	0.008
545.5318	0.0049
545.7271	0.0077
545.9224	0.0004
546.1177	0.0063
546.3129	-0.0076
546.5081	-0.0114
546.7034	-0.0053
546.8986	-0.0054
547.0938	-0.0021
547.289	0.0022
547.4841	-0.0035
547.6793	-0.0054
547.8744	-0.0053
548.0695	0
548.2646	-0.0032
548.4597	0.0037
548.6548	0.0062
548.8498	0.0027
549.0448	0.001
549.2399	-0.002
549.4349	0.0061
549.6298	-0.0072
549.8248	-0.006
550.0198	0.0121
550.2147	-0.0055
550.4096	0.0068
550.6045	-0.0034
550.7994	0.0047
550.9943	-0.0018
551.1892	-0.0016
551.384	0.012
551.5788	0.007
551.7737	-0.005
551.9685	0.0048
552.1632	0.0003
552.358	-0.0033
552.5528	-0.0039
552.7475	-0.0045
552.9422	0.0008
553.1369	0.0124
553.3316	-0.0049
553.5263	-0.0004
553.7209	-0.0067
553.9156	0.0101
554.1102	-0.003
554.3048	0.0049
554.4994	0.0028
554.694	0.0041
554.8885	0.0007
555.0831	0.0059
555.2776	-0.0057
555.4721	-0.0124
555.6666	0.0103
555.8611	-0.0099
556.0555	-0.0015
556.25	-0.0047
556.4444	0.0028
556.6388	0.0016
556.8332	-0.0028
557.0276	0.0029
557.222	-0.0071
557.4163	0.009
557.6107	-0.0127
557.805	-0.0078
557.9993	-0.0071
558.1936	0.0025
558.3879	-0.0096
558.5821	-0.0141
558.7764	0.0136
558.9706	0.0003
559.1648	-0.015
559.359	0.0053
559.5532	-0.0144
559.7473	0.0062
559.9415	0.0052
560.1356	0.0023
560.3297	-0.0038
560.5238	0.0025
560.7179	0.0043
560.9119	0.005
561.106	-0.0029
561.3	-0.0022
561.494	0.0057
561.688	-0.0001
561.882	-0.0005
562.076	0.0028
562.2699	0.0094
562.4639	0.0102
562.6578	0.009
562.8517	0.0031
563.0456	0.0004
563.2395	0.0039
563.4333	0.0022
563.6272	0.001
563.821	0.0056
564.0148	-0.0045
564.2086	0.0028
564.4024	-0.0043
564.5961	-0.0049
564.7899	0.0019
564.9836	-0.0042
565.1773	-0.0072
565.371	0.0009
565.5647	-0.0089
565.7584	-0.004
565.952	-0.0017
566.1456	0.0039
566.3393	0.0088
566.5329	-0.0073
566.7264	-0.0024
566.92	0.0021
567.1136	-0.0005
567.3071	0.0043
567.5006	-0.0024
567.6941	0.0023
567.8876	-0.0041
568.0811	-0.0004
568.2745	-0.0055
568.468	0.0041
568.6614	0.0017
568.8548	-0.0005
569.0482	0.0046
569.2416	-0.0031
569.4349	0.0043
569.6283	-0.0039
569.8216	0.0013
570.0149	-0.0032
570.2082	-0.0063
570.4015	0.003
570.5947	-0.0054
570.788	-0.003
570.9812	-0.0012
571.1744	-0.0029
571.3676	-0.0034
571.5608	-0.005
571.754	-0.0085
571.9471	0.003
572.1402	-0.0008
572.3333	-0.0047
572.5264	-0.002
572.7195	0.0035
572.9126	0.0004
573.1057	0.0015
573.2987	0.0039
573.4917	-0.0002
573.6847	-0.0004
573.8777	0.0036
574.0707	-0.0025
574.2636	-0.0001
574.4566	-0.0004
574.6495	0.0049
574.8424	0.0015
575.0353	0.0004
575.2281	-0.0028
575.421	0.0008
575.6138	-0.0067
575.8067	0.0021
575.9995	0.0001
576.1923	0.005
576.385	-0.0036
576.5778	-0.0024
576.7706	0.0042
576.9633	-0
577.156	0.003
577.3487	0.003
577.5414	-0.0007
577.734	0.0003
577.9267	-0.0024
578.1193	0.0029
578.3119	-0.0021
578.5045	-0.0022
578.6971	-0.0044
578.8897	-0.0043
579.0822	0.0027
579.2747	-0.0053
579.4673	-0.0023
579.6598	0.0005
579.8522	0.0045
580.0447	-0.0023
580.2372	0.006
580.4296	0.0008
580.622	-0.0004
580.8144	0.0006
581.0068	-0.0015
581.1992	0.0042
581.3915	-0.0004
581.5839	0.0051
581.7762	0.0039
581.9685	0.0001
582.1608	0.0049
582.353	-0.0004
582.5453	-0.0006
582.7375	0.0068
582.9298	-0.0022
583.122	-0.0046
583.3142	0.0054
583.5063	-0.0018
583.6985	-0.0027
583.8906	-0.0009
584.0827	0.0017
584.2749	0.0024
584.4669	-0.0004
584.659	-0.0006
584.8511	-0.0017
585.0431	-0.0001
585.2352	-0.0047
585.4272	0.0029
585.6192	0.0005
585.8111	-0.0044
586.0031	0.0001
586.195	-0.0009
586.387	0.0014
586.5789	-0.0014
586.7708	-0.002
586.9627	-0.0004
587.1545	-0.0004
587.3464	0.0016
587.5382	0.0029
587.73	0.002
587.9218	-0.002
588.1136	-0.0052
588.3053	-0.0016
588.4971	0.0044
588.6888	-0.0039
588.8805	0.0037
589.0722	0.0015
589.2639	-0.0009
589.4556	-0.0096
589.6472	0.0027
589.8389	-0.0007
590.0305	0.0027
590.2221	0.0002
590.4137	-0.0072
590.6052	-0.0031
590.7968	-0.0002
590.9883	-0.0033
591.1798	-0.004
591.3713	-0.001
591.5628	0.0044
591.7543	-0.0031
591.9458	-0.0011
592.1372	0.0004
592.3286	-0.002
592.52	-0.001
592.7114	-0.0018
592.9028	-0.005
593.0941	-0.0024
593.2855	-0.0009
593.4768	0.0034
593.6681	0.0015
593.8594	-0.0034
594.0506	0.0021
594.2419	-0.0054
594.4331	-0.0021
594.6244	-0.0006
594.8156	-0.0014
595.0067	0.0026
595.1979	-0.0035
595.3891	-0.0041
595.5802	0.0052
595.7713	-0.0039
595.9624	-0.0038
596.1535	-0.0016
596.3446	-0.0033
596.5357	-0.0012
596.7267	0.0043
596.9177	-0.0052
597.1087	-0.0011
597.2997	-0.0012
597.4907	0.0031
597.6817	0.0006
597.8726	0.0021
598.0635	0.0034
598.2544	-0.0007
598.4453	0.0004
598.6362	-0.0058
598.827	0.0023
599.0179	-0.0008
599.2087	0.0013
599.3995	0.0014
599.5903	0.0031
599.7811	-0.0014
599.9718	0.0021
600.1626	0.0003
600.3533	-0.0005
600.544	0.0027
600.7347	0.0027
600.9254	-0.0008
601.116	-0.0031
601.3067	0.0096
601.4973	0.008
601.6879	-0.0082
601.8785	-0.0033
602.0691	0.0014
602.2596	-0.0014
602.4502	-0.0023
602.6407	0.0059
602.8312	0.005
603.0217	0.0028
603.2122	0.0024
603.4027	-0.001
603.5931	-0.0005
603.7835	0.0018
603.9739	0.0009
604.1643	-0.0052
604.3547	0.0058
604.5451	-0.0009
604.7354	-0.003
604.9257	-0.0012
605.116	0.0021
605.3063	-0.0111
605.4966	-0.0004
605.6869	-0.0031
605.8771	0.0024
606.0673	-0.0042
606.2575	-0.0022
606.4477	0.0028
606.6379	-0.0037
606.8281	0.0014
607.0182	-0.0016
607.2083	-0.0011
607.3985	-0.0002
607.5885	0.0014
607.7786	0.0075
607.9687	-0.0043
608.1587	-0.0074
608.3488	-0.0037
608.5388	0.001
608.7288	-0.0074
608.9187	0.0089
609.1087	-0.0064
609.2986	-0.0027
609.4886	-0.0011
609.6785	-0.0034
609.8684	-0.001
610.0582	-0.0038
610.2481	0.0021
610.4379	-0.0034
610.6278	-0.0026
610.8176	-0.0019
611.0074	-0.0078
611.1971	-0.0006
611.3869	-0.0077
611.5766	-0.0021
611.7664	-0.0009
611.9561	-0.0002
612.1458	-0.0035
612.3354	0.0096
612.5251	-0.0054
612.7147	0.0009
612.9044	0.0014
613.094	0.0044
613.2836	-0.0054
613.4731	-0.0038
613.6627	0.0094
613.8522	-0.0082
614.0417	-0.0046
614.2313	-0.0072
614.4207	-0.0023
614.6102	-0.009
614.7997	-0.0043
614.9891	-0.0014
615.1785	-0.0063
615.3679	-0.0024
615.5573	-0.0071
615.7467	-0.0069
615.9361	-0.0082
616.1254	-0.0037
616.3147	-0.006
616.504	0.0053
616.6933	-0.0016
616.8826	0.0036
617.0718	0.0004
617.2611	0.0038
617.4503	0.003
617.6395	-0.0025
617.8287	0.0041
618.0179	-0.0059
618.207	0.0006
618.3961	-0.0037
618.5853	0.0003
618.7744	0.0098
618.9634	0.0031
619.1525	-0.0009
619.3416	-0.0007
619.5306	-0.0032
619.7196	-0.0108
619.9086	0.0094
620.0976	0.002
620.2866	0.0058
620.4755	0.0024
620.6645	-0.0035
620.8534	-0.0037
621.0423	-0.0013
621.2312	-0.0106
621.42	-0.004
621.6089	-0.0064
621.7977	0
621.9865	0.0011
622.1753	0.0036
622.3641	-0.0148
622.5529	-0.0061
622.7416	-0.0103
622.9303	-0.0004
623.1191	-0.0095
623.3078	-0.0016
623.4964	-0.0124
623.6851	0.0073
623.8737	0.0063
624.0624	-0.0046
624.251	-0.0001
624.4396	0.0052
624.6282	-0.0008
624.8167	0.0107
625.0053	-0.0007
625.1938	-0.0008
625.3823	-0.0018
625.5708	-0.0024
625.7593	-0.0021
625.9477	-0.0076
626.1362	0.0033
626.3246	-0.0122
626.513	0.0052
626.7014	-0.0067
626.8898	-0.0006
627.0781	0.0031
627.2665	0.0118
627.4548	-0.0026
627.6431	-0.0002
627.8314	-0.0044
628.0197	0.0011
628.2079	-0.0002
628.3962	0.0004
628.5844	0.0056
628.7726	-0.0099
628.9608	-0.0063
629.1489	-0.0037
629.3371	-0.0038
629.5252	0.0043
629.7134	0.0069
629.9015	-0.0029
630.0895	0.0023
630.2776	-0.0066
630.4657	-0.0017
630.6537	-0.0095
630.8417	-0.0044
631.0297	-0.0013
631.2177	-0.0025
631.4057	-0.002
631.5936	-0.0032
631.7815	-0.0089
631.9695	0.0077
632.1574	-0.0099
632.3452	0.0067
632.5331	-0.0073
632.7209	0.0037
632.9088	-0.0063
633.0966	-0.0084
633.2844	-0.0149
633.4722	-0.0055
633.6599	-0.0127
633.8477	-0.0006
634.0354	0.0063
634.2231	0.0267
634.4108	-0.0098
634.5985	-0.0073
634.7861	-0.0129
634.9738	0.0006
635.1614	0.0133
635.349	-0.0176
635.5366	-0.0065
635.7242	-0.006
635.9117	0.0023
636.0993	-0.0126
636.2868	-0.0004
636.4743	0.0177
636.6618	0.0165
636.8492	-0.0074
637.0367	-0.0108
637.2241	-0.0162
637.4115	0.005
637.5989	0.006
637.7863	-0.0083
637.9737	0.0073
638.161	-0.0026
638.3484	0.0123
638.5357	-0.0025
638.723	-0.0096
638.9103	0.0042
639.0975	0.0008
639.2848	0.0153
639.472	-0.0135
639.6592	0.0209
639.8464	0.0062
640.0336	-0.0116
640.2208	-0.0115
640.4079	-0.0003
640.595	-0.0022
640.7821	-0.0026
640.9692	-0.0008
641.1563	0.0068
641.3434	0.0148
641.5304	-0.0215
641.7174	0.0009
641.9044	-0.0001
642.0914	-0.0114
642.2784	0.0155
642.4653	0.0012
642.6523	0.0005
642.8392	0.0066
643.0261	0.0019
643.213	-0.0166
643.3999	-0.0066
643.5867	-0.0056
643.7735	0.0039
643.9604	-0.0062
644.1472	-0.0054
644.3339	-0.0089
644.5207	-0.0296
644.7075	-0.0098
644.8942	0.0084
645.0809	-0.0183
645.2676	-0.0085
645.4543	0.0021
645.6409	-0.0046
645.8276	-0.004
646.0142	0.0173
646.2008	-0.0274
646.3874	-0.0124
646.574	-0.0261
646.7605	0.0119
646.9471	0.0115
647.1336	-0.0093
647.3201	-0.0022
647.5066	0.0005
647.6931	-0.0132
647.8795	0.0116
648.0659	0.0012
648.2524	0.0004
648.4388	0.0024
648.6252	-0.0062
648.8115	0.0026
648.9979	-0.0132
649.1842	-0.0185
649.3705	0.0029
649.5568	-0.014
649.7431	-0.0136
649.9294	-0.0113
650.1156	-0.0075
650.3018	0.0045
650.488	0.0068
650.6742	0.0072
650.8604	0.0115
651.0466	0.0033
651.2327	-0.0249
651.4188	-0.0171
651.6049	-0.014
651.791	0.0237
651.9771	-0.0128
652.1632	0.0127
652.3492	-0.005
652.5352	0.0018
652.7212	-0.0251
652.9072	-0.0032
653.0932	0.0015
653.2791	0.0009
653.465	-0.0058
653.651	0.0069
653.8369	0.0118
654.0227	-0.0261
654.2086	-0.0136
654.3944	-0.0072
654.5803	0.0035
654.7661	-0.0064
654.9519	-0.0036
655.1377	0
655.3234	0
655.5092	0
655.6949	0
655.8806	0
656.0663	0
656.2519	0
656.4376	0
656.6232	0
656.8088	0
656.9945	0
657.18	0
657.3656	0
657.5511	0
657.7367	0
657.9222	0
658.1077	0
658.2932	0
658.4786	0
658.6641	0
658.8495	0
659.0349	0
659.2203	0
659.4057	0.0096
659.591	0.0297
659.7764	0.003
659.9617	-0.0176
660.147	-0.0026
660.3323	0.0036
660.5176	-0.0107
660.7028	0.0001
660.888	0.0084
661.0733	0.0085
661.2585	-0.0064
661.4436	0.0122
661.6288	-0.0044
661.8139	-0.0055
661.9991	0.0148
662.1842	0.0101
662.3693	0.0159
662.5544	-0.0026
662.7394	0.0099
662.9245	0.0146
663.1095	0.0187
663.2945	-0.0125
663.4795	0.0015
663.6644	-0.0018
663.8494	0.0022
664.0343	-0.0074
664.2193	-0.0058
664.4042	-0.0143
664.589	-0.0221
664.7739	-0.0093
664.9587	0.0006
665.1436	0.0013
665.3284	0.0006
665.5132	0.0067
665.698	-0.0089
665.8827	-0.0176
666.0675	-0.0225
666.2522	0.025
666.4369	-0.0076
666.6216	-0.0332
666.8063	-0.0237
666.9909	-0.022
667.1756	-0.0092
667.3602	-0.0148
667.5448	-0.0072
667.7294	0.0103
667.9139	0.0116
668.0985	-0.0205
668.283	0.0064
668.4675	-0.0118
668.652	-0.0333
668.8365	-0.0094
669.0209	-0.0216
669.2054	-0.0161
669.3898	-0.0075
669.5742	0.017
669.7586	0.0178
669.943	-0.0292
670.1273	0.0048
670.3117	0.0029
670.496	-0.006
670.6803	0.015
670.8646	-0.0004
671.0488	0.003
671.2331	-0.0057
671.4173	-0.0005
671.6015	0.0045
671.7857	-0.0284
671.9699	0.0048
672.1541	0.0016
672.3382	-0.0098
672.5223	0.0011
672.7064	-0.006
672.8905	0.0049
673.0746	-0.0254
673.2587	0.0044
673.4427	-0.008
673.6267	-0.0241
673.8107	-0.0094
673.9947	-0.0133
674.1787	-0.0036
674.3626	0.0034
674.5465	-0.0166
674.7304	-0.0169
674.9143	0.0026
675.0982	0.0026
675.2821	-0.0008
675.4659	-0.0018
675.6497	0.0182
675.8335	0.0093
676.0173	0.0001
676.2011	-0.0046
676.3849	0.0008
676.5686	0.0076
676.7523	0.0044
676.936	-0.0182
677.1197	0.0058
677.3034	-0.0033
677.487	-0.0006
677.6706	-0.0085
677.8542	0.0017
678.0378	0.0071
678.2214	-0.0032
678.405	-0.0006
678.5885	0.0094
678.772	-0.0063
678.9555	-0.0001
679.139	0.0011
679.3225	-0.0072
679.5059	-0.0158
679.6894	-0.025
679.8728	-0.0175
680.0562	-0.0036
680.2395	-0.0028
680.4229	-0.023
680.6062	0.0032
680.7896	-0.0025
680.9729	0.002
681.1562	-0.0042
681.3394	0.0028
681.5227	-0.0164
681.7059	-0.0095
681.8891	0.0017
682.0723	-0.0105
682.2555	0.0144
682.4387	0.0037
682.6218	-0.0145
682.805	-0.0031
682.9881	-0.0046
683.1712	0.0001
683.3542	-0.0067
683.5373	-0.0002
683.7203	-0.0024
683.9034	-0.0021
684.0864	-0.0134
684.2694	0.0057
684.4523	0.0072
684.6353	-0.0097
684.8182	-0.0068
685.0011	-0.0013
685.184	0.0083
685.3669	-0.0078
685.5498	0.0073
685.7326	-0.0087
685.9154	-0.0049
686.0982	-0.0071
686.281	-0.0039
686.4638	-0.0034
686.6465	0.0056
686.8293	0.0001
687.012	-0.0006
687.1947	-0.0115
687.3774	-0.0098
687.56	0.013
687.7427	0.0055
687.9253	-0.003
688.1079	0.0075
688.2905	0.0112
688.4731	0.0218
688.6556	-0.0155
688.8382	-0.0029
689.0207	-0.0148
689.2032	-0.0199
689.3857	0.0004
689.5681	-0.0002
689.7506	-0.0073
689.933	-0.0049
690.1154	-0.0146
690.2978	-0.0071
690.4802	0.0026
690.6626	-0.0046
690.8449	-0.0232
691.0272	-0.0251
691.2095	-0.0173
691.3918	-0.0088
691.5741	0.0059
691.7563	0.0161
691.9386	0.001
692.1208	-0.0108
692.303	0.0039
692.4852	0.0003
692.6673	-0.0122
692.8495	-0.0004
693.0316	-0.0042
693.2137	0.0303
693.3958	-0.0156
693.5778	-0.0145
693.7599	-0.0213
693.9419	-0.0183
694.1239	-0.0134
694.3059	-0.0186
694.4879	-0.0279
694.6699	0.0159
694.8518	-0.0029
695.0337	0.0184
695.2157	-0.0142
695.3975	-0.0091
695.5794	-0.0074
695.7613	0.0101
695.9431	-0.0385
696.1249	-0.0101
696.3067	0.0075
696.4885	0.0034
696.6703	-0.0005
696.852	-0.0248
697.0337	-0.0093
697.2154	0.0117
697.3971	0.0097
697.5788	0.0218
697.7605	-0.0011
697.9421	-0.0137
698.1237	0.0016
698.3053	-0.0104
698.4869	-0.008
698.6685	0.0025
698.85	-0.0077
699.0315	-0.0162
699.213	-0.0176
699.3945	0.0106
699.576	-0.0028
699.7575	-0.0428
699.9389	-0.0132
700.1203	-0.0056
700.3017	-0.0285
700.4831	-0.0027
700.6645	-0.0182
700.8458	-0.0003
701.0271	-0.0121
701.2084	-0.0436
701.3897	0.0044
701.571	-0.0228
701.7523	0.0009
701.9335	0.0201
702.1147	-0.0172
702.2959	0.0163
702.4771	-0.0094
702.6583	-0.0067
702.8394	0.0014
703.0205	-0.0137
703.2016	0.0164
703.3827	0.0179
703.5638	0.0072
703.7449	-0.0114
703.9259	0.0161
704.1069	0.0091
704.2879	0.012
704.4689	-0.0119
704.6499	-0.0501
704.8308	-0.0211
705.0117	-0.0344
705.1927	0.0012
705.3735	0.0371
705.5544	-0.009
705.7353	0.0251
705.9161	0.0148
706.0969	0.0055
706.2777	0.0174
706.4585	-0.0097
706.6393	0.0023
706.82	-0.0055
707.0007	0.0081
707.1815	0.0022
707.3621	-0.0045
707.5428	-0.0015
707.7235	-0.0009
707.9041	-0.0124
708.0847	-0.001
708.2653	-0.0051
708.4459	-0.0002
708.6265	-0.0207
708.807	0.0226
708.9875	-0.0321
709.168	-0.0204
709.3485	-0.0083
709.529	0.0193
709.7095	-0.0082
709.8899	0.0268
710.0703	-0.0002
710.2507	-0.0246
710.4311	0.0114
710.6115	0.0011
710.7918	-0.0079
710.9721	-0.012
711.1524	-0.0062
711.3327	-0.0149
711.513	-0.0322
711.6932	-0.0259
711.8735	-0.0166
712.0537	0.001
712.2339	0.0253
712.4141	0.0048
712.5942	0.0182
712.7744	0.0184
712.9545	-0.008
713.1346	-0.0038
713.3147	-0.0129
713.4947	-0.0007
713.6748	-0.0177
713.8548	-0.0144
714.0348	0.0097
714.2148	0.0066
714.3948	-0.0049
714.5748	-0.0225
714.7547	-0.0127
714.9346	-0.0215
715.1145	-0.0128
715.2944	-0.0179
715.4743	0.003
715.6541	-0.0393
715.834	0.0283
716.0138	0.0094
716.1936	-0.0176
716.3733	0.0012
716.5531	-0.0083
716.7328	-0.0362
716.9126	-0.044
717.0923	0.0033
717.2719	-0.0031
717.4516	-0.0218
717.6312	-0.0405
717.8109	0.0012
717.9905	-0.006
718.1701	-0.0058
718.3496	-0.0069
718.5292	-0.0333
718.7087	0.0083
718.8882	0.0176
719.0677	-0.0118
719.2472	-0.0013
719.4267	0.0046
719.6061	-0.012
719.7856	0.0137
719.965	-0.0044
720.1443	-0.0197
720.3237	0.0028
720.5031	0.0016
720.6824	-0.0157
720.8617	-0.0186
721.041	0.002
721.2203	0.0065
721.3995	-0.0186
721.5788	-0.0047
721.758	-0.002
721.9372	-0.0076
722.1164	0.0143
722.2956	0.0089
722.4747	-0.0082
722.6538	-0.0025
722.8329	-0.0246
723.012	0.01
723.1911	-0.0078
723.3702	-0.0268
723.5492	0.0069
723.7282	-0.0264
723.9072	-0.0055
724.0862	-0.0201
724.2652	-0.0328
724.4441	-0.0047
724.623	-0.0288
724.8019	-0.016
724.9808	-0.0034
725.1597	-0.0016
725.3385	0.0086
725.5174	0.0275
725.6962	0.0234
725.875	0.014
726.0538	-0.0062
726.2325	-0.021
726.4112	0.012
726.59	0.0047
726.7687	-0.0047
726.9474	0.0169
727.126	-0.0145
727.3047	-0.0095
727.4833	0.0228
727.6619	0.0076
727.8405	-0.0006
728.0191	-0.0183
728.1976	-0.0144
728.3762	-0.0232
728.5547	-0.0155
728.7332	0.007
728.9116	-0.0447
729.0901	0.0108
729.2686	-0.0291
729.447	-0.008
729.6254	0.02
729.8038	0.0043
729.9821	-0.0008
730.1605	-0.0085
730.3388	-0.0279
730.5171	-0.008
730.6954	0.0032
730.8737	0.0153
731.0519	0.0044
731.2302	-0.0157
731.4084	-0.0168
731.5866	-0.0238
731.7648	-0.0061
731.9429	-0.0093
732.1211	-0.0187
732.2992	-0.0192
732.4773	-0.0197
732.6554	0.004
732.8335	0.0042
733.0115	-0.0171
733.1896	-0.008
733.3676	0.0038
733.5456	-0.0061
733.7235	0.0095
733.9015	0.0053
734.0794	-0.0041
734.2574	0.0064
734.4353	-0.008
734.6131	-0.0172
734.791	0.0113
734.9689	0.0072
735.1467	-0.0104
735.3245	0.0116
735.5023	0.0098
735.68	-0.0239
735.8578	-0.0123
736.0355	-0.0056
736.2132	0.0167
736.3909	-0.0061
736.5686	0.0006
736.7463	-0.0121
736.9239	-0.0005
737.1015	-0.0254
737.2791	0.0058
737.4567	0.0019
737.6343	-0.0088
737.8118	-0.0039
737.9894	0.0109
738.1669	0.0025
738.3444	-0.0014
738.5218	0.0073
738.6993	-0.0043
738.8767	-0.0149
739.0541	0.0136
739.2315	-0.0042
739.4089	0.0034
739.5863	0.0092
739.7636	0.0123
739.9409	-0.0126
740.1182	-0.005
740.2955	-0.0513
740.4728	0.0219
740.65	-0.0156
740.8272	-0.0163
741.0044	0.0136
741.1816	0.0443
741.3588	0.0063
741.5359	-0.0148
741.7131	0.0216
741.8902	-0.0169
742.0673	0.0115
742.2444	-0.0003
742.4214	0.0185
742.5985	0.0279
742.7755	-0.032
742.9525	0.0154
743.1295	-0.0048
743.3064	0.0094
743.4834	0.0038
743.6603	0.0254
743.8372	-0.028
744.0141	0.0232
744.191	-0.0047
744.3678	-0.0035
744.5446	0.0011
744.7215	-0.0295
744.8982	0.0141
745.075	-0.0031
745.2518	-0.0093
745.4285	-0.0418
745.6052	0.0029
745.7819	0.0045
745.9586	0.0134
746.1353	-0.0182
746.3119	-0.0134
746.4885	0.0006
746.6651	-0.0305
746.8417	-0.0272
747.0183	-0.0147
747.1948	-0.0274
747.3714	-0.0041
747.5479	0.0227
747.7244	-0.0041
747.9008	0.0142
748.0773	0.0178
748.2537	0.0349
748.4301	0.0163
748.6065	-0.0283
748.7829	-0.0071
748.9593	0.0095
749.1356	0.0156
749.3119	-0.0197
749.4882	-0.0086
749.6645	-0.0011
749.8408	-0.017
750.017	0.0118
750.1933	0.0258
750.3695	0.0177
750.5457	-0.0276
750.7218	0.0127
750.898	-0.0283
751.0741	0.0094
751.2502	0.001
751.4263	-0.0031
751.6024	0.0173
751.7784	-0.0323
751.9545	-0.0329
752.1305	-0.003
752.3065	0.0336
752.4825	-0.0397
752.6584	-0.0067
752.8344	-0.0035
753.0103	-0.0252
753.1862	-0.0191
753.3621	-0.0149
753.5379	-0.0183
753.7138	-0.0054
753.8896	0.0236
754.0654	-0.0097
754.2412	0.0183
754.417	-0.0056
754.5927	0.0194
754.7685	-0.0253
754.9442	-0.0265
755.1199	-0.0029
755.2956	0.0174
755.4712	-0.0142
755.6469	-0.0192
755.8225	0.0052
755.9981	-0.0004
756.1736	0.0182
756.3492	-0.0315
756.5248	-0.0177
756.7003	-0.0015
756.8758	-0.005
757.0513	-0.0043
757.2267	-0.0171
757.4022	-0.0126
757.5776	-0.022
757.753	-0.0195
757.9284	-0.0053
758.1038	-0.0174
758.2791	-0.0045
758.4545	-0.0259
758.6298	-0.0063
758.8051	0.0064
758.9803	-0.0083
759.1556	-0.024
759.3308	0.0026
759.506	0.0173
759.6812	-0.0083
759.8564	-0.0256
760.0316	-0.0132
760.2067	-0.0142
760.3819	-0.0139
760.557	-0.004
760.732	0.0242
760.9071	-0.0227
761.0821	0.0043
761.2572	-0.0033
761.4322	-0.0127
761.6072	-0.0131
761.7821	0.0241
761.9571	-0.0095
762.132	-0.0077
762.3069	-0.0126
762.4818	-0.0295
762.6567	0.0123
762.8316	-0.0135
763.0064	-0.035
763.1812	-0.0066
763.356	-0.0128
763.5308	-0.0041
763.7055	-0.003
763.8803	-0.0097
764.055	-0.0175
764.2297	-0.0066
764.4044	-0.0175
764.579	-0.0069
764.7537	-0.0052
764.9283	-0.0371
765.1029	0.0016
765.2775	-0.0214
765.4521	0.0085
765.6266	-0.0199
765.8011	-0.0341
765.9756	0.0216
766.1501	0.0253
766.3246	-0.0013
766.4991	-0.0299
766.6735	-0.0205
766.8479	-0.0328
767.0223	0.0079
767.1967	-0.0064
767.371	-0.0157
767.5454	0.0174
767.7197	-0.0116
767.894	-0.049
768.0683	-0.0322
768.2425	0.0005
768.4168	0.0229
768.591	0.0149
768.7652	0.0097
768.9394	-0.0042
769.1135	-0.0064
769.2877	0.0001
769.4618	-0.002
769.6359	-0.0003
769.81	0.0041
769.984	-0.0144
770.1581	-0.0081
770.3321	-0.0171
770.5061	0.0058
770.6801	0.0045
770.8541	-0.0047
771.028	-0.0274
771.202	-0.0436
771.3759	-0.0117
771.5498	-0.0133
771.7236	-0.019
771.8975	-0.0435
772.0713	0.0006
772.2451	-0.0248
772.4189	-0.0323
772.5927	-0.04
772.7665	0.0392
772.9402	-0.0014
773.1139	-0.0076
773.2876	0.0018
773.4613	0.0139
773.635	0.0002
773.8086	-0.0129
773.9822	-0.0135
774.1558	-0.0161
774.3294	-0.0518
774.503	0.003
774.6765	0.0197
774.8501	0.0333
775.0236	0.0227
775.1971	-0.0182
775.3705	-0.0591
775.544	0.0157
775.7174	-0.0378
775.8908	0.046
776.0642	-0.03
776.2376	-0.0556
776.4109	0.0787
776.5843	-0.0301
776.7576	0.0259
776.9309	0.066
777.1041	-0.0173
777.2774	-0.0006
777.4506	0.0012
777.6238	-0.0123
777.797	-0.0441
777.9702	0.0112
778.1434	-0.0073
778.3165	-0.031
778.4896	-0.0144
778.6627	0.0133
778.8358	-0.0178
779.0089	0.0151
779.1819	-0.02
779.3549	0.0258
779.5279	-0.0219
779.7009	-0.0076
779.8739	-0.0369
780.0468	0.0072
780.2197	-0.0407
780.3926	-0.0408
780.5655	-0.0102
780.7384	0.0149
780.9112	0.0285
781.0841	-0.0364
781.2569	0.0098
781.4297	0.0212
781.6024	-0.0133
781.7752	-0.0264
781.9479	-0.0205
782.1206	0.0198
782.2933	-0.005
782.466	-0.0168
782.6386	0.0065
782.8113	-0.0076
782.9839	0.0499
783.1565	-0.0128
783.329	-0.0172
783.5016	-0.0289
783.6741	-0.0145
783.8466	-0.0677
784.0191	0.0068
784.1916	-0.0112
784.3641	-0.0095
784.5365	0.0603
784.7089	-0.0293
784.8813	-0.0078
785.0537	0.0039
785.2261	0.001
785.3984	-0.0142
785.5707	0.0339
785.743	-0.0267
785.9153	0.0325
786.0876	-0.0488
786.2598	0.0039
786.432	-0.0179
786.6042	0.0316
786.7764	-0.0249
786.9486	0.0264
787.1207	0.0232
787.2928	-0.035
787.4649	-0.003
787.637	-0.0188
787.8091	-0.0023
787.9811	0.0228
788.1532	-0.0051
788.3252	-0.0035
788.4972	-0.0182
788.6691	0.0317
788.8411	0.0509
789.013	0.0109
789.1849	-0.0137
789.3568	-0.0471
789.5287	-0.0365
789.7005	0.0242
789.8723	-0.0645
790.0442	-0.0623
790.2159	0.012
790.3877	0.0463
790.5595	0.0671
790.7312	-0.0049
790.9029	-0.0243
791.0746	0.0271
791.2463	0.0419
791.4179	-0.0447
791.5896	-0.0691
791.7612	-0.0647
791.9328	-0.0318
792.1044	-0.0364
792.2759	0.006
792.4474	-0.0733
792.619	0.0098
792.7905	0.0016
792.9619	0.0295
793.1334	-0.0858
793.3048	-0.054
793.4762	0.0091
793.6476	0.0056
793.819	-0.052
793.9904	0.0126
794.1617	0.0039
794.333	-0.0364
794.5043	-0.0274
794.6756	0.0097
794.8469	0.0111
795.0181	-0.0317
795.1893	-0.0162
795.3605	-0.064
795.5317	-0.0344
795.7029	0.0043
795.874	-0.0128
796.0452	0.0071
796.2163	0.023
796.3873	0.0791
796.5584	0.0868
796.7294	-0.0209
796.9005	-0.081
797.0715	0.0533
797.2425	-0.061
797.4134	-0.0355
797.5844	0.0363
797.7553	-0.003
797.9262	0.0396
798.0971	-0.0521
798.2679	-0.002
798.4388	-0.0431
798.6096	0.005
798.7804	-0.0085
798.9512	0.0028
799.122	0.0143
799.2927	-0.0674
799.4635	0.0315
799.6342	0.0107
799.8049	0.0461
799.9755	-0.02
800.1462	0.0197
800.3168	-0.0226
800.4874	0.0177
800.658	-0.0256
800.8286	-0.0325
800.9991	0.0216
801.1696	-0.0775
801.3402	-0.1157
801.5106	-0.0811
801.6811	-0.0309
801.8516	-0.0251
802.022	0.0048
802.1924	-0.1242
802.3628	-0.0243
802.5332	0.0162
802.7035	-0.0498
802.8739	0.047
803.0442	-0.0029
803.2145	0.025
803.3847	-0.003
803.555	-0.0658
803.7252	0.065
803.8954	0.0005
804.0656	-0.004
804.2358	-0.0335
804.4059	0.0318
804.5761	-0.0012
804.7462	0.0063
804.9163	-0.0164
805.0864	0.0633
805.2564	-0.0483
805.4264	-0.0717
805.5965	0.0312
805.7665	0.0453
805.9364	-0.0752
806.1064	-0.0292
806.2763	0.0549
806.4462	-0.0521
806.6161	-0.0128
806.786	0.0014
806.9559	0.005
807.1257	-0.0235
807.2955	0.0516
807.4653	-0.1048
807.6351	-0.0331
807.8048	-0.0579
807.9746	-0.0009
808.1443	0.0041
808.314	-0.0054
808.4837	-0.0833
808.6533	0.0185
808.8229	-0.0652
808.9926	-0.0257
809.1622	-0.0046
809.3317	-0.008
809.5013	0.0475
809.6708	-0.0216
809.8403	0.0638
810.0098	0.0376
810.1793	0.1423
810.3488	-0.0205
810.5182	0.029
810.6876	0.0226
810.857	0.012
811.0264	0.0169
811.1958	-0.0339
811.3651	-0.0856
811.5344	-0.0187
811.7037	-0.0847
811.873	0.0164
812.0422	0.0639
812.2115	-0.0219
812.3807	0.1086
812.5499	-0.0353
812.7191	0.0682
812.8882	-0.0593
813.0574	-0.2129
813.2265	0.1144
813.3956	-0.1048
813.5646	0.0502
813.7337	-0.1034
813.9027	-0.0507
814.0718	-0.0312
814.2407	-0.0994
814.4097	0.0971
814.5787	-0.014
814.7476	0.0208
814.9165	-0.0752
815.0854	0.045
815.2543	0.0609
815.4232	-0.0866
815.592	0.1437
815.7608	0.1438
815.9296	-0.0383
816.0984	0.0927
816.2671	-0.1898
816.4359	0.0939
816.6046	-0.0412
816.7733	0.0502
816.942	-0.0083
817.1106	-0.1278
817.2793	0.0837
817.4479	-0.074
817.6165	-0.0221
817.785	-0.0442
817.9536	0.0338
818.1221	0.066
818.2906	0.0859
818.4591	-0.1054
818.6276	0.1358
818.7961	0.0525
818.9645	-0.0095
819.1329	0.2047
819.3013	0.1472
819.4697	0.2581
819.638	0.059
819.8064	-0.0461
819.9747	0.0055
820.143	0.0756
820.3113	0.1055
820.4795	0.0939
820.6477	-0.0718
820.816	-0.0361
820.9842	-0.0409
821.1523	0.0616
821.3205	-0.0081
821.4886	-0.0404
821.6567	0.007
821.8248	-0.0427
821.9929	-0.0084
822.1609	-0.0268
822.329	0.0656
822.497	-0.0685
822.665	-0.0486
822.833	-0.1156
823.0009	-0.2331
823.1688	-0.189
823.3367	-0.2615
823.5046	0.0818
823.6725	0.1062
823.8404	0.0489
824.0082	0.0205
824.176	-0.0143
824.3438	0.0515
824.5116	0.0936
824.6793	0.0269
824.847	-0.0506
825.0147	0.1347
825.1824	0.0752
825.3501	0.2606
825.5177	0.111
825.6854	0.0099
825.853	-0.0094
826.0206	0.0269
826.1881	-0.0956
826.3557	0.2137
826.5232	0.0445
826.6907	0.0932
826.8582	-0.1526
827.0257	-0.126
827.1931	0.1241
827.3605	-0.0603
827.528	-0.003
827.6953	-0.0105
827.8627	-0.0149
828.03	0.0038
828.1974	-0.1734
828.3647	0.0065
828.532	0.0466
828.6992	-0.03
828.8665	-0.0548
829.0337	-0.0448
829.2009	0.1505
829.3681	0.0625
829.5352	0.0552
829.7024	0.0229
829.8695	-0.0681
830.0366	0.1891
830.2037	0.0133
830.3707	-0.0792
830.5378	0.1776
830.7048	-0.2099
830.8718	-0.0842
831.0388	0.0403
831.2057	-0.2205
831.3727	-0.1637
831.5396	-0.0403
831.7065	0.0205
831.8734	-0.246
832.0402	-0.0845
832.2071	-0.0326
832.3739	-0.0901
832.5407	-0
832.7075	0.0071
832.8742	0.2672
833.041	-0.1787
833.2077	0.0655
833.3744	0.4793
833.541	-0.0383
833.7077	-0.1304
833.8743	-0.012
834.0409	-0.0028
834.2075	0.028
834.3741	0.3151
834.5407	-0.3393
834.7072	0.1598
834.8737	-0.0065
835.0402	-0.233
835.2067	0.011
835.3731	-0.0111
835.5395	0.0336
835.706	-0.0976
835.8723	-0.2292
836.0387	0.1922
836.2051	0.3412
836.3714	-0.3232
836.5377	0.1368
836.704	-0
836.8703	-0.2458
837.0365	0.1085
837.2027	-0.3911
837.3689	0.7836
837.5351	0.365
837.7013	0.0445
837.8674	-0.5735
838.0335	-0.107
838.1997	-0.0261
838.3657	1.2823
838.5318	-0.7059
838.6978	-0
838.8639	0.0491
839.0299	0.2405
839.1958	0.0706
839.3618	1.7302
839.5277	-0.2533
839.6937	-0.211
839.8596	-0.111
840.0254	0.2563
840.1913	0.2899
840.3571	0.9156
840.523	0.317
840.6888	-0.282
840.8545	0.1411
841.0203	-0.1763
841.186	0.1951
841.3517	0.4091
841.5174	0.0952
841.6831	0.3731
841.8488	-0.1027
842.0144	0.3268
842.18	0.1791
842.3456	-0.0119
842.5112	-0
842.6767	-0.098
842.8422	-0.2101
843.0077	0.373
843.1732	-0.2412
843.3387	0.006
843.5042	-0
843.6696	-0.2672
843.835	-0.2754
844.0004	-0.0106
844.1657	1.2823
844.3311	-0
844.4964	-0.1379
844.6617	-0.3171
844.827	0.5444
844.9923	0.1332
845.1575	-0
845.3227	-0.0681
845.4879	-0.0512
845.6531	-0.187
845.8183	0.0758
845.9834	-0
846.1485	-0.3274
846.3136	0.276
846.4787	0.0741
846.6438	0.3825
846.8088	-1.3933
846.9738	0.8424
847.1388	0.1188
847.3038	-0.3994
847.4687	-0
847.6337	0.6396
847.7986	0.0241
847.9635	-0.0408
848.1284	-0
848.2932	-0.0436
848.458	0.1477
848.6228	0.3212
848.7876	0.1744
848.9524	-0.0379
849.1172	-0.4255
849.2819	-0
849.4466	-0.2955
849.6113	-0.277
849.7759	0.2524
849.9406	0.3911
850.1052	-0.5583
850.2698	-0
850.4344	1.3329
850.599	-0.0293
850.7635	0.0522
850.928	-0
851.0925	1.5971
851.257	-0.445
851.4215	0.4516
851.5859	0.1484
851.7503	-0
851.9147	-0
852.0791	0.0069
852.2434	0.2224
852.4078	-0
852.5721	0.2719
852.7364	-0.1362
852.9007	-0.368
853.0649	0.9401
853.2291	0.2076
853.3934	0.3691
853.5575	-0.1764
853.7217	-0.5444
853.8859	0.8732
854.05	-0.87
854.2141	-0
854.3782	-0
854.5423	-0.4324
854.7063	-0.2655
854.8703	0.5853
855.0343	-0.0499
855.1983	0.0259
855.3623	0.2442
855.5262	-0.741
855.6901	0.4359
855.854	-0.2008
856.0179	-0
856.1818	-0
856.3456	0.1945
856.5094	-0
856.6732	-0.6156
856.837	0.9205
857.0008	-0
857.1645	-0
857.3282	0.1628
857.4919	-0.022
857.6556	-0.1319
857.8192	-0.1973
857.9828	-0.1286
858.1465	0.0802
858.31	-0.736
858.4736	-0.1224
858.6372	-0.1614
858.8007	-1.3283
858.9642	0.2192
859.1277	-0.2594
859.2911	-0.0424
859.4546	-0.3234
859.618	-0.0249
859.7814	-0
859.9448	-0
860.1081	-0.0906
860.2715	-0
860.4348	0.1507
860.5981	-0
860.7614	-0
860.9246	-0.2014
861.0879	-0.3766
861.2511	-0
861.4143	0.7073
861.5774	0.7416
861.7406	-0.3453
861.9037	-0.1389
862.0668	-0
862.2299	-1.195
862.393	-0
862.556	-0.3453
862.7191	-0.1704
862.8821	-0.4538
863.0451	0.3613
863.208	-0
863.371	-0.0358
863.5339	-0.2002
863.6968	0.1896
863.8597	-0.6072
864.0225	0.7513
864.1854	0.5863
864.3482	0.3261
864.511	-0.0454
864.6737	-0
864.8365	0.671
864.9992	-0.6935
865.1619	-0.2978
865.3246	-0.3773
865.4873	-0.9017
865.65	-0
865.8126	0.8093
865.9752	-0.1766
866.1378	-0.8465
866.3004	0.3591
866.4629	0.1939
866.6254	-1.1203
866.7879	0.2337
866.9504	-0
867.1129	0.5212
867.2753	-0.1882
867.4377	0.1499
867.6001	0.3237
867.7625	0.1215
867.9249	-0
868.0872	-0.297
868.2495	-0
868.4118	-0
868.5741	-0
868.7363	-0.1044
868.8986	-0.4749
869.0608	-0
869.223	0.2742
869.3851	0.7037
869.5473	-0.6859
869.7094	-0
869.8715	1.4569
870.0336	0.2772
870.1957	-0.6774
870.3577	-0.0612
870.5197	0.0843
870.6817	-0
870.8437	0.1072
871.0057	2.3032
871.1676	0.2766
871.3295	-0
871.4914	-0
871.6533	0.485
871.8151	-0
871.977	0.4735
872.1388	-0.6317
872.3006	0.1362
872.4623	-0.8257
872.6241	-0.8846
872.7858	-0.2008
872.9475	-0.4828
873.1092	0.2894
873.2709	0.0206
873.4325	-0
873.5941	-0.4383
873.7557	-0
873.9173	-0.8475
874.0789	0.4552
874.2404	-0.2639
874.4019	-0.0891
874.5634	-0.2668
874.7249	-0
874.8863	0.2359
875.0478	0.101
875.2092	-0.2144
875.3706	0.1171
875.5319	0.2928
875.6933	0.103
875.8546	0.0548
876.0159	-0.0733
876.1772	-0.2668
876.3385	-0.2274
876.4997	-0.0796
876.6609	-0
876.8221	0.3268
876.9833	-0.0993
877.1445	-0
877.3056	-0.2597
877.4667	-1.2632
877.6278	-0
877.7889	0.7046
877.9499	-0
878.111	-0.1004
878.272	-0
878.433	-0.3073
878.5939	-0
878.7549	-0
878.9158	0.7945
879.0767	-0
879.2376	-0
879.3984	-0.0165
879.5593	-0.2366
879.7201	0.6683
879.8809	-0
880.0417	0.0758
880.2024	0.0034
880.3632	-0.2201
880.5239	-0.3855
880.6846	-0.1774
880.8452	0.2422
881.0059	-0.0932
881.1665	0.096
881.3271	0.2815
881.4877	0.0038
881.6483	-1.5734
881.8088	-0.0985
881.9693	0.171
882.1298	0.171
882.2903	0.171
