Data from D4ACN5uM480nmA_Absorbance_12-08-00-055.txt Node
Date: Fri Feb 21 12:08:00 GMT 2025
User: LASERRRRR
Spectrometer: FLMT03099
Trigger mode: 0
Integration Time (sec): 1.500000E-2
Scans to average: 1
Electric dark correction enabled: true
Nonlinearity correction enabled: false
Boxcar width: 0
XAxis mode: Wavelengths
Number of Pixels in Spectrum: 3648
>>>>>Begin Spectral Data<<<<<
179.3399	-0
179.5586	-0
179.7771	-0
179.9957	0.0054
180.2143	-0.1047
180.4329	-0
180.6514	-0
180.8699	-0.3821
181.0885	0.6247
181.307	0.0024
181.5255	1.2068
181.744	-0
181.9625	1.5502
182.181	0.9508
182.3994	-0
182.6179	-0
182.8363	-0
183.0547	-0
183.2732	0.3189
183.4916	0.4397
183.71	0.0747
183.9284	0.2708
184.1467	-0.1259
184.3651	0.1639
184.5835	0.1713
184.8018	0.3115
185.0201	0.4381
185.2385	0.172
185.4568	0.305
185.6751	0.0868
185.8934	0.2344
186.1117	0.2632
186.3299	0.2866
186.5482	0.2596
186.7664	0.2871
186.9847	0.2352
187.2029	0.158
187.4211	0.1707
187.6393	0.4403
187.8575	0.2511
188.0757	0.4162
188.2939	0.0669
188.512	0.2245
188.7302	0.1697
188.9483	-0
189.1665	0.8516
189.3846	0.0903
189.6027	0.3635
189.8208	0.1904
190.0389	0.1929
190.257	0.2448
190.475	0.4381
190.6931	0.1982
190.9111	0.3798
191.1292	0.234
191.3472	0.2057
191.5652	0.537
191.7832	0.3466
192.0012	0.5586
192.2192	0.4275
192.4371	0.3908
192.6551	0.3222
192.873	0.2499
193.091	0.3631
193.3089	0.296
193.5268	0.4081
193.7447	0.3221
193.9626	0.3446
194.1805	0.4383
194.3984	0.5032
194.6162	0.5138
194.8341	0.7581
195.0519	0.521
195.2697	0.5268
195.4875	0.8129
195.7054	0.4354
195.9231	0.5411
196.1409	0.5037
196.3587	0.4889
196.5765	0.5853
196.7942	0.5594
197.012	0.5784
197.2297	0.4849
197.4474	0.6886
197.6651	0.5372
197.8828	0.5971
198.1005	0.7302
198.3182	0.5872
198.5358	0.5652
198.7535	0.6262
198.9711	0.6034
199.1888	0.633
199.4064	0.671
199.624	0.5887
199.8416	0.5694
200.0592	0.5686
200.2767	0.564
200.4943	0.6933
200.7119	0.6424
200.9294	0.6076
201.1469	0.7279
201.3645	0.6232
201.582	0.5159
201.7995	0.6555
202.017	0.5426
202.2344	0.6124
202.4519	0.5478
202.6694	0.5376
202.8868	0.511
203.1042	0.6068
203.3217	0.5688
203.5391	0.5626
203.7565	0.4894
203.9739	0.5401
204.1913	0.5032
204.4086	0.4865
204.626	0.5037
204.8433	0.5116
205.0607	0.5072
205.278	0.5056
205.4953	0.4482
205.7126	0.4745
205.9299	0.4763
206.1472	0.5023
206.3644	0.5009
206.5817	0.4809
206.7989	0.4949
207.0162	0.4325
207.2334	0.4514
207.4506	0.4447
207.6678	0.4139
207.885	0.4196
208.1022	0.4663
208.3194	0.4635
208.5365	0.4702
208.7537	0.462
208.9708	0.4491
209.1879	0.4292
209.405	0.4088
209.6222	0.451
209.8392	0.4264
210.0563	0.4062
210.2734	0.4091
210.4905	0.4204
210.7075	0.4644
210.9245	0.4284
211.1416	0.4313
211.3586	0.4146
211.5756	0.4111
211.7926	0.4308
212.0096	0.4008
212.2265	0.4175
212.4435	0.4087
212.6604	0.4048
212.8774	0.4278
213.0943	0.4433
213.3112	0.4285
213.5281	0.4341
213.745	0.4035
213.9619	0.3692
214.1788	0.393
214.3956	0.4299
214.6125	0.4082
214.8293	0.4089
215.0461	0.416
215.2629	0.3905
215.4798	0.3924
215.6965	0.4046
215.9133	0.404
216.1301	0.4068
216.3469	0.4241
216.5636	0.3908
216.7803	0.4322
216.9971	0.4335
217.2138	0.3973
217.4305	0.4222
217.6472	0.4127
217.8639	0.4299
218.0805	0.4234
218.2972	0.4296
218.5138	0.4544
218.7305	0.4139
218.9471	0.4391
219.1637	0.4147
219.3803	0.4267
219.5969	0.4333
219.8135	0.4251
220.0301	0.4108
220.2466	0.4325
220.4632	0.4311
220.6797	0.4251
220.8962	0.4276
221.1127	0.432
221.3292	0.4251
221.5457	0.4448
221.7622	0.4503
221.9787	0.4403
222.1951	0.4393
222.4116	0.4284
222.628	0.4359
222.8444	0.434
223.0608	0.4378
223.2772	0.4424
223.4936	0.4533
223.71	0.4402
223.9264	0.456
224.1427	0.4623
224.3591	0.4472
224.5754	0.4663
224.7917	0.4551
225.008	0.4649
225.2243	0.4695
225.4406	0.4679
225.6569	0.4602
225.8732	0.4713
226.0894	0.4672
226.3057	0.469
226.5219	0.4781
226.7381	0.477
226.9543	0.4737
227.1705	0.4795
227.3867	0.495
227.6029	0.4765
227.8191	0.4858
228.0352	0.4973
228.2513	0.4877
228.4675	0.4969
228.6836	0.4912
228.8997	0.4973
229.1158	0.4924
229.3319	0.5115
229.548	0.4943
229.764	0.5003
229.9801	0.5166
230.1961	0.5068
230.4121	0.519
230.6282	0.5156
230.8442	0.5094
231.0602	0.5193
231.2761	0.5229
231.4921	0.5126
231.7081	0.5141
231.924	0.5279
232.14	0.53
232.3559	0.5268
232.5718	0.5315
232.7877	0.528
233.0036	0.5245
233.2195	0.5327
233.4353	0.5307
233.6512	0.5362
233.867	0.5305
234.0829	0.5434
234.2987	0.5336
234.5145	0.5307
234.7303	0.5233
234.9461	0.5403
235.1619	0.535
235.3776	0.5379
235.5934	0.5227
235.8091	0.5252
236.0249	0.5419
236.2406	0.5427
236.4563	0.5288
236.672	0.5493
236.8877	0.5334
237.1034	0.529
237.319	0.5314
237.5347	0.5383
237.7503	0.5334
237.966	0.5248
238.1816	0.5367
238.3972	0.5357
238.6128	0.5396
238.8284	0.5399
239.0439	0.5426
239.2595	0.5347
239.475	0.5396
239.6906	0.5356
239.9061	0.5287
240.1216	0.524
240.3371	0.5275
240.5526	0.5193
240.7681	0.527
240.9836	0.5125
241.199	0.5125
241.4145	0.4998
241.6299	0.4958
241.8453	0.4893
242.0607	0.4924
242.2761	0.4793
242.4915	0.4747
242.7069	0.4676
242.9223	0.4694
243.1376	0.4507
243.353	0.4522
243.5683	0.4372
243.7836	0.4335
243.9989	0.4152
244.2142	0.4121
244.4295	0.412
244.6448	0.4002
244.86	0.3908
245.0753	0.3827
245.2905	0.3745
245.5057	0.3691
245.721	0.3613
245.9362	0.3513
246.1514	0.3339
246.3665	0.331
246.5817	0.3321
246.7969	0.319
247.012	0.3206
247.2271	0.3083
247.4423	0.302
247.6574	0.307
247.8725	0.3037
248.0876	0.2931
248.3026	0.2875
248.5177	0.2749
248.7328	0.2799
248.9478	0.2733
249.1628	0.2706
249.3779	0.2667
249.5929	0.2626
249.8079	0.2536
250.0228	0.2553
250.2378	0.2535
250.4528	0.2557
250.6677	0.2393
250.8827	0.2386
251.0976	0.2402
251.3125	0.2359
251.5274	0.2295
251.7423	0.2309
251.9572	0.218
252.172	0.2243
252.3869	0.2182
252.6017	0.215
252.8166	0.2219
253.0314	0.2204
253.2462	0.2214
253.461	0.2111
253.6758	0.2054
253.8906	0.2053
254.1053	0.2027
254.3201	0.2097
254.5348	0.2078
254.7496	0.2038
254.9643	0.2074
255.179	0.204
255.3937	0.1989
255.6083	0.1996
255.823	0.1999
256.0377	0.1994
256.2523	0.1974
256.467	0.1974
256.6816	0.2016
256.8962	0.1976
257.1108	0.1895
257.3254	0.192
257.54	0.1967
257.7545	0.1913
257.9691	0.1867
258.1836	0.1881
258.3981	0.189
258.6127	0.1828
258.8272	0.1892
259.0417	0.1827
259.2561	0.1853
259.4706	0.1867
259.6851	0.18
259.8995	0.1844
260.114	0.185
260.3284	0.1861
260.5428	0.1817
260.7572	0.1886
260.9716	0.1813
261.186	0.1786
261.4003	0.1865
261.6147	0.1818
261.829	0.179
262.0433	0.1813
262.2577	0.1923
262.472	0.1865
262.6863	0.1875
262.9005	0.1905
263.1148	0.1805
263.3291	0.1904
263.5433	0.1845
263.7576	0.1824
263.9718	0.19
264.186	0.1829
264.4002	0.1816
264.6144	0.1868
264.8286	0.1928
265.0427	0.1929
265.2569	0.1892
265.471	0.1881
265.6851	0.184
265.8993	0.1867
266.1134	0.1842
266.3275	0.1855
266.5415	0.1848
266.7556	0.1839
266.9697	0.187
267.1837	0.1845
267.3978	0.1911
267.6118	0.1847
267.8258	0.1872
268.0398	0.1824
268.2538	0.1877
268.4677	0.1835
268.6817	0.1754
268.8957	0.1822
269.1096	0.176
269.3235	0.1826
269.5374	0.1764
269.7514	0.1836
269.9652	0.1805
270.1791	0.1787
270.393	0.1851
270.6068	0.1696
270.8207	0.1787
271.0345	0.1764
271.2483	0.1811
271.4622	0.1736
271.676	0.1702
271.8897	0.1729
272.1035	0.1742
272.3173	0.1755
272.531	0.172
272.7448	0.175
272.9585	0.1723
273.1722	0.1704
273.3859	0.1726
273.5996	0.1745
273.8133	0.1719
274.0269	0.1707
274.2406	0.1677
274.4542	0.1707
274.6679	0.1677
274.8815	0.1751
275.0951	0.1728
275.3087	0.1784
275.5223	0.1694
275.7358	0.1743
275.9494	0.1738
276.1629	0.1711
276.3765	0.1711
276.59	0.1749
276.8035	0.1832
277.017	0.1785
277.2305	0.1738
277.444	0.1775
277.6574	0.179
277.8709	0.1751
278.0843	0.1752
278.2978	0.1743
278.5112	0.1809
278.7246	0.1758
278.938	0.1781
279.1513	0.1844
279.3647	0.1803
279.5781	0.182
279.7914	0.185
280.0047	0.1752
280.2181	0.1803
280.4314	0.18
280.6447	0.1867
280.8579	0.1801
281.0712	0.1807
281.2845	0.1849
281.4977	0.1868
281.711	0.1855
281.9242	0.1858
282.1374	0.1866
282.3506	0.189
282.5638	0.1829
282.7769	0.1866
282.9901	0.1852
283.2033	0.1893
283.4164	0.1828
283.6295	0.188
283.8426	0.1877
284.0557	0.1831
284.2688	0.189
284.4819	0.1908
284.695	0.198
284.908	0.1916
285.1211	0.1907
285.3341	0.1926
285.5471	0.1934
285.7601	0.1946
285.9731	0.1888
286.1861	0.192
286.3991	0.19
286.612	0.1961
286.825	0.1933
287.0379	0.1979
287.2508	0.195
287.4637	0.1953
287.6766	0.1921
287.8895	0.1924
288.1024	0.1962
288.3152	0.1946
288.5281	0.1989
288.7409	0.2017
288.9538	0.1962
289.1666	0.1965
289.3794	0.1973
289.5922	0.1901
289.8049	0.2062
290.0177	0.1929
290.2304	0.2049
290.4432	0.2039
290.6559	0.192
290.8686	0.2006
291.0813	0.2044
291.294	0.2015
291.5067	0.2025
291.7194	0.1994
291.932	0.2012
292.1447	0.1965
292.3573	0.2012
292.5699	0.2005
292.7825	0.2072
292.9951	0.2003
293.2077	0.204
293.4203	0.1997
293.6328	0.1982
293.8454	0.206
294.0579	0.2019
294.2704	0.1971
294.4829	0.1992
294.6954	0.1954
294.9079	0.198
295.1204	0.196
295.3328	0.1956
295.5453	0.1983
295.7577	0.1967
295.9701	0.202
296.1825	0.2003
296.3949	0.2099
296.6073	0.1967
296.8197	0.207
297.0321	0.2016
297.2444	0.2025
297.4567	0.1946
297.6691	0.1981
297.8814	0.1983
298.0937	0.2039
298.306	0.2009
298.5182	0.2016
298.7305	0.1991
298.9428	0.2009
299.155	0.1978
299.3672	0.2001
299.5794	0.1971
299.7916	0.1979
300.0038	0.198
300.216	0.2023
300.4282	0.1915
300.6403	0.1927
300.8525	0.203
301.0646	0.1985
301.2767	0.1974
301.4888	0.2015
301.7009	0.1965
301.913	0.208
302.125	0.1969
302.3371	0.1955
302.5491	0.1954
302.7612	0.1964
302.9732	0.1943
303.1852	0.1942
303.3972	0.1958
303.6092	0.1955
303.8211	0.188
304.0331	0.1898
304.245	0.1933
304.457	0.1962
304.6689	0.1918
304.8808	0.1929
305.0927	0.1952
305.3046	0.1893
305.5164	0.1932
305.7283	0.1898
305.9401	0.1808
306.152	0.1805
306.3638	0.1839
306.5756	0.1827
306.7874	0.1798
306.9992	0.1791
307.2109	0.1747
307.4227	0.1733
307.6344	0.1768
307.8462	0.1694
308.0579	0.1671
308.2696	0.1652
308.4813	0.1635
308.693	0.1638
308.9046	0.1642
309.1163	0.1621
309.328	0.1529
309.5396	0.1589
309.7512	0.157
309.9628	0.157
310.1744	0.1544
310.386	0.1481
310.5976	0.1493
310.8091	0.1486
311.0207	0.1473
311.2322	0.1499
311.4437	0.145
311.6552	0.1412
311.8667	0.1368
312.0782	0.1413
312.2897	0.1424
312.5012	0.1417
312.7126	0.1323
312.924	0.1413
313.1355	0.127
313.3469	0.1311
313.5583	0.1334
313.7696	0.1321
313.981	0.1261
314.1924	0.1257
314.4037	0.1235
314.6151	0.1287
314.8264	0.1236
315.0377	0.1321
315.249	0.1258
315.4603	0.1219
315.6716	0.1277
315.8828	0.125
316.0941	0.1202
316.3053	0.1219
316.5165	0.1193
316.7277	0.1213
316.9389	0.125
317.1501	0.1171
317.3613	0.1171
317.5724	0.1208
317.7836	0.1183
317.9947	0.1073
318.2058	0.1155
318.417	0.1162
318.6281	0.1183
318.8391	0.1152
319.0502	0.1179
319.2613	0.1114
319.4723	0.1184
319.6834	0.1255
319.8944	0.1138
320.1054	0.1132
320.3164	0.1127
320.5274	0.1126
320.7383	0.1147
320.9493	0.114
321.1602	0.1168
321.3712	0.1263
321.5821	0.1199
321.793	0.1153
322.0039	0.1171
322.2148	0.1166
322.4257	0.1178
322.6365	0.1125
322.8474	0.1166
323.0582	0.121
323.269	0.1167
323.4798	0.1162
323.6906	0.1119
323.9014	0.1092
324.1122	0.1167
324.3229	0.1175
324.5337	0.1161
324.7444	0.113
324.9551	0.1192
325.1658	0.1196
325.3765	0.1206
325.5872	0.1192
325.7979	0.12
326.0085	0.1125
326.2192	0.1185
326.4298	0.124
326.6404	0.1206
326.851	0.1162
327.0616	0.1236
327.2722	0.13
327.4828	0.116
327.6933	0.1174
327.9039	0.1179
328.1144	0.1187
328.3249	0.1233
328.5354	0.1173
328.7459	0.1231
328.9564	0.1316
329.1669	0.1181
329.3773	0.1212
329.5878	0.1261
329.7982	0.1193
330.0086	0.1216
330.219	0.1215
330.4294	0.1263
330.6398	0.1264
330.8502	0.1276
331.0605	0.1239
331.2708	0.1261
331.4812	0.1265
331.6915	0.1199
331.9018	0.122
332.1121	0.1249
332.3224	0.12
332.5326	0.1229
332.7429	0.1233
332.9531	0.1245
333.1633	0.125
333.3735	0.123
333.5837	0.1268
333.7939	0.1221
334.0041	0.1256
334.2143	0.1284
334.4244	0.1193
334.6346	0.1242
334.8447	0.1204
335.0548	0.1237
335.2649	0.1237
335.475	0.1277
335.685	0.1238
335.8951	0.132
336.1051	0.1335
336.3152	0.1312
336.5252	0.1334
336.7352	0.1251
336.9452	0.1312
337.1552	0.1242
337.3652	0.1304
337.5751	0.1296
337.7851	0.1258
337.995	0.1372
338.2049	0.1342
338.4148	0.1248
338.6247	0.1288
338.8346	0.131
339.0445	0.1333
339.2543	0.1343
339.4642	0.1371
339.674	0.1376
339.8838	0.1348
340.0936	0.1401
340.3034	0.1324
340.5132	0.1317
340.7229	0.1316
340.9327	0.1397
341.1424	0.1384
341.3522	0.1357
341.5619	0.1382
341.7716	0.1363
341.9813	0.1427
342.1909	0.1445
342.4006	0.1439
342.6102	0.1388
342.8199	0.1369
343.0295	0.1437
343.2391	0.1388
343.4487	0.143
343.6583	0.1505
343.8679	0.1432
344.0774	0.1475
344.287	0.1483
344.4965	0.1469
344.706	0.1455
344.9155	0.1496
345.125	0.153
345.3345	0.1441
345.544	0.1499
345.7534	0.1461
345.9629	0.1502
346.1723	0.1488
346.3817	0.1489
346.5911	0.1516
346.8005	0.1562
347.0099	0.1536
347.2193	0.145
347.4286	0.1508
347.638	0.158
347.8473	0.156
348.0566	0.1612
348.2659	0.1536
348.4752	0.1601
348.6845	0.1646
348.8937	0.1572
349.103	0.1513
349.3122	0.1648
349.5214	0.1594
349.7306	0.1626
349.9398	0.1623
350.149	0.165
350.3582	0.1592
350.5674	0.1634
350.7765	0.1638
350.9856	0.1653
351.1948	0.1625
351.4039	0.166
351.613	0.1709
351.822	0.1683
352.0311	0.1657
352.2402	0.1764
352.4492	0.1652
352.6582	0.1723
352.8672	0.1639
353.0762	0.1706
353.2852	0.176
353.4942	0.1727
353.7032	0.1745
353.9121	0.1824
354.1211	0.1713
354.33	0.1822
354.5389	0.1772
354.7478	0.1802
354.9567	0.178
355.1655	0.1818
355.3744	0.1832
355.5833	0.1803
355.7921	0.1747
356.0009	0.1858
356.2097	0.1869
356.4185	0.1902
356.6273	0.179
356.8361	0.1945
357.0448	0.1903
357.2536	0.1932
357.4623	0.1894
357.671	0.1862
357.8797	0.1963
358.0884	0.189
358.2971	0.1909
358.5057	0.1887
358.7144	0.2004
358.923	0.1942
359.1316	0.1899
359.3402	0.2045
359.5488	0.2006
359.7574	0.2033
359.966	0.1999
360.1746	0.2041
360.3831	0.2063
360.5916	0.2028
360.8002	0.2033
361.0087	0.2102
361.2172	0.2118
361.4256	0.2101
361.6341	0.2126
361.8426	0.2205
362.051	0.2108
362.2594	0.2156
362.4678	0.2125
362.6762	0.2284
362.8846	0.2258
363.093	0.2156
363.3014	0.2255
363.5097	0.2168
363.718	0.2233
363.9264	0.2242
364.1347	0.2266
364.343	0.2313
364.5513	0.2227
364.7595	0.2286
364.9678	0.2386
365.176	0.2317
365.3842	0.2343
365.5925	0.2369
365.8007	0.2333
366.0089	0.2345
366.217	0.2397
366.4252	0.2345
366.6333	0.2372
366.8415	0.2389
367.0496	0.2358
367.2577	0.2397
367.4658	0.2454
367.6739	0.2441
367.882	0.2431
368.09	0.2465
368.2981	0.2425
368.5061	0.2507
368.7141	0.2474
368.9221	0.2502
369.1301	0.2519
369.3381	0.2542
369.5461	0.2576
369.754	0.2573
369.962	0.2574
370.1699	0.2647
370.3778	0.2572
370.5857	0.2572
370.7936	0.2551
371.0015	0.2595
371.2093	0.2606
371.4172	0.2668
371.625	0.2654
371.8328	0.2651
372.0406	0.2616
372.2484	0.2615
372.4562	0.2724
372.664	0.2697
372.8717	0.2657
373.0795	0.271
373.2872	0.2643
373.4949	0.2773
373.7026	0.2777
373.9103	0.2665
374.118	0.2745
374.3256	0.2768
374.5333	0.2751
374.7409	0.2724
374.9485	0.2808
375.1561	0.2835
375.3637	0.2696
375.5713	0.2801
375.7789	0.2743
375.9864	0.2797
376.194	0.2834
376.4015	0.2968
376.609	0.2827
376.8165	0.2837
377.024	0.2835
377.2315	0.2924
377.4389	0.2789
377.6464	0.2835
377.8538	0.2871
378.0612	0.2856
378.2686	0.2948
378.476	0.2918
378.6834	0.2964
378.8908	0.2964
379.0981	0.2915
379.3055	0.3033
379.5128	0.2928
379.7201	0.3017
379.9274	0.2902
380.1347	0.2946
380.342	0.2983
380.5492	0.2946
380.7565	0.3042
380.9637	0.3003
381.1709	0.301
381.3781	0.3054
381.5853	0.3053
381.7925	0.3135
381.9997	0.3069
382.2068	0.3015
382.4139	0.3045
382.6211	0.3034
382.8282	0.3092
383.0353	0.3047
383.2424	0.307
383.4494	0.3157
383.6565	0.3125
383.8635	0.324
384.0706	0.3181
384.2776	0.3196
384.4846	0.318
384.6916	0.3124
384.8986	0.3177
385.1055	0.3177
385.3125	0.3108
385.5194	0.3028
385.7263	0.3117
385.9333	0.3193
386.1402	0.3219
386.347	0.3221
386.5539	0.3168
386.7608	0.3195
386.9676	0.3099
387.1744	0.3242
387.3813	0.3157
387.5881	0.3219
387.7948	0.3215
388.0016	0.3117
388.2084	0.3157
388.4151	0.3135
388.6219	0.3112
388.8286	0.3162
389.0353	0.306
389.242	0.3121
389.4487	0.3113
389.6553	0.2981
389.862	0.3044
390.0686	0.3096
390.2753	0.3054
390.4819	0.3115
390.6885	0.3001
390.8951	0.3123
391.1016	0.3071
391.3082	0.2941
391.5147	0.3011
391.7213	0.3024
391.9278	0.3003
392.1343	0.2938
392.3408	0.29
392.5473	0.302
392.7537	0.2953
392.9602	0.2937
393.1666	0.2959
393.373	0.2986
393.5794	0.2969
393.7858	0.3003
393.9922	0.2879
394.1986	0.2874
394.4049	0.2807
394.6113	0.2935
394.8176	0.2722
395.0239	0.2836
395.2302	0.274
395.4365	0.2753
395.6428	0.2798
395.8491	0.276
396.0553	0.2646
396.2615	0.2736
396.4678	0.2801
396.674	0.2723
396.8802	0.2702
397.0863	0.2652
397.2925	0.2805
397.4987	0.2719
397.7048	0.2784
397.9109	0.2752
398.117	0.2762
398.3231	0.2783
398.5292	0.2789
398.7353	0.27
398.9413	0.2701
399.1474	0.2754
399.3534	0.2755
399.5594	0.274
399.7654	0.2714
399.9714	0.2724
400.1774	0.266
400.3833	0.2729
400.5893	0.26
400.7952	0.2636
401.0011	0.27
401.207	0.2681
401.4129	0.2648
401.6188	0.2642
401.8247	0.2684
402.0305	0.269
402.2364	0.2681
402.4422	0.2689
402.648	0.2771
402.8538	0.2811
403.0596	0.2634
403.2654	0.2721
403.4711	0.2685
403.6768	0.275
403.8826	0.2735
404.0883	0.2684
404.294	0.2731
404.4997	0.2737
404.7054	0.2739
404.911	0.2642
405.1167	0.2721
405.3223	0.268
405.5279	0.2645
405.7335	0.2569
405.9391	0.2703
406.1447	0.2718
406.3502	0.2738
406.5558	0.2709
406.7613	0.2677
406.9668	0.2716
407.1724	0.2699
407.3778	0.2663
407.5833	0.2671
407.7888	0.2714
407.9942	0.27
408.1997	0.2648
408.4051	0.2647
408.6105	0.265
408.8159	0.2743
409.0213	0.2698
409.2267	0.2697
409.432	0.271
409.6374	0.2676
409.8427	0.2695
410.048	0.2528
410.2533	0.2691
410.4586	0.2731
410.6639	0.2721
410.8691	0.286
411.0744	0.2619
411.2796	0.2737
411.4848	0.263
411.69	0.2662
411.8952	0.2738
412.1004	0.2694
412.3056	0.2608
412.5107	0.2715
412.7158	0.273
412.921	0.2759
413.1261	0.2681
413.3312	0.2604
413.5362	0.2696
413.7413	0.2701
413.9464	0.2664
414.1514	0.2665
414.3564	0.2642
414.5614	0.265
414.7664	0.2648
414.9714	0.2675
415.1764	0.2611
415.3813	0.2517
415.5863	0.2628
415.7912	0.2648
415.9961	0.2566
416.201	0.266
416.4059	0.2648
416.6108	0.2659
416.8156	0.2524
417.0205	0.2609
417.2253	0.2754
417.4301	0.2643
417.6349	0.2557
417.8397	0.267
418.0445	0.2644
418.2492	0.2593
418.454	0.2645
418.6587	0.2511
418.8634	0.2589
419.0681	0.2533
419.2728	0.2549
419.4775	0.2535
419.6822	0.2526
419.8868	0.2569
420.0915	0.2573
420.2961	0.2444
420.5007	0.2471
420.7053	0.2495
420.9099	0.2412
421.1144	0.2391
421.319	0.241
421.5235	0.2495
421.728	0.2451
421.9325	0.2529
422.137	0.2424
422.3415	0.2407
422.546	0.2405
422.7504	0.2383
422.9549	0.2376
423.1593	0.2407
423.3637	0.231
423.5681	0.2294
423.7725	0.2362
423.9769	0.233
424.1812	0.2454
424.3856	0.236
424.5899	0.2352
424.7942	0.2344
424.9985	0.2351
425.2028	0.2364
425.4071	0.2186
425.6113	0.2206
425.8156	0.2255
426.0198	0.2198
426.224	0.2322
426.4282	0.2323
426.6324	0.2282
426.8366	0.23
427.0407	0.2208
427.2449	0.2224
427.449	0.2095
427.6531	0.2265
427.8572	0.2171
428.0613	0.2177
428.2654	0.2199
428.4694	0.2149
428.6735	0.2068
428.8775	0.2116
429.0815	0.2134
429.2855	0.2011
429.4895	0.2091
429.6935	0.1997
429.8975	0.2126
430.1014	0.1951
430.3053	0.2034
430.5093	0.1989
430.7132	0.1987
430.9171	0.1823
431.1209	0.1903
431.3248	0.1895
431.5286	0.1828
431.7325	0.195
431.9363	0.1892
432.1401	0.1877
432.3439	0.1786
432.5477	0.1903
432.7514	0.1727
432.9552	0.1715
433.1589	0.1736
433.3627	0.1758
433.5664	0.1668
433.7701	0.1729
433.9737	0.1717
434.1774	0.1729
434.3811	0.1745
434.5847	0.162
434.7883	0.1601
434.9919	0.1473
435.1955	0.1595
435.3991	0.1533
435.6027	0.1533
435.8062	0.1533
436.0098	0.156
436.2133	0.158
436.4168	0.154
436.6203	0.145
436.8238	0.1423
437.0272	0.1392
437.2307	0.1343
437.4341	0.1366
437.6375	0.1314
437.841	0.1251
438.0443	0.1364
438.2477	0.131
438.4511	0.1261
438.6545	0.125
438.8578	0.1287
439.0611	0.1233
439.2644	0.1191
439.4677	0.1195
439.671	0.1219
439.8743	0.123
440.0775	0.1172
440.2808	0.1212
440.484	0.1113
440.6872	0.1151
440.8904	0.1021
441.0936	0.1185
441.2967	0.1016
441.4999	0.1133
441.703	0.1054
441.9062	0.104
442.1093	0.1014
442.3124	0.0929
442.5155	0.1044
442.7185	0.0906
442.9216	0.0915
443.1246	0.0934
443.3276	0.0909
443.5307	0.088
443.7337	0.0805
443.9366	0.0844
444.1396	0.0828
444.3426	0.0865
444.5455	0.0814
444.7484	0.0768
444.9513	0.0825
445.1542	0.0744
445.3571	0.0743
445.56	0.0684
445.7628	0.0696
445.9657	0.0772
446.1685	0.0712
446.3713	0.0746
446.5741	0.0593
446.7769	0.0628
446.9797	0.0631
447.1824	0.0671
447.3852	0.0604
447.5879	0.0597
447.7906	0.066
447.9933	0.0634
448.196	0.0583
448.3986	0.0629
448.6013	0.061
448.8039	0.0558
449.0066	0.0602
449.2092	0.0458
449.4118	0.0575
449.6143	0.0472
449.8169	0.0512
450.0195	0.0497
450.222	0.051
450.4245	0.0643
450.627	0.05
450.8295	0.0439
451.032	0.0424
451.2345	0.0451
451.4369	0.0479
451.6394	0.0468
451.8418	0.0494
452.0442	0.0394
452.2466	0.043
452.449	0.0343
452.6513	0.0315
452.8537	0.0392
453.056	0.0383
453.2583	0.0397
453.4607	0.0394
453.663	0.0308
453.8652	0.0317
454.0675	0.0375
454.2697	0.0349
454.472	0.0239
454.6742	0.0194
454.8764	0.0227
455.0786	0.0283
455.2808	0.0274
455.4829	0.0263
455.6851	0.0235
455.8872	0.0377
456.0893	0.0274
456.2915	0.0241
456.4935	0.023
456.6956	0.026
456.8977	0.0223
457.0997	0.0258
457.3018	0.0264
457.5038	0.0213
457.7058	0.0211
457.9078	0.0299
458.1098	0.0197
458.3117	0.0224
458.5137	0.0309
458.7156	0.0325
458.9175	0.0183
459.1194	0.0265
459.3213	0.0199
459.5232	0.0149
459.725	0.0268
459.9269	0.0254
460.1287	0.0092
460.3305	0.0067
460.5323	0.0168
460.7341	0.0165
460.9359	0.0149
461.1376	0.0234
461.3394	0.0139
461.5411	0.0272
461.7428	0.0154
461.9445	0.0168
462.1462	0.0144
462.3479	0.0134
462.5495	0.0141
462.7512	0.0079
462.9528	0.0166
463.1544	0.0096
463.356	0.0175
463.5576	0.0103
463.7592	0.0005
463.9607	0.0086
464.1623	0.0133
464.3638	0.016
464.5653	0.0118
464.7668	0.0097
464.9683	0.0176
465.1697	0.0098
465.3712	0.0186
465.5726	0.0113
465.7741	0.0065
465.9755	0.0082
466.1769	0.0048
466.3782	0.0086
466.5796	0.0079
466.7809	0.0148
466.9823	0.0147
467.1836	0.0189
467.3849	0.0069
467.5862	-0.0002
467.7875	0.0103
467.9887	0.0113
468.19	0.0102
468.3912	0.0108
468.5924	0.0217
468.7936	0.0015
468.9948	0.0129
469.196	0.0057
469.3972	0.0132
469.5983	0.0044
469.7994	0.0108
470.0006	0.0112
470.2017	0.0042
470.4027	0.0068
470.6038	0.0037
470.8049	0.0001
471.0059	0.0005
471.2069	0.0069
471.408	0.0048
471.6089	0.0161
471.8099	0.0093
472.0109	0.0005
472.2119	0.012
472.4128	0.0112
472.6137	0.0034
472.8146	0.0112
473.0155	0.0104
473.2164	-0.0036
473.4173	0.0175
473.6181	0.0063
473.819	0.0042
474.0198	0.0072
474.2206	0.0097
474.4214	0.0181
474.6222	0.009
474.8229	0.0025
475.0237	0.0046
475.2244	0.009
475.4251	0.0078
475.6258	0.0103
475.8265	-0.0026
476.0272	0.0109
476.2278	0.0011
476.4285	-0.003
476.6291	0.0157
476.8297	0.0021
477.0303	0.01
477.2309	0.0061
477.4315	0.0105
477.632	-0.0017
477.8326	0.0053
478.0331	0.0038
478.2336	0.0113
478.4341	-0.0022
478.6346	0.0072
478.8351	0.0106
479.0355	0.0117
479.236	0.0093
479.4364	-0.0003
479.6368	0.0001
479.8372	0.0093
480.0376	0.0055
480.2379	0.0042
480.4383	0.0058
480.6386	-0.0061
480.8389	0.0056
481.0392	0.0045
481.2395	0.005
481.4398	-0.0002
481.6401	0.0111
481.8403	-0.002
482.0405	0.0005
482.2408	0.0023
482.441	0.0024
482.6411	0.0056
482.8413	-0.0013
483.0415	0.0073
483.2416	-0.0047
483.4417	0.0066
483.6419	0.0013
483.8419	-0.0002
484.042	-0.0036
484.2421	0.0045
484.4422	0.0084
484.6422	0.0078
484.8422	0.0024
485.0422	0.0004
485.2422	0.0049
485.4422	-0.0001
485.6422	0.0001
485.8421	0.0013
486.042	0.0058
486.242	0.0007
486.4419	0.0046
486.6417	0.0018
486.8416	0.0062
487.0415	0.0031
487.2413	0.0059
487.4411	0.0002
487.641	0.0067
487.8408	0.0102
488.0405	0.0092
488.2403	-0.0017
488.4401	0.0021
488.6398	0.0047
488.8395	-0.0013
489.0392	0.0034
489.2389	-0.0036
489.4386	0.0034
489.6383	0.0023
489.8379	0.003
490.0376	0.0076
490.2372	-0.0001
490.4368	0.0101
490.6364	0.0106
490.836	0.0005
491.0355	-0.0031
491.2351	0.0081
491.4346	0.0093
491.6341	0.0043
491.8336	-0.0045
492.0331	0.0054
492.2326	-0.0001
492.432	0.009
492.6315	-0.004
492.8309	0.0131
493.0303	-0.0004
493.2297	0
493.4291	-0.0015
493.6284	0.0014
493.8278	0.0046
494.0271	0.0084
494.2264	0.0056
494.4257	0.008
494.625	-0.0027
494.8243	-0.0026
495.0236	0.0043
495.2228	-0.0012
495.422	0.0051
495.6213	0.0064
495.8205	0.0074
496.0196	0.0004
496.2188	0.0026
496.418	-0.0073
496.6171	0.0004
496.8162	0.0058
497.0153	0.0032
497.2144	0.002
497.4135	0.0031
497.6126	-0.0067
497.8116	-0.0038
498.0107	0.0048
498.2097	0.0077
498.4087	0.0052
498.6077	0.0045
498.8067	0.0101
499.0056	-0.0034
499.2046	-0.0018
499.4035	-0.0006
499.6024	-0.01
499.8013	-0.0019
500.0002	0.0033
500.199	0.0011
500.3979	0.0031
500.5967	0.0018
500.7956	-0.0043
500.9944	0.0076
501.1932	0.0007
501.3919	0.009
501.5907	0.0046
501.7895	0.0016
501.9882	-0.0031
502.1869	0.008
502.3856	0.0013
502.5843	-0.0029
502.783	0.0083
502.9816	-0.0067
503.1803	0.0166
503.3789	0.0051
503.5775	0.0007
503.7761	0.0076
503.9747	-0.0021
504.1732	-0.0016
504.3718	-0.0036
504.5703	0.0061
504.7689	-0.0019
504.9674	-0.0003
505.1658	0.0058
505.3643	0.0021
505.5628	0.008
505.7612	0.0003
505.9597	0.0109
506.1581	0.0008
506.3565	-0.0024
506.5549	0.0004
506.7532	0.0052
506.9516	0.0042
507.1499	0.0074
507.3482	0.0045
507.5465	-0.004
507.7448	0.0092
507.9431	-0.0096
508.1414	-0.0011
508.3396	0.0024
508.5379	0.0056
508.7361	0.0077
508.9343	-0.001
509.1325	-0.0021
509.3306	-0.0082
509.5288	0.0057
509.7269	0.0029
509.9251	-0.0052
510.1232	-0.0087
510.3213	-0.0049
510.5193	0.0044
510.7174	-0.0026
510.9154	0.0078
511.1135	0.0027
511.3115	0.0023
511.5095	-0.005
511.7075	0.0003
511.9055	0.0054
512.1034	0.0041
512.3014	0.0038
512.4993	-0.0044
512.6972	0.005
512.8951	-0.0035
513.093	0.0026
513.2908	0.0025
513.4887	0.0089
513.6865	-0.0072
513.8844	0.0022
514.0822	0.0015
514.2799	0.0002
514.4777	-0.0052
514.6755	0.0049
514.8732	0.0033
515.0709	0.0061
515.2687	-0.0048
515.4664	-0.0123
515.664	0.0063
515.8617	0.01
516.0594	0.0042
516.257	0.017
516.4546	-0.0053
516.6522	0.009
516.8498	0.0072
517.0474	-0.0066
517.2449	-0
517.4425	-0.0001
517.64	0.0064
517.8375	0.0139
518.035	-0.0024
518.2325	-0
518.43	0.0002
518.6274	-0.0022
518.8249	0.0067
519.0223	-0.0021
519.2197	0.0048
519.4171	-0.0004
519.6145	0.0085
519.8118	-0.0031
520.0092	0.0027
520.2065	0.0004
520.4038	0.0066
520.6011	0.0085
520.7984	0.0017
520.9956	0.0018
521.1929	0.0105
521.3901	0.006
521.5874	0.0066
521.7846	-0.0017
521.9818	-0.0039
522.1789	0.01
522.3761	0.0048
522.5732	-0.0023
522.7704	0.002
522.9675	0.001
523.1646	0.0165
523.3617	0.0078
523.5587	0.0044
523.7558	0.0071
523.9528	0.008
524.1498	-0.0005
524.3468	-0.01
524.5438	-0.0052
524.7408	-0.0104
524.9378	0.008
525.1347	0.004
525.3316	0.0121
525.5285	0.0022
525.7254	0.0014
525.9223	-0.0032
526.1192	0.0036
526.316	-0.0105
526.5129	0.0067
526.7097	-0.0058
526.9065	0.0083
527.1033	0.0036
527.3	0.0034
527.4968	0.0054
527.6935	-0
527.8903	0.0061
528.087	0.0058
528.2837	0.0002
528.4804	0.007
528.677	0.0008
528.8737	0.0007
529.0703	-0.0046
529.2669	0.0016
529.4635	0.0077
529.6601	0.0115
529.8567	0.0008
530.0532	0.0022
530.2498	0.0057
530.4463	0.0132
530.6428	0.006
530.8393	-0.0032
531.0358	0.0087
531.2322	0.0046
531.4287	-0.011
531.6251	0.0029
531.8215	0.0052
532.0179	-0.0099
532.2143	0.006
532.4107	-0.0037
532.607	-0.0005
532.8034	0.0018
532.9997	-0.0012
533.196	0.0133
533.3923	-0.0051
533.5886	0.0005
533.7848	-0.0101
533.9811	-0.0025
534.1773	0.0009
534.3735	0.0061
534.5697	-0.0078
534.7659	-0.0012
534.9621	0.0034
535.1582	-0.001
535.3544	0.0102
535.5505	0.0095
535.7466	-0.0054
535.9427	-0.0037
536.1387	-0.0004
536.3348	0.0085
536.5308	0.0055
536.7269	-0.0008
536.9229	-0.0003
537.1189	-0.0068
537.3148	-0.003
537.5108	-0.0077
537.7068	0.0047
537.9027	0.0086
538.0986	0.0001
538.2945	0.0011
538.4904	-0.0035
538.6863	0.0127
538.8821	-0.002
539.078	-0.0011
539.2738	-0.0044
539.4696	0.008
539.6654	-0.0009
539.8611	-0.0012
540.0569	-0.0003
540.2526	-0.0001
540.4484	0.0032
540.6441	0.0042
540.8398	0.003
541.0355	0.0117
541.2311	-0.0004
541.4268	0.0042
541.6224	-0.0005
541.818	-0.0079
542.0136	-0.0043
542.2092	0.0068
542.4048	0.0077
542.6003	0.0001
542.7959	-0.0011
542.9914	-0.0058
543.1869	-0.0084
543.3824	0.0064
543.5779	0.0041
543.7734	0.0007
543.9688	0.0084
544.1642	0.0013
544.3596	-0.0032
544.555	0.0042
544.7504	0.0099
544.9458	-0.0045
545.1411	0.0041
545.3365	0.0001
545.5318	0.0085
545.7271	0.004
545.9224	0.0005
546.1177	0.0054
546.3129	-0.0105
546.5081	-0
546.7034	0.0059
546.8986	0.0026
547.0938	-0.0036
547.289	0.0007
547.4841	0.0009
547.6793	-0.0067
547.8744	-0.003
548.0695	-0.0014
548.2646	-0.0045
548.4597	-0.0057
548.6548	0.0027
548.8498	0.0024
549.0448	0.0083
549.2399	-0.0083
549.4349	0.0134
549.6298	-0.0046
549.8248	-0
550.0198	0.004
550.2147	-0.0065
550.4096	0.0057
550.6045	0.0011
550.7994	0.0006
550.9943	-0.0028
551.1892	-0.0042
551.384	0.0043
551.5788	0.004
551.7737	0.0015
551.9685	0.009
552.1632	0.007
552.358	-0.0012
552.5528	-0.0036
552.7475	-0.0061
552.9422	0.0081
553.1369	0.003
553.3316	-0.0029
553.5263	0.002
553.7209	-0.003
553.9156	0.009
554.1102	-0.0068
554.3048	0.0063
554.4994	-0.0032
554.694	-0.0003
554.8885	0.0041
555.0831	0.0099
555.2776	0.0011
555.4721	-0.0056
555.6666	0.0033
555.8611	-0.0048
556.0555	0.0151
556.25	0.0028
556.4444	0.002
556.6388	-0.002
556.8332	-0.0004
557.0276	0.008
557.222	0.0004
557.4163	0.0053
557.6107	-0.0004
557.805	-0.001
557.9993	0.0026
558.1936	0.0088
558.3879	-0.0068
558.5821	-0.0038
558.7764	0.0154
558.9706	-0.0056
559.1648	0.0002
559.359	0.0239
559.5532	-0.0068
559.7473	0.0124
559.9415	0.0091
560.1356	0.0022
560.3297	0.0057
560.5238	-0.001
560.7179	0.0058
560.9119	0.0076
561.106	-0.002
561.3	-0.0003
561.494	0.0093
561.688	0.0007
561.882	0.0014
562.076	0.0019
562.2699	0.0056
562.4639	0.0108
562.6578	0.0113
562.8517	0.0028
563.0456	0.004
563.2395	0.0064
563.4333	0.0075
563.6272	0.0046
563.821	0.0095
564.0148	0.0065
564.2086	0.0033
564.4024	-0.0032
564.5961	-0.0044
564.7899	0.0005
564.9836	-0.0029
565.1773	-0.0093
565.371	-0.0021
565.5647	0.0019
565.7584	0.0041
565.952	0.0006
566.1456	0.0061
566.3393	0.0092
566.5329	-0.0007
566.7264	0.0037
566.92	0.0062
567.1136	-0.0005
567.3071	-0.0023
567.5006	-0.0059
567.6941	0.0035
567.8876	0.0069
568.0811	0.0021
568.2745	-0
568.468	0.0076
568.6614	0.0067
568.8548	-0.0014
569.0482	0.0016
569.2416	-0.0037
569.4349	0.0028
569.6283	-0.0018
569.8216	-0.0042
570.0149	0.0004
570.2082	-0.0022
570.4015	0.0043
570.5947	-0.0028
570.788	-0.0022
570.9812	0.0013
571.1744	-0.0027
571.3676	-0.0002
571.5608	-0.0039
571.754	-0.0067
571.9471	0.0028
572.1402	0.0008
572.3333	0.0016
572.5264	0.0005
572.7195	0.0035
572.9126	0.002
573.1057	0.0002
573.2987	-0.0017
573.4917	0.0015
573.6847	-0.0004
573.8777	-0.0024
574.0707	-0.0032
574.2636	0.002
574.4566	0.0006
574.6495	0.0071
574.8424	-0.0016
575.0353	-0.0008
575.2281	-0.0003
575.421	-0.0007
575.6138	0.0007
575.8067	0.0015
575.9995	0.0025
576.1923	0.0029
576.385	0.0001
576.5778	-0.0023
576.7706	0.0035
576.9633	0.0008
577.156	0.0022
577.3487	-0.003
577.5414	-0.0015
577.734	0.0007
577.9267	-0.0015
578.1193	0.0018
578.3119	-0.0054
578.5045	0.0011
578.6971	-0
578.8897	-0.0047
579.0822	0.0001
579.2747	-0.0066
579.4673	-0.0017
579.6598	-0.0033
579.8522	0.0029
580.0447	0.0006
580.2372	0.0046
580.4296	-0.0036
580.622	-0.0003
580.8144	-0.0008
581.0068	0.0021
581.1992	0.0015
581.3915	0.0009
581.5839	0.0044
581.7762	0.0039
581.9685	-0.001
582.1608	-0.0012
582.353	-0.0017
582.5453	0.0027
582.7375	0.0016
582.9298	-0.0052
583.122	-0.0011
583.3142	0.0027
583.5063	-0.0036
583.6985	-0.0007
583.8906	-0.0004
584.0827	-0.0016
584.2749	0.0031
584.4669	0.0005
584.659	0.0005
584.8511	0.0017
585.0431	-0.0014
585.2352	-0.0081
585.4272	0.003
585.6192	-0.0013
585.8111	-0.0047
586.0031	0.0018
586.195	-0.0027
586.387	0.0022
586.5789	0.0045
586.7708	0.0023
586.9627	0.001
587.1545	0.0031
587.3464	0.0067
587.5382	-0.0033
587.73	0.0014
587.9218	-0.0021
588.1136	-0.0035
588.3053	-0.004
588.4971	0.0005
588.6888	-0.0028
588.8805	0.0014
589.0722	0.0055
589.2639	-0.0026
589.4556	-0.0033
589.6472	0.0007
589.8389	0.003
590.0305	0.0014
590.2221	0.0036
590.4137	-0.0055
590.6052	0.001
590.7968	0.0039
590.9883	0.006
591.1798	-0.0029
591.3713	-0.0029
591.5628	0.0046
591.7543	0.0011
591.9458	0.0005
592.1372	-0.0048
592.3286	-0.0011
592.52	0.0007
592.7114	-0.0068
592.9028	-0.0016
593.0941	-0.002
593.2855	0.0028
593.4768	0.0026
593.6681	0.0016
593.8594	0.0011
594.0506	0.0027
594.2419	0
594.4331	0.0008
594.6244	0.0007
594.8156	-0.0048
595.0067	0.0049
595.1979	-0.0041
595.3891	-0.008
595.5802	-0.003
595.7713	0.0011
595.9624	0.0009
596.1535	-0.0024
596.3446	0.005
596.5357	-0.0001
596.7267	0.0052
596.9177	0.0013
597.1087	0.0058
597.2997	0.0055
597.4907	-0.0011
597.6817	-0.0015
597.8726	0.0071
598.0635	0.0011
598.2544	-0.0026
598.4453	-0.0061
598.6362	-0.0028
598.827	0.0049
599.0179	-0.0005
599.2087	0.0001
599.3995	0.0021
599.5903	-0.0006
599.7811	0.0009
599.9718	0.0026
600.1626	-0.0001
600.3533	-0.0031
600.544	-0.0057
600.7347	0.0004
600.9254	0.0051
601.116	-0.0045
601.3067	0.0068
601.4973	0.011
601.6879	-0.0041
601.8785	0.0063
602.0691	0.0025
602.2596	0.0008
602.4502	0.003
602.6407	0.0021
602.8312	0.0001
603.0217	0.0029
603.2122	0.0019
603.4027	-0.006
603.5931	-0.0015
603.7835	-0.0007
603.9739	0.0005
604.1643	0.0035
604.3547	0.004
604.5451	0.0015
604.7354	-0.0028
604.9257	0.0009
605.116	0.0045
605.3063	0.001
605.4966	-0.0033
605.6869	-0.0004
605.8771	0.0031
606.0673	-0.0011
606.2575	-0.0037
606.4477	0.0057
606.6379	-0.0058
606.8281	-0.0095
607.0182	-0.0044
607.2083	-0.0019
607.3985	-0.0009
607.5885	0.0032
607.7786	0.0082
607.9687	-0.0013
608.1587	0.0055
608.3488	-0.0027
608.5388	0.0057
608.7288	-0.0005
608.9187	0.0091
609.1087	0.0015
609.2986	-0.002
609.4886	0.0084
609.6785	0.001
609.8684	-0.0064
610.0582	-0.0012
610.2481	0.0001
610.4379	-0.0009
610.6278	-0.0062
610.8176	0.0031
611.0074	-0.0087
611.1971	0.0092
611.3869	-0.0023
611.5766	0.0009
611.7664	0.0107
611.9561	-0.0012
612.1458	0.0004
612.3354	0.0013
612.5251	-0.0057
612.7147	0.0058
612.9044	-0.0122
613.094	0.0062
613.2836	-0.0017
613.4731	0.004
613.6627	0.0001
613.8522	-0.0014
614.0417	-0.0022
614.2313	-0.0091
614.4207	0.0032
614.6102	-0.0032
614.7997	0.0003
614.9891	0.0001
615.1785	0.0013
615.3679	0.0027
615.5573	-0.0024
615.7467	-0.0027
615.9361	-0.0028
616.1254	-0.007
616.3147	0.0034
616.504	0.0015
616.6933	-0.0023
616.8826	0.0082
617.0718	-0.0031
617.2611	0.0082
617.4503	-0.0032
617.6395	-0.0022
617.8287	0.0055
618.0179	0.0002
618.207	0.0013
618.3961	-0.003
618.5853	-0.0026
618.7744	0.0075
618.9634	0.0028
619.1525	-0.0002
619.3416	-0.0087
619.5306	0.0044
619.7196	-0.0008
619.9086	0.0133
620.0976	-0.0026
620.2866	0.014
620.4755	0.0222
620.6645	-0.0038
620.8534	0.0006
621.0423	0.0004
621.2312	-0.0114
621.42	-0.0038
621.6089	0.0028
621.7977	0.0029
621.9865	0.0097
622.1753	0.0047
622.3641	-0.0092
622.5529	-0.0046
622.7416	-0.002
622.9303	0.005
623.1191	-0.0065
623.3078	-0.0064
623.4964	-0.0168
623.6851	0.0088
623.8737	0.0037
624.0624	-0.005
624.251	-0.0027
624.4396	-0.0066
624.6282	0.0047
624.8167	0.0014
625.0053	0.0021
625.1938	-0.0025
625.3823	-0.0042
625.5708	-0.0098
625.7593	-0.0059
625.9477	-0.0062
626.1362	-0.0007
626.3246	-0.0073
626.513	0.0133
626.7014	-0.0106
626.8898	-0.0028
627.0781	0.0169
627.2665	0.0115
627.4548	0.0056
627.6431	0.0017
627.8314	-0.0051
628.0197	0.0178
628.2079	-0.0097
628.3962	-0
628.5844	0.0108
628.7726	-0.0026
628.9608	-0.0056
629.1489	-0.0049
629.3371	-0.0054
629.5252	0.006
629.7134	0.0159
629.9015	-0.0044
630.0895	0.0013
630.2776	-0.0061
630.4657	0.0056
630.6537	-0.0035
630.8417	0.0029
631.0297	0.0052
631.2177	0.0058
631.4057	0.0039
631.5936	-0.0074
631.7815	-0.0037
631.9695	0.0211
632.1574	-0.0074
632.3452	-0.0013
632.5331	-0.0138
632.7209	0.0157
632.9088	-0.0041
633.0966	-0.0098
633.2844	-0.0067
633.4722	0.004
633.6599	-0.0191
633.8477	0.0022
634.0354	0.0033
634.2231	0.0138
634.4108	-0.0045
634.5985	-0.005
634.7861	-0.0059
634.9738	-0
635.1614	0.0039
635.349	-0.0129
635.5366	0.0029
635.7242	-0.0031
635.9117	0.0108
636.0993	-0.0048
636.2868	-0.0022
636.4743	0.0105
636.6618	0.0037
636.8492	0.0033
637.0367	0.008
637.2241	-0.0104
637.4115	0.0035
637.5989	0.0162
637.7863	-0.0111
637.9737	0.0048
638.161	0.0036
638.3484	-0.0037
638.5357	0.0042
638.723	-0.0002
638.9103	0.0147
639.0975	0.0231
639.2848	0.0171
639.472	-0.0079
639.6592	0.0242
639.8464	0.0154
640.0336	0.0179
640.2208	-0.01
640.4079	0.0078
640.595	-0.0036
640.7821	-0.0178
640.9692	0.011
641.1563	-0.0055
641.3434	0.0192
641.5304	-0.0119
641.7174	0.0088
641.9044	-0.0007
642.0914	-0.014
642.2784	0.0207
642.4653	0.0045
642.6523	0.0217
642.8392	0.0179
643.0261	-0.0014
643.213	0.004
643.3999	-0.0083
643.5867	0.0014
643.7735	0.0153
643.9604	0.0085
644.1472	0.0035
644.3339	-0.0048
644.5207	-0.0204
644.7075	-0.0035
644.8942	0.0173
645.0809	-0.0088
645.2676	0.0009
645.4543	-0.0091
645.6409	-0.0045
645.8276	-0.0064
646.0142	0.0126
646.2008	-0.0252
646.3874	0.0182
646.574	-0.0111
646.7605	-0.0196
646.9471	0.0041
647.1336	0.0061
647.3201	-0.0083
647.5066	-0.0039
647.6931	-0.0066
647.8795	0.005
648.0659	-0.0029
648.2524	0.0041
648.4388	0.0133
648.6252	-0.0134
648.8115	0.0112
648.9979	0.0003
649.1842	-0.0133
649.3705	-0.0004
649.5568	-0.028
649.7431	0.0041
649.9294	-0.0072
650.1156	-0.0192
650.3018	0.0161
650.488	-0.0054
650.6742	0.0219
650.8604	-0.0089
651.0466	-0.0118
651.2327	-0.0013
651.4188	-0.0108
651.6049	-0.0103
651.791	0.0227
651.9771	0.0166
652.1632	0.0086
652.3492	0.0001
652.5352	0.0003
652.7212	-0.0229
652.9072	0.0008
653.0932	0.001
653.2791	0.0073
653.465	-0.0213
653.651	0.0199
653.8369	0.0177
654.0227	-0.0097
654.2086	0.0017
654.3944	-0.0248
654.5803	0.0063
654.7661	0.0012
654.9519	-0.002
655.1377	0.0001
655.3234	0.0001
655.5092	0.0001
655.6949	0.0001
655.8806	0.0001
656.0663	0.0001
656.2519	0.0001
656.4376	0.0001
656.6232	0.0001
656.8088	0.0001
656.9945	0.0001
657.18	0.0001
657.3656	0.0001
657.5511	0.0001
657.7367	0.0001
657.9222	0.0001
658.1077	0.0001
658.2932	0.0001
658.4786	0.0001
658.6641	0.0001
658.8495	0.0001
659.0349	0.0001
659.2203	0.0001
659.4057	0.0106
659.591	0.1112
659.7764	0.0097
659.9617	0.0018
660.147	-0.0126
660.3323	-0.0039
660.5176	-0.0005
660.7028	0.0136
660.888	0.0104
661.0733	-0.0015
661.2585	0.011
661.4436	0.0103
661.6288	0.0045
661.8139	0.0046
661.9991	0.0022
662.1842	0.0163
662.3693	-0.0059
662.5544	0.0046
662.7394	0.0136
662.9245	0.0257
663.1095	0.0094
663.2945	0.0042
663.4795	-0.0012
663.6644	0.0104
663.8494	0.0034
664.0343	-0.0104
664.2193	0.0042
664.4042	-0.0158
664.589	-0.0203
664.7739	-0.0079
664.9587	-0.0098
665.1436	-0.0069
665.3284	-0.0058
665.5132	-0.0053
665.698	-0.0057
665.8827	-0.0216
666.0675	-0.0101
666.2522	0.0033
666.4369	-0.0028
666.6216	-0.0244
666.8063	0.0107
666.9909	-0.0042
667.1756	0.0121
667.3602	-0.0166
667.5448	-0.0038
667.7294	0.0173
667.9139	0.0253
668.0985	-0.012
668.283	0.0108
668.4675	-0.0213
668.652	-0.0151
668.8365	-0.0066
669.0209	-0.0392
669.2054	0.0041
669.3898	-0.0071
669.5742	0.0024
669.7586	0.01
669.943	-0.0198
670.1273	0.0088
670.3117	0.0117
670.496	0.0334
670.6803	-0.0101
670.8646	0.0204
671.0488	-0.0048
671.2331	0.0079
671.4173	0.0015
671.6015	0.0055
671.7857	-0.0157
671.9699	0.0068
672.1541	-0.0004
672.3382	0.0081
672.5223	-0.003
672.7064	0.008
672.8905	0.0116
673.0746	0.0088
673.2587	0.0155
673.4427	-0.0293
673.6267	-0.0223
673.8107	-0.0098
673.9947	0.0107
674.1787	0.0012
674.3626	-0.0094
674.5465	0.0089
674.7304	-0.0229
674.9143	0.0253
675.0982	0.0102
675.2821	0.019
675.4659	-0.0041
675.6497	0.0044
675.8335	0.0107
676.0173	0.012
676.2011	-0.0073
676.3849	0.0256
676.5686	-0.0202
676.7523	-0.0179
676.936	-0.0259
677.1197	-0.0033
677.3034	0.0241
677.487	0.02
677.6706	0.012
677.8542	0.0174
678.0378	-0.0043
678.2214	0.0033
678.405	0.0107
678.5885	0.0163
678.772	-0.0005
678.9555	-0.0024
679.139	-0.0059
679.3225	-0.0069
679.5059	-0.006
679.6894	-0.0115
679.8728	-0.0085
680.0562	0.0019
680.2395	0.0023
680.4229	-0.0109
680.6062	0.0002
680.7896	0.0033
680.9729	-0.0001
681.1562	-0.0144
681.3394	-0.0057
681.5227	-0.0223
681.7059	-0.0178
681.8891	0.0142
682.0723	0.0077
682.2555	0.0242
682.4387	0.018
682.6218	-0.025
682.805	0.0144
682.9881	0.0002
683.1712	0.0153
683.3542	-0.0164
683.5373	0.0031
683.7203	0.0186
683.9034	0.0131
684.0864	0.0114
684.2694	0.0017
684.4523	-0.008
684.6353	-0.0085
684.8182	0.0051
685.0011	-0.0094
685.184	-0.0014
685.3669	-0.0105
685.5498	0.0066
685.7326	-0.0081
685.9154	0.0022
686.0982	0.0095
686.281	-0.0031
686.4638	0.0064
686.6465	0.0204
686.8293	0.0098
687.012	-0.002
687.1947	0.007
687.3774	-0.003
687.56	0.006
687.7427	-0.0182
687.9253	0.0107
688.1079	0.007
688.2905	0.0027
688.4731	0.0194
688.6556	0.0069
688.8382	0.0074
689.0207	-0.0011
689.2032	-0.0175
689.3857	-0.0136
689.5681	0.0063
689.7506	-0.0171
689.933	-0.002
690.1154	-0.0081
690.2978	-0.0012
690.4802	0.0032
690.6626	-0.0041
690.8449	-0.0124
691.0272	-0.0271
691.2095	-0.0048
691.3918	0.012
691.5741	0.0046
691.7563	-0.0047
691.9386	0.0011
692.1208	-0.01
692.303	0.0239
692.4852	0.0096
692.6673	-0.004
692.8495	-0.005
693.0316	-0.0076
693.2137	0.0177
693.3958	0.0065
693.5778	-0.0192
693.7599	-0.0222
693.9419	0.0029
694.1239	-0.0069
694.3059	-0.009
694.4879	-0.018
694.6699	0.0213
694.8518	0.0233
695.0337	0.0016
695.2157	0.0027
695.3975	0.016
695.5794	0.0026
695.7613	0.0119
695.9431	-0.0171
696.1249	0.0063
696.3067	0.0031
696.4885	0.0006
696.6703	0.0026
696.852	-0.0201
697.0337	0.0011
697.2154	-0.0037
697.3971	0.0025
697.5788	0.0256
697.7605	-0.011
697.9421	0.0059
698.1237	0.0173
698.3053	0.019
698.4869	0.0143
698.6685	-0.0015
698.85	-0.0073
699.0315	0.004
699.213	0.0204
699.3945	0.0013
699.576	-0.0105
699.7575	0.0003
699.9389	0.0096
700.1203	-0.0155
700.3017	0.0007
700.4831	0.0096
700.6645	-0.0049
700.8458	-0.0001
701.0271	0.0285
701.2084	-0.0156
701.3897	0.0061
701.571	-0.0038
701.7523	-0.006
701.9335	0.0357
702.1147	0.0242
702.2959	0.0317
702.4771	0.016
702.6583	-0.0066
702.8394	0.0089
703.0205	-0.0081
703.2016	-0.008
703.3827	0.0216
703.5638	-0.0047
703.7449	0.0064
703.9259	0.0044
704.1069	0.0137
704.2879	0.0244
704.4689	0.0269
704.6499	-0.0152
704.8308	-0.0128
705.0117	-0.0445
705.1927	0.0192
705.3735	0.0426
705.5544	0.0107
705.7353	0.0179
705.9161	0.0153
706.0969	0.008
706.2777	0.0021
706.4585	-0.002
706.6393	0.006
706.82	-0.0052
707.0007	0.0102
707.1815	0.0197
707.3621	-0.0131
707.5428	0.0302
707.7235	0.0317
707.9041	-0.0091
708.0847	0.0013
708.2653	0.0055
708.4459	0.0036
708.6265	-0.0251
708.807	0.0144
708.9875	0.0115
709.168	0.0155
709.3485	0.0239
709.529	0.0049
709.7095	-0.007
709.8899	0.0232
710.0703	0.0025
710.2507	0.0067
710.4311	0.0178
710.6115	0.014
710.7918	0.0139
710.9721	0.0109
711.1524	0.0101
711.3327	0.0142
711.513	0.0019
711.6932	-0.0316
711.8735	-0.0047
712.0537	0.014
712.2339	0.0104
712.4141	0.0058
712.5942	0.005
712.7744	-0.0076
712.9545	-0.0082
713.1346	0.0144
713.3147	0.013
713.4947	-0.0076
713.6748	-0.0107
713.8548	-0.0015
714.0348	0.0148
714.2148	-0.0062
714.3948	0.0155
714.5748	-0.0092
714.7547	0.006
714.9346	0.0072
715.1145	0.0036
715.2944	0.0078
715.4743	0.0143
715.6541	-0.0032
715.834	0.0081
716.0138	0.0396
716.1936	0.0172
716.3733	0.0029
716.5531	0.0129
716.7328	-0.0165
716.9126	-0.0108
717.0923	-0.0012
717.2719	-0.0244
717.4516	-0.0094
717.6312	-0.0323
717.8109	0.0158
717.9905	-0.0062
718.1701	0.0007
718.3496	0.0027
718.5292	-0.0124
718.7087	0.0277
718.8882	0.0271
719.0677	-0.0143
719.2472	0.0129
719.4267	0.0214
719.6061	0.0024
719.7856	0.0086
719.965	0.0292
720.1443	0.0145
720.3237	0.0499
720.5031	0.0267
720.6824	0.0085
720.8617	0.0052
721.041	-0.0008
721.2203	-0.0009
721.3995	-0.0195
721.5788	-0.0062
721.758	0.0037
721.9372	0.0308
722.1164	0.0003
722.2956	0.0091
722.4747	0.0239
722.6538	0.0119
722.8329	-0.0351
723.012	0.0266
723.1911	0.0219
723.3702	-0.0228
723.5492	0.0021
723.7282	0.0085
723.9072	-0.0292
724.0862	0.0333
724.2652	-0.0109
724.4441	0.0052
724.623	-0.0025
724.8019	0.0036
724.9808	-0.0082
725.1597	0.0259
725.3385	0.0156
725.5174	0.0297
725.6962	0.0166
725.875	-0.0058
726.0538	-0.0155
726.2325	-0.0087
726.4112	0.0107
726.59	0.0029
726.7687	0.0027
726.9474	0.0024
727.126	-0.0091
727.3047	0.0145
727.4833	0.0385
727.6619	0.016
727.8405	0.0215
728.0191	-0.0365
728.1976	-0.0184
728.3762	-0.0366
728.5547	0.0101
728.7332	-0.0036
728.9116	-0.0431
729.0901	0.041
729.2686	0.0046
729.447	-0.0186
729.6254	0.0053
729.8038	0.014
729.9821	0.0039
730.1605	0.0013
730.3388	-0.0174
730.5171	-0.0095
730.6954	0.0121
730.8737	0.0057
731.0519	0.0045
731.2302	-0.0039
731.4084	0.0113
731.5866	-0.0158
731.7648	-0.0063
731.9429	-0.0119
732.1211	-0.0118
732.2992	-0.0095
732.4773	-0.0269
732.6554	0.0027
732.8335	0.0086
733.0115	-0.0006
733.1896	0.0065
733.3676	0.0009
733.5456	-0.003
733.7235	0.0073
733.9015	-0.0106
734.0794	-0.0129
734.2574	0.0211
734.4353	0.0071
734.6131	0.0027
734.791	0.0211
734.9689	0.0028
735.1467	-0.0042
735.3245	0.0286
735.5023	0.017
735.68	-0.005
735.8578	0.0025
736.0355	-0.0114
736.2132	-0.0001
736.3909	-0.0062
736.5686	0.0118
736.7463	0.0002
736.9239	0.0446
737.1015	-0.0056
737.2791	0.0284
737.4567	0.001
737.6343	0.0172
737.8118	0.0107
737.9894	-0.0033
738.1669	-0.0011
738.3444	0.0005
738.5218	0.0303
738.6993	0.0069
738.8767	-0.0155
739.0541	0.0229
739.2315	-0.0079
739.4089	0.0123
739.5863	0.0087
739.7636	0.0142
739.9409	0.0221
740.1182	-0.0102
740.2955	-0.0447
740.4728	0.0221
740.65	-0.0043
740.8272	-0.0082
741.0044	-0.0147
741.1816	0.0325
741.3588	-0.0092
741.5359	0.0215
741.7131	0.0411
741.8902	-0.0027
742.0673	0.0022
742.2444	-0.0274
742.4214	-0.0139
742.5985	0.0254
742.7755	-0.0246
742.9525	0.017
743.1295	-0.0188
743.3064	0.0155
743.4834	-0.0001
743.6603	0.0133
743.8372	0.0154
744.0141	-0.0098
744.191	0.0209
744.3678	0.0231
744.5446	0.016
744.7215	-0.0038
744.8982	0.0037
745.075	0.0217
745.2518	0.0042
745.4285	-0.0029
745.6052	0.0053
745.7819	0.0235
745.9586	0.0361
746.1353	-0.0116
746.3119	0.0143
746.4885	0.0212
746.6651	-0.0365
746.8417	-0.0159
747.0183	-0.0158
747.1948	-0.0095
747.3714	0.0138
747.5479	0.002
747.7244	-0.0405
747.9008	0.0511
748.0773	0.0396
748.2537	0.0145
748.4301	0.004
748.6065	-0.0501
748.7829	0.0105
748.9593	0.0084
749.1356	0.0067
749.3119	-0.0114
749.4882	0.0028
749.6645	0.0026
749.8408	-0.0074
750.017	-0.0258
750.1933	0.0299
750.3695	0.0313
750.5457	-0.0088
750.7218	0.0378
750.898	-0.0055
751.0741	0.0067
751.2502	-0.0072
751.4263	-0.0173
751.6024	0.0047
751.7784	-0.0479
751.9545	-0.0312
752.1305	0.0007
752.3065	0.0088
752.4825	-0.0126
752.6584	0.0081
752.8344	0.0155
753.0103	-0.0247
753.1862	0.0134
753.3621	-0.0098
753.5379	-0.007
753.7138	0.001
753.8896	0.0274
754.0654	0.0043
754.2412	0.0357
754.417	0.0057
754.5927	0.0085
754.7685	-0.0166
754.9442	0.0117
755.1199	0.0018
755.2956	-0.0066
755.4712	-0.0087
755.6469	-0.0086
755.8225	-0.0062
755.9981	-0.0035
756.1736	0.014
756.3492	-0.0165
756.5248	-0.0015
756.7003	-0.0016
756.8758	-0.0038
757.0513	0.0135
757.2267	-0.0213
757.4022	-0.0117
757.5776	-0.0124
757.753	0.0109
757.9284	0.0019
758.1038	-0.0057
758.2791	-0.0208
758.4545	-0.0173
758.6298	-0.007
758.8051	-0.0225
758.9803	0.0044
759.1556	-0.0139
759.3308	-0.0055
759.506	0.0203
759.6812	0.0053
759.8564	-0.0129
760.0316	0.0008
760.2067	-0.0176
760.3819	-0.0011
760.557	-0.014
760.732	0.0037
760.9071	-0.0055
761.0821	0.0104
761.2572	0.0096
761.4322	-0.0092
761.6072	-0.0085
761.7821	0.026
761.9571	-0.009
762.132	-0.0107
762.3069	-0.0223
762.4818	0.0054
762.6567	-0.0109
762.8316	0.0199
763.0064	-0.0263
763.1812	-0.0361
763.356	0.0079
763.5308	-0.0076
763.7055	0.0015
763.8803	-0.0078
764.055	0.0031
764.2297	0.0014
764.4044	0.015
764.579	-0.0073
764.7537	-0.017
764.9283	-0.0286
765.1029	-0.0075
765.2775	-0.0098
765.4521	-0.0012
765.6266	-0.0204
765.8011	-0.0265
765.9756	0.0443
766.1501	0.0169
766.3246	0.0046
766.4991	-0.0229
766.6735	0.012
766.8479	-0.0045
767.0223	0.0424
767.1967	-0.0174
767.371	-0.0134
767.5454	0.0181
767.7197	-0.0114
767.894	0.0123
768.0683	-0.002
768.2425	0.0172
768.4168	0.0286
768.591	0.0081
768.7652	-0.0076
768.9394	0.0039
769.1135	-0.0156
769.2877	0.0042
769.4618	0.0412
769.6359	0.0042
769.81	-0.0117
769.984	0.0083
770.1581	0.0405
770.3321	-0.0024
770.5061	0.0081
770.6801	0.024
770.8541	-0.0342
771.028	0.0032
771.202	-0.0344
771.3759	0.0141
771.5498	0.011
771.7236	-0.021
771.8975	0.0114
772.0713	0.0081
772.2451	-0.0118
772.4189	0.0183
772.5927	-0.0136
772.7665	0.0108
772.9402	0.0303
773.1139	-0.0101
773.2876	-0.0078
773.4613	0.001
773.635	0.0016
773.8086	-0.0164
773.9822	-0.0325
774.1558	-0.0071
774.3294	-0.0039
774.503	0.016
774.6765	0.0229
774.8501	0.0174
775.0236	0.0005
775.1971	-0.0187
775.3705	0.0403
775.544	0.017
775.7174	-0.0205
775.8908	-0.0083
776.0642	0.0118
776.2376	0.0096
776.4109	0.0212
776.5843	-0.0152
776.7576	0.0575
776.9309	0.0458
777.1041	-0.042
777.2774	-0.0174
777.4506	0.0133
777.6238	-0.0002
777.797	-0.0215
777.9702	0.0289
778.1434	0.0133
778.3165	-0.0002
778.4896	-0.0321
778.6627	0.0088
778.8358	-0.0001
779.0089	-0.0388
779.1819	0.0033
779.3549	0.0067
779.5279	-0.0235
779.7009	0.016
779.8739	-0.03
780.0468	-0.0009
780.2197	-0.0117
780.3926	-0.0177
780.5655	-0.0094
780.7384	0.0088
780.9112	0.0088
781.0841	-0.0242
781.2569	0.0304
781.4297	0.0319
781.6024	-0.0154
781.7752	-0.0144
781.9479	0.0015
782.1206	0.0465
782.2933	0.0236
782.466	0.0092
782.6386	-0.0069
782.8113	0.0041
782.9839	-0.0098
783.1565	-0.0049
783.329	-0.0136
783.5016	-0.019
783.6741	-0.0082
783.8466	-0.0581
784.0191	0.0013
784.1916	-0.0258
784.3641	-0.0648
784.5365	0.028
784.7089	-0.009
784.8813	0.0156
785.0537	0.02
785.2261	-0.0519
785.3984	-0.0046
785.5707	0.0328
785.743	-0.0927
785.9153	0.0335
786.0876	-0.0604
786.2598	0.0049
786.432	-0.0086
786.6042	0.0341
786.7764	0.0053
786.9486	-0.0028
787.1207	0.0449
787.2928	0.0209
787.4649	0.0228
787.637	0.015
787.8091	0.0011
787.9811	-0.0189
788.1532	0.0142
788.3252	0.0104
788.4972	-0.0042
788.6691	0.02
788.8411	0.0182
789.013	-0.0257
789.1849	0.012
789.3568	0.0222
789.5287	-0.0419
789.7005	0.009
789.8723	-0.0174
790.0442	-0.0282
790.2159	0.0573
790.3877	0.0207
790.5595	0.0556
790.7312	-0.0138
790.9029	0.0038
791.0746	-0.0179
791.2463	0.0376
791.4179	-0.0108
791.5896	-0.0014
791.7612	-0.0073
791.9328	-0.0557
792.1044	-0.0208
792.2759	0.0179
792.4474	0.0168
792.619	0.0288
792.7905	0.0467
792.9619	0.0088
793.1334	-0.026
793.3048	-0.0676
793.4762	-0.063
793.6476	-0.0077
793.819	-0.003
793.9904	0.0195
794.1617	0.0097
794.333	-0.0094
794.5043	0.0055
794.6756	0.0192
794.8469	-0.0163
795.0181	-0.0208
795.1893	-0.0239
795.3605	-0.0417
795.5317	0.0391
795.7029	-0.009
795.874	0.0172
796.0452	-0.0025
796.2163	0.0739
796.3873	0.029
796.5584	-0.0145
796.7294	-0.1059
796.9005	-0.064
797.0715	0.0362
797.2425	-0.0142
797.4134	0.063
797.5844	0.0477
797.7553	-0.0279
797.9262	0.0109
798.0971	-0.0657
798.2679	0.0219
798.4388	-0.1087
798.6096	0.0351
798.7804	0.0088
798.9512	0.0306
799.122	0.0268
799.2927	-0.0226
799.4635	0.1123
799.6342	0.0128
799.8049	0.0245
799.9755	0.0296
800.1462	0.079
800.3168	0.0193
800.4874	0.0139
800.658	0.1457
800.8286	-0.0123
800.9991	0.0285
801.1696	0.0102
801.3402	-0.0373
801.5106	-0.0208
801.6811	-0.0706
801.8516	0.0433
802.022	-0.0339
802.1924	-0.054
802.3628	-0.1328
802.5332	-0.1601
802.7035	-0.0402
802.8739	0.0221
803.0442	-0.0176
803.2145	0.0239
803.3847	-0.0282
803.555	0.0394
803.7252	0.1304
803.8954	0.0071
804.0656	-0.0064
804.2358	-0.0083
804.4059	0.1428
804.5761	0.08
804.7462	0.0704
804.9163	-0.0513
805.0864	-0.0334
805.2564	0.0145
805.4264	-0.0429
805.5965	0.0448
805.7665	0.0271
805.9364	-0.1121
806.1064	-0.0003
806.2763	0.0155
806.4462	0.0106
806.6161	0.0094
806.786	0.0028
806.9559	0.06
807.1257	-0.0087
807.2955	0.0213
807.4653	-0.0378
807.6351	-0.0127
807.8048	-0.0094
807.9746	-0.0324
808.1443	0.0121
808.314	0.1011
808.4837	-0.017
808.6533	0.01
808.8229	-0.0886
808.9926	-0.0137
809.1622	-0.0284
809.3317	-0.0158
809.5013	0.0314
809.6708	0.0629
809.8403	0.0664
810.0098	0.0303
810.1793	0.0208
810.3488	0.0523
810.5182	-0.0349
810.6876	0.1599
810.857	-0.0663
811.0264	-0.0792
811.1958	-0.0562
811.3651	-0.0281
811.5344	0.0146
811.7037	-0.0035
811.873	0.0118
812.0422	0.0386
812.2115	0.0724
812.3807	0.0689
812.5499	0.0386
812.7191	-0.0152
812.8882	0.0117
813.0574	0.0519
813.2265	0.1316
813.3956	0.053
813.5646	-0.0103
813.7337	-0.075
813.9027	-0.0305
814.0718	0.0139
814.2407	-0.0949
814.4097	-0.0342
814.5787	0.0238
814.7476	0.0475
814.9165	0.006
815.0854	0.1367
815.2543	-0.0702
815.4232	-0.0309
815.592	0.0889
815.7608	0.0647
815.9296	-0.0061
816.0984	0.2172
816.2671	0.0578
816.4359	0.2788
816.6046	0.0021
816.7733	-0.11
816.942	0.0402
817.1106	-0.2136
817.2793	0.014
817.4479	0.0563
817.6165	-0.0817
817.785	-0.0177
817.9536	0.045
818.1221	0.0361
818.2906	0.0216
818.4591	0.0827
818.6276	-0.0338
818.7961	-0.0036
818.9645	0.0347
819.1329	0.3995
819.3013	-0.0095
819.4697	0.2115
819.638	-0.0294
819.8064	-0.1171
819.9747	0.0608
820.143	0.0939
820.3113	0.1267
820.4795	0.0461
820.6477	-0.0008
820.816	-0.0083
820.9842	-0.0911
821.1523	0.1857
821.3205	-0.1308
821.4886	0.0154
821.6567	0.0722
821.8248	0.0356
821.9929	-0.0607
822.1609	-0.0008
822.329	-0.012
822.497	0.0887
822.665	0.055
822.833	-0.1176
823.0009	-0.1719
823.1688	0.1478
823.3367	-0.1685
823.5046	0.0304
823.6725	0.0871
823.8404	-0.0385
824.0082	0.1441
824.176	-0.0497
824.3438	0.081
824.5116	0.0831
824.6793	0.1761
824.847	0.0213
825.0147	0.1245
825.1824	0.1525
825.3501	0.0169
825.5177	0.2356
825.6854	0.0758
825.853	-0.091
826.0206	0.1708
826.1881	0.1286
826.3557	0.0924
826.5232	0.1448
826.6907	0.0225
826.8582	-0.0845
827.0257	-0.2065
827.1931	0.1182
827.3605	-0.1316
827.528	-0.0056
827.6953	0.0679
827.8627	0.0621
828.03	-0.0172
828.1974	-0.1316
828.3647	0.052
828.532	0.1256
828.6992	0.036
828.8665	0.1323
829.0337	0.2559
829.2009	0.128
829.3681	-0.0242
829.5352	0.1359
829.7024	0.2054
829.8695	0.0169
830.0366	0.2545
830.2037	0.0053
830.3707	-0.17
830.5378	0.7139
830.7048	-0.1379
830.8718	-0.062
831.0388	0.2263
831.2057	-0.043
831.3727	0.0369
831.5396	0.0707
831.7065	0.2203
831.8734	-0.1704
832.0402	0.1259
832.2071	-0.1937
832.3739	0.0771
832.5407	-0
832.7075	-0.0367
832.8742	-0
833.041	-0.0743
833.2077	0.0376
833.3744	0.0699
833.541	-0.0015
833.7077	0.1669
833.8743	-0.0912
834.0409	-0.0561
834.2075	0.0401
834.3741	0.1087
834.5407	-0.0133
834.7072	-0.0572
834.8737	0.0802
835.0402	-0.0056
835.2067	0.5986
835.3731	-0.0848
835.5395	0.0428
835.706	0.2313
835.8723	-0.2112
836.0387	0.1862
836.2051	0.9742
836.3714	0.0184
836.5377	-0.1207
836.704	-0.0314
836.8703	0.2523
837.0365	0.0064
837.2027	-0.1098
837.3689	0.1516
837.5351	-0.0417
837.7013	-0.0555
837.8674	-0.7238
838.0335	-0.0816
838.1997	-0.0091
838.3657	0.3393
838.5318	-0
838.6978	-0
838.8639	0.5552
839.0299	0.3235
839.1958	0.0669
839.3618	1.2945
839.5277	-0.2849
839.6937	-0.3703
839.8596	1.2137
840.0254	0.2093
840.1913	1.1838
840.3571	-0.0417
840.523	-0
840.6888	-0.0576
840.8545	0.2594
841.0203	0.0057
841.186	0.0115
841.3517	0.1522
841.5174	0.2252
841.6831	0.2459
841.8488	0.3514
842.0144	0.4205
842.18	0.2094
842.3456	-0.1365
842.5112	-0
842.6767	-0.301
842.8422	0.008
843.0077	0.3222
843.1732	0.0333
843.3387	0.2544
843.5042	1.3586
843.6696	-0.7522
843.835	-0.0035
844.0004	0.2202
844.1657	0.3393
844.3311	-0.3962
844.4964	0.1873
844.6617	-0
844.827	0.3115
844.9923	-0.002
845.1575	-0
845.3227	-0
845.4879	0.3656
845.6531	0.4142
845.8183	0.2275
845.9834	0.3724
846.1485	-0.2504
846.3136	0.2625
846.4787	0.3979
846.6438	0.0534
846.8088	-0
846.9738	-0
847.1388	-0.0202
847.3038	0.0364
847.4687	-0
847.6337	-0
847.7986	0.5334
847.9635	-0.0674
848.1284	-0
848.2932	-0.1096
848.458	-0.0632
848.6228	0.7545
848.7876	0.6819
848.9524	-0.0589
849.1172	-0.0841
849.2819	-0
849.4466	-0.1179
849.6113	0.0669
849.7759	-0
849.9406	-0.0156
850.1052	0.9461
850.2698	-0
850.4344	0.7404
850.599	-0.1617
850.7635	-0.2201
850.928	0.0753
851.0925	-0.1174
851.257	0.101
851.4215	0.1035
851.5859	0.0578
851.7503	-0
851.9147	0.1761
852.0791	-0.0248
852.2434	0.3242
852.4078	0.1835
852.5721	0.4098
852.7364	0.2004
852.9007	0.6417
853.0649	0.2059
853.2291	1.1394
853.3934	0.6247
853.5575	-0.4678
853.7217	-0.1453
853.8859	-0
854.05	-0.8873
854.2141	-0
854.3782	-0
854.5423	-0.9074
854.7063	0.2287
854.8703	0.0588
855.0343	0.3026
855.1983	-0.0436
855.3623	0.0311
855.5262	-0
855.6901	0.1028
855.854	-0
856.0179	0.7404
856.1818	-0.7119
856.3456	1.2577
856.5094	-0
856.6732	-0.27
856.837	0.4009
857.0008	-0
857.1645	-0.4607
857.3282	0.7464
857.4919	-0.1852
857.6556	0.326
857.8192	0.245
857.9828	-0.519
858.1465	2.0881
858.31	-0
858.4736	0.441
858.6372	-0.5183
858.8007	-1.1856
858.9642	0.32
859.1277	-0.4431
859.2911	0.0843
859.4546	0.1194
859.618	0.3541
859.7814	-0
859.9448	-0
860.1081	-0.2615
860.2715	-0.1392
860.4348	0.4865
860.5981	1.2175
860.7614	-0
860.9246	0.3903
861.0879	-0
861.2511	1.5336
861.4143	-0
861.5774	0.6097
861.7406	-0.2389
861.9037	-0
862.0668	-0
862.2299	-1.7924
862.393	-0
862.556	-0
862.7191	0.0157
862.8821	-0.3292
863.0451	0.4253
863.208	0.5006
863.371	0.1269
863.5339	0.2512
863.6968	-0.7538
863.8597	-0.4973
864.0225	-0
864.1854	-0
864.3482	-0
864.511	-0.1457
864.6737	-0
864.8365	0.1113
864.9992	0.0537
865.1619	0.5331
865.3246	-0.3624
865.4873	-0
865.65	-0.4175
865.8126	-0
865.9752	-0.2923
866.1378	0.2071
866.3004	0.3178
866.4629	-0.0619
866.6254	-0
866.7879	0.1545
866.9504	-0
867.1129	-0.0587
867.2753	-0.3518
867.4377	-0
867.6001	0.038
867.7625	-0.2132
867.9249	0.0353
868.0872	-0.1998
868.2495	-0
868.4118	0.1644
868.5741	-0
868.7363	-0
868.8986	-0.5426
869.0608	-0
869.223	0.1535
869.3851	-0
869.5473	-1.4898
869.7094	-0.0563
869.8715	0.03
870.0336	-0.0656
870.1957	-0.751
870.3577	-0
870.5197	0.0669
870.6817	-0
870.8437	1.0861
871.0057	-0
871.1676	0.1957
871.3295	0.0235
871.4914	0.0173
871.6533	0.2002
871.8151	-0.05
871.977	-0
872.1388	-0
872.3006	0.6294
872.4623	1.2672
872.6241	-1.8692
872.7858	-0.1959
872.9475	-0
873.1092	0.0886
873.2709	0.7234
873.4325	-0
873.5941	-0
873.7557	0.2852
873.9173	-0
874.0789	-0.0367
874.2404	-0.7782
874.4019	0.1357
874.5634	0.0742
874.7249	-0
874.8863	-0
875.0478	1.6318
875.2092	-0.2703
875.3706	-0.6844
875.5319	-0
875.6933	-0
875.8546	-0
876.0159	0.1701
876.1772	-1.1681
876.3385	-0.4431
876.4997	0.0253
876.6609	-0.7427
876.8221	1.2286
876.9833	-0.3215
877.1445	0.1443
877.3056	-0
877.4667	-0
877.6278	-0
877.7889	-0.0125
877.9499	-0
878.111	0.2297
878.272	-0.7664
878.433	1.4548
878.5939	0.4116
878.7549	-0.5752
878.9158	-0
879.0767	-0
879.2376	-0
879.3984	-0.1343
879.5593	-0.2055
879.7201	0.4483
879.8809	-0
880.0417	0.3349
880.2024	0.4185
880.3632	0.5272
880.5239	-0
880.6846	-0.3239
880.8452	0.4493
881.0059	-0.0322
881.1665	0.5264
881.3271	-0.3149
881.4877	-0
881.6483	-1.6232
881.8088	0.217
881.9693	-0
882.1298	-0
882.2903	-0
