Data from D4ACN5uM480nmA_Absorbance_12-08-00-130.txt Node
Date: Fri Feb 21 12:08:00 GMT 2025
User: LASERRRRR
Spectrometer: FLMT03099
Trigger mode: 0
Integration Time (sec): 1.500000E-2
Scans to average: 1
Electric dark correction enabled: true
Nonlinearity correction enabled: false
Boxcar width: 0
XAxis mode: Wavelengths
Number of Pixels in Spectrum: 3648
>>>>>Begin Spectral Data<<<<<
179.3399	-0.2041
179.5586	-0.2041
179.7771	-0.2041
179.9957	0.7386
180.2143	-0.2041
180.4329	1.1181
180.6514	-0
180.8699	-0
181.0885	-0.2626
181.307	0.619
181.5255	-0.008
181.744	-0
181.9625	-0.4584
182.181	0.3487
182.3994	-0
182.6179	-0
182.8363	-0.0439
183.0547	-0
183.2732	0.0936
183.4916	0.3864
183.71	0.0928
183.9284	0.353
184.1467	-0.0484
184.3651	0.3668
184.5835	0.0524
184.8018	0.3083
185.0201	0.3366
185.2385	0.1938
185.4568	0.0409
185.6751	0.1462
185.8934	0.3328
186.1117	0.0905
186.3299	0.1831
186.5482	0.0656
186.7664	0.3078
186.9847	0.1138
187.2029	0.1961
187.4211	0.6223
187.6393	0.3562
187.8575	-0.0455
188.0757	0.3677
188.2939	0.1031
188.512	0.2519
188.7302	-0.1249
188.9483	0.0873
189.1665	0.1999
189.3846	0.1377
189.6027	0.1646
189.8208	0.0677
190.0389	0.2309
190.257	0.0595
190.475	0.2887
190.6931	0.7883
190.9111	0.3764
191.1292	0.1196
191.3472	0.3973
191.5652	0.6401
191.7832	0.2261
192.0012	0.2536
192.2192	0.123
192.4371	0.2658
192.6551	0.273
192.873	0.1978
193.091	0.3697
193.3089	0.2303
193.5268	0.3306
193.7447	0.3238
193.9626	0.3926
194.1805	0.3904
194.3984	0.4188
194.6162	0.4761
194.8341	0.6185
195.0519	0.4015
195.2697	0.5413
195.4875	0.4611
195.7054	0.4668
195.9231	0.4814
196.1409	0.6126
196.3587	0.5987
196.5765	0.4728
196.7942	0.5675
197.012	0.4902
197.2297	0.551
197.4474	0.7227
197.6651	0.5812
197.8828	0.6903
198.1005	0.5612
198.3182	0.5474
198.5358	0.6561
198.7535	0.495
198.9711	0.5627
199.1888	0.6223
199.4064	0.5754
199.624	0.6185
199.8416	0.5171
200.0592	0.542
200.2767	0.5483
200.4943	0.6141
200.7119	0.5209
200.9294	0.6123
201.1469	0.598
201.3645	0.7328
201.582	0.5613
201.7995	0.5887
202.017	0.5128
202.2344	0.5115
202.4519	0.5509
202.6694	0.526
202.8868	0.5354
203.1042	0.5551
203.3217	0.4705
203.5391	0.5269
203.7565	0.4753
203.9739	0.512
204.1913	0.5132
204.4086	0.5235
204.626	0.4941
204.8433	0.4897
205.0607	0.52
205.278	0.5078
205.4953	0.4319
205.7126	0.4788
205.9299	0.4969
206.1472	0.4598
206.3644	0.5219
206.5817	0.4631
206.7989	0.4598
207.0162	0.4173
207.2334	0.4193
207.4506	0.4457
207.6678	0.4284
207.885	0.4471
208.1022	0.4107
208.3194	0.4036
208.5365	0.4377
208.7537	0.4577
208.9708	0.4567
209.1879	0.4278
209.405	0.4277
209.6222	0.411
209.8392	0.43
210.0563	0.4407
210.2734	0.3872
210.4905	0.4084
210.7075	0.4421
210.9245	0.4286
211.1416	0.4103
211.3586	0.4144
211.5756	0.4195
211.7926	0.3875
212.0096	0.3815
212.2265	0.4003
212.4435	0.3952
212.6604	0.3895
212.8774	0.3849
213.0943	0.4002
213.3112	0.3761
213.5281	0.401
213.745	0.394
213.9619	0.3683
214.1788	0.3902
214.3956	0.4227
214.6125	0.4006
214.8293	0.394
215.0461	0.4278
215.2629	0.3982
215.4798	0.3816
215.6965	0.403
215.9133	0.3974
216.1301	0.3934
216.3469	0.4049
216.5636	0.399
216.7803	0.4171
216.9971	0.4221
217.2138	0.3965
217.4305	0.413
217.6472	0.4123
217.8639	0.4019
218.0805	0.3924
218.2972	0.4196
218.5138	0.4195
218.7305	0.4211
218.9471	0.4205
219.1637	0.4259
219.3803	0.4222
219.5969	0.4287
219.8135	0.4173
220.0301	0.412
220.2466	0.4315
220.4632	0.4165
220.6797	0.4316
220.8962	0.4242
221.1127	0.4432
221.3292	0.4214
221.5457	0.4329
221.7622	0.4294
221.9787	0.4196
222.1951	0.414
222.4116	0.4381
222.628	0.4437
222.8444	0.4323
223.0608	0.4374
223.2772	0.4462
223.4936	0.4481
223.71	0.4491
223.9264	0.4512
224.1427	0.4487
224.3591	0.4513
224.5754	0.4491
224.7917	0.4581
225.008	0.4554
225.2243	0.4592
225.4406	0.462
225.6569	0.4497
225.8732	0.4561
226.0894	0.4751
226.3057	0.4582
226.5219	0.469
226.7381	0.443
226.9543	0.4686
227.1705	0.4735
227.3867	0.4814
227.6029	0.4845
227.8191	0.4731
228.0352	0.5021
228.2513	0.4941
228.4675	0.5005
228.6836	0.4809
228.8997	0.4915
229.1158	0.4918
229.3319	0.4983
229.548	0.486
229.764	0.4971
229.9801	0.5109
230.1961	0.5213
230.4121	0.506
230.6282	0.506
230.8442	0.501
231.0602	0.5181
231.2761	0.5068
231.4921	0.5148
231.7081	0.5156
231.924	0.5069
232.14	0.5133
232.3559	0.5181
232.5718	0.5208
232.7877	0.5336
233.0036	0.5192
233.2195	0.5172
233.4353	0.5337
233.6512	0.5351
233.867	0.5252
234.0829	0.5232
234.2987	0.5225
234.5145	0.5383
234.7303	0.5342
234.9461	0.5286
235.1619	0.54
235.3776	0.5303
235.5934	0.5264
235.8091	0.5109
236.0249	0.5336
236.2406	0.5259
236.4563	0.5418
236.672	0.5379
236.8877	0.5303
237.1034	0.5169
237.319	0.5319
237.5347	0.5131
237.7503	0.5307
237.966	0.5329
238.1816	0.5332
238.3972	0.5471
238.6128	0.5408
238.8284	0.5397
239.0439	0.548
239.2595	0.5171
239.475	0.5247
239.6906	0.5207
239.9061	0.5244
240.1216	0.5341
240.3371	0.5168
240.5526	0.519
240.7681	0.5193
240.9836	0.5165
241.199	0.506
241.4145	0.4957
241.6299	0.4957
241.8453	0.4896
242.0607	0.4705
242.2761	0.4825
242.4915	0.4683
242.7069	0.4586
242.9223	0.4646
243.1376	0.4588
243.353	0.4432
243.5683	0.44
243.7836	0.4219
243.9989	0.419
244.2142	0.4102
244.4295	0.4025
244.6448	0.3972
244.86	0.389
245.0753	0.3848
245.2905	0.3665
245.5057	0.3708
245.721	0.3581
245.9362	0.3519
246.1514	0.3329
246.3665	0.3445
246.5817	0.3235
246.7969	0.3268
247.012	0.3293
247.2271	0.313
247.4423	0.3063
247.6574	0.3047
247.8725	0.3
248.0876	0.2888
248.3026	0.2839
248.5177	0.2775
248.7328	0.2805
248.9478	0.2702
249.1628	0.2613
249.3779	0.2671
249.5929	0.2571
249.8079	0.2514
250.0228	0.25
250.2378	0.2508
250.4528	0.2465
250.6677	0.2369
250.8827	0.2314
251.0976	0.2414
251.3125	0.2322
251.5274	0.2319
251.7423	0.2325
251.9572	0.2217
252.172	0.2236
252.3869	0.217
252.6017	0.2108
252.8166	0.2183
253.0314	0.2151
253.2462	0.2205
253.461	0.21
253.6758	0.2029
253.8906	0.211
254.1053	0.2018
254.3201	0.2049
254.5348	0.2057
254.7496	0.2035
254.9643	0.2038
255.179	0.2038
255.3937	0.2035
255.6083	0.1995
255.823	0.1975
256.0377	0.1956
256.2523	0.1948
256.467	0.1974
256.6816	0.194
256.8962	0.1977
257.1108	0.2001
257.3254	0.1958
257.54	0.1944
257.7545	0.1918
257.9691	0.1921
258.1836	0.1881
258.3981	0.1909
258.6127	0.1827
258.8272	0.1904
259.0417	0.1804
259.2561	0.1865
259.4706	0.1877
259.6851	0.1797
259.8995	0.1784
260.114	0.1791
260.3284	0.1825
260.5428	0.1783
260.7572	0.1854
260.9716	0.183
261.186	0.1832
261.4003	0.1856
261.6147	0.1817
261.829	0.1839
262.0433	0.1855
262.2577	0.1855
262.472	0.1819
262.6863	0.1826
262.9005	0.192
263.1148	0.1792
263.3291	0.1829
263.5433	0.1886
263.7576	0.1802
263.9718	0.186
264.186	0.1844
264.4002	0.1819
264.6144	0.1862
264.8286	0.1894
265.0427	0.1928
265.2569	0.1854
265.471	0.1834
265.6851	0.1789
265.8993	0.1832
266.1134	0.1858
266.3275	0.187
266.5415	0.1819
266.7556	0.1831
266.9697	0.1768
267.1837	0.1832
267.3978	0.1902
267.6118	0.1826
267.8258	0.187
268.0398	0.18
268.2538	0.1856
268.4677	0.1787
268.6817	0.1802
268.8957	0.1855
269.1096	0.1722
269.3235	0.1906
269.5374	0.1802
269.7514	0.1805
269.9652	0.1832
270.1791	0.1808
270.393	0.1826
270.6068	0.1711
270.8207	0.1705
271.0345	0.18
271.2483	0.1736
271.4622	0.1786
271.676	0.1724
271.8897	0.1763
272.1035	0.1748
272.3173	0.1748
272.531	0.1725
272.7448	0.1705
272.9585	0.168
273.1722	0.1799
273.3859	0.1743
273.5996	0.1679
273.8133	0.1667
274.0269	0.1771
274.2406	0.1722
274.4542	0.1625
274.6679	0.1668
274.8815	0.1715
275.0951	0.1785
275.3087	0.1799
275.5223	0.1732
275.7358	0.1781
275.9494	0.1745
276.1629	0.1761
276.3765	0.1658
276.59	0.1754
276.8035	0.1772
277.017	0.1765
277.2305	0.1757
277.444	0.1736
277.6574	0.1748
277.8709	0.1772
278.0843	0.1773
278.2978	0.1755
278.5112	0.1854
278.7246	0.1783
278.938	0.1752
279.1513	0.1777
279.3647	0.177
279.5781	0.1761
279.7914	0.1863
280.0047	0.1774
280.2181	0.1851
280.4314	0.1807
280.6447	0.1873
280.8579	0.1841
281.0712	0.1796
281.2845	0.1827
281.4977	0.1819
281.711	0.1818
281.9242	0.183
282.1374	0.1874
282.3506	0.1888
282.5638	0.1784
282.7769	0.1853
282.9901	0.1839
283.2033	0.1847
283.4164	0.1832
283.6295	0.1839
283.8426	0.1846
284.0557	0.185
284.2688	0.1927
284.4819	0.1897
284.695	0.1901
284.908	0.1951
285.1211	0.1852
285.3341	0.195
285.5471	0.1943
285.7601	0.1916
285.9731	0.1892
286.1861	0.1933
286.3991	0.1953
286.612	0.198
286.825	0.1905
287.0379	0.1955
287.2508	0.1932
287.4637	0.1972
287.6766	0.2001
287.8895	0.1896
288.1024	0.1955
288.3152	0.1914
288.5281	0.2014
288.7409	0.1947
288.9538	0.197
289.1666	0.1995
289.3794	0.1953
289.5922	0.195
289.8049	0.2066
290.0177	0.2011
290.2304	0.1971
290.4432	0.2001
290.6559	0.1854
290.8686	0.2007
291.0813	0.1992
291.294	0.2014
291.5067	0.2037
291.7194	0.2004
291.932	0.2085
292.1447	0.2015
292.3573	0.1965
292.5699	0.2031
292.7825	0.2016
292.9951	0.1972
293.2077	0.1991
293.4203	0.1995
293.6328	0.1955
293.8454	0.2028
294.0579	0.2012
294.2704	0.1983
294.4829	0.199
294.6954	0.1986
294.9079	0.2047
295.1204	0.1962
295.3328	0.1991
295.5453	0.1985
295.7577	0.196
295.9701	0.2009
296.1825	0.1999
296.3949	0.1971
296.6073	0.2002
296.8197	0.2009
297.0321	0.2008
297.2444	0.1987
297.4567	0.1962
297.6691	0.1941
297.8814	0.1963
298.0937	0.1984
298.306	0.1987
298.5182	0.2024
298.7305	0.198
298.9428	0.1992
299.155	0.1955
299.3672	0.1984
299.5794	0.1923
299.7916	0.1951
300.0038	0.1977
300.216	0.1993
300.4282	0.1925
300.6403	0.1968
300.8525	0.2068
301.0646	0.1945
301.2767	0.1952
301.4888	0.2015
301.7009	0.1919
301.913	0.2002
302.125	0.1995
302.3371	0.199
302.5491	0.1967
302.7612	0.2036
302.9732	0.1955
303.1852	0.1958
303.3972	0.1937
303.6092	0.1931
303.8211	0.1874
304.0331	0.1934
304.245	0.1989
304.457	0.2024
304.6689	0.1924
304.8808	0.1891
305.0927	0.1939
305.3046	0.1941
305.5164	0.1862
305.7283	0.1863
305.9401	0.1777
306.152	0.1776
306.3638	0.1809
306.5756	0.1821
306.7874	0.1831
306.9992	0.1749
307.2109	0.1718
307.4227	0.1715
307.6344	0.1766
307.8462	0.1678
308.0579	0.1673
308.2696	0.1628
308.4813	0.1575
308.693	0.1656
308.9046	0.1601
309.1163	0.1626
309.328	0.1521
309.5396	0.1584
309.7512	0.1538
309.9628	0.1549
310.1744	0.1573
310.386	0.146
310.5976	0.1457
310.8091	0.1477
311.0207	0.1472
311.2322	0.1468
311.4437	0.1449
311.6552	0.141
311.8667	0.1329
312.0782	0.1368
312.2897	0.1351
312.5012	0.1378
312.7126	0.1303
312.924	0.1311
313.1355	0.1259
313.3469	0.131
313.5583	0.127
313.7696	0.1269
313.981	0.1277
314.1924	0.1263
314.4037	0.1231
314.6151	0.1239
314.8264	0.1274
315.0377	0.1235
315.249	0.1186
315.4603	0.1213
315.6716	0.1295
315.8828	0.1258
316.0941	0.1224
316.3053	0.119
316.5165	0.1228
316.7277	0.1239
316.9389	0.123
317.1501	0.1188
317.3613	0.1217
317.5724	0.1249
317.7836	0.1178
317.9947	0.1143
318.2058	0.1166
318.417	0.1164
318.6281	0.1194
318.8391	0.1166
319.0502	0.1183
319.2613	0.1196
319.4723	0.1157
319.6834	0.1173
319.8944	0.1189
320.1054	0.1148
320.3164	0.1161
320.5274	0.1119
320.7383	0.118
320.9493	0.1162
321.1602	0.113
321.3712	0.113
321.5821	0.1203
321.793	0.1118
322.0039	0.1195
322.2148	0.1195
322.4257	0.1178
322.6365	0.1162
322.8474	0.1144
323.0582	0.119
323.269	0.1187
323.4798	0.1156
323.6906	0.1164
323.9014	0.1092
324.1122	0.1107
324.3229	0.1193
324.5337	0.1214
324.7444	0.114
324.9551	0.123
325.1658	0.124
325.3765	0.1155
325.5872	0.1188
325.7979	0.1179
326.0085	0.1168
326.2192	0.1179
326.4298	0.1202
326.6404	0.1223
326.851	0.119
327.0616	0.1235
327.2722	0.1243
327.4828	0.1168
327.6933	0.1233
327.9039	0.1179
328.1144	0.1213
328.3249	0.1267
328.5354	0.1174
328.7459	0.1201
328.9564	0.121
329.1669	0.1242
329.3773	0.1183
329.5878	0.1221
329.7982	0.1193
330.0086	0.1231
330.219	0.1256
330.4294	0.1272
330.6398	0.1215
330.8502	0.1227
331.0605	0.1227
331.2708	0.1246
331.4812	0.1157
331.6915	0.1219
331.9018	0.118
332.1121	0.1211
332.3224	0.1275
332.5326	0.129
332.7429	0.1227
332.9531	0.124
333.1633	0.1257
333.3735	0.1232
333.5837	0.1297
333.7939	0.1256
334.0041	0.1245
334.2143	0.1257
334.4244	0.1217
334.6346	0.1238
334.8447	0.1311
335.0548	0.1256
335.2649	0.1296
335.475	0.1299
335.685	0.1261
335.8951	0.1274
336.1051	0.1286
336.3152	0.1295
336.5252	0.1322
336.7352	0.1183
336.9452	0.1286
337.1552	0.1233
337.3652	0.13
337.5751	0.1241
337.7851	0.1263
337.995	0.1361
338.2049	0.1351
338.4148	0.1293
338.6247	0.1305
338.8346	0.1307
339.0445	0.1374
339.2543	0.137
339.4642	0.1347
339.674	0.1384
339.8838	0.1266
340.0936	0.1327
340.3034	0.1327
340.5132	0.1304
340.7229	0.1369
340.9327	0.1339
341.1424	0.1316
341.3522	0.1434
341.5619	0.1345
341.7716	0.1359
341.9813	0.1422
342.1909	0.1411
342.4006	0.1401
342.6102	0.1339
342.8199	0.1321
343.0295	0.1394
343.2391	0.144
343.4487	0.1408
343.6583	0.1462
343.8679	0.1402
344.0774	0.1399
344.287	0.1406
344.4965	0.1461
344.706	0.1446
344.9155	0.142
345.125	0.1454
345.3345	0.147
345.544	0.1493
345.7534	0.151
345.9629	0.1529
346.1723	0.1481
346.3817	0.149
346.5911	0.1507
346.8005	0.1477
347.0099	0.154
347.2193	0.1483
347.4286	0.1499
347.638	0.1482
347.8473	0.1606
348.0566	0.159
348.2659	0.1535
348.4752	0.1551
348.6845	0.1606
348.8937	0.1588
349.103	0.1578
349.3122	0.1607
349.5214	0.1559
349.7306	0.1614
349.9398	0.1633
350.149	0.1629
350.3582	0.158
350.5674	0.1663
350.7765	0.1616
350.9856	0.1598
351.1948	0.1626
351.4039	0.1629
351.613	0.1769
351.822	0.1651
352.0311	0.1646
352.2402	0.1697
352.4492	0.1751
352.6582	0.1697
352.8672	0.1636
353.0762	0.1717
353.2852	0.1698
353.4942	0.1753
353.7032	0.1721
353.9121	0.1744
354.1211	0.1735
354.33	0.1722
354.5389	0.1821
354.7478	0.1743
354.9567	0.1735
355.1655	0.1754
355.3744	0.1796
355.5833	0.1831
355.7921	0.1794
356.0009	0.1791
356.2097	0.1945
356.4185	0.182
356.6273	0.1839
356.8361	0.192
357.0448	0.1872
357.2536	0.183
357.4623	0.1832
357.671	0.1845
357.8797	0.1864
358.0884	0.1853
358.2971	0.1918
358.5057	0.1916
358.7144	0.2008
358.923	0.1998
359.1316	0.1989
359.3402	0.1996
359.5488	0.1922
359.7574	0.202
359.966	0.2041
360.1746	0.1924
360.3831	0.1989
360.5916	0.2025
360.8002	0.2129
361.0087	0.2137
361.2172	0.2079
361.4256	0.1966
361.6341	0.2181
361.8426	0.2086
362.051	0.2098
362.2594	0.2194
362.4678	0.2146
362.6762	0.217
362.8846	0.2179
363.093	0.2143
363.3014	0.2185
363.5097	0.2182
363.718	0.2271
363.9264	0.2238
364.1347	0.2322
364.343	0.2239
364.5513	0.2288
364.7595	0.2188
364.9678	0.2292
365.176	0.2247
365.3842	0.2288
365.5925	0.2277
365.8007	0.2368
366.0089	0.2308
366.217	0.2333
366.4252	0.2322
366.6333	0.239
366.8415	0.2337
367.0496	0.2365
367.2577	0.2447
367.4658	0.2472
367.6739	0.2437
367.882	0.2503
368.09	0.2474
368.2981	0.2399
368.5061	0.2485
368.7141	0.2506
368.9221	0.2479
369.1301	0.2479
369.3381	0.2544
369.5461	0.2549
369.754	0.2465
369.962	0.2547
370.1699	0.2549
370.3778	0.2642
370.5857	0.2528
370.7936	0.263
371.0015	0.2613
371.2093	0.2701
371.4172	0.2619
371.625	0.2622
371.8328	0.2586
372.0406	0.2691
372.2484	0.2536
372.4562	0.2674
372.664	0.267
372.8717	0.2687
373.0795	0.2672
373.2872	0.2735
373.4949	0.2752
373.7026	0.2813
373.9103	0.2715
374.118	0.2728
374.3256	0.2809
374.5333	0.2712
374.7409	0.2669
374.9485	0.2708
375.1561	0.2766
375.3637	0.2646
375.5713	0.2854
375.7789	0.2794
375.9864	0.2807
376.194	0.2776
376.4015	0.2873
376.609	0.2849
376.8165	0.2854
377.024	0.2818
377.2315	0.2858
377.4389	0.2846
377.6464	0.2825
377.8538	0.2985
378.0612	0.2868
378.2686	0.282
378.476	0.289
378.6834	0.2889
378.8908	0.2891
379.0981	0.2928
379.3055	0.3027
379.5128	0.296
379.7201	0.2907
379.9274	0.2853
380.1347	0.2997
380.342	0.3055
380.5492	0.3007
380.7565	0.3017
380.9637	0.2888
381.1709	0.3038
381.3781	0.3079
381.5853	0.3019
381.7925	0.3053
381.9997	0.3112
382.2068	0.2967
382.4139	0.308
382.6211	0.3152
382.8282	0.3104
383.0353	0.317
383.2424	0.3073
383.4494	0.3116
383.6565	0.3116
383.8635	0.313
384.0706	0.3157
384.2776	0.317
384.4846	0.3088
384.6916	0.3141
384.8986	0.3226
385.1055	0.3108
385.3125	0.3094
385.5194	0.3088
385.7263	0.3126
385.9333	0.3116
386.1402	0.3183
386.347	0.3125
386.5539	0.3163
386.7608	0.3184
386.9676	0.3058
387.1744	0.309
387.3813	0.3012
387.5881	0.3136
387.7948	0.3114
388.0016	0.3084
388.2084	0.32
388.4151	0.3069
388.6219	0.3136
388.8286	0.3137
389.0353	0.2999
389.242	0.3058
389.4487	0.3071
389.6553	0.3165
389.862	0.3073
390.0686	0.3065
390.2753	0.3053
390.4819	0.3029
390.6885	0.3031
390.8951	0.3101
391.1016	0.3075
391.3082	0.2919
391.5147	0.294
391.7213	0.29
391.9278	0.3006
392.1343	0.3027
392.3408	0.2934
392.5473	0.2839
392.7537	0.2967
392.9602	0.2845
393.1666	0.2884
393.373	0.2874
393.5794	0.2826
393.7858	0.2875
393.9922	0.2977
394.1986	0.2886
394.4049	0.2914
394.6113	0.2897
394.8176	0.2813
395.0239	0.2748
395.2302	0.2747
395.4365	0.2803
395.6428	0.2768
395.8491	0.2792
396.0553	0.2761
396.2615	0.2685
396.4678	0.2715
396.674	0.2711
396.8802	0.2727
397.0863	0.2733
397.2925	0.2738
397.4987	0.2697
397.7048	0.2795
397.9109	0.2703
398.117	0.2634
398.3231	0.2748
398.5292	0.2779
398.7353	0.2703
398.9413	0.2684
399.1474	0.2679
399.3534	0.2714
399.5594	0.2736
399.7654	0.2714
399.9714	0.2587
400.1774	0.2681
400.3833	0.2625
400.5893	0.2723
400.7952	0.2652
401.0011	0.2632
401.207	0.2663
401.4129	0.2663
401.6188	0.2606
401.8247	0.258
402.0305	0.2449
402.2364	0.2721
402.4422	0.2676
402.648	0.266
402.8538	0.2812
403.0596	0.2589
403.2654	0.2657
403.4711	0.2684
403.6768	0.2712
403.8826	0.2656
404.0883	0.2666
404.294	0.2774
404.4997	0.2656
404.7054	0.2596
404.911	0.2662
405.1167	0.2682
405.3223	0.274
405.5279	0.2592
405.7335	0.257
405.9391	0.2586
406.1447	0.2653
406.3502	0.2764
406.5558	0.2741
406.7613	0.2707
406.9668	0.2618
407.1724	0.2733
407.3778	0.2651
407.5833	0.2679
407.7888	0.2753
407.9942	0.2691
408.1997	0.2705
408.4051	0.2604
408.6105	0.266
408.8159	0.2646
409.0213	0.266
409.2267	0.2592
409.432	0.2636
409.6374	0.2694
409.8427	0.2733
410.048	0.2666
410.2533	0.2658
410.4586	0.2728
410.6639	0.2652
410.8691	0.2679
411.0744	0.2627
411.2796	0.272
411.4848	0.25
411.69	0.2569
411.8952	0.276
412.1004	0.2646
412.3056	0.2693
412.5107	0.2732
412.7158	0.2657
412.921	0.2635
413.1261	0.2667
413.3312	0.256
413.5362	0.266
413.7413	0.2645
413.9464	0.2587
414.1514	0.267
414.3564	0.26
414.5614	0.265
414.7664	0.2648
414.9714	0.2635
415.1764	0.2606
415.3813	0.2561
415.5863	0.2641
415.7912	0.2626
415.9961	0.2598
416.201	0.277
416.4059	0.2618
416.6108	0.2499
416.8156	0.2437
417.0205	0.2633
417.2253	0.2629
417.4301	0.2668
417.6349	0.2537
417.8397	0.2607
418.0445	0.2619
418.2492	0.2555
418.454	0.2584
418.6587	0.2602
418.8634	0.2541
419.0681	0.2508
419.2728	0.2519
419.4775	0.2627
419.6822	0.2563
419.8868	0.2584
420.0915	0.2531
420.2961	0.2445
420.5007	0.2445
420.7053	0.246
420.9099	0.2339
421.1144	0.238
421.319	0.2409
421.5235	0.2399
421.728	0.2446
421.9325	0.2388
422.137	0.2299
422.3415	0.2385
422.546	0.2422
422.7504	0.2415
422.9549	0.2364
423.1593	0.2391
423.3637	0.2329
423.5681	0.2379
423.7725	0.2462
423.9769	0.2411
424.1812	0.2296
424.3856	0.2464
424.5899	0.2375
424.7942	0.2192
424.9985	0.2273
425.2028	0.2372
425.4071	0.2184
425.6113	0.2332
425.8156	0.2301
426.0198	0.2194
426.224	0.2275
426.4282	0.2284
426.6324	0.2207
426.8366	0.2197
427.0407	0.221
427.2449	0.2098
427.449	0.219
427.6531	0.2139
427.8572	0.2113
428.0613	0.2114
428.2654	0.2151
428.4694	0.2106
428.6735	0.2081
428.8775	0.2072
429.0815	0.2136
429.2855	0.1991
429.4895	0.2007
429.6935	0.1929
429.8975	0.2069
430.1014	0.1915
430.3053	0.1955
430.5093	0.1869
430.7132	0.2019
430.9171	0.1909
431.1209	0.1945
431.3248	0.1854
431.5286	0.17
431.7325	0.1948
431.9363	0.1912
432.1401	0.1756
432.3439	0.1752
432.5477	0.1706
432.7514	0.1759
432.9552	0.1723
433.1589	0.1692
433.3627	0.1754
433.5664	0.1739
433.7701	0.1665
433.9737	0.1607
434.1774	0.1774
434.3811	0.1694
434.5847	0.1691
434.7883	0.1649
434.9919	0.1526
435.1955	0.1609
435.3991	0.1535
435.6027	0.149
435.8062	0.1504
436.0098	0.1453
436.2133	0.1521
436.4168	0.1466
436.6203	0.132
436.8238	0.1479
437.0272	0.1365
437.2307	0.1277
437.4341	0.1431
437.6375	0.1246
437.841	0.1282
438.0443	0.124
438.2477	0.1291
438.4511	0.1304
438.6545	0.1251
438.8578	0.1315
439.0611	0.1238
439.2644	0.1107
439.4677	0.1212
439.671	0.1211
439.8743	0.1096
440.0775	0.1149
440.2808	0.1199
440.484	0.109
440.6872	0.0998
440.8904	0.1047
441.0936	0.1188
441.2967	0.0984
441.4999	0.108
441.703	0.0996
441.9062	0.1025
442.1093	0.1026
442.3124	0.101
442.5155	0.0967
442.7185	0.0779
442.9216	0.0922
443.1246	0.0901
443.3276	0.0789
443.5307	0.0831
443.7337	0.0884
443.9366	0.0818
444.1396	0.0796
444.3426	0.0819
444.5455	0.0757
444.7484	0.073
444.9513	0.0857
445.1542	0.075
445.3571	0.0637
445.56	0.0682
445.7628	0.0621
445.9657	0.0787
446.1685	0.0713
446.3713	0.0692
446.5741	0.0624
446.7769	0.0669
446.9797	0.0655
447.1824	0.0634
447.3852	0.0625
447.5879	0.0609
447.7906	0.05
447.9933	0.0589
448.196	0.0575
448.3986	0.0618
448.6013	0.0552
448.8039	0.0548
449.0066	0.0506
449.2092	0.0476
449.4118	0.0529
449.6143	0.0513
449.8169	0.0583
450.0195	0.0413
450.222	0.0399
450.4245	0.0535
450.627	0.0484
450.8295	0.0418
451.032	0.0448
451.2345	0.0526
451.4369	0.0468
451.6394	0.0386
451.8418	0.0361
452.0442	0.0417
452.2466	0.0384
452.449	0.0408
452.6513	0.037
452.8537	0.0397
453.056	0.0413
453.2583	0.0465
453.4607	0.0249
453.663	0.034
453.8652	0.026
454.0675	0.0324
454.2697	0.0309
454.472	0.0316
454.6742	0.0256
454.8764	0.0275
455.0786	0.021
455.2808	0.036
455.4829	0.0241
455.6851	0.0204
455.8872	0.0249
456.0893	0.0335
456.2915	0.024
456.4935	0.0165
456.6956	0.0196
456.8977	0.0188
457.0997	0.0319
457.3018	0.0271
457.5038	0.017
457.7058	0.0172
457.9078	0.0331
458.1098	0.0234
458.3117	0.021
458.5137	0.0327
458.7156	0.0213
458.9175	0.0068
459.1194	0.0182
459.3213	0.0197
459.5232	0.0091
459.725	0.0248
459.9269	0.017
460.1287	0.0161
460.3305	0.0117
460.5323	0.0183
460.7341	0.0133
460.9359	0.016
461.1376	0.0151
461.3394	0.0073
461.5411	0.0168
461.7428	0.0106
461.9445	0.0101
462.1462	0.0157
462.3479	0.0186
462.5495	0.0072
462.7512	0.0054
462.9528	0.0018
463.1544	0.0072
463.356	0.0208
463.5576	0.0141
463.7592	-0.0027
463.9607	0.0077
464.1623	0.0201
464.3638	0.0035
464.5653	0.0104
464.7668	0.0079
464.9683	0.0142
465.1697	0.0113
465.3712	0.0067
465.5726	0.0074
465.7741	0.0172
465.9755	0.0143
466.1769	0.0051
466.3782	0.0039
466.5796	0.0072
466.7809	0.0118
466.9823	0.0009
467.1836	0.009
467.3849	0.0048
467.5862	0.0056
467.7875	0.0058
467.9887	0.0124
468.19	0.0067
468.3912	0.0096
468.5924	0.0201
468.7936	0.0026
468.9948	0.021
469.196	0.0025
469.3972	0.014
469.5983	-0.0017
469.7994	0.0057
470.0006	0.0026
470.2017	0.0133
470.4027	0.0011
470.6038	0.0019
470.8049	0.0001
471.0059	0.0113
471.2069	0.013
471.408	-0.0031
471.6089	0.0071
471.8099	0.0033
472.0109	0.0033
472.2119	0.013
472.4128	0.009
472.6137	0.0063
472.8146	-0.0002
473.0155	0.0028
473.2164	-0.0069
473.4173	0.0136
473.6181	0.0041
473.819	0.0045
474.0198	0.0012
474.2206	0.0021
474.4214	0.0113
474.6222	0.005
474.8229	0.0016
475.0237	-0.0029
475.2244	0.0082
475.4251	0.0038
475.6258	0.0069
475.8265	-0.005
476.0272	-0.0062
476.2278	0.0056
476.4285	0.0038
476.6291	0.0141
476.8297	0.0022
477.0303	0.0032
477.2309	-0.0028
477.4315	0.0014
477.632	0.0024
477.8326	0.0092
478.0331	0.0069
478.2336	0.0088
478.4341	-0.0028
478.6346	-0.0006
478.8351	0.0046
479.0355	0.0025
479.236	0.0062
479.4364	0.0009
479.6368	0.006
479.8372	-0.0018
480.0376	-0.0042
480.2379	0.0008
480.4383	0.0061
480.6386	0.0005
480.8389	0.0051
481.0392	0.007
481.2395	0.0053
481.4398	0.0056
481.6401	0.0059
481.8403	-0.0086
482.0405	-0.0033
482.2408	0.0056
482.441	0.0045
482.6411	-0.0013
482.8413	-0.0103
483.0415	0.0022
483.2416	0.0017
483.4417	0.0031
483.6419	0.0073
483.8419	0.0003
484.042	0.0072
484.2421	-0.0009
484.4422	0.0067
484.6422	0.0057
484.8422	0.0003
485.0422	0.0027
485.2422	0.0027
485.4422	-0.0003
485.6422	-0.0008
485.8421	-0.0043
486.042	0.0025
486.242	0.0006
486.4419	0.004
486.6417	0.0008
486.8416	0.0026
487.0415	-0.0036
487.2413	0.0011
487.4411	0.0061
487.641	0.0065
487.8408	0.0074
488.0405	0.0012
488.2403	-0.0062
488.4401	-0.0019
488.6398	0.0042
488.8395	0.0049
489.0392	-0.0022
489.2389	-0.0017
489.4386	-0.0027
489.6383	0.0064
489.8379	-0.001
490.0376	0.0067
490.2372	-0.0001
490.4368	0.0108
490.6364	0.0022
490.836	0.001
491.0355	0.0032
491.2351	0.0071
491.4346	0.0011
491.6341	-0.0042
491.8336	-0.0017
492.0331	-0.004
492.2326	-0.0045
492.432	-0.0003
492.6315	-0.0063
492.8309	-0.0003
493.0303	-0.0038
493.2297	-0.0112
493.4291	-0.0073
493.6284	-0.0032
493.8278	0.0094
494.0271	0.0011
494.2264	0.0063
494.4257	-0.0039
494.625	0.0042
494.8243	0.0115
495.0236	0.0017
495.2228	-0.0048
495.422	0.0003
495.6213	-0.0016
495.8205	-0.0017
496.0196	0.0045
496.2188	-0.0029
496.418	-0.0115
496.6171	-0.0007
496.8162	0.0038
497.0153	0.0058
497.2144	-0.0021
497.4135	-0.0018
497.6126	-0.0049
497.8116	0.0004
498.0107	0.002
498.2097	0.0121
498.4087	0.0082
498.6077	0.0023
498.8067	0.0086
499.0056	-0.0002
499.2046	0.0006
499.4035	0.0027
499.6024	-0.0029
499.8013	0.0026
500.0002	0.0015
500.199	-0.0035
500.3979	0.0063
500.5967	-0.0062
500.7956	-0.0042
500.9944	-0.0018
501.1932	0.0083
501.3919	0.0069
501.5907	0.0056
501.7895	-0.0009
501.9882	0.0014
502.1869	0.0061
502.3856	0.0009
502.5843	0.0032
502.783	0.005
502.9816	-0.0031
503.1803	0.0085
503.3789	0.0061
503.5775	0.007
503.7761	0.0043
503.9747	-0.001
504.1732	0.0101
504.3718	-0.0002
504.5703	-0.0044
504.7689	-0.0054
504.9674	-0.0057
505.1658	0.0054
505.3643	0.0035
505.5628	-0.0019
505.7612	0.0037
505.9597	0.0049
506.1581	-0.0098
506.3565	-0.0099
506.5549	0.0026
506.7532	0.0079
506.9516	0.0005
507.1499	0.0046
507.3482	0.0039
507.5465	-0.0084
507.7448	0.0067
507.9431	-0.007
508.1414	-0.0021
508.3396	0.0014
508.5379	0.0035
508.7361	0.0065
508.9343	-0.0028
509.1325	0.0071
509.3306	-0.0101
509.5288	0.0098
509.7269	0.0065
509.9251	-0.0031
510.1232	-0.0052
510.3213	-0.0101
510.5193	0.0053
510.7174	-0.0122
510.9154	0.0034
511.1135	-0.0019
511.3115	-0.0006
511.5095	0.0041
511.7075	-0.0009
511.9055	0.0106
512.1034	0.001
512.3014	-0.0067
512.4993	0.0021
512.6972	-0.0038
512.8951	-0.0009
513.093	-0.0026
513.2908	-0.0012
513.4887	0.0053
513.6865	-0.0031
513.8844	-0.0078
514.0822	-0.0008
514.2799	0.0024
514.4777	0.0072
514.6755	0.0049
514.8732	0.0003
515.0709	0.0053
515.2687	-0.0024
515.4664	-0.0071
515.664	-0.0018
515.8617	0.0077
516.0594	0.003
516.257	0.0044
516.4546	0.0046
516.6522	-0.0024
516.8498	0.0052
517.0474	-0.0031
517.2449	-0.0049
517.4425	-0.0045
517.64	0.006
517.8375	0.008
518.035	-0.006
518.2325	-0.0128
518.43	-0.0049
518.6274	-0.0093
518.8249	-0.0057
519.0223	0.0044
519.2197	-0.0074
519.4171	0.0003
519.6145	-0.0077
519.8118	-0.0062
520.0092	0.0017
520.2065	0.0008
520.4038	-0.0012
520.6011	-0.0003
520.7984	-0.0003
520.9956	0.0022
521.1929	0.007
521.3901	0.0063
521.5874	0.0003
521.7846	-0.0118
521.9818	-0.0003
522.1789	0.0075
522.3761	0.0084
522.5732	-0.0009
522.7704	0.0016
522.9675	-0.0089
523.1646	0.0199
523.3617	0.0033
523.5587	0.0025
523.7558	0.0054
523.9528	-0.0069
524.1498	-0.007
524.3468	-0.0023
524.5438	-0.0029
524.7408	-0.0092
524.9378	0.0008
525.1347	0.0089
525.3316	0.0046
525.5285	-0.0004
525.7254	0.0053
525.9223	-0.007
526.1192	-0.0102
526.316	-0.0104
526.5129	0.0012
526.7097	-0.0043
526.9065	-0.0021
527.1033	-0.0072
527.3	-0.006
527.4968	-0.0055
527.6935	0.003
527.8903	0.0031
528.087	0.0074
528.2837	0.0035
528.4804	0.0052
528.677	0.0049
528.8737	-0.0012
529.0703	0.0151
529.2669	0.0012
529.4635	0.013
529.6601	0.0071
529.8567	0.0076
530.0532	0.0043
530.2498	0.0004
530.4463	0.0057
530.6428	-0.008
530.8393	-0.0004
531.0358	-0.0013
531.2322	0.0038
531.4287	-0.0081
531.6251	-0.0081
531.8215	-0.0031
532.0179	-0.0072
532.2143	0.0071
532.4107	-0.0059
532.607	-0.0002
532.8034	0.0021
532.9997	0.009
533.196	0.0186
533.3923	0.0058
533.5886	-0.001
533.7848	-0.0148
533.9811	-0.0081
534.1773	-0.0026
534.3735	0.0023
534.5697	0.0014
534.7659	0.0033
534.9621	0.0017
535.1582	0.0006
535.3544	0.0069
535.5505	0.0092
535.7466	-0.0044
535.9427	-0.0023
536.1387	0.0138
536.3348	-0.002
536.5308	0.0084
536.7269	-0.0113
536.9229	0
537.1189	-0.0042
537.3148	-0.01
537.5108	0.0108
537.7068	0.006
537.9027	0.0034
538.0986	-0.0058
538.2945	-0.0072
538.4904	-0.0077
538.6863	0.0154
538.8821	-0.0101
539.078	-0.0042
539.2738	-0.0095
539.4696	0.0059
539.6654	0.001
539.8611	-0.0043
540.0569	-0.0036
540.2526	-0.009
540.4484	-0.0054
540.6441	-0.0026
540.8398	0.0008
541.0355	-0.0001
541.2311	0.0007
541.4268	-0.0022
541.6224	0.0018
541.818	-0.0001
542.0136	-0.0094
542.2092	-0.0016
542.4048	0.0056
542.6003	-0.0027
542.7959	-0.0022
542.9914	0.0007
543.1869	0.0078
543.3824	0.0024
543.5779	-0.0039
543.7734	0.0023
543.9688	0.0011
544.1642	-0.0076
544.3596	-0.0089
544.555	0.0068
544.7504	0.006
544.9458	-0.0043
545.1411	-0.0003
545.3365	-0.0032
545.5318	-0.0036
545.7271	0.0079
545.9224	0.0007
546.1177	-0.0028
546.3129	-0.0128
546.5081	-0.0073
546.7034	0.0042
546.8986	0.0001
547.0938	-0.0048
547.289	0.0049
547.4841	0.004
547.6793	-0.0024
547.8744	-0.0024
548.0695	-0.0106
548.2646	0.0003
548.4597	-0.0085
548.6548	0.0006
548.8498	-0.0006
549.0448	0.0075
549.2399	-0.0095
549.4349	0.0102
549.6298	-0.0044
549.8248	-0.0024
550.0198	0.0056
550.2147	-0.0016
550.4096	0.0022
550.6045	0.0019
550.7994	0.0054
550.9943	0.0007
551.1892	-0.0111
551.384	0.008
551.5788	0.0033
551.7737	0.0005
551.9685	0.0062
552.1632	0.0028
552.358	-0.0028
552.5528	-0.0039
552.7475	0.0007
552.9422	-0.0058
553.1369	0.0061
553.3316	-0.011
553.5263	-0.0072
553.7209	-0.005
553.9156	0.0081
554.1102	-0.0094
554.3048	-0.0024
554.4994	0.005
554.694	-0.0049
554.8885	-0.0013
555.0831	0.0058
555.2776	-0.0086
555.4721	-0.0119
555.6666	0.0031
555.8611	-0.0034
556.0555	0.0082
556.25	-0.004
556.4444	-0.0081
556.6388	-0.0065
556.8332	-0.0008
557.0276	0.0099
557.222	-0.0026
557.4163	0.0047
557.6107	0.0027
557.805	-0.0133
557.9993	0.0013
558.1936	0.0045
558.3879	0.0028
558.5821	-0.0073
558.7764	0.0101
558.9706	0.0012
559.1648	-0.0092
559.359	0.0101
559.5532	-0.0163
559.7473	0.01
559.9415	-0.0011
560.1356	0.0028
560.3297	0.0019
560.5238	-0.0005
560.7179	-0.0088
560.9119	0.0048
561.106	-0.0085
561.3	-0.0094
561.494	0.0003
561.688	-0.0063
561.882	-0.0019
562.076	0.0041
562.2699	0.0048
562.4639	0.0067
562.6578	0.0036
562.8517	-0.0117
563.0456	0.0038
563.2395	-0.0029
563.4333	-0.0017
563.6272	0.0088
563.821	0.0135
564.0148	-0.0043
564.2086	-0.0031
564.4024	-0.0086
564.5961	0.0058
564.7899	0.0036
564.9836	-0.0007
565.1773	-0.0016
565.371	-0.002
565.5647	-0.0051
565.7584	-0.0066
565.952	-0.0074
566.1456	-0.0051
566.3393	0.0085
566.5329	-0.0046
566.7264	-0.0029
566.92	-0.0025
567.1136	0.0016
567.3071	0.0044
567.5006	-0.0099
567.6941	0.0084
567.8876	-0.0056
568.0811	-0.0052
568.2745	-0.0038
568.468	0.0074
568.6614	0.0039
568.8548	-0.0018
569.0482	0.0018
569.2416	-0.0052
569.4349	-0.0034
569.6283	0.0013
569.8216	-0.0014
570.0149	-0.0009
570.2082	-0.0008
570.4015	0.0011
570.5947	-0.0056
570.788	0.0011
570.9812	-0.0031
571.1744	-0.0032
571.3676	-0.006
571.5608	-0.0007
571.754	-0.0051
571.9471	0.0041
572.1402	-0.0009
572.3333	0.0034
572.5264	0.0055
572.7195	0.0063
572.9126	0.0025
573.1057	0.0011
573.2987	0.0017
573.4917	0.0034
573.6847	-0.0032
573.8777	0
574.0707	-0.0058
574.2636	-0.0026
574.4566	0.003
574.6495	0.0045
574.8424	0.0008
575.0353	-0.0003
575.2281	-0.0028
575.421	-0.0015
575.6138	0.0002
575.8067	0.0002
575.9995	-0.0016
576.1923	0.0004
576.385	-0.0008
576.5778	-0.0015
576.7706	-0.0014
576.9633	0.001
577.156	-0.0005
577.3487	-0.0009
577.5414	-0.0011
577.734	-0.0001
577.9267	-0
578.1193	0.0043
578.3119	-0.0034
578.5045	-0.0009
578.6971	0.0013
578.8897	0.0009
579.0822	0.0081
579.2747	-0.0073
579.4673	-0.0016
579.6598	0.0001
579.8522	0.005
580.0447	-0.0007
580.2372	0.0024
580.4296	-0.0009
580.622	-0.002
580.8144	-0.0009
581.0068	-0.0021
581.1992	-0
581.3915	0.0003
581.5839	0.0011
581.7762	0.0038
581.9685	0.0002
582.1608	-0.0014
582.353	-0.0034
582.5453	0.0009
582.7375	-0.0011
582.9298	0.0004
583.122	-0.0025
583.3142	0.002
583.5063	-0.0003
583.6985	-0
583.8906	0.0013
584.0827	-0.0043
584.2749	0.0028
584.4669	-0
584.659	-0.0019
584.8511	-0.0033
585.0431	0.0007
585.2352	-0.0076
585.4272	-0.0025
585.6192	0.0002
585.8111	-0.0047
586.0031	0.0043
586.195	0.0009
586.387	0.003
586.5789	0.0014
586.7708	-0.0048
586.9627	0.0034
587.1545	0.0025
587.3464	0.0014
587.5382	0.0004
587.73	0.0006
587.9218	0.0052
588.1136	-0.0027
588.3053	0.0006
588.4971	-0.0045
588.6888	-0.0065
588.8805	0.0037
589.0722	-0.0001
589.2639	0.0005
589.4556	-0.0074
589.6472	-0.003
589.8389	-0.0043
590.0305	0.0005
590.2221	0.0039
590.4137	-0.0084
590.6052	-0.0003
590.7968	0.0082
590.9883	0.004
591.1798	-0.0089
591.3713	-0.0069
591.5628	0.0046
591.7543	0.0017
591.9458	0.0003
592.1372	-0.0036
592.3286	-0.0098
592.52	-0.0034
592.7114	-0.0027
592.9028	-0.0054
593.0941	-0.0051
593.2855	0.0024
593.4768	0.0019
593.6681	-0.0044
593.8594	-0.0038
594.0506	0.0016
594.2419	-0.0016
594.4331	-0.0047
594.6244	0.0046
594.8156	-0.0028
595.0067	0.0007
595.1979	-0.0055
595.3891	-0
595.5802	-0.0034
595.7713	0.0012
595.9624	-0.0023
596.1535	-0.0013
596.3446	-0.0013
596.5357	-0.0051
596.7267	0.002
596.9177	-0.0033
597.1087	0.0053
597.2997	0.0001
597.4907	0.0042
597.6817	0.0026
597.8726	0.0036
598.0635	-0.0007
598.2544	-0.0041
598.4453	-0.0035
598.6362	-0.0042
598.827	0.0037
599.0179	0.0007
599.2087	0.0011
599.3995	0.0054
599.5903	0.0049
599.7811	-0.0007
599.9718	0.0027
600.1626	0.0022
600.3533	-0.0024
600.544	-0.0008
600.7347	0.0058
600.9254	-0.0014
601.116	-0.0044
601.3067	-0.0009
601.4973	0.0076
601.6879	-0.0041
601.8785	0.0026
602.0691	0.0082
602.2596	0.0043
602.4502	0.0027
602.6407	0.0022
602.8312	0.0023
603.0217	0.0076
603.2122	0.0081
603.4027	-0.0009
603.5931	-0.0027
603.7835	-0.0017
603.9739	-0.0042
604.1643	-0.001
604.3547	0.0072
604.5451	0.0032
604.7354	-0.001
604.9257	-0.0087
605.116	0.002
605.3063	-0.0058
605.4966	-0.0039
605.6869	-0.0032
605.8771	-0.0021
606.0673	-0.0066
606.2575	-0.0006
606.4477	0.0057
606.6379	-0.0029
606.8281	-0.0049
607.0182	-0.0023
607.2083	-0.0049
607.3985	-0.0028
607.5885	-0.0005
607.7786	0.0108
607.9687	-0.003
608.1587	-0.006
608.3488	-0.0012
608.5388	-0.0014
608.7288	-0.0032
608.9187	0.0089
609.1087	-0.001
609.2986	-0.0034
609.4886	0.0036
609.6785	-0.0049
609.8684	-0.0045
610.0582	0.0025
610.2481	-0.0053
610.4379	-0.0018
610.6278	-0.001
610.8176	-0.0024
611.0074	-0.0022
611.1971	0.0057
611.3869	0.0068
611.5766	-0.0024
611.7664	0.0093
611.9561	0.004
612.1458	-0.0007
612.3354	0.0045
612.5251	-0.005
612.7147	0.0039
612.9044	-0.0078
613.094	-0.0044
613.2836	-0.0037
613.4731	-0.004
613.6627	0.0067
613.8522	-0.0087
614.0417	-0.0014
614.2313	-0.0099
614.4207	0.0067
614.6102	0.0016
614.7997	-0.0034
614.9891	0.0047
615.1785	-0.0004
615.3679	0.0039
615.5573	-0.0071
615.7467	-0.0062
615.9361	-0.0022
616.1254	-0.0041
616.3147	-0.004
616.504	-0.0041
616.6933	-0.0016
616.8826	0.0028
617.0718	-0.0071
617.2611	-0.0096
617.4503	-0.0103
617.6395	-0.0011
617.8287	-0.0007
618.0179	-0.0048
618.207	-0.0006
618.3961	-0.0086
618.5853	0.0056
618.7744	-0.0002
618.9634	0.0005
619.1525	0.0023
619.3416	-0.004
619.5306	0.0021
619.7196	-0.0081
619.9086	0.0103
620.0976	-0.0102
620.2866	0.0038
620.4755	0.0126
620.6645	-0.0034
620.8534	-0.0072
621.0423	-0.0044
621.2312	-0.0041
621.42	-0.0057
621.6089	-0.0009
621.7977	-0.0045
621.9865	0.0017
622.1753	0.0079
622.3641	-0.0146
622.5529	-0.0093
622.7416	-0.0011
622.9303	-0.008
623.1191	-0.0061
623.3078	-0.0077
623.4964	-0.0132
623.6851	0.0073
623.8737	0.0063
624.0624	-0.0023
624.251	-0.0006
624.4396	-0.0034
624.6282	0.001
624.8167	0.0054
625.0053	-0.0082
625.1938	-0.0136
625.3823	-0.0012
625.5708	-0.01
625.7593	-0.0003
625.9477	-0.0167
626.1362	-0.0109
626.3246	-0.0094
626.513	0.0067
626.7014	-0.0083
626.8898	-0.0023
627.0781	0.0043
627.2665	0.0095
627.4548	-0.012
627.6431	-0.0132
627.8314	0.0019
628.0197	0.0009
628.2079	-0.0027
628.3962	0.0152
628.5844	0.0025
628.7726	-0.0089
628.9608	-0.0128
629.1489	-0.0097
629.3371	-0.0118
629.5252	0.0072
629.7134	0.0019
629.9015	-0.0161
630.0895	0
630.2776	-0.0096
630.4657	0.0054
630.6537	-0.008
630.8417	-0.0064
631.0297	-0.0054
631.2177	-0.0001
631.4057	-0.0115
631.5936	-0.0057
631.7815	-0.0036
631.9695	0.0172
632.1574	-0.0024
632.3452	-0.0166
632.5331	-0.0061
632.7209	0.0174
632.9088	0.0032
633.0966	-0.0054
633.2844	0.0013
633.4722	-0.0018
633.6599	-0.0097
633.8477	-0.0053
634.0354	-0.001
634.2231	0.0163
634.4108	-0.009
634.5985	-0.0026
634.7861	0.0025
634.9738	-0.0024
635.1614	-0.0085
635.349	-0.0181
635.5366	-0.0135
635.7242	0.004
635.9117	0.0147
636.0993	-0.0093
636.2868	-0.0054
636.4743	0.018
636.6618	0.0088
636.8492	-0.0065
637.0367	-0.0026
637.2241	-0.0102
637.4115	-0.0044
637.5989	0.0081
637.7863	-0.0073
637.9737	0.0082
638.161	-0.0157
638.3484	-0.0077
638.5357	-0.01
638.723	-0.0179
638.9103	0.0139
639.0975	0.0145
639.2848	0.024
639.472	-0.011
639.6592	0.0164
639.8464	0.0023
640.0336	0.0045
640.2208	-0.0282
640.4079	0.002
640.595	-0.0138
640.7821	-0.0063
640.9692	-0.0089
641.1563	0.0204
641.3434	-0.0186
641.5304	-0.0066
641.7174	-0.0014
641.9044	-0.0064
642.0914	-0.0116
642.2784	0.0244
642.4653	-0.0103
642.6523	-0.0181
642.8392	0.0149
643.0261	0.0037
643.213	0.0139
643.3999	-0.0198
643.5867	0.0005
643.7735	0.0085
643.9604	-0.0243
644.1472	-0.0117
644.3339	-0.0011
644.5207	-0.0201
644.7075	-0.0117
644.8942	0.0075
645.0809	-0.0096
645.2676	-0.0097
645.4543	-0.0114
645.6409	-0.028
645.8276	-0.0017
646.0142	-0.0141
646.2008	0.0015
646.3874	0.0039
646.574	-0.0346
646.7605	-0.0122
646.9471	0.0006
647.1336	-0.0021
647.3201	0.0097
647.5066	-0.0092
647.6931	0.0084
647.8795	0.0168
648.0659	-0.0118
648.2524	-0.0152
648.4388	-0.0062
648.6252	-0.0105
648.8115	0.0199
648.9979	0.0051
649.1842	-0.0105
649.3705	-0.0017
649.5568	-0.0236
649.7431	-0.0246
649.9294	-0.0061
650.1156	-0.0083
650.3018	0.01
650.488	-0.0123
650.6742	-0.0079
650.8604	0.0006
651.0466	0.0114
651.2327	-0.02
651.4188	-0.01
651.6049	-0.0104
651.791	0.0005
651.9771	-0.0076
652.1632	0.0091
652.3492	0.0024
652.5352	-0.0105
652.7212	-0.0012
652.9072	-0.0063
653.0932	0.0035
653.2791	0.0032
653.465	-0.0289
653.651	0.0172
653.8369	0.0176
654.0227	-0.0191
654.2086	-0.0057
654.3944	-0.0299
654.5803	-0.0081
654.7661	0.0021
654.9519	-0.003
655.1377	-0
655.3234	-0
655.5092	-0
655.6949	-0
655.8806	-0
656.0663	-0
656.2519	-0
656.4376	-0
656.6232	-0
656.8088	-0
656.9945	-0
657.18	-0
657.3656	-0
657.5511	-0
657.7367	-0
657.9222	-0
658.1077	-0
658.2932	-0
658.4786	-0
658.6641	-0
658.8495	-0
659.0349	-0
659.2203	-0
659.4057	-0.0035
659.591	0.0617
659.7764	0.0087
659.9617	0.0035
660.147	-0.0105
660.3323	-0.0097
660.5176	0.0003
660.7028	-0.0046
660.888	0.0105
661.0733	0.0013
661.2585	-0.0002
661.4436	0.0003
661.6288	-0.0094
661.8139	-0.0034
661.9991	0.0003
662.1842	0.007
662.3693	0.0001
662.5544	-0.0059
662.7394	0.0211
662.9245	0.0023
663.1095	-0.0143
663.2945	-0.0158
663.4795	-0.0048
663.6644	0.0152
663.8494	0.0303
664.0343	-0.0155
664.2193	-0.0211
664.4042	-0.0188
664.589	-0.0334
664.7739	-0.0138
664.9587	0.0033
665.1436	-0.0111
665.3284	-0.008
665.5132	0.0038
665.698	-0.0104
665.8827	-0.0206
666.0675	-0.0143
666.2522	-0.0178
666.4369	-0.0093
666.6216	-0.0108
666.8063	-0.0197
666.9909	-0.0033
667.1756	0.0037
667.3602	-0.0161
667.5448	-0.0093
667.7294	-0.0062
667.9139	-0.0199
668.0985	-0.0299
668.283	0.0032
668.4675	-0.0156
668.652	-0.0122
668.8365	-0.0279
669.0209	-0.0356
669.2054	-0.0015
669.3898	-0.021
669.5742	0.0179
669.7586	-0.0113
669.943	-0.0221
670.1273	0.016
670.3117	0.0058
670.496	0.0115
670.6803	-0.0068
670.8646	0.0114
671.0488	0.0039
671.2331	0.0026
671.4173	-0.0003
671.6015	-0.0028
671.7857	-0.0207
671.9699	0.0157
672.1541	-0.0111
672.3382	-0.0007
672.5223	-0.0179
672.7064	0.0003
672.8905	0.0008
673.0746	-0.0222
673.2587	-0.0039
673.4427	-0.0201
673.6267	-0.0222
673.8107	-0.0047
673.9947	0.0043
674.1787	-0.0057
674.3626	-0.0086
674.5465	0.0021
674.7304	-0.0428
674.9143	-0.0018
675.0982	-0.0046
675.2821	0.0056
675.4659	-0.0246
675.6497	-0.0052
675.8335	-0.0078
676.0173	0.0179
676.2011	-0.0195
676.3849	0.0087
676.5686	-0.0113
676.7523	0.0267
676.936	-0.032
677.1197	0.0113
677.3034	0.009
677.487	0.002
677.6706	-0.0004
677.8542	-0.006
678.0378	-0.0045
678.2214	0.0079
678.405	0.0021
678.5885	-0.0077
678.772	0.0065
678.9555	0.0166
679.139	-0.0095
679.3225	-0.0148
679.5059	0.0067
679.6894	-0.0149
679.8728	-0.0119
680.0562	0.0073
680.2395	0.0003
680.4229	-0.0213
680.6062	-0.0068
680.7896	-0.003
680.9729	-0.0025
681.1562	-0.0111
681.3394	-0.0018
681.5227	0.0028
681.7059	-0.0116
681.8891	0.0025
682.0723	-0.0045
682.2555	0.001
682.4387	0.006
682.6218	-0.0096
682.805	-0.0204
682.9881	0.0001
683.1712	0.0071
683.3542	-0.0281
683.5373	0.0156
683.7203	-0.0058
683.9034	0.0065
684.0864	-0.0126
684.2694	0.0012
684.4523	0.0066
684.6353	-0.0063
684.8182	-0.0096
685.0011	-0.0116
685.184	-0.0016
685.3669	-0.0026
685.5498	0.0124
685.7326	-0.0087
685.9154	-0.0198
686.0982	0.0216
686.281	-0.0048
686.4638	-0.0074
686.6465	-0.0066
686.8293	-0.0066
687.012	-0.0116
687.1947	0.0065
687.3774	-0.002
687.56	-0.0125
687.7427	-0.0055
687.9253	-0.0002
688.1079	0.0018
688.2905	0.0056
688.4731	0.013
688.6556	0.0038
688.8382	-0.0048
689.0207	-0.013
689.2032	-0.0225
689.3857	0.0074
689.5681	-0.0098
689.7506	-0.0215
689.933	0.0135
690.1154	-0.0106
690.2978	-0.0108
690.4802	-0.0029
690.6626	-0.0065
690.8449	-0.0152
691.0272	-0.0203
691.2095	-0.0317
691.3918	-0.0061
691.5741	0.0026
691.7563	-0.0039
691.9386	0.0054
692.1208	-0.0163
692.303	-0.0032
692.4852	-0.0011
692.6673	-0.0075
692.8495	-0.0266
693.0316	-0.0138
693.2137	0.0316
693.3958	0.0158
693.5778	-0.0151
693.7599	0.0051
693.9419	0.0168
694.1239	-0.0248
694.3059	-0.0209
694.4879	-0.0307
694.6699	0.0144
694.8518	0.018
695.0337	-0.0013
695.2157	-0.0305
695.3975	0.0049
695.5794	-0.0206
695.7613	0.0198
695.9431	-0.0091
696.1249	-0.0104
696.3067	0.0006
696.4885	-0.0085
696.6703	-0.0024
696.852	-0.0083
697.0337	-0.0127
697.2154	0.019
697.3971	0.0184
697.5788	0.0203
697.7605	-0.0092
697.9421	-0.0035
698.1237	0.0021
698.3053	0.0103
698.4869	-0.0104
698.6685	0.0004
698.85	0.0024
699.0315	-0.0126
699.213	-0.0006
699.3945	0.0287
699.576	0.0019
699.7575	-0.0127
699.9389	-0.0365
700.1203	-0.004
700.3017	-0.0226
700.4831	0.0123
700.6645	0.0009
700.8458	0.0083
701.0271	0.0001
701.2084	-0.0117
701.3897	0.0032
701.571	0.0076
701.7523	-0.0127
701.9335	0.0073
702.1147	0.0164
702.2959	0.0142
702.4771	0.0041
702.6583	-0.022
702.8394	-0.0116
703.0205	0.0029
703.2016	0.0056
703.3827	0.0019
703.5638	-0.0053
703.7449	-0.02
703.9259	-0.0099
704.1069	0.0204
704.2879	0.0056
704.4689	-0.017
704.6499	-0.0325
704.8308	0.0163
705.0117	-0.0132
705.1927	0.0001
705.3735	0.0134
705.5544	0.0029
705.7353	0.0199
705.9161	0.0033
706.0969	-0.0061
706.2777	0.0149
706.4585	-0.0019
706.6393	-0.0179
706.82	-0.0055
707.0007	-0.0165
707.1815	0.0009
707.3621	-0.0042
707.5428	0.0179
707.7235	0.0251
707.9041	-0.0124
708.0847	0.0102
708.2653	-0.014
708.4459	0.0077
708.6265	-0.037
708.807	0.0171
708.9875	-0.0165
709.168	-0.0027
709.3485	-0.0045
709.529	0.0101
709.7095	-0.018
709.8899	0.0305
710.0703	0.0056
710.2507	-0.0034
710.4311	-0.0002
710.6115	-0.0081
710.7918	-0.0175
710.9721	-0.0235
711.1524	-0.0073
711.3327	-0.0309
711.513	0.0232
711.6932	-0.0186
711.8735	0.0056
712.0537	-0.0108
712.2339	-0.0189
712.4141	0.0197
712.5942	-0.0035
712.7744	0.0116
712.9545	-0.0087
713.1346	0.0183
713.3147	0.0061
713.4947	-0.0033
713.6748	-0.0057
713.8548	0.0004
714.0348	0.0186
714.2148	-0.0138
714.3948	-0.0055
714.5748	-0.0151
714.7547	-0.015
714.9346	-0.0027
715.1145	0.0011
715.2944	-0.0003
715.4743	-0.0087
715.6541	-0.0257
715.834	0.0317
716.0138	0.0228
716.1936	-0.0197
716.3733	-0.0029
716.5531	-0.0172
716.7328	-0.0362
716.9126	-0.0302
717.0923	0.0418
717.2719	-0.0237
717.4516	-0.0219
717.6312	-0.0394
717.8109	0.0114
717.9905	0.0078
718.1701	-0.0229
718.3496	0.0129
718.5292	-0.0194
718.7087	0.0275
718.8882	0.0094
719.0677	-0.0553
719.2472	0.0202
719.4267	0.0107
719.6061	-0.0079
719.7856	0.0036
719.965	-0.0122
720.1443	-0.0058
720.3237	0.0136
720.5031	0.005
720.6824	-0.0124
720.8617	-0.0007
721.041	-0.0137
721.2203	-0.0154
721.3995	-0.025
721.5788	-0.0202
721.758	-0.0082
721.9372	0.0151
722.1164	-0.0176
722.2956	-0.0068
722.4747	0.0001
722.6538	0.0157
722.8329	-0.0228
723.012	0.0113
723.1911	0.0142
723.3702	-0.0193
723.5492	-0.0308
723.7282	0.0031
723.9072	-0.0018
724.0862	-0.0017
724.2652	-0.0182
724.4441	0.0205
724.623	-0.0317
724.8019	-0.0258
724.9808	-0.0143
725.1597	-0.0113
725.3385	-0.0247
725.5174	0.0278
725.6962	0.0185
725.875	-0.0143
726.0538	0.0008
726.2325	0.0023
726.4112	0.0008
726.59	0.0539
726.7687	0.0013
726.9474	0.0069
727.126	-0.0309
727.3047	-0.0174
727.4833	0.0379
727.6619	0.0286
727.8405	0.0109
728.0191	-0.049
728.1976	-0.0357
728.3762	-0.0195
728.5547	-0.0021
728.7332	-0.007
728.9116	-0.0345
729.0901	-0.0046
729.2686	-0.0291
729.447	-0.024
729.6254	-0.0015
729.8038	-0.0063
729.9821	-0.0014
730.1605	-0.0115
730.3388	-0.0013
730.5171	-0.021
730.6954	0.0132
730.8737	0.0126
731.0519	0.0056
731.2302	-0.0079
731.4084	0.0006
731.5866	-0.0343
731.7648	-0.0015
731.9429	-0.0273
732.1211	-0.0236
732.2992	0.0043
732.4773	-0.0111
732.6554	-0.0083
732.8335	0.0098
733.0115	-0.0101
733.1896	-0.0181
733.3676	-0.0048
733.5456	-0.0082
733.7235	0.0108
733.9015	0.0099
734.0794	-0.0076
734.2574	-0.0083
734.4353	-0.0223
734.6131	0.0111
734.791	0.0059
734.9689	0.0133
735.1467	-0.0264
735.3245	0.0194
735.5023	0.0039
735.68	-0.0136
735.8578	-0.0121
736.0355	0.0034
736.2132	-0.0082
736.3909	-0.0198
736.5686	0.0033
736.7463	-0.0063
736.9239	-0.0211
737.1015	-0.0321
737.2791	-0.0291
737.4567	-0.001
737.6343	-0.0078
737.8118	-0.0155
737.9894	-0.0108
738.1669	0.0038
738.3444	0.0026
738.5218	-0.0016
738.6993	-0.0015
738.8767	-0.0043
739.0541	0.0098
739.2315	-0.0034
739.4089	-0.0064
739.5863	0.0111
739.7636	0.0049
739.9409	-0.0129
740.1182	-0.0181
740.2955	-0.0301
740.4728	0.0227
740.65	0.0011
740.8272	-0.0338
741.0044	0.0374
741.1816	-0.0061
741.3588	-0.01
741.5359	-0.0153
741.7131	0.0018
741.8902	-0.0203
742.0673	-0.0026
742.2444	-0.0084
742.4214	-0.0408
742.5985	-0.0069
742.7755	-0.0413
742.9525	0.0182
743.1295	-0.0442
743.3064	0.0203
743.4834	-0.0144
743.6603	-0.0095
743.8372	0.0001
744.0141	0.0043
744.191	-0.0329
744.3678	-0.0071
744.5446	-0.0012
744.7215	-0.0177
744.8982	0.0068
745.075	-0.0166
745.2518	-0.0154
745.4285	-0.0182
745.6052	0.0028
745.7819	-0.0357
745.9586	0.0051
746.1353	-0.0143
746.3119	-0.0334
746.4885	-0.0044
746.6651	-0.0194
746.8417	-0.0293
747.0183	-0.0083
747.1948	-0.0071
747.3714	-0.0083
747.5479	-0.0197
747.7244	-0.0618
747.9008	0.0298
748.0773	0.0332
748.2537	0.0171
748.4301	0.0221
748.6065	-0.0416
748.7829	0.0017
748.9593	0.002
749.1356	-0.0152
749.3119	-0.0132
749.4882	-0.0024
749.6645	0.0195
749.8408	-0.0142
750.017	-0.0041
750.1933	0.0016
750.3695	0.0232
750.5457	-0.0121
750.7218	0.0111
750.898	-0.0193
751.0741	0.0091
751.2502	-0.0012
751.4263	-0.0083
751.6024	0.0199
751.7784	-0.0331
751.9545	-0.0432
752.1305	-0.0155
752.3065	0.0165
752.4825	-0.0401
752.6584	-0.0191
752.8344	0.0138
753.0103	-0.0314
753.1862	-0.0098
753.3621	0.0059
753.5379	-0.0318
753.7138	-0.017
753.8896	0.0353
754.0654	-0.0057
754.2412	0.0098
754.417	-0.0119
754.5927	-0.007
754.7685	-0.0125
754.9442	0.0063
755.1199	-0.0008
755.2956	-0.0099
755.4712	-0.0064
755.6469	-0.014
755.8225	0.006
755.9981	-0.0094
756.1736	0.0195
756.3492	-0.0191
756.5248	-0.0046
756.7003	-0.0185
756.8758	0.0007
757.0513	-0.0155
757.2267	-0.0096
757.4022	-0.0134
757.5776	-0.0257
757.753	-0.0045
757.9284	-0.0041
758.1038	-0.0141
758.2791	-0.0099
758.4545	-0.0211
758.6298	-0.0257
758.8051	-0.0028
758.9803	-0.0139
759.1556	-0.0296
759.3308	-0.0094
759.506	0.0003
759.6812	-0.0129
759.8564	-0.0179
760.0316	-0.0073
760.2067	-0.0256
760.3819	-0.0051
760.557	-0.0095
760.732	0.0058
760.9071	-0.0258
761.0821	-0.0023
761.2572	-0.0064
761.4322	-0.0402
761.6072	-0.009
761.7821	0.0072
761.9571	-0.0059
762.132	-0.0035
762.3069	-0.0167
762.4818	0.0025
762.6567	-0.0021
762.8316	0.007
763.0064	-0.0522
763.1812	-0.0286
763.356	-0.0363
763.5308	-0.0077
763.7055	-0.0083
763.8803	-0.0234
764.055	0.0061
764.2297	0.0049
764.4044	0.008
764.579	-0.0055
764.7537	-0.0232
764.9283	-0.0091
765.1029	0.0014
765.2775	-0.0246
765.4521	-0.0064
765.6266	-0.0218
765.8011	-0.0298
765.9756	0.0005
766.1501	0.0083
766.3246	-0.0037
766.4991	-0.0086
766.6735	0.0145
766.8479	-0.0211
767.0223	0.0141
767.1967	-0.0252
767.371	0.0189
767.5454	0.004
767.7197	-0.0125
767.894	-0.0193
768.0683	-0.0109
768.2425	-0.012
768.4168	0.0246
768.591	0.016
768.7652	-0.0181
768.9394	-0.0019
769.1135	-0.0263
769.2877	-0.0029
769.4618	-0.0046
769.6359	-0.0029
769.81	-0.0212
769.984	-0.0111
770.1581	0.0158
770.3321	-0.0127
770.5061	0.0029
770.6801	-0.0072
770.8541	-0.0344
771.028	-0.0039
771.202	-0.0596
771.3759	-0.0152
771.5498	-0.0138
771.7236	0.0177
771.8975	-0.0244
772.0713	0.0064
772.2451	0.0152
772.4189	-0.0004
772.5927	0.0047
772.7665	0.0212
772.9402	0.0132
773.1139	-0.001
773.2876	-0.0032
773.4613	0.0031
773.635	-0.0194
773.8086	-0.0155
773.9822	0.0027
774.1558	-0.0062
774.3294	-0.0662
774.503	-0.0033
774.6765	0.0401
774.8501	-0.0212
775.0236	0.0002
775.1971	-0.0037
775.3705	0.0434
775.544	-0.0365
775.7174	-0.0192
775.8908	0.0299
776.0642	-0.0057
776.2376	-0.0496
776.4109	0.0515
776.5843	-0.0276
776.7576	-0.0108
776.9309	0.0336
777.1041	-0.0104
777.2774	0.0112
777.4506	-0.0444
777.6238	-0.0057
777.797	-0.0168
777.9702	0.0258
778.1434	0.0176
778.3165	0.0069
778.4896	-0.0092
778.6627	0.0122
778.8358	-0.0314
779.0089	-0.0143
779.1819	-0.0101
779.3549	-0.0049
779.5279	-0.022
779.7009	-0.0168
779.8739	-0.0303
780.0468	0.0215
780.2197	-0.0368
780.3926	-0.0058
780.5655	-0.0246
780.7384	0.0017
780.9112	0.0212
781.0841	-0.0106
781.2569	-0.0212
781.4297	0.0283
781.6024	0.005
781.7752	-0.0094
781.9479	-0.0342
782.1206	0.022
782.2933	-0.0454
782.466	0.0178
782.6386	0.0271
782.8113	-0.0227
782.9839	0.0019
783.1565	-0.0321
783.329	0.0047
783.5016	-0.0117
783.6741	-0.003
783.8466	-0.0622
784.0191	-0.0148
784.1916	-0.0188
784.3641	-0.0854
784.5365	0.0046
784.7089	0.031
784.8813	0.0099
785.0537	-0.0261
785.2261	-0.0006
785.3984	-0.0042
785.5707	0.0181
785.743	-0.0514
785.9153	0.0199
786.0876	-0.0328
786.2598	0.0119
786.432	0.0127
786.6042	0.0732
786.7764	-0.0099
786.9486	0.0083
787.1207	0.0151
787.2928	-0.0029
787.4649	-0.0143
787.637	0.01
787.8091	-0.0201
787.9811	-0.0045
788.1532	0.0013
788.3252	-0.015
788.4972	-0.0445
788.6691	0.0035
788.8411	0.0141
789.013	-0.0303
789.1849	-0.041
789.3568	-0.0248
789.5287	-0.0341
789.7005	0.0277
789.8723	-0.0396
790.0442	-0.0196
790.2159	0.0022
790.3877	0.0125
790.5595	0.0273
790.7312	-0.0264
790.9029	-0.0088
791.0746	0.0331
791.2463	-0.0325
791.4179	-0.0717
791.5896	-0.0673
791.7612	-0.0258
791.9328	-0.0401
792.1044	-0.0095
792.2759	0.0702
792.4474	-0.0369
792.619	0.0044
792.7905	-0.0163
792.9619	0.0417
793.1334	-0.0345
793.3048	-0.025
793.4762	-0.0305
793.6476	-0.0162
793.819	-0.0619
793.9904	-0.0159
794.1617	0.015
794.333	-0.0289
794.5043	-0.0133
794.6756	0.0125
794.8469	0.0136
795.0181	0.0062
795.1893	-0.0235
795.3605	-0.0544
795.5317	0.0337
795.7029	0.0141
795.874	-0.0327
796.0452	-0.0181
796.2163	0.0403
796.3873	-0.0159
796.5584	0.0167
796.7294	-0.1081
796.9005	-0.0767
797.0715	-0.0252
797.2425	-0.0052
797.4134	0.026
797.5844	-0.0201
797.7553	-0.0252
797.9262	0.0003
798.0971	-0.0716
798.2679	-0.0092
798.4388	-0.0781
798.6096	-0.0041
798.7804	0.0478
798.9512	-0.0149
799.122	0.0397
799.2927	-0.0444
799.4635	0.0096
799.6342	-0.0082
799.8049	-0.001
799.9755	-0.0092
800.1462	0.0224
800.3168	-0.0213
800.4874	0.0234
800.658	0.0381
800.8286	0.0179
800.9991	0.0199
801.1696	-0.0504
801.3402	-0.0872
801.5106	-0.0412
801.6811	0.0005
801.8516	0.0658
802.022	-0.0368
802.1924	-0.0571
802.3628	-0.0766
802.5332	-0.1305
802.7035	-0.0839
802.8739	-0.0032
803.0442	0.0645
803.2145	0.021
803.3847	-0.039
803.555	-0.0414
803.7252	0.0423
803.8954	0.0311
804.0656	0.0415
804.2358	-0.0515
804.4059	0.076
804.5761	0.0544
804.7462	-0.067
804.9163	-0.0673
805.0864	-0.031
805.2564	-0.0646
805.4264	-0.0748
805.5965	-0.007
805.7665	-0.0076
805.9364	-0.0753
806.1064	-0.0457
806.2763	0.016
806.4462	-0.018
806.6161	-0.022
806.786	0.0221
806.9559	-0.009
807.1257	-0.0548
807.2955	-0.0018
807.4653	-0.066
807.6351	-0.0038
807.8048	-0.095
807.9746	-0.0133
808.1443	0.0152
808.314	0.0749
808.4837	-0.0666
808.6533	0.0277
808.8229	-0.1399
808.9926	-0.0216
809.1622	0.0184
809.3317	-0.0265
809.5013	0.049
809.6708	0.0127
809.8403	0.0283
810.0098	0.1151
810.1793	0.01
810.3488	0.0208
810.5182	-0.018
810.6876	-0.0241
810.857	-0.1033
811.0264	-0.0737
811.1958	-0.0365
811.3651	-0.0921
811.5344	0.0159
811.7037	-0.0917
811.873	0.0859
812.0422	0.0373
812.2115	0.042
812.3807	-0.0271
812.5499	-0.0707
812.7191	-0.1139
812.8882	-0.0173
813.0574	-0.1738
813.2265	0.0672
813.3956	-0.0594
813.5646	0.0499
813.7337	-0.0586
813.9027	-0.0858
814.0718	-0.0074
814.2407	-0.1125
814.4097	-0.0245
814.5787	0.0169
814.7476	0.0297
814.9165	0.0334
815.0854	0.0314
815.2543	-0.0854
815.4232	-0.0889
815.592	-0.0065
815.7608	0.1552
815.9296	0.0117
816.0984	0.116
816.2671	-0.0591
816.4359	0.0594
816.6046	0.0234
816.7733	-0.0741
816.942	-0.0326
817.1106	-0.1968
817.2793	-0.0612
817.4479	0.0092
817.6165	0.0027
817.785	-0.033
817.9536	-0.0014
818.1221	0.0436
818.2906	0.0915
818.4591	-0.0653
818.6276	0.026
818.7961	-0.027
818.9645	0.0086
819.1329	0.1661
819.3013	-0.0944
819.4697	0.1972
819.638	0.0641
819.8064	-0.0683
819.9747	-0.0031
820.143	0.0112
820.3113	0.0617
820.4795	0.1102
820.6477	-0.0472
820.816	-0.0615
820.9842	-0.0296
821.1523	0.0703
821.3205	0.0119
821.4886	0.0267
821.6567	-0.0797
821.8248	-0.075
821.9929	0.0147
822.1609	-0.0532
822.329	-0.0296
822.497	-0.0687
822.665	-0.0164
822.833	-0.1227
823.0009	-0.0967
823.1688	0.2024
823.3367	-0.1826
823.5046	-0.0309
823.6725	0.0034
823.8404	0.0941
824.0082	0.0583
824.176	0.0699
824.3438	0.1029
824.5116	0.2
824.6793	-0.0366
824.847	0.1011
825.0147	-0.0812
825.1824	0.0041
825.3501	0.135
825.5177	-0.0799
825.6854	0.1754
825.853	-0.1066
826.0206	-0.0366
826.1881	-0.0225
826.3557	0.1536
826.5232	0.0817
826.6907	-0.0423
826.8582	0.0249
827.0257	-0.1617
827.1931	-0.0266
827.3605	-0.0677
827.528	-0.054
827.6953	0.0869
827.8627	-0.1159
828.03	-0.0049
828.1974	-0.0816
828.3647	0.0205
828.532	0.1483
828.6992	0.0937
828.8665	0.0298
829.0337	-0.1348
829.2009	0.1069
829.3681	0.0728
829.5352	0.1506
829.7024	-0.0744
829.8695	-0.1249
830.0366	0.1979
830.2037	0.0662
830.3707	0.0166
830.5378	0.1771
830.7048	-0.3147
830.8718	-0.0646
831.0388	0.0979
831.2057	-0.3625
831.3727	0.0577
831.5396	0.0577
831.7065	0.3403
831.8734	-0.448
832.0402	0.0253
832.2071	-0.1896
832.3739	0.0664
832.5407	-0
832.7075	0.2619
832.8742	0.0227
833.041	0.0476
833.2077	0.1932
833.3744	-0.0486
833.541	-0.1786
833.7077	-0.1203
833.8743	0.1155
834.0409	-0.1505
834.2075	0.0175
834.3741	0.0051
834.5407	-0.1587
834.7072	0.1652
834.8737	0.001
835.0402	-0.4937
835.2067	0.6474
835.3731	0.1388
835.5395	-0.006
835.706	-0.1501
835.8723	-0.1559
836.0387	0.1711
836.2051	-0.0324
836.3714	-0.2434
836.5377	0.0263
836.704	-0.0619
836.8703	-0.2573
837.0365	-0.0896
837.2027	-0.0175
837.3689	0.1779
837.5351	-0.0935
837.7013	0.5148
837.8674	-0.4856
838.0335	-0.032
838.1997	-0.0055
838.3657	-0
838.5318	0.9165
838.6978	-0.1305
838.8639	0.1392
839.0299	0.2857
839.1958	-0.1061
839.3618	-0
839.5277	-0.2107
839.6937	-0.5569
839.8596	0.0502
840.0254	0.1823
840.1913	0.6957
840.3571	-0.4646
840.523	0.0375
840.6888	-0.2066
840.8545	-0.2142
841.0203	0.095
841.186	-0.1017
841.3517	0.3066
841.5174	0.1173
841.6831	0.0449
841.8488	0.168
842.0144	0.3103
842.18	-0.1107
842.3456	0.365
842.5112	0.0852
842.6767	-0.2212
842.8422	-0.018
843.0077	0.0212
843.1732	0.5297
843.3387	0.7827
843.5042	-0.2507
843.6696	-0.4353
843.835	-0.4136
844.0004	-0.1017
844.1657	-0
844.3311	-0.3743
844.4964	0.3151
844.6617	-0.1107
844.827	0.2709
844.9923	-0.0509
845.1575	-0
845.3227	0.2136
845.4879	0.2577
845.6531	0.0204
845.8183	0.2212
845.9834	-0.5459
846.1485	-0.2274
846.3136	0.2667
846.4787	-0.104
846.6438	0.3023
846.8088	-0
846.9738	-0.1557
847.1388	0.329
847.3038	-0.3462
847.4687	-0
847.6337	0.3807
847.7986	0.0294
847.9635	-0.0087
848.1284	0.0134
848.2932	-0.0449
848.458	0.0969
848.6228	0.3487
848.7876	0.4535
848.9524	-0.2151
849.1172	-0.1359
849.2819	-0
849.4466	0.1903
849.6113	0.1794
849.7759	0.5776
849.9406	0.0875
850.1052	-0.1788
850.2698	-0.9823
850.4344	-0.1405
850.599	0.1055
850.7635	-0.1808
850.928	0.4069
851.0925	-0.1397
851.257	-0.5405
851.4215	-0
851.5859	0.1565
851.7503	-0
851.9147	-0
852.0791	-0.5115
852.2434	-0.0964
852.4078	-0
852.5721	0.3407
852.7364	0.1451
852.9007	-0.2614
853.0649	-0.1391
853.2291	0.152
853.3934	0.6045
853.5575	-0.1932
853.7217	-0.2159
853.8859	0.1651
854.05	-0.7422
854.2141	-0
854.3782	0.2109
854.5423	-0
854.7063	-0.0947
854.8703	0.1059
855.0343	0.0139
855.1983	-0.1356
855.3623	-0.0438
855.5262	-0.484
855.6901	0.3375
855.854	0.0485
856.0179	-0
856.1818	-0
856.3456	-0.0256
856.5094	-0
856.6732	0.0822
856.837	0.7915
857.0008	-0
857.1645	-0
857.3282	0.4801
857.4919	-0.1416
857.6556	0.5612
857.8192	-0.2081
857.9828	-0.0676
858.1465	0.3399
858.31	-1.4674
858.4736	-0.2307
858.6372	-0.1627
858.8007	-1.5772
858.9642	0.3533
859.1277	-0.2246
859.2911	1.2652
859.4546	14.1621
859.618	-0.3271
859.7814	-0.3349
859.9448	-0.1322
860.1081	-0
860.2715	-0.6301
860.4348	0.2461
860.5981	-0
860.7614	0.0512
860.9246	-0.151
861.0879	-0.2264
861.2511	-0
861.4143	14.2007
861.5774	0.0399
861.7406	-0.028
861.9037	0.5593
862.0668	13.57
862.2299	-1.9823
862.393	-0.0047
862.556	-0.5721
862.7191	0.5785
862.8821	-0.1923
863.0451	0.1143
863.208	-0.459
863.371	-0
863.5339	-0.1829
863.6968	-0.2736
863.8597	-0
864.0225	0.1669
864.1854	-0
864.3482	0.0598
864.511	-0.0345
864.6737	-0.2499
864.8365	0.2831
864.9992	-0
865.1619	-0.1304
865.3246	-0.1516
865.4873	-0
865.65	-0
865.8126	-0.1029
865.9752	-0.0601
866.1378	-0.7629
866.3004	-0
866.4629	0.1729
866.6254	-0
866.7879	0.6907
866.9504	-0.2536
867.1129	-0.0841
867.2753	-0.1567
867.4377	0.3027
867.6001	-0.0106
867.7625	0.1355
867.9249	0.769
868.0872	-0
868.2495	0.307
868.4118	0.1821
868.5741	-0.6398
868.7363	0.2321
868.8986	-0
869.0608	-0
869.223	0.1067
869.3851	-0
869.5473	-1.0095
869.7094	-0
869.8715	0.4649
870.0336	0.1938
870.1957	-0.1627
870.3577	-0
870.5197	-0.0068
870.6817	-0
870.8437	0.9959
871.0057	-0
871.1676	0.1208
871.3295	0.2965
871.4914	-0.3877
871.6533	-0.0039
871.8151	-0.7136
871.977	0.2956
872.1388	-1.1694
872.3006	0.1465
872.4623	-0
872.6241	-1.9445
872.7858	-0.1521
872.9475	-0
873.1092	0.1318
873.2709	0.4224
873.4325	-0
873.5941	-0.8103
873.7557	-0
873.9173	-0.6726
874.0789	0.4794
874.2404	-0.7855
874.4019	0.1186
874.5634	-0.0991
874.7249	0.273
874.8863	-0.4382
875.0478	-0.0898
875.2092	-0
875.3706	-0.1668
875.5319	-0
875.6933	0.1012
875.8546	0.0098
876.0159	0.2583
876.1772	-0
876.3385	-0.6292
876.4997	0.043
876.6609	-0.3259
876.8221	0.1099
876.9833	-0
877.1445	0.3577
877.3056	-0
877.4667	-1.2648
877.6278	1.1222
877.7889	-0.2613
877.9499	-0
878.111	-0.0124
878.272	-0.9523
878.433	-0.4372
878.5939	0.1863
878.7549	-0
878.9158	-0.6892
879.0767	-0
879.2376	-0.3291
879.3984	-0.2947
879.5593	-0.0158
879.7201	-0.362
879.8809	0.9358
880.0417	0.1422
880.2024	0.1736
880.3632	0.7033
880.5239	-0.0132
880.6846	0.489
880.8452	-0
881.0059	0.2109
881.1665	-0
881.3271	-0
881.4877	-0.0986
881.6483	-0
881.8088	-0.4235
881.9693	-0
882.1298	-0
882.2903	-0
