Data from D4ACN5uM480nmA_Absorbance_12-08-00-985.txt Node
Date: Fri Feb 21 12:08:00 GMT 2025
User: LASERRRRR
Spectrometer: FLMT03099
Trigger mode: 0
Integration Time (sec): 1.500000E-2
Scans to average: 1
Electric dark correction enabled: true
Nonlinearity correction enabled: false
Boxcar width: 0
XAxis mode: Wavelengths
Number of Pixels in Spectrum: 3648
>>>>>Begin Spectral Data<<<<<
179.3399	-0.2284
179.5586	-0.2284
179.7771	-0.2284
179.9957	0.3419
180.2143	0.0053
180.4329	0.1782
180.6514	-0
180.8699	0.5768
181.0885	0.6145
181.307	0.4407
181.5255	-0.1063
181.744	-0
181.9625	1.4833
182.181	1.8751
182.3994	-0
182.6179	-0
182.8363	0.0885
183.0547	-0
183.2732	0.3953
183.4916	0.4254
183.71	0.3442
183.9284	0.0726
184.1467	-0.0375
184.3651	0.3162
184.5835	0.0619
184.8018	0.0257
185.0201	0.1538
185.2385	0.1787
185.4568	0.3532
185.6751	0.1416
185.8934	0.2021
186.1117	-0.0684
186.3299	0.247
186.5482	0.296
186.7664	0.3768
186.9847	0.2215
187.2029	0.4251
187.4211	0.2861
187.6393	0.3187
187.8575	0.0245
188.0757	0.34
188.2939	0.1101
188.512	-0.0041
188.7302	0.0638
188.9483	0.7353
189.1665	0.288
189.3846	0.0968
189.6027	0.0608
189.8208	0.5407
190.0389	0.1848
190.257	0.0451
190.475	0.3482
190.6931	0.1354
190.9111	0.5654
191.1292	0.242
191.3472	0.1658
191.5652	0.6654
191.7832	0.2864
192.0012	0.2976
192.2192	0.213
192.4371	0.357
192.6551	0.3187
192.873	0.4256
193.091	0.3815
193.3089	0.2139
193.5268	0.4935
193.7447	0.4251
193.9626	0.2715
194.1805	0.2028
194.3984	0.3176
194.6162	0.3594
194.8341	0.928
195.0519	0.4869
195.2697	0.5072
195.4875	0.7532
195.7054	0.3977
195.9231	0.4892
196.1409	0.5609
196.3587	0.543
196.5765	0.4279
196.7942	0.6725
197.012	0.497
197.2297	0.5073
197.4474	0.6775
197.6651	0.4709
197.8828	0.5268
198.1005	0.5679
198.3182	0.569
198.5358	0.6146
198.7535	0.5018
198.9711	0.5414
199.1888	0.6479
199.4064	0.5662
199.624	0.5762
199.8416	0.5511
200.0592	0.5653
200.2767	0.6244
200.4943	0.621
200.7119	0.6159
200.9294	0.5431
201.1469	0.5957
201.3645	0.5814
201.582	0.5081
201.7995	0.5848
202.017	0.5272
202.2344	0.563
202.4519	0.5417
202.6694	0.6377
202.8868	0.5111
203.1042	0.5482
203.3217	0.4915
203.5391	0.4909
203.7565	0.4965
203.9739	0.5095
204.1913	0.5235
204.4086	0.481
204.626	0.501
204.8433	0.4937
205.0607	0.5241
205.278	0.5175
205.4953	0.4475
205.7126	0.4738
205.9299	0.448
206.1472	0.4654
206.3644	0.512
206.5817	0.4598
206.7989	0.5027
207.0162	0.4311
207.2334	0.4391
207.4506	0.4417
207.6678	0.4707
207.885	0.4327
208.1022	0.443
208.3194	0.398
208.5365	0.4411
208.7537	0.451
208.9708	0.4222
209.1879	0.427
209.405	0.3924
209.6222	0.405
209.8392	0.4147
210.0563	0.4088
210.2734	0.4034
210.4905	0.4329
210.7075	0.4554
210.9245	0.3942
211.1416	0.4119
211.3586	0.3847
211.5756	0.4234
211.7926	0.4173
212.0096	0.3834
212.2265	0.4112
212.4435	0.4178
212.6604	0.4075
212.8774	0.3895
213.0943	0.4216
213.3112	0.4155
213.5281	0.4182
213.745	0.4019
213.9619	0.3936
214.1788	0.396
214.3956	0.3916
214.6125	0.3824
214.8293	0.4119
215.0461	0.4052
215.2629	0.3955
215.4798	0.3785
215.6965	0.3868
215.9133	0.3955
216.1301	0.4041
216.3469	0.4095
216.5636	0.4018
216.7803	0.4235
216.9971	0.4178
217.2138	0.405
217.4305	0.4186
217.6472	0.4218
217.8639	0.4087
218.0805	0.4178
218.2972	0.4098
218.5138	0.4146
218.7305	0.4095
218.9471	0.3995
219.1637	0.4118
219.3803	0.4002
219.5969	0.4033
219.8135	0.4337
220.0301	0.4012
220.2466	0.4196
220.4632	0.4148
220.6797	0.4206
220.8962	0.4307
221.1127	0.4158
221.3292	0.4236
221.5457	0.4395
221.7622	0.4198
221.9787	0.4522
222.1951	0.4439
222.4116	0.4404
222.628	0.4376
222.8444	0.4397
223.0608	0.442
223.2772	0.4428
223.4936	0.4349
223.71	0.4474
223.9264	0.4325
224.1427	0.4458
224.3591	0.4455
224.5754	0.4717
224.7917	0.4509
225.008	0.4492
225.2243	0.4756
225.4406	0.4595
225.6569	0.4551
225.8732	0.4532
226.0894	0.4699
226.3057	0.4595
226.5219	0.4666
226.7381	0.4524
226.9543	0.4764
227.1705	0.4691
227.3867	0.4906
227.6029	0.4686
227.8191	0.4858
228.0352	0.4984
228.2513	0.5033
228.4675	0.4668
228.6836	0.4976
228.8997	0.4829
229.1158	0.4847
229.3319	0.4928
229.548	0.4919
229.764	0.4896
229.9801	0.4956
230.1961	0.5106
230.4121	0.5066
230.6282	0.5073
230.8442	0.508
231.0602	0.5179
231.2761	0.5105
231.4921	0.5101
231.7081	0.5144
231.924	0.5219
232.14	0.5246
232.3559	0.5337
232.5718	0.5215
232.7877	0.528
233.0036	0.5065
233.2195	0.5276
233.4353	0.5406
233.6512	0.5226
233.867	0.5388
234.0829	0.5246
234.2987	0.5286
234.5145	0.5414
234.7303	0.5186
234.9461	0.5233
235.1619	0.5215
235.3776	0.5294
235.5934	0.5222
235.8091	0.5143
236.0249	0.5289
236.2406	0.535
236.4563	0.5429
236.672	0.5362
236.8877	0.5426
237.1034	0.5298
237.319	0.529
237.5347	0.5218
237.7503	0.5352
237.966	0.5412
238.1816	0.5264
238.3972	0.5396
238.6128	0.548
238.8284	0.531
239.0439	0.526
239.2595	0.5229
239.475	0.542
239.6906	0.53
239.9061	0.5142
240.1216	0.5294
240.3371	0.5144
240.5526	0.5179
240.7681	0.5266
240.9836	0.5115
241.199	0.5139
241.4145	0.4958
241.6299	0.4855
241.8453	0.4887
242.0607	0.4803
242.2761	0.4752
242.4915	0.4712
242.7069	0.4678
242.9223	0.4601
243.1376	0.4481
243.353	0.4471
243.5683	0.436
243.7836	0.4156
243.9989	0.4166
244.2142	0.4193
244.4295	0.4014
244.6448	0.3901
244.86	0.3863
245.0753	0.3742
245.2905	0.3726
245.5057	0.3705
245.721	0.3543
245.9362	0.3523
246.1514	0.337
246.3665	0.3384
246.5817	0.3336
246.7969	0.3222
247.012	0.3242
247.2271	0.308
247.4423	0.3098
247.6574	0.3033
247.8725	0.3012
248.0876	0.2929
248.3026	0.2854
248.5177	0.2808
248.7328	0.2798
248.9478	0.2746
249.1628	0.2647
249.3779	0.2569
249.5929	0.2554
249.8079	0.2568
250.0228	0.2553
250.2378	0.2534
250.4528	0.2517
250.6677	0.241
250.8827	0.2373
251.0976	0.236
251.3125	0.2298
251.5274	0.2337
251.7423	0.2301
251.9572	0.2193
252.172	0.2241
252.3869	0.22
252.6017	0.2175
252.8166	0.2181
253.0314	0.2144
253.2462	0.2099
253.461	0.2121
253.6758	0.2093
253.8906	0.2038
254.1053	0.2037
254.3201	0.2005
254.5348	0.2055
254.7496	0.2051
254.9643	0.2069
255.179	0.1982
255.3937	0.1951
255.6083	0.1958
255.823	0.1988
256.0377	0.2005
256.2523	0.1909
256.467	0.1976
256.6816	0.2004
256.8962	0.1921
257.1108	0.1899
257.3254	0.1876
257.54	0.1926
257.7545	0.1899
257.9691	0.1922
258.1836	0.1865
258.3981	0.1856
258.6127	0.1831
258.8272	0.1846
259.0417	0.1792
259.2561	0.1868
259.4706	0.1885
259.6851	0.1806
259.8995	0.1828
260.114	0.1824
260.3284	0.1863
260.5428	0.1788
260.7572	0.1847
260.9716	0.1841
261.186	0.1786
261.4003	0.1826
261.6147	0.1819
261.829	0.1846
262.0433	0.1872
262.2577	0.1865
262.472	0.1889
262.6863	0.1878
262.9005	0.1877
263.1148	0.1831
263.3291	0.1875
263.5433	0.1829
263.7576	0.1807
263.9718	0.1823
264.186	0.1874
264.4002	0.1822
264.6144	0.192
264.8286	0.1833
265.0427	0.1917
265.2569	0.1854
265.471	0.1863
265.6851	0.1862
265.8993	0.1867
266.1134	0.1899
266.3275	0.1827
266.5415	0.1855
266.7556	0.1787
266.9697	0.1864
267.1837	0.1807
267.3978	0.1882
267.6118	0.1847
267.8258	0.1855
268.0398	0.1808
268.2538	0.1828
268.4677	0.1835
268.6817	0.1798
268.8957	0.1827
269.1096	0.1801
269.3235	0.1824
269.5374	0.1811
269.7514	0.1791
269.9652	0.1785
270.1791	0.1772
270.393	0.1848
270.6068	0.1743
270.8207	0.1778
271.0345	0.1747
271.2483	0.1734
271.4622	0.1764
271.676	0.1715
271.8897	0.1688
272.1035	0.1739
272.3173	0.1743
272.531	0.1695
272.7448	0.1654
272.9585	0.169
273.1722	0.1771
273.3859	0.1645
273.5996	0.1694
273.8133	0.1693
274.0269	0.1795
274.2406	0.1707
274.4542	0.1671
274.6679	0.1691
274.8815	0.1718
275.0951	0.1714
275.3087	0.1807
275.5223	0.1689
275.7358	0.1782
275.9494	0.169
276.1629	0.1775
276.3765	0.1717
276.59	0.1707
276.8035	0.1796
277.017	0.1777
277.2305	0.1786
277.444	0.1767
277.6574	0.1767
277.8709	0.1725
278.0843	0.1741
278.2978	0.1797
278.5112	0.182
278.7246	0.177
278.938	0.183
279.1513	0.1762
279.3647	0.1778
279.5781	0.1828
279.7914	0.178
280.0047	0.1777
280.2181	0.1819
280.4314	0.1815
280.6447	0.1847
280.8579	0.1764
281.0712	0.1818
281.2845	0.1878
281.4977	0.1855
281.711	0.1855
281.9242	0.1873
282.1374	0.1833
282.3506	0.1841
282.5638	0.1822
282.7769	0.1799
282.9901	0.1848
283.2033	0.1782
283.4164	0.1788
283.6295	0.1857
283.8426	0.1872
284.0557	0.1815
284.2688	0.1929
284.4819	0.194
284.695	0.1931
284.908	0.1916
285.1211	0.1905
285.3341	0.1924
285.5471	0.1918
285.7601	0.1918
285.9731	0.1919
286.1861	0.1904
286.3991	0.196
286.612	0.1903
286.825	0.1915
287.0379	0.194
287.2508	0.1908
287.4637	0.1971
287.6766	0.1916
287.8895	0.1886
288.1024	0.1951
288.3152	0.198
288.5281	0.1953
288.7409	0.1913
288.9538	0.1896
289.1666	0.1988
289.3794	0.1975
289.5922	0.1959
289.8049	0.2084
290.0177	0.2
290.2304	0.2011
290.4432	0.1995
290.6559	0.1909
290.8686	0.2001
291.0813	0.2008
291.294	0.204
291.5067	0.1997
291.7194	0.1947
291.932	0.1989
292.1447	0.1996
292.3573	0.2
292.5699	0.2053
292.7825	0.204
292.9951	0.1978
293.2077	0.1979
293.4203	0.2007
293.6328	0.1916
293.8454	0.1959
294.0579	0.2034
294.2704	0.2003
294.4829	0.2015
294.6954	0.2027
294.9079	0.206
295.1204	0.1992
295.3328	0.1986
295.5453	0.1987
295.7577	0.1929
295.9701	0.1984
296.1825	0.1952
296.3949	0.2045
296.6073	0.2094
296.8197	0.2027
297.0321	0.2052
297.2444	0.2002
297.4567	0.198
297.6691	0.2028
297.8814	0.203
298.0937	0.2012
298.306	0.2
298.5182	0.1988
298.7305	0.1972
298.9428	0.1995
299.155	0.1904
299.3672	0.2063
299.5794	0.1956
299.7916	0.1927
300.0038	0.1947
300.216	0.2026
300.4282	0.1992
300.6403	0.1934
300.8525	0.201
301.0646	0.1962
301.2767	0.1925
301.4888	0.1927
301.7009	0.1982
301.913	0.1993
302.125	0.1995
302.3371	0.1934
302.5491	0.2
302.7612	0.1969
302.9732	0.1926
303.1852	0.1958
303.3972	0.1939
303.6092	0.1981
303.8211	0.1866
304.0331	0.1896
304.245	0.1926
304.457	0.1956
304.6689	0.1954
304.8808	0.1909
305.0927	0.1938
305.3046	0.1836
305.5164	0.1861
305.7283	0.19
305.9401	0.1771
306.152	0.1821
306.3638	0.1802
306.5756	0.1842
306.7874	0.1748
306.9992	0.1798
307.2109	0.1729
307.4227	0.1688
307.6344	0.1785
307.8462	0.17
308.0579	0.1669
308.2696	0.1646
308.4813	0.1638
308.693	0.1637
308.9046	0.1644
309.1163	0.1547
309.328	0.1543
309.5396	0.1596
309.7512	0.1542
309.9628	0.152
310.1744	0.1545
310.386	0.1486
310.5976	0.1448
310.8091	0.1473
311.0207	0.1475
311.2322	0.1443
311.4437	0.1475
311.6552	0.149
311.8667	0.1383
312.0782	0.141
312.2897	0.1375
312.5012	0.1419
312.7126	0.1315
312.924	0.1363
313.1355	0.1297
313.3469	0.129
313.5583	0.1275
313.7696	0.1271
313.981	0.1261
314.1924	0.1285
314.4037	0.1235
314.6151	0.1281
314.8264	0.1235
315.0377	0.1301
315.249	0.1173
315.4603	0.1185
315.6716	0.1253
315.8828	0.1171
316.0941	0.1224
316.3053	0.1179
316.5165	0.1186
316.7277	0.1216
316.9389	0.1192
317.1501	0.1187
317.3613	0.1155
317.5724	0.1203
317.7836	0.1118
317.9947	0.1139
318.2058	0.1183
318.417	0.1119
318.6281	0.1191
318.8391	0.1106
319.0502	0.1149
319.2613	0.1172
319.4723	0.1206
319.6834	0.1149
319.8944	0.122
320.1054	0.1198
320.3164	0.1133
320.5274	0.1118
320.7383	0.1116
320.9493	0.1172
321.1602	0.1108
321.3712	0.1163
321.5821	0.1183
321.793	0.1171
322.0039	0.1123
322.2148	0.1132
322.4257	0.1181
322.6365	0.111
322.8474	0.1155
323.0582	0.1141
323.269	0.1124
323.4798	0.1109
323.6906	0.1171
323.9014	0.1134
324.1122	0.1132
324.3229	0.1198
324.5337	0.1215
324.7444	0.1202
324.9551	0.1193
325.1658	0.1169
325.3765	0.1141
325.5872	0.1149
325.7979	0.1178
326.0085	0.1168
326.2192	0.1149
326.4298	0.1244
326.6404	0.1223
326.851	0.1197
327.0616	0.1243
327.2722	0.1263
327.4828	0.1152
327.6933	0.1211
327.9039	0.1184
328.1144	0.1241
328.3249	0.12
328.5354	0.1198
328.7459	0.1157
328.9564	0.1194
329.1669	0.123
329.3773	0.1228
329.5878	0.1261
329.7982	0.1199
330.0086	0.1233
330.219	0.1227
330.4294	0.1234
330.6398	0.1273
330.8502	0.1196
331.0605	0.1253
331.2708	0.1277
331.4812	0.1247
331.6915	0.1194
331.9018	0.1219
332.1121	0.1309
332.3224	0.1261
332.5326	0.1285
332.7429	0.1215
332.9531	0.1238
333.1633	0.1256
333.3735	0.1188
333.5837	0.1236
333.7939	0.1235
334.0041	0.122
334.2143	0.1278
334.4244	0.1246
334.6346	0.1218
334.8447	0.1284
335.0548	0.1202
335.2649	0.1248
335.475	0.1242
335.685	0.1227
335.8951	0.1325
336.1051	0.1263
336.3152	0.1267
336.5252	0.1243
336.7352	0.1165
336.9452	0.1334
337.1552	0.1301
337.3652	0.121
337.5751	0.1265
337.7851	0.1273
337.995	0.1349
338.2049	0.13
338.4148	0.1301
338.6247	0.1321
338.8346	0.1275
339.0445	0.1308
339.2543	0.1363
339.4642	0.1318
339.674	0.1345
339.8838	0.127
340.0936	0.1368
340.3034	0.136
340.5132	0.1314
340.7229	0.1351
340.9327	0.1396
341.1424	0.1347
341.3522	0.1418
341.5619	0.13
341.7716	0.1372
341.9813	0.1437
342.1909	0.1363
342.4006	0.1472
342.6102	0.144
342.8199	0.1332
343.0295	0.1376
343.2391	0.1335
343.4487	0.146
343.6583	0.1463
343.8679	0.1425
344.0774	0.1385
344.287	0.1484
344.4965	0.1466
344.706	0.1447
344.9155	0.1468
345.125	0.1492
345.3345	0.1445
345.544	0.1419
345.7534	0.1476
345.9629	0.1485
346.1723	0.1505
346.3817	0.1492
346.5911	0.1504
346.8005	0.1517
347.0099	0.1566
347.2193	0.1409
347.4286	0.1542
347.638	0.1532
347.8473	0.1606
348.0566	0.1517
348.2659	0.1583
348.4752	0.159
348.6845	0.1668
348.8937	0.1549
349.103	0.1546
349.3122	0.1627
349.5214	0.1618
349.7306	0.1594
349.9398	0.1617
350.149	0.1668
350.3582	0.1598
350.5674	0.1718
350.7765	0.1651
350.9856	0.1639
351.1948	0.168
351.4039	0.1679
351.613	0.1747
351.822	0.1724
352.0311	0.1664
352.2402	0.1769
352.4492	0.1737
352.6582	0.1604
352.8672	0.1732
353.0762	0.1744
353.2852	0.1697
353.4942	0.1725
353.7032	0.1715
353.9121	0.1724
354.1211	0.1708
354.33	0.1771
354.5389	0.1831
354.7478	0.1773
354.9567	0.1775
355.1655	0.1765
355.3744	0.1798
355.5833	0.1815
355.7921	0.1735
356.0009	0.1749
356.2097	0.1847
356.4185	0.1874
356.6273	0.1803
356.8361	0.1888
357.0448	0.1876
357.2536	0.1851
357.4623	0.1853
357.671	0.1816
357.8797	0.1982
358.0884	0.1871
358.2971	0.1949
358.5057	0.1871
358.7144	0.195
358.923	0.1912
359.1316	0.1952
359.3402	0.1995
359.5488	0.1987
359.7574	0.1953
359.966	0.2017
360.1746	0.1961
360.3831	0.2086
360.5916	0.2021
360.8002	0.213
361.0087	0.2115
361.2172	0.2088
361.4256	0.1974
361.6341	0.2174
361.8426	0.2061
362.051	0.2085
362.2594	0.2122
362.4678	0.2168
362.6762	0.2131
362.8846	0.2167
363.093	0.2076
363.3014	0.2229
363.5097	0.2238
363.718	0.2252
363.9264	0.2201
364.1347	0.2273
364.343	0.2254
364.5513	0.2264
364.7595	0.2314
364.9678	0.2326
365.176	0.223
365.3842	0.24
365.5925	0.2278
365.8007	0.2324
366.0089	0.2384
366.217	0.2345
366.4252	0.2334
366.6333	0.2334
366.8415	0.2355
367.0496	0.2345
367.2577	0.2396
367.4658	0.2481
367.6739	0.2406
367.882	0.2445
368.09	0.2401
368.2981	0.2376
368.5061	0.2494
368.7141	0.2486
368.9221	0.2547
369.1301	0.2455
369.3381	0.258
369.5461	0.2548
369.754	0.2457
369.962	0.2607
370.1699	0.2546
370.3778	0.2623
370.5857	0.2686
370.7936	0.2633
371.0015	0.2477
371.2093	0.2624
371.4172	0.2586
371.625	0.2641
371.8328	0.275
372.0406	0.2641
372.2484	0.2488
372.4562	0.2579
372.664	0.264
372.8717	0.2662
373.0795	0.2693
373.2872	0.2761
373.4949	0.2775
373.7026	0.2788
373.9103	0.2657
374.118	0.2799
374.3256	0.2878
374.5333	0.2833
374.7409	0.2732
374.9485	0.2724
375.1561	0.2749
375.3637	0.2732
375.5713	0.2664
375.7789	0.2709
375.9864	0.281
376.194	0.2846
376.4015	0.2917
376.609	0.2865
376.8165	0.2852
377.024	0.2797
377.2315	0.2974
377.4389	0.2772
377.6464	0.2836
377.8538	0.2928
378.0612	0.2893
378.2686	0.2939
378.476	0.2875
378.6834	0.285
378.8908	0.2928
379.0981	0.2962
379.3055	0.2967
379.5128	0.2985
379.7201	0.2852
379.9274	0.2901
380.1347	0.3021
380.342	0.3028
380.5492	0.2993
380.7565	0.2931
380.9637	0.2972
381.1709	0.3009
381.3781	0.3016
381.5853	0.3091
381.7925	0.3077
381.9997	0.3092
382.2068	0.2976
382.4139	0.3079
382.6211	0.3149
382.8282	0.2991
383.0353	0.3053
383.2424	0.3104
383.4494	0.3135
383.6565	0.3118
383.8635	0.3244
384.0706	0.3113
384.2776	0.3225
384.4846	0.3082
384.6916	0.3051
384.8986	0.3123
385.1055	0.3194
385.3125	0.3084
385.5194	0.3105
385.7263	0.3079
385.9333	0.3144
386.1402	0.3183
386.347	0.3106
386.5539	0.3203
386.7608	0.3121
386.9676	0.3104
387.1744	0.3112
387.3813	0.3167
387.5881	0.3145
387.7948	0.314
388.0016	0.3084
388.2084	0.3079
388.4151	0.3023
388.6219	0.3031
388.8286	0.3035
389.0353	0.3094
389.242	0.311
389.4487	0.3108
389.6553	0.3048
389.862	0.3054
390.0686	0.3037
390.2753	0.3097
390.4819	0.3073
390.6885	0.3105
390.8951	0.3149
391.1016	0.3011
391.3082	0.3064
391.5147	0.3042
391.7213	0.2956
391.9278	0.2988
392.1343	0.2907
392.3408	0.2894
392.5473	0.2841
392.7537	0.289
392.9602	0.2895
393.1666	0.2922
393.373	0.2922
393.5794	0.2844
393.7858	0.2915
393.9922	0.2883
394.1986	0.2826
394.4049	0.2841
394.6113	0.2846
394.8176	0.2739
395.0239	0.276
395.2302	0.2738
395.4365	0.2789
395.6428	0.2743
395.8491	0.2785
396.0553	0.2674
396.2615	0.264
396.4678	0.2744
396.674	0.2735
396.8802	0.2688
397.0863	0.2654
397.2925	0.2676
397.4987	0.2649
397.7048	0.2703
397.9109	0.2725
398.117	0.2746
398.3231	0.2686
398.5292	0.2709
398.7353	0.2746
398.9413	0.2634
399.1474	0.2682
399.3534	0.2706
399.5594	0.2699
399.7654	0.2615
399.9714	0.2653
400.1774	0.2638
400.3833	0.2735
400.5893	0.2562
400.7952	0.2664
401.0011	0.2644
401.207	0.2701
401.4129	0.2649
401.6188	0.2576
401.8247	0.2698
402.0305	0.2575
402.2364	0.2669
402.4422	0.265
402.648	0.2727
402.8538	0.273
403.0596	0.2648
403.2654	0.2577
403.4711	0.2759
403.6768	0.2655
403.8826	0.2594
404.0883	0.2569
404.294	0.2736
404.4997	0.2616
404.7054	0.2676
404.911	0.2667
405.1167	0.2648
405.3223	0.2764
405.5279	0.2718
405.7335	0.2688
405.9391	0.2668
406.1447	0.2661
406.3502	0.2637
406.5558	0.2721
406.7613	0.2712
406.9668	0.2722
407.1724	0.2637
407.3778	0.255
407.5833	0.2638
407.7888	0.2649
407.9942	0.2586
408.1997	0.2673
408.4051	0.2637
408.6105	0.2683
408.8159	0.2698
409.0213	0.2701
409.2267	0.2649
409.432	0.2722
409.6374	0.268
409.8427	0.2779
410.048	0.2624
410.2533	0.2598
410.4586	0.2548
410.6639	0.2651
410.8691	0.2821
411.0744	0.2652
411.2796	0.2662
411.4848	0.2562
411.69	0.2678
411.8952	0.2601
412.1004	0.2729
412.3056	0.2606
412.5107	0.254
412.7158	0.2617
412.921	0.2601
413.1261	0.2685
413.3312	0.2559
413.5362	0.2632
413.7413	0.2687
413.9464	0.2667
414.1514	0.2582
414.3564	0.2574
414.5614	0.2665
414.7664	0.2555
414.9714	0.2629
415.1764	0.2638
415.3813	0.2518
415.5863	0.2631
415.7912	0.2572
415.9961	0.2528
416.201	0.2621
416.4059	0.2507
416.6108	0.2574
416.8156	0.2529
417.0205	0.2565
417.2253	0.2577
417.4301	0.2726
417.6349	0.2492
417.8397	0.26
418.0445	0.2692
418.2492	0.2614
418.454	0.2559
418.6587	0.255
418.8634	0.2524
419.0681	0.2414
419.2728	0.247
419.4775	0.2561
419.6822	0.2463
419.8868	0.2519
420.0915	0.2505
420.2961	0.2371
420.5007	0.2474
420.7053	0.2578
420.9099	0.2352
421.1144	0.239
421.319	0.2455
421.5235	0.2488
421.728	0.2375
421.9325	0.2522
422.137	0.2387
422.3415	0.2385
422.546	0.2362
422.7504	0.245
422.9549	0.2323
423.1593	0.2432
423.3637	0.2264
423.5681	0.2397
423.7725	0.229
423.9769	0.2335
424.1812	0.2344
424.3856	0.2326
424.5899	0.2368
424.7942	0.2297
424.9985	0.2337
425.2028	0.2307
425.4071	0.2153
425.6113	0.2195
425.8156	0.2151
426.0198	0.2205
426.224	0.2269
426.4282	0.2286
426.6324	0.2144
426.8366	0.2265
427.0407	0.222
427.2449	0.2137
427.449	0.218
427.6531	0.2127
427.8572	0.2129
428.0613	0.2074
428.2654	0.2123
428.4694	0.2052
428.6735	0.203
428.8775	0.2072
429.0815	0.2125
429.2855	0.2031
429.4895	0.2137
429.6935	0.1988
429.8975	0.2039
430.1014	0.1971
430.3053	0.1926
430.5093	0.192
430.7132	0.1963
430.9171	0.1974
431.1209	0.1958
431.3248	0.1836
431.5286	0.1741
431.7325	0.1814
431.9363	0.1841
432.1401	0.1845
432.3439	0.1696
432.5477	0.1778
432.7514	0.1719
432.9552	0.1718
433.1589	0.1898
433.3627	0.1732
433.5664	0.1731
433.7701	0.1668
433.9737	0.1643
434.1774	0.1634
434.3811	0.1657
434.5847	0.1619
434.7883	0.162
434.9919	0.1487
435.1955	0.1604
435.3991	0.1517
435.6027	0.1516
435.8062	0.1509
436.0098	0.15
436.2133	0.1481
436.4168	0.1482
436.6203	0.1346
436.8238	0.1414
437.0272	0.1396
437.2307	0.133
437.4341	0.1312
437.6375	0.1315
437.841	0.1295
438.0443	0.1356
438.2477	0.1308
438.4511	0.1347
438.6545	0.1324
438.8578	0.1293
439.0611	0.1276
439.2644	0.1118
439.4677	0.1224
439.671	0.1162
439.8743	0.1029
440.0775	0.1142
440.2808	0.1223
440.484	0.1069
440.6872	0.1033
440.8904	0.1043
441.0936	0.1164
441.2967	0.0974
441.4999	0.1115
441.703	0.1016
441.9062	0.0968
442.1093	0.0912
442.3124	0.1009
442.5155	0.09
442.7185	0.083
442.9216	0.0975
443.1246	0.0902
443.3276	0.0857
443.5307	0.0852
443.7337	0.0893
443.9366	0.0849
444.1396	0.0808
444.3426	0.0794
444.5455	0.0773
444.7484	0.0802
444.9513	0.087
445.1542	0.0765
445.3571	0.061
445.56	0.0766
445.7628	0.0721
445.9657	0.0786
446.1685	0.0721
446.3713	0.0687
446.5741	0.0603
446.7769	0.0722
446.9797	0.0662
447.1824	0.066
447.3852	0.0586
447.5879	0.0636
447.7906	0.0642
447.9933	0.0585
448.196	0.0489
448.3986	0.0528
448.6013	0.0529
448.8039	0.0593
449.0066	0.0534
449.2092	0.0493
449.4118	0.0568
449.6143	0.0497
449.8169	0.0559
450.0195	0.0488
450.222	0.0484
450.4245	0.0542
450.627	0.0475
450.8295	0.045
451.032	0.0424
451.2345	0.0337
451.4369	0.0486
451.6394	0.0473
451.8418	0.0494
452.0442	0.0336
452.2466	0.0445
452.449	0.0253
452.6513	0.0416
452.8537	0.0373
453.056	0.033
453.2583	0.0417
453.4607	0.0309
453.663	0.0321
453.8652	0.0347
454.0675	0.031
454.2697	0.0216
454.472	0.0365
454.6742	0.0215
454.8764	0.0281
455.0786	0.033
455.2808	0.0315
455.4829	0.0199
455.6851	0.0246
455.8872	0.0264
456.0893	0.0297
456.2915	0.0241
456.4935	0.0188
456.6956	0.0167
456.8977	0.0235
457.0997	0.0309
457.3018	0.0328
457.5038	0.0258
457.7058	0.0193
457.9078	0.0232
458.1098	0.0246
458.3117	0.0284
458.5137	0.0262
458.7156	0.0222
458.9175	0.0171
459.1194	0.0198
459.3213	0.022
459.5232	0.0065
459.725	0.0212
459.9269	0.0127
460.1287	0.0115
460.3305	0.0109
460.5323	0.0202
460.7341	0.0122
460.9359	0.0148
461.1376	0.0194
461.3394	0.0087
461.5411	0.0137
461.7428	0.0136
461.9445	0.0188
462.1462	0.0044
462.3479	0.0144
462.5495	0.014
462.7512	0.0135
462.9528	0.0122
463.1544	0.003
463.356	0.0116
463.5576	0.0082
463.7592	0.0086
463.9607	0.0087
464.1623	0.0121
464.3638	0.0076
464.5653	0.0131
464.7668	0.0163
464.9683	0.012
465.1697	0.0073
465.3712	0.0058
465.5726	0.0006
465.7741	0.0061
465.9755	0.013
466.1769	0.0067
466.3782	0.0096
466.5796	0.0006
466.7809	0.0195
466.9823	0.0024
467.1836	0.0173
467.3849	0.013
467.5862	0.0061
467.7875	0.0031
467.9887	0.0092
468.19	0.0087
468.3912	0.0089
468.5924	0.0029
468.7936	0.0021
468.9948	0.0043
469.196	0.0056
469.3972	0.0054
469.5983	0.0051
469.7994	-0.001
470.0006	0.0026
470.2017	0.0134
470.4027	0.006
470.6038	0.005
470.8049	-0.0018
471.0059	0.0082
471.2069	0.0074
471.408	0.0006
471.6089	0.0079
471.8099	0.0027
472.0109	-0
472.2119	0.0109
472.4128	0.0092
472.6137	0.0007
472.8146	0.0057
473.0155	0.0081
473.2164	-0.0054
473.4173	0.0091
473.6181	0.0086
473.819	0.0007
474.0198	0.0012
474.2206	-0.0021
474.4214	0.0076
474.6222	0.0043
474.8229	-0.0015
475.0237	0.0031
475.2244	0.0128
475.4251	-0.0052
475.6258	-0.002
475.8265	-0.0027
476.0272	0.0019
476.2278	0.0033
476.4285	-0.0039
476.6291	0.0129
476.8297	-0.0032
477.0303	0.0063
477.2309	-0.0045
477.4315	0.0143
477.632	0.0002
477.8326	-0.0001
478.0331	0.0029
478.2336	0.0138
478.4341	0.0002
478.6346	-0.0032
478.8351	0.0183
479.0355	0.0002
479.236	0.0027
479.4364	0.0027
479.6368	-0.0068
479.8372	0.0031
480.0376	0.0031
480.2379	-0.0004
480.4383	0.0022
480.6386	-0.0045
480.8389	0.0073
481.0392	0.0093
481.2395	0.0103
481.4398	0.0041
481.6401	0.0067
481.8403	0.0023
482.0405	0.0014
482.2408	-0.0047
482.441	0.0058
482.6411	0.0019
482.8413	-0.0109
483.0415	-0.0014
483.2416	0.0049
483.4417	0.0049
483.6419	-0.0038
483.8419	0.0006
484.042	0.0008
484.2421	-0.0016
484.4422	0.0059
484.6422	0.0052
484.8422	0.0024
485.0422	0.0047
485.2422	0.0054
485.4422	0.0004
485.6422	-0.0005
485.8421	0.0009
486.042	0.0061
486.242	-0.0018
486.4419	0.0043
486.6417	0.0013
486.8416	0
487.0415	-0.0029
487.2413	0.0037
487.4411	0.0017
487.641	0.0063
487.8408	0.0058
488.0405	0.0052
488.2403	0.0004
488.4401	-0.0034
488.6398	0.004
488.8395	-0.0018
489.0392	0.0068
489.2389	0.003
489.4386	0.0006
489.6383	0.0054
489.8379	0.0001
490.0376	0.0105
490.2372	-0.0045
490.4368	0.0042
490.6364	0.0063
490.836	-0.0096
491.0355	0.0059
491.2351	0.0017
491.4346	-0.0022
491.6341	0.0033
491.8336	-0.007
492.0331	-0.003
492.2326	-0.0032
492.432	0.0039
492.6315	-0.0015
492.8309	0.0034
493.0303	-0.0023
493.2297	-0.0081
493.4291	-0.0089
493.6284	-0.0023
493.8278	0.0014
494.0271	-0.0001
494.2264	-0.001
494.4257	-0
494.625	-0.0004
494.8243	0.004
495.0236	-0.0027
495.2228	-0.0051
495.422	0.004
495.6213	-0.0011
495.8205	0.0016
496.0196	0.0024
496.2188	0.0086
496.418	-0.0056
496.6171	0.0002
496.8162	-0.0016
497.0153	-0.0009
497.2144	-0.008
497.4135	-0.002
497.6126	-0.0013
497.8116	0.002
498.0107	-0.0049
498.2097	0.0087
498.4087	-0.0035
498.6077	0.0011
498.8067	0.0075
499.0056	-0.0007
499.2046	0.0016
499.4035	0.0005
499.6024	-0.0053
499.8013	0.0041
500.0002	0.0105
500.199	-0.001
500.3979	0.0026
500.5967	0.0037
500.7956	-0.0028
500.9944	0.0011
501.1932	0.0055
501.3919	0.0121
501.5907	0.0056
501.7895	-0.0004
501.9882	0.0008
502.1869	0.003
502.3856	-0.0023
502.5843	0.0024
502.783	0.0075
502.9816	-0.0067
503.1803	0.013
503.3789	0.007
503.5775	-0.0048
503.7761	-0.0034
503.9747	-0.0061
504.1732	0.0014
504.3718	0.0022
504.5703	-0.0047
504.7689	-0.0016
504.9674	-0.0014
505.1658	0.0042
505.3643	0.002
505.5628	0.0028
505.7612	0.0021
505.9597	-0.0057
506.1581	-0.0114
506.3565	-0.0114
506.5549	-0.0003
506.7532	-0.0014
506.9516	-0.0072
507.1499	0.0034
507.3482	0.0084
507.5465	-0.0041
507.7448	0.0032
507.9431	-0.0053
508.1414	-0.0004
508.3396	0.0024
508.5379	-0.0017
508.7361	0.0043
508.9343	0.0021
509.1325	0.0091
509.3306	-0.0023
509.5288	0.0064
509.7269	0.0018
509.9251	-0.0055
510.1232	-0.0046
510.3213	-0.0038
510.5193	0.0006
510.7174	-0.0107
510.9154	-0.0006
511.1135	-0.0045
511.3115	0.006
511.5095	0.0019
511.7075	-0.0067
511.9055	0.0059
512.1034	0.0062
512.3014	-0.0018
512.4993	0.0016
512.6972	-0.0007
512.8951	0.0072
513.093	-0.0033
513.2908	-0.0084
513.4887	0.0059
513.6865	-0.007
513.8844	0.0018
514.0822	0.0043
514.2799	-0.0088
514.4777	0.0037
514.6755	0.0025
514.8732	-0.0002
515.0709	0.009
515.2687	-0.0003
515.4664	-0.0104
515.664	0.0021
515.8617	0.0047
516.0594	0.0053
516.257	0.0042
516.4546	-0.0077
516.6522	-0.0008
516.8498	0.0004
517.0474	-0.0021
517.2449	-0.0062
517.4425	-0.0051
517.64	-0.0051
517.8375	0.0105
518.035	-0.001
518.2325	-0.0049
518.43	-0.0023
518.6274	-0.0054
518.8249	-0.0038
519.0223	-0.0038
519.2197	-0.006
519.4171	-0.0041
519.6145	0.0037
519.8118	-0.0029
520.0092	0.0019
520.2065	0.0004
520.4038	-0.0014
520.6011	0.0122
520.7984	0.0038
520.9956	-0.0005
521.1929	0.0046
521.3901	0.0052
521.5874	-0.0035
521.7846	-0.0095
521.9818	-0.0036
522.1789	0.0137
522.3761	0.001
522.5732	-0.0006
522.7704	0.0034
522.9675	0.0025
523.1646	0.0187
523.3617	0.007
523.5587	0.0009
523.7558	0.0031
523.9528	0.0017
524.1498	-0.0047
524.3468	0.0009
524.5438	-0.0017
524.7408	-0.0115
524.9378	0.0015
525.1347	0.0016
525.3316	0.0087
525.5285	-0.0016
525.7254	-0.003
525.9223	-0.0149
526.1192	-0.0043
526.316	-0.003
526.5129	0.0063
526.7097	-0.0054
526.9065	0.0019
527.1033	-0.0062
527.3	-0.0041
527.4968	0.0041
527.6935	0.0024
527.8903	0.0004
528.087	0.0024
528.2837	0.003
528.4804	0.0045
528.677	-0.0023
528.8737	-0.0006
529.0703	0.0079
529.2669	0.0003
529.4635	0.0065
529.6601	0.0054
529.8567	-0.0022
530.0532	-0.001
530.2498	-0.0078
530.4463	0.0016
530.6428	-0.0038
530.8393	-0.0044
531.0358	-0.0043
531.2322	-0.0058
531.4287	-0.0074
531.6251	-0.0056
531.8215	0.0075
532.0179	-0.0112
532.2143	0.0048
532.4107	-0.0021
532.607	0.0037
532.8034	0.001
532.9997	0.0009
533.196	0.0072
533.3923	0.001
533.5886	-0.0044
533.7848	-0.003
533.9811	-0.0079
534.1773	-0.0033
534.3735	0.0043
534.5697	-0.0017
534.7659	0.0006
534.9621	0.0053
535.1582	-0.0026
535.3544	0.0001
535.5505	-0.004
535.7466	-0.0023
535.9427	-0.0042
536.1387	0.0018
536.3348	-0
536.5308	0.0072
536.7269	-0.0031
536.9229	-0.006
537.1189	0.004
537.3148	-0.0065
537.5108	-0.0027
537.7068	0.0066
537.9027	0.0028
538.0986	-0.0003
538.2945	-0.0076
538.4904	-0.005
538.6863	0.0098
538.8821	-0.0049
539.078	-0.0073
539.2738	-0.016
539.4696	-0.0015
539.6654	0.0019
539.8611	0.0032
540.0569	0.0037
540.2526	-0.0029
540.4484	-0.0094
540.6441	-0.0078
540.8398	-0.0016
541.0355	0.0011
541.2311	-0.0061
541.4268	0.0011
541.6224	-0.0039
541.818	-0.0085
542.0136	-0.0078
542.2092	-0.0043
542.4048	-0.0032
542.6003	-0.0009
542.7959	-0.0018
542.9914	0.0084
543.1869	0.0062
543.3824	-0.0025
543.5779	-0.0053
543.7734	-0.002
543.9688	-0.0022
544.1642	0.0001
544.3596	-0.0105
544.555	0.0048
544.7504	0.0008
544.9458	0.0025
545.1411	-0.0067
545.3365	0.0072
545.5318	-0.0019
545.7271	-0.002
545.9224	-0.0055
546.1177	0.0075
546.3129	-0.0123
546.5081	-0.0087
546.7034	0.0023
546.8986	-0.0013
547.0938	0.0109
547.289	-0.0039
547.4841	0.0017
547.6793	-0.0044
547.8744	0.0007
548.0695	0.0036
548.2646	-0.0037
548.4597	-0.0041
548.6548	-0.0026
548.8498	-0.002
549.0448	0.0019
549.2399	-0.0028
549.4349	-0.0005
549.6298	-0.0135
549.8248	-0.0097
550.0198	0.0043
550.2147	0.0035
550.4096	0.0023
550.6045	-0.0023
550.7994	0.0069
550.9943	-0.0065
551.1892	-0.0045
551.384	-0.0009
551.5788	-0.0024
551.7737	-0.0079
551.9685	0.0109
552.1632	-0.0025
552.358	0.0033
552.5528	-0.0036
552.7475	-0.0061
552.9422	-0.0013
553.1369	-0.0051
553.3316	-0.0077
553.5263	-0.0013
553.7209	-0.0068
553.9156	0.0048
554.1102	-0.0041
554.3048	0.0107
554.4994	0.0031
554.694	-0.0002
554.8885	0.0034
555.0831	-0.0013
555.2776	-0.0063
555.4721	-0.0116
555.6666	0.0075
555.8611	-0.0152
556.0555	-0.0004
556.25	-0.0014
556.4444	-0.0067
556.6388	0.0001
556.8332	-0.0037
557.0276	0.014
557.222	-0.0082
557.4163	-0.0015
557.6107	-0.0056
557.805	-0.0069
557.9993	-0.0066
558.1936	0.009
558.3879	-0.0074
558.5821	-0.0098
558.7764	0.0066
558.9706	0.0059
559.1648	-0.005
559.359	0.0035
559.5532	-0.0057
559.7473	0.001
559.9415	-0.0002
560.1356	0.0014
560.3297	0.0071
560.5238	-0.006
560.7179	-0.0008
560.9119	-0.0016
561.106	-0.0057
561.3	-0.0044
561.494	0.0119
561.688	-0.0021
561.882	0.0043
562.076	0.0061
562.2699	0.0007
562.4639	0.0052
562.6578	0.0079
562.8517	-0.0043
563.0456	-0.0103
563.2395	0.0003
563.4333	-0.0009
563.6272	0.0098
563.821	0.0108
564.0148	-0.0084
564.2086	0.0018
564.4024	0.0002
564.5961	-0.0039
564.7899	0.005
564.9836	0.0037
565.1773	-0.0052
565.371	0.0042
565.5647	-0.0033
565.7584	0.0043
565.952	-0.0009
566.1456	-0.001
566.3393	0.0089
566.5329	-0.0043
566.7264	-0.0013
566.92	0.001
567.1136	0.0014
567.3071	0.0013
567.5006	-0.0057
567.6941	0.0104
567.8876	-0.0025
568.0811	-0.0058
568.2745	-0.0012
568.468	-0.0007
568.6614	-0.0015
568.8548	-0.0015
569.0482	-0.0051
569.2416	-0.0039
569.4349	0.0023
569.6283	-0.0001
569.8216	0.0021
570.0149	-0.0019
570.2082	-0.0018
570.4015	0.0029
570.5947	-0.002
570.788	0.0015
570.9812	-0.0003
571.1744	0.0012
571.3676	-0.0035
571.5608	-0.0002
571.754	-0.0068
571.9471	0.0056
572.1402	0.002
572.3333	0.0008
572.5264	-0.0005
572.7195	0.0035
572.9126	0.0004
573.1057	-0.0035
573.2987	0.0052
573.4917	-0.0023
573.6847	0.0016
573.8777	-0.0037
574.0707	-0.0023
574.2636	0.0025
574.4566	-0.0001
574.6495	0.004
574.8424	-0.0005
575.0353	0.002
575.2281	-0.0017
575.421	-0.0056
575.6138	-0.0051
575.8067	0.001
575.9995	0.0008
576.1923	-0.0023
576.385	-0.0034
576.5778	-0.003
576.7706	0.0002
576.9633	0.0025
577.156	0.0027
577.3487	-0.0004
577.5414	-0.0008
577.734	0.0017
577.9267	-0.0032
578.1193	-0.0013
578.3119	-0.0007
578.5045	-0.0044
578.6971	-0.0028
578.8897	-0.0011
579.0822	0.0023
579.2747	-0.0044
579.4673	-0.0038
579.6598	-0.0041
579.8522	-0.0033
580.0447	-0.0023
580.2372	0.0075
580.4296	-0.0057
580.622	0.0058
580.8144	-0.0014
581.0068	-0
581.1992	0.001
581.3915	-0.0009
581.5839	0.0032
581.7762	0.0039
581.9685	-0.0017
582.1608	0.0006
582.353	-0.0013
582.5453	0.0017
582.7375	0.0007
582.9298	-0.0012
583.122	-0.002
583.3142	-0.0003
583.5063	-0.0089
583.6985	-0.001
583.8906	-0.0011
584.0827	0.0005
584.2749	0.0017
584.4669	0.0003
584.659	-0.0009
584.8511	0.0058
585.0431	-0.0023
585.2352	-0.0052
585.4272	0.0007
585.6192	0.0003
585.8111	-0.0033
586.0031	0.0072
586.195	-0.0016
586.387	0.0023
586.5789	-0.0022
586.7708	-0.0006
586.9627	0.0035
587.1545	0.0002
587.3464	0.0003
587.5382	-0.0008
587.73	0.0037
587.9218	-0.0001
588.1136	-0.001
588.3053	0.0012
588.4971	-0.0008
588.6888	-0.0008
588.8805	0.0008
589.0722	-0.0002
589.2639	-0.0021
589.4556	-0.0075
589.6472	-0.0031
589.8389	0.0018
590.0305	0.0029
590.2221	-0.001
590.4137	-0.001
590.6052	0.0027
590.7968	-0.0001
590.9883	0.005
591.1798	-0.0066
591.3713	-0.0035
591.5628	0.0056
591.7543	0.0032
591.9458	0.0013
592.1372	-0.0084
592.3286	-0.0037
592.52	-0.0003
592.7114	-0.0075
592.9028	-0.0045
593.0941	-0.0035
593.2855	0.0013
593.4768	-0.0046
593.6681	-0.0042
593.8594	-0.0016
594.0506	-0.0001
594.2419	-0.0074
594.4331	-0.0015
594.6244	0.0027
594.8156	-0.0054
595.0067	0.0004
595.1979	-0.0093
595.3891	-0.0003
595.5802	0
595.7713	-0.0052
595.9624	-0.0036
596.1535	-0.0012
596.3446	0.0039
596.5357	-0.0013
596.7267	0.0017
596.9177	0.0021
597.1087	0.0011
597.2997	0.0043
597.4907	0.0003
597.6817	-0.0001
597.8726	0.0066
598.0635	-0.0085
598.2544	-0.0035
598.4453	-0.0053
598.6362	-0.0066
598.827	0.003
599.0179	0.0019
599.2087	-0.0045
599.3995	0.0025
599.5903	-0.0064
599.7811	-0.0062
599.9718	-0.0017
600.1626	0.0003
600.3533	-0.0015
600.544	0.0005
600.7347	0.0042
600.9254	0.0046
601.116	-0.0042
601.3067	0.0033
601.4973	0.0107
601.6879	-0.007
601.8785	0.0005
602.0691	0.0028
602.2596	-0.0021
602.4502	-0.0012
602.6407	-0.0019
602.8312	-0.0003
603.0217	0.0087
603.2122	0.0045
603.4027	-0.0075
603.5931	-0.0002
603.7835	-0.0003
603.9739	-0.0031
604.1643	-0.0049
604.3547	0.0055
604.5451	-0.0015
604.7354	-0.0001
604.9257	-0.0001
605.116	-0.0022
605.3063	-0.0021
605.4966	0.0005
605.6869	0.002
605.8771	0.003
606.0673	-0.0007
606.2575	-0.0016
606.4477	0.0035
606.6379	-0.0024
606.8281	-0.0111
607.0182	-0.0037
607.2083	-0.0047
607.3985	0.0014
607.5885	-0.0008
607.7786	0.0029
607.9687	-0.0085
608.1587	0.0009
608.3488	-0.0065
608.5388	0.0033
608.7288	-0.0085
608.9187	0.0084
609.1087	-0.0044
609.2986	-0.0112
609.4886	0.0028
609.6785	0.0021
609.8684	-0.0024
610.0582	0.0035
610.2481	-0.0017
610.4379	0.0019
610.6278	-0.0028
610.8176	-0.0029
611.0074	-0.0023
611.1971	-0.0006
611.3869	0.0001
611.5766	-0.0081
611.7664	0.0055
611.9561	-0.0008
612.1458	-0.0004
612.3354	0.0073
612.5251	-0.0045
612.7147	0.0038
612.9044	-0.0069
613.094	0.0061
613.2836	0.0038
613.4731	-0.0041
613.6627	0.006
613.8522	-0.0071
614.0417	-0.0011
614.2313	-0.0114
614.4207	0.0055
614.6102	-0.0046
614.7997	-0.0035
614.9891	0.0011
615.1785	-0.0004
615.3679	0.0073
615.5573	-0.0084
615.7467	-0.003
615.9361	-0.0022
616.1254	0.0016
616.3147	0.0015
616.504	0.004
616.6933	-0.003
616.8826	0.0029
617.0718	-0.012
617.2611	0.0004
617.4503	-0.003
617.6395	0.0013
617.8287	-0.0039
618.0179	-0.0016
618.207	-0.0019
618.3961	0.0024
618.5853	-0.0023
618.7744	0.0037
618.9634	0.0131
619.1525	0.0036
619.3416	-0.0062
619.5306	0.0003
619.7196	-0.0025
619.9086	0.0066
620.0976	-0.0011
620.2866	0.0096
620.4755	0.0167
620.6645	-0.0141
620.8534	-0.0088
621.0423	-0.0048
621.2312	-0.0071
621.42	-0.001
621.6089	-0.0037
621.7977	-0.0069
621.9865	-0.0001
622.1753	0.011
622.3641	-0.0103
622.5529	-0.0084
622.7416	0.0022
622.9303	-0.0017
623.1191	-0.0155
623.3078	-0.0022
623.4964	-0.0108
623.6851	0.0076
623.8737	0.0075
624.0624	0.0022
624.251	-0.0013
624.4396	0.0066
624.6282	0.0033
624.8167	0.0098
625.0053	-0.0105
625.1938	0.0009
625.3823	-0.0026
625.5708	-0.0025
625.7593	-0.0023
625.9477	-0.0088
626.1362	-0.0077
626.3246	-0.0119
626.513	-0.0001
626.7014	-0.0001
626.8898	-0.0004
627.0781	0.0016
627.2665	0.0053
627.4548	-0.0027
627.6431	-0.0189
627.8314	0.0048
628.0197	0.0091
628.2079	0.0017
628.3962	-0.0066
628.5844	0.0028
628.7726	-0.0091
628.9608	-0.0057
629.1489	-0.0141
629.3371	0.0027
629.5252	0.0055
629.7134	0.0012
629.9015	-0
630.0895	-0.0004
630.2776	0.0024
630.4657	0.0045
630.6537	-0.0068
630.8417	-0.0015
631.0297	-0.0031
631.2177	-0.0041
631.4057	-0.0061
631.5936	-0.0013
631.7815	0.009
631.9695	0.0038
632.1574	-0.0083
632.3452	-0.0042
632.5331	-0.0144
632.7209	0.0015
632.9088	-0.0075
633.0966	-0.001
633.2844	0.005
633.4722	-0.0016
633.6599	-0.019
633.8477	-0.0049
634.0354	0.0065
634.2231	0.013
634.4108	0.0005
634.5985	0.0012
634.7861	-0.018
634.9738	0.0089
635.1614	0.005
635.349	-0.0263
635.5366	-0.0029
635.7242	0.0041
635.9117	0.0143
636.0993	-0.0207
636.2868	-0.0098
636.4743	0.0131
636.6618	-0.0028
636.8492	-0.0033
637.0367	-0.0056
637.2241	0.0084
637.4115	0.0127
637.5989	0.001
637.7863	-0.0121
637.9737	-0.0031
638.161	-0.0215
638.3484	0.0134
638.5357	-0.0081
638.723	-0.0062
638.9103	0.0111
639.0975	0.0043
639.2848	0.0188
639.472	-0.0094
639.6592	0.0138
639.8464	-0.0098
640.0336	0.0033
640.2208	-0.0062
640.4079	0.0167
640.595	0.0039
640.7821	0.0002
640.9692	-0.0002
641.1563	0.003
641.3434	0.0041
641.5304	-0.0009
641.7174	0.027
641.9044	-0.004
642.0914	-0.0108
642.2784	0.0161
642.4653	-0.0066
642.6523	0.0011
642.8392	0.0065
643.0261	0.0038
643.213	0.0097
643.3999	-0.0234
643.5867	0.005
643.7735	0.0116
643.9604	-0.0188
644.1472	-0.0053
644.3339	-0.0148
644.5207	-0.0167
644.7075	-0.0156
644.8942	0.0048
645.0809	-0.0073
645.2676	-0.0008
645.4543	-0.0108
645.6409	-0.0205
645.8276	-0.0154
646.0142	0.0118
646.2008	-0.0292
646.3874	0.0046
646.574	-0.0126
646.7605	0.0023
646.9471	0.0111
647.1336	-0.023
647.3201	-0.0003
647.5066	-0.0164
647.6931	0.0018
647.8795	0.0067
648.0659	-0.0176
648.2524	-0.0036
648.4388	0.0063
648.6252	-0.0166
648.8115	0.0145
648.9979	0.0129
649.1842	-0.0299
649.3705	0.0074
649.5568	-0.0195
649.7431	0.0129
649.9294	-0.0039
650.1156	-0.0218
650.3018	0.0014
650.488	0.0028
650.6742	0.003
650.8604	-0.0077
651.0466	0.0024
651.2327	-0.0217
651.4188	-0.0262
651.6049	-0.0031
651.791	0.0187
651.9771	-0.0047
652.1632	0.0024
652.3492	0.0011
652.5352	0.0125
652.7212	-0.0077
652.9072	-0.0092
653.0932	-0.012
653.2791	0.0008
653.465	-0.013
653.651	0.0024
653.8369	0.0173
654.0227	-0.0135
654.2086	-0.0211
654.3944	-0.0089
654.5803	0.014
654.7661	-0.0013
654.9519	-0.0067
655.1377	-0
655.3234	-0
655.5092	-0
655.6949	-0
655.8806	-0
656.0663	-0
656.2519	-0
656.4376	-0
656.6232	-0
656.8088	-0
656.9945	-0
657.18	-0
657.3656	-0
657.5511	-0
657.7367	-0
657.9222	-0
658.1077	-0
658.2932	-0
658.4786	-0
658.6641	-0
658.8495	-0
659.0349	-0
659.2203	-0
659.4057	-0.0001
659.591	0.0079
659.7764	0.0064
659.9617	-0.0024
660.147	-0.0082
660.3323	-0.0112
660.5176	-0.0156
660.7028	-0.0093
660.888	0.0224
661.0733	-0.0055
661.2585	0.009
661.4436	0.0078
661.6288	-0.0146
661.8139	0.0191
661.9991	0.0037
662.1842	0.0163
662.3693	0.0046
662.5544	-0.0052
662.7394	0.0182
662.9245	0.0072
663.1095	-0.005
663.2945	0.0057
663.4795	0.0085
663.6644	-0.0085
663.8494	0.005
664.0343	-0.007
664.2193	-0.0145
664.4042	-0.0247
664.589	-0.0129
664.7739	-0.0176
664.9587	0.0007
665.1436	-0.0162
665.3284	-0.0091
665.5132	0.0055
665.698	-0.0295
665.8827	-0.0186
666.0675	-0.0374
666.2522	0.0021
666.4369	-0.017
666.6216	-0.0307
666.8063	0.0042
666.9909	-0.0086
667.1756	0.0112
667.3602	-0.0227
667.5448	-0.0166
667.7294	-0.0282
667.9139	-0.0274
668.0985	-0.0193
668.283	-0.0217
668.4675	-0.0182
668.652	-0.0039
668.8365	-0.0143
669.0209	-0.0076
669.2054	-0.0007
669.3898	0.0068
669.5742	-0.0089
669.7586	-0.0047
669.943	-0.026
670.1273	-0.0157
670.3117	-0.009
670.496	-0.0001
670.6803	0.0069
670.8646	0.0113
671.0488	-0.0246
671.2331	0.009
671.4173	-0.0046
671.6015	-0.0074
671.7857	-0.0167
671.9699	0.0061
672.1541	-0.0088
672.3382	0.0212
672.5223	-0.0073
672.7064	-0.0086
672.8905	-0.0033
673.0746	0.0002
673.2587	0.0005
673.4427	-0.0101
673.6267	-0.0162
673.8107	-0.013
673.9947	-0.0158
674.1787	-0.0028
674.3626	-0.0068
674.5465	-0.0072
674.7304	-0.0292
674.9143	0.028
675.0982	0.0031
675.2821	-0.0006
675.4659	-0.0059
675.6497	-0.0094
675.8335	-0.0076
676.0173	-0.0062
676.2011	-0.0132
676.3849	-0.0326
676.5686	-0.0028
676.7523	0.0155
676.936	-0.0306
677.1197	0.004
677.3034	-0.0052
677.487	0.0159
677.6706	-0.007
677.8542	-0.0034
678.0378	-0.0086
678.2214	-0.0043
678.405	-0.0023
678.5885	0.0097
678.772	-0.0133
678.9555	0.0025
679.139	-0.0127
679.3225	-0.0198
679.5059	-0.0008
679.6894	-0.0286
679.8728	-0.0026
680.0562	-0.0131
680.2395	-0.0088
680.4229	-0.0094
680.6062	-0.0122
680.7896	-0.0079
680.9729	-0.0134
681.1562	-0.0043
681.3394	-0.0148
681.5227	-0.0404
681.7059	-0.0032
681.8891	-0.0035
682.0723	-0.0283
682.2555	0.0083
682.4387	-0.0014
682.6218	-0.0104
682.805	0.0107
682.9881	-0.0075
683.1712	0.0172
683.3542	-0.0136
683.5373	0.0062
683.7203	-0.0048
683.9034	-0.0033
684.0864	-0.0096
684.2694	-0.0085
684.4523	-0.0093
684.6353	-0.0078
684.8182	0.0104
685.0011	0.0017
685.184	-0.0032
685.3669	-0.016
685.5498	0.0028
685.7326	-0.0128
685.9154	-0.0189
686.0982	-0.0052
686.281	-0.007
686.4638	0.0004
686.6465	0.0027
686.8293	0.0033
687.012	-0.003
687.1947	0.006
687.3774	0.0093
687.56	-0.0088
687.7427	0.0075
687.9253	-0.0062
688.1079	0.0209
688.2905	-0.0124
688.4731	0.0183
688.6556	0.0131
688.8382	0.0013
689.0207	-0.0144
689.2032	-0.0313
689.3857	-0.0043
689.5681	-0.0402
689.7506	0.0099
689.933	-0.001
690.1154	-0.0188
690.2978	-0.0264
690.4802	0.0129
690.6626	-0.0059
690.8449	-0.0298
691.0272	-0.0141
691.2095	-0.0078
691.3918	-0.031
691.5741	-0.0064
691.7563	0.0044
691.9386	-0.0175
692.1208	-0.0192
692.303	-0.0105
692.4852	-0.0069
692.6673	-0.0206
692.8495	0.0017
693.0316	-0.0226
693.2137	0.0232
693.3958	0.0082
693.5778	-0.0207
693.7599	-0.0112
693.9419	-0.01
694.1239	-0.0051
694.3059	-0.0211
694.4879	-0.016
694.6699	0.0022
694.8518	-0.0006
695.0337	0.0002
695.2157	-0.0183
695.3975	-0.009
695.5794	-0.012
695.7613	0.0176
695.9431	-0.0085
696.1249	-0.0057
696.3067	-0.0099
696.4885	-0.0024
696.6703	-0.0076
696.852	-0.0075
697.0337	-0.0122
697.2154	0.0106
697.3971	0.0091
697.5788	0.0256
697.7605	-0.0103
697.9421	-0.0039
698.1237	0.0015
698.3053	-0.0113
698.4869	-0.0049
698.6685	-0.0142
698.85	-0.0009
699.0315	-0.0004
699.213	0.0299
699.3945	0.0138
699.576	-0.0109
699.7575	-0.03
699.9389	-0.0286
700.1203	-0.0034
700.3017	-0.0243
700.4831	-0.0219
700.6645	-0.0044
700.8458	0.0227
701.0271	0.0062
701.2084	-0.0245
701.3897	0.0049
701.571	-0.0137
701.7523	-0.0078
701.9335	0.0381
702.1147	-0.0103
702.2959	0.0196
702.4771	-0.0129
702.6583	-0.039
702.8394	-0.0076
703.0205	-0.0299
703.2016	0.0061
703.3827	-0.0012
703.5638	-0.0093
703.7449	-0.0163
703.9259	0.0044
704.1069	0.0202
704.2879	0.0035
704.4689	0.0074
704.6499	0.0009
704.8308	-0.0571
705.0117	-0.0166
705.1927	0.015
705.3735	-0.0035
705.5544	0.0098
705.7353	-0.0054
705.9161	0.0021
706.0969	0.0272
706.2777	-0.0151
706.4585	0.0031
706.6393	-0.0102
706.82	-0.0199
707.0007	-0.0064
707.1815	0.0091
707.3621	-0.0016
707.5428	0.0016
707.7235	0.0115
707.9041	-0.0071
708.0847	-0.0144
708.2653	0.0008
708.4459	-0.009
708.6265	-0.0343
708.807	0.0059
708.9875	-0.0001
709.168	0.01
709.3485	-0.0081
709.529	0.0218
709.7095	-0.0248
709.8899	0.0019
710.0703	-0.01
710.2507	-0.0061
710.4311	-0.0032
710.6115	0.0039
710.7918	-0.0102
710.9721	-0.0216
711.1524	-0.0004
711.3327	-0.0439
711.513	-0.0126
711.6932	-0.0514
711.8735	0.0041
712.0537	-0.0201
712.2339	-0.0175
712.4141	-0.0043
712.5942	-0.0054
712.7744	-0.01
712.9545	-0.0069
713.1346	-0.0131
713.3147	0.0107
713.4947	-0.0065
713.6748	-0.0359
713.8548	-0.0232
714.0348	0.0188
714.2148	-0.0187
714.3948	-0.0044
714.5748	-0.005
714.7547	-0.0213
714.9346	-0.0177
715.1145	-0.0014
715.2944	-0.0197
715.4743	-0.0271
715.6541	-0.0192
715.834	0.0119
716.0138	0.0359
716.1936	-0.0109
716.3733	-0.0342
716.5531	0.0042
716.7328	-0.0295
716.9126	-0.0418
717.0923	-0.0266
717.2719	-0.0171
717.4516	-0.0348
717.6312	-0.0425
717.8109	0.0052
717.9905	-0.0227
718.1701	-0.0257
718.3496	0.0144
718.5292	-0.0203
718.7087	0.0048
718.8882	0.0027
719.0677	0.0011
719.2472	0.0017
719.4267	-0.0134
719.6061	-0.0114
719.7856	-0.0128
719.965	-0.005
720.1443	0.0011
720.3237	0.0174
720.5031	0.0203
720.6824	0.0116
720.8617	0.0137
721.041	-0.0095
721.2203	0.0035
721.3995	-0.0319
721.5788	-0.0352
721.758	-0.0142
721.9372	-0.0025
722.1164	0.0193
722.2956	-0.0014
722.4747	0.0124
722.6538	0.0224
722.8329	-0.0193
723.012	0.0089
723.1911	-0.0129
723.3702	-0.0294
723.5492	-0.0428
723.7282	-0.0185
723.9072	-0.0261
724.0862	0.0032
724.2652	-0.0459
724.4441	-0.0097
724.623	-0.0193
724.8019	-0.0158
724.9808	-0.0176
725.1597	-0.035
725.3385	-0.0165
725.5174	0.0081
725.6962	0.0053
725.875	-0.0007
726.0538	0.013
726.2325	-0.0044
726.4112	0.0192
726.59	-0.0135
726.7687	-0.0005
726.9474	0.0067
727.126	-0.0131
727.3047	-0.0134
727.4833	0.0143
727.6619	0.0241
727.8405	-0.0093
728.0191	-0.0379
728.1976	-0.051
728.3762	-0.0185
728.5547	0.005
728.7332	-0.0068
728.9116	-0.0379
729.0901	-0.0016
729.2686	-0.0333
729.447	-0.0173
729.6254	0.004
729.8038	-0.0055
729.9821	0.0212
730.1605	-0.013
730.3388	-0.0108
730.5171	-0.0229
730.6954	-0.0015
730.8737	-0.0109
731.0519	0.0002
731.2302	-0.0069
731.4084	0.0033
731.5866	-0.0181
731.7648	-0.0035
731.9429	-0.0172
732.1211	-0.0283
732.2992	0.0084
732.4773	-0.0283
732.6554	-0.0141
732.8335	0.0038
733.0115	-0.0056
733.1896	-0.0009
733.3676	-0.001
733.5456	-0.0076
733.7235	-0.0099
733.9015	-0.007
734.0794	-0.019
734.2574	0.0131
734.4353	-0.0115
734.6131	-0.0171
734.791	0.0288
734.9689	-0.0137
735.1467	-0.0165
735.3245	0.0019
735.5023	-0.0122
735.68	0.0178
735.8578	-0.01
736.0355	0.0005
736.2132	0.0086
736.3909	0.0039
736.5686	0.0043
736.7463	-0.0248
736.9239	-0.0015
737.1015	-0.0203
737.2791	-0.0211
737.4567	-0.009
737.6343	0.0054
737.8118	0.0096
737.9894	-0.0004
738.1669	-0.0197
738.3444	-0.0117
738.5218	0.0198
738.6993	-0.0171
738.8767	0.001
739.0541	0.0067
739.2315	-0.0204
739.4089	-0.0033
739.5863	0.0097
739.7636	-0.0035
739.9409	0.0119
740.1182	0.0007
740.2955	-0.0487
740.4728	-0.0005
740.65	0.0009
740.8272	-0.0335
741.0044	-0.0011
741.1816	0.0208
741.3588	0.0102
741.5359	0.0175
741.7131	0.0281
741.8902	-0.0287
742.0673	0.0077
742.2444	-0.0053
742.4214	-0.0173
742.5985	-0.0054
742.7755	-0.0288
742.9525	-0.0196
743.1295	-0.0216
743.3064	0.0067
743.4834	0.004
743.6603	-0.0052
743.8372	-0.016
744.0141	0.0225
744.191	-0.0358
744.3678	-0.0081
744.5446	-0.0285
744.7215	-0.0315
744.8982	-0.0038
745.075	-0.0249
745.2518	-0.0044
745.4285	-0.0255
745.6052	0.0316
745.7819	-0.0015
745.9586	0.0118
746.1353	-0.0001
746.3119	-0.0197
746.4885	0.0054
746.6651	-0.0548
746.8417	-0.005
747.0183	-0.0167
747.1948	0.0054
747.3714	0.0061
747.5479	-0.0059
747.7244	-0.0577
747.9008	0.0128
748.0773	0.0152
748.2537	0.0198
748.4301	0.0171
748.6065	-0.0348
748.7829	0.0003
748.9593	-0.0024
749.1356	-0.0215
749.3119	-0.0182
749.4882	-0.0171
749.6645	0.0057
749.8408	-0.0137
750.017	-0.0086
750.1933	0.0097
750.3695	0.0042
750.5457	-0.0334
750.7218	0.0186
750.898	-0.0031
751.0741	0.007
751.2502	0.0117
751.4263	0.0032
751.6024	0.0168
751.7784	-0.0224
751.9545	-0.0563
752.1305	-0.0186
752.3065	0.0171
752.4825	-0.025
752.6584	-0.0334
752.8344	0.0021
753.0103	-0.0202
753.1862	-0.0281
753.3621	-0.0028
753.5379	-0.0118
753.7138	-0.0213
753.8896	0.0072
754.0654	-0.0099
754.2412	0.0301
754.417	0.0064
754.5927	-0.0205
754.7685	-0.0166
754.9442	0.0035
755.1199	-0.0135
755.2956	-0.0042
755.4712	0.009
755.6469	-0.0083
755.8225	0.0062
755.9981	-0.0167
756.1736	0.0181
756.3492	-0.0196
756.5248	-0.0133
756.7003	-0.0095
756.8758	-0.0139
757.0513	-0.0284
757.2267	-0.0039
757.4022	-0.0113
757.5776	-0.0229
757.753	-0.0237
757.9284	-0.0244
758.1038	-0.0105
758.2791	-0.008
758.4545	-0.0056
758.6298	-0.0231
758.8051	-0.0068
758.9803	-0.0052
759.1556	-0.015
759.3308	-0.0344
759.506	0.0115
759.6812	-0.013
759.8564	-0.0109
760.0316	0.0066
760.2067	-0.0139
760.3819	-0.0021
760.557	-0.0092
760.732	0.0044
760.9071	-0.0062
761.0821	-0.009
761.2572	0.0085
761.4322	0.0009
761.6072	-0.0287
761.7821	-0.0054
761.9571	-0.0027
762.132	-0.0221
762.3069	-0.0113
762.4818	-0.0113
762.6567	0.0114
762.8316	-0.0019
763.0064	0.0021
763.1812	-0.022
763.356	0.0069
763.5308	0.0039
763.7055	-0.0183
763.8803	-0.0152
764.055	-0.0178
764.2297	-0.0205
764.4044	-0.0032
764.579	-0.0222
764.7537	-0.0049
764.9283	-0.0336
765.1029	0.0028
765.2775	-0.0175
765.4521	0.0103
765.6266	-0.0166
765.8011	-0.0217
765.9756	-0.0109
766.1501	0.0281
766.3246	-0.0081
766.4991	-0.0431
766.6735	-0.0203
766.8479	-0.0285
767.0223	0.0121
767.1967	-0.0121
767.371	-0.0134
767.5454	-0.0025
767.7197	-0.014
767.894	-0.0235
768.0683	-0.0137
768.2425	0.0124
768.4168	0.0269
768.591	-0.0001
768.7652	-0.0031
768.9394	0.0083
769.1135	0.0043
769.2877	0.0164
769.4618	0.0029
769.6359	0.0169
769.81	-0.0176
769.984	-0.0049
770.1581	-0.0012
770.3321	-0.0173
770.5061	0.0014
770.6801	0.0177
770.8541	-0.0212
771.028	-0.0173
771.202	-0.0408
771.3759	0.0039
771.5498	-0.027
771.7236	-0.0033
771.8975	-0.0242
772.0713	-0.0091
772.2451	-0.0127
772.4189	-0.0231
772.5927	-0.0126
772.7665	0.0289
772.9402	-0.0184
773.1139	0.0005
773.2876	-0.0072
773.4613	-0.0151
773.635	0.0138
773.8086	-0.0314
773.9822	0.0473
774.1558	-0.0152
774.3294	-0.0665
774.503	-0.0029
774.6765	0.0158
774.8501	0.0039
775.0236	0.0006
775.1971	-0.0163
775.3705	-0.0198
775.544	-0.0277
775.7174	0.0008
775.8908	0.0243
776.0642	-0.0118
776.2376	-0.0552
776.4109	0.0154
776.5843	-0.022
776.7576	-0.0095
776.9309	0.0368
777.1041	-0.0443
777.2774	-0.0133
777.4506	-0.0358
777.6238	-0.0522
777.797	-0.0105
777.9702	0.0393
778.1434	-0.0076
778.3165	-0.0397
778.4896	-0.0209
778.6627	0.0305
778.8358	-0.0232
779.0089	-0.0065
779.1819	0.0163
779.3549	0.0255
779.5279	0.0097
779.7009	-0.0206
779.8739	-0.0149
780.0468	0.0154
780.2197	-0.0397
780.3926	-0.0547
780.5655	0.0163
780.7384	0.0131
780.9112	0.0108
781.0841	-0.0389
781.2569	-0.0067
781.4297	0.009
781.6024	-0.0025
781.7752	-0.042
781.9479	-0.0406
782.1206	-0.0254
782.2933	0.014
782.466	-0.0171
782.6386	-0.0029
782.8113	-0.0258
782.9839	-0.0147
783.1565	-0.0428
783.329	-0.0272
783.5016	-0.0212
783.6741	-0.0136
783.8466	-0.0742
784.0191	-0.008
784.1916	0.0304
784.3641	-0.03
784.5365	0.0424
784.7089	-0.0089
784.8813	-0.0167
785.0537	-0.0298
785.2261	-0.035
785.3984	-0.0117
785.5707	0.006
785.743	-0.0241
785.9153	0.0033
786.0876	-0.0562
786.2598	-0.0289
786.432	-0.0234
786.6042	-0.0318
786.7764	-0.0163
786.9486	-0.0008
787.1207	0.0358
787.2928	-0.0249
787.4649	0.0063
787.637	0.0294
787.8091	-0.0233
787.9811	0.0111
788.1532	-0.0071
788.3252	-0.0473
788.4972	-0.0162
788.6691	0.0073
788.8411	0.012
789.013	-0.015
789.1849	-0.0222
789.3568	0.0142
789.5287	-0.0467
789.7005	0.0528
789.8723	-0.0741
790.0442	-0.0458
790.2159	-0.0217
790.3877	0.0499
790.5595	-0.0354
790.7312	-0.0337
790.9029	0.0101
791.0746	-0.0659
791.2463	-0.0319
791.4179	-0.0061
791.5896	-0.0002
791.7612	-0.0072
791.9328	-0.0312
792.1044	-0.0536
792.2759	-0.0176
792.4474	-0.1014
792.619	0.0672
792.7905	0.0297
792.9619	-0.0091
793.1334	0.0133
793.3048	-0.011
793.4762	-0.0536
793.6476	-0.0294
793.819	-0.02
793.9904	0.0034
794.1617	-0.0031
794.333	-0.0297
794.5043	-0.0364
794.6756	0.0227
794.8469	0.0031
795.0181	-0.0477
795.1893	-0.007
795.3605	-0.0177
795.5317	-0.0115
795.7029	0.0273
795.874	0.0203
796.0452	-0.0186
796.2163	0.0163
796.3873	0.0081
796.5584	0.0522
796.7294	-0.0851
796.9005	-0.0743
797.0715	0.0207
797.2425	-0.0002
797.4134	-0.0412
797.5844	-0.0111
797.7553	-0.0025
797.9262	0.0132
798.0971	-0.0592
798.2679	0.0022
798.4388	-0.0438
798.6096	-0.0191
798.7804	-0.0203
798.9512	0.0625
799.122	0.0114
799.2927	-0.0942
799.4635	0.0384
799.6342	-0.0282
799.8049	-0.0015
799.9755	-0.049
800.1462	-0.0275
800.3168	-0.1084
800.4874	0.014
800.658	0.0295
800.8286	-0.0364
800.9991	0.1289
801.1696	-0.055
801.3402	-0.0971
801.5106	-0.1116
801.6811	0.0089
801.8516	0.021
802.022	-0.0413
802.1924	-0.1143
802.3628	0.0466
802.5332	-0.1276
802.7035	-0.0629
802.8739	0.0419
803.0442	-0.0419
803.2145	-0.0181
803.3847	-0.0127
803.555	-0.0525
803.7252	-0.0214
803.8954	0.0773
804.0656	-0.0251
804.2358	0.0096
804.4059	0.1326
804.5761	0.0286
804.7462	0.0287
804.9163	-0.008
805.0864	0.0084
805.2564	-0.0254
805.4264	-0.0829
805.5965	0.021
805.7665	0.0092
805.9364	0.0374
806.1064	-0.0427
806.2763	-0.0088
806.4462	0.0018
806.6161	0.0213
806.786	0.0153
806.9559	0.0259
807.1257	-0.033
807.2955	0.0192
807.4653	-0.1074
807.6351	0.0316
807.8048	-0.0651
807.9746	-0.0232
808.1443	0.0084
808.314	0.0757
808.4837	-0.0256
808.6533	-0.0355
808.8229	-0.1204
808.9926	-0.0458
809.1622	-0.0318
809.3317	-0.0879
809.5013	0.0059
809.6708	0.0136
809.8403	0.0913
810.0098	0.0583
810.1793	0.0735
810.3488	0.0132
810.5182	-0.0611
810.6876	0.0115
810.857	-0.0637
811.0264	-0.1418
811.1958	-0.0156
811.3651	-0.1384
811.5344	-0.0453
811.7037	0.0108
811.873	0.1313
812.0422	-0.0298
812.2115	-0.0507
812.3807	-0.0347
812.5499	0.0571
812.7191	0.0454
812.8882	-0.0738
813.0574	0.138
813.2265	0.0024
813.3956	0.0532
813.5646	-0.0533
813.7337	-0.1113
813.9027	-0.0446
814.0718	-0.0574
814.2407	-0.091
814.4097	-0.0267
814.5787	0.0398
814.7476	0.0291
814.9165	-0.0412
815.0854	0.0742
815.2543	-0.1263
815.4232	-0.1547
815.592	0.05
815.7608	-0.014
815.9296	-0.0059
816.0984	0.0723
816.2671	-0.1509
816.4359	0.0493
816.6046	0.0523
816.7733	-0.0872
816.942	0.0184
817.1106	-0.2005
817.2793	-0.0673
817.4479	-0.1094
817.6165	-0.0428
817.785	-0.104
817.9536	0.0557
818.1221	0.0537
818.2906	-0.0146
818.4591	-0.0966
818.6276	-0.0665
818.7961	0.1241
818.9645	-0.0183
819.1329	0.1334
819.3013	-0.1139
819.4697	0.0214
819.638	-0.1191
819.8064	-0.1006
819.9747	-0.0512
820.143	0.0312
820.3113	0.0402
820.4795	-0.0183
820.6477	-0.0677
820.816	-0.0155
820.9842	-0.1591
821.1523	0.0898
821.3205	-0.0798
821.4886	-0.0176
821.6567	-0.046
821.8248	0.0358
821.9929	0.0137
822.1609	-0.0572
822.329	-0.1106
822.497	-0.1141
822.665	0.1192
822.833	0.0316
823.0009	-0.156
823.1688	0.009
823.3367	-0.3185
823.5046	0.1474
823.6725	0.0106
823.8404	-0.0996
824.0082	0.0867
824.176	-0.0046
824.3438	0.1317
824.5116	-0.0051
824.6793	-0.0571
824.847	-0.1211
825.0147	-0.0544
825.1824	-0.08
825.3501	-0.0051
825.5177	0.2075
825.6854	-0.0343
825.853	-0.0878
826.0206	-0.2168
826.1881	-0.0241
826.3557	0.23
826.5232	0.137
826.6907	0.1387
826.8582	0.2984
827.0257	-0.1239
827.1931	0.0729
827.3605	-0.0363
827.528	-0.0312
827.6953	0.075
827.8627	-0.0555
828.03	-0.0061
828.1974	-0.0621
828.3647	0.0617
828.532	0.0868
828.6992	-0.0462
828.8665	-0.0053
829.0337	-0.0623
829.2009	0.135
829.3681	-0.0239
829.5352	0.2049
829.7024	-0.0495
829.8695	0.0037
830.0366	0.1202
830.2037	0.0374
830.3707	-0.1318
830.5378	0.1805
830.7048	-0.3772
830.8718	-0.1498
831.0388	0.1169
831.2057	0.0568
831.3727	-0.0369
831.5396	-0.2098
831.7065	-0.001
831.8734	-0.3431
832.0402	-0.0796
832.2071	-0.3005
832.3739	0.5083
832.5407	-0
832.7075	0.3659
832.8742	-0.1131
833.041	0.0134
833.2077	0.305
833.3744	0.0968
833.541	-0.1515
833.7077	-0.1146
833.8743	-0.1018
834.0409	-0.0704
834.2075	0.0368
834.3741	0.0075
834.5407	-0.224
834.7072	-0.0534
834.8737	-0.0234
835.0402	-0.0463
835.2067	0.1039
835.3731	0.0481
835.5395	-0.004
835.706	0.1519
835.8723	-0.1435
836.0387	0.0124
836.2051	0.382
836.3714	-0.2686
836.5377	0.9375
836.704	0.2093
836.8703	-0.1118
837.0365	0.6522
837.2027	-0.4147
837.3689	-0.1566
837.5351	0.7012
837.7013	0.2098
837.8674	-0.3893
838.0335	0.1646
838.1997	0.0968
838.3657	-0
838.5318	-0.7774
838.6978	0.4142
838.8639	-0.0625
839.0299	0.1958
839.1958	-0.0113
839.3618	-0
839.5277	-0.104
839.6937	0.0412
839.8596	0.0467
840.0254	0.0297
840.1913	0.3902
840.3571	-0.1291
840.523	0.0446
840.6888	0.0951
840.8545	0.1025
841.0203	-0.096
841.186	0.0054
841.3517	0.0719
841.5174	0.2985
841.6831	0.1721
841.8488	-0.1351
842.0144	0.2359
842.18	-0.0013
842.3456	-0.1089
842.5112	-0.5739
842.6767	-0.4841
842.8422	-0.0872
843.0077	0.1491
843.1732	0.166
843.3387	-0.2912
843.5042	0.0107
843.6696	-0.4909
843.835	0.1641
844.0004	0.1
844.1657	0.2532
844.3311	-0.2426
844.4964	0.5363
844.6617	-0
844.827	1.1845
844.9923	0.2513
845.1575	-0
845.3227	-0.2893
845.4879	0.0384
845.6531	-0.4123
845.8183	-0.1401
845.9834	-0.2988
846.1485	-0.1138
846.3136	0.2306
846.4787	0.4022
846.6438	0.1373
846.8088	-0.2863
846.9738	-0
847.1388	0.0251
847.3038	-0.0384
847.4687	-0
847.6337	-0.0212
847.7986	0.1379
847.9635	-0.1879
848.1284	0.0462
848.2932	-0.2043
848.458	-0.2348
848.6228	0.1072
848.7876	-0.1428
848.9524	0.0442
849.1172	-0.2005
849.2819	-0.0087
849.4466	0.1255
849.6113	-0.1632
849.7759	-0
849.9406	-0.337
850.1052	-0.5537
850.2698	-1.4523
850.4344	0.2277
850.599	0.2131
850.7635	0.4886
850.928	0.2026
851.0925	-0.1257
851.257	-0.2284
851.4215	0.1091
851.5859	0.103
851.7503	-0
851.9147	-0
852.0791	-0.1107
852.2434	0.326
852.4078	-0
852.5721	-0.2379
852.7364	0.3107
852.9007	-0.4392
853.0649	-0.0917
853.2291	0.1595
853.3934	-0.0113
853.5575	-0.1554
853.7217	-0.4901
853.8859	-0
854.05	-1.0389
854.2141	-0
854.3782	-0
854.5423	-0.7013
854.7063	-0.0679
854.8703	-0.1444
855.0343	0.1091
855.1983	-0.131
855.3623	0.1278
855.5262	-0.205
855.6901	0.2906
855.854	-0.0619
856.0179	-0
856.1818	-0
856.3456	-0
856.5094	-0
856.6732	-0.7773
856.837	0.1271
857.0008	-0.1987
857.1645	-0
857.3282	-0.1074
857.4919	0.043
857.6556	0.1587
857.8192	-0.2122
857.9828	-0.2698
858.1465	-0
858.31	-0
858.4736	0.6219
858.6372	0.1568
858.8007	-1.5794
858.9642	0.2302
859.1277	-0.6619
859.2911	0.0948
859.4546	-0
859.618	-0.0982
859.7814	-0
859.9448	-0
860.1081	-0
860.2715	0.2438
860.4348	0.1253
860.5981	-0
860.7614	0.2636
860.9246	-0.3967
861.0879	-0.2513
861.2511	-0.0417
861.4143	0.8134
861.5774	0.6939
861.7406	-0.5554
861.9037	1.0257
862.0668	-0.8647
862.2299	-1.4723
862.393	0.6101
862.556	0.8999
862.7191	-0.1299
862.8821	-0.2242
863.0451	0.3701
863.208	1.534
863.371	0.1172
863.5339	-0.0692
863.6968	-0.747
863.8597	-0.9766
864.0225	0.0885
864.1854	0.2636
864.3482	-0.1085
864.511	-0.2939
864.6737	-0
864.8365	0.187
864.9992	-0
865.1619	-0.2284
865.3246	-0
865.4873	-0
865.65	-1.1453
865.8126	0.3845
865.9752	0.1371
866.1378	-0.5615
866.3004	0.385
866.4629	-0.0825
866.6254	-0
866.7879	0.1558
866.9504	-0
867.1129	0.0762
867.2753	-0.1166
867.4377	0.324
867.6001	0.8256
867.7625	-0.084
867.9249	-0
868.0872	0.1443
868.2495	-0
868.4118	0.0733
868.5741	-0
868.7363	-0
868.8986	-0.1016
869.0608	-0.084
869.223	-0.234
869.3851	-0
869.5473	-1.2091
869.7094	1.5911
869.8715	-0.1539
870.0336	0.1741
870.1957	0.6734
870.3577	-0.0372
870.5197	-0.1068
870.6817	-0
870.8437	0.5682
871.0057	-0
871.1676	0.3498
871.3295	-0
871.4914	0.9012
871.6533	0.0526
871.8151	-0
871.977	0.5075
872.1388	-0.9567
872.3006	-0.0827
872.4623	-0.815
872.6241	-1.9716
872.7858	-0.0872
872.9475	-0
873.1092	0.1276
873.2709	0.296
873.4325	-0
873.5941	-0
873.7557	-0
873.9173	-0.5869
874.0789	-0.1453
874.2404	-0.3167
874.4019	-0.0098
874.5634	-0.2629
874.7249	-0
874.8863	-0
875.0478	-0.0209
875.2092	-0
875.3706	-0
875.5319	0.1736
875.6933	0.5321
875.8546	-0.3707
876.0159	0.1213
876.1772	-0
876.3385	-0
876.4997	-0
876.6609	-0.4993
876.8221	0.2619
876.9833	0.0251
877.1445	0.3041
877.3056	-0
877.4667	-0
877.6278	-0
877.7889	0.3469
877.9499	-0
878.111	-0.0083
878.272	-0.5349
878.433	-0.3701
878.5939	-0
878.7549	-0.9924
878.9158	-0
879.0767	0.0306
879.2376	-0
879.3984	-0.2872
879.5593	-0.4958
879.7201	-0.5544
879.8809	-0
880.0417	0.3359
880.2024	0.0868
880.3632	-0.4067
880.5239	-0.2725
880.6846	-0.6069
880.8452	0.1876
881.0059	-0
881.1665	0.165
881.3271	-0
881.4877	0.1775
881.6483	-1.6104
881.8088	-0.2802
881.9693	0.1533
882.1298	0.1533
882.2903	0.1533
