Data from D4ACN5uM480nmA_Absorbance_12-08-01-690.txt Node
Date: Fri Feb 21 12:08:01 GMT 2025
User: LASERRRRR
Spectrometer: FLMT03099
Trigger mode: 0
Integration Time (sec): 1.500000E-2
Scans to average: 1
Electric dark correction enabled: true
Nonlinearity correction enabled: false
Boxcar width: 0
XAxis mode: Wavelengths
Number of Pixels in Spectrum: 3648
>>>>>Begin Spectral Data<<<<<
179.3399	0.2704
179.5586	0.2704
179.7771	0.2704
179.9957	0.0803
180.2143	1.1761
180.4329	-0
180.6514	0.0897
180.8699	-0
181.0885	0.5759
181.307	-0
181.5255	0.0722
181.744	-0.3515
181.9625	0.1057
182.181	1.4601
182.3994	-0
182.6179	-0
182.8363	1.1078
183.0547	-0.0189
183.2732	0.0614
183.4916	0.2594
183.71	0.4641
183.9284	0.1813
184.1467	0.0013
184.3651	0.4134
184.5835	0.1232
184.8018	0.1383
185.0201	0.1276
185.2385	0.0717
185.4568	0.2148
185.6751	0.2741
185.8934	0.1355
186.1117	0.4808
186.3299	0.1213
186.5482	0.1243
186.7664	0.3584
186.9847	0.2667
187.2029	0.1542
187.4211	0.0812
187.6393	0.7911
187.8575	0.1742
188.0757	0.7204
188.2939	0.0076
188.512	0.1219
188.7302	0.2413
188.9483	0.3476
189.1665	1.0655
189.3846	0.0364
189.6027	0.214
189.8208	0.3426
190.0389	0.3238
190.257	0.112
190.475	0.308
190.6931	0.2253
190.9111	0.3013
191.1292	0.2968
191.3472	0.3308
191.5652	0.9705
191.7832	0.1595
192.0012	0.8025
192.2192	0.1661
192.4371	0.2617
192.6551	0.2301
192.873	0.2937
193.091	0.4019
193.3089	0.2871
193.5268	0.7899
193.7447	0.5102
193.9626	0.3686
194.1805	0.4583
194.3984	0.3757
194.6162	0.4274
194.8341	0.8046
195.0519	0.5119
195.2697	0.5715
195.4875	0.5987
195.7054	0.5649
195.9231	0.4903
196.1409	0.8057
196.3587	0.5948
196.5765	0.7734
196.7942	0.6909
197.012	0.4721
197.2297	0.5425
197.4474	0.7482
197.6651	0.5382
197.8828	0.7125
198.1005	0.6919
198.3182	0.591
198.5358	0.5309
198.7535	0.6074
198.9711	0.6663
199.1888	0.7017
199.4064	0.5925
199.624	0.5646
199.8416	0.5071
200.0592	0.6404
200.2767	0.5482
200.4943	0.665
200.7119	0.5811
200.9294	0.6591
201.1469	0.5979
201.3645	0.6298
201.582	0.506
201.7995	0.6117
202.017	0.5164
202.2344	0.5721
202.4519	0.6157
202.6694	0.6383
202.8868	0.5152
203.1042	0.5549
203.3217	0.5255
203.5391	0.4863
203.7565	0.5229
203.9739	0.5025
204.1913	0.5103
204.4086	0.5492
204.626	0.5329
204.8433	0.5193
205.0607	0.5119
205.278	0.5566
205.4953	0.4733
205.7126	0.4898
205.9299	0.4688
206.1472	0.51
206.3644	0.4675
206.5817	0.51
206.7989	0.4756
207.0162	0.4349
207.2334	0.4604
207.4506	0.4332
207.6678	0.46
207.885	0.4584
208.1022	0.4396
208.3194	0.4289
208.5365	0.4481
208.7537	0.4545
208.9708	0.4505
209.1879	0.4356
209.405	0.4277
209.6222	0.4078
209.8392	0.4245
210.0563	0.394
210.2734	0.4021
210.4905	0.4588
210.7075	0.4068
210.9245	0.4064
211.1416	0.3966
211.3586	0.3995
211.5756	0.4172
211.7926	0.454
212.0096	0.414
212.2265	0.4073
212.4435	0.411
212.6604	0.3946
212.8774	0.4298
213.0943	0.4251
213.3112	0.4329
213.5281	0.4095
213.745	0.4005
213.9619	0.3827
214.1788	0.3861
214.3956	0.4159
214.6125	0.4013
214.8293	0.4054
215.0461	0.4216
215.2629	0.4088
215.4798	0.3912
215.6965	0.3768
215.9133	0.408
216.1301	0.3884
216.3469	0.3991
216.5636	0.3967
216.7803	0.4107
216.9971	0.4336
217.2138	0.4215
217.4305	0.4004
217.6472	0.4049
217.8639	0.4165
218.0805	0.4118
218.2972	0.4175
218.5138	0.4259
218.7305	0.4264
218.9471	0.4071
219.1637	0.3964
219.3803	0.4197
219.5969	0.4266
219.8135	0.4227
220.0301	0.4288
220.2466	0.4487
220.4632	0.4266
220.6797	0.4413
220.8962	0.4451
221.1127	0.4092
221.3292	0.426
221.5457	0.4207
221.7622	0.4265
221.9787	0.4474
222.1951	0.421
222.4116	0.4486
222.628	0.4559
222.8444	0.4452
223.0608	0.446
223.2772	0.4548
223.4936	0.4582
223.71	0.4487
223.9264	0.4385
224.1427	0.4515
224.3591	0.4556
224.5754	0.4695
224.7917	0.4464
225.008	0.4466
225.2243	0.4692
225.4406	0.4667
225.6569	0.4597
225.8732	0.4753
226.0894	0.4578
226.3057	0.46
226.5219	0.4718
226.7381	0.4667
226.9543	0.4699
227.1705	0.4823
227.3867	0.483
227.6029	0.473
227.8191	0.4671
228.0352	0.5107
228.2513	0.5067
228.4675	0.5019
228.6836	0.4899
228.8997	0.4943
229.1158	0.4932
229.3319	0.4964
229.548	0.4918
229.764	0.5059
229.9801	0.5082
230.1961	0.5014
230.4121	0.5118
230.6282	0.5169
230.8442	0.5085
231.0602	0.5241
231.2761	0.5193
231.4921	0.5222
231.7081	0.5068
231.924	0.5215
232.14	0.525
232.3559	0.5292
232.5718	0.5401
232.7877	0.5362
233.0036	0.5189
233.2195	0.5172
233.4353	0.5302
233.6512	0.541
233.867	0.5478
234.0829	0.5307
234.2987	0.5294
234.5145	0.5273
234.7303	0.5316
234.9461	0.5314
235.1619	0.5393
235.3776	0.5328
235.5934	0.5372
235.8091	0.5389
236.0249	0.5368
236.2406	0.5381
236.4563	0.5404
236.672	0.5319
236.8877	0.5421
237.1034	0.533
237.319	0.5397
237.5347	0.5248
237.7503	0.5439
237.966	0.544
238.1816	0.5336
238.3972	0.5387
238.6128	0.5417
238.8284	0.5254
239.0439	0.5464
239.2595	0.529
239.475	0.5261
239.6906	0.5374
239.9061	0.5276
240.1216	0.5371
240.3371	0.5193
240.5526	0.5113
240.7681	0.5233
240.9836	0.5216
241.199	0.5203
241.4145	0.5084
241.6299	0.5003
241.8453	0.4899
242.0607	0.4826
242.2761	0.49
242.4915	0.4836
242.7069	0.4677
242.9223	0.472
243.1376	0.4539
243.353	0.4521
243.5683	0.4486
243.7836	0.4174
243.9989	0.4223
244.2142	0.4264
244.4295	0.4082
244.6448	0.3975
244.86	0.3928
245.0753	0.3862
245.2905	0.3716
245.5057	0.3732
245.721	0.3591
245.9362	0.3506
246.1514	0.3457
246.3665	0.3389
246.5817	0.3333
246.7969	0.3293
247.012	0.3219
247.2271	0.3072
247.4423	0.3097
247.6574	0.3068
247.8725	0.3065
248.0876	0.2963
248.3026	0.2829
248.5177	0.2736
248.7328	0.283
248.9478	0.2681
249.1628	0.2609
249.3779	0.2682
249.5929	0.256
249.8079	0.2525
250.0228	0.2544
250.2378	0.254
250.4528	0.2481
250.6677	0.2352
250.8827	0.2401
251.0976	0.2407
251.3125	0.2348
251.5274	0.2325
251.7423	0.2278
251.9572	0.2265
252.172	0.2093
252.3869	0.2212
252.6017	0.2101
252.8166	0.219
253.0314	0.2146
253.2462	0.2165
253.461	0.2147
253.6758	0.2091
253.8906	0.2023
254.1053	0.2049
254.3201	0.2071
254.5348	0.2019
254.7496	0.2022
254.9643	0.2073
255.179	0.1982
255.3937	0.2029
255.6083	0.197
255.823	0.1952
256.0377	0.2012
256.2523	0.1939
256.467	0.1955
256.6816	0.1971
256.8962	0.1959
257.1108	0.1923
257.3254	0.1947
257.54	0.1911
257.7545	0.1951
257.9691	0.1901
258.1836	0.1882
258.3981	0.1879
258.6127	0.1816
258.8272	0.1853
259.0417	0.1833
259.2561	0.1871
259.4706	0.1896
259.6851	0.1836
259.8995	0.1825
260.114	0.1846
260.3284	0.1843
260.5428	0.1842
260.7572	0.1879
260.9716	0.1827
261.186	0.1798
261.4003	0.1904
261.6147	0.1808
261.829	0.1824
262.0433	0.1803
262.2577	0.1861
262.472	0.1902
262.6863	0.182
262.9005	0.1898
263.1148	0.1854
263.3291	0.1897
263.5433	0.1844
263.7576	0.1842
263.9718	0.1889
264.186	0.1802
264.4002	0.1792
264.6144	0.1838
264.8286	0.1942
265.0427	0.1931
265.2569	0.1878
265.471	0.185
265.6851	0.1894
265.8993	0.1849
266.1134	0.1853
266.3275	0.1864
266.5415	0.1847
266.7556	0.1809
266.9697	0.1807
267.1837	0.1828
267.3978	0.1919
267.6118	0.1826
267.8258	0.1856
268.0398	0.1864
268.2538	0.19
268.4677	0.1851
268.6817	0.1799
268.8957	0.1864
269.1096	0.1758
269.3235	0.1838
269.5374	0.1832
269.7514	0.1796
269.9652	0.1836
270.1791	0.1852
270.393	0.1843
270.6068	0.1756
270.8207	0.177
271.0345	0.1789
271.2483	0.1767
271.4622	0.1761
271.676	0.174
271.8897	0.177
272.1035	0.1712
272.3173	0.1743
272.531	0.1789
272.7448	0.1769
272.9585	0.1765
273.1722	0.1765
273.3859	0.1703
273.5996	0.1684
273.8133	0.1682
274.0269	0.1758
274.2406	0.175
274.4542	0.1657
274.6679	0.1769
274.8815	0.1707
275.0951	0.1688
275.3087	0.1782
275.5223	0.175
275.7358	0.1767
275.9494	0.1717
276.1629	0.1742
276.3765	0.1727
276.59	0.1708
276.8035	0.1781
277.017	0.1745
277.2305	0.179
277.444	0.1738
277.6574	0.1794
277.8709	0.1771
278.0843	0.1727
278.2978	0.1773
278.5112	0.1795
278.7246	0.1844
278.938	0.1796
279.1513	0.1768
279.3647	0.1796
279.5781	0.1802
279.7914	0.1836
280.0047	0.1818
280.2181	0.1781
280.4314	0.1764
280.6447	0.1819
280.8579	0.1817
281.0712	0.1793
281.2845	0.1877
281.4977	0.1863
281.711	0.183
281.9242	0.1814
282.1374	0.1812
282.3506	0.1912
282.5638	0.1868
282.7769	0.1827
282.9901	0.1788
283.2033	0.1807
283.4164	0.1849
283.6295	0.1848
283.8426	0.1873
284.0557	0.1808
284.2688	0.1904
284.4819	0.1871
284.695	0.1951
284.908	0.1883
285.1211	0.193
285.3341	0.191
285.5471	0.1893
285.7601	0.1932
285.9731	0.1896
286.1861	0.1929
286.3991	0.1943
286.612	0.1971
286.825	0.1957
287.0379	0.198
287.2508	0.1962
287.4637	0.1967
287.6766	0.194
287.8895	0.1939
288.1024	0.1977
288.3152	0.1923
288.5281	0.1994
288.7409	0.1991
288.9538	0.1985
289.1666	0.2034
289.3794	0.1959
289.5922	0.1984
289.8049	0.203
290.0177	0.2021
290.2304	0.1983
290.4432	0.2095
290.6559	0.195
290.8686	0.2015
291.0813	0.2
291.294	0.2036
291.5067	0.2007
291.7194	0.1986
291.932	0.205
292.1447	0.201
292.3573	0.2013
292.5699	0.1979
292.7825	0.2008
292.9951	0.1999
293.2077	0.2006
293.4203	0.2025
293.6328	0.1973
293.8454	0.1971
294.0579	0.1992
294.2704	0.1968
294.4829	0.2018
294.6954	0.193
294.9079	0.2006
295.1204	0.1949
295.3328	0.201
295.5453	0.2022
295.7577	0.1966
295.9701	0.2032
296.1825	0.1962
296.3949	0.2067
296.6073	0.2022
296.8197	0.1973
297.0321	0.2013
297.2444	0.1989
297.4567	0.1967
297.6691	0.1998
297.8814	0.1948
298.0937	0.1994
298.306	0.1962
298.5182	0.2015
298.7305	0.1979
298.9428	0.1998
299.155	0.2002
299.3672	0.2018
299.5794	0.1949
299.7916	0.2034
300.0038	0.194
300.216	0.198
300.4282	0.1922
300.6403	0.1985
300.8525	0.2026
301.0646	0.1935
301.2767	0.1931
301.4888	0.1961
301.7009	0.2003
301.913	0.2064
302.125	0.202
302.3371	0.1945
302.5491	0.2003
302.7612	0.1971
302.9732	0.1929
303.1852	0.1892
303.3972	0.1961
303.6092	0.1948
303.8211	0.189
304.0331	0.1879
304.245	0.1953
304.457	0.1979
304.6689	0.1886
304.8808	0.1871
305.0927	0.1944
305.3046	0.1896
305.5164	0.1862
305.7283	0.1879
305.9401	0.1802
306.152	0.1796
306.3638	0.1824
306.5756	0.1797
306.7874	0.1819
306.9992	0.1787
307.2109	0.1692
307.4227	0.172
307.6344	0.1744
307.8462	0.1681
308.0579	0.1686
308.2696	0.1669
308.4813	0.1599
308.693	0.1636
308.9046	0.1628
309.1163	0.1658
309.328	0.1582
309.5396	0.1628
309.7512	0.1577
309.9628	0.1528
310.1744	0.1537
310.386	0.1447
310.5976	0.1472
310.8091	0.1502
311.0207	0.1492
311.2322	0.1454
311.4437	0.1442
311.6552	0.1466
311.8667	0.1329
312.0782	0.142
312.2897	0.142
312.5012	0.1386
312.7126	0.1342
312.924	0.137
313.1355	0.1285
313.3469	0.1305
313.5583	0.1309
313.7696	0.1247
313.981	0.1255
314.1924	0.1236
314.4037	0.1166
314.6151	0.1275
314.8264	0.1254
315.0377	0.1285
315.249	0.126
315.4603	0.119
315.6716	0.1232
315.8828	0.1221
316.0941	0.1227
316.3053	0.1205
316.5165	0.1211
316.7277	0.12
316.9389	0.1162
317.1501	0.1207
317.3613	0.1093
317.5724	0.1199
317.7836	0.1171
317.9947	0.1132
318.2058	0.1184
318.417	0.1207
318.6281	0.1193
318.8391	0.1227
319.0502	0.1164
319.2613	0.1238
319.4723	0.1169
319.6834	0.1186
319.8944	0.1214
320.1054	0.1131
320.3164	0.1157
320.5274	0.1079
320.7383	0.1141
320.9493	0.1182
321.1602	0.1183
321.3712	0.1157
321.5821	0.1189
321.793	0.118
322.0039	0.1186
322.2148	0.1177
322.4257	0.1155
322.6365	0.1184
322.8474	0.1161
323.0582	0.1185
323.269	0.1169
323.4798	0.1164
323.6906	0.1178
323.9014	0.1126
324.1122	0.1122
324.3229	0.1205
324.5337	0.118
324.7444	0.1163
324.9551	0.1168
325.1658	0.1189
325.3765	0.1157
325.5872	0.1147
325.7979	0.1184
326.0085	0.1177
326.2192	0.1166
326.4298	0.1204
326.6404	0.1175
326.851	0.1208
327.0616	0.1231
327.2722	0.1245
327.4828	0.1175
327.6933	0.1191
327.9039	0.1249
328.1144	0.1208
328.3249	0.1181
328.5354	0.1162
328.7459	0.115
328.9564	0.1292
329.1669	0.1261
329.3773	0.1243
329.5878	0.1275
329.7982	0.123
330.0086	0.1215
330.219	0.1247
330.4294	0.1227
330.6398	0.1239
330.8502	0.1249
331.0605	0.1183
331.2708	0.1258
331.4812	0.1186
331.6915	0.1203
331.9018	0.1211
332.1121	0.1255
332.3224	0.1249
332.5326	0.1266
332.7429	0.1281
332.9531	0.1257
333.1633	0.1281
333.3735	0.1237
333.5837	0.132
333.7939	0.1312
334.0041	0.1234
334.2143	0.1248
334.4244	0.1186
334.6346	0.1221
334.8447	0.1264
335.0548	0.1274
335.2649	0.1242
335.475	0.1285
335.685	0.127
335.8951	0.1309
336.1051	0.1335
336.3152	0.1295
336.5252	0.1288
336.7352	0.1175
336.9452	0.1345
337.1552	0.1321
337.3652	0.1327
337.5751	0.1298
337.7851	0.1254
337.995	0.1314
338.2049	0.131
338.4148	0.1311
338.6247	0.1352
338.8346	0.1299
339.0445	0.1288
339.2543	0.1376
339.4642	0.1294
339.674	0.1327
339.8838	0.1309
340.0936	0.1299
340.3034	0.137
340.5132	0.1306
340.7229	0.1407
340.9327	0.1415
341.1424	0.1381
341.3522	0.1374
341.5619	0.133
341.7716	0.1371
341.9813	0.1362
342.1909	0.1381
342.4006	0.141
342.6102	0.1387
342.8199	0.1381
343.0295	0.1431
343.2391	0.1422
343.4487	0.1456
343.6583	0.1469
343.8679	0.1499
344.0774	0.1432
344.287	0.1379
344.4965	0.1471
344.706	0.1471
344.9155	0.1458
345.125	0.1535
345.3345	0.1441
345.544	0.1484
345.7534	0.1561
345.9629	0.1525
346.1723	0.1507
346.3817	0.1498
346.5911	0.1505
346.8005	0.1504
347.0099	0.1493
347.2193	0.1481
347.4286	0.1552
347.638	0.1505
347.8473	0.1576
348.0566	0.1577
348.2659	0.1603
348.4752	0.1534
348.6845	0.164
348.8937	0.1557
349.103	0.161
349.3122	0.1572
349.5214	0.159
349.7306	0.1613
349.9398	0.1633
350.149	0.1612
350.3582	0.164
350.5674	0.1647
350.7765	0.1612
350.9856	0.1642
351.1948	0.1602
351.4039	0.169
351.613	0.1747
351.822	0.1645
352.0311	0.166
352.2402	0.1729
352.4492	0.1715
352.6582	0.1661
352.8672	0.1706
353.0762	0.1757
353.2852	0.1726
353.4942	0.1685
353.7032	0.1736
353.9121	0.1735
354.1211	0.1711
354.33	0.1795
354.5389	0.1793
354.7478	0.1746
354.9567	0.1719
355.1655	0.1725
355.3744	0.1748
355.5833	0.1825
355.7921	0.1832
356.0009	0.1822
356.2097	0.1884
356.4185	0.1928
356.6273	0.1782
356.8361	0.1911
357.0448	0.1875
357.2536	0.1918
357.4623	0.1895
357.671	0.1934
357.8797	0.189
358.0884	0.1927
358.2971	0.1937
358.5057	0.1893
358.7144	0.1939
358.923	0.1892
359.1316	0.1922
359.3402	0.1985
359.5488	0.1968
359.7574	0.1937
359.966	0.2002
360.1746	0.1984
360.3831	0.2142
360.5916	0.2058
360.8002	0.2135
361.0087	0.2151
361.2172	0.212
361.4256	0.1977
361.6341	0.2152
361.8426	0.2116
362.051	0.207
362.2594	0.2133
362.4678	0.2145
362.6762	0.2129
362.8846	0.2198
363.093	0.2186
363.3014	0.2265
363.5097	0.2211
363.718	0.2321
363.9264	0.2246
364.1347	0.229
364.343	0.2253
364.5513	0.2331
364.7595	0.2338
364.9678	0.2275
365.176	0.2261
365.3842	0.2307
365.5925	0.2252
365.8007	0.2327
366.0089	0.2383
366.217	0.2344
366.4252	0.2353
366.6333	0.2307
366.8415	0.234
367.0496	0.2369
367.2577	0.2419
367.4658	0.2427
367.6739	0.2482
367.882	0.2493
368.09	0.2425
368.2981	0.2373
368.5061	0.2424
368.7141	0.251
368.9221	0.2489
369.1301	0.2506
369.3381	0.2596
369.5461	0.2543
369.754	0.2501
369.962	0.2506
370.1699	0.2613
370.3778	0.2515
370.5857	0.2516
370.7936	0.265
371.0015	0.2589
371.2093	0.2588
371.4172	0.258
371.625	0.2698
371.8328	0.2691
372.0406	0.2748
372.2484	0.2568
372.4562	0.2632
372.664	0.2724
372.8717	0.2704
373.0795	0.2691
373.2872	0.2712
373.4949	0.2727
373.7026	0.2772
373.9103	0.2691
374.118	0.2761
374.3256	0.2827
374.5333	0.2807
374.7409	0.2721
374.9485	0.2733
375.1561	0.2815
375.3637	0.276
375.5713	0.2719
375.7789	0.2771
375.9864	0.2861
376.194	0.2824
376.4015	0.2807
376.609	0.288
376.8165	0.3033
377.024	0.2877
377.2315	0.2951
377.4389	0.2815
377.6464	0.2981
377.8538	0.2882
378.0612	0.2819
378.2686	0.2901
378.476	0.2882
378.6834	0.2804
378.8908	0.2995
379.0981	0.3038
379.3055	0.301
379.5128	0.2998
379.7201	0.2902
379.9274	0.2834
380.1347	0.2976
380.342	0.3037
380.5492	0.2963
380.7565	0.3034
380.9637	0.2925
381.1709	0.3043
381.3781	0.3005
381.5853	0.299
381.7925	0.3059
381.9997	0.3069
382.2068	0.3034
382.4139	0.3098
382.6211	0.311
382.8282	0.3034
383.0353	0.3149
383.2424	0.3134
383.4494	0.3078
383.6565	0.3126
383.8635	0.315
384.0706	0.3156
384.2776	0.3211
384.4846	0.3115
384.6916	0.3099
384.8986	0.325
385.1055	0.323
385.3125	0.3082
385.5194	0.3136
385.7263	0.3068
385.9333	0.3106
386.1402	0.3153
386.347	0.3218
386.5539	0.3184
386.7608	0.3154
386.9676	0.3112
387.1744	0.3136
387.3813	0.3152
387.5881	0.3166
387.7948	0.2992
388.0016	0.3146
388.2084	0.3126
388.4151	0.3243
388.6219	0.317
388.8286	0.3177
389.0353	0.3088
389.242	0.3087
389.4487	0.3028
389.6553	0.2975
389.862	0.3132
390.0686	0.3105
390.2753	0.3001
390.4819	0.3054
390.6885	0.3061
390.8951	0.3089
391.1016	0.3044
391.3082	0.2909
391.5147	0.3028
391.7213	0.3019
391.9278	0.298
392.1343	0.2984
392.3408	0.2936
392.5473	0.2981
392.7537	0.2914
392.9602	0.2896
393.1666	0.2951
393.373	0.299
393.5794	0.2887
393.7858	0.2877
393.9922	0.2885
394.1986	0.2834
394.4049	0.2801
394.6113	0.2909
394.8176	0.2699
395.0239	0.2815
395.2302	0.2725
395.4365	0.2874
395.6428	0.28
395.8491	0.2738
396.0553	0.2797
396.2615	0.268
396.4678	0.2711
396.674	0.2699
396.8802	0.2741
397.0863	0.2705
397.2925	0.2763
397.4987	0.2665
397.7048	0.2801
397.9109	0.2711
398.117	0.2566
398.3231	0.2814
398.5292	0.274
398.7353	0.2601
398.9413	0.267
399.1474	0.2847
399.3534	0.2745
399.5594	0.2725
399.7654	0.2749
399.9714	0.2781
400.1774	0.2662
400.3833	0.2748
400.5893	0.2712
400.7952	0.2689
401.0011	0.2649
401.207	0.2738
401.4129	0.2706
401.6188	0.2607
401.8247	0.2673
402.0305	0.2593
402.2364	0.2689
402.4422	0.2669
402.648	0.2765
402.8538	0.2762
403.0596	0.2595
403.2654	0.2616
403.4711	0.2604
403.6768	0.2667
403.8826	0.2725
404.0883	0.2664
404.294	0.2703
404.4997	0.2708
404.7054	0.2683
404.911	0.2676
405.1167	0.276
405.3223	0.2665
405.5279	0.2715
405.7335	0.2646
405.9391	0.2606
406.1447	0.2688
406.3502	0.263
406.5558	0.2719
406.7613	0.2728
406.9668	0.2644
407.1724	0.2702
407.3778	0.2688
407.5833	0.2697
407.7888	0.2792
407.9942	0.2635
408.1997	0.2701
408.4051	0.2798
408.6105	0.2678
408.8159	0.2761
409.0213	0.2755
409.2267	0.2736
409.432	0.2644
409.6374	0.2779
409.8427	0.2714
410.048	0.2629
410.2533	0.2729
410.4586	0.275
410.6639	0.2664
410.8691	0.2809
411.0744	0.265
411.2796	0.2686
411.4848	0.2572
411.69	0.2678
411.8952	0.2721
412.1004	0.2635
412.3056	0.263
412.5107	0.2701
412.7158	0.2738
412.921	0.2636
413.1261	0.2635
413.3312	0.26
413.5362	0.2628
413.7413	0.2711
413.9464	0.2683
414.1514	0.2644
414.3564	0.2597
414.5614	0.2644
414.7664	0.2687
414.9714	0.2613
415.1764	0.2534
415.3813	0.2528
415.5863	0.2677
415.7912	0.2679
415.9961	0.2643
416.201	0.256
416.4059	0.252
416.6108	0.2556
416.8156	0.2544
417.0205	0.2513
417.2253	0.262
417.4301	0.2675
417.6349	0.2549
417.8397	0.2685
418.0445	0.262
418.2492	0.2601
418.454	0.2573
418.6587	0.2635
418.8634	0.2574
419.0681	0.2458
419.2728	0.2488
419.4775	0.2582
419.6822	0.2528
419.8868	0.2506
420.0915	0.2585
420.2961	0.2321
420.5007	0.251
420.7053	0.2427
420.9099	0.2409
421.1144	0.2428
421.319	0.241
421.5235	0.2453
421.728	0.2428
421.9325	0.2414
422.137	0.2481
422.3415	0.2356
422.546	0.2299
422.7504	0.243
422.9549	0.2322
423.1593	0.2454
423.3637	0.2226
423.5681	0.2435
423.7725	0.2365
423.9769	0.2344
424.1812	0.2422
424.3856	0.2371
424.5899	0.2374
424.7942	0.2289
424.9985	0.2297
425.2028	0.2411
425.4071	0.2134
425.6113	0.2287
425.8156	0.2238
426.0198	0.2276
426.224	0.2274
426.4282	0.2303
426.6324	0.2162
426.8366	0.2203
427.0407	0.2191
427.2449	0.2165
427.449	0.2201
427.6531	0.2163
427.8572	0.2147
428.0613	0.2146
428.2654	0.215
428.4694	0.1993
428.6735	0.2054
428.8775	0.2093
429.0815	0.213
429.2855	0.2028
429.4895	0.1975
429.6935	0.1986
429.8975	0.2034
430.1014	0.1989
430.3053	0.193
430.5093	0.2041
430.7132	0.1969
430.9171	0.1882
431.1209	0.1926
431.3248	0.1904
431.5286	0.1792
431.7325	0.1864
431.9363	0.1897
432.1401	0.1876
432.3439	0.1797
432.5477	0.1819
432.7514	0.1831
432.9552	0.173
433.1589	0.1669
433.3627	0.174
433.5664	0.1669
433.7701	0.1813
433.9737	0.1657
434.1774	0.169
434.3811	0.1714
434.5847	0.1539
434.7883	0.1607
434.9919	0.1511
435.1955	0.1566
435.3991	0.16
435.6027	0.1517
435.8062	0.1515
436.0098	0.1529
436.2133	0.1554
436.4168	0.1544
436.6203	0.1442
436.8238	0.1409
437.0272	0.1423
437.2307	0.1236
437.4341	0.1344
437.6375	0.121
437.841	0.1296
438.0443	0.1358
438.2477	0.1272
438.4511	0.1351
438.6545	0.1311
438.8578	0.1269
439.0611	0.1303
439.2644	0.1227
439.4677	0.1231
439.671	0.1087
439.8743	0.1198
440.0775	0.112
440.2808	0.1217
440.484	0.1128
440.6872	0.1133
440.8904	0.1054
441.0936	0.1064
441.2967	0.104
441.4999	0.1052
441.703	0.1018
441.9062	0.0999
442.1093	0.1053
442.3124	0.1053
442.5155	0.0925
442.7185	0.0877
442.9216	0.0874
443.1246	0.1027
443.3276	0.0835
443.5307	0.0925
443.7337	0.0818
443.9366	0.0905
444.1396	0.0834
444.3426	0.0846
444.5455	0.0785
444.7484	0.0819
444.9513	0.0856
445.1542	0.0751
445.3571	0.0704
445.56	0.0763
445.7628	0.0695
445.9657	0.0794
446.1685	0.0705
446.3713	0.069
446.5741	0.057
446.7769	0.0755
446.9797	0.0655
447.1824	0.0694
447.3852	0.0592
447.5879	0.0648
447.7906	0.0577
447.9933	0.0683
448.196	0.0564
448.3986	0.0573
448.6013	0.0517
448.8039	0.0581
449.0066	0.0593
449.2092	0.0489
449.4118	0.0569
449.6143	0.051
449.8169	0.057
450.0195	0.0533
450.222	0.0505
450.4245	0.0551
450.627	0.048
450.8295	0.0403
451.032	0.0492
451.2345	0.0501
451.4369	0.0407
451.6394	0.0498
451.8418	0.0537
452.0442	0.0378
452.2466	0.0426
452.449	0.0322
452.6513	0.0316
452.8537	0.0543
453.056	0.0515
453.2583	0.0376
453.4607	0.0358
453.663	0.0297
453.8652	0.0371
454.0675	0.0354
454.2697	0.0441
454.472	0.0303
454.6742	0.0194
454.8764	0.0342
455.0786	0.0266
455.2808	0.0309
455.4829	0.0332
455.6851	0.019
455.8872	0.0301
456.0893	0.0376
456.2915	0.0207
456.4935	0.0234
456.6956	0.0319
456.8977	0.0149
457.0997	0.0326
457.3018	0.0268
457.5038	0.0257
457.7058	0.0208
457.9078	0.0258
458.1098	0.0298
458.3117	0.0264
458.5137	0.0326
458.7156	0.0354
458.9175	0.0149
459.1194	0.0224
459.3213	0.019
459.5232	0.0203
459.725	0.0278
459.9269	0.0215
460.1287	0.0123
460.3305	0.0135
460.5323	0.0121
460.7341	0.0163
460.9359	0.0125
461.1376	0.0198
461.3394	0.0149
461.5411	0.0197
461.7428	0.0092
461.9445	0.0169
462.1462	0.0111
462.3479	0.0146
462.5495	0.018
462.7512	0.013
462.9528	0.012
463.1544	0.015
463.356	0.0131
463.5576	0.0029
463.7592	0.0066
463.9607	0.0087
464.1623	0.0207
464.3638	0.0129
464.5653	0.0109
464.7668	0.0091
464.9683	0.0118
465.1697	0.0122
465.3712	0.006
465.5726	0.0145
465.7741	0.009
465.9755	0.0171
466.1769	0.0093
466.3782	0.0111
466.5796	0.0135
466.7809	0.0151
466.9823	0.0016
467.1836	0.0153
467.3849	0.0117
467.5862	0.0028
467.7875	0.0123
467.9887	0.0175
468.19	-0.0001
468.3912	0.0059
468.5924	0.016
468.7936	0.0041
468.9948	0.006
469.196	0.0067
469.3972	0.0177
469.5983	0.0092
469.7994	0.0092
470.0006	0.0075
470.2017	0.005
470.4027	0.0061
470.6038	-0.0049
470.8049	0.0083
471.0059	0.0103
471.2069	0.0084
471.408	0.0058
471.6089	0.0071
471.8099	0.0053
472.0109	0.0065
472.2119	0.0228
472.4128	0.0092
472.6137	0.01
472.8146	0.0051
473.0155	0.004
473.2164	-0.0091
473.4173	0.0128
473.6181	0.0021
473.819	0.0045
474.0198	0.007
474.2206	0.001
474.4214	0.0193
474.6222	0.0065
474.8229	0.0116
475.0237	-0.0006
475.2244	0.0141
475.4251	0.0033
475.6258	0.006
475.8265	-0.0012
476.0272	0.0055
476.2278	0.0038
476.4285	0.0057
476.6291	0.0041
476.8297	-0.0012
477.0303	-0.0013
477.2309	0.002
477.4315	0.0085
477.632	0.0022
477.8326	0.0061
478.0331	-0.0025
478.2336	0.01
478.4341	0.0021
478.6346	-0.0028
478.8351	0.0013
479.0355	0.0043
479.236	0.0087
479.4364	0.0016
479.6368	-0.0015
479.8372	0.0117
480.0376	0.0045
480.2379	0.0009
480.4383	-0.0005
480.6386	-0.0024
480.8389	0.0016
481.0392	0.0095
481.2395	0.0087
481.4398	0.0069
481.6401	0.0118
481.8403	-0.0007
482.0405	0.0033
482.2408	0.0003
482.441	0.0087
482.6411	0.001
482.8413	-0.0061
483.0415	-0.0021
483.2416	0.0016
483.4417	0.0002
483.6419	0.0038
483.8419	-0.005
484.042	-0.0003
484.2421	-0.0017
484.4422	0.0051
484.6422	0.0103
484.8422	-0.0011
485.0422	0.0009
485.2422	0.0066
485.4422	-0.0016
485.6422	0.0026
485.8421	-0.0031
486.042	0.0102
486.242	-0.0039
486.4419	0.0059
486.6417	-0.0062
486.8416	0.0032
487.0415	-0.0003
487.2413	0.004
487.4411	-0.0048
487.641	0.0056
487.8408	0.0071
488.0405	0.002
488.2403	-0.0045
488.4401	0.0034
488.6398	0.0001
488.8395	0.0054
489.0392	0.003
489.2389	-0.0039
489.4386	0.0014
489.6383	0.007
489.8379	0.0017
490.0376	0.0108
490.2372	-0.0074
490.4368	0.0091
490.6364	0.0109
490.836	0.0005
491.0355	0.0015
491.2351	-0.0005
491.4346	0.0083
491.6341	-0.0026
491.8336	0.0019
492.0331	0.0003
492.2326	0.0062
492.432	-0.0037
492.6315	-0.0006
492.8309	0.0123
493.0303	-0.0022
493.2297	0.0009
493.4291	-0.0085
493.6284	-0.0021
493.8278	0.0016
494.0271	-0.0008
494.2264	0.0038
494.4257	0.0063
494.625	-0.005
494.8243	0.0072
495.0236	0.0047
495.2228	-0.0047
495.422	0.0068
495.6213	0.0042
495.8205	-0.0006
496.0196	0.004
496.2188	0.0013
496.418	-0.006
496.6171	0.0051
496.8162	0.0057
497.0153	0.0071
497.2144	-0.0063
497.4135	0.0042
497.6126	-0.0086
497.8116	0.0012
498.0107	0.0086
498.2097	-0.0001
498.4087	0.0106
498.6077	0.0046
498.8067	0.006
499.0056	-0.0045
499.2046	-0.0012
499.4035	0.002
499.6024	-0.006
499.8013	0.0046
500.0002	0.006
500.199	0.0045
500.3979	0.0044
500.5967	-0.0012
500.7956	-0.0045
500.9944	-0.0018
501.1932	0.0066
501.3919	0.008
501.5907	0.0028
501.7895	-0.0023
501.9882	-0.0033
502.1869	0.0043
502.3856	-0.0014
502.5843	0.0001
502.783	0.0101
502.9816	-0.0052
503.1803	0.0088
503.3789	0.0028
503.5775	-0.0015
503.7761	-0.0005
503.9747	0.0003
504.1732	0.005
504.3718	0.0003
504.5703	0.0062
504.7689	0.0021
504.9674	0.0052
505.1658	0.0101
505.3643	0.0056
505.5628	0.0059
505.7612	0.0054
505.9597	0.0107
506.1581	-0.0098
506.3565	-0.009
506.5549	0.0043
506.7532	0.0069
506.9516	-0.0026
507.1499	0.0016
507.3482	0.0076
507.5465	-0.0048
507.7448	0.0071
507.9431	-0.0013
508.1414	0.0005
508.3396	0.0016
508.5379	0.0015
508.7361	0.007
508.9343	0.0154
509.1325	0.0097
509.3306	-0.0055
509.5288	0.0145
509.7269	-0.0001
509.9251	-0.0011
510.1232	-0.0101
510.3213	-0.0019
510.5193	0.001
510.7174	-0.0084
510.9154	0.0088
511.1135	-0.0062
511.3115	0.0078
511.5095	-0.0025
511.7075	0.0011
511.9055	0.0036
512.1034	0.0018
512.3014	-0.0076
512.4993	-0.0006
512.6972	-0.0035
512.8951	0.0027
513.093	0.0036
513.2908	-0.0001
513.4887	0.0083
513.6865	-0.0119
513.8844	0.0007
514.0822	0.0046
514.2799	-0.0023
514.4777	0.0012
514.6755	0.004
514.8732	-0.0045
515.0709	0.0036
515.2687	0.007
515.4664	-0.0153
515.664	0.0115
515.8617	0.0034
516.0594	0.0122
516.257	0.004
516.4546	-0.0003
516.6522	-0.0023
516.8498	0.0006
517.0474	0.0117
517.2449	-0.0055
517.4425	-0.0015
517.64	0.0066
517.8375	0.0128
518.035	0.0099
518.2325	0.0007
518.43	0.0068
518.6274	-0.007
518.8249	0.0005
519.0223	-0.0044
519.2197	0.0005
519.4171	0.0059
519.6145	-0.0006
519.8118	0.0006
520.0092	-0.0009
520.2065	-0.0019
520.4038	0.0027
520.6011	0.0078
520.7984	0.0036
520.9956	-0.0003
521.1929	0.0068
521.3901	0.0008
521.5874	0.0062
521.7846	-0.0021
521.9818	-0.0009
522.1789	0.0169
522.3761	0.0056
522.5732	0.0001
522.7704	0.0082
522.9675	-0.0026
523.1646	0.0083
523.3617	-0.0029
523.5587	0.0039
523.7558	0.0104
523.9528	0.0062
524.1498	0.0033
524.3468	-0.0027
524.5438	-0.0101
524.7408	-0.0111
524.9378	0.0114
525.1347	0.0082
525.3316	0.0071
525.5285	-0.0019
525.7254	-0.0012
525.9223	0.0007
526.1192	-0.0016
526.316	-0.0023
526.5129	0.0084
526.7097	-0.0163
526.9065	0.0074
527.1033	0.0027
527.3	-0.0038
527.4968	0.0067
527.6935	0.0094
527.8903	0.0016
528.087	0.0029
528.2837	0.0087
528.4804	0.0052
528.677	0.006
528.8737	0.0021
529.0703	0
529.2669	0.0081
529.4635	0.0133
529.6601	0.0071
529.8567	0.0014
530.0532	0.0036
530.2498	0.0004
530.4463	-0.0019
530.6428	0.0062
530.8393	-0.0016
531.0358	0.0102
531.2322	-0.0034
531.4287	-0.0106
531.6251	0.009
531.8215	0.0045
532.0179	-0.0029
532.2143	0.0054
532.4107	0.0027
532.607	0.0066
532.8034	-0.0023
532.9997	0.0062
533.196	0.0099
533.3923	-0.0074
533.5886	-0.0112
533.7848	-0.0149
533.9811	0.0003
534.1773	-0.0009
534.3735	0.0057
534.5697	-0.0044
534.7659	-0.0085
534.9621	0.0084
535.1582	0.0078
535.3544	0.0127
535.5505	0.004
535.7466	0.0012
535.9427	-0.0017
536.1387	-0.0016
536.3348	0.0124
536.5308	0.0085
536.7269	-0.0019
536.9229	0.0068
537.1189	-0.0085
537.3148	-0.01
537.5108	-0.0023
537.7068	0.0163
537.9027	0.005
538.0986	-0.0024
538.2945	0.0028
538.4904	0.0004
538.6863	0.0144
538.8821	0.004
539.078	-0.0067
539.2738	-0.0041
539.4696	0.0037
539.6654	0.0052
539.8611	0.0092
540.0569	0.0033
540.2526	0.0055
540.4484	-0.0042
540.6441	-0.0055
540.8398	-0.0032
541.0355	0.0069
541.2311	0.0008
541.4268	-0.0028
541.6224	-0.0083
541.818	0.0012
542.0136	-0.0043
542.2092	0.0031
542.4048	0.0062
542.6003	0.0043
542.7959	0.0043
542.9914	0.0048
543.1869	0.0014
543.3824	0.0106
543.5779	0.0045
543.7734	0.0026
543.9688	0.0044
544.1642	-0.0037
544.3596	-0.0027
544.555	0.0123
544.7504	0.0054
544.9458	0.0075
545.1411	-0.0031
545.3365	0.0036
545.5318	0.0034
545.7271	0.0081
545.9224	-0.0042
546.1177	0.0053
546.3129	-0.0169
546.5081	0.0029
546.7034	0.0014
546.8986	-0.0036
547.0938	-0.0102
547.289	0.004
547.4841	-0.0019
547.6793	0.0019
547.8744	-0.0016
548.0695	0.0011
548.2646	0.0024
548.4597	0.0004
548.6548	0.0073
548.8498	0.0043
549.0448	0.0008
549.2399	-0.0001
549.4349	0.0029
549.6298	-0.0071
549.8248	-0.0115
550.0198	0.0106
550.2147	0.0052
550.4096	0.0002
550.6045	-0.0017
550.7994	-0.0057
550.9943	0.0055
551.1892	-0.0008
551.384	0.0127
551.5788	0.0098
551.7737	0.0012
551.9685	0.0055
552.1632	-0.004
552.358	-0.0031
552.5528	-0.0078
552.7475	-0.0026
552.9422	-0.0032
553.1369	0.007
553.3316	-0.0003
553.5263	-0.0036
553.7209	-0.0112
553.9156	0.0002
554.1102	-0.0056
554.3048	0.0058
554.4994	0.0012
554.694	0.0028
554.8885	-0.0048
555.0831	0.0067
555.2776	-0.0039
555.4721	-0.007
555.6666	0.0075
555.8611	0.0027
556.0555	-0.0032
556.25	0.0005
556.4444	0.0009
556.6388	0.0077
556.8332	-0.0021
557.0276	0.0136
557.222	-0.0117
557.4163	0.0027
557.6107	0.002
557.805	-0.0063
557.9993	0.0027
558.1936	0.0139
558.3879	-0.0032
558.5821	-0.0094
558.7764	0.0085
558.9706	-0.0027
559.1648	0.0007
559.359	0.0092
559.5532	-0.0151
559.7473	0.0151
559.9415	0.0046
560.1356	0.0031
560.3297	-0.0008
560.5238	-0.0003
560.7179	-0.0077
560.9119	0.0145
561.106	-0.0049
561.3	0.0011
561.494	0.0139
561.688	0.0058
561.882	0.0089
562.076	0.0106
562.2699	0.0088
562.4639	0.0062
562.6578	0.0081
562.8517	-0.0041
563.0456	-0.0055
563.2395	0.0007
563.4333	0.0021
563.6272	0.0061
563.821	0.0055
564.0148	-0.0098
564.2086	0.0019
564.4024	0.0015
564.5961	0.0007
564.7899	-0.0019
564.9836	-0.0038
565.1773	0.0042
565.371	0.0053
565.5647	-0.0031
565.7584	-0.0001
565.952	0.0014
566.1456	0.0002
566.3393	0.0076
566.5329	-0.0045
566.7264	-0.0013
566.92	-0.0015
567.1136	-0.0017
567.3071	0.0039
567.5006	-0.0049
567.6941	0.0075
567.8876	0.0033
568.0811	-0.001
568.2745	-0.0099
568.468	0.0071
568.6614	0.0069
568.8548	-0.0016
569.0482	0.003
569.2416	-0.0013
569.4349	-0.0011
569.6283	0.0043
569.8216	-0.002
570.0149	0.0026
570.2082	-0.0005
570.4015	0.0014
570.5947	0.0024
570.788	-0.0002
570.9812	-0.0008
571.1744	0.0021
571.3676	0.0025
571.5608	-0.0012
571.754	-0.0045
571.9471	0.0081
572.1402	0.0016
572.3333	-0.0019
572.5264	0.0034
572.7195	0.0078
572.9126	0.0025
573.1057	-0.0031
573.2987	0.0013
573.4917	0.0025
573.6847	0.0006
573.8777	-0.0007
574.0707	-0.0023
574.2636	0.0027
574.4566	0.0038
574.6495	0.0004
574.8424	0.0034
575.0353	0.0008
575.2281	-0.0012
575.421	-0.0004
575.6138	0.0018
575.8067	0.0009
575.9995	0.001
576.1923	0.0051
576.385	0
576.5778	-0.006
576.7706	0.0042
576.9633	0.0018
577.156	0.0014
577.3487	-0.0001
577.5414	-0.0024
577.734	-0.0014
577.9267	-0.0011
578.1193	0.0066
578.3119	-0.0028
578.5045	-0.0019
578.6971	-0.0014
578.8897	0.0004
579.0822	0.0003
579.2747	-0.0079
579.4673	0.0014
579.6598	-0.0031
579.8522	0.0031
580.0447	-0.0005
580.2372	0.0055
580.4296	-0.0041
580.622	-0.0018
580.8144	0.0006
581.0068	0.0046
581.1992	0.0007
581.3915	-0.0011
581.5839	0.0029
581.7762	0.0029
581.9685	-0.0029
582.1608	0.0016
582.353	0.0022
582.5453	0.0008
582.7375	0.0051
582.9298	-0.0036
583.122	-0.0035
583.3142	0.0018
583.5063	0.0012
583.6985	-0.0035
583.8906	-0.0006
584.0827	0.001
584.2749	-0.0051
584.4669	0.0022
584.659	0.0005
584.8511	0.0016
585.0431	0.0015
585.2352	-0.0082
585.4272	0.0026
585.6192	0.0009
585.8111	-0.0051
586.0031	0.0012
586.195	0.0021
586.387	0.0036
586.5789	-0.0008
586.7708	0.0008
586.9627	0.0002
587.1545	0.0004
587.3464	0.0059
587.5382	-0.0018
587.73	-0.0002
587.9218	0.0032
588.1136	-0.0029
588.3053	0.0015
588.4971	-0.0013
588.6888	0.0039
588.8805	0.0019
589.0722	0.0014
589.2639	0.0009
589.4556	0.0018
589.6472	-0.0019
589.8389	-0.002
590.0305	0.0025
590.2221	0.0024
590.4137	-0.0085
590.6052	0.0044
590.7968	0.01
590.9883	0.0042
591.1798	-0.0071
591.3713	-0.0012
591.5628	0.0011
591.7543	-0.002
591.9458	-0.003
592.1372	-0.0014
592.3286	-0.0035
592.52	-0.0014
592.7114	-0.0008
592.9028	-0.0034
593.0941	0.0001
593.2855	0.0016
593.4768	-0.0023
593.6681	-0.0016
593.8594	-0.0021
594.0506	0.0003
594.2419	-0.0004
594.4331	-0.0015
594.6244	0.0004
594.8156	-0.0005
595.0067	-0.0019
595.1979	-0.0029
595.3891	-0.0065
595.5802	-0.005
595.7713	-0.0017
595.9624	0.0007
596.1535	-0.001
596.3446	-0.0004
596.5357	-0.0046
596.7267	-0.0035
596.9177	-0.0028
597.1087	0.0003
597.2997	0.001
597.4907	-0.003
597.6817	0.0036
597.8726	0.0029
598.0635	-0
598.2544	-0.0075
598.4453	-0.0029
598.6362	-0.0016
598.827	0.0035
599.0179	-0.0022
599.2087	-0.0013
599.3995	0.0024
599.5903	0.0044
599.7811	0.0003
599.9718	0.0023
600.1626	0.001
600.3533	-0.0019
600.544	0.0016
600.7347	-0.0002
600.9254	0.0016
601.116	0.0009
601.3067	0.0062
601.4973	0.0051
601.6879	-0.0032
601.8785	-0.0008
602.0691	0.0007
602.2596	-0.0055
602.4502	0.0026
602.6407	0.0068
602.8312	-0.0057
603.0217	0.0035
603.2122	0.004
603.4027	-0.0005
603.5931	-0.0023
603.7835	0.0057
603.9739	0.0023
604.1643	0.0009
604.3547	0.0085
604.5451	-0.0015
604.7354	-0.0046
604.9257	-0.0004
605.116	0.0002
605.3063	-0.0037
605.4966	0.0054
605.6869	-0.001
605.8771	0.0082
606.0673	0.0005
606.2575	0.0019
606.4477	0.0039
606.6379	0
606.8281	-0.0076
607.0182	-0.0029
607.2083	-0.0023
607.3985	0.0018
607.5885	0.0032
607.7786	0.009
607.9687	-0.0025
608.1587	0.0036
608.3488	0.0029
608.5388	-0.0003
608.7288	-0.0069
608.9187	0.0095
609.1087	-0.0036
609.2986	-0.0018
609.4886	0.0032
609.6785	0.0041
609.8684	-0.0015
610.0582	0.0008
610.2481	-0.0038
610.4379	0.0042
610.6278	-0.0057
610.8176	-0.0034
611.0074	-0.0022
611.1971	0.0037
611.3869	0.0038
611.5766	-0.001
611.7664	0.0061
611.9561	-0.003
612.1458	-0.0087
612.3354	0.0055
612.5251	0.0021
612.7147	0.0043
612.9044	-0.0019
613.094	0.0039
613.2836	-0.0053
613.4731	-0.0016
613.6627	0.0054
613.8522	-0.0038
614.0417	-0.0031
614.2313	-0.0095
614.4207	0.0013
614.6102	0.0023
614.7997	-0.0023
614.9891	-0.0021
615.1785	0.0001
615.3679	0.0113
615.5573	-0.0068
615.7467	0.0002
615.9361	-0.007
616.1254	-0.0064
616.3147	0.0074
616.504	0.0083
616.6933	-0.0007
616.8826	0.0038
617.0718	-0.0005
617.2611	-0.0064
617.4503	0.0056
617.6395	0.0035
617.8287	0.0047
618.0179	-0.0016
618.207	-0.0004
618.3961	0.0083
618.5853	-0.0036
618.7744	0.0089
618.9634	0.0017
619.1525	-0.0018
619.3416	-0.0036
619.5306	-0.0007
619.7196	-0.0029
619.9086	0.0076
620.0976	0.0126
620.2866	0.0058
620.4755	0.0107
620.6645	-0.006
620.8534	-0.0046
621.0423	-0.0079
621.2312	-0.0147
621.42	0.0044
621.6089	-0.0013
621.7977	0.0075
621.9865	0.006
622.1753	0.0093
622.3641	-0.0232
622.5529	-0.0033
622.7416	-0.0008
622.9303	0.0046
623.1191	-0.0092
623.3078	0.0008
623.4964	-0.0058
623.6851	0.0017
623.8737	0.0087
624.0624	0.0008
624.251	0.0038
624.4396	-0.0001
624.6282	-0.0023
624.8167	0.0122
625.0053	0.0018
625.1938	0.0009
625.3823	0.0006
625.5708	0.0041
625.7593	-0.0065
625.9477	-0.0064
626.1362	0.0012
626.3246	0.0051
626.513	0.0038
626.7014	-0.0088
626.8898	0.0028
627.0781	0.0094
627.2665	0.012
627.4548	0.0036
627.6431	-0.0088
627.8314	0.0053
628.0197	-0.0061
628.2079	-0.0037
628.3962	-0.005
628.5844	0.0048
628.7726	-0.0009
628.9608	-0.0033
629.1489	-0.0045
629.3371	-0.0058
629.5252	0.0161
629.7134	0.0146
629.9015	-0.0073
630.0895	-0.0039
630.2776	-0.0144
630.4657	0.0109
630.6537	-0.0078
630.8417	-0.0075
631.0297	-0.0009
631.2177	0
631.4057	-0.0035
631.5936	-0.0082
631.7815	0.0062
631.9695	0.0203
632.1574	-0.0025
632.3452	0.0057
632.5331	-0.0122
632.7209	-0.0011
632.9088	0.0014
633.0966	0.0067
633.2844	-0.0068
633.4722	0.0076
633.6599	-0.0097
633.8477	0.0039
634.0354	0.0068
634.2231	0.0163
634.4108	-0.0116
634.5985	-0.0045
634.7861	-0.0084
634.9738	0.0167
635.1614	0.0133
635.349	-0.0181
635.5366	0.0073
635.7242	-0.0048
635.9117	0.0129
636.0993	-0.0167
636.2868	-0.0096
636.4743	0.019
636.6618	0.0013
636.8492	0.0081
637.0367	0.0035
637.2241	0.014
637.4115	0.0111
637.5989	0.0137
637.7863	-0.0135
637.9737	0.0085
638.161	-0.002
638.3484	0.0005
638.5357	0.0017
638.723	-0.0095
638.9103	0.0033
639.0975	-0.0018
639.2848	0.0035
639.472	-0.0168
639.6592	0.0104
639.8464	0.0216
640.0336	-0.0029
640.2208	-0.0038
640.4079	0.0087
640.595	-0.0014
640.7821	-0.0085
640.9692	0.0013
641.1563	0.0103
641.3434	0.0159
641.5304	0.0089
641.7174	0.0066
641.9044	-0.0011
642.0914	-0.0137
642.2784	0.0237
642.4653	-0.0016
642.6523	0.0144
642.8392	0.0146
643.0261	0.0073
643.213	0.0073
643.3999	-0.0002
643.5867	0.0029
643.7735	0.0115
643.9604	-0.0129
644.1472	-0.0052
644.3339	0.0043
644.5207	-0.0178
644.7075	-0.0043
644.8942	0.0072
645.0809	0.0052
645.2676	0.0088
645.4543	0.0103
645.6409	0.0056
645.8276	-0.0119
646.0142	0.0122
646.2008	0.0063
646.3874	0.018
646.574	-0.0275
646.7605	0.0094
646.9471	0.0163
647.1336	-0.003
647.3201	-0.0106
647.5066	-0.0092
647.6931	0.0067
647.8795	0.0085
648.0659	-0.0144
648.2524	0.0055
648.4388	0.0023
648.6252	-0.0069
648.8115	0.002
648.9979	0.0115
649.1842	-0.0154
649.3705	0.0098
649.5568	-0.0155
649.7431	0
649.9294	0.0075
650.1156	-0.0229
650.3018	0.0062
650.488	0.0016
650.6742	0.0118
650.8604	0.0068
651.0466	0.0037
651.2327	-0.0176
651.4188	-0.003
651.6049	-0.0032
651.791	0.0222
651.9771	-0.0168
652.1632	0.0158
652.3492	0.0173
652.5352	0.0044
652.7212	-0.0062
652.9072	0.0079
653.0932	-0.0068
653.2791	-0.0014
653.465	-0.0089
653.651	0.02
653.8369	0.0031
654.0227	-0.0058
654.2086	-0.0044
654.3944	-0.0138
654.5803	0.0108
654.7661	-0.0063
654.9519	-0.0035
655.1377	0.0001
655.3234	0.0001
655.5092	0.0001
655.6949	0.0001
655.8806	0.0001
656.0663	0.0001
656.2519	0.0001
656.4376	0.0001
656.6232	0.0001
656.8088	0.0001
656.9945	0.0001
657.18	0.0001
657.3656	0.0001
657.5511	0.0001
657.7367	0.0001
657.9222	0.0001
658.1077	0.0001
658.2932	0.0001
658.4786	0.0001
658.6641	0.0001
658.8495	0.0001
659.0349	0.0001
659.2203	0.0001
659.4057	0.0085
659.591	0.0638
659.7764	0.0076
659.9617	-0.01
660.147	-0.0034
660.3323	0.0048
660.5176	-0.0099
660.7028	0.0043
660.888	0.0051
661.0733	0.0003
661.2585	0.0183
661.4436	-0.0007
661.6288	-0.0121
661.8139	0.0179
661.9991	0.0061
662.1842	0.009
662.3693	0.008
662.5544	0.0044
662.7394	0.0186
662.9245	0.018
663.1095	0.0175
663.2945	-0.0078
663.4795	0.0111
663.6644	0.0054
663.8494	0.0167
664.0343	-0.015
664.2193	0.0011
664.4042	-0.0178
664.589	-0.0005
664.7739	0.0055
664.9587	-0.009
665.1436	0.0075
665.3284	0.0121
665.5132	0.012
665.698	0.0128
665.8827	-0.0206
666.0675	-0.0115
666.2522	0.0178
666.4369	-0.0087
666.6216	-0.0154
666.8063	-0.0084
666.9909	0.0011
667.1756	0.0033
667.3602	-0.0083
667.5448	0.0069
667.7294	-0.0072
667.9139	-0.0118
668.0985	-0.0279
668.283	-0.0055
668.4675	-0.0098
668.652	-0.0106
668.8365	-0.0118
669.0209	-0.0266
669.2054	0.0001
669.3898	0.0065
669.5742	0.0182
669.7586	0.0263
669.943	-0.0142
670.1273	0.0095
670.3117	0.0102
670.496	0.0036
670.6803	0.0088
670.8646	0.0119
671.0488	0.0027
671.2331	0.0013
671.4173	0.0096
671.6015	0.0045
671.7857	-0.0187
671.9699	0.0084
672.1541	-0.005
672.3382	0.0039
672.5223	0.01
672.7064	-0.0103
672.8905	0.0084
673.0746	-0.0138
673.2587	0.0168
673.4427	0.0043
673.6267	-0.0186
673.8107	0.0055
673.9947	-0.0048
674.1787	0.0025
674.3626	-0.0032
674.5465	0.0024
674.7304	-0.0264
674.9143	0.0051
675.0982	-0.0233
675.2821	0.009
675.4659	-0.0027
675.6497	0.02
675.8335	0.0043
676.0173	0.0213
676.2011	0.0084
676.3849	0.006
676.5686	-0.0077
676.7523	0.0159
676.936	-0.0146
677.1197	0.0208
677.3034	0.0214
677.487	0.0019
677.6706	0.0061
677.8542	0.0012
678.0378	0.0032
678.2214	0.0036
678.405	-0.0037
678.5885	0.0021
678.772	-0.0216
678.9555	-0.0004
679.139	-0.0026
679.3225	-0.0125
679.5059	0.0069
679.6894	-0.0155
679.8728	0.0011
680.0562	0.0113
680.2395	0.002
680.4229	-0.014
680.6062	-0.0082
680.7896	-0.0092
680.9729	0.0155
681.1562	-0.0146
681.3394	-0.0059
681.5227	-0.0255
681.7059	-0.0247
681.8891	-0.0032
682.0723	-0.0183
682.2555	0.0172
682.4387	-0.0016
682.6218	-0.0268
682.805	-0.0064
682.9881	-0.0027
683.1712	0.0104
683.3542	-0.0299
683.5373	-0.0016
683.7203	0.003
683.9034	0.0003
684.0864	-0.0062
684.2694	0.0028
684.4523	0.0046
684.6353	0.0053
684.8182	-0.002
685.0011	-0.0063
685.184	-0.0008
685.3669	-0.0022
685.5498	0.0149
685.7326	0.0002
685.9154	-0.0075
686.0982	-0.0077
686.281	0.0063
686.4638	-0.0061
686.6465	-0.0002
686.8293	0.004
687.012	-0.0019
687.1947	0.0056
687.3774	-0.0144
687.56	0.0032
687.7427	-0.0002
687.9253	0.0074
688.1079	0.0158
688.2905	0.0071
688.4731	0.0312
688.6556	-0.0085
688.8382	-0.0035
689.0207	-0.0151
689.2032	-0.0125
689.3857	0.0006
689.5681	-0.0165
689.7506	-0.0135
689.933	-0.0206
690.1154	-0.0106
690.2978	-0.002
690.4802	0.0073
690.6626	-0.0312
690.8449	-0.025
691.0272	-0.0176
691.2095	-0.0159
691.3918	-0.0081
691.5741	0.0112
691.7563	0.0021
691.9386	0.0012
692.1208	-0.0121
692.303	-0.0005
692.4852	0.0291
692.6673	-0.0099
692.8495	-0.0093
693.0316	-0.0124
693.2137	0.0361
693.3958	0.0192
693.5778	-0.0169
693.7599	-0.0197
693.9419	0.0106
694.1239	0.0158
694.3059	0.0081
694.4879	-0.0085
694.6699	0.0071
694.8518	-0.0065
695.0337	0.0003
695.2157	-0.0061
695.3975	-0.0041
695.5794	0.0054
695.7613	0.004
695.9431	-0.0154
696.1249	0.0163
696.3067	0.0035
696.4885	-0.0016
696.6703	0.0115
696.852	-0.0215
697.0337	-0.0007
697.2154	0.0168
697.3971	0.017
697.5788	0.0227
697.7605	0.0049
697.9421	0.0142
698.1237	0.0109
698.3053	-0.012
698.4869	0.0031
698.6685	-0.0017
698.85	0.0074
699.0315	-0.0021
699.213	0.03
699.3945	0.0126
699.576	0.0056
699.7575	0.004
699.9389	0.0221
700.1203	0.0026
700.3017	-0.0129
700.4831	0.009
700.6645	-0.0152
700.8458	0.0131
701.0271	0.0148
701.2084	-0.0252
701.3897	0.0066
701.571	0.0034
701.7523	-0.0202
701.9335	0.0022
702.1147	-0.0096
702.2959	0.0224
702.4771	-0.0033
702.6583	0.004
702.8394	0.0262
703.0205	-0.0006
703.2016	-0.001
703.3827	0.0268
703.5638	-0.0137
703.7449	0.0271
703.9259	0.0042
704.1069	0.0155
704.2879	0.0139
704.4689	0.0197
704.6499	-0.0424
704.8308	-0.0087
705.0117	-0.0432
705.1927	0.0125
705.3735	0.0302
705.5544	0.0133
705.7353	0.0113
705.9161	-0.0048
706.0969	0.0006
706.2777	0.0082
706.4585	0.0044
706.6393	0.0048
706.82	-0.0241
707.0007	0.0123
707.1815	0.0186
707.3621	0.003
707.5428	0.0184
707.7235	0.0209
707.9041	-0.0132
708.0847	-0.0061
708.2653	-0.0052
708.4459	0.0065
708.6265	-0.0088
708.807	-0.0044
708.9875	-0.0169
709.168	0.0127
709.3485	-0.0063
709.529	0.0696
709.7095	-0.001
709.8899	0.0451
710.0703	-0.0045
710.2507	0.0128
710.4311	0.013
710.6115	-0.0062
710.7918	-0.0296
710.9721	-0.0124
711.1524	-0.0037
711.3327	-0.0126
711.513	-0.01
711.6932	-0.0327
711.8735	-0.0122
712.0537	0.0104
712.2339	0.0059
712.4141	0.0024
712.5942	0.0055
712.7744	-0.0065
712.9545	0.0229
713.1346	-0.0073
713.3147	-0.0002
713.4947	0
713.6748	-0.0049
713.8548	0.0081
714.0348	0.0096
714.2148	0.0042
714.3948	0.0054
714.5748	-0.0112
714.7547	0.0007
714.9346	-0.0092
715.1145	0.0099
715.2944	0.0018
715.4743	0.005
715.6541	-0.003
715.834	0.0391
716.0138	0.0098
716.1936	0.0084
716.3733	-0.0178
716.5531	0.0243
716.7328	-0.0163
716.9126	0.0189
717.0923	-0.0151
717.2719	-0.0055
717.4516	0.0001
717.6312	-0.0069
717.8109	0.008
717.9905	-0.0003
718.1701	-0.0263
718.3496	0.0153
718.5292	-0.022
718.7087	0.0354
718.8882	0.0052
719.0677	-0.0183
719.2472	-0.0017
719.4267	-0.0033
719.6061	0.0245
719.7856	-0.0072
719.965	-0.0065
720.1443	-0.0094
720.3237	0.0211
720.5031	0.0154
720.6824	0.0102
720.8617	0.0336
721.041	0.0112
721.2203	0.0133
721.3995	0.0105
721.5788	-0.0355
721.758	0.0133
721.9372	-0.0052
722.1164	0.0168
722.2956	0.0183
722.4747	-0.0039
722.6538	0.0001
722.8329	-0.0173
723.012	-0.0008
723.1911	0.0203
723.3702	-0.0197
723.5492	-0.0156
723.7282	0.0321
723.9072	-0.0295
724.0862	-0.009
724.2652	-0.0121
724.4441	-0.0032
724.623	0.0072
724.8019	0.0119
724.9808	0.0198
725.1597	0.0089
725.3385	0.0114
725.5174	0.034
725.6962	0.0241
725.875	0.0213
726.0538	0.0123
726.2325	-0.005
726.4112	-0.0105
726.59	0.0012
726.7687	0.0173
726.9474	-0.0112
727.126	-0.0165
727.3047	0.0123
727.4833	0.0451
727.6619	0.026
727.8405	0.0039
728.0191	-0.0278
728.1976	-0.0296
728.3762	-0.0188
728.5547	-0.0134
728.7332	-0.0024
728.9116	-0.043
729.0901	0.0085
729.2686	-0.0013
729.447	-0.0048
729.6254	0.0177
729.8038	0.0135
729.9821	-0.0087
730.1605	-0.026
730.3388	-0.0136
730.5171	-0.0122
730.6954	0.0106
730.8737	0.0228
731.0519	0.0021
731.2302	-0.0191
731.4084	0.0164
731.5866	-0.0189
731.7648	0.0089
731.9429	0.0019
732.1211	-0.0102
732.2992	-0.0226
732.4773	-0.0111
732.6554	-0.0066
732.8335	0.0031
733.0115	0.0054
733.1896	-0.0051
733.3676	0.0093
733.5456	-0.0073
733.7235	0.0156
733.9015	-0.0081
734.0794	-0.0039
734.2574	0.0083
734.4353	-0.0134
734.6131	0.0195
734.791	0.021
734.9689	0.0015
735.1467	-0.0204
735.3245	-0.0055
735.5023	0.01
735.68	-0.0074
735.8578	0.0037
736.0355	0.0105
736.2132	0.0093
736.3909	-0.0067
736.5686	0.0039
736.7463	-0.0146
736.9239	-0.006
737.1015	-0.0225
737.2791	-0.0374
737.4567	-0.0003
737.6343	-0.0092
737.8118	0.0177
737.9894	-0.0143
738.1669	0.0004
738.3444	0.0063
738.5218	0.0076
738.6993	0.0073
738.8767	-0.0064
739.0541	0.0062
739.2315	0.0006
739.4089	0.0112
739.5863	0.0157
739.7636	0.0045
739.9409	-0.0094
740.1182	-0.0181
740.2955	-0.0501
740.4728	0.01
740.65	-0.0116
740.8272	-0.0048
741.0044	0.0057
741.1816	0.0243
741.3588	0.0221
741.5359	0.0126
741.7131	0.0126
741.8902	-0.0043
742.0673	0.0067
742.2444	-0.0163
742.4214	-0.0187
742.5985	-0.0045
742.7755	0.0051
742.9525	0.001
743.1295	-0.0166
743.3064	0.0258
743.4834	0.0302
743.6603	0.0068
743.8372	0.0131
744.0141	0.0043
744.191	-0.0265
744.3678	0.0329
744.5446	0.0186
744.7215	-0.0146
744.8982	0.0053
745.075	0.0175
745.2518	-0.0191
745.4285	0.0038
745.6052	0.0203
745.7819	-0.0056
745.9586	0.0166
746.1353	-0.0049
746.3119	0.007
746.4885	0.0083
746.6651	-0.0458
746.8417	-0.02
747.0183	0.0062
747.1948	-0.0292
747.3714	-0.0097
747.5479	0.0181
747.7244	-0.0351
747.9008	0.0343
748.0773	0.0074
748.2537	0.0051
748.4301	-0.0085
748.6065	-0.0368
748.7829	-0.0043
748.9593	0.0173
749.1356	-0.0094
749.3119	0.0031
749.4882	-0.0099
749.6645	0.0083
749.8408	0.0013
750.017	-0.0019
750.1933	0.0108
750.3695	0.014
750.5457	-0.0273
750.7218	0.0349
750.898	-0.0144
751.0741	0.012
751.2502	0.0303
751.4263	0.0007
751.6024	0.0202
751.7784	-0.0313
751.9545	-0.0378
752.1305	0.0166
752.3065	0.0482
752.4825	-0.0169
752.6584	0.005
752.8344	0.013
753.0103	-0.0204
753.1862	-0.0033
753.3621	0.0041
753.5379	-0.0137
753.7138	-0.0289
753.8896	0.0146
754.0654	0.0116
754.2412	0.0248
754.417	-0.0161
754.5927	-0.0035
754.7685	-0.0037
754.9442	-0.0028
755.1199	-0.0039
755.2956	-0.0056
755.4712	-0.0033
755.6469	-0.0023
755.8225	0.0034
755.9981	-0.0125
756.1736	0.0099
756.3492	-0.0171
756.5248	-0.0043
756.7003	-0.004
756.8758	-0.0164
757.0513	-0.0012
757.2267	-0.0197
757.4022	-0.0006
757.5776	-0.0184
757.753	-0.005
757.9284	-0.0027
758.1038	-0.0115
758.2791	0.0058
758.4545	-0.0169
758.6298	-0.0013
758.8051	0.005
758.9803	-0.0164
759.1556	-0.0241
759.3308	0.0182
759.506	0.0163
759.6812	-0.0059
759.8564	-0.0136
760.0316	-0.004
760.2067	-0.0185
760.3819	0.013
760.557	-0.0021
760.732	0.0214
760.9071	-0.0088
761.0821	-0.0049
761.2572	0.0355
761.4322	-0.0115
761.6072	-0.0031
761.7821	0.0201
761.9571	-0.0059
762.132	0.0041
762.3069	0.0116
762.4818	0.0361
762.6567	0.0115
762.8316	0.0201
763.0064	-0.0133
763.1812	0.005
763.356	0.0091
763.5308	-0.0113
763.7055	-0.015
763.8803	0.0056
764.055	-0.0137
764.2297	0.0041
764.4044	-0.0013
764.579	0.0105
764.7537	0.0005
764.9283	-0.0149
765.1029	0.0078
765.2775	-0.0222
765.4521	0.014
765.6266	-0.0202
765.8011	0.0033
765.9756	0.0078
766.1501	0.0428
766.3246	-0.0074
766.4991	-0.0137
766.6735	-0.0314
766.8479	0.0028
767.0223	0.0034
767.1967	-0.0023
767.371	0.0143
767.5454	0.0239
767.7197	-0.0091
767.894	0.0134
768.0683	-0.0136
768.2425	-0.0193
768.4168	0.0433
768.591	-0.001
768.7652	0.0151
768.9394	-0.0253
769.1135	0.0085
769.2877	0.0082
769.4618	0.0207
769.6359	0.0018
769.81	-0.0174
769.984	-0.01
770.1581	0.0065
770.3321	-0.0186
770.5061	0.0115
770.6801	0.021
770.8541	-0.0207
771.028	-0.021
771.202	-0.0289
771.3759	-0.0117
771.5498	-0.0004
771.7236	-0.0159
771.8975	-0.0101
772.0713	0.0197
772.2451	0.025
772.4189	-0.0143
772.5927	0.0052
772.7665	0.0251
772.9402	0.0265
773.1139	0.0057
773.2876	-0.0312
773.4613	-0.0063
773.635	0.0211
773.8086	-0.0112
773.9822	0.0255
774.1558	-0.0229
774.3294	-0.0783
774.503	0.0514
774.6765	0.0132
774.8501	0.0082
775.0236	0.0288
775.1971	-0.0397
775.3705	0.0026
775.544	0.0258
775.7174	-0.0296
775.8908	0.0879
776.0642	0.0465
776.2376	-0.0418
776.4109	0.025
776.5843	-0.0369
776.7576	0.0331
776.9309	0.0755
777.1041	-0.0165
777.2774	-0.0106
777.4506	-0.042
777.6238	0.0238
777.797	-0.0014
777.9702	0.0312
778.1434	0.0392
778.3165	-0.0078
778.4896	-0.0185
778.6627	0.0285
778.8358	-0.0185
779.0089	-0.0115
779.1819	-0.0141
779.3549	0.0222
779.5279	0.0047
779.7009	-0.0224
779.8739	-0.0333
780.0468	0.0462
780.2197	-0.0078
780.3926	-0.0097
780.5655	-0.0356
780.7384	0.0268
780.9112	0.013
781.0841	0.0061
781.2569	-0.0302
781.4297	0.0268
781.6024	0.0006
781.7752	0.0171
781.9479	-0.0238
782.1206	0.027
782.2933	0.016
782.466	-0.0235
782.6386	-0.0083
782.8113	-0.0118
782.9839	-0.0022
783.1565	-0.0082
783.329	0.0377
783.5016	0.0179
783.6741	-0.0347
783.8466	-0.0502
784.0191	-0.0148
784.1916	-0.0068
784.3641	-0.0334
784.5365	0.0267
784.7089	0.031
784.8813	0.0151
785.0537	0.009
785.2261	0.0159
785.3984	-0.0345
785.5707	0.0494
785.743	-0.0522
785.9153	0.0376
786.0876	-0.0262
786.2598	0.0224
786.432	-0.0225
786.6042	0.03
786.7764	0.0145
786.9486	0.0103
787.1207	-0.0031
787.2928	0.0304
787.4649	0.021
787.637	0.0352
787.8091	-0.0417
787.9811	0.0172
788.1532	-0.0223
788.3252	-0.0204
788.4972	-0.0194
788.6691	0.0121
788.8411	0.0019
789.013	0.0237
789.1849	0.0051
789.3568	0.0072
789.5287	-0.0156
789.7005	0.0162
789.8723	-0.0253
790.0442	-0.0083
790.2159	0.0342
790.3877	0.0339
790.5595	0.0682
790.7312	-0.0449
790.9029	-0.0138
791.0746	0.0036
791.2463	-0.0053
791.4179	-0.0596
791.5896	-0.0329
791.7612	-0.0432
791.9328	0.0028
792.1044	-0.0191
792.2759	0.0172
792.4474	-0.0418
792.619	0.0863
792.7905	0.0263
792.9619	0.0186
793.1334	0.0276
793.3048	0.0196
793.4762	0.0079
793.6476	0.0047
793.819	-0.0178
793.9904	0.0137
794.1617	0.01
794.333	0.0102
794.5043	-0.0175
794.6756	0.0366
794.8469	-0.0166
795.0181	0.0041
795.1893	0.0057
795.3605	0.0057
795.5317	0.011
795.7029	-0.0399
795.874	0.0226
796.0452	-0.0107
796.2163	0.0704
796.3873	0.0462
796.5584	0.0546
796.7294	-0.0645
796.9005	-0.0384
797.0715	-0.017
797.2425	-0.0526
797.4134	-0.0132
797.5844	-0.0059
797.7553	0.037
797.9262	0.0068
798.0971	-0.0445
798.2679	0.0124
798.4388	-0.004
798.6096	-0.0298
798.7804	0.0308
798.9512	0.0548
799.122	-0.0402
799.2927	-0.0462
799.4635	0.0648
799.6342	-0.0372
799.8049	0.072
799.9755	-0.0125
800.1462	0.0576
800.3168	0.0153
800.4874	0.0769
800.658	0.0663
800.8286	0.0142
800.9991	0.0534
801.1696	0.0361
801.3402	-0.1019
801.5106	-0.0965
801.6811	0.0265
801.8516	0.0505
802.022	-0.0098
802.1924	-0.0552
802.3628	-0.0157
802.5332	-0.0669
802.7035	0.0419
802.8739	0.127
803.0442	0.0543
803.2145	-0.0051
803.3847	-0.0138
803.555	-0.0113
803.7252	0.0495
803.8954	0.0294
804.0656	0.0617
804.2358	-0.041
804.4059	0.0687
804.5761	0.0808
804.7462	-0.0071
804.9163	-0.0454
805.0864	0.0455
805.2564	-0.0196
805.4264	0.0204
805.5965	-0.0143
805.7665	0.0725
805.9364	0.0343
806.1064	0.0185
806.2763	0.0323
806.4462	-0.054
806.6161	0.0369
806.786	-0.0404
806.9559	0.0814
807.1257	-0.0207
807.2955	0.0924
807.4653	-0.0323
807.6351	-0.0307
807.8048	0.0033
807.9746	-0.008
808.1443	0.0535
808.314	0.0817
808.4837	0.0033
808.6533	0.0017
808.8229	-0.0669
808.9926	-0.0101
809.1622	0.0262
809.3317	-0.0566
809.5013	0.0175
809.6708	0.0252
809.8403	0.069
810.0098	0.224
810.1793	0.061
810.3488	0.0512
810.5182	0.0687
810.6876	0.0721
810.857	0.0435
811.0264	0.0473
811.1958	-0.1087
811.3651	-0.0222
811.5344	-0.0535
811.7037	0.0632
811.873	-0.0232
812.0422	0.0661
812.2115	-0.0353
812.3807	0.0403
812.5499	0.0634
812.7191	-0.0102
812.8882	-0.0434
813.0574	-0.1421
813.2265	-0.0053
813.3956	0.1036
813.5646	0.0231
813.7337	-0.0799
813.9027	0.0042
814.0718	0.0018
814.2407	-0.0998
814.4097	0.0476
814.5787	-0.0199
814.7476	0.0221
814.9165	-0.0154
815.0854	0.0812
815.2543	0.0521
815.4232	0.0137
815.592	0.1997
815.7608	-0.0237
815.9296	-0.0234
816.0984	0.0397
816.2671	-0.169
816.4359	0.2248
816.6046	0.1792
816.7733	-0.01
816.942	0.0893
817.1106	-0.2151
817.2793	-0.0811
817.4479	0.009
817.6165	-0.1016
817.785	-0.0557
817.9536	0.1038
818.1221	0.037
818.2906	0.1874
818.4591	-0.0483
818.6276	-0.0045
818.7961	-0.0532
818.9645	0.0902
819.1329	0.1989
819.3013	-0.0025
819.4697	0.4596
819.638	0.1112
819.8064	-0.0791
819.9747	0.0007
820.143	0.0749
820.3113	0.1284
820.4795	0.0274
820.6477	-0.0957
820.816	0.0436
820.9842	-0.1196
821.1523	0.0791
821.3205	0.0163
821.4886	0.0183
821.6567	0.0131
821.8248	0.0366
821.9929	-0.011
822.1609	-0.0182
822.329	0.0488
822.497	0.0273
822.665	0.1692
822.833	-0.0295
823.0009	-0.1078
823.1688	0.0636
823.3367	-0.0607
823.5046	0.098
823.6725	0.0818
823.8404	0.0238
824.0082	0.0544
824.176	0.1403
824.3438	0.0782
824.5116	0.0125
824.6793	-0.0336
824.847	-0.0208
825.0147	0.0153
825.1824	0.0448
825.3501	-0.0333
825.5177	0.0995
825.6854	0.378
825.853	0.0303
826.0206	-0.1116
826.1881	0.0702
826.3557	0.1533
826.5232	0.1424
826.6907	0.1305
826.8582	-0.0829
827.0257	-0.1225
827.1931	0.0774
827.3605	-0.0784
827.528	-0.1138
827.6953	0.0367
827.8627	0.1605
828.03	0.1087
828.1974	-0.1303
828.3647	0.0232
828.532	0.1815
828.6992	0.027
828.8665	0.1744
829.0337	-0.0166
829.2009	0.0531
829.3681	0.0482
829.5352	0.214
829.7024	0.0166
829.8695	0.0097
830.0366	0.162
830.2037	0.0694
830.3707	0.058
830.5378	-0.0509
830.7048	-0.0623
830.8718	0.0318
831.0388	-0.0034
831.2057	0.192
831.3727	-0.0346
831.5396	-0.1594
831.7065	0.1178
831.8734	-0.4486
832.0402	-0.0261
832.2071	-0.2294
832.3739	0.4955
832.5407	-0
832.7075	0.0821
832.8742	1.0349
833.041	-0.1842
833.2077	0.9495
833.3744	0.0325
833.541	-0.2384
833.7077	0.4245
833.8743	-0.0745
834.0409	-0.1417
834.2075	0.0869
834.3741	0.1215
834.5407	-0.1202
834.7072	-0.0266
834.8737	-0.0071
835.0402	-0.1792
835.2067	0.1118
835.3731	0.1383
835.5395	0.0762
835.706	-0.1255
835.8723	-0.0791
836.0387	0.295
836.2051	0.1951
836.3714	0.4195
836.5377	0.302
836.704	0.0625
836.8703	0.0431
837.0365	0.2933
837.2027	-0
837.3689	-0.013
837.5351	-0.1258
837.7013	0.1768
837.8674	-0
838.0335	0.0008
838.1997	-0.1199
838.3657	-0
838.5318	-0.4653
838.6978	-0
838.8639	0.0317
839.0299	0.5398
839.1958	0.1984
839.3618	0.8422
839.5277	-0.0666
839.6937	-0.4103
839.8596	0.3761
840.0254	0.7131
840.1913	0.4394
840.3571	0.0758
840.523	-0
840.6888	-0.0724
840.8545	-0
841.0203	0.3584
841.186	0.1737
841.3517	0.2314
841.5174	0.1994
841.6831	0.2333
841.8488	0.8176
842.0144	-0
842.18	0.1537
842.3456	0.2474
842.5112	-0.2024
842.6767	-0.1473
842.8422	0.3126
843.0077	0.3558
843.1732	0.0138
843.3387	0.0406
843.5042	-0
843.6696	-0
843.835	-0.1293
844.0004	1.3387
844.1657	1.0345
844.3311	-0
844.4964	-0.1392
844.6617	-0
844.827	-0
844.9923	0.528
845.1575	-0
845.3227	-0
845.4879	0.192
845.6531	-0.1887
845.8183	1.2763
845.9834	-0
846.1485	-0.3506
846.3136	0.33
846.4787	-0.0544
846.6438	-0
846.8088	-0.9067
846.9738	0.3532
847.1388	0.1998
847.3038	0.1714
847.4687	-0
847.6337	-0
847.7986	0.2908
847.9635	0.0019
848.1284	-0.262
848.2932	0.3201
848.458	-0.2544
848.6228	0.192
848.7876	-0
848.9524	0.5585
849.1172	0.0334
849.2819	-0.2003
849.4466	0.2497
849.6113	-0.3048
849.7759	0.7746
849.9406	-0.3292
850.1052	0.04
850.2698	-0.6872
850.4344	0.2337
850.599	0.7985
850.7635	0.675
850.928	0.1734
851.0925	-0.085
851.257	0.0775
851.4215	-0
851.5859	0.2547
851.7503	-0.5754
851.9147	-0
852.0791	-0.4927
852.2434	-0.2729
852.4078	1.5113
852.5721	0.3386
852.7364	-0.0559
852.9007	-0.3931
853.0649	0.3473
853.2291	0.4771
853.3934	0.2296
853.5575	1.2284
853.7217	0.0828
853.8859	-0
854.05	-0.5124
854.2141	-0
854.3782	0.3069
854.5423	-0.5281
854.7063	1.0725
854.8703	0.1734
855.0343	-0.0872
855.1983	-0.1517
855.3623	0.1314
855.5262	-0
855.6901	0.4906
855.854	-0.0949
856.0179	-0
856.1818	-0.6286
856.3456	0.748
856.5094	-0
856.6732	0.2493
856.837	0.4713
857.0008	-0
857.1645	-0
857.3282	-0.2122
857.4919	-0.1038
857.6556	0.6486
857.8192	0.4771
857.9828	-0.4241
858.1465	0.0383
858.31	-1.2685
858.4736	0.1813
858.6372	0.9657
858.8007	-0.8804
858.9642	0.7642
859.1277	-0.1071
859.2911	0.0256
859.4546	0.0023
859.618	-0.1182
859.7814	-0
859.9448	-0
860.1081	-0
860.2715	-0.0656
860.4348	0.3146
860.5981	0.4274
860.7614	-0
860.9246	-0
861.0879	-0.3387
861.2511	-0
861.4143	0.5436
861.5774	0.5499
861.7406	-0.0656
861.9037	-0
862.0668	0.3054
862.2299	-2.1083
862.393	-0
862.556	-0
862.7191	-0.1532
862.8821	-0.2423
863.0451	0.1658
863.208	-0
863.371	0.4771
863.5339	-0.0896
863.6968	-0
863.8597	-0.9853
864.0225	0.3784
864.1854	-0
864.3482	0.4947
864.511	0.2411
864.6737	-0
864.8365	0.2695
864.9992	-0.3473
865.1619	-0.0198
865.3246	-0.3163
865.4873	0.4771
865.65	-0.2723
865.8126	-0.0304
865.9752	0.3201
866.1378	-0.9184
866.3004	0.391
866.4629	-0.0226
866.6254	-0
866.7879	-0
866.9504	-0
867.1129	-0.3162
867.2753	-0.075
867.4377	0.4218
867.6001	-0
867.7625	-0.3421
867.9249	-0
868.0872	-0
868.2495	-0
868.4118	-0
868.5741	-0
868.7363	-0
868.8986	-0.7003
869.0608	-0
869.223	-0.1898
869.3851	-0
869.5473	-1.5567
869.7094	0.1287
869.8715	0.1385
870.0336	0.1768
870.1957	-0.8812
870.3577	-0
870.5197	0.1052
870.6817	-0
870.8437	-0
871.0057	-0
871.1676	0.2749
871.3295	-0
871.4914	-0
871.6533	0.3321
871.8151	-0
871.977	0.7691
872.1388	-0.9208
872.3006	0.4937
872.4623	-0.7067
872.6241	-0
872.7858	-0.1909
872.9475	-0.7533
873.1092	0.1846
873.2709	0.2684
873.4325	-0
873.5941	-0.7688
873.7557	-0.7379
873.9173	-0
874.0789	-0.0575
874.2404	-0.5709
874.4019	0.277
874.5634	-0
874.7249	0.0475
874.8863	-0.3348
875.0478	0.3016
875.2092	-0
875.3706	-0.3939
875.5319	0.2613
875.6933	2.4814
875.8546	-0
876.0159	0.1266
876.1772	-0
876.3385	0.1976
876.4997	-0.3105
876.6609	-0
876.8221	0.5401
876.9833	0.0887
877.1445	0.2276
877.3056	-0.0141
877.4667	-0
877.6278	-0
877.7889	-0.2697
877.9499	0.272
878.111	0.0159
878.272	-0.0544
878.433	-0
878.5939	0.2279
878.7549	0.7611
878.9158	-0
879.0767	-0
879.2376	-0
879.3984	0.6258
879.5593	0.6003
879.7201	-0
879.8809	0.0304
880.0417	0.1136
880.2024	0.5913
880.3632	-0
880.5239	-0.1478
880.6846	0.9314
880.8452	0.2232
881.0059	-0
881.1665	0.4955
881.3271	-0.0675
881.4877	-0.1814
881.6483	-1.2685
881.8088	-0
881.9693	0.4937
882.1298	0.4937
882.2903	0.4937
