Data from D4ACN5uM480nmA_Absorbance_12-08-02-200.txt Node
Date: Fri Feb 21 12:08:02 GMT 2025
User: LASERRRRR
Spectrometer: FLMT03099
Trigger mode: 0
Integration Time (sec): 1.500000E-2
Scans to average: 1
Electric dark correction enabled: true
Nonlinearity correction enabled: false
Boxcar width: 0
XAxis mode: Wavelengths
Number of Pixels in Spectrum: 3648
>>>>>Begin Spectral Data<<<<<
179.3399	0.6232
179.5586	0.6232
179.7771	0.6232
179.9957	0.3952
180.2143	0.0328
180.4329	-0
180.6514	-0.7126
180.8699	-0
181.0885	-0.2585
181.307	0.2847
181.5255	0.8846
181.744	-0
181.9625	1.0062
182.181	0.2581
182.3994	-0
182.6179	-0
182.8363	-0
183.0547	-0
183.2732	0.5437
183.4916	0.207
183.71	0.4923
183.9284	0.297
184.1467	0.0566
184.3651	0.2586
184.5835	0.1445
184.8018	0.0689
185.0201	0.1944
185.2385	0.0806
185.4568	0.2192
185.6751	0.139
185.8934	0.1675
186.1117	0.0985
186.3299	0.2162
186.5482	0.0873
186.7664	0.3572
186.9847	0.271
187.2029	0.4936
187.4211	0.1924
187.6393	0.2569
187.8575	0.2713
188.0757	0.4281
188.2939	0.0364
188.512	0.5082
188.7302	0.1908
188.9483	0.9399
189.1665	0.498
189.3846	0.0355
189.6027	0.1003
189.8208	0.0603
190.0389	0.2842
190.257	0.2118
190.475	0.2441
190.6931	0.0809
190.9111	0.3884
191.1292	0.1521
191.3472	0.4736
191.5652	0.4825
191.7832	0.7467
192.0012	0.4609
192.2192	0.1291
192.4371	0.3173
192.6551	0.5457
192.873	0.2644
193.091	0.2451
193.3089	0.0616
193.5268	0.5009
193.7447	0.3559
193.9626	0.368
194.1805	0.2032
194.3984	0.3752
194.6162	0.4462
194.8341	0.7315
195.0519	0.7121
195.2697	0.4135
195.4875	0.7542
195.7054	0.4805
195.9231	0.5819
196.1409	0.6599
196.3587	0.5698
196.5765	0.4045
196.7942	0.7217
197.012	0.5824
197.2297	0.4666
197.4474	0.649
197.6651	0.4713
197.8828	0.8009
198.1005	0.6878
198.3182	0.6707
198.5358	0.6178
198.7535	0.6193
198.9711	0.6821
199.1888	0.6433
199.4064	0.5988
199.624	0.5935
199.8416	0.5234
200.0592	0.5691
200.2767	0.525
200.4943	0.6233
200.7119	0.5894
200.9294	0.5644
201.1469	0.637
201.3645	0.6494
201.582	0.5352
201.7995	0.6394
202.017	0.6171
202.2344	0.5074
202.4519	0.6111
202.6694	0.5507
202.8868	0.5125
203.1042	0.5611
203.3217	0.5076
203.5391	0.5365
203.7565	0.5458
203.9739	0.5314
204.1913	0.5672
204.4086	0.5282
204.626	0.5095
204.8433	0.5028
205.0607	0.559
205.278	0.5425
205.4953	0.4781
205.7126	0.4542
205.9299	0.4836
206.1472	0.4993
206.3644	0.5003
206.5817	0.4788
206.7989	0.4748
207.0162	0.4421
207.2334	0.4845
207.4506	0.4356
207.6678	0.4667
207.885	0.4359
208.1022	0.4562
208.3194	0.4162
208.5365	0.4607
208.7537	0.4524
208.9708	0.4577
209.1879	0.4021
209.405	0.4292
209.6222	0.4172
209.8392	0.4471
210.0563	0.4539
210.2734	0.4175
210.4905	0.4361
210.7075	0.4177
210.9245	0.4106
211.1416	0.4051
211.3586	0.4174
211.5756	0.3916
211.7926	0.4139
212.0096	0.4121
212.2265	0.4104
212.4435	0.4059
212.6604	0.4098
212.8774	0.4222
213.0943	0.4233
213.3112	0.411
213.5281	0.4372
213.745	0.4044
213.9619	0.4023
214.1788	0.3904
214.3956	0.4304
214.6125	0.4095
214.8293	0.3907
215.0461	0.4238
215.2629	0.3963
215.4798	0.3785
215.6965	0.4068
215.9133	0.4114
216.1301	0.398
216.3469	0.4242
216.5636	0.3941
216.7803	0.3974
216.9971	0.4279
217.2138	0.4382
217.4305	0.4288
217.6472	0.4066
217.8639	0.3877
218.0805	0.4151
218.2972	0.4237
218.5138	0.4302
218.7305	0.4027
218.9471	0.4059
219.1637	0.4309
219.3803	0.421
219.5969	0.4188
219.8135	0.4172
220.0301	0.4057
220.2466	0.4128
220.4632	0.4307
220.6797	0.4351
220.8962	0.4238
221.1127	0.4168
221.3292	0.4509
221.5457	0.4488
221.7622	0.4342
221.9787	0.4323
222.1951	0.4459
222.4116	0.4322
222.628	0.4417
222.8444	0.4539
223.0608	0.4348
223.2772	0.459
223.4936	0.4395
223.71	0.4362
223.9264	0.4249
224.1427	0.4563
224.3591	0.4645
224.5754	0.458
224.7917	0.4682
225.008	0.4566
225.2243	0.4619
225.4406	0.4709
225.6569	0.4503
225.8732	0.4608
226.0894	0.4701
226.3057	0.4542
226.5219	0.4683
226.7381	0.465
226.9543	0.4922
227.1705	0.4786
227.3867	0.5007
227.6029	0.4827
227.8191	0.4791
228.0352	0.5012
228.2513	0.5
228.4675	0.4836
228.6836	0.4982
228.8997	0.5076
229.1158	0.4928
229.3319	0.5024
229.548	0.4866
229.764	0.515
229.9801	0.5067
230.1961	0.5121
230.4121	0.5081
230.6282	0.502
230.8442	0.4992
231.0602	0.5149
231.2761	0.5208
231.4921	0.5191
231.7081	0.5104
231.924	0.5087
232.14	0.5274
232.3559	0.524
232.5718	0.5221
232.7877	0.5246
233.0036	0.519
233.2195	0.5264
233.4353	0.5435
233.6512	0.5394
233.867	0.5266
234.0829	0.5338
234.2987	0.5344
234.5145	0.5454
234.7303	0.5374
234.9461	0.539
235.1619	0.534
235.3776	0.5365
235.5934	0.5373
235.8091	0.5321
236.0249	0.5425
236.2406	0.5305
236.4563	0.5491
236.672	0.5409
236.8877	0.5375
237.1034	0.5319
237.319	0.5276
237.5347	0.5198
237.7503	0.5505
237.966	0.5335
238.1816	0.5267
238.3972	0.5429
238.6128	0.5385
238.8284	0.531
239.0439	0.5439
239.2595	0.5282
239.475	0.5344
239.6906	0.5283
239.9061	0.5252
240.1216	0.5357
240.3371	0.5205
240.5526	0.5263
240.7681	0.519
240.9836	0.5142
241.199	0.5203
241.4145	0.5064
241.6299	0.505
241.8453	0.5001
242.0607	0.4907
242.2761	0.4837
242.4915	0.4749
242.7069	0.4654
242.9223	0.4686
243.1376	0.4588
243.353	0.4474
243.5683	0.4493
243.7836	0.4251
243.9989	0.4168
244.2142	0.4138
244.4295	0.41
244.6448	0.3922
244.86	0.3871
245.0753	0.3758
245.2905	0.3767
245.5057	0.3734
245.721	0.3576
245.9362	0.3579
246.1514	0.3326
246.3665	0.3379
246.5817	0.3326
246.7969	0.3316
247.012	0.3217
247.2271	0.3066
247.4423	0.3077
247.6574	0.3085
247.8725	0.3022
248.0876	0.2945
248.3026	0.2895
248.5177	0.2871
248.7328	0.2835
248.9478	0.2672
249.1628	0.2572
249.3779	0.265
249.5929	0.2553
249.8079	0.2568
250.0228	0.2474
250.2378	0.2476
250.4528	0.251
250.6677	0.248
250.8827	0.2391
251.0976	0.2446
251.3125	0.2322
251.5274	0.233
251.7423	0.2271
251.9572	0.2222
252.172	0.2196
252.3869	0.2179
252.6017	0.2109
252.8166	0.217
253.0314	0.2225
253.2462	0.2217
253.461	0.2101
253.6758	0.2073
253.8906	0.2082
254.1053	0.2018
254.3201	0.202
254.5348	0.2054
254.7496	0.2021
254.9643	0.2035
255.179	0.2004
255.3937	0.1978
255.6083	0.2007
255.823	0.2028
256.0377	0.1977
256.2523	0.2046
256.467	0.1984
256.6816	0.1971
256.8962	0.1886
257.1108	0.1924
257.3254	0.2002
257.54	0.1926
257.7545	0.1948
257.9691	0.1923
258.1836	0.1889
258.3981	0.1867
258.6127	0.1882
258.8272	0.1853
259.0417	0.1821
259.2561	0.1885
259.4706	0.1938
259.6851	0.1848
259.8995	0.1804
260.114	0.1831
260.3284	0.1817
260.5428	0.181
260.7572	0.1826
260.9716	0.184
261.186	0.1811
261.4003	0.1882
261.6147	0.1867
261.829	0.1813
262.0433	0.178
262.2577	0.1833
262.472	0.188
262.6863	0.1893
262.9005	0.1943
263.1148	0.1814
263.3291	0.1924
263.5433	0.1856
263.7576	0.1917
263.9718	0.1874
264.186	0.188
264.4002	0.1817
264.6144	0.1852
264.8286	0.1937
265.0427	0.1899
265.2569	0.1833
265.471	0.1872
265.6851	0.1855
265.8993	0.1886
266.1134	0.1879
266.3275	0.1893
266.5415	0.1827
266.7556	0.184
266.9697	0.1848
267.1837	0.1816
267.3978	0.1932
267.6118	0.1842
267.8258	0.1898
268.0398	0.1823
268.2538	0.1844
268.4677	0.1786
268.6817	0.1803
268.8957	0.1801
269.1096	0.1788
269.3235	0.1841
269.5374	0.1813
269.7514	0.1794
269.9652	0.1846
270.1791	0.1765
270.393	0.1828
270.6068	0.1701
270.8207	0.1748
271.0345	0.1783
271.2483	0.1806
271.4622	0.1803
271.676	0.1743
271.8897	0.172
272.1035	0.1732
272.3173	0.1778
272.531	0.1736
272.7448	0.1668
272.9585	0.1755
273.1722	0.1719
273.3859	0.1721
273.5996	0.1747
273.8133	0.177
274.0269	0.1749
274.2406	0.1719
274.4542	0.1674
274.6679	0.1677
274.8815	0.1761
275.0951	0.1702
275.3087	0.1758
275.5223	0.1718
275.7358	0.1756
275.9494	0.1759
276.1629	0.1829
276.3765	0.1717
276.59	0.1743
276.8035	0.1847
277.017	0.1745
277.2305	0.176
277.444	0.173
277.6574	0.1761
277.8709	0.1797
278.0843	0.1786
278.2978	0.1813
278.5112	0.1828
278.7246	0.1805
278.938	0.1776
279.1513	0.1771
279.3647	0.18
279.5781	0.1778
279.7914	0.1822
280.0047	0.1775
280.2181	0.1866
280.4314	0.1767
280.6447	0.1886
280.8579	0.1741
281.0712	0.1863
281.2845	0.1819
281.4977	0.1866
281.711	0.1816
281.9242	0.1893
282.1374	0.18
282.3506	0.1889
282.5638	0.1877
282.7769	0.1842
282.9901	0.1764
283.2033	0.1892
283.4164	0.1795
283.6295	0.1868
283.8426	0.186
284.0557	0.1855
284.2688	0.187
284.4819	0.1897
284.695	0.1903
284.908	0.1907
285.1211	0.1877
285.3341	0.1944
285.5471	0.1895
285.7601	0.1926
285.9731	0.1936
286.1861	0.1896
286.3991	0.1954
286.612	0.1921
286.825	0.1919
287.0379	0.1947
287.2508	0.192
287.4637	0.1965
287.6766	0.1958
287.8895	0.1941
288.1024	0.1936
288.3152	0.196
288.5281	0.1989
288.7409	0.1953
288.9538	0.196
289.1666	0.2022
289.3794	0.1998
289.5922	0.1945
289.8049	0.2037
290.0177	0.1962
290.2304	0.2018
290.4432	0.2013
290.6559	0.195
290.8686	0.1999
291.0813	0.2011
291.294	0.2063
291.5067	0.2017
291.7194	0.1931
291.932	0.2026
292.1447	0.2
292.3573	0.198
292.5699	0.2008
292.7825	0.2025
292.9951	0.2008
293.2077	0.2024
293.4203	0.2012
293.6328	0.193
293.8454	0.1971
294.0579	0.205
294.2704	0.197
294.4829	0.198
294.6954	0.1978
294.9079	0.2036
295.1204	0.1965
295.3328	0.1975
295.5453	0.1969
295.7577	0.192
295.9701	0.1984
296.1825	0.1976
296.3949	0.2039
296.6073	0.2015
296.8197	0.2031
297.0321	0.1988
297.2444	0.2016
297.4567	0.194
297.6691	0.2014
297.8814	0.2013
298.0937	0.1949
298.306	0.196
298.5182	0.1992
298.7305	0.1961
298.9428	0.2043
299.155	0.2006
299.3672	0.1982
299.5794	0.1929
299.7916	0.2003
300.0038	0.1961
300.216	0.1965
300.4282	0.1927
300.6403	0.1968
300.8525	0.2057
301.0646	0.1959
301.2767	0.1945
301.4888	0.1928
301.7009	0.1964
301.913	0.1964
302.125	0.1958
302.3371	0.2021
302.5491	0.1982
302.7612	0.1973
302.9732	0.1951
303.1852	0.1963
303.3972	0.1976
303.6092	0.1937
303.8211	0.1867
304.0331	0.1911
304.245	0.194
304.457	0.1962
304.6689	0.1922
304.8808	0.1926
305.0927	0.1981
305.3046	0.1871
305.5164	0.1868
305.7283	0.1917
305.9401	0.1819
306.152	0.1839
306.3638	0.1752
306.5756	0.1868
306.7874	0.1811
306.9992	0.1747
307.2109	0.1744
307.4227	0.1714
307.6344	0.174
307.8462	0.1756
308.0579	0.1673
308.2696	0.1628
308.4813	0.1635
308.693	0.1601
308.9046	0.161
309.1163	0.1634
309.328	0.1513
309.5396	0.1609
309.7512	0.1532
309.9628	0.1561
310.1744	0.1542
310.386	0.1513
310.5976	0.1446
310.8091	0.1529
311.0207	0.1489
311.2322	0.1466
311.4437	0.1423
311.6552	0.1456
311.8667	0.1402
312.0782	0.1438
312.2897	0.1386
312.5012	0.141
312.7126	0.1338
312.924	0.1343
313.1355	0.1321
313.3469	0.133
313.5583	0.1303
313.7696	0.1314
313.981	0.1288
314.1924	0.1255
314.4037	0.1257
314.6151	0.1278
314.8264	0.1315
315.0377	0.1283
315.249	0.1233
315.4603	0.1266
315.6716	0.1303
315.8828	0.1235
316.0941	0.1214
316.3053	0.1199
316.5165	0.1204
316.7277	0.1247
316.9389	0.1224
317.1501	0.1189
317.3613	0.1196
317.5724	0.1203
317.7836	0.1181
317.9947	0.114
318.2058	0.1174
318.417	0.1143
318.6281	0.113
318.8391	0.1191
319.0502	0.1234
319.2613	0.1165
319.4723	0.1165
319.6834	0.1168
319.8944	0.1166
320.1054	0.1143
320.3164	0.1205
320.5274	0.1125
320.7383	0.1096
320.9493	0.1173
321.1602	0.1156
321.3712	0.1173
321.5821	0.1171
321.793	0.1138
322.0039	0.1186
322.2148	0.1172
322.4257	0.1129
322.6365	0.1165
322.8474	0.1125
323.0582	0.1121
323.269	0.1187
323.4798	0.1189
323.6906	0.1179
323.9014	0.1122
324.1122	0.1145
324.3229	0.124
324.5337	0.1191
324.7444	0.1166
324.9551	0.1152
325.1658	0.1241
325.3765	0.1208
325.5872	0.1121
325.7979	0.1168
326.0085	0.1143
326.2192	0.1191
326.4298	0.1212
326.6404	0.1245
326.851	0.1246
327.0616	0.1241
327.2722	0.128
327.4828	0.1178
327.6933	0.1228
327.9039	0.1234
328.1144	0.119
328.3249	0.1219
328.5354	0.1232
328.7459	0.126
328.9564	0.13
329.1669	0.1225
329.3773	0.1257
329.5878	0.1241
329.7982	0.121
330.0086	0.1251
330.219	0.1208
330.4294	0.1296
330.6398	0.1281
330.8502	0.1246
331.0605	0.1284
331.2708	0.1233
331.4812	0.1284
331.6915	0.118
331.9018	0.12
332.1121	0.1308
332.3224	0.1247
332.5326	0.1289
332.7429	0.1208
332.9531	0.1297
333.1633	0.1243
333.3735	0.1216
333.5837	0.1312
333.7939	0.1243
334.0041	0.1305
334.2143	0.1271
334.4244	0.1242
334.6346	0.1257
334.8447	0.1243
335.0548	0.128
335.2649	0.129
335.475	0.1265
335.685	0.1281
335.8951	0.1303
336.1051	0.1269
336.3152	0.1321
336.5252	0.1292
336.7352	0.1254
336.9452	0.1328
337.1552	0.1294
337.3652	0.1265
337.5751	0.1256
337.7851	0.1249
337.995	0.128
338.2049	0.1331
338.4148	0.1295
338.6247	0.1298
338.8346	0.1246
339.0445	0.1285
339.2543	0.1332
339.4642	0.1407
339.674	0.1407
339.8838	0.1273
340.0936	0.1349
340.3034	0.1335
340.5132	0.1328
340.7229	0.1351
340.9327	0.135
341.1424	0.1332
341.3522	0.1384
341.5619	0.1329
341.7716	0.1425
341.9813	0.1443
342.1909	0.1442
342.4006	0.1418
342.6102	0.139
342.8199	0.135
343.0295	0.1393
343.2391	0.1389
343.4487	0.1463
343.6583	0.1503
343.8679	0.1454
344.0774	0.1421
344.287	0.1461
344.4965	0.1503
344.706	0.1468
344.9155	0.1465
345.125	0.1477
345.3345	0.1463
345.544	0.1543
345.7534	0.1533
345.9629	0.151
346.1723	0.1562
346.3817	0.1503
346.5911	0.1491
346.8005	0.1528
347.0099	0.1523
347.2193	0.1518
347.4286	0.1469
347.638	0.1502
347.8473	0.1557
348.0566	0.1576
348.2659	0.1576
348.4752	0.1569
348.6845	0.1597
348.8937	0.1584
349.103	0.1563
349.3122	0.1587
349.5214	0.1535
349.7306	0.1593
349.9398	0.1673
350.149	0.1712
350.3582	0.1606
350.5674	0.1685
350.7765	0.1682
350.9856	0.1626
351.1948	0.1651
351.4039	0.1651
351.613	0.1729
351.822	0.1682
352.0311	0.1713
352.2402	0.17
352.4492	0.1696
352.6582	0.1716
352.8672	0.1676
353.0762	0.1698
353.2852	0.1721
353.4942	0.1777
353.7032	0.1768
353.9121	0.1742
354.1211	0.1736
354.33	0.1731
354.5389	0.1765
354.7478	0.1792
354.9567	0.1835
355.1655	0.1784
355.3744	0.1761
355.5833	0.1791
355.7921	0.1775
356.0009	0.1814
356.2097	0.1857
356.4185	0.1883
356.6273	0.1877
356.8361	0.198
357.0448	0.1884
357.2536	0.186
357.4623	0.1895
357.671	0.198
357.8797	0.1906
358.0884	0.1892
358.2971	0.1946
358.5057	0.1943
358.7144	0.1981
358.923	0.1888
359.1316	0.1919
359.3402	0.2019
359.5488	0.1925
359.7574	0.201
359.966	0.2028
360.1746	0.2034
360.3831	0.2066
360.5916	0.209
360.8002	0.2168
361.0087	0.2054
361.2172	0.2178
361.4256	0.2045
361.6341	0.2148
361.8426	0.2052
362.051	0.2131
362.2594	0.2146
362.4678	0.2125
362.6762	0.2144
362.8846	0.2206
363.093	0.2155
363.3014	0.2176
363.5097	0.2189
363.718	0.2276
363.9264	0.2206
364.1347	0.2316
364.343	0.2236
364.5513	0.236
364.7595	0.2328
364.9678	0.2318
365.176	0.2279
365.3842	0.2279
365.5925	0.2312
365.8007	0.2334
366.0089	0.2326
366.217	0.2361
366.4252	0.2303
366.6333	0.2356
366.8415	0.2398
367.0496	0.2325
367.2577	0.2439
367.4658	0.2491
367.6739	0.2449
367.882	0.247
368.09	0.2413
368.2981	0.2362
368.5061	0.2481
368.7141	0.2487
368.9221	0.2493
369.1301	0.2523
369.3381	0.2527
369.5461	0.255
369.754	0.2506
369.962	0.2585
370.1699	0.2681
370.3778	0.2557
370.5857	0.2596
370.7936	0.2572
371.0015	0.2549
371.2093	0.2608
371.4172	0.2666
371.625	0.2594
371.8328	0.2687
372.0406	0.2599
372.2484	0.2615
372.4562	0.2534
372.664	0.2638
372.8717	0.2698
373.0795	0.2658
373.2872	0.2731
373.4949	0.277
373.7026	0.2755
373.9103	0.2638
374.118	0.2697
374.3256	0.282
374.5333	0.2634
374.7409	0.2627
374.9485	0.2745
375.1561	0.2836
375.3637	0.2788
375.5713	0.2741
375.7789	0.2758
375.9864	0.2806
376.194	0.289
376.4015	0.2958
376.609	0.2829
376.8165	0.2876
377.024	0.2834
377.2315	0.2822
377.4389	0.2764
377.6464	0.2934
377.8538	0.2875
378.0612	0.2842
378.2686	0.2927
378.476	0.2887
378.6834	0.29
378.8908	0.2998
379.0981	0.2935
379.3055	0.2997
379.5128	0.2945
379.7201	0.2919
379.9274	0.2879
380.1347	0.3013
380.342	0.3012
380.5492	0.3024
380.7565	0.3011
380.9637	0.2966
381.1709	0.2933
381.3781	0.3053
381.5853	0.3062
381.7925	0.3132
381.9997	0.3126
382.2068	0.3018
382.4139	0.3154
382.6211	0.3049
382.8282	0.3079
383.0353	0.3077
383.2424	0.3054
383.4494	0.3103
383.6565	0.3101
383.8635	0.3167
384.0706	0.3016
384.2776	0.3154
384.4846	0.3151
384.6916	0.3141
384.8986	0.3195
385.1055	0.3311
385.3125	0.3132
385.5194	0.313
385.7263	0.3049
385.9333	0.3223
386.1402	0.3117
386.347	0.3165
386.5539	0.3193
386.7608	0.3112
386.9676	0.3141
387.1744	0.3136
387.3813	0.3142
387.5881	0.313
387.7948	0.3032
388.0016	0.3128
388.2084	0.3099
388.4151	0.3047
388.6219	0.2988
388.8286	0.311
389.0353	0.3016
389.242	0.2999
389.4487	0.3144
389.6553	0.3124
389.862	0.3149
390.0686	0.3162
390.2753	0.3075
390.4819	0.3078
390.6885	0.2983
390.8951	0.317
391.1016	0.2979
391.3082	0.2982
391.5147	0.3011
391.7213	0.2979
391.9278	0.2954
392.1343	0.2968
392.3408	0.2901
392.5473	0.2896
392.7537	0.2937
392.9602	0.2871
393.1666	0.2943
393.373	0.293
393.5794	0.2914
393.7858	0.299
393.9922	0.2928
394.1986	0.2864
394.4049	0.2858
394.6113	0.2818
394.8176	0.2722
395.0239	0.2767
395.2302	0.2774
395.4365	0.2712
395.6428	0.2835
395.8491	0.2838
396.0553	0.2615
396.2615	0.2728
396.4678	0.2756
396.674	0.274
396.8802	0.2667
397.0863	0.2735
397.2925	0.2778
397.4987	0.2593
397.7048	0.2718
397.9109	0.2723
398.117	0.2685
398.3231	0.2722
398.5292	0.2645
398.7353	0.2607
398.9413	0.2648
399.1474	0.2817
399.3534	0.2705
399.5594	0.269
399.7654	0.2838
399.9714	0.2551
400.1774	0.2768
400.3833	0.2736
400.5893	0.2705
400.7952	0.2709
401.0011	0.2658
401.207	0.2729
401.4129	0.2602
401.6188	0.2697
401.8247	0.2687
402.0305	0.2629
402.2364	0.2662
402.4422	0.2686
402.648	0.2679
402.8538	0.2691
403.0596	0.2596
403.2654	0.2641
403.4711	0.2681
403.6768	0.2701
403.8826	0.2719
404.0883	0.2641
404.294	0.2741
404.4997	0.2683
404.7054	0.2657
404.911	0.2582
405.1167	0.2691
405.3223	0.2711
405.5279	0.2712
405.7335	0.2625
405.9391	0.2669
406.1447	0.2674
406.3502	0.2763
406.5558	0.2776
406.7613	0.2675
406.9668	0.2669
407.1724	0.2713
407.3778	0.2765
407.5833	0.2604
407.7888	0.2657
407.9942	0.2734
408.1997	0.2676
408.4051	0.26
408.6105	0.2648
408.8159	0.2666
409.0213	0.2644
409.2267	0.262
409.432	0.2694
409.6374	0.2735
409.8427	0.2662
410.048	0.263
410.2533	0.2664
410.4586	0.2688
410.6639	0.2714
410.8691	0.2789
411.0744	0.2657
411.2796	0.2851
411.4848	0.2584
411.69	0.2693
411.8952	0.2675
412.1004	0.2616
412.3056	0.2595
412.5107	0.2711
412.7158	0.2671
412.921	0.2614
413.1261	0.2602
413.3312	0.2713
413.5362	0.2645
413.7413	0.2677
413.9464	0.2525
414.1514	0.2605
414.3564	0.2655
414.5614	0.2607
414.7664	0.2581
414.9714	0.2675
415.1764	0.2581
415.3813	0.2578
415.5863	0.2602
415.7912	0.2642
415.9961	0.2602
416.201	0.2625
416.4059	0.2525
416.6108	0.2566
416.8156	0.2555
417.0205	0.2661
417.2253	0.2579
417.4301	0.267
417.6349	0.265
417.8397	0.2671
418.0445	0.2619
418.2492	0.2681
418.454	0.261
418.6587	0.2639
418.8634	0.2623
419.0681	0.245
419.2728	0.2456
419.4775	0.2544
419.6822	0.2422
419.8868	0.2643
420.0915	0.2633
420.2961	0.2453
420.5007	0.2588
420.7053	0.2569
420.9099	0.235
421.1144	0.2402
421.319	0.2445
421.5235	0.246
421.728	0.2462
421.9325	0.244
422.137	0.2416
422.3415	0.2349
422.546	0.2433
422.7504	0.236
422.9549	0.2332
423.1593	0.2443
423.3637	0.2327
423.5681	0.2387
423.7725	0.2413
423.9769	0.2415
424.1812	0.2362
424.3856	0.2472
424.5899	0.2346
424.7942	0.2256
424.9985	0.2353
425.2028	0.2347
425.4071	0.2225
425.6113	0.2298
425.8156	0.2266
426.0198	0.2143
426.224	0.2245
426.4282	0.2213
426.6324	0.2322
426.8366	0.218
427.0407	0.2284
427.2449	0.2137
427.449	0.2184
427.6531	0.2163
427.8572	0.2206
428.0613	0.211
428.2654	0.2148
428.4694	0.2113
428.6735	0.2174
428.8775	0.2077
429.0815	0.2122
429.2855	0.1975
429.4895	0.1978
429.6935	0.2
429.8975	0.2098
430.1014	0.2015
430.3053	0.1954
430.5093	0.198
430.7132	0.1985
430.9171	0.1925
431.1209	0.1929
431.3248	0.1922
431.5286	0.1805
431.7325	0.1927
431.9363	0.1941
432.1401	0.175
432.3439	0.1804
432.5477	0.1861
432.7514	0.1764
432.9552	0.1719
433.1589	0.1681
433.3627	0.1717
433.5664	0.1719
433.7701	0.1742
433.9737	0.1638
434.1774	0.1738
434.3811	0.1712
434.5847	0.1556
434.7883	0.1662
434.9919	0.1543
435.1955	0.1586
435.3991	0.157
435.6027	0.1491
435.8062	0.1569
436.0098	0.1561
436.2133	0.1485
436.4168	0.1454
436.6203	0.1405
436.8238	0.1492
437.0272	0.1405
437.2307	0.1315
437.4341	0.1327
437.6375	0.1299
437.841	0.1375
438.0443	0.1367
438.2477	0.1207
438.4511	0.1311
438.6545	0.1325
438.8578	0.1297
439.0611	0.1189
439.2644	0.1149
439.4677	0.1165
439.671	0.1115
439.8743	0.1105
440.0775	0.1147
440.2808	0.1247
440.484	0.1066
440.6872	0.103
440.8904	0.1127
441.0936	0.1147
441.2967	0.1037
441.4999	0.111
441.703	0.1054
441.9062	0.1076
442.1093	0.1011
442.3124	0.0995
442.5155	0.0978
442.7185	0.0827
442.9216	0.0953
443.1246	0.0952
443.3276	0.0809
443.5307	0.0897
443.7337	0.0859
443.9366	0.0842
444.1396	0.0767
444.3426	0.0887
444.5455	0.076
444.7484	0.0733
444.9513	0.0816
445.1542	0.0743
445.3571	0.0723
445.56	0.0762
445.7628	0.0723
445.9657	0.0798
446.1685	0.0734
446.3713	0.0767
446.5741	0.0508
446.7769	0.0702
446.9797	0.0666
447.1824	0.0665
447.3852	0.0526
447.5879	0.062
447.7906	0.0602
447.9933	0.0667
448.196	0.058
448.3986	0.0615
448.6013	0.0575
448.8039	0.0573
449.0066	0.0582
449.2092	0.0454
449.4118	0.0457
449.6143	0.0514
449.8169	0.0528
450.0195	0.0522
450.222	0.0491
450.4245	0.0576
450.627	0.0493
450.8295	0.0474
451.032	0.0468
451.2345	0.0362
451.4369	0.0452
451.6394	0.0486
451.8418	0.0446
452.0442	0.0459
452.2466	0.0436
452.449	0.034
452.6513	0.0315
452.8537	0.0434
453.056	0.0464
453.2583	0.043
453.4607	0.042
453.663	0.0332
453.8652	0.0354
454.0675	0.042
454.2697	0.0354
454.472	0.0356
454.6742	0.0204
454.8764	0.0277
455.0786	0.0284
455.2808	0.0324
455.4829	0.0241
455.6851	0.0209
455.8872	0.0349
456.0893	0.0242
456.2915	0.0242
456.4935	0.0153
456.6956	0.0302
456.8977	0.0235
457.0997	0.024
457.3018	0.0241
457.5038	0.0226
457.7058	0.0249
457.9078	0.0332
458.1098	0.0276
458.3117	0.0261
458.5137	0.0221
458.7156	0.0273
458.9175	0.0169
459.1194	0.0226
459.3213	0.0208
459.5232	0.0184
459.725	0.0161
459.9269	0.0177
460.1287	0.0105
460.3305	0.0162
460.5323	0.0197
460.7341	0.0118
460.9359	0.0153
461.1376	0.0197
461.3394	0.0106
461.5411	0.0196
461.7428	0.0188
461.9445	0.0215
462.1462	0.0216
462.3479	0.0244
462.5495	0.0141
462.7512	0.0119
462.9528	0.0108
463.1544	0.0013
463.356	0.0222
463.5576	0.0049
463.7592	0.0142
463.9607	0.0073
464.1623	0.0168
464.3638	0.0076
464.5653	0.0146
464.7668	0.0088
464.9683	0.0092
465.1697	0.0105
465.3712	0.0091
465.5726	0.0099
465.7741	0.0099
465.9755	0.0123
466.1769	0.013
466.3782	-0.0013
466.5796	0.0148
466.7809	0.0116
466.9823	0.0098
467.1836	0.0119
467.3849	0.0084
467.5862	-0.0053
467.7875	0.0106
467.9887	0.0045
468.19	0.0077
468.3912	0.0122
468.5924	0.0155
468.7936	0.007
468.9948	0.0138
469.196	0.0043
469.3972	0.0271
469.5983	-0.0045
469.7994	0.009
470.0006	0.0067
470.2017	0.0051
470.4027	0.0063
470.6038	0.0078
470.8049	-0
471.0059	0.0159
471.2069	0.0169
471.408	0.0088
471.6089	0.0019
471.8099	0.0102
472.0109	0.0025
472.2119	0.0234
472.4128	0.0083
472.6137	0.0094
472.8146	0.0015
473.0155	0.0052
473.2164	-0.0065
473.4173	0.0079
473.6181	0.0041
473.819	0.0003
474.0198	0.0049
474.2206	0.0054
474.4214	0.0124
474.6222	0.0104
474.8229	0.0092
475.0237	0.0048
475.2244	0.0101
475.4251	0.0015
475.6258	0.0009
475.8265	-0.0041
476.0272	0.0001
476.2278	0.0074
476.4285	-0.0003
476.6291	0.0149
476.8297	0.0061
477.0303	0.0076
477.2309	0.0012
477.4315	0.0095
477.632	-0.0059
477.8326	0.0064
478.0331	-0.0005
478.2336	0.0149
478.4341	0.0097
478.6346	0.0099
478.8351	0.005
479.0355	0.0001
479.236	0.0059
479.4364	-0.0012
479.6368	0.0048
479.8372	0.0072
480.0376	0.0063
480.2379	0.0006
480.4383	0.0055
480.6386	-0.0047
480.8389	0.0114
481.0392	0.0142
481.2395	0.0155
481.4398	0.0106
481.6401	0.0016
481.8403	-0.003
482.0405	-0.0055
482.2408	0.0021
482.441	0.0019
482.6411	0.0048
482.8413	-0.0005
483.0415	0.0033
483.2416	0.0078
483.4417	-0.0025
483.6419	-0.004
483.8419	0.007
484.042	0.0037
484.2421	-0.0045
484.4422	0.0023
484.6422	0.0086
484.8422	0.0042
485.0422	0.0014
485.2422	0.003
485.4422	0.0009
485.6422	-0.0001
485.8421	0.0002
486.042	0.0063
486.242	0.0014
486.4419	0.0035
486.6417	0.0041
486.8416	0.0058
487.0415	-0.006
487.2413	0.0008
487.4411	0.0086
487.641	0.0086
487.8408	0.01
488.0405	0.0015
488.2403	-0.0027
488.4401	-0
488.6398	0.0128
488.8395	-0
489.0392	0.0009
489.2389	0.0079
489.4386	0.0005
489.6383	-0.0009
489.8379	-0.0033
490.0376	0.0166
490.2372	-0.0029
490.4368	0.0084
490.6364	0.0048
490.836	-0.0013
491.0355	0.0022
491.2351	0.0038
491.4346	0.0054
491.6341	-0.0029
491.8336	-0.0046
492.0331	-0.0032
492.2326	0.0031
492.432	0.0006
492.6315	-0
492.8309	0.0076
493.0303	-0.0119
493.2297	0.003
493.4291	0.0016
493.6284	0.0087
493.8278	0.0078
494.0271	0.0049
494.2264	0.0085
494.4257	-0.0031
494.625	-0.0011
494.8243	0.006
495.0236	0.0002
495.2228	-0.0039
495.422	0.0046
495.6213	-0.0003
495.8205	0.0107
496.0196	0.0055
496.2188	0.0051
496.418	-0.0068
496.6171	-0.0004
496.8162	0.0017
497.0153	0.0086
497.2144	0.0007
497.4135	0.0075
497.6126	-0.0029
497.8116	0.0001
498.0107	0.0027
498.2097	0.0051
498.4087	0.0038
498.6077	0.0056
498.8067	0.0081
499.0056	0.003
499.2046	-0.0012
499.4035	-0.0044
499.6024	-0.0114
499.8013	0.0042
500.0002	0.0036
500.199	0.0089
500.3979	0.0019
500.5967	-0.0098
500.7956	0.0022
500.9944	-0.0031
501.1932	0.0046
501.3919	0.0074
501.5907	0.0029
501.7895	0.0031
501.9882	-0.0016
502.1869	-0.0049
502.3856	-0.0077
502.5843	-0.0018
502.783	-0.0031
502.9816	-0.0023
503.1803	0.0113
503.3789	0.0036
503.5775	-0.0058
503.7761	0.0005
503.9747	-0.0041
504.1732	0.0113
504.3718	-0.0082
504.5703	0.0009
504.7689	-0.0016
504.9674	0.0037
505.1658	0.0069
505.3643	0.0054
505.5628	0.011
505.7612	0.0053
505.9597	0.007
506.1581	-0.007
506.3565	-0.0063
506.5549	0.0089
506.7532	-0.001
506.9516	0.0024
507.1499	0.0036
507.3482	0.0037
507.5465	-0.0052
507.7448	0.0075
507.9431	-0.0056
508.1414	-0.0023
508.3396	0.008
508.5379	0.0092
508.7361	0.0097
508.9343	0.0026
509.1325	0.0031
509.3306	0.0022
509.5288	0.0157
509.7269	0.0062
509.9251	-0.0031
510.1232	-0.0066
510.3213	0.0016
510.5193	0.0063
510.7174	-0.0087
510.9154	0.0107
511.1135	-0.0033
511.3115	0.0025
511.5095	0.0045
511.7075	-0.0039
511.9055	0.007
512.1034	-0.0016
512.3014	-0.0053
512.4993	0.0059
512.6972	-0.006
512.8951	0.0041
513.093	-0.0008
513.2908	0.0022
513.4887	0.0157
513.6865	-0.0039
513.8844	0.0059
514.0822	-0.0021
514.2799	0.0004
514.4777	0.0103
514.6755	0.0024
514.8732	0.0009
515.0709	0.0119
515.2687	0.0031
515.4664	-0.0072
515.664	0.0068
515.8617	0.0081
516.0594	0.0057
516.257	0.0062
516.4546	0.0018
516.6522	0.0026
516.8498	0.0056
517.0474	-0.0031
517.2449	-0.0013
517.4425	-0.0009
517.64	0.0076
517.8375	0.0117
518.035	0.0026
518.2325	0.0003
518.43	-0.002
518.6274	-0.0037
518.8249	0.0057
519.0223	-0.004
519.2197	0.0035
519.4171	0.0019
519.6145	-0.0123
519.8118	-0.0004
520.0092	-0.0036
520.2065	0.007
520.4038	0.0001
520.6011	0.003
520.7984	0.0124
520.9956	0.0004
521.1929	-0.0007
521.3901	0.0039
521.5874	-0.0014
521.7846	0.0004
521.9818	0.0068
522.1789	0.0051
522.3761	0.0044
522.5732	0.0002
522.7704	0.0043
522.9675	0.0033
523.1646	0.0065
523.3617	-0.0041
523.5587	-0.0023
523.7558	0.001
523.9528	0.0029
524.1498	0.009
524.3468	-0.0012
524.5438	-0.0055
524.7408	-0.0009
524.9378	0.0027
525.1347	0.0132
525.3316	0.013
525.5285	-0.0068
525.7254	0.0038
525.9223	0.005
526.1192	0.0026
526.316	-0.0061
526.5129	0.004
526.7097	0.0011
526.9065	0.0118
527.1033	-0.0007
527.3	-0.0053
527.4968	-0.0065
527.6935	0.0044
527.8903	0.0057
528.087	0.0074
528.2837	0.0056
528.4804	0.0117
528.677	-0.0016
528.8737	0.0055
529.0703	0.0065
529.2669	0.0042
529.4635	0.0148
529.6601	0.0052
529.8567	0.0026
530.0532	0.0011
530.2498	-0.0049
530.4463	0.0056
530.6428	-0.0117
530.8393	0.0011
531.0358	-0
531.2322	0.0019
531.4287	-0.0005
531.6251	0.0072
531.8215	0.004
532.0179	0.0002
532.2143	0.0035
532.4107	0.0053
532.607	0.0026
532.8034	0.0038
532.9997	0.0048
533.196	0.0148
533.3923	-0.0017
533.5886	0.0038
533.7848	-0.0001
533.9811	-0.0029
534.1773	-0.0048
534.3735	0.0069
534.5697	0.006
534.7659	0.0093
534.9621	0.006
535.1582	0.0066
535.3544	0.0115
535.5505	0.0002
535.7466	-0.003
535.9427	-0.0087
536.1387	-0.0087
536.3348	0.0127
536.5308	0.0033
536.7269	-0.0019
536.9229	0.0063
537.1189	0.0069
537.3148	-0.0096
537.5108	-0.0021
537.7068	0.0069
537.9027	-0.0025
538.0986	0
538.2945	-0.0027
538.4904	0.0005
538.6863	0.0087
538.8821	0.0066
539.078	-0.0038
539.2738	-0.0056
539.4696	0.0114
539.6654	-0.0023
539.8611	-0.0045
540.0569	0.0047
540.2526	-0.0022
540.4484	-0.0079
540.6441	0.0091
540.8398	-0.0053
541.0355	0.0053
541.2311	0.0057
541.4268	-0.0024
541.6224	0.0043
541.818	-0.0018
542.0136	-0.0064
542.2092	0.0042
542.4048	-0.0016
542.6003	-0.0002
542.7959	-0.0033
542.9914	0.0034
543.1869	0.0038
543.3824	0.0097
543.5779	0.0047
543.7734	-0.0062
543.9688	0.0002
544.1642	-0.0045
544.3596	0.0014
544.555	0.0046
544.7504	0.0001
544.9458	0.0018
545.1411	0.0054
545.3365	0.0087
545.5318	0.0068
545.7271	0.0035
545.9224	-0.0005
546.1177	0.0206
546.3129	-0.0019
546.5081	-0.012
546.7034	0.0021
546.8986	-0.0019
547.0938	0.0064
547.289	0.0026
547.4841	0.0034
547.6793	-0.005
547.8744	-0.0009
548.0695	-0.0006
548.2646	-0.0031
548.4597	-0.0058
548.6548	0.0105
548.8498	0.0042
549.0448	0.0023
549.2399	0.0041
549.4349	0.0056
549.6298	-0.0061
549.8248	-0.0004
550.0198	0.0041
550.2147	0.0082
550.4096	-0.0016
550.6045	0.012
550.7994	0.002
550.9943	0.0074
551.1892	0.0004
551.384	0.0196
551.5788	0.0123
551.7737	0.0043
551.9685	0.0038
552.1632	0.0053
552.358	0.005
552.5528	-0.0045
552.7475	-0.0061
552.9422	0.001
553.1369	0.0011
553.3316	-0.0046
553.5263	0.0071
553.7209	0.0002
553.9156	0.0033
554.1102	-0.002
554.3048	0.0037
554.4994	-0.0031
554.694	0.0082
554.8885	0.0039
555.0831	0.0155
555.2776	0.0033
555.4721	-0.0093
555.6666	0.011
555.8611	0.0007
556.0555	0.0024
556.25	-0.0002
556.4444	-0.0029
556.6388	0.0007
556.8332	-0.0054
557.0276	0.0138
557.222	-0.004
557.4163	0.003
557.6107	-0.0044
557.805	-0.0067
557.9993	0.0015
558.1936	0.0042
558.3879	0.0085
558.5821	0.0048
558.7764	0.0177
558.9706	-0.004
559.1648	0.0013
559.359	0.0169
559.5532	-0.011
559.7473	0.0088
559.9415	0.0071
560.1356	0.0046
560.3297	0.0015
560.5238	0.0021
560.7179	-0.0028
560.9119	0.0022
561.106	-0.0003
561.3	0.0064
561.494	0.0113
561.688	-0.0086
561.882	0.0031
562.076	0.0026
562.2699	-0.0023
562.4639	0.0112
562.6578	0.0055
562.8517	0.0095
563.0456	0.0078
563.2395	0.0016
563.4333	-0.0005
563.6272	0.0046
563.821	0.0096
564.0148	-0.0046
564.2086	-0.0025
564.4024	-0.0035
564.5961	-0.0049
564.7899	0.0029
564.9836	0.0027
565.1773	-0.0019
565.371	-0.0073
565.5647	-0.0005
565.7584	0.0027
565.952	-0.0017
566.1456	0.0028
566.3393	-0.0051
566.5329	-0.0002
566.7264	-0.0003
566.92	0.0005
567.1136	0.0029
567.3071	-0.0047
567.5006	-0.0046
567.6941	0.0072
567.8876	-0.0018
568.0811	-0.0085
568.2745	-0.0025
568.468	0.0057
568.6614	0.0061
568.8548	0.0027
569.0482	0.0078
569.2416	-0.0001
569.4349	0.0034
569.6283	0.0008
569.8216	0.0008
570.0149	-0.0006
570.2082	-0
570.4015	0.0068
570.5947	0.0027
570.788	-0.0008
570.9812	-0.0002
571.1744	-0.0017
571.3676	-0.0038
571.5608	-0.0004
571.754	-0.0024
571.9471	0.0037
572.1402	0.0016
572.3333	0.002
572.5264	0.0033
572.7195	0.0044
572.9126	0.0015
573.1057	-0.0021
573.2987	0.0061
573.4917	0.0043
573.6847	0
573.8777	0.0034
574.0707	-0.0036
574.2636	0.0019
574.4566	0.0025
574.6495	0.0018
574.8424	0.0032
575.0353	0.0007
575.2281	0.0031
575.421	-0.0035
575.6138	0.002
575.8067	-0.0011
575.9995	0.0011
576.1923	0.0037
576.385	0.0009
576.5778	-0.0035
576.7706	0.002
576.9633	0.0027
577.156	-0.0014
577.3487	0.0023
577.5414	0.0031
577.734	0.0003
577.9267	-0.0007
578.1193	0.0039
578.3119	-0.0043
578.5045	-0.0022
578.6971	-0.0024
578.8897	-0.0013
579.0822	0.0033
579.2747	-0.0067
579.4673	0.0016
579.6598	-0.0009
579.8522	0.0008
580.0447	-0.002
580.2372	0.0009
580.4296	-0.002
580.622	0.0034
580.8144	-0.0007
581.0068	0.0008
581.1992	0.0017
581.3915	-0.0011
581.5839	0.0009
581.7762	0.0024
581.9685	-0.0027
582.1608	0.0018
582.353	-0.0027
582.5453	0.003
582.7375	0.0024
582.9298	-0.005
583.122	-0.0033
583.3142	0.0038
583.5063	0.0036
583.6985	-0.0016
583.8906	-0.0042
584.0827	-0.0035
584.2749	0.0036
584.4669	-0.0013
584.659	-0.0017
584.8511	-0.0013
585.0431	-0.0012
585.2352	-0.0067
585.4272	0.0011
585.6192	-0.0014
585.8111	-0.0072
586.0031	0.0036
586.195	0.0009
586.387	-0.0001
586.5789	0.0015
586.7708	-0.0016
586.9627	0.003
587.1545	0.0032
587.3464	-0.0008
587.5382	-0.0028
587.73	0.0061
587.9218	-0.0031
588.1136	-0.0039
588.3053	-0.0013
588.4971	0.0052
588.6888	-0.0001
588.8805	0.0012
589.0722	0.0065
589.2639	-0.0043
589.4556	-0.0079
589.6472	-0.0042
589.8389	-0.002
590.0305	0.0033
590.2221	0.0003
590.4137	-0.0008
590.6052	-0.0023
590.7968	0.003
590.9883	0.0033
591.1798	-0.0073
591.3713	0.0012
591.5628	0.0011
591.7543	0.0009
591.9458	-0.0004
592.1372	-0.0003
592.3286	0.0001
592.52	0.0002
592.7114	-0.0043
592.9028	-0.0045
593.0941	-0.0056
593.2855	0.0012
593.4768	0.0041
593.6681	0.0006
593.8594	-0.0005
594.0506	-0.0009
594.2419	-0.0034
594.4331	-0.004
594.6244	0.0008
594.8156	-0.0004
595.0067	-0.0003
595.1979	-0.0028
595.3891	-0.0004
595.5802	0.0022
595.7713	-0.0006
595.9624	0.0077
596.1535	0.0022
596.3446	0.0043
596.5357	0.0043
596.7267	0.0004
596.9177	0.0019
597.1087	0.005
597.2997	-0.0024
597.4907	-0.0042
597.6817	-0.0003
597.8726	0.0057
598.0635	0.0021
598.2544	-0.0039
598.4453	-0.002
598.6362	-0.0017
598.827	0.002
599.0179	0.0025
599.2087	0.0014
599.3995	-0.0021
599.5903	-0.0005
599.7811	0.0002
599.9718	0.0008
600.1626	0.0027
600.3533	-0.0012
600.544	-0.0083
600.7347	-0.0007
600.9254	-0.0007
601.116	0.0025
601.3067	0.0044
601.4973	0.0139
601.6879	-0.002
601.8785	0.0008
602.0691	0.0042
602.2596	-0.0006
602.4502	0.0036
602.6407	0.0092
602.8312	0.0016
603.0217	0.0041
603.2122	0.0085
603.4027	0.0025
603.5931	0.0018
603.7835	0.0023
603.9739	-0.0022
604.1643	0.001
604.3547	0.001
604.5451	0.0061
604.7354	-0.0017
604.9257	-0.0026
605.116	-0.0002
605.3063	-0.0017
605.4966	0.005
605.6869	-0.0025
605.8771	0.0024
606.0673	-0.0056
606.2575	-0.0035
606.4477	0.0047
606.6379	-0.0001
606.8281	-0.0062
607.0182	0.004
607.2083	-0.0062
607.3985	0.0001
607.5885	0.0043
607.7786	0.0058
607.9687	-0.0012
608.1587	-0.0035
608.3488	-0.0018
608.5388	0.0006
608.7288	-0.001
608.9187	0.0045
609.1087	-0.0032
609.2986	-0.0021
609.4886	0.0048
609.6785	0.0038
609.8684	0.0032
610.0582	0.0006
610.2481	-0.0037
610.4379	0.0015
610.6278	0.0025
610.8176	-0.0027
611.0074	-0.0054
611.1971	0.0053
611.3869	0.0015
611.5766	0.0107
611.7664	0.0032
611.9561	0.0004
612.1458	0.0008
612.3354	-0.0017
612.5251	-0.0052
612.7147	0.0041
612.9044	-0.0004
613.094	-0.0017
613.2836	-0.0047
613.4731	0.0016
613.6627	0.01
613.8522	-0.004
614.0417	-0.0025
614.2313	-0.0069
614.4207	0.0061
614.6102	-0.007
614.7997	-0.0072
614.9891	-0.0019
615.1785	-0.0018
615.3679	-0.0036
615.5573	-0.0056
615.7467	-0.0045
615.9361	-0.0048
616.1254	-0.0131
616.3147	0.0031
616.504	-0.0045
616.6933	-0.0059
616.8826	0.0059
617.0718	-0.0021
617.2611	-0.0007
617.4503	0.0023
617.6395	0.0032
617.8287	-0.0079
618.0179	-0.0022
618.207	0.0007
618.3961	0.0044
618.5853	0.0005
618.7744	0.0058
618.9634	0.0028
619.1525	0.0032
619.3416	-0.0033
619.5306	-0.0054
619.7196	-0.0031
619.9086	0.0075
620.0976	0.0076
620.2866	0.0042
620.4755	0.0058
620.6645	-0.0051
620.8534	-0.0065
621.0423	-0.0024
621.2312	-0.0057
621.42	0.0025
621.6089	0.0016
621.7977	-0.0066
621.9865	0.0084
622.1753	0.0031
622.3641	-0.0052
622.5529	-0.0098
622.7416	-0.0018
622.9303	-0.0028
623.1191	-0.0002
623.3078	-0.0014
623.4964	-0.007
623.6851	0.01
623.8737	0.0069
624.0624	-0.0131
624.251	-0.0025
624.4396	-0.0096
624.6282	0.0094
624.8167	0.0165
625.0053	0.0015
625.1938	0.0088
625.3823	-0.0058
625.5708	-0.0017
625.7593	-0.0057
625.9477	-0.0081
626.1362	-0.0071
626.3246	-0.0057
626.513	0.0118
626.7014	-0.0052
626.8898	-0.0005
627.0781	-0.001
627.2665	-0.0011
627.4548	-0.0023
627.6431	-0.0112
627.8314	0.0115
628.0197	0.0068
628.2079	-0.0038
628.3962	0.017
628.5844	0.0026
628.7726	-0.0133
628.9608	-0.0039
629.1489	-0.0001
629.3371	0.0066
629.5252	0.013
629.7134	0.0008
629.9015	-0.0045
630.0895	-0.003
630.2776	-0.005
630.4657	0.0122
630.6537	-0.0076
630.8417	-0.0078
631.0297	0.002
631.2177	0.017
631.4057	-0.0105
631.5936	0.0048
631.7815	0.0022
631.9695	0.0064
632.1574	0.0068
632.3452	-0.0032
632.5331	0.0048
632.7209	0.0141
632.9088	-0.0075
633.0966	0.0052
633.2844	-0
633.4722	0.014
633.6599	-0.0062
633.8477	-0.0039
634.0354	0.0079
634.2231	0.013
634.4108	-0.005
634.5985	-0.0022
634.7861	-0.006
634.9738	0.0172
635.1614	0.0153
635.349	-0.0094
635.5366	0.01
635.7242	-0.0092
635.9117	0.004
636.0993	-0.0121
636.2868	-0.0131
636.4743	0.0154
636.6618	0.0077
636.8492	-0.0023
637.0367	-0.0087
637.2241	-0.0116
637.4115	0.0043
637.5989	0.0231
637.7863	0.0013
637.9737	0.0069
638.161	-0.0048
638.3484	0.0189
638.5357	-0.0061
638.723	-0.0109
638.9103	0.0176
639.0975	0.0056
639.2848	0.0139
639.472	-0.0116
639.6592	0.0073
639.8464	0.0335
640.0336	0.0166
640.2208	-0.0151
640.4079	0.0149
640.595	-0.0164
640.7821	0.0035
640.9692	0.0129
641.1563	0.0033
641.3434	0.0184
641.5304	-0.0106
641.7174	0.0042
641.9044	-0.006
642.0914	-0.0028
642.2784	0.0051
642.4653	0.0127
642.6523	0.0072
642.8392	0.0157
643.0261	0.0073
643.213	-0.0108
643.3999	-0.0023
643.5867	-0.0005
643.7735	0.0142
643.9604	-0.0158
644.1472	0.0034
644.3339	0.0074
644.5207	-0.0046
644.7075	0.0177
644.8942	0.0105
645.0809	-0.0017
645.2676	-0.0042
645.4543	0.003
645.6409	-0.0052
645.8276	-0.023
646.0142	0.0286
646.2008	-0.016
646.3874	0.0082
646.574	-0.0078
646.7605	0.0118
646.9471	0.0223
647.1336	0.0019
647.3201	-0.0077
647.5066	-0.0039
647.6931	-0.0045
647.8795	0.0181
648.0659	0.0038
648.2524	0.0022
648.4388	0.0062
648.6252	-0.0189
648.8115	0.0005
648.9979	-0.0052
649.1842	-0.0173
649.3705	-0
649.5568	-0.0165
649.7431	0.0134
649.9294	0.0007
650.1156	-0.0025
650.3018	0.0044
650.488	0.0088
650.6742	0.0154
650.8604	-0.0005
651.0466	0.0076
651.2327	-0.02
651.4188	0.0017
651.6049	-0.0052
651.791	0.0247
651.9771	0.01
652.1632	0.0156
652.3492	0.0164
652.5352	-0.0082
652.7212	0.0101
652.9072	-0.0116
653.0932	-0.0164
653.2791	-0.0048
653.465	-0.0028
653.651	0.0264
653.8369	0.0019
654.0227	-0.0028
654.2086	-0.0128
654.3944	-0.0124
654.5803	0.0037
654.7661	-0.0048
654.9519	-0.0011
655.1377	0.0001
655.3234	0.0001
655.5092	0.0001
655.6949	0.0001
655.8806	0.0001
656.0663	0.0001
656.2519	0.0001
656.4376	0.0001
656.6232	0.0001
656.8088	0.0001
656.9945	0.0001
657.18	0.0001
657.3656	0.0001
657.5511	0.0001
657.7367	0.0001
657.9222	0.0001
658.1077	0.0001
658.2932	0.0001
658.4786	0.0001
658.6641	0.0001
658.8495	0.0001
659.0349	0.0001
659.2203	0.0001
659.4057	0.0123
659.591	0.0402
659.7764	0.0183
659.9617	-0.0103
660.147	-0.0015
660.3323	0.0004
660.5176	0.0038
660.7028	0.0097
660.888	0.0049
661.0733	0.0165
661.2585	0.0195
661.4436	-0.001
661.6288	0.0099
661.8139	0.0102
661.9991	0.0015
662.1842	0.0456
662.3693	0.001
662.5544	0.0022
662.7394	0.0139
662.9245	0.0252
663.1095	0.0008
663.2945	-0.0062
663.4795	-0.0086
663.6644	-0.0126
663.8494	0.0016
664.0343	-0.0133
664.2193	-0.0056
664.4042	-0.0055
664.589	-0.0159
664.7739	0.0059
664.9587	0.0052
665.1436	-0.0046
665.3284	0.0056
665.5132	0.0008
665.698	-0.0115
665.8827	-0.0296
666.0675	0.0019
666.2522	0.0345
666.4369	-0.0163
666.6216	-0.0078
666.8063	-0.0201
666.9909	-0.0152
667.1756	-0.0081
667.3602	0.0047
667.5448	0.0024
667.7294	0.001
667.9139	0.01
668.0985	-0.0036
668.283	-0.0031
668.4675	0.0093
668.652	-0.019
668.8365	-0.0095
669.0209	-0.001
669.2054	0.0195
669.3898	0.0036
669.5742	-0.0043
669.7586	0.0242
669.943	-0.0149
670.1273	-0.0059
670.3117	0.0031
670.496	0.0201
670.6803	0
670.8646	0.0216
671.0488	-0.0019
671.2331	0.0006
671.4173	0.0015
671.6015	-0.0049
671.7857	-0.0084
671.9699	0.0051
672.1541	-0.0002
672.3382	0.0089
672.5223	-0.0012
672.7064	-0.0005
672.8905	-0.0023
673.0746	0.0045
673.2587	0.004
673.4427	0.0123
673.6267	-0.0341
673.8107	-0.0103
673.9947	0.0253
674.1787	0.0173
674.3626	-0.0058
674.5465	0.0226
674.7304	-0.0252
674.9143	0.0086
675.0982	-0.006
675.2821	0.0155
675.4659	0.0097
675.6497	0.0108
675.8335	0.0009
676.0173	0.0139
676.2011	-0.0129
676.3849	0.0007
676.5686	-0.0014
676.7523	0.0104
676.936	-0.0261
677.1197	-0.0104
677.3034	0.0057
677.487	0.0091
677.6706	0.0028
677.8542	0.0119
678.0378	0.0082
678.2214	0.0066
678.405	0.0206
678.5885	-0.0171
678.772	-0.013
678.9555	-0.0032
679.139	-0.0173
679.3225	-0.0051
679.5059	-0.0081
679.6894	-0.0079
679.8728	-0.0076
680.0562	-0.0071
680.2395	0.0036
680.4229	0.0028
680.6062	-0.008
680.7896	0.0072
680.9729	0.0102
681.1562	0.0002
681.3394	0.0046
681.5227	-0.0367
681.7059	-0.0003
681.8891	0.0281
682.0723	-0.0109
682.2555	0.0213
682.4387	0.0191
682.6218	-0.0153
682.805	0.0163
682.9881	0.0079
683.1712	0.0205
683.3542	-0.0187
683.5373	0.0095
683.7203	-0.0011
683.9034	0.0111
684.0864	-0.0035
684.2694	0.0028
684.4523	0.0105
684.6353	-0.0054
684.8182	0.0042
685.0011	0.0003
685.184	0.0008
685.3669	0.0073
685.5498	0.0072
685.7326	-0.0069
685.9154	-0.0171
686.0982	0.0043
686.281	0.0011
686.4638	0.0034
686.6465	-0.0136
686.8293	0.0157
687.012	-0.0036
687.1947	0.0086
687.3774	0.0142
687.56	-0.006
687.7427	-0.0119
687.9253	0.0028
688.1079	0.0185
688.2905	0.004
688.4731	0.0216
688.6556	0.0117
688.8382	0.0263
689.0207	-0.0113
689.2032	-0.0246
689.3857	0.0041
689.5681	-0.0119
689.7506	-0.0133
689.933	-0.0121
690.1154	0.0015
690.2978	-0.0026
690.4802	0.0002
690.6626	-0.0133
690.8449	-0.0181
691.0272	-0.0157
691.2095	-0.0149
691.3918	-0.0018
691.5741	-0.015
691.7563	0.0101
691.9386	-0.0086
692.1208	-0.0018
692.303	0.0061
692.4852	0.0123
692.6673	-0.0054
692.8495	0.0086
693.0316	-0.0226
693.2137	0.0308
693.3958	-0.0022
693.5778	-0.0097
693.7599	-0.0311
693.9419	0.0277
694.1239	0.0018
694.3059	-0.0062
694.4879	-0.0046
694.6699	0.0097
694.8518	0.0208
695.0337	-0.009
695.2157	0.0041
695.3975	0.018
695.5794	-0.0239
695.7613	0.0148
695.9431	-0.008
696.1249	0.003
696.3067	0.0055
696.4885	-0.0049
696.6703	-0.0035
696.852	-0.0105
697.0337	0.0006
697.2154	0.0211
697.3971	0.0083
697.5788	0.0101
697.7605	0.0007
697.9421	0.0158
698.1237	0.0072
698.3053	0.0024
698.4869	-0.0038
698.6685	0.0104
698.85	-0.0012
699.0315	-0.0285
699.213	0.0087
699.3945	0.0037
699.576	0.0122
699.7575	-0.0139
699.9389	-0.0098
700.1203	-0.0082
700.3017	0.0077
700.4831	0.0126
700.6645	0.0064
700.8458	-0.005
701.0271	0.0017
701.2084	-0.022
701.3897	0.0031
701.571	-0.0074
701.7523	-0.0033
701.9335	0.0145
702.1147	-0.0059
702.2959	0.0024
702.4771	-0.0128
702.6583	-0.0081
702.8394	0.011
703.0205	0.0014
703.2016	-0.0007
703.3827	0.0335
703.5638	-0.0065
703.7449	-0.0084
703.9259	-0.0022
704.1069	0.0252
704.2879	0.0249
704.4689	0.0062
704.6499	-0.0297
704.8308	-0.018
705.0117	-0.0028
705.1927	-0.0214
705.3735	0.0173
705.5544	-0.0037
705.7353	0.0167
705.9161	-0.0253
706.0969	0.0021
706.2777	0.0179
706.4585	0.0068
706.6393	-0.004
706.82	-0.0143
707.0007	0.0013
707.1815	0.0164
707.3621	0.0032
707.5428	0.0234
707.7235	0.0289
707.9041	-0.0238
708.0847	-0.0123
708.2653	0.0044
708.4459	0.0135
708.6265	-0.0085
708.807	0.0138
708.9875	0.0397
709.168	0.0163
709.3485	-0.0146
709.529	0.0061
709.7095	-0.0038
709.8899	0.0503
710.0703	0.0176
710.2507	0.0029
710.4311	-0.0044
710.6115	0.011
710.7918	0.0071
710.9721	-0.0135
711.1524	0.0079
711.3327	-0.0076
711.513	-0.0045
711.6932	-0.0081
711.8735	0.0071
712.0537	-0.0037
712.2339	0.005
712.4141	0.0027
712.5942	0.0099
712.7744	-0.0068
712.9545	-0.0029
713.1346	0.0092
713.3147	0.0172
713.4947	-0.0138
713.6748	0.0044
713.8548	-0.0042
714.0348	0.0121
714.2148	0.0071
714.3948	0.0092
714.5748	-0.0019
714.7547	0.0258
714.9346	0.0084
715.1145	0.0109
715.2944	0.0334
715.4743	0.0045
715.6541	-0.017
715.834	0.036
716.0138	-0.0206
716.1936	0.0033
716.3733	0.001
716.5531	0.0186
716.7328	-0.0395
716.9126	-0.0293
717.0923	0.0152
717.2719	0.0033
717.4516	-0.026
717.6312	-0.0334
717.8109	0.0615
717.9905	0.008
718.1701	-0.0263
718.3496	0.0064
718.5292	-0.0176
718.7087	0.0101
718.8882	0.0093
719.0677	-0.0339
719.2472	0.005
719.4267	0.0133
719.6061	-0.0146
719.7856	-0.0004
719.965	0.0209
720.1443	0.002
720.3237	0.0227
720.5031	0.0272
720.6824	-0.0054
720.8617	0.0068
721.041	0.02
721.2203	0.0124
721.3995	-0.0044
721.5788	0.0196
721.758	-0.0046
721.9372	0.0062
722.1164	-0.0034
722.2956	0.0187
722.4747	0.0107
722.6538	0.0192
722.8329	-0.0183
723.012	0.0173
723.1911	0.0167
723.3702	-0.013
723.5492	-0.0066
723.7282	0.003
723.9072	-0.0184
724.0862	0.0046
724.2652	-0.0139
724.4441	0.0128
724.623	-0.0271
724.8019	-0.0087
724.9808	0.0054
725.1597	-0.0087
725.3385	-0.0195
725.5174	0.0514
725.6962	0.0326
725.875	0.0062
726.0538	-0.0151
726.2325	-0.0249
726.4112	0.0061
726.59	0.0111
726.7687	0.0004
726.9474	0.0172
727.126	-0.0008
727.3047	0.0035
727.4833	0.0527
727.6619	0.0299
727.8405	-0.0021
728.0191	-0.0364
728.1976	-0.0198
728.3762	-0.0241
728.5547	0.0004
728.7332	-0.0011
728.9116	-0.0389
729.0901	0.0019
729.2686	-0.0109
729.447	0.0016
729.6254	0.0054
729.8038	-0.0048
729.9821	-0.0003
730.1605	0.002
730.3388	-0.0078
730.5171	-0.0109
730.6954	0.0313
730.8737	0.0182
731.0519	0.0063
731.2302	-0.0152
731.4084	0.0042
731.5866	-0.0072
731.7648	0.0123
731.9429	-0.0043
732.1211	-0.009
732.2992	-0.0062
732.4773	-0.0249
732.6554	0.0054
732.8335	0.0137
733.0115	-0.021
733.1896	-0.0011
733.3676	0.0102
733.5456	-0.0057
733.7235	0.0094
733.9015	-0.0116
734.0794	-0.0097
734.2574	0.0107
734.4353	-0.0003
734.6131	0.0042
734.791	0.0095
734.9689	-0.0009
735.1467	-0.0121
735.3245	0.009
735.5023	0.0159
735.68	0.0031
735.8578	-0.0168
736.0355	-0.0113
736.2132	0.018
736.3909	-0.0144
736.5686	0.0192
736.7463	-0
736.9239	-0.006
737.1015	-0.0009
737.2791	0.0053
737.4567	0.0049
737.6343	0.0051
737.8118	0.0041
737.9894	0.0119
738.1669	-0.0047
738.3444	0.0116
738.5218	0.0161
738.6993	-0.0076
738.8767	-0.0056
739.0541	-0.0022
739.2315	-0.0102
739.4089	0.0176
739.5863	0.0127
739.7636	0.0066
739.9409	0.0222
740.1182	-0.0113
740.2955	-0.0478
740.4728	0.0196
740.65	-0.0247
740.8272	-0.0005
741.0044	0.0156
741.1816	0.0063
741.3588	0.0161
741.5359	-0.0015
741.7131	0.0205
741.8902	-0.0048
742.0673	-0.0031
742.2444	0.0016
742.4214	-0.0032
742.5985	-0.0049
742.7755	-0.0095
742.9525	0.0046
743.1295	-0.0099
743.3064	0.0078
743.4834	-0.0081
743.6603	0.0056
743.8372	0.0311
744.0141	0.026
744.191	-0.021
744.3678	0.0358
744.5446	0.0041
744.7215	-0.0262
744.8982	0.0149
745.075	0.0009
745.2518	0.0185
745.4285	0.0177
745.6052	0.0245
745.7819	0.0048
745.9586	0.0059
746.1353	0.0025
746.3119	0.0268
746.4885	-0.0072
746.6651	-0.0271
746.8417	-0.0045
747.0183	0.0134
747.1948	-0.0292
747.3714	0.0164
747.5479	-0.0183
747.7244	-0.0306
747.9008	0.0207
748.0773	0.0107
748.2537	0.0293
748.4301	0.0323
748.6065	-0.0342
748.7829	0.016
748.9593	-0.0118
749.1356	0.0248
749.3119	-0.0113
749.4882	0.0016
749.6645	0.0197
749.8408	-0.0158
750.017	0.0388
750.1933	0.0374
750.3695	-0.0042
750.5457	-0.0241
750.7218	0.0481
750.898	-0.0148
751.0741	-0.0076
751.2502	-0.0172
751.4263	0.0029
751.6024	0.0269
751.7784	-0.0339
751.9545	-0.0459
752.1305	-0.0167
752.3065	0.024
752.4825	-0.0375
752.6584	0.0033
752.8344	0.0118
753.0103	-0.0236
753.1862	-0.0089
753.3621	-0.0101
753.5379	-0.0204
753.7138	-0.0272
753.8896	0.0359
754.0654	-0.0084
754.2412	0.0399
754.417	0.008
754.5927	-0.0056
754.7685	0.0031
754.9442	0.0032
755.1199	-0.0099
755.2956	0.0154
755.4712	-0.0246
755.6469	-0.0083
755.8225	0.0054
755.9981	-0.0005
756.1736	0.0116
756.3492	0.0003
756.5248	-0.0068
756.7003	-0.006
756.8758	-0.0133
757.0513	0.001
757.2267	-0.0077
757.4022	0.002
757.5776	-0.0103
757.753	-0.0043
757.9284	-0.01
758.1038	0.0214
758.2791	-0.0077
758.4545	-0.0067
758.6298	0.0051
758.8051	-0.0114
758.9803	-0.014
759.1556	-0.0173
759.3308	0.0055
759.506	0.0209
759.6812	-0.0009
759.8564	-0.0105
760.0316	0.0135
760.2067	-0.0316
760.3819	-0.0012
760.557	-0.0026
760.732	0.0165
760.9071	-0.0022
761.0821	0.0108
761.2572	0.0082
761.4322	-0.0186
761.6072	0.0004
761.7821	0.003
761.9571	0.0169
762.132	-0.0232
762.3069	0.0015
762.4818	-0.0035
762.6567	-0.0011
762.8316	0.0015
763.0064	-0.02
763.1812	-0.003
763.356	0.0241
763.5308	-0.0059
763.7055	0.0012
763.8803	-0.0075
764.055	-0.0067
764.2297	0.0005
764.4044	-0.002
764.579	-0.0237
764.7537	0.0056
764.9283	-0.0165
765.1029	0.0133
765.2775	-0.012
765.4521	-0.0074
765.6266	-0.0312
765.8011	-0.0281
765.9756	-0.004
766.1501	0.0029
766.3246	0.0043
766.4991	-0.0257
766.6735	-0.0212
766.8479	0.0127
767.0223	0.0162
767.1967	0.0098
767.371	-0.0138
767.5454	0.0118
767.7197	-0.0026
767.894	-0.0247
768.0683	-0.0008
768.2425	0.0218
768.4168	0.0194
768.591	0.0163
768.7652	-0.0083
768.9394	0.0124
769.1135	0.017
769.2877	0.0116
769.4618	-0.0055
769.6359	0.0039
769.81	-0.0082
769.984	0.0057
770.1581	-0.0071
770.3321	-0.0201
770.5061	0.0053
770.6801	0.0136
770.8541	-0.0015
771.028	0.0131
771.202	-0.0313
771.3759	0.0076
771.5498	0.0044
771.7236	-0.0174
771.8975	-0.0551
772.0713	-0.009
772.2451	0.007
772.4189	-0.0153
772.5927	-0.0336
772.7665	0.0196
772.9402	0.0214
773.1139	-0.0072
773.2876	0.0403
773.4613	0.0491
773.635	0.0034
773.8086	-0.0389
773.9822	-0.0063
774.1558	0.0216
774.3294	-0.0074
774.503	-0.0034
774.6765	0.0384
774.8501	0.0183
775.0236	0.0686
775.1971	-0.0162
775.3705	-0.0205
775.544	0.0172
775.7174	0.0119
775.8908	0.0439
776.0642	0.0103
776.2376	-0.0524
776.4109	0.0622
776.5843	-0.0287
776.7576	-0
776.9309	0.0695
777.1041	-0.0167
777.2774	0.0276
777.4506	-0.0026
777.6238	-0.0017
777.797	-0.0155
777.9702	0.0653
778.1434	0.0411
778.3165	-0.003
778.4896	-0.0315
778.6627	0.0229
778.8358	-0.0106
779.0089	-0.0099
779.1819	-0.0063
779.3549	0.0244
779.5279	-0.0312
779.7009	0.0125
779.8739	-0.0486
780.0468	0.017
780.2197	-0.0409
780.3926	-0.0482
780.5655	0.0006
780.7384	0.0137
780.9112	0.0079
781.0841	-0.0136
781.2569	0.0101
781.4297	0.0497
781.6024	0.0154
781.7752	0.0098
781.9479	-0.0044
782.1206	0.0241
782.2933	-0.0114
782.466	-0.0142
782.6386	-0.0162
782.8113	-0.0358
782.9839	0.0211
783.1565	0.0271
783.329	-0.0017
783.5016	0.0012
783.6741	-0.008
783.8466	-0.0426
784.0191	0.0014
784.1916	0.0142
784.3641	-0.0462
784.5365	0.0393
784.7089	0.004
784.8813	-0.0066
785.0537	-0.0123
785.2261	0.015
785.3984	-0.0332
785.5707	0.0418
785.743	-0.0239
785.9153	0.0049
786.0876	-0.0609
786.2598	0.008
786.432	-0.0038
786.6042	0.0528
786.7764	-0.0207
786.9486	0.0129
787.1207	0.0176
787.2928	-0.0135
787.4649	0.0149
787.637	0.0314
787.8091	0.0025
787.9811	0.0184
788.1532	-0.0122
788.3252	-0.0245
788.4972	-0.0087
788.6691	0.0655
788.8411	-0.0233
789.013	0.0066
789.1849	-0.0028
789.3568	0.0358
789.5287	-0
789.7005	0.0455
789.8723	-0.0309
790.0442	-0.0269
790.2159	0.0177
790.3877	0.0553
790.5595	0.0441
790.7312	-0
790.9029	-0.005
791.0746	0.0034
791.2463	0.0111
791.4179	-0.0493
791.5896	0.0067
791.7612	-0.0423
791.9328	0.0292
792.1044	-0.0158
792.2759	0.0228
792.4474	-0.0408
792.619	0.0472
792.7905	0.0085
792.9619	-0.0133
793.1334	-0.0325
793.3048	-0.04
793.4762	-0.0152
793.6476	-0.0214
793.819	-0.0232
793.9904	-0.0104
794.1617	0.0117
794.333	-0.0462
794.5043	-0.0012
794.6756	-0.0093
794.8469	-0.0069
795.0181	-0.0219
795.1893	0.0063
795.3605	-0.0262
795.5317	0.0385
795.7029	0.0114
795.874	0.0086
796.0452	-0.0319
796.2163	0.0555
796.3873	0.0772
796.5584	0.0016
796.7294	-0.0403
796.9005	-0.0544
797.0715	0.0287
797.2425	-0.0376
797.4134	0.0034
797.5844	0.0808
797.7553	0.0406
797.9262	0.0564
798.0971	-0.0146
798.2679	0.0097
798.4388	-0.0736
798.6096	-0.0102
798.7804	0.0375
798.9512	0.0505
799.122	0.0407
799.2927	-0.0557
799.4635	0.0659
799.6342	0.0117
799.8049	0.0129
799.9755	-0.0356
800.1462	0.0908
800.3168	0.0552
800.4874	-0.0083
800.658	0.0435
800.8286	-0.0547
800.9991	0.0968
801.1696	-0.0059
801.3402	-0.045
801.5106	-0.048
801.6811	0.0281
801.8516	-0.05
802.022	0.0125
802.1924	-0.0535
802.3628	-0.0752
802.5332	-0
802.7035	-0.0306
802.8739	0.1291
803.0442	0.0035
803.2145	-0.0627
803.3847	-0.0755
803.555	0.0303
803.7252	0.031
803.8954	0.0259
804.0656	-0.022
804.2358	-0.0572
804.4059	0.1208
804.5761	0.1043
804.7462	-0.0444
804.9163	-0.0791
805.0864	0.0157
805.2564	-0.0091
805.4264	0.0675
805.5965	0.0355
805.7665	0.0568
805.9364	-0.0885
806.1064	-0.0517
806.2763	0.0469
806.4462	-0.0302
806.6161	-0.0057
806.786	-0.01
806.9559	0.0321
807.1257	0.0185
807.2955	0.0282
807.4653	-0.0522
807.6351	0.0878
807.8048	0.0171
807.9746	-0.015
808.1443	0.0086
808.314	0.0439
808.4837	-0.0061
808.6533	0.0258
808.8229	-0.08
808.9926	0.0577
809.1622	0.026
809.3317	-0.0236
809.5013	0.0788
809.6708	0.0249
809.8403	0.146
810.0098	0.0741
810.1793	0.0415
810.3488	0.0981
810.5182	-0.0402
810.6876	-0.0019
810.857	0.0027
811.0264	-0.1261
811.1958	-0.0347
811.3651	-0.0713
811.5344	-0.0538
811.7037	-0
811.873	0.0069
812.0422	0.0367
812.2115	0.0263
812.3807	0.0048
812.5499	0.0392
812.7191	0.0148
812.8882	0.0998
813.0574	-0.1693
813.2265	-0.0575
813.3956	-0
813.5646	0.0304
813.7337	-0.0242
813.9027	0.0019
814.0718	-0.0317
814.2407	-0.1323
814.4097	-0.0157
814.5787	0.0305
814.7476	0.0479
814.9165	0.0559
815.0854	-0.0052
815.2543	0.0225
815.4232	-0.0052
815.592	0.0452
815.7608	0.1201
815.9296	0.0139
816.0984	0.0911
816.2671	-0.0396
816.4359	0.0832
816.6046	0.1238
816.7733	0.0692
816.942	0.0511
817.1106	-0.184
817.2793	-0.0491
817.4479	-0.0677
817.6165	0.0021
817.785	-0.0404
817.9536	0.0802
818.1221	0.0474
818.2906	0.0938
818.4591	-0.1155
818.6276	0.084
818.7961	0.0145
818.9645	0.0586
819.1329	0.3226
819.3013	-0.0145
819.4697	0.1282
819.638	0.2325
819.8064	-0.1757
819.9747	-0.1369
820.143	-0.0265
820.3113	0.0609
820.4795	0.0832
820.6477	0.0329
820.816	0.0052
820.9842	-0.1104
821.1523	0.2731
821.3205	0.0522
821.4886	0.0607
821.6567	-0.0303
821.8248	0.0604
821.9929	-0.0521
822.1609	0.0032
822.329	0.0745
822.497	-0.1459
822.665	0.0867
822.833	-0
823.0009	-0.1586
823.1688	-0.0633
823.3367	-0.1756
823.5046	0.0139
823.6725	0.0779
823.8404	0.0531
824.0082	0.1364
824.176	-0.0594
824.3438	0.1601
824.5116	0.2384
824.6793	0.0181
824.847	0.1838
825.0147	0.2179
825.1824	0.0165
825.3501	0.0369
825.5177	0.1172
825.6854	-0.02
825.853	-0.1448
826.0206	-0.0471
826.1881	0.0695
826.3557	0.1219
826.5232	0.05
826.6907	0.0525
826.8582	-0.0948
827.0257	0.0462
827.1931	0.0321
827.3605	-0.0892
827.528	-0.0629
827.6953	0.1266
827.8627	0.2257
828.03	-0.0604
828.1974	-0.0394
828.3647	0.0623
828.532	0.1546
828.6992	-0.028
828.8665	-0.1908
829.0337	0.1044
829.2009	0.2298
829.3681	0.158
829.5352	0.0537
829.7024	-0.0487
829.8695	-0.0693
830.0366	0.1967
830.2037	0.2055
830.3707	-0.0771
830.5378	0.1419
830.7048	0.1815
830.8718	-0.1095
831.0388	0.1881
831.2057	-0.3393
831.3727	-0.1337
831.5396	-0.1169
831.7065	-0.0769
831.8734	-0.3516
832.0402	0.1659
832.2071	1.1825
832.3739	0.3927
832.5407	-0
832.7075	0.081
832.8742	0.1798
833.041	0.1752
833.2077	-0
833.3744	0.0869
833.541	-0.0291
833.7077	0.1169
833.8743	0.1024
834.0409	0.0216
834.2075	0.0033
834.3741	0.0997
834.5407	-0.1376
834.7072	0.1878
834.8737	-0.0618
835.0402	0.1012
835.2067	0.0762
835.3731	0.0682
835.5395	0.1826
835.706	0.0857
835.8723	0.1067
836.0387	0.0802
836.2051	0.0774
836.3714	0.3194
836.5377	-0.1355
836.704	0.0497
836.8703	-0.0443
837.0365	0.7932
837.2027	-0.4131
837.3689	-0.0605
837.5351	-0.2259
837.7013	0.7543
837.8674	-0.5549
838.0335	0.465
838.1997	0.4883
838.3657	-0
838.5318	-0.8099
838.6978	0.0232
838.8639	-0.1208
839.0299	0.1474
839.1958	0.1141
839.3618	-0
839.5277	0.0107
839.6937	-0.2762
839.8596	0.0566
840.0254	0.1116
840.1913	0.2786
840.3571	-0.4421
840.523	0.798
840.6888	-0.0321
840.8545	-0.1866
841.0203	0.1022
841.186	-0.0979
841.3517	0.18
841.5174	0.7815
841.6831	0.209
841.8488	0.2164
842.0144	0.0983
842.18	-0.0079
842.3456	0.5967
842.5112	0.0504
842.6767	-0.2664
842.8422	-0.1573
843.0077	0.263
843.1732	-0.0748
843.3387	-0
843.5042	0.5685
843.6696	-0
843.835	0.1884
844.0004	1.3158
844.1657	0.247
844.3311	-0.2966
844.4964	0.0112
844.6617	-0
844.827	0.5072
844.9923	-0.296
845.1575	-0.8777
845.3227	0.0853
845.4879	-0.1097
845.6531	0.7152
845.8183	0.582
845.9834	-0
846.1485	0.3132
846.3136	0.4396
846.4787	-0.02
846.6438	0.5591
846.8088	-0
846.9738	-0
847.1388	0.0997
847.3038	-0.0701
847.4687	-0.5921
847.6337	0.4822
847.7986	0.2209
847.9635	-0.1633
848.1284	-0
848.2932	-0.1195
848.458	0.3178
848.6228	0.3116
848.7876	0.5784
848.9524	-0
849.1172	0.2829
849.2819	-0
849.4466	0.0391
849.6113	-0.1338
849.7759	-0
849.9406	-0.1013
850.1052	1.0253
850.2698	-0
850.4344	0.1206
850.599	-0
850.7635	0.2162
850.928	-0
851.0925	0.1239
851.257	-0.6122
851.4215	0.5643
851.5859	0.2107
851.7503	-0.331
851.9147	-0.8016
852.0791	-0.3738
852.2434	-0.2463
852.4078	-0
852.5721	0.2238
852.7364	0.3271
852.9007	-0.2501
853.0649	0.3777
853.2291	0.0184
853.3934	-0.0722
853.5575	-0.0121
853.7217	-0.3214
853.8859	0.0151
854.05	-0.9258
854.2141	0.282
854.3782	0.3387
854.5423	-0.6551
854.7063	0.1124
854.8703	0.321
855.0343	0.1265
855.1983	-0.0964
855.3623	-0.1184
855.5262	-0
855.6901	1.7177
855.854	-0.2098
856.0179	-0
856.1818	-0
856.3456	-0
856.5094	-0
856.6732	-0.6058
856.837	0.1363
857.0008	1.8865
857.1645	-0
857.3282	0.298
857.4919	0.229
857.6556	-0
857.8192	-0.2743
857.9828	-0.395
858.1465	-0
858.31	-1.1139
858.4736	0.2062
858.6372	-0.2104
858.8007	-1.1696
858.9642	0.392
859.1277	-0
859.2911	0.2762
859.4546	-0
859.618	-0
859.7814	-0
859.9448	-0
860.1081	-0.3458
860.2715	-0
860.4348	0.0386
860.5981	-0
860.7614	-0.0983
860.9246	0.6551
861.0879	-0.2972
861.2511	0.2436
861.4143	-0
861.5774	0.1784
861.7406	-0.5315
861.9037	0.2319
862.0668	-0
862.2299	-2.1732
862.393	-0
862.556	0.2553
862.7191	0.1213
862.8821	-0.223
863.0451	0.1751
863.208	-0.5018
863.371	0.3871
863.5339	-0.1267
863.6968	0.0774
863.8597	-0
864.0225	0.128
864.1854	-0
864.3482	-0
864.511	-0.3123
864.6737	0.1232
864.8365	0.3792
864.9992	-0
865.1619	0.072
865.3246	-0
865.4873	-0.7494
865.65	-0.5763
865.8126	-0
865.9752	-0.363
866.1378	-0.8321
866.3004	-0.1096
866.4629	-0.0592
866.6254	-0
866.7879	-0
866.9504	-0
867.1129	0.1929
867.2753	0.0375
867.4377	0.6103
867.6001	0.1772
867.7625	-0.1355
867.9249	0.581
868.0872	-0.0269
868.2495	0.0245
868.4118	0.1731
868.5741	-0
868.7363	0.1747
868.8986	-0
869.0608	0.0115
869.223	0.1347
869.3851	-0
869.5473	-1.3822
869.7094	-0.1165
869.8715	0.453
870.0336	0.1227
870.1957	-0.7847
870.3577	0.2966
870.5197	-0.018
870.6817	-0
870.8437	1.8021
871.0057	-0
871.1676	0.1567
871.3295	0.0586
871.4914	0.1012
871.6533	0.0863
871.8151	-0
871.977	1.2608
872.1388	-0
872.3006	0.0519
872.4623	-0.2951
872.6241	-0
872.7858	-0.1807
872.9475	-0
873.1092	0.2181
873.2709	0.4399
873.4325	-0.3547
873.5941	-0
873.7557	-0.8846
873.9173	-0.0918
874.0789	-0.0509
874.2404	-0.5102
874.4019	0.3823
874.5634	-0.1749
874.7249	-0.5315
874.8863	-0.6113
875.0478	0.5234
875.2092	2.0682
875.3706	-0.1779
875.5319	-0
875.6933	0.0358
875.8546	-0
876.0159	0.1239
876.1772	-0
876.3385	-0
876.4997	-0.0316
876.6609	-0.0918
876.8221	1.2608
876.9833	-0.4052
877.1445	0.3536
877.3056	-0
877.4667	-0
877.6278	-0
877.7889	-0.2099
877.9499	0.77
878.111	-0.1079
878.272	-0
878.433	-0.0295
878.5939	0.0278
878.7549	1.3979
878.9158	-0
879.0767	-0
879.2376	-0.5948
879.3984	-0.1479
879.5593	-0.1289
879.7201	-0.3326
879.8809	-0
880.0417	-0.0493
880.2024	0.3086
880.3632	-0.4254
880.5239	0.1479
880.6846	-0
880.8452	0.1174
881.0059	-0.235
881.1665	0.3117
881.3271	0.0446
881.4877	0.1019
881.6483	-0
881.8088	0.1365
881.9693	0.0519
882.1298	0.0519
882.2903	0.0519
