Data from D4ACN5uM480nmA_Absorbance_12-08-00-625.txt Node
Date: Fri Feb 21 12:08:00 GMT 2025
User: LASERRRRR
Spectrometer: FLMT03099
Trigger mode: 0
Integration Time (sec): 1.500000E-2
Scans to average: 1
Electric dark correction enabled: true
Nonlinearity correction enabled: false
Boxcar width: 0
XAxis mode: Wavelengths
Number of Pixels in Spectrum: 3648
>>>>>Begin Spectral Data<<<<<
179.3399	-0
179.5586	-0
179.7771	-0
179.9957	0.0667
180.2143	-0.3436
180.4329	-0
180.6514	-0
180.8699	-0
181.0885	-0.3541
181.307	2.1375
181.5255	0.7809
181.744	-0
181.9625	0.0929
182.181	0.2999
182.3994	-0
182.6179	-0.426
182.8363	-0
183.0547	1.0512
183.2732	0.1974
183.4916	0.4093
183.71	0.1109
183.9284	0.2191
184.1467	0.1935
184.3651	0.1361
184.5835	0.1207
184.8018	0.2015
185.0201	0.0991
185.2385	0.2506
185.4568	0.217
185.6751	0.4028
185.8934	0.3142
186.1117	0.125
186.3299	0.2738
186.5482	0.1613
186.7664	0.4519
186.9847	0.2024
187.2029	0.221
187.4211	0.1205
187.6393	0.4619
187.8575	0.1628
188.0757	0.354
188.2939	0.1615
188.512	0.2869
188.7302	0.0987
188.9483	1.2816
189.1665	0.2934
189.3846	0.0833
189.6027	0.3153
189.8208	0.2554
190.0389	0.3954
190.257	0.1915
190.475	0.0087
190.6931	0.307
190.9111	0.7103
191.1292	0.3259
191.3472	0.2754
191.5652	0.4999
191.7832	0.3575
192.0012	0.2244
192.2192	0.3502
192.4371	0.3113
192.6551	0.2811
192.873	0.386
193.091	0.2933
193.3089	0.2035
193.5268	0.3971
193.7447	0.4284
193.9626	0.6611
194.1805	0.4465
194.3984	0.332
194.6162	0.3924
194.8341	0.5927
195.0519	0.6248
195.2697	0.5385
195.4875	0.579
195.7054	0.5489
195.9231	0.4076
196.1409	0.5152
196.3587	0.5551
196.5765	0.4298
196.7942	0.6026
197.012	0.4964
197.2297	0.587
197.4474	0.7077
197.6651	0.5416
197.8828	0.5878
198.1005	0.537
198.3182	0.5083
198.5358	0.6194
198.7535	0.7578
198.9711	0.6007
199.1888	0.6573
199.4064	0.6138
199.624	0.5342
199.8416	0.5748
200.0592	0.5544
200.2767	0.5599
200.4943	0.5777
200.7119	0.5992
200.9294	0.5824
201.1469	0.6002
201.3645	0.574
201.582	0.5633
201.7995	0.6533
202.017	0.5893
202.2344	0.5712
202.4519	0.5667
202.6694	0.5346
202.8868	0.5736
203.1042	0.6023
203.3217	0.5316
203.5391	0.5484
203.7565	0.4853
203.9739	0.5156
204.1913	0.5393
204.4086	0.4639
204.626	0.5283
204.8433	0.5042
205.0607	0.5071
205.278	0.5173
205.4953	0.4769
205.7126	0.483
205.9299	0.4629
206.1472	0.4998
206.3644	0.5118
206.5817	0.4862
206.7989	0.4826
207.0162	0.4745
207.2334	0.4737
207.4506	0.408
207.6678	0.461
207.885	0.4479
208.1022	0.4598
208.3194	0.4444
208.5365	0.4264
208.7537	0.4159
208.9708	0.4418
209.1879	0.4439
209.405	0.4274
209.6222	0.3987
209.8392	0.4103
210.0563	0.4519
210.2734	0.4232
210.4905	0.3879
210.7075	0.4151
210.9245	0.4061
211.1416	0.399
211.3586	0.4113
211.5756	0.4284
211.7926	0.4344
212.0096	0.447
212.2265	0.4066
212.4435	0.4194
212.6604	0.3871
212.8774	0.4079
213.0943	0.4266
213.3112	0.387
213.5281	0.4295
213.745	0.3956
213.9619	0.3732
214.1788	0.3847
214.3956	0.4233
214.6125	0.4063
214.8293	0.4155
215.0461	0.4069
215.2629	0.398
215.4798	0.4001
215.6965	0.3803
215.9133	0.4151
216.1301	0.405
216.3469	0.4132
216.5636	0.405
216.7803	0.4248
216.9971	0.4036
217.2138	0.4107
217.4305	0.4134
217.6472	0.4065
217.8639	0.4074
218.0805	0.4252
218.2972	0.3953
218.5138	0.4217
218.7305	0.425
218.9471	0.4499
219.1637	0.4263
219.3803	0.4144
219.5969	0.411
219.8135	0.4152
220.0301	0.404
220.2466	0.4083
220.4632	0.4227
220.6797	0.4306
220.8962	0.4096
221.1127	0.4293
221.3292	0.4295
221.5457	0.4124
221.7622	0.4302
221.9787	0.447
222.1951	0.4448
222.4116	0.4592
222.628	0.4497
222.8444	0.4293
223.0608	0.4349
223.2772	0.4373
223.4936	0.4583
223.71	0.4625
223.9264	0.449
224.1427	0.4746
224.3591	0.4579
224.5754	0.4469
224.7917	0.4694
225.008	0.4571
225.2243	0.4526
225.4406	0.4637
225.6569	0.4626
225.8732	0.4656
226.0894	0.4799
226.3057	0.4637
226.5219	0.4681
226.7381	0.4651
226.9543	0.4875
227.1705	0.4686
227.3867	0.4932
227.6029	0.4731
227.8191	0.4858
228.0352	0.4995
228.2513	0.4971
228.4675	0.4919
228.6836	0.4931
228.8997	0.5033
229.1158	0.4927
229.3319	0.4975
229.548	0.4909
229.764	0.4918
229.9801	0.5085
230.1961	0.5112
230.4121	0.5025
230.6282	0.514
230.8442	0.5184
231.0602	0.5155
231.2761	0.5234
231.4921	0.5056
231.7081	0.515
231.924	0.5093
232.14	0.5225
232.3559	0.536
232.5718	0.5376
232.7877	0.5236
233.0036	0.5244
233.2195	0.522
233.4353	0.538
233.6512	0.529
233.867	0.5294
234.0829	0.5325
234.2987	0.5312
234.5145	0.5368
234.7303	0.5389
234.9461	0.5257
235.1619	0.5297
235.3776	0.5262
235.5934	0.5322
235.8091	0.5474
236.0249	0.5386
236.2406	0.5403
236.4563	0.5508
236.672	0.5399
236.8877	0.5417
237.1034	0.5349
237.319	0.5315
237.5347	0.5272
237.7503	0.5453
237.966	0.5345
238.1816	0.5299
238.3972	0.5365
238.6128	0.5446
238.8284	0.5405
239.0439	0.5448
239.2595	0.5461
239.475	0.5287
239.6906	0.5327
239.9061	0.5362
240.1216	0.5368
240.3371	0.5168
240.5526	0.5121
240.7681	0.5233
240.9836	0.526
241.199	0.5298
241.4145	0.4985
241.6299	0.4924
241.8453	0.4956
242.0607	0.4795
242.2761	0.4785
242.4915	0.4702
242.7069	0.4688
242.9223	0.4673
243.1376	0.4553
243.353	0.4366
243.5683	0.4433
243.7836	0.4171
243.9989	0.419
244.2142	0.4184
244.4295	0.4072
244.6448	0.3911
244.86	0.3878
245.0753	0.3837
245.2905	0.3777
245.5057	0.3739
245.721	0.3616
245.9362	0.3528
246.1514	0.3383
246.3665	0.34
246.5817	0.3336
246.7969	0.3308
247.012	0.3175
247.2271	0.316
247.4423	0.3111
247.6574	0.3089
247.8725	0.3039
248.0876	0.291
248.3026	0.2862
248.5177	0.2791
248.7328	0.2751
248.9478	0.2755
249.1628	0.2589
249.3779	0.273
249.5929	0.2653
249.8079	0.2572
250.0228	0.2522
250.2378	0.2487
250.4528	0.2497
250.6677	0.241
250.8827	0.2338
251.0976	0.2438
251.3125	0.235
251.5274	0.2314
251.7423	0.2295
251.9572	0.2219
252.172	0.2276
252.3869	0.2203
252.6017	0.2198
252.8166	0.2183
253.0314	0.2216
253.2462	0.2136
253.461	0.2183
253.6758	0.2054
253.8906	0.2076
254.1053	0.2041
254.3201	0.2051
254.5348	0.2053
254.7496	0.1995
254.9643	0.2061
255.179	0.2036
255.3937	0.2035
255.6083	0.203
255.823	0.2013
256.0377	0.1946
256.2523	0.2003
256.467	0.1961
256.6816	0.2011
256.8962	0.1916
257.1108	0.1905
257.3254	0.1977
257.54	0.1956
257.7545	0.1909
257.9691	0.193
258.1836	0.1904
258.3981	0.1899
258.6127	0.1823
258.8272	0.1871
259.0417	0.1834
259.2561	0.1897
259.4706	0.1915
259.6851	0.182
259.8995	0.1787
260.114	0.1835
260.3284	0.1836
260.5428	0.1822
260.7572	0.187
260.9716	0.1761
261.186	0.1735
261.4003	0.1907
261.6147	0.1808
261.829	0.1806
262.0433	0.1839
262.2577	0.1871
262.472	0.1861
262.6863	0.1851
262.9005	0.1888
263.1148	0.1834
263.3291	0.1868
263.5433	0.1828
263.7576	0.1842
263.9718	0.1895
264.186	0.1847
264.4002	0.1808
264.6144	0.1863
264.8286	0.1943
265.0427	0.1846
265.2569	0.1886
265.471	0.1873
265.6851	0.181
265.8993	0.1893
266.1134	0.1897
266.3275	0.1831
266.5415	0.1864
266.7556	0.1772
266.9697	0.1785
267.1837	0.1856
267.3978	0.1931
267.6118	0.1825
267.8258	0.1849
268.0398	0.1796
268.2538	0.1874
268.4677	0.1777
268.6817	0.1791
268.8957	0.1842
269.1096	0.1748
269.3235	0.1918
269.5374	0.1743
269.7514	0.1755
269.9652	0.1828
270.1791	0.1777
270.393	0.1806
270.6068	0.1753
270.8207	0.1747
271.0345	0.1729
271.2483	0.1756
271.4622	0.1769
271.676	0.174
271.8897	0.1728
272.1035	0.1758
272.3173	0.1727
272.531	0.1713
272.7448	0.1737
272.9585	0.1769
273.1722	0.1762
273.3859	0.1696
273.5996	0.1723
273.8133	0.1724
274.0269	0.1809
274.2406	0.1683
274.4542	0.1661
274.6679	0.172
274.8815	0.1727
275.0951	0.1778
275.3087	0.1751
275.5223	0.1692
275.7358	0.1782
275.9494	0.1695
276.1629	0.1764
276.3765	0.1699
276.59	0.18
276.8035	0.1727
277.017	0.1775
277.2305	0.1749
277.444	0.1745
277.6574	0.1812
277.8709	0.1818
278.0843	0.1731
278.2978	0.1813
278.5112	0.1837
278.7246	0.1761
278.938	0.177
279.1513	0.1824
279.3647	0.1746
279.5781	0.1759
279.7914	0.1818
280.0047	0.1793
280.2181	0.1797
280.4314	0.1806
280.6447	0.1883
280.8579	0.1829
281.0712	0.1808
281.2845	0.1854
281.4977	0.1905
281.711	0.1801
281.9242	0.1811
282.1374	0.1764
282.3506	0.1833
282.5638	0.1892
282.7769	0.1823
282.9901	0.1768
283.2033	0.1884
283.4164	0.1821
283.6295	0.1833
283.8426	0.183
284.0557	0.1862
284.2688	0.1935
284.4819	0.1943
284.695	0.1935
284.908	0.1901
285.1211	0.1885
285.3341	0.1934
285.5471	0.1953
285.7601	0.1913
285.9731	0.1872
286.1861	0.1878
286.3991	0.1993
286.612	0.1906
286.825	0.1934
287.0379	0.1984
287.2508	0.1942
287.4637	0.1985
287.6766	0.201
287.8895	0.1924
288.1024	0.196
288.3152	0.199
288.5281	0.191
288.7409	0.1978
288.9538	0.1952
289.1666	0.2007
289.3794	0.1986
289.5922	0.1928
289.8049	0.1969
290.0177	0.1958
290.2304	0.1993
290.4432	0.2041
290.6559	0.1971
290.8686	0.1978
291.0813	0.2013
291.294	0.2022
291.5067	0.2069
291.7194	0.1957
291.932	0.1974
292.1447	0.2037
292.3573	0.1988
292.5699	0.1976
292.7825	0.2018
292.9951	0.1984
293.2077	0.1992
293.4203	0.2054
293.6328	0.1909
293.8454	0.1948
294.0579	0.2022
294.2704	0.2017
294.4829	0.2015
294.6954	0.201
294.9079	0.2004
295.1204	0.1974
295.3328	0.2032
295.5453	0.1981
295.7577	0.1956
295.9701	0.1997
296.1825	0.2
296.3949	0.2036
296.6073	0.2049
296.8197	0.2037
297.0321	0.203
297.2444	0.2021
297.4567	0.1968
297.6691	0.1986
297.8814	0.1979
298.0937	0.2022
298.306	0.2001
298.5182	0.2035
298.7305	0.2027
298.9428	0.1932
299.155	0.1973
299.3672	0.2009
299.5794	0.1952
299.7916	0.1977
300.0038	0.1905
300.216	0.197
300.4282	0.1949
300.6403	0.1962
300.8525	0.1998
301.0646	0.1923
301.2767	0.2008
301.4888	0.1999
301.7009	0.2011
301.913	0.2036
302.125	0.2
302.3371	0.1988
302.5491	0.1936
302.7612	0.1989
302.9732	0.1943
303.1852	0.1973
303.3972	0.1931
303.6092	0.193
303.8211	0.1902
304.0331	0.1966
304.245	0.194
304.457	0.2016
304.6689	0.1902
304.8808	0.1923
305.0927	0.1897
305.3046	0.1832
305.5164	0.194
305.7283	0.1917
305.9401	0.183
306.152	0.1789
306.3638	0.1773
306.5756	0.1858
306.7874	0.1769
306.9992	0.1766
307.2109	0.174
307.4227	0.169
307.6344	0.1806
307.8462	0.1705
308.0579	0.1721
308.2696	0.1656
308.4813	0.1582
308.693	0.1617
308.9046	0.1676
309.1163	0.162
309.328	0.1537
309.5396	0.1597
309.7512	0.1528
309.9628	0.1568
310.1744	0.157
310.386	0.1522
310.5976	0.1452
310.8091	0.1503
311.0207	0.1435
311.2322	0.1472
311.4437	0.1455
311.6552	0.1459
311.8667	0.1408
312.0782	0.1426
312.2897	0.1451
312.5012	0.1367
312.7126	0.1349
312.924	0.1412
313.1355	0.1276
313.3469	0.1279
313.5583	0.1317
313.7696	0.1309
313.981	0.1291
314.1924	0.1257
314.4037	0.1218
314.6151	0.1299
314.8264	0.1204
315.0377	0.1336
315.249	0.1189
315.4603	0.1236
315.6716	0.1221
315.8828	0.1237
316.0941	0.1264
316.3053	0.1184
316.5165	0.1203
316.7277	0.118
316.9389	0.1157
317.1501	0.1253
317.3613	0.1158
317.5724	0.1183
317.7836	0.1191
317.9947	0.1165
318.2058	0.1206
318.417	0.1126
318.6281	0.1202
318.8391	0.1174
319.0502	0.1152
319.2613	0.1169
319.4723	0.1199
319.6834	0.1185
319.8944	0.1184
320.1054	0.1147
320.3164	0.1142
320.5274	0.1117
320.7383	0.1117
320.9493	0.1215
321.1602	0.1096
321.3712	0.1131
321.5821	0.1155
321.793	0.1136
322.0039	0.1163
322.2148	0.1152
322.4257	0.1181
322.6365	0.1154
322.8474	0.1139
323.0582	0.1217
323.269	0.1185
323.4798	0.1243
323.6906	0.1164
323.9014	0.1102
324.1122	0.1161
324.3229	0.1204
324.5337	0.1242
324.7444	0.1162
324.9551	0.1201
325.1658	0.1161
325.3765	0.1172
325.5872	0.1189
325.7979	0.1149
326.0085	0.1242
326.2192	0.1145
326.4298	0.1196
326.6404	0.1183
326.851	0.1184
327.0616	0.1235
327.2722	0.1242
327.4828	0.1136
327.6933	0.1221
327.9039	0.1274
328.1144	0.123
328.3249	0.1237
328.5354	0.1227
328.7459	0.1172
328.9564	0.1292
329.1669	0.1216
329.3773	0.1227
329.5878	0.1227
329.7982	0.1166
330.0086	0.1226
330.219	0.1193
330.4294	0.1282
330.6398	0.1258
330.8502	0.1192
331.0605	0.1209
331.2708	0.1217
331.4812	0.1206
331.6915	0.1221
331.9018	0.1192
332.1121	0.124
332.3224	0.1287
332.5326	0.1268
332.7429	0.1231
332.9531	0.1261
333.1633	0.1191
333.3735	0.1302
333.5837	0.1277
333.7939	0.1276
334.0041	0.1234
334.2143	0.1223
334.4244	0.1218
334.6346	0.1245
334.8447	0.1269
335.0548	0.1321
335.2649	0.1293
335.475	0.1274
335.685	0.1291
335.8951	0.1346
336.1051	0.1327
336.3152	0.1312
336.5252	0.1327
336.7352	0.1194
336.9452	0.1338
337.1552	0.1312
337.3652	0.1283
337.5751	0.1297
337.7851	0.1334
337.995	0.1306
338.2049	0.1328
338.4148	0.1292
338.6247	0.1305
338.8346	0.1296
339.0445	0.134
339.2543	0.1352
339.4642	0.1412
339.674	0.1388
339.8838	0.1295
340.0936	0.1321
340.3034	0.136
340.5132	0.1264
340.7229	0.1339
340.9327	0.1393
341.1424	0.1382
341.3522	0.1417
341.5619	0.1332
341.7716	0.1354
341.9813	0.1423
342.1909	0.144
342.4006	0.1424
342.6102	0.1407
342.8199	0.139
343.0295	0.1382
343.2391	0.1458
343.4487	0.1431
343.6583	0.1442
343.8679	0.14
344.0774	0.1453
344.287	0.1462
344.4965	0.1447
344.706	0.1495
344.9155	0.1462
345.125	0.1486
345.3345	0.147
345.544	0.1495
345.7534	0.1478
345.9629	0.1591
346.1723	0.1506
346.3817	0.1455
346.5911	0.1485
346.8005	0.1471
347.0099	0.1519
347.2193	0.147
347.4286	0.1457
347.638	0.1575
347.8473	0.1545
348.0566	0.1534
348.2659	0.1557
348.4752	0.1598
348.6845	0.1566
348.8937	0.1581
349.103	0.156
349.3122	0.1695
349.5214	0.1575
349.7306	0.1538
349.9398	0.1639
350.149	0.1671
350.3582	0.1599
350.5674	0.1689
350.7765	0.1661
350.9856	0.1619
351.1948	0.1626
351.4039	0.1602
351.613	0.1793
351.822	0.1635
352.0311	0.1652
352.2402	0.1659
352.4492	0.1704
352.6582	0.171
352.8672	0.1668
353.0762	0.1699
353.2852	0.1697
353.4942	0.1708
353.7032	0.1671
353.9121	0.1746
354.1211	0.1703
354.33	0.175
354.5389	0.179
354.7478	0.1787
354.9567	0.1706
355.1655	0.1743
355.3744	0.1774
355.5833	0.1853
355.7921	0.1826
356.0009	0.1781
356.2097	0.194
356.4185	0.1875
356.6273	0.1856
356.8361	0.1975
357.0448	0.1856
357.2536	0.1915
357.4623	0.1892
357.671	0.1864
357.8797	0.1944
358.0884	0.1898
358.2971	0.1884
358.5057	0.1924
358.7144	0.2055
358.923	0.1918
359.1316	0.1904
359.3402	0.1953
359.5488	0.1946
359.7574	0.2034
359.966	0.1998
360.1746	0.2029
360.3831	0.2125
360.5916	0.2012
360.8002	0.2105
361.0087	0.2132
361.2172	0.2171
361.4256	0.2002
361.6341	0.2143
361.8426	0.2147
362.051	0.2133
362.2594	0.2156
362.4678	0.209
362.6762	0.2191
362.8846	0.2278
363.093	0.2098
363.3014	0.2221
363.5097	0.2192
363.718	0.2293
363.9264	0.2234
364.1347	0.2302
364.343	0.2298
364.5513	0.2248
364.7595	0.2194
364.9678	0.2338
365.176	0.2282
365.3842	0.2299
365.5925	0.2281
365.8007	0.2368
366.0089	0.2314
366.217	0.2426
366.4252	0.2361
366.6333	0.2273
366.8415	0.2372
367.0496	0.2463
367.2577	0.2498
367.4658	0.2441
367.6739	0.2444
367.882	0.2405
368.09	0.2448
368.2981	0.2342
368.5061	0.2476
368.7141	0.2489
368.9221	0.2483
369.1301	0.2493
369.3381	0.2593
369.5461	0.2533
369.754	0.2526
369.962	0.2592
370.1699	0.2506
370.3778	0.2582
370.5857	0.2567
370.7936	0.2653
371.0015	0.2613
371.2093	0.2624
371.4172	0.2601
371.625	0.2635
371.8328	0.2595
372.0406	0.2564
372.2484	0.251
372.4562	0.2602
372.664	0.267
372.8717	0.2724
373.0795	0.2732
373.2872	0.2758
373.4949	0.281
373.7026	0.2816
373.9103	0.2592
374.118	0.263
374.3256	0.2806
374.5333	0.2754
374.7409	0.265
374.9485	0.2721
375.1561	0.2782
375.3637	0.2713
375.5713	0.279
375.7789	0.2785
375.9864	0.2807
376.194	0.2811
376.4015	0.287
376.609	0.2883
376.8165	0.287
377.024	0.2894
377.2315	0.3005
377.4389	0.2815
377.6464	0.2865
377.8538	0.2979
378.0612	0.285
378.2686	0.2923
378.476	0.2896
378.6834	0.2829
378.8908	0.2935
379.0981	0.2912
379.3055	0.3054
379.5128	0.3049
379.7201	0.289
379.9274	0.2875
380.1347	0.3012
380.342	0.299
380.5492	0.2943
380.7565	0.2974
380.9637	0.2897
381.1709	0.2996
381.3781	0.307
381.5853	0.3076
381.7925	0.3115
381.9997	0.3011
382.2068	0.2994
382.4139	0.3179
382.6211	0.3076
382.8282	0.3064
383.0353	0.3098
383.2424	0.311
383.4494	0.3175
383.6565	0.3162
383.8635	0.3188
384.0706	0.3141
384.2776	0.3266
384.4846	0.3145
384.6916	0.3171
384.8986	0.3185
385.1055	0.3153
385.3125	0.3088
385.5194	0.3109
385.7263	0.3026
385.9333	0.3155
386.1402	0.3219
386.347	0.3204
386.5539	0.3185
386.7608	0.3148
386.9676	0.3156
387.1744	0.3148
387.3813	0.3132
387.5881	0.3246
387.7948	0.3151
388.0016	0.3131
388.2084	0.3154
388.4151	0.3115
388.6219	0.3154
388.8286	0.3119
389.0353	0.3069
389.242	0.3054
389.4487	0.312
389.6553	0.313
389.862	0.3063
390.0686	0.3057
390.2753	0.2938
390.4819	0.3074
390.6885	0.2944
390.8951	0.3126
391.1016	0.3101
391.3082	0.2979
391.5147	0.2964
391.7213	0.3006
391.9278	0.3086
392.1343	0.2964
392.3408	0.2866
392.5473	0.2896
392.7537	0.297
392.9602	0.2979
393.1666	0.2965
393.373	0.2907
393.5794	0.2954
393.7858	0.2899
393.9922	0.2825
394.1986	0.2881
394.4049	0.2848
394.6113	0.2877
394.8176	0.2783
395.0239	0.2809
395.2302	0.277
395.4365	0.2727
395.6428	0.2837
395.8491	0.2819
396.0553	0.2729
396.2615	0.2635
396.4678	0.2703
396.674	0.2767
396.8802	0.2648
397.0863	0.2762
397.2925	0.2707
397.4987	0.2695
397.7048	0.2797
397.9109	0.2672
398.117	0.2646
398.3231	0.28
398.5292	0.2812
398.7353	0.2615
398.9413	0.2635
399.1474	0.2813
399.3534	0.2778
399.5594	0.2737
399.7654	0.2699
399.9714	0.264
400.1774	0.2593
400.3833	0.2745
400.5893	0.2719
400.7952	0.267
401.0011	0.267
401.207	0.267
401.4129	0.2749
401.6188	0.2641
401.8247	0.2644
402.0305	0.2624
402.2364	0.2668
402.4422	0.2666
402.648	0.2775
402.8538	0.281
403.0596	0.2626
403.2654	0.2587
403.4711	0.2727
403.6768	0.2695
403.8826	0.2608
404.0883	0.2628
404.294	0.2683
404.4997	0.2545
404.7054	0.2664
404.911	0.262
405.1167	0.2678
405.3223	0.2737
405.5279	0.2687
405.7335	0.264
405.9391	0.2623
406.1447	0.2731
406.3502	0.2672
406.5558	0.2742
406.7613	0.2639
406.9668	0.2743
407.1724	0.2799
407.3778	0.2696
407.5833	0.271
407.7888	0.2709
407.9942	0.2682
408.1997	0.2673
408.4051	0.2636
408.6105	0.2754
408.8159	0.2812
409.0213	0.272
409.2267	0.2605
409.432	0.2678
409.6374	0.2613
409.8427	0.2691
410.048	0.2711
410.2533	0.2662
410.4586	0.2726
410.6639	0.2645
410.8691	0.2741
411.0744	0.2672
411.2796	0.2676
411.4848	0.2574
411.69	0.2623
411.8952	0.2648
412.1004	0.2576
412.3056	0.2683
412.5107	0.2709
412.7158	0.2723
412.921	0.2696
413.1261	0.2684
413.3312	0.2547
413.5362	0.2588
413.7413	0.2651
413.9464	0.2591
414.1514	0.2633
414.3564	0.2534
414.5614	0.2629
414.7664	0.2621
414.9714	0.2682
415.1764	0.2695
415.3813	0.2517
415.5863	0.2643
415.7912	0.2606
415.9961	0.2593
416.201	0.2676
416.4059	0.2641
416.6108	0.2549
416.8156	0.2531
417.0205	0.2563
417.2253	0.2625
417.4301	0.2637
417.6349	0.2529
417.8397	0.2695
418.0445	0.2593
418.2492	0.2574
418.454	0.2594
418.6587	0.2535
418.8634	0.2545
419.0681	0.2563
419.2728	0.2521
419.4775	0.2718
419.6822	0.2446
419.8868	0.2555
420.0915	0.2656
420.2961	0.2457
420.5007	0.2436
420.7053	0.2548
420.9099	0.2428
421.1144	0.2415
421.319	0.2398
421.5235	0.2359
421.728	0.2431
421.9325	0.2554
422.137	0.2366
422.3415	0.2418
422.546	0.2366
422.7504	0.2455
422.9549	0.2389
423.1593	0.2291
423.3637	0.2307
423.5681	0.2359
423.7725	0.2406
423.9769	0.2396
424.1812	0.2357
424.3856	0.2334
424.5899	0.238
424.7942	0.2304
424.9985	0.231
425.2028	0.2415
425.4071	0.2262
425.6113	0.2313
425.8156	0.2319
426.0198	0.2293
426.224	0.2243
426.4282	0.2274
426.6324	0.227
426.8366	0.2171
427.0407	0.219
427.2449	0.2325
427.449	0.2206
427.6531	0.2211
427.8572	0.2143
428.0613	0.2093
428.2654	0.2112
428.4694	0.2039
428.6735	0.2056
428.8775	0.2067
429.0815	0.2126
429.2855	0.2019
429.4895	0.1974
429.6935	0.1979
429.8975	0.1982
430.1014	0.193
430.3053	0.2021
430.5093	0.1941
430.7132	0.2028
430.9171	0.1913
431.1209	0.191
431.3248	0.1881
431.5286	0.1843
431.7325	0.1908
431.9363	0.1936
432.1401	0.1895
432.3439	0.1755
432.5477	0.1834
432.7514	0.1701
432.9552	0.1748
433.1589	0.1783
433.3627	0.1733
433.5664	0.1649
433.7701	0.1803
433.9737	0.1674
434.1774	0.1682
434.3811	0.1694
434.5847	0.1565
434.7883	0.1604
434.9919	0.1548
435.1955	0.1512
435.3991	0.1568
435.6027	0.1507
435.8062	0.1542
436.0098	0.1594
436.2133	0.1582
436.4168	0.149
436.6203	0.1471
436.8238	0.1397
437.0272	0.1506
437.2307	0.1317
437.4341	0.1394
437.6375	0.1326
437.841	0.1349
438.0443	0.1426
438.2477	0.1238
438.4511	0.1288
438.6545	0.1232
438.8578	0.1281
439.0611	0.127
439.2644	0.1181
439.4677	0.1212
439.671	0.1165
439.8743	0.1145
440.0775	0.1115
440.2808	0.1232
440.484	0.1076
440.6872	0.1083
440.8904	0.1059
441.0936	0.1203
441.2967	0.098
441.4999	0.1081
441.703	0.1006
441.9062	0.1085
442.1093	0.0996
442.3124	0.0994
442.5155	0.0954
442.7185	0.0808
442.9216	0.0898
443.1246	0.1037
443.3276	0.0892
443.5307	0.09
443.7337	0.085
443.9366	0.093
444.1396	0.0725
444.3426	0.0875
444.5455	0.0878
444.7484	0.0727
444.9513	0.0758
445.1542	0.0802
445.3571	0.073
445.56	0.0637
445.7628	0.0755
445.9657	0.0776
446.1685	0.0766
446.3713	0.0646
446.5741	0.0641
446.7769	0.0644
446.9797	0.0641
447.1824	0.0695
447.3852	0.0528
447.5879	0.0634
447.7906	0.057
447.9933	0.0617
448.196	0.0533
448.3986	0.0549
448.6013	0.0507
448.8039	0.0539
449.0066	0.0598
449.2092	0.0471
449.4118	0.0546
449.6143	0.0528
449.8169	0.0513
450.0195	0.0531
450.222	0.045
450.4245	0.0492
450.627	0.0511
450.8295	0.0401
451.032	0.0551
451.2345	0.0444
451.4369	0.0429
451.6394	0.0491
451.8418	0.0415
452.0442	0.0333
452.2466	0.0421
452.449	0.0377
452.6513	0.038
452.8537	0.042
453.056	0.0432
453.2583	0.035
453.4607	0.0317
453.663	0.03
453.8652	0.0321
454.0675	0.0277
454.2697	0.0354
454.472	0.0282
454.6742	0.0259
454.8764	0.0245
455.0786	0.0298
455.2808	0.0293
455.4829	0.0276
455.6851	0.0263
455.8872	0.0265
456.0893	0.0338
456.2915	0.0214
456.4935	0.021
456.6956	0.0224
456.8977	0.0215
457.0997	0.0339
457.3018	0.0261
457.5038	0.0251
457.7058	0.0189
457.9078	0.0261
458.1098	0.0291
458.3117	0.0167
458.5137	0.0194
458.7156	0.0272
458.9175	0.0211
459.1194	0.0192
459.3213	0.0179
459.5232	0.0237
459.725	0.0149
459.9269	0.0188
460.1287	0.013
460.3305	0.0096
460.5323	0.028
460.7341	0.0133
460.9359	0.0151
461.1376	0.0224
461.3394	0.0089
461.5411	0.019
461.7428	0.0227
461.9445	0.0126
462.1462	0.0094
462.3479	0.0135
462.5495	0.0146
462.7512	0.012
462.9528	0.0127
463.1544	0.0165
463.356	0.0152
463.5576	0.0086
463.7592	0.0088
463.9607	0.0048
464.1623	0.0241
464.3638	0.0111
464.5653	0.0046
464.7668	0.0095
464.9683	0.0143
465.1697	0.0101
465.3712	0.0087
465.5726	0.0148
465.7741	0.0081
465.9755	0.0079
466.1769	0.0074
466.3782	0.0141
466.5796	0.0049
466.7809	0.0089
466.9823	0.0131
467.1836	0.0156
467.3849	0.0084
467.5862	-0.0086
467.7875	0.0031
467.9887	0.0104
468.19	0.0081
468.3912	0.0058
468.5924	0.0153
468.7936	0.0028
468.9948	0.0089
469.196	0.0019
469.3972	0.0173
469.5983	-0.003
469.7994	0.0148
470.0006	0.0136
470.2017	0.0069
470.4027	-0.0035
470.6038	-0.0003
470.8049	-0.0017
471.0059	0.0161
471.2069	0.0215
471.408	0.012
471.6089	0.0088
471.8099	0.01
472.0109	0.0051
472.2119	0.0197
472.4128	0.0115
472.6137	-0.0001
472.8146	0.0093
473.0155	0.0019
473.2164	0.0015
473.4173	0.0062
473.6181	0.0121
473.819	-0.0026
474.0198	0.0069
474.2206	0.004
474.4214	0.0134
474.6222	0.0019
474.8229	0.0091
475.0237	0.0013
475.2244	0.0128
475.4251	0.0011
475.6258	0.0047
475.8265	-0.0064
476.0272	0.0071
476.2278	0.0104
476.4285	-0.0008
476.6291	0.0162
476.8297	-0.0035
477.0303	0.0132
477.2309	0
477.4315	0.0058
477.632	-0.0048
477.8326	0.0044
478.0331	0.0048
478.2336	0.0127
478.4341	0.0013
478.6346	-0.002
478.8351	0.0065
479.0355	0.0009
479.236	0.0112
479.4364	-0.0019
479.6368	-0.0028
479.8372	0.0034
480.0376	0.0014
480.2379	0.0108
480.4383	0.0024
480.6386	0.0088
480.8389	0.0077
481.0392	0.0007
481.2395	0.0057
481.4398	0.0003
481.6401	0.0065
481.8403	-0.0009
482.0405	0.0036
482.2408	0.0009
482.441	0.0042
482.6411	0.0016
482.8413	-0.0099
483.0415	-0.002
483.2416	0.0072
483.4417	0.0006
483.6419	0.0015
483.8419	0.0009
484.042	0.0075
484.2421	-0.0018
484.4422	0.0051
484.6422	0.0085
484.8422	0.0037
485.0422	0.0034
485.2422	0.0038
485.4422	-0.0033
485.6422	-0.0014
485.8421	-0.0004
486.042	0.0037
486.242	0.0049
486.4419	0.0072
486.6417	0.0039
486.8416	-0.0004
487.0415	-0.0015
487.2413	0.0024
487.4411	0.0034
487.641	0.0055
487.8408	0.0046
488.0405	0.0018
488.2403	-0.001
488.4401	-0.0043
488.6398	0.0094
488.8395	0.0001
489.0392	0.0058
489.2389	0.0106
489.4386	0.0034
489.6383	0.0011
489.8379	-0.0027
490.0376	0.0084
490.2372	-0.0028
490.4368	0.009
490.6364	0.0078
490.836	-0.0069
491.0355	0.0014
491.2351	0.0042
491.4346	0.0033
491.6341	0.0022
491.8336	0.0014
492.0331	-0.0023
492.2326	-0.003
492.432	0.0056
492.6315	-0.0048
492.8309	0.0061
493.0303	-0.0043
493.2297	-0.006
493.4291	-0.0054
493.6284	0.0093
493.8278	0.0026
494.0271	0.0013
494.2264	0.0028
494.4257	-0.0041
494.625	0.0036
494.8243	0.006
495.0236	0.0057
495.2228	-0.0051
495.422	0.0015
495.6213	0.0043
495.8205	-0.0032
496.0196	0.0032
496.2188	0.0099
496.418	-0.0048
496.6171	0.0004
496.8162	0.0075
497.0153	-0.0035
497.2144	-0.0065
497.4135	-0.0001
497.6126	-0.0076
497.8116	0.004
498.0107	0.0012
498.2097	0.0075
498.4087	-0.0033
498.6077	0.0077
498.8067	0
499.0056	0.0026
499.2046	0.0031
499.4035	0.0014
499.6024	-0.0051
499.8013	0.001
500.0002	0.0111
500.199	0.0042
500.3979	0.0058
500.5967	-0.0077
500.7956	-0.0045
500.9944	0.0031
501.1932	0.0033
501.3919	0.0019
501.5907	0.0105
501.7895	0.0018
501.9882	-0.0075
502.1869	0.004
502.3856	-0.0069
502.5843	0.0024
502.783	0.0019
502.9816	-0.0031
503.1803	0.0069
503.3789	0.001
503.5775	-0.0003
503.7761	0.0022
503.9747	-0.0013
504.1732	0.0011
504.3718	-0.0016
504.5703	-0.0045
504.7689	-0.0003
504.9674	0.0032
505.1658	0.0003
505.3643	0.0013
505.5628	0.0107
505.7612	0.0037
505.9597	-0.0013
506.1581	-0.0115
506.3565	-0.0046
506.5549	0.0097
506.7532	0.0017
506.9516	0.0034
507.1499	-0.0006
507.3482	0.01
507.5465	-0.0117
507.7448	0.0102
507.9431	-0.0009
508.1414	0.0011
508.3396	-0.0007
508.5379	0.0066
508.7361	0.0118
508.9343	0.0029
509.1325	0.0078
509.3306	-0.0012
509.5288	0.0096
509.7269	0.0039
509.9251	0.0002
510.1232	-0.0068
510.3213	-0.0065
510.5193	0.0046
510.7174	-0.0091
510.9154	-0.0004
511.1135	-0.0078
511.3115	-0.0004
511.5095	-0.0014
511.7075	0.0031
511.9055	0.0091
512.1034	0.0064
512.3014	0.0052
512.4993	0.0052
512.6972	-0.014
512.8951	-0.002
513.093	-0.0024
513.2908	-0.0031
513.4887	0.0091
513.6865	-0.0088
513.8844	0.0111
514.0822	0.0076
514.2799	-0.0011
514.4777	0.0019
514.6755	0.0102
514.8732	-0.0085
515.0709	0.0029
515.2687	0.0035
515.4664	-0.0068
515.664	0.0068
515.8617	0.0071
516.0594	0.0022
516.257	0.0029
516.4546	-0.0005
516.6522	0.0001
516.8498	-0.0031
517.0474	-0.0053
517.2449	-0.0027
517.4425	0.0007
517.64	0.0071
517.8375	0.0094
518.035	0.0082
518.2325	-0.0084
518.43	-0.0046
518.6274	0.0002
518.8249	0.0051
519.0223	-0.0038
519.2197	-0.0034
519.4171	-0.0027
519.6145	-0.0066
519.8118	-0.0025
520.0092	0.0024
520.2065	-0.0026
520.4038	0.0043
520.6011	0.0017
520.7984	-0.0007
520.9956	-0.0055
521.1929	-0
521.3901	-0.0002
521.5874	0.0098
521.7846	-0.0022
521.9818	-0.0131
522.1789	0.0082
522.3761	0.0098
522.5732	0.002
522.7704	0.0001
522.9675	-0.0044
523.1646	0.0173
523.3617	-0.0021
523.5587	0.0078
523.7558	0.009
523.9528	0.0053
524.1498	-0.0023
524.3468	-0.0012
524.5438	-0.0018
524.7408	-0.0078
524.9378	-0
525.1347	0.0049
525.3316	0.0078
525.5285	-0.002
525.7254	0.0026
525.9223	0.0025
526.1192	-0.0002
526.316	0.0045
526.5129	0.0041
526.7097	-0.0083
526.9065	0.0131
527.1033	0.0025
527.3	-0.0047
527.4968	-0.0032
527.6935	0.0047
527.8903	0.0121
528.087	0.0062
528.2837	0.0069
528.4804	0.0086
528.677	0.0037
528.8737	0.0063
529.0703	0.0076
529.2669	0.0068
529.4635	0.0182
529.6601	0.0064
529.8567	-0.0057
530.0532	0.0015
530.2498	-0.0019
530.4463	0.0066
530.6428	0.0017
530.8393	0.005
531.0358	0.0052
531.2322	0.0079
531.4287	-0.0062
531.6251	-0.0106
531.8215	0.0022
532.0179	-0.0129
532.2143	0.0115
532.4107	0.006
532.607	0.0038
532.8034	0.0024
532.9997	0.0058
533.196	0.0134
533.3923	-0.0064
533.5886	-0.0017
533.7848	-0.0144
533.9811	-0.0019
534.1773	0.0054
534.3735	0.0018
534.5697	0.0008
534.7659	0.0026
534.9621	0.0075
535.1582	0.0082
535.3544	0.0151
535.5505	-0.0019
535.7466	0.0038
535.9427	-0.0065
536.1387	0.0028
536.3348	0.0025
536.5308	0.0212
536.7269	0.007
536.9229	-0.0064
537.1189	0.0065
537.3148	-0.0159
537.5108	0.0001
537.7068	0.0108
537.9027	0.0132
538.0986	-0.0059
538.2945	-0.0015
538.4904	-0.0002
538.6863	0.0019
538.8821	-0.0032
539.078	-0.0039
539.2738	-0.0098
539.4696	0.0076
539.6654	0.0017
539.8611	-0.0093
540.0569	0.0047
540.2526	0.0014
540.4484	-0.0135
540.6441	0.0003
540.8398	-0.0064
541.0355	0.004
541.2311	0.0007
541.4268	0.0033
541.6224	0.0058
541.818	-0.0065
542.0136	-0.007
542.2092	-0.0006
542.4048	-0.004
542.6003	0.007
542.7959	0.0028
542.9914	0.0038
543.1869	0.0035
543.3824	0.0069
543.5779	0.0037
543.7734	0.0015
543.9688	0.0041
544.1642	0.0022
544.3596	-0.005
544.555	-0
544.7504	0.0068
544.9458	0.0004
545.1411	0.0055
545.3365	-0.0048
545.5318	-0.0013
545.7271	0.0062
545.9224	-0.0101
546.1177	-0.0036
546.3129	-0.0085
546.5081	0.0022
546.7034	-0.0007
546.8986	-0.0008
547.0938	-0.0087
547.289	-0.0021
547.4841	0.0059
547.6793	-0.0051
547.8744	0.0032
548.0695	0.0012
548.2646	-0.0047
548.4597	-0.0018
548.6548	0.0053
548.8498	-0.002
549.0448	0.0002
549.2399	-0.0012
549.4349	-0.0019
549.6298	-0.0056
549.8248	0.0024
550.0198	0.0118
550.2147	-0.0042
550.4096	0.0023
550.6045	0.009
550.7994	0.0145
550.9943	0.0017
551.1892	0.0032
551.384	0.0129
551.5788	-0.0012
551.7737	-0.0077
551.9685	0.0091
552.1632	0.0014
552.358	0.01
552.5528	-0.0083
552.7475	-0.003
552.9422	0.0022
553.1369	0.007
553.3316	-0.0024
553.5263	-0.0052
553.7209	-0.003
553.9156	0.0111
554.1102	-0.0037
554.3048	0.0016
554.4994	0.0038
554.694	-0.0087
554.8885	0.0032
555.0831	0.0032
555.2776	-0.0026
555.4721	-0.0053
555.6666	-0.0019
555.8611	-0.0008
556.0555	0.0109
556.25	0.0002
556.4444	-0.0029
556.6388	0.0002
556.8332	0.0001
557.0276	0.0054
557.222	0.0054
557.4163	0.0021
557.6107	-0.0025
557.805	-0.0098
557.9993	0.0007
558.1936	0.014
558.3879	-0.0047
558.5821	-0.003
558.7764	0.0146
558.9706	-0.0057
559.1648	0.0045
559.359	0.013
559.5532	-0.0085
559.7473	0.0089
559.9415	0.0099
560.1356	0.006
560.3297	0.0001
560.5238	0.0072
560.7179	-0.0014
560.9119	0.006
561.106	-0.0016
561.3	-0.0023
561.494	0.0138
561.688	0.0008
561.882	0.0009
562.076	0.0023
562.2699	0.0042
562.4639	0.009
562.6578	0.0022
562.8517	0.0003
563.0456	0.0023
563.2395	0.0007
563.4333	-0.0023
563.6272	0.0121
563.821	0.0013
564.0148	-0.0058
564.2086	0.0022
564.4024	-0
564.5961	-0.0003
564.7899	0.0038
564.9836	0.0029
565.1773	0.0074
565.371	-0.0048
565.5647	-0.0062
565.7584	0.0017
565.952	0.001
566.1456	0.0043
566.3393	0.0056
566.5329	-0.0069
566.7264	0.0001
566.92	0.0008
567.1136	-0.002
567.3071	0.0016
567.5006	-0.0139
567.6941	0.0077
567.8876	0.0016
568.0811	-0.0139
568.2745	-0.0016
568.468	0.0082
568.6614	0.0047
568.8548	0.0008
569.0482	0.0051
569.2416	-0.0052
569.4349	0.0006
569.6283	0.0021
569.8216	0.0001
570.0149	-0.0021
570.2082	-0.0005
570.4015	0.0023
570.5947	-0.002
570.788	-0.0022
570.9812	0.003
571.1744	-0.0003
571.3676	-0.0037
571.5608	-0.0007
571.754	-0.0058
571.9471	0.0043
572.1402	-0.0026
572.3333	0.0036
572.5264	0.0057
572.7195	0.0052
572.9126	-0.0016
573.1057	-0.0013
573.2987	0.002
573.4917	0.0033
573.6847	0.0024
573.8777	0.0014
574.0707	0.003
574.2636	0.0014
574.4566	-0.002
574.6495	0.0068
574.8424	0.0015
575.0353	-0.0008
575.2281	-0.0036
575.421	0.0034
575.6138	-0.0042
575.8067	-0.0015
575.9995	0.0058
576.1923	0.0036
576.385	0.0001
576.5778	-0.0021
576.7706	0.0007
576.9633	0.0061
577.156	0.0016
577.3487	0.0007
577.5414	-0.0018
577.734	-0.0026
577.9267	-0.0003
578.1193	0.0054
578.3119	-0.0043
578.5045	-0.0013
578.6971	0.0005
578.8897	0.002
579.0822	-0.0006
579.2747	-0.0041
579.4673	-0.0002
579.6598	0.0002
579.8522	-0.0013
580.0447	-0.0024
580.2372	0.0019
580.4296	-0.0049
580.622	0.0043
580.8144	-0.0007
581.0068	0.0002
581.1992	0.0009
581.3915	-0.0006
581.5839	0.0043
581.7762	0.003
581.9685	-0.0004
582.1608	0.0014
582.353	-0.0023
582.5453	0.0014
582.7375	0.0008
582.9298	0.0006
583.122	0.0006
583.3142	0.0035
583.5063	-0.0071
583.6985	-0.0061
583.8906	-0.0008
584.0827	0.0031
584.2749	-0.0017
584.4669	-0.0016
584.659	0.0009
584.8511	0.0035
585.0431	0.0007
585.2352	-0.0032
585.4272	0.0025
585.6192	0.0023
585.8111	-0.007
586.0031	0.0028
586.195	0.0025
586.387	0.0022
586.5789	0.0046
586.7708	-0.0004
586.9627	0.0021
587.1545	0.0012
587.3464	0.0002
587.5382	-0.0005
587.73	0.0055
587.9218	-0.0013
588.1136	-0.0094
588.3053	0.002
588.4971	0.0045
588.6888	0.0011
588.8805	0.0086
589.0722	-0.0053
589.2639	-0.0047
589.4556	-0.0099
589.6472	-0.0011
589.8389	0.0035
590.0305	0.0034
590.2221	0.0038
590.4137	-0.001
590.6052	0.004
590.7968	0.0046
590.9883	0.005
591.1798	-0.0046
591.3713	-0.0009
591.5628	-0.0012
591.7543	-0.0012
591.9458	-0.0031
592.1372	-0.0012
592.3286	-0.0022
592.52	-0.0018
592.7114	-0.0054
592.9028	-0.0028
593.0941	-0.0016
593.2855	0.0005
593.4768	0.0012
593.6681	-0.0021
593.8594	-0.0065
594.0506	0.0065
594.2419	-0.0035
594.4331	0.0028
594.6244	0.0037
594.8156	0.0024
595.0067	0.0032
595.1979	-0.0004
595.3891	-0.0054
595.5802	-0.0018
595.7713	0.0024
595.9624	0.0005
596.1535	-0.0051
596.3446	-0.0017
596.5357	0.0009
596.7267	0.0031
596.9177	-0.0014
597.1087	0.0028
597.2997	-0.0038
597.4907	-0.0038
597.6817	-0.0022
597.8726	0.0027
598.0635	0.0025
598.2544	-0.0032
598.4453	0.003
598.6362	-0.0042
598.827	0.0014
599.0179	0.0023
599.2087	-0.0032
599.3995	-0.0023
599.5903	0.0015
599.7811	0.0014
599.9718	0.0031
600.1626	-0.0022
600.3533	-0.0027
600.544	0.0059
600.7347	0.0012
600.9254	0.0035
601.116	0.0042
601.3067	0.0071
601.4973	0.0078
601.6879	-0.0008
601.8785	0.001
602.0691	0.0036
602.2596	0.0034
602.4502	0.0007
602.6407	0.0027
602.8312	0.0016
603.0217	0.0052
603.2122	0.007
603.4027	-0.0007
603.5931	0.0023
603.7835	0.0014
603.9739	0.0022
604.1643	-0.0045
604.3547	0.0014
604.5451	0.0022
604.7354	0.0014
604.9257	-0.0037
605.116	-0.0027
605.3063	0.0013
605.4966	0.0024
605.6869	-0.0047
605.8771	0.0056
606.0673	-0.0081
606.2575	-0.0037
606.4477	0.005
606.6379	0
606.8281	-0.0097
607.0182	-0.0047
607.2083	0.0009
607.3985	-0.0006
607.5885	0.0012
607.7786	0.0045
607.9687	0
608.1587	-0.0011
608.3488	-0.0048
608.5388	-0
608.7288	-0.008
608.9187	0.01
609.1087	0.0003
609.2986	-0.0037
609.4886	0.0011
609.6785	0.0016
609.8684	-0.003
610.0582	0.0009
610.2481	-0.0006
610.4379	-0.0026
610.6278	-0.0007
610.8176	-0.0069
611.0074	-0.0078
611.1971	0.0036
611.3869	0.0033
611.5766	-0.0003
611.7664	0.0107
611.9561	-0.0012
612.1458	-0.0009
612.3354	0.0052
612.5251	-0.0007
612.7147	0.0039
612.9044	-0.0025
613.094	0.0036
613.2836	-0.0018
613.4731	0.002
613.6627	0.0011
613.8522	-0.0075
614.0417	-0.0023
614.2313	-0.0109
614.4207	0.0015
614.6102	-0.0044
614.7997	-0.002
614.9891	0.0005
615.1785	-0.0051
615.3679	0.0028
615.5573	-0.0061
615.7467	0.0025
615.9361	-0.013
616.1254	-0.0115
616.3147	0.0037
616.504	0.0034
616.6933	-0.0031
616.8826	0.0047
617.0718	-0.0041
617.2611	0.0007
617.4503	-0.0091
617.6395	0.0033
617.8287	0.0079
618.0179	-0.0011
618.207	-0.0008
618.3961	-0.0018
618.5853	0.0059
618.7744	0.0058
618.9634	0.0046
619.1525	-0.0016
619.3416	0.0099
619.5306	-0.0019
619.7196	-0.005
619.9086	0.011
620.0976	0.0026
620.2866	0.0031
620.4755	0.0134
620.6645	0.0003
620.8534	0.0059
621.0423	-0.0069
621.2312	-0.0091
621.42	-0.003
621.6089	0.0015
621.7977	0.0035
621.9865	0.0062
622.1753	0.0057
622.3641	-0.017
622.5529	-0.0129
622.7416	-0.0078
622.9303	-0.004
623.1191	-0.0039
623.3078	-0.0033
623.4964	-0.0058
623.6851	0.0137
623.8737	0.0021
624.0624	-0.0099
624.251	0.003
624.4396	-0.0067
624.6282	0.0066
624.8167	0.0045
625.0053	-0
625.1938	0.0071
625.3823	-0.0004
625.5708	-0.0001
625.7593	0.0026
625.9477	-0.0067
626.1362	-0.0068
626.3246	-0.0152
626.513	0.0012
626.7014	-0.0165
626.8898	-0.007
627.0781	0.0073
627.2665	0.0057
627.4548	-0.0029
627.6431	-0.0105
627.8314	0.0002
628.0197	0.0023
628.2079	0.0033
628.3962	0.003
628.5844	0.0107
628.7726	-0.003
628.9608	-0.0017
629.1489	-0.0076
629.3371	0.0161
629.5252	0.006
629.7134	0.0016
629.9015	-0.0014
630.0895	0.0039
630.2776	-0.008
630.4657	0.0083
630.6537	-0.0066
630.8417	-0.0002
631.0297	-0.0058
631.2177	-0.0053
631.4057	-0.0005
631.5936	-0.0012
631.7815	0.0144
631.9695	0.0155
632.1574	0.004
632.3452	-0.0038
632.5331	0.0031
632.7209	-0.0095
632.9088	0.0025
633.0966	0.0154
633.2844	0.0004
633.4722	0.011
633.6599	-0.0169
633.8477	-0.0043
634.0354	-0.0007
634.2231	0.0218
634.4108	-0.0042
634.5985	-0.0049
634.7861	-0.0066
634.9738	-0.0033
635.1614	0.0066
635.349	-0.0109
635.5366	0.0011
635.7242	0.0039
635.9117	0.0068
636.0993	-0.0099
636.2868	-0.0092
636.4743	0.0109
636.6618	-0.0076
636.8492	-0.0017
637.0367	-0.0016
637.2241	0.0001
637.4115	0.0118
637.5989	0.0251
637.7863	-0.021
637.9737	0.0114
638.161	-0.0088
638.3484	0.0096
638.5357	0.0037
638.723	-0.008
638.9103	0.0017
639.0975	0.0127
639.2848	0.0231
639.472	-0.0022
639.6592	0.0163
639.8464	0.0259
640.0336	0.0129
640.2208	-0.0114
640.4079	0.0236
640.595	-0.0007
640.7821	-0.0141
640.9692	0.0018
641.1563	0.011
641.3434	0.0123
641.5304	-0.0163
641.7174	0.0045
641.9044	0.0001
642.0914	-0.0092
642.2784	0.0055
642.4653	-0.0073
642.6523	0.0115
642.8392	0.0036
643.0261	-0.0008
643.213	0.0024
643.3999	-0.0067
643.5867	0.0066
643.7735	0.0254
643.9604	-0.0114
644.1472	0.0086
644.3339	-0.0095
644.5207	-0.0105
644.7075	0.0098
644.8942	0.002
645.0809	-0.018
645.2676	0.0059
645.4543	-0.0018
645.6409	-0.0004
645.8276	-0.011
646.0142	0.004
646.2008	0.0064
646.3874	0.0023
646.574	-0.0277
646.7605	-0.0027
646.9471	0.0004
647.1336	-0.0078
647.3201	0.0072
647.5066	-0.0031
647.6931	-0.0107
647.8795	0.0084
648.0659	-0.0137
648.2524	-0.0127
648.4388	0.0092
648.6252	-0.0096
648.8115	0.0095
648.9979	-0.007
649.1842	-0.0036
649.3705	0.0062
649.5568	-0.0146
649.7431	-0.0012
649.9294	-0.0083
650.1156	-0.0111
650.3018	0.0111
650.488	-0.007
650.6742	0.006
650.8604	-0.0039
651.0466	0.0088
651.2327	-0.0125
651.4188	-0.0198
651.6049	-0.0018
651.791	0.0091
651.9771	-0.0241
652.1632	0.0009
652.3492	0.0079
652.5352	0.0127
652.7212	-0.0011
652.9072	-0.0161
653.0932	0.0095
653.2791	-0.0065
653.465	-0.0025
653.651	0.0069
653.8369	0.0174
654.0227	-0.0096
654.2086	-0.0129
654.3944	0.0027
654.5803	-0.0047
654.7661	-0.0024
654.9519	-0.0035
655.1377	0
655.3234	0
655.5092	0
655.6949	0
655.8806	0
656.0663	0
656.2519	0
656.4376	0
656.6232	0
656.8088	0
656.9945	0
657.18	0
657.3656	0
657.5511	0
657.7367	0
657.9222	0
658.1077	0
658.2932	0
658.4786	0
658.6641	0
658.8495	0
659.0349	0
659.2203	0
659.4057	0.0117
659.591	0.0537
659.7764	0.0027
659.9617	-0.0042
660.147	-0.006
660.3323	-0.0082
660.5176	-0.0041
660.7028	0.0126
660.888	0.0064
661.0733	0.0156
661.2585	0.0045
661.4436	0.0062
661.6288	0.0029
661.8139	0.0198
661.9991	-0.0068
662.1842	0.0229
662.3693	0.0022
662.5544	0.0029
662.7394	0.0276
662.9245	0.0107
663.1095	0.004
663.2945	-0.001
663.4795	-0.0183
663.6644	0.0153
663.8494	0.0046
664.0343	-0.0227
664.2193	0.0007
664.4042	-0.0091
664.589	-0.0178
664.7739	-0.0022
664.9587	0.0132
665.1436	-0.0025
665.3284	-0.0061
665.5132	0.0015
665.698	0.0221
665.8827	-0.034
666.0675	-0.0293
666.2522	0.0205
666.4369	-0.0138
666.6216	-0.0076
666.8063	-0.0082
666.9909	-0.0005
667.1756	-0.0024
667.3602	0.0039
667.5448	-0.0154
667.7294	0.0049
667.9139	0.0245
668.0985	-0.0362
668.283	0.0193
668.4675	-0.0128
668.652	-0.0165
668.8365	-0.0223
669.0209	0.0023
669.2054	0.013
669.3898	-0.0156
669.5742	0.0092
669.7586	-0.0192
669.943	-0.0138
670.1273	0.0093
670.3117	0.0191
670.496	0.0008
670.6803	-0.0075
670.8646	0.012
671.0488	-0.0056
671.2331	0.0118
671.4173	0.0049
671.6015	-0.0075
671.7857	-0.0203
671.9699	0.0018
672.1541	-0.007
672.3382	0.0043
672.5223	-0.0058
672.7064	-0.0033
672.8905	0.0049
673.0746	-0.0101
673.2587	0.0045
673.4427	-0.0052
673.6267	-0.0036
673.8107	-0.0043
673.9947	0.0041
674.1787	-0.0023
674.3626	-0.0198
674.5465	-0.0067
674.7304	-0.0256
674.9143	0.0186
675.0982	-0.003
675.2821	0.0142
675.4659	-0.0001
675.6497	0.0028
675.8335	0.0051
676.0173	0.0187
676.2011	0.0021
676.3849	-0.0259
676.5686	0.007
676.7523	0.0123
676.936	-0.012
677.1197	0.017
677.3034	0.0184
677.487	-0.0036
677.6706	-0.0163
677.8542	-0.0023
678.0378	0.0088
678.2214	-0.0167
678.405	0.0109
678.5885	-0.0108
678.772	-0.0122
678.9555	0.0035
679.139	-0.0094
679.3225	-0.0149
679.5059	-0.0038
679.6894	-0.0065
679.8728	-0.0125
680.0562	-0.0106
680.2395	-0.0189
680.4229	-0.0064
680.6062	0.0139
680.7896	0.0093
680.9729	-0.0107
681.1562	0.0033
681.3394	-0.0019
681.5227	-0.01
681.7059	-0.0206
681.8891	0.0155
682.0723	-0.0131
682.2555	0.018
682.4387	-0.0034
682.6218	-0.0157
682.805	-0.0034
682.9881	-0.0015
683.1712	0.0209
683.3542	-0.0124
683.5373	0.0188
683.7203	0.0108
683.9034	-0.0118
684.0864	0.0073
684.2694	0.0082
684.4523	-0.0042
684.6353	0.0067
684.8182	0.0043
685.0011	-0.0086
685.184	-0.0116
685.3669	-0.0131
685.5498	0.0113
685.7326	0.0017
685.9154	0.008
686.0982	0.0053
686.281	-0.0029
686.4638	0.009
686.6465	-0.0057
686.8293	-0.0034
687.012	-0.0039
687.1947	0.0081
687.3774	0.0019
687.56	0.0143
687.7427	0.0015
687.9253	0.023
688.1079	0.0285
688.2905	0.0183
688.4731	0.0212
688.6556	-0.0001
688.8382	0.0088
689.0207	-0.0127
689.2032	-0.0087
689.3857	0.0034
689.5681	-0.0114
689.7506	0.0008
689.933	0.0059
690.1154	-0.0154
690.2978	-0.0118
690.4802	0.0242
690.6626	-0.0071
690.8449	-0.0113
691.0272	-0.0167
691.2095	0.0003
691.3918	-0.0092
691.5741	0.0045
691.7563	0.009
691.9386	0.0028
692.1208	0.0001
692.303	-0.0031
692.4852	-0.0032
692.6673	-0.0225
692.8495	-0.0085
693.0316	-0.0128
693.2137	0.0224
693.3958	-0.0055
693.5778	-0.0195
693.7599	-0.0188
693.9419	0.009
694.1239	0.0239
694.3059	-0.0094
694.4879	-0.0206
694.6699	0.0064
694.8518	0.0253
695.0337	-0.0032
695.2157	0.0096
695.3975	0.0073
695.5794	-0.0032
695.7613	0.0134
695.9431	-0.028
696.1249	-0.0054
696.3067	-0.0043
696.4885	-0.0001
696.6703	0.002
696.852	-0.0104
697.0337	-0.0064
697.2154	0.0146
697.3971	-0.002
697.5788	0.0155
697.7605	-0.0035
697.9421	-0.0063
698.1237	0.0168
698.3053	-0.0137
698.4869	0.0073
698.6685	-0.0143
698.85	0.0034
699.0315	0.0014
699.213	0.021
699.3945	0.0148
699.576	0.0169
699.7575	-0.0208
699.9389	0.0042
700.1203	-0.0168
700.3017	-0.026
700.4831	0.0128
700.6645	0.0034
700.8458	0.0133
701.0271	-0.0132
701.2084	-0.0082
701.3897	-0.0028
701.571	-0.0166
701.7523	-0.0228
701.9335	0.0105
702.1147	-0.0061
702.2959	0.0049
702.4771	0.0067
702.6583	-0.0083
702.8394	-0.0018
703.0205	-0.0047
703.2016	0.0009
703.3827	0.0176
703.5638	0.0022
703.7449	-0.0002
703.9259	0.0127
704.1069	0.0085
704.2879	0.0206
704.4689	-0.0045
704.6499	-0.0266
704.8308	-0.0119
705.0117	-0.0227
705.1927	-0.0138
705.3735	0.0066
705.5544	0.0054
705.7353	0.0256
705.9161	0.0091
706.0969	0.0303
706.2777	0.0111
706.4585	0.007
706.6393	0.0133
706.82	-0.0109
707.0007	-0.0001
707.1815	0.0141
707.3621	0.0075
707.5428	0.0284
707.7235	0.0127
707.9041	-0.0094
708.0847	-0.0111
708.2653	0.0025
708.4459	-0.0176
708.6265	-0.0242
708.807	0.0158
708.9875	-0.0153
709.168	0.0038
709.3485	0.0002
709.529	0.0368
709.7095	-0.0094
709.8899	0.0292
710.0703	0.0212
710.2507	-0.0062
710.4311	0.0082
710.6115	-0.005
710.7918	0.0037
710.9721	-0.0227
711.1524	0.0055
711.3327	-0.0148
711.513	-0.0087
711.6932	-0.0292
711.8735	0.0229
712.0537	-0.0099
712.2339	0.0167
712.4141	0.0165
712.5942	0.0071
712.7744	-0.0161
712.9545	0.0071
713.1346	0.0197
713.3147	-0.001
713.4947	0.0007
713.6748	-0.0037
713.8548	-0.0077
714.0348	0.0067
714.2148	0.0145
714.3948	-0.003
714.5748	-0.0007
714.7547	0.0036
714.9346	-0.0046
715.1145	-0.0058
715.2944	0.0045
715.4743	0.0064
715.6541	-0.0351
715.834	0.009
716.0138	0.0056
716.1936	-0.0019
716.3733	-0.0117
716.5531	0.0122
716.7328	-0.0248
716.9126	-0.0167
717.0923	0.0236
717.2719	-0.0289
717.4516	-0.0313
717.6312	-0.0219
717.8109	0.0185
717.9905	-0.0091
718.1701	-0.0162
718.3496	0.0014
718.5292	-0.0177
718.7087	-0.0107
718.8882	0.0369
719.0677	-0.017
719.2472	0.0199
719.4267	0.0237
719.6061	-0.0069
719.7856	-0.0195
719.965	0.0225
720.1443	-0.0279
720.3237	0.0091
720.5031	0.012
720.6824	0.0276
720.8617	0.0078
721.041	0.0144
721.2203	0.0233
721.3995	-0.0112
721.5788	0.0072
721.758	-0.0114
721.9372	0.0039
722.1164	0.0223
722.2956	-0.0002
722.4747	0.0105
722.6538	0.0181
722.8329	-0.0249
723.012	0.0149
723.1911	0.0299
723.3702	-0.0304
723.5492	-0.0214
723.7282	0.0059
723.9072	-0.0231
724.0862	-0.0007
724.2652	-0.0228
724.4441	-0.0082
724.623	-0.0145
724.8019	0.0162
724.9808	-0.0142
725.1597	-0.0026
725.3385	-0.0098
725.5174	0.019
725.6962	0.0419
725.875	0.0147
726.0538	0.0229
726.2325	-0.0206
726.4112	0.0281
726.59	0.0137
726.7687	0.0079
726.9474	0.0007
727.126	-0.0285
727.3047	-0.0128
727.4833	0.021
727.6619	0.0205
727.8405	-0.0043
728.0191	-0.0351
728.1976	-0.0258
728.3762	-0.0316
728.5547	-0.0112
728.7332	0.0006
728.9116	-0.0511
729.0901	0.0084
729.2686	-0.0346
729.447	-0.0177
729.6254	0.0178
729.8038	-0.0172
729.9821	0.0073
730.1605	-0.0158
730.3388	-0.0101
730.5171	0.0068
730.6954	0.0259
730.8737	0.0134
731.0519	0.0055
731.2302	-0.0007
731.4084	0.0206
731.5866	-0.0103
731.7648	-0.0008
731.9429	0.0002
732.1211	-0.0059
732.2992	-0.0113
732.4773	-0.0022
732.6554	0.0007
732.8335	0.0176
733.0115	-0.0103
733.1896	-0.0156
733.3676	0.0137
733.5456	0.005
733.7235	0.0057
733.9015	-0.0077
734.0794	-0.0052
734.2574	0.019
734.4353	-0.0154
734.6131	0.0058
734.791	0.0088
734.9689	-0.0015
735.1467	-0.0079
735.3245	0.016
735.5023	-0.0042
735.68	0.0046
735.8578	-0.0073
736.0355	0.0037
736.2132	0.0061
736.3909	0.007
736.5686	0.0029
736.7463	-0.0101
736.9239	0.0137
737.1015	0.0048
737.2791	-0.0193
737.4567	-0.0022
737.6343	-0.0105
737.8118	0.0058
737.9894	0.0045
738.1669	0.0049
738.3444	0.0036
738.5218	0.0244
738.6993	-0.0115
738.8767	0.0059
739.0541	0.0049
739.2315	-0.0044
739.4089	-0.0052
739.5863	-0.0065
739.7636	0.0187
739.9409	-0.0237
740.1182	0.0106
740.2955	-0.0254
740.4728	0.0216
740.65	-0.0077
740.8272	-0.0518
741.0044	0.0132
741.1816	0.0061
741.3588	0.0185
741.5359	0.0037
741.7131	0.0354
741.8902	-0.0247
742.0673	0.0065
742.2444	-0.007
742.4214	-0.0136
742.5985	-0.0031
742.7755	0.0007
742.9525	0.003
743.1295	-0.0072
743.3064	-0.0111
743.4834	-0.0118
743.6603	-0.0128
743.8372	0.0104
744.0141	0.0369
744.191	-0.0226
744.3678	0.0066
744.5446	0.0164
744.7215	-0.0021
744.8982	-0.0072
745.075	-0.0063
745.2518	-0.0198
745.4285	-0.0108
745.6052	0.0021
745.7819	0.0189
745.9586	0.0335
746.1353	-0.0082
746.3119	-0.0104
746.4885	0.0075
746.6651	-0.0286
746.8417	-0.0313
747.0183	-0.0058
747.1948	0.0034
747.3714	0.0128
747.5479	0.0194
747.7244	-0.0451
747.9008	0.0215
748.0773	-0.0008
748.2537	0.0344
748.4301	-0.0098
748.6065	-0.0353
748.7829	0.001
748.9593	0.0155
749.1356	-0.0185
749.3119	-0.0078
749.4882	-0.0004
749.6645	0.0011
749.8408	-0.0122
750.017	-0.0177
750.1933	0.0285
750.3695	0.0151
750.5457	-0.0205
750.7218	0.0202
750.898	-0.0063
751.0741	0.0204
751.2502	0.0043
751.4263	0.0127
751.6024	0.0271
751.7784	-0.05
751.9545	-0.0214
752.1305	0.0026
752.3065	0.0251
752.4825	-0.0077
752.6584	0.0031
752.8344	0.0042
753.0103	-0.0293
753.1862	0.0062
753.3621	-0.0042
753.5379	-0.0091
753.7138	-0.0211
753.8896	0.0399
754.0654	-0.0024
754.2412	0.0405
754.417	0.0034
754.5927	-0.023
754.7685	-0.0392
754.9442	-0.0056
755.1199	-0.0035
755.2956	0.0101
755.4712	-0.0192
755.6469	0.0056
755.8225	0.0142
755.9981	-0.0093
756.1736	0.0115
756.3492	-0.0168
756.5248	-0.0202
756.7003	0.0069
756.8758	0.0001
757.0513	-0.0132
757.2267	-0.0003
757.4022	-0.0015
757.5776	-0.0138
757.753	-0.0072
757.9284	-0.0043
758.1038	-0.0039
758.2791	0.0136
758.4545	-0.0261
758.6298	-0.0216
758.8051	0.0099
758.9803	-0.0041
759.1556	-0.0063
759.3308	0.0089
759.506	0.0148
759.6812	-0.0113
759.8564	-0.0077
760.0316	-0.008
760.2067	-0.0229
760.3819	0.0016
760.557	0.0001
760.732	0.009
760.9071	-0.0194
761.0821	0.028
761.2572	0.0186
761.4322	0.0002
761.6072	-0.0144
761.7821	-0.0005
761.9571	0.0055
762.132	0.0042
762.3069	-0.0021
762.4818	-0.0087
762.6567	0.0132
762.8316	-0.0158
763.0064	-0.0124
763.1812	-0.012
763.356	-0.0117
763.5308	-0.006
763.7055	-0.0091
763.8803	-0.0096
764.055	-0.0058
764.2297	-0.0091
764.4044	0.0019
764.579	0.0041
764.7537	-0.0049
764.9283	-0.0269
765.1029	-0.0009
765.2775	-0.0121
765.4521	0.0123
765.6266	-0.021
765.8011	-0.0259
765.9756	0.0182
766.1501	0.0306
766.3246	0.0008
766.4991	-0.0175
766.6735	0.0086
766.8479	-0.0094
767.0223	0.0205
767.1967	-0.0512
767.371	0.0179
767.5454	0.0196
767.7197	0.0133
767.894	-0.0164
768.0683	-0.0101
768.2425	0.0097
768.4168	0.0041
768.591	0.0016
768.7652	-0.0028
768.9394	0.0086
769.1135	0.0096
769.2877	0.0132
769.4618	0.0151
769.6359	-0.0107
769.81	-0.0092
769.984	-0.0124
770.1581	-0.015
770.3321	-0.0137
770.5061	0.0245
770.6801	-0.0088
770.8541	-0.038
771.028	0.0152
771.202	-0.0367
771.3759	-0.0081
771.5498	0.0105
771.7236	0.0213
771.8975	-0.0325
772.0713	0.0066
772.2451	0.0023
772.4189	-0.014
772.5927	-0.0166
772.7665	0.0651
772.9402	0.0217
773.1139	-0.014
773.2876	0.0075
773.4613	-0.0038
773.635	-0.0042
773.8086	0.0029
773.9822	-0.0103
774.1558	-0.0381
774.3294	-0.0402
774.503	0.0145
774.6765	0.0114
774.8501	0.018
775.0236	0.013
775.1971	-0.018
775.3705	-0.0011
775.544	0.0678
775.7174	0.0051
775.8908	0.0206
776.0642	0.0321
776.2376	-0.0639
776.4109	0.0808
776.5843	0.0161
776.7576	0.0271
776.9309	0.0207
777.1041	-0.0421
777.2774	-0.0012
777.4506	-0.0186
777.6238	-0.0154
777.797	-0.0412
777.9702	0.0301
778.1434	0.01
778.3165	-0.0087
778.4896	0.0142
778.6627	0.0156
778.8358	-0.012
779.0089	-0.0112
779.1819	0.0168
779.3549	0.0339
779.5279	0.0404
779.7009	-0.0262
779.8739	-0.0074
780.0468	0.0131
780.2197	0.01
780.3926	-0.012
780.5655	0.0085
780.7384	0.0113
780.9112	-0.0051
781.0841	-0.0172
781.2569	-0.0101
781.4297	0.0153
781.6024	-0.0406
781.7752	-0.0222
781.9479	0.0151
782.1206	-0.0023
782.2933	0.0316
782.466	-0.0122
782.6386	-0.0109
782.8113	0.0144
782.9839	0.0197
783.1565	-0.0032
783.329	0.0021
783.5016	0.0113
783.6741	-0.004
783.8466	-0.067
784.0191	-0.0215
784.1916	0.0369
784.3641	-0.0255
784.5365	0.0504
784.7089	0.0053
784.8813	0.0463
785.0537	-0.0203
785.2261	0.002
785.3984	-0.014
785.5707	0.0276
785.743	-0.0128
785.9153	0.0341
786.0876	-0.0129
786.2598	-0.0194
786.432	0.0334
786.6042	0.0743
786.7764	0.0028
786.9486	0.0323
787.1207	0.0213
787.2928	-0.0161
787.4649	0.0233
787.637	0.0348
787.8091	-0.0282
787.9811	0.0109
788.1532	0.0075
788.3252	0.0035
788.4972	-0.0152
788.6691	0.0543
788.8411	-0.0002
789.013	0.0057
789.1849	0.0244
789.3568	0.0036
789.5287	-0.0004
789.7005	0.0114
789.8723	-0.0349
790.0442	-0.0451
790.2159	0.0284
790.3877	0.0024
790.5595	0.0299
790.7312	-0.054
790.9029	0.0225
791.0746	0.0144
791.2463	0.0084
791.4179	-0.0591
791.5896	-0.0535
791.7612	-0.0406
791.9328	-0.0456
792.1044	-0.0115
792.2759	-0.02
792.4474	0.0248
792.619	0.0585
792.7905	-0.017
792.9619	0.0323
793.1334	-0.0374
793.3048	0.0117
793.4762	-0.0504
793.6476	-0.0359
793.819	0.0133
793.9904	0.0116
794.1617	-0.0117
794.333	-0.0275
794.5043	0.0022
794.6756	0.0296
794.8469	0.001
795.0181	-0.0228
795.1893	-0.0153
795.3605	-0.0393
795.5317	0.0257
795.7029	0.0237
795.874	-0.0411
796.0452	0.021
796.2163	0.0394
796.3873	0.0587
796.5584	0.0664
796.7294	-0.0748
796.9005	-0.0864
797.0715	0.0188
797.2425	0.0166
797.4134	-0.0005
797.5844	0.0145
797.7553	-0.027
797.9262	0.0118
798.0971	-0.0418
798.2679	-0.0158
798.4388	-0.0569
798.6096	-0.0429
798.7804	0.0286
798.9512	0.0153
799.122	0.0795
799.2927	-0.064
799.4635	0.0749
799.6342	0.0467
799.8049	0.019
799.9755	-0.0302
800.1462	0.0645
800.3168	-0.0166
800.4874	0.0079
800.658	0.0609
800.8286	0.0258
800.9991	0.0608
801.1696	0.01
801.3402	-0.0715
801.5106	-0.1295
801.6811	-0.0322
801.8516	0.0306
802.022	-0.0546
802.1924	-0.0626
802.3628	-0.0895
802.5332	0.0355
802.7035	-0.0459
802.8739	-0.0098
803.0442	0.0063
803.2145	-0.0522
803.3847	-0.0514
803.555	0.0407
803.7252	0.006
803.8954	0.0284
804.0656	-0.0021
804.2358	-0.0125
804.4059	0.12
804.5761	0.0492
804.7462	-0.0665
804.9163	-0.055
805.0864	0.035
805.2564	0.0317
805.4264	-0.0216
805.5965	0.1005
805.7665	0.0502
805.9364	-0.0448
806.1064	-0.0567
806.2763	0.0432
806.4462	0.0395
806.6161	0.0112
806.786	-0.0054
806.9559	-0.0285
807.1257	0.0125
807.2955	0.0211
807.4653	-0.0598
807.6351	-0.0747
807.8048	-0.0399
807.9746	-0.0235
808.1443	0.022
808.314	0.0101
808.4837	-0.0143
808.6533	0.0159
808.8229	-0.0861
808.9926	0.0745
809.1622	0.0241
809.3317	-0.0243
809.5013	0.0726
809.6708	0.0405
809.8403	0.034
810.0098	0.0528
810.1793	0.0982
810.3488	0.0373
810.5182	-0.0467
810.6876	0.0463
810.857	-0.0872
811.0264	-0.115
811.1958	-0.0656
811.3651	-0.0187
811.5344	-0.0391
811.7037	-0.0749
811.873	0.0561
812.0422	0.1074
812.2115	0.1563
812.3807	-0.0504
812.5499	0.0485
812.7191	-0.0228
812.8882	0.0982
813.0574	-0.1464
813.2265	0.0197
813.3956	-0.0687
813.5646	0.0039
813.7337	-0.0539
813.9027	-0.0085
814.0718	0.0285
814.2407	-0.1045
814.4097	0.0074
814.5787	-0.0426
814.7476	-0.009
814.9165	-0.0501
815.0854	-0.0457
815.2543	0.0478
815.4232	-0.0708
815.592	0.0467
815.7608	0.0706
815.9296	0.0664
816.0984	-0.0233
816.2671	0.0364
816.4359	0.0203
816.6046	0.0838
816.7733	-0.0731
816.942	0.0684
817.1106	-0.0707
817.2793	-0.0654
817.4479	-0.0988
817.6165	-0.0236
817.785	0.1023
817.9536	0.0467
818.1221	0.1046
818.2906	0.0419
818.4591	-0.0539
818.6276	0.0484
818.7961	0.0222
818.9645	-0.0685
819.1329	0.4748
819.3013	-0.059
819.4697	0.2284
819.638	-0.0855
819.8064	-0.1047
819.9747	0.0193
820.143	0.1149
820.3113	0.1679
820.4795	-0.0337
820.6477	-0.0045
820.816	-0.0235
820.9842	-0.1327
821.1523	0.0644
821.3205	-0.0054
821.4886	-0.0309
821.6567	0.0431
821.8248	-0.0009
821.9929	0.0608
822.1609	0.0116
822.329	0.0799
822.497	0.0476
822.665	0.2023
822.833	-0.1414
823.0009	-0.0991
823.1688	-0.0436
823.3367	-0.1568
823.5046	0.3232
823.6725	0.0512
823.8404	0.0204
824.0082	-0.0076
824.176	0.1211
824.3438	0.1147
824.5116	0.1218
824.6793	0.0166
824.847	-0.0827
825.0147	-0.0205
825.1824	0.0761
825.3501	0.0698
825.5177	0.0375
825.6854	0.0752
825.853	-0.0767
826.0206	-0.005
826.1881	0.0315
826.3557	0.0884
826.5232	0.128
826.6907	0.054
826.8582	-0.1861
827.0257	-0.0863
827.1931	0.2762
827.3605	-0.1166
827.528	-0.0982
827.6953	0.0255
827.8627	-0.0619
828.03	-0.004
828.1974	-0.041
828.3647	0.1526
828.532	0.1183
828.6992	-0.0498
828.8665	0.0466
829.0337	-0.1103
829.2009	0.0685
829.3681	-0.0495
829.5352	-0.0222
829.7024	0.2295
829.8695	-0.0397
830.0366	0.093
830.2037	0.1575
830.3707	-0.0016
830.5378	0.0566
830.7048	-0.1732
830.8718	0.1958
831.0388	0.2845
831.2057	-0.0574
831.3727	0.1893
831.5396	-0.2063
831.7065	0.1541
831.8734	-0.3938
832.0402	0.0755
832.2071	-0.2693
832.3739	0.3866
832.5407	-0
832.7075	0.1618
832.8742	0.0937
833.041	0.2157
833.2077	0.0797
833.3744	-0.1025
833.541	-0.0637
833.7077	0.0523
833.8743	-0.0197
834.0409	-0.0784
834.2075	0.109
834.3741	-0.0583
834.5407	0.0907
834.7072	0.3844
834.8737	0.0265
835.0402	-0
835.2067	0.2649
835.3731	0.1181
835.5395	0.117
835.706	-0.0204
835.8723	-0.2202
836.0387	-0.0158
836.2051	-0.1302
836.3714	-0.3219
836.5377	0.2085
836.704	0.3805
836.8703	-0.0812
837.0365	-0
837.2027	1.4374
837.3689	0.3226
837.5351	-0.1316
837.7013	0.0865
837.8674	-0.7976
838.0335	0.0079
838.1997	0.1426
838.3657	-0
838.5318	-0
838.6978	0.0373
838.8639	-0.1175
839.0299	0.228
839.1958	0.042
839.3618	1.4706
839.5277	-0.0044
839.6937	-0.3896
839.8596	0.0982
840.0254	0.216
840.1913	0.3007
840.3571	-0.1113
840.523	-0
840.6888	-0.0757
840.8545	0.0705
841.0203	-0.0975
841.186	0.0376
841.3517	0.05
841.5174	0.137
841.6831	0.3869
841.8488	-0.0401
842.0144	0.5777
842.18	0.2203
842.3456	-0.1374
842.5112	-0.0941
842.6767	0.1253
842.8422	0.4491
843.0077	0.3069
843.1732	-0.0048
843.3387	-0.2653
843.5042	0.2875
843.6696	-0
843.835	-0.1249
844.0004	0.0103
844.1657	-0
844.3311	-0.3212
844.4964	0.5269
844.6617	-0
844.827	0.4709
844.9923	-0.0189
845.1575	-0
845.3227	0.0065
845.4879	0.0572
845.6531	-0.2242
845.8183	0.213
845.9834	-0.2192
846.1485	-0.2146
846.3136	0.365
846.4787	-0.2924
846.6438	-0
846.8088	-1.3125
846.9738	0.2997
847.1388	0.5869
847.3038	0.0075
847.4687	-0
847.6337	1.4141
847.7986	0.3522
847.9635	0.1618
848.1284	-0.1505
848.2932	-0.0983
848.458	0.0055
848.6228	0.3285
848.7876	0.0226
848.9524	0.1951
849.1172	-0.1212
849.2819	-0.2192
849.4466	0.1446
849.6113	-0.3086
849.7759	-0
849.9406	-0.1701
850.1052	-0.405
850.2698	-1.6163
850.4344	0.7915
850.599	0.1104
850.7635	0.3116
850.928	0.1673
851.0925	-0.194
851.257	-0
851.4215	-0
851.5859	0.0099
851.7503	-0
851.9147	-0
852.0791	-0.1449
852.2434	-0
852.4078	0.0212
852.5721	-0.0162
852.7364	0.0782
852.9007	0.0439
853.0649	0.585
853.2291	0.2575
853.3934	0.4241
853.5575	0.0466
853.7217	-0.4519
853.8859	-0.0205
854.05	-0.7804
854.2141	-0
854.3782	0.2598
854.5423	-0.8541
854.7063	-0.2123
854.8703	0.2228
855.0343	0.2126
855.1983	-0.0548
855.3623	-0.1209
855.5262	-0.7218
855.6901	-0.0585
855.854	-0.2798
856.0179	-0
856.1818	-0
856.3456	0.8317
856.5094	-0
856.6732	-0.3615
856.837	0.2406
857.0008	-0
857.1645	-0
857.3282	0.0452
857.4919	0.0695
857.6556	0.1057
857.8192	-0.2048
857.9828	-0.0268
858.1465	0.4718
858.31	-0
858.4736	-0
858.6372	0.6154
858.8007	-0.6758
858.9642	0.5394
859.1277	-0.6943
859.2911	0.0376
859.4546	-0.0557
859.618	-0.2787
859.7814	-0
859.9448	0.248
860.1081	-0
860.2715	0.4869
860.4348	0.3
860.5981	1.0925
860.7614	-0.4779
860.9246	0.0769
861.0879	-0.1173
861.2511	0.7244
861.4143	-0
861.5774	0.4434
861.7406	-0.4888
861.9037	-0
862.0668	-0.2192
862.2299	-1.3554
862.393	-0
862.556	-0
862.7191	0.1281
862.8821	-0.3815
863.0451	-0
863.208	0.0182
863.371	1.0654
863.5339	-0.2635
863.6968	-0.3212
863.8597	-0
864.0225	1.5472
864.1854	-0
864.3482	0.7333
864.511	-0.0766
864.6737	1.0846
864.8365	-0.0346
864.9992	-0.3366
865.1619	0.4275
865.3246	0.1099
865.4873	-1.0404
865.65	0.29
865.8126	-0
865.9752	0.1804
866.1378	-0.6796
866.3004	1.1037
866.4629	0.0075
866.6254	-1.0433
866.7879	0.1679
866.9504	-0
867.1129	0.7354
867.2753	0.0321
867.4377	1.3952
867.6001	0.3375
867.7625	0.1567
867.9249	0.5191
868.0872	0.1591
868.2495	-0
868.4118	-0
868.5741	-0.6235
868.7363	0.2786
868.8986	0.1106
869.0608	-0
869.223	0.5283
869.3851	-0
869.5473	-1.3855
869.7094	-0
869.8715	-0
870.0336	0.1565
870.1957	-0
870.3577	0.3994
870.5197	0.7365
870.6817	-0
870.8437	0.5837
871.0057	-0
871.1676	0.0686
871.3295	-0
871.4914	1.0626
871.6533	0.157
871.8151	-0.5652
871.977	-0
872.1388	-0
872.3006	0.1991
872.4623	-0.281
872.6241	-1.7377
872.7858	-0.3296
872.9475	-0
873.1092	0.3559
873.2709	0.3653
873.4325	-0
873.5941	-0.3727
873.7557	-0.5744
873.9173	-1.189
874.0789	-0.0462
874.2404	-0.4148
874.4019	-0.0873
874.5634	0.6568
874.7249	0.4869
874.8863	-0.4785
875.0478	-0.0352
875.2092	0.6422
875.3706	-0.3207
875.5319	0.8146
875.6933	-0.1737
875.8546	-0.3582
876.0159	-0.2236
876.1772	-1.028
876.3385	-0.4597
876.4997	0.0553
876.6609	-0.8439
876.8221	0.3004
876.9833	0.0088
877.1445	0.0945
877.3056	-0.0844
877.4667	-0
877.6278	-0.4762
877.7889	-0
877.9499	-0
878.111	0.24
878.272	-0.6461
878.433	0.3299
878.5939	-0.1007
878.7549	-0
878.9158	-0.4096
879.0767	-0
879.2376	-0.6116
879.3984	-0.3275
879.5593	-0
879.7201	-0.348
879.8809	1.0149
880.0417	0.2704
880.2024	-0
880.3632	-0.0071
880.5239	-0.0247
880.6846	-0.2288
880.8452	0.4521
881.0059	-0
881.1665	0.3316
881.3271	-0
881.4877	-0.1858
881.6483	-1.6209
881.8088	0.181
881.9693	0.1504
882.1298	0.1504
882.2903	0.1504
