Data from D4ACN5uM480nmA_Absorbance_12-08-01-225.txt Node
Date: Fri Feb 21 12:08:01 GMT 2025
User: LASERRRRR
Spectrometer: FLMT03099
Trigger mode: 0
Integration Time (sec): 1.500000E-2
Scans to average: 1
Electric dark correction enabled: true
Nonlinearity correction enabled: false
Boxcar width: 0
XAxis mode: Wavelengths
Number of Pixels in Spectrum: 3648
>>>>>Begin Spectral Data<<<<<
179.3399	-0.0241
179.5586	-0.0241
179.7771	-0.0241
179.9957	-0.1218
180.2143	-0.421
180.4329	-0
180.6514	-0
180.8699	-0.1943
181.0885	0.1581
181.307	0.2757
181.5255	0.3092
181.744	-0
181.9625	0.0659
182.181	-0.1361
182.3994	-0
182.6179	-0
182.8363	-0
183.0547	-0.5482
183.2732	0.2839
183.4916	0.1961
183.71	0.137
183.9284	0.3199
184.1467	0.9981
184.3651	0.5584
184.5835	0.3895
184.8018	0.1911
185.0201	0.3764
185.2385	0.1469
185.4568	0.7587
185.6751	0.2541
185.8934	0.2274
186.1117	0.0568
186.3299	0.2239
186.5482	0.1257
186.7664	0.6118
186.9847	0.3657
187.2029	0.7251
187.4211	0.1423
187.6393	0.3766
187.8575	0.1767
188.0757	0.5068
188.2939	0.2385
188.512	0.1282
188.7302	0.2438
188.9483	0.5398
189.1665	0.5539
189.3846	0.1816
189.6027	0.1355
189.8208	0.2652
190.0389	0.32
190.257	0.4384
190.475	0.0513
190.6931	0.396
190.9111	0.4442
191.1292	0.1899
191.3472	0.2887
191.5652	0.3489
191.7832	0.3884
192.0012	0.342
192.2192	0.3556
192.4371	0.4855
192.6551	0.3024
192.873	0.4605
193.091	0.5875
193.3089	0.1314
193.5268	0.5659
193.7447	0.3694
193.9626	0.4409
194.1805	0.3535
194.3984	0.5206
194.6162	0.3519
194.8341	0.6998
195.0519	0.4891
195.2697	0.5869
195.4875	0.5387
195.7054	0.5555
195.9231	0.507
196.1409	0.7263
196.3587	0.5681
196.5765	0.5045
196.7942	0.6711
197.012	0.7384
197.2297	0.5298
197.4474	0.8116
197.6651	0.6121
197.8828	0.5993
198.1005	0.7
198.3182	0.5218
198.5358	0.5872
198.7535	0.6384
198.9711	0.6051
199.1888	0.67
199.4064	0.576
199.624	0.5989
199.8416	0.5416
200.0592	0.6851
200.2767	0.6667
200.4943	0.6107
200.7119	0.58
200.9294	0.5653
201.1469	0.6853
201.3645	0.6364
201.582	0.5429
201.7995	0.5347
202.017	0.5877
202.2344	0.5654
202.4519	0.5907
202.6694	0.5706
202.8868	0.5542
203.1042	0.5319
203.3217	0.5373
203.5391	0.5472
203.7565	0.4803
203.9739	0.5199
204.1913	0.5135
204.4086	0.539
204.626	0.5147
204.8433	0.5077
205.0607	0.4769
205.278	0.5256
205.4953	0.4622
205.7126	0.4658
205.9299	0.4753
206.1472	0.447
206.3644	0.4578
206.5817	0.4933
206.7989	0.4551
207.0162	0.4447
207.2334	0.4263
207.4506	0.4484
207.6678	0.4418
207.885	0.4573
208.1022	0.4553
208.3194	0.448
208.5365	0.4674
208.7537	0.4451
208.9708	0.455
209.1879	0.424
209.405	0.4643
209.6222	0.4106
209.8392	0.3969
210.0563	0.4226
210.2734	0.3975
210.4905	0.3884
210.7075	0.4387
210.9245	0.4268
211.1416	0.3875
211.3586	0.4204
211.5756	0.4223
211.7926	0.4167
212.0096	0.4315
212.2265	0.4295
212.4435	0.4206
212.6604	0.4185
212.8774	0.4143
213.0943	0.3967
213.3112	0.377
213.5281	0.4213
213.745	0.3876
213.9619	0.3821
214.1788	0.4066
214.3956	0.4232
214.6125	0.4138
214.8293	0.4291
215.0461	0.4073
215.2629	0.4217
215.4798	0.3858
215.6965	0.4013
215.9133	0.4265
216.1301	0.4026
216.3469	0.3946
216.5636	0.4171
216.7803	0.3976
216.9971	0.4079
217.2138	0.4039
217.4305	0.408
217.6472	0.4263
217.8639	0.4086
218.0805	0.404
218.2972	0.4112
218.5138	0.4015
218.7305	0.3913
218.9471	0.3855
219.1637	0.4009
219.3803	0.4249
219.5969	0.4227
219.8135	0.4184
220.0301	0.4261
220.2466	0.4267
220.4632	0.423
220.6797	0.4233
220.8962	0.4273
221.1127	0.4159
221.3292	0.4392
221.5457	0.4141
221.7622	0.4366
221.9787	0.4445
222.1951	0.4316
222.4116	0.4467
222.628	0.4423
222.8444	0.4277
223.0608	0.4286
223.2772	0.4268
223.4936	0.438
223.71	0.4508
223.9264	0.4406
224.1427	0.4431
224.3591	0.4494
224.5754	0.4703
224.7917	0.4661
225.008	0.4513
225.2243	0.4587
225.4406	0.4627
225.6569	0.4601
225.8732	0.4649
226.0894	0.4772
226.3057	0.4504
226.5219	0.4758
226.7381	0.4662
226.9543	0.4818
227.1705	0.4743
227.3867	0.4801
227.6029	0.4847
227.8191	0.4859
228.0352	0.4991
228.2513	0.501
228.4675	0.4883
228.6836	0.4901
228.8997	0.4924
229.1158	0.4821
229.3319	0.479
229.548	0.49
229.764	0.5068
229.9801	0.5088
230.1961	0.4948
230.4121	0.507
230.6282	0.5074
230.8442	0.5036
231.0602	0.5048
231.2761	0.5167
231.4921	0.5167
231.7081	0.5149
231.924	0.5165
232.14	0.521
232.3559	0.5263
232.5718	0.535
232.7877	0.5357
233.0036	0.5167
233.2195	0.5349
233.4353	0.531
233.6512	0.5418
233.867	0.529
234.0829	0.5259
234.2987	0.5364
234.5145	0.5318
234.7303	0.5404
234.9461	0.5422
235.1619	0.5359
235.3776	0.5233
235.5934	0.5309
235.8091	0.538
236.0249	0.5365
236.2406	0.5448
236.4563	0.5356
236.672	0.5317
236.8877	0.5316
237.1034	0.521
237.319	0.5328
237.5347	0.5306
237.7503	0.5327
237.966	0.5331
238.1816	0.5285
238.3972	0.5285
238.6128	0.5358
238.8284	0.5442
239.0439	0.5352
239.2595	0.529
239.475	0.5342
239.6906	0.5305
239.9061	0.5308
240.1216	0.5375
240.3371	0.5194
240.5526	0.501
240.7681	0.5324
240.9836	0.5104
241.199	0.514
241.4145	0.5085
241.6299	0.5022
241.8453	0.487
242.0607	0.4899
242.2761	0.4833
242.4915	0.4652
242.7069	0.4637
242.9223	0.4724
243.1376	0.4568
243.353	0.446
243.5683	0.4411
243.7836	0.4247
243.9989	0.4241
244.2142	0.4148
244.4295	0.4111
244.6448	0.3954
244.86	0.394
245.0753	0.3831
245.2905	0.3743
245.5057	0.3728
245.721	0.3518
245.9362	0.3471
246.1514	0.3407
246.3665	0.3447
246.5817	0.3338
246.7969	0.3262
247.012	0.3268
247.2271	0.3105
247.4423	0.3074
247.6574	0.3083
247.8725	0.3027
248.0876	0.2939
248.3026	0.2872
248.5177	0.2781
248.7328	0.2876
248.9478	0.2639
249.1628	0.2689
249.3779	0.2689
249.5929	0.2615
249.8079	0.2555
250.0228	0.2493
250.2378	0.2463
250.4528	0.2484
250.6677	0.2415
250.8827	0.2375
251.0976	0.2458
251.3125	0.236
251.5274	0.2344
251.7423	0.2292
251.9572	0.2211
252.172	0.2186
252.3869	0.2173
252.6017	0.2163
252.8166	0.2199
253.0314	0.2166
253.2462	0.2158
253.461	0.2131
253.6758	0.2114
253.8906	0.2078
254.1053	0.2051
254.3201	0.1988
254.5348	0.2034
254.7496	0.2027
254.9643	0.2008
255.179	0.2111
255.3937	0.198
255.6083	0.2034
255.823	0.1951
256.0377	0.203
256.2523	0.1948
256.467	0.1987
256.6816	0.2027
256.8962	0.1943
257.1108	0.1974
257.3254	0.192
257.54	0.192
257.7545	0.1868
257.9691	0.1919
258.1836	0.1886
258.3981	0.1879
258.6127	0.1844
258.8272	0.1861
259.0417	0.1794
259.2561	0.1855
259.4706	0.187
259.6851	0.1878
259.8995	0.1787
260.114	0.184
260.3284	0.1828
260.5428	0.179
260.7572	0.1887
260.9716	0.1856
261.186	0.1811
261.4003	0.1839
261.6147	0.1785
261.829	0.1806
262.0433	0.1836
262.2577	0.1924
262.472	0.1878
262.6863	0.1849
262.9005	0.1862
263.1148	0.1797
263.3291	0.1855
263.5433	0.1863
263.7576	0.1832
263.9718	0.1844
264.186	0.1858
264.4002	0.1841
264.6144	0.1865
264.8286	0.1921
265.0427	0.1916
265.2569	0.1872
265.471	0.1915
265.6851	0.1843
265.8993	0.1869
266.1134	0.1893
266.3275	0.1863
266.5415	0.1855
266.7556	0.1827
266.9697	0.1854
267.1837	0.1818
267.3978	0.1955
267.6118	0.1892
267.8258	0.1883
268.0398	0.1852
268.2538	0.183
268.4677	0.181
268.6817	0.1771
268.8957	0.179
269.1096	0.1756
269.3235	0.1835
269.5374	0.1771
269.7514	0.1832
269.9652	0.1811
270.1791	0.1788
270.393	0.1853
270.6068	0.178
270.8207	0.1753
271.0345	0.1714
271.2483	0.1746
271.4622	0.177
271.676	0.1733
271.8897	0.1709
272.1035	0.1709
272.3173	0.1668
272.531	0.1768
272.7448	0.171
272.9585	0.1755
273.1722	0.1723
273.3859	0.1729
273.5996	0.1726
273.8133	0.1707
274.0269	0.1829
274.2406	0.1704
274.4542	0.1694
274.6679	0.1768
274.8815	0.1763
275.0951	0.1762
275.3087	0.1795
275.5223	0.1714
275.7358	0.1749
275.9494	0.1735
276.1629	0.1743
276.3765	0.1708
276.59	0.177
276.8035	0.1833
277.017	0.1783
277.2305	0.1743
277.444	0.1754
277.6574	0.1782
277.8709	0.1812
278.0843	0.1744
278.2978	0.1835
278.5112	0.1866
278.7246	0.1843
278.938	0.1779
279.1513	0.1889
279.3647	0.178
279.5781	0.1751
279.7914	0.1782
280.0047	0.1773
280.2181	0.1817
280.4314	0.1822
280.6447	0.1823
280.8579	0.1795
281.0712	0.1829
281.2845	0.1845
281.4977	0.1879
281.711	0.1788
281.9242	0.1799
282.1374	0.1869
282.3506	0.1848
282.5638	0.1838
282.7769	0.1868
282.9901	0.1855
283.2033	0.1853
283.4164	0.1819
283.6295	0.18
283.8426	0.185
284.0557	0.1822
284.2688	0.1933
284.4819	0.188
284.695	0.1884
284.908	0.1898
285.1211	0.1947
285.3341	0.1938
285.5471	0.1907
285.7601	0.1957
285.9731	0.1932
286.1861	0.1884
286.3991	0.1872
286.612	0.1938
286.825	0.1983
287.0379	0.1954
287.2508	0.1989
287.4637	0.1951
287.6766	0.2014
287.8895	0.1959
288.1024	0.2002
288.3152	0.1963
288.5281	0.1965
288.7409	0.1986
288.9538	0.1953
289.1666	0.1966
289.3794	0.2043
289.5922	0.1996
289.8049	0.1993
290.0177	0.202
290.2304	0.1971
290.4432	0.1976
290.6559	0.1851
290.8686	0.2029
291.0813	0.2014
291.294	0.2018
291.5067	0.2016
291.7194	0.2027
291.932	0.1987
292.1447	0.2018
292.3573	0.201
292.5699	0.2063
292.7825	0.2045
292.9951	0.2025
293.2077	0.1977
293.4203	0.2005
293.6328	0.1994
293.8454	0.1952
294.0579	0.1995
294.2704	0.203
294.4829	0.1956
294.6954	0.1987
294.9079	0.2054
295.1204	0.2017
295.3328	0.2018
295.5453	0.1971
295.7577	0.1948
295.9701	0.2003
296.1825	0.1958
296.3949	0.1998
296.6073	0.2086
296.8197	0.2003
297.0321	0.2047
297.2444	0.1962
297.4567	0.2025
297.6691	0.1975
297.8814	0.1947
298.0937	0.2016
298.306	0.2044
298.5182	0.2049
298.7305	0.1928
298.9428	0.2004
299.155	0.196
299.3672	0.2023
299.5794	0.1947
299.7916	0.2025
300.0038	0.1997
300.216	0.202
300.4282	0.1945
300.6403	0.1944
300.8525	0.1973
301.0646	0.1898
301.2767	0.1989
301.4888	0.1935
301.7009	0.1962
301.913	0.2047
302.125	0.1965
302.3371	0.1965
302.5491	0.1966
302.7612	0.1958
302.9732	0.1925
303.1852	0.1974
303.3972	0.1977
303.6092	0.1946
303.8211	0.1878
304.0331	0.1889
304.245	0.1978
304.457	0.1967
304.6689	0.1918
304.8808	0.1923
305.0927	0.1939
305.3046	0.182
305.5164	0.1859
305.7283	0.1907
305.9401	0.1882
306.152	0.1837
306.3638	0.1753
306.5756	0.1794
306.7874	0.1766
306.9992	0.1763
307.2109	0.1758
307.4227	0.1708
307.6344	0.1768
307.8462	0.1675
308.0579	0.175
308.2696	0.1658
308.4813	0.158
308.693	0.1637
308.9046	0.1588
309.1163	0.1607
309.328	0.1556
309.5396	0.1609
309.7512	0.155
309.9628	0.1578
310.1744	0.1567
310.386	0.1483
310.5976	0.1434
310.8091	0.1449
311.0207	0.1529
311.2322	0.1475
311.4437	0.1443
311.6552	0.1433
311.8667	0.1401
312.0782	0.1474
312.2897	0.1414
312.5012	0.1413
312.7126	0.1313
312.924	0.1392
313.1355	0.1293
313.3469	0.1278
313.5583	0.1271
313.7696	0.1268
313.981	0.1273
314.1924	0.1283
314.4037	0.1245
314.6151	0.1302
314.8264	0.1336
315.0377	0.1328
315.249	0.1179
315.4603	0.1206
315.6716	0.122
315.8828	0.1207
316.0941	0.117
316.3053	0.1179
316.5165	0.12
316.7277	0.1225
316.9389	0.124
317.1501	0.1196
317.3613	0.1154
317.5724	0.1224
317.7836	0.1217
317.9947	0.1208
318.2058	0.1198
318.417	0.117
318.6281	0.1131
318.8391	0.1195
319.0502	0.1188
319.2613	0.1159
319.4723	0.1169
319.6834	0.1174
319.8944	0.1188
320.1054	0.1152
320.3164	0.1132
320.5274	0.1082
320.7383	0.115
320.9493	0.1161
321.1602	0.1138
321.3712	0.1192
321.5821	0.1185
321.793	0.1171
322.0039	0.1188
322.2148	0.1157
322.4257	0.1183
322.6365	0.1131
322.8474	0.1204
323.0582	0.1164
323.269	0.1101
323.4798	0.1149
323.6906	0.1224
323.9014	0.1092
324.1122	0.1049
324.3229	0.1202
324.5337	0.1206
324.7444	0.1175
324.9551	0.1221
325.1658	0.1137
325.3765	0.1192
325.5872	0.1137
325.7979	0.1115
326.0085	0.1207
326.2192	0.1118
326.4298	0.118
326.6404	0.1188
326.851	0.1195
327.0616	0.1255
327.2722	0.1241
327.4828	0.1173
327.6933	0.1226
327.9039	0.1226
328.1144	0.1189
328.3249	0.1253
328.5354	0.1182
328.7459	0.1197
328.9564	0.1275
329.1669	0.1179
329.3773	0.1267
329.5878	0.1205
329.7982	0.125
330.0086	0.1257
330.219	0.1237
330.4294	0.128
330.6398	0.1272
330.8502	0.123
331.0605	0.1198
331.2708	0.1221
331.4812	0.1202
331.6915	0.1222
331.9018	0.1234
332.1121	0.1263
332.3224	0.1275
332.5326	0.1265
332.7429	0.117
332.9531	0.1269
333.1633	0.1256
333.3735	0.1238
333.5837	0.1281
333.7939	0.1244
334.0041	0.1251
334.2143	0.1229
334.4244	0.1241
334.6346	0.1177
334.8447	0.1308
335.0548	0.1221
335.2649	0.1258
335.475	0.124
335.685	0.1307
335.8951	0.1328
336.1051	0.1244
336.3152	0.1247
336.5252	0.1291
336.7352	0.1233
336.9452	0.1293
337.1552	0.1325
337.3652	0.1268
337.5751	0.1254
337.7851	0.1265
337.995	0.1315
338.2049	0.1363
338.4148	0.1345
338.6247	0.13
338.8346	0.1208
339.0445	0.1307
339.2543	0.1332
339.4642	0.1353
339.674	0.1348
339.8838	0.1336
340.0936	0.1337
340.3034	0.1365
340.5132	0.1262
340.7229	0.1368
340.9327	0.1347
341.1424	0.1374
341.3522	0.1402
341.5619	0.1381
341.7716	0.1377
341.9813	0.1429
342.1909	0.1364
342.4006	0.1388
342.6102	0.1409
342.8199	0.139
343.0295	0.1394
343.2391	0.1409
343.4487	0.1399
343.6583	0.1527
343.8679	0.1432
344.0774	0.1424
344.287	0.1426
344.4965	0.1429
344.706	0.1495
344.9155	0.1374
345.125	0.1487
345.3345	0.1429
345.544	0.1554
345.7534	0.1484
345.9629	0.1496
346.1723	0.1421
346.3817	0.1532
346.5911	0.1531
346.8005	0.1459
347.0099	0.1537
347.2193	0.153
347.4286	0.1513
347.638	0.1544
347.8473	0.1548
348.0566	0.1604
348.2659	0.1558
348.4752	0.1576
348.6845	0.1595
348.8937	0.1589
349.103	0.1493
349.3122	0.1576
349.5214	0.1605
349.7306	0.1607
349.9398	0.1622
350.149	0.1662
350.3582	0.1642
350.5674	0.1666
350.7765	0.1675
350.9856	0.1618
351.1948	0.1672
351.4039	0.1642
351.613	0.1788
351.822	0.1761
352.0311	0.1651
352.2402	0.1741
352.4492	0.1663
352.6582	0.1734
352.8672	0.1733
353.0762	0.1708
353.2852	0.1692
353.4942	0.1752
353.7032	0.1706
353.9121	0.1755
354.1211	0.17
354.33	0.1772
354.5389	0.1855
354.7478	0.1706
354.9567	0.1773
355.1655	0.1792
355.3744	0.1751
355.5833	0.1807
355.7921	0.1777
356.0009	0.1818
356.2097	0.1854
356.4185	0.1898
356.6273	0.1778
356.8361	0.1949
357.0448	0.1903
357.2536	0.1866
357.4623	0.1847
357.671	0.1872
357.8797	0.1951
358.0884	0.1929
358.2971	0.1962
358.5057	0.1888
358.7144	0.1968
358.923	0.1913
359.1316	0.1941
359.3402	0.1886
359.5488	0.1977
359.7574	0.1904
359.966	0.2135
360.1746	0.1972
360.3831	0.2065
360.5916	0.2008
360.8002	0.2049
361.0087	0.2179
361.2172	0.2097
361.4256	0.2065
361.6341	0.2157
361.8426	0.2091
362.051	0.2172
362.2594	0.2127
362.4678	0.2187
362.6762	0.2154
362.8846	0.2212
363.093	0.2168
363.3014	0.2226
363.5097	0.2195
363.718	0.2268
363.9264	0.2241
364.1347	0.2314
364.343	0.2336
364.5513	0.2249
364.7595	0.23
364.9678	0.2337
365.176	0.2283
365.3842	0.2325
365.5925	0.2315
365.8007	0.238
366.0089	0.231
366.217	0.2318
366.4252	0.2309
366.6333	0.2316
366.8415	0.2339
367.0496	0.2303
367.2577	0.2422
367.4658	0.2446
367.6739	0.2419
367.882	0.2442
368.09	0.2401
368.2981	0.2497
368.5061	0.2406
368.7141	0.2551
368.9221	0.2511
369.1301	0.2514
369.3381	0.2558
369.5461	0.2559
369.754	0.2487
369.962	0.2564
370.1699	0.2541
370.3778	0.2531
370.5857	0.2563
370.7936	0.2593
371.0015	0.255
371.2093	0.2562
371.4172	0.2634
371.625	0.2613
371.8328	0.2722
372.0406	0.2667
372.2484	0.2644
372.4562	0.2615
372.664	0.2686
372.8717	0.2721
373.0795	0.2703
373.2872	0.2654
373.4949	0.2742
373.7026	0.2824
373.9103	0.2796
374.118	0.2726
374.3256	0.2834
374.5333	0.2782
374.7409	0.27
374.9485	0.2703
375.1561	0.2776
375.3637	0.2741
375.5713	0.2827
375.7789	0.2667
375.9864	0.276
376.194	0.2863
376.4015	0.2839
376.609	0.2811
376.8165	0.2828
377.024	0.2837
377.2315	0.2963
377.4389	0.2734
377.6464	0.2879
377.8538	0.283
378.0612	0.2839
378.2686	0.2963
378.476	0.2794
378.6834	0.2913
378.8908	0.2924
379.0981	0.3013
379.3055	0.3082
379.5128	0.2989
379.7201	0.2895
379.9274	0.29
380.1347	0.306
380.342	0.3022
380.5492	0.3009
380.7565	0.3056
380.9637	0.2994
381.1709	0.2974
381.3781	0.2983
381.5853	0.3001
381.7925	0.3149
381.9997	0.3108
382.2068	0.3
382.4139	0.306
382.6211	0.312
382.8282	0.3076
383.0353	0.306
383.2424	0.3128
383.4494	0.3167
383.6565	0.3078
383.8635	0.3258
384.0706	0.3125
384.2776	0.3071
384.4846	0.3076
384.6916	0.3081
384.8986	0.3172
385.1055	0.3153
385.3125	0.3128
385.5194	0.3177
385.7263	0.3136
385.9333	0.3129
386.1402	0.3123
386.347	0.3186
386.5539	0.3165
386.7608	0.3155
386.9676	0.3125
387.1744	0.3109
387.3813	0.3156
387.5881	0.3143
387.7948	0.3096
388.0016	0.3255
388.2084	0.311
388.4151	0.3126
388.6219	0.31
388.8286	0.3137
389.0353	0.3098
389.242	0.3007
389.4487	0.3022
389.6553	0.3166
389.862	0.3126
390.0686	0.3072
390.2753	0.3013
390.4819	0.3164
390.6885	0.2952
390.8951	0.3068
391.1016	0.3076
391.3082	0.2999
391.5147	0.2944
391.7213	0.2989
391.9278	0.2938
392.1343	0.2936
392.3408	0.2904
392.5473	0.292
392.7537	0.2874
392.9602	0.2849
393.1666	0.2984
393.373	0.2822
393.5794	0.2913
393.7858	0.2882
393.9922	0.2894
394.1986	0.2876
394.4049	0.2811
394.6113	0.2924
394.8176	0.2764
395.0239	0.2714
395.2302	0.2725
395.4365	0.2812
395.6428	0.2759
395.8491	0.2701
396.0553	0.27
396.2615	0.2721
396.4678	0.2723
396.674	0.2695
396.8802	0.2703
397.0863	0.2673
397.2925	0.2652
397.4987	0.2628
397.7048	0.2763
397.9109	0.2712
398.117	0.2701
398.3231	0.2848
398.5292	0.2639
398.7353	0.262
398.9413	0.2706
399.1474	0.2772
399.3534	0.2729
399.5594	0.2702
399.7654	0.2664
399.9714	0.2627
400.1774	0.268
400.3833	0.2776
400.5893	0.2629
400.7952	0.2702
401.0011	0.2576
401.207	0.2703
401.4129	0.2716
401.6188	0.2673
401.8247	0.2682
402.0305	0.2647
402.2364	0.2629
402.4422	0.2709
402.648	0.2739
402.8538	0.2725
403.0596	0.2618
403.2654	0.2576
403.4711	0.2633
403.6768	0.2775
403.8826	0.2696
404.0883	0.2557
404.294	0.2713
404.4997	0.2582
404.7054	0.2569
404.911	0.2593
405.1167	0.266
405.3223	0.2743
405.5279	0.2616
405.7335	0.2547
405.9391	0.2706
406.1447	0.2631
406.3502	0.2758
406.5558	0.2774
406.7613	0.2665
406.9668	0.2623
407.1724	0.275
407.3778	0.2576
407.5833	0.2694
407.7888	0.2703
407.9942	0.2631
408.1997	0.2719
408.4051	0.2676
408.6105	0.2719
408.8159	0.2741
409.0213	0.2656
409.2267	0.2619
409.432	0.2709
409.6374	0.2727
409.8427	0.2753
410.048	0.2628
410.2533	0.2617
410.4586	0.2601
410.6639	0.261
410.8691	0.2729
411.0744	0.2613
411.2796	0.2699
411.4848	0.2615
411.69	0.2639
411.8952	0.2662
412.1004	0.2656
412.3056	0.2624
412.5107	0.2645
412.7158	0.2677
412.921	0.2564
413.1261	0.2718
413.3312	0.2663
413.5362	0.2571
413.7413	0.2619
413.9464	0.2565
414.1514	0.2601
414.3564	0.2685
414.5614	0.2627
414.7664	0.2629
414.9714	0.2753
415.1764	0.2579
415.3813	0.2605
415.5863	0.2536
415.7912	0.265
415.9961	0.2599
416.201	0.2568
416.4059	0.2522
416.6108	0.2654
416.8156	0.2486
417.0205	0.2595
417.2253	0.2623
417.4301	0.2702
417.6349	0.2554
417.8397	0.2748
418.0445	0.2587
418.2492	0.2525
418.454	0.2517
418.6587	0.2543
418.8634	0.2502
419.0681	0.2497
419.2728	0.2475
419.4775	0.2576
419.6822	0.2493
419.8868	0.2629
420.0915	0.2619
420.2961	0.2484
420.5007	0.2437
420.7053	0.255
420.9099	0.2445
421.1144	0.2421
421.319	0.2417
421.5235	0.2322
421.728	0.2478
421.9325	0.2537
422.137	0.2429
422.3415	0.2312
422.546	0.2445
422.7504	0.2351
422.9549	0.2345
423.1593	0.2393
423.3637	0.2331
423.5681	0.2439
423.7725	0.2398
423.9769	0.2397
424.1812	0.2446
424.3856	0.2388
424.5899	0.2323
424.7942	0.219
424.9985	0.2279
425.2028	0.2353
425.4071	0.2151
425.6113	0.226
425.8156	0.2204
426.0198	0.226
426.224	0.2285
426.4282	0.2259
426.6324	0.2176
426.8366	0.2267
427.0407	0.217
427.2449	0.2189
427.449	0.2246
427.6531	0.225
427.8572	0.2095
428.0613	0.2118
428.2654	0.2097
428.4694	0.2062
428.6735	0.2158
428.8775	0.2132
429.0815	0.2215
429.2855	0.1952
429.4895	0.1967
429.6935	0.1972
429.8975	0.2099
430.1014	0.199
430.3053	0.1873
430.5093	0.196
430.7132	0.1959
430.9171	0.1897
431.1209	0.1899
431.3248	0.1921
431.5286	0.1796
431.7325	0.1956
431.9363	0.1786
432.1401	0.1804
432.3439	0.1747
432.5477	0.1861
432.7514	0.1734
432.9552	0.1842
433.1589	0.1728
433.3627	0.1744
433.5664	0.1654
433.7701	0.1673
433.9737	0.1625
434.1774	0.1776
434.3811	0.1698
434.5847	0.1665
434.7883	0.1568
434.9919	0.1536
435.1955	0.1579
435.3991	0.1589
435.6027	0.1588
435.8062	0.155
436.0098	0.1528
436.2133	0.1592
436.4168	0.1367
436.6203	0.1408
436.8238	0.1461
437.0272	0.1419
437.2307	0.1328
437.4341	0.1413
437.6375	0.1298
437.841	0.1298
438.0443	0.132
438.2477	0.1237
438.4511	0.1348
438.6545	0.1261
438.8578	0.1252
439.0611	0.1249
439.2644	0.1123
439.4677	0.1201
439.671	0.1112
439.8743	0.1176
440.0775	0.1147
440.2808	0.1173
440.484	0.1055
440.6872	0.1051
440.8904	0.1059
441.0936	0.1135
441.2967	0.095
441.4999	0.1119
441.703	0.1011
441.9062	0.1018
442.1093	0.0988
442.3124	0.103
442.5155	0.0953
442.7185	0.0848
442.9216	0.0895
443.1246	0.0905
443.3276	0.0823
443.5307	0.0846
443.7337	0.0836
443.9366	0.0837
444.1396	0.0806
444.3426	0.0836
444.5455	0.0786
444.7484	0.0763
444.9513	0.0799
445.1542	0.0787
445.3571	0.0649
445.56	0.0775
445.7628	0.0665
445.9657	0.0723
446.1685	0.0725
446.3713	0.0706
446.5741	0.0616
446.7769	0.0694
446.9797	0.0658
447.1824	0.0675
447.3852	0.0547
447.5879	0.0652
447.7906	0.0641
447.9933	0.0731
448.196	0.0518
448.3986	0.0577
448.6013	0.0523
448.8039	0.0572
449.0066	0.0594
449.2092	0.0496
449.4118	0.0543
449.6143	0.0478
449.8169	0.0525
450.0195	0.0485
450.222	0.0503
450.4245	0.0571
450.627	0.0421
450.8295	0.0348
451.032	0.0419
451.2345	0.0462
451.4369	0.0438
451.6394	0.0471
451.8418	0.0459
452.0442	0.0449
452.2466	0.0451
452.449	0.0317
452.6513	0.0366
452.8537	0.0444
453.056	0.0469
453.2583	0.0411
453.4607	0.0322
453.663	0.0289
453.8652	0.0293
454.0675	0.0376
454.2697	0.03
454.472	0.0291
454.6742	0.0263
454.8764	0.0307
455.0786	0.0275
455.2808	0.0316
455.4829	0.0213
455.6851	0.0231
455.8872	0.0307
456.0893	0.0256
456.2915	0.0231
456.4935	0.0125
456.6956	0.0191
456.8977	0.0277
457.0997	0.0314
457.3018	0.026
457.5038	0.0213
457.7058	0.0196
457.9078	0.0215
458.1098	0.0201
458.3117	0.0205
458.5137	0.0262
458.7156	0.0209
458.9175	0.0128
459.1194	0.0303
459.3213	0.0127
459.5232	0.0153
459.725	0.0235
459.9269	0.0123
460.1287	0.0119
460.3305	0.0067
460.5323	0.0224
460.7341	0.0183
460.9359	0.0217
461.1376	0.0172
461.3394	0.0138
461.5411	0.0064
461.7428	0.0115
461.9445	0.0097
462.1462	0.0073
462.3479	0.0145
462.5495	0.014
462.7512	0.0085
462.9528	0.0157
463.1544	-0.0029
463.356	0.0144
463.5576	0.0106
463.7592	0.003
463.9607	0.0174
464.1623	0.0112
464.3638	0.0116
464.5653	0.0198
464.7668	0.0035
464.9683	0.0111
465.1697	0.0145
465.3712	0.0028
465.5726	0.0078
465.7741	0.0061
465.9755	0.0118
466.1769	0.0089
466.3782	0.005
466.5796	0.0093
466.7809	0.0135
466.9823	0.0019
467.1836	0.0131
467.3849	0.0092
467.5862	-0.0089
467.7875	0.0145
467.9887	0.0093
468.19	0.0128
468.3912	0.0043
468.5924	0.0079
468.7936	-0.0024
468.9948	0.0164
469.196	0.0069
469.3972	0.0174
469.5983	0.0091
469.7994	0.0082
470.0006	0.0012
470.2017	0.0069
470.4027	-0.0011
470.6038	0.003
470.8049	0.0003
471.0059	0.003
471.2069	0.0098
471.408	0.0043
471.6089	0.0029
471.8099	0.008
472.0109	0.0011
472.2119	0.0134
472.4128	0.0152
472.6137	0.0078
472.8146	-0.0021
473.0155	0.0038
473.2164	-0.0049
473.4173	0.0139
473.6181	0.0073
473.819	0.0009
474.0198	0.0061
474.2206	0.0074
474.4214	0.0096
474.6222	0.0036
474.8229	0.0016
475.0237	0.0019
475.2244	0.0116
475.4251	-0.002
475.6258	0.0071
475.8265	-0.0041
476.0272	0.0029
476.2278	0.0052
476.4285	-0.0004
476.6291	0.0171
476.8297	-0.0024
477.0303	0.0046
477.2309	-0.0004
477.4315	0.0104
477.632	0.0015
477.8326	0.001
478.0331	-0.0004
478.2336	0.0055
478.4341	0.0059
478.6346	0.0041
478.8351	0.0123
479.0355	0.0055
479.236	0.0084
479.4364	-0.0007
479.6368	0.004
479.8372	0.0076
480.0376	0.0019
480.2379	0.004
480.4383	0.005
480.6386	0.0062
480.8389	0.0021
481.0392	0.0079
481.2395	0.0097
481.4398	0.0076
481.6401	0.0081
481.8403	-0.0035
482.0405	0.0065
482.2408	-0.0015
482.441	0.0045
482.6411	-0.003
482.8413	-0.0131
483.0415	0.0083
483.2416	0.0012
483.4417	0.0033
483.6419	-0.0001
483.8419	0.0044
484.042	-0.0051
484.2421	-0.0028
484.4422	0.01
484.6422	0.0073
484.8422	0.0021
485.0422	-0.0007
485.2422	0.0044
485.4422	0.0003
485.6422	0.0009
485.8421	0.0001
486.042	0.008
486.242	0.0026
486.4419	0.0068
486.6417	0.0009
486.8416	0.0035
487.0415	0.0022
487.2413	0.0019
487.4411	0.0027
487.641	0.0054
487.8408	0.0006
488.0405	-0.0001
488.2403	-0.0044
488.4401	0.0019
488.6398	0.0039
488.8395	0.0016
489.0392	0.0055
489.2389	-0.0029
489.4386	-0
489.6383	0.0046
489.8379	0.008
490.0376	0.009
490.2372	-0.0032
490.4368	0.0099
490.6364	0.0111
490.836	-0.0016
491.0355	0.0037
491.2351	0.0053
491.4346	0.0034
491.6341	0.0001
491.8336	-0.0011
492.0331	-0.0035
492.2326	-0.0055
492.432	0.0014
492.6315	-0.0051
492.8309	0.0052
493.0303	-0.0032
493.2297	-0.003
493.4291	-0.0038
493.6284	0.0059
493.8278	0.0113
494.0271	-0.0008
494.2264	0.0005
494.4257	0.0017
494.625	-0.0003
494.8243	0.0031
495.0236	0.0038
495.2228	-0.0041
495.422	0.0109
495.6213	-0.0025
495.8205	0.0005
496.0196	-0.0053
496.2188	0.004
496.418	0.0014
496.6171	0.0031
496.8162	0.0031
497.0153	0.0036
497.2144	-0.0013
497.4135	0.0055
497.6126	-0.0058
497.8116	0.0017
498.0107	-0.0134
498.2097	-0.0014
498.4087	0.0029
498.6077	0.0003
498.8067	0.0123
499.0056	0.0008
499.2046	0.0039
499.4035	0.0014
499.6024	-0.001
499.8013	-0.0021
500.0002	0.0066
500.199	-0.0035
500.3979	0.0078
500.5967	-0.0036
500.7956	-0.002
500.9944	0.0038
501.1932	0.002
501.3919	0.0078
501.5907	-0.002
501.7895	0.0006
501.9882	-0.0028
502.1869	0.0033
502.3856	0.0039
502.5843	-0.0001
502.783	0.0065
502.9816	-0.0027
503.1803	0.0077
503.3789	0.0017
503.5775	0.0004
503.7761	0.0094
503.9747	-0.0027
504.1732	0.0069
504.3718	-0.002
504.5703	-0.0005
504.7689	0.0067
504.9674	0.0013
505.1658	0.0056
505.3643	0.0035
505.5628	0.0098
505.7612	-0.0005
505.9597	0.0045
506.1581	-0.0105
506.3565	-0.0056
506.5549	-0.0029
506.7532	0.0068
506.9516	0.004
507.1499	0.0011
507.3482	0.0024
507.5465	-0.0078
507.7448	0.0078
507.9431	0.0009
508.1414	-0.0016
508.3396	0.0025
508.5379	-0.0005
508.7361	0.0068
508.9343	0.0047
509.1325	0.0077
509.3306	-0.0006
509.5288	0.0156
509.7269	0.0022
509.9251	-0.003
510.1232	-0.0047
510.3213	0.0029
510.5193	0.0013
510.7174	-0.01
510.9154	0.0036
511.1135	-0.0031
511.3115	0.002
511.5095	0.0084
511.7075	-0.0052
511.9055	0.0034
512.1034	0.0062
512.3014	-0.0048
512.4993	-0.0005
512.6972	0.0001
512.8951	0.0032
513.093	-0.0018
513.2908	0.0002
513.4887	0.01
513.6865	-0.0089
513.8844	0.0098
514.0822	0.0032
514.2799	-0.0036
514.4777	0.0064
514.6755	0.0022
514.8732	-0.0077
515.0709	0.0125
515.2687	-0.0025
515.4664	-0.0129
515.664	0.0055
515.8617	0.016
516.0594	0.0031
516.257	0.0061
516.4546	-0.0034
516.6522	-0.0013
516.8498	-0.0018
517.0474	-0.0006
517.2449	-0.0016
517.4425	-0.0008
517.64	-0.0015
517.8375	0.0056
518.035	-0.0014
518.2325	-0.0069
518.43	-0.003
518.6274	-0.006
518.8249	-0.003
519.0223	0.0015
519.2197	0.0037
519.4171	-0.0047
519.6145	0.0014
519.8118	0.0015
520.0092	-0.0021
520.2065	0.0061
520.4038	-0.0022
520.6011	0.015
520.7984	0.0057
520.9956	-0.0016
521.1929	-0.0018
521.3901	-0.0055
521.5874	-0.0039
521.7846	-0.0037
521.9818	-0.0038
522.1789	0.0166
522.3761	-0.0027
522.5732	-0.011
522.7704	0.0099
522.9675	-0.0034
523.1646	0.0134
523.3617	-0.0014
523.5587	-0.0006
523.7558	0.0043
523.9528	0.0046
524.1498	0.0013
524.3468	-0.0067
524.5438	-0.0034
524.7408	-0.0096
524.9378	0.0074
525.1347	-0.0012
525.3316	0.0091
525.5285	-0.0022
525.7254	0.0036
525.9223	-0.0042
526.1192	-0.0085
526.316	-0.0026
526.5129	0.0145
526.7097	-0.0045
526.9065	0.0074
527.1033	0.001
527.3	-0.0114
527.4968	-0.0141
527.6935	-0.0001
527.8903	0.0015
528.087	0.001
528.2837	0.0013
528.4804	0.0176
528.677	0.0106
528.8737	-0.0011
529.0703	0.0101
529.2669	0.0003
529.4635	0.0109
529.6601	0.0141
529.8567	0.0116
530.0532	0.0061
530.2498	-0.0031
530.4463	0.0086
530.6428	-0.0013
530.8393	0.006
531.0358	0.0021
531.2322	-0.0005
531.4287	0
531.6251	-0.0021
531.8215	-0.0099
532.0179	-0.0063
532.2143	0.0059
532.4107	-0.0053
532.607	0.0015
532.8034	0.002
532.9997	0.0022
533.196	0.0149
533.3923	0.0013
533.5886	-0.0062
533.7848	-0.0061
533.9811	-0.0027
534.1773	0.001
534.3735	0.0019
534.5697	-0.0015
534.7659	0.0019
534.9621	0.0166
535.1582	0.0051
535.3544	0.0083
535.5505	0.001
535.7466	-0.004
535.9427	-0.0035
536.1387	0.0011
536.3348	0.0111
536.5308	0.006
536.7269	-0.0073
536.9229	-0.0032
537.1189	0.0051
537.3148	-0.0099
537.5108	-0.0025
537.7068	0.0103
537.9027	0.0057
538.0986	-0.0095
538.2945	-0.0038
538.4904	-0.0043
538.6863	0.0145
538.8821	0.0029
539.078	-0.0012
539.2738	-0.0041
539.4696	0.0085
539.6654	0.004
539.8611	-0.0042
540.0569	0.0044
540.2526	-0.0066
540.4484	-0.012
540.6441	-0.0045
540.8398	-0.0065
541.0355	0.0004
541.2311	0.009
541.4268	-0.002
541.6224	0.0026
541.818	-0.0001
542.0136	-0.0039
542.2092	0.0023
542.4048	-0.0042
542.6003	-0.0018
542.7959	-0.0046
542.9914	0.018
543.1869	-0.0052
543.3824	0.0115
543.5779	0.0021
543.7734	-0.0069
543.9688	-0.0048
544.1642	-0.0027
544.3596	-0.0016
544.555	-0.0002
544.7504	-0.002
544.9458	0.0044
545.1411	0.0001
545.3365	0.0031
545.5318	-0.0044
545.7271	0.0036
545.9224	-0.0048
546.1177	0.0017
546.3129	-0.0114
546.5081	-0.0058
546.7034	-0.0012
546.8986	-0.0099
547.0938	-0.0012
547.289	0.0067
547.4841	-0.0009
547.6793	-0.0046
547.8744	-0.0064
548.0695	-0.0057
548.2646	-0.0015
548.4597	-0.0072
548.6548	0.0035
548.8498	0.0021
549.0448	0.0031
549.2399	-0.0067
549.4349	0.0063
549.6298	-0.0041
549.8248	0.0024
550.0198	0.0109
550.2147	-0.0035
550.4096	0.0023
550.6045	0.0006
550.7994	0.0032
550.9943	-0.0024
551.1892	-0.0138
551.384	0.0048
551.5788	0.0037
551.7737	0.0028
551.9685	-0.0023
552.1632	0.0058
552.358	-0.0049
552.5528	-0.0012
552.7475	0.0005
552.9422	-0.0004
553.1369	0.0075
553.3316	-0.0033
553.5263	-0.003
553.7209	-0.0075
553.9156	0.0103
554.1102	0.002
554.3048	0.002
554.4994	0.0013
554.694	-0.0003
554.8885	0.0016
555.0831	0.0046
555.2776	-0.0002
555.4721	-0.0169
555.6666	0.008
555.8611	-0.0088
556.0555	0.0101
556.25	-0.0024
556.4444	-0.0118
556.6388	0.0016
556.8332	0.0009
557.0276	0.0095
557.222	-0.0041
557.4163	-0.003
557.6107	-0.0014
557.805	-0.0078
557.9993	-0.0004
558.1936	0.0052
558.3879	-0.0085
558.5821	-0.0039
558.7764	0.0037
558.9706	0.0028
559.1648	0.0052
559.359	0.0087
559.5532	-0.0117
559.7473	0.0057
559.9415	0.0056
560.1356	-0.0008
560.3297	0.0084
560.5238	-0.0046
560.7179	-0.003
560.9119	0.0112
561.106	0.0004
561.3	-0.0075
561.494	0.0053
561.688	-0.0068
561.882	0.0024
562.076	-0.0006
562.2699	-0.0013
562.4639	0.0086
562.6578	0.0092
562.8517	-0.0044
563.0456	-0.0015
563.2395	-0.003
563.4333	-0.0075
563.6272	0.0086
563.821	0.0018
564.0148	-0.006
564.2086	0.0082
564.4024	0.0042
564.5961	0.0114
564.7899	-0.001
564.9836	0.0041
565.1773	0.0015
565.371	0.009
565.5647	0.0038
565.7584	0.006
565.952	-0.0099
566.1456	0.0006
566.3393	0.0103
566.5329	-0.0002
566.7264	0
566.92	-0.0048
567.1136	0.0008
567.3071	0.0021
567.5006	-0.0101
567.6941	0.0025
567.8876	-0.0036
568.0811	-0.005
568.2745	-0.002
568.468	0.004
568.6614	-0.0008
568.8548	-0.0006
569.0482	0.0021
569.2416	-0.0013
569.4349	0.0053
569.6283	0.0034
569.8216	-0.0016
570.0149	0.0002
570.2082	0.004
570.4015	0.0014
570.5947	0.0038
570.788	-0.0001
570.9812	-0.0007
571.1744	-0.003
571.3676	-0.0008
571.5608	0.0009
571.754	-0.0004
571.9471	0.0043
572.1402	0.0017
572.3333	0.0021
572.5264	0.0024
572.7195	0.0062
572.9126	0.0072
573.1057	-0.0015
573.2987	0.0041
573.4917	-0.0032
573.6847	-0.0017
573.8777	-0.0024
574.0707	-0.0008
574.2636	-0.0003
574.4566	0.0007
574.6495	0.0064
574.8424	0.0021
575.0353	-0.001
575.2281	-0.0049
575.421	0.0012
575.6138	-0.0008
575.8067	-0.0008
575.9995	0.0037
576.1923	0.0031
576.385	-0.0019
576.5778	-0.0038
576.7706	0.0023
576.9633	0.0024
577.156	0.0043
577.3487	-0.0019
577.5414	-0.0023
577.734	0.0012
577.9267	-0.0022
578.1193	0.0012
578.3119	-0.0002
578.5045	-0.0026
578.6971	-0.0033
578.8897	0.0007
579.0822	0.0051
579.2747	-0.0041
579.4673	-0.0022
579.6598	-0.0066
579.8522	0.0055
580.0447	-0.0019
580.2372	0.0054
580.4296	-0.0027
580.622	0.0002
580.8144	0.0009
581.0068	-0.0005
581.1992	0.0015
581.3915	-0.0014
581.5839	0.0014
581.7762	0.003
581.9685	-0.0034
582.1608	0.0025
582.353	-0.0033
582.5453	0.0008
582.7375	-0.0045
582.9298	-0.0007
583.122	-0.0026
583.3142	0.0018
583.5063	-0.0045
583.6985	-0.0002
583.8906	0.0005
584.0827	0.0009
584.2749	0.0011
584.4669	-0.0013
584.659	0.0002
584.8511	0.0001
585.0431	-0.0006
585.2352	-0.0069
585.4272	0.0001
585.6192	-0.0027
585.8111	-0.0085
586.0031	0.0013
586.195	0.0039
586.387	0.002
586.5789	0.0021
586.7708	0.0016
586.9627	0.0004
587.1545	0.0009
587.3464	0.0007
587.5382	0.0032
587.73	-0.0018
587.9218	-0.0034
588.1136	-0.0035
588.3053	0.0019
588.4971	-0.0021
588.6888	-0.001
588.8805	0.0002
589.0722	0.003
589.2639	-0.0058
589.4556	-0.004
589.6472	0.0008
589.8389	0.0001
590.0305	0.0018
590.2221	0.0022
590.4137	-0.004
590.6052	0.0014
590.7968	0.0066
590.9883	0.0071
591.1798	-0.004
591.3713	-0.0043
591.5628	-0.0074
591.7543	0.0051
591.9458	0.0009
592.1372	-0.0022
592.3286	-0.0005
592.52	-0.0015
592.7114	-0.0029
592.9028	-0.0022
593.0941	0.0028
593.2855	0.0019
593.4768	0.0048
593.6681	-0.0048
593.8594	-0.0036
594.0506	-0.0016
594.2419	-0.0052
594.4331	-0.0052
594.6244	0.002
594.8156	-0.0012
595.0067	-0.001
595.1979	-0.001
595.3891	-0.0039
595.5802	-0.0004
595.7713	0.0012
595.9624	-0.0042
596.1535	-0.0036
596.3446	-0.005
596.5357	0.0032
596.7267	-0.0004
596.9177	-0.0043
597.1087	0.0003
597.2997	0.0034
597.4907	-0.0005
597.6817	0.0023
597.8726	0.005
598.0635	-0.0003
598.2544	-0.005
598.4453	-0.0032
598.6362	-0.0039
598.827	-0.0018
599.0179	0.0003
599.2087	0.0025
599.3995	-0.003
599.5903	0.0026
599.7811	-0.0017
599.9718	0.0009
600.1626	-0.0011
600.3533	-0.0058
600.544	0.0021
600.7347	-0.0004
600.9254	0.0051
601.116	0.0021
601.3067	0.0018
601.4973	0.0057
601.6879	-0.0042
601.8785	0.0022
602.0691	0.0042
602.2596	-0.0009
602.4502	-0.0031
602.6407	0.0009
602.8312	0.0004
603.0217	0.0026
603.2122	0.0058
603.4027	-0.0023
603.5931	-0.001
603.7835	-0.0029
603.9739	0.0044
604.1643	-0.0004
604.3547	0.0004
604.5451	-0.0029
604.7354	-0.0011
604.9257	0.001
605.116	-0.0028
605.3063	-0.0016
605.4966	0.0074
605.6869	-0.0005
605.8771	0.0005
606.0673	-0.0063
606.2575	-0.0007
606.4477	0.0024
606.6379	-0.0049
606.8281	-0.0062
607.0182	-0.0038
607.2083	-0.0006
607.3985	0.0053
607.5885	-0.0034
607.7786	0.0004
607.9687	-0.0028
608.1587	-0.0013
608.3488	-0.0033
608.5388	-0.0007
608.7288	-0.0067
608.9187	0.0081
609.1087	-0.0023
609.2986	-0.004
609.4886	0.0046
609.6785	-0.0012
609.8684	-0.0017
610.0582	-0.0029
610.2481	-0.0068
610.4379	-0.0045
610.6278	0.0006
610.8176	-0.0008
611.0074	-0.0048
611.1971	0.0037
611.3869	-0.0017
611.5766	-0.0018
611.7664	0.0068
611.9561	-0.0004
612.1458	-0.0021
612.3354	0.0021
612.5251	-0.0015
612.7147	0.0016
612.9044	-0.0042
613.094	-0.0005
613.2836	0.0013
613.4731	0.002
613.6627	0.0049
613.8522	-0.0043
614.0417	0.0026
614.2313	-0.0098
614.4207	0.0018
614.6102	-0.0046
614.7997	0.0046
614.9891	-0.0019
615.1785	-0
615.3679	0.0021
615.5573	-0.0098
615.7467	-0.0044
615.9361	-0.0054
616.1254	0.0025
616.3147	0.0037
616.504	0
616.6933	0.002
616.8826	0.0079
617.0718	-0.0047
617.2611	-0.0056
617.4503	-0.0062
617.6395	-0.0059
617.8287	0.0086
618.0179	-0.0037
618.207	-0.0009
618.3961	0.0057
618.5853	-0.0109
618.7744	0.0006
618.9634	0.0065
619.1525	-0.0009
619.3416	-0.0126
619.5306	0.0032
619.7196	-0.0063
619.9086	0.006
620.0976	0.0027
620.2866	0.0004
620.4755	0.011
620.6645	0.0002
620.8534	-0.0147
621.0423	-0.011
621.2312	-0.0092
621.42	-0.0057
621.6089	-0.0007
621.7977	-0.0087
621.9865	0.0164
622.1753	0.0086
622.3641	-0.0135
622.5529	-0.005
622.7416	-0.0096
622.9303	0.004
623.1191	-0.0113
623.3078	0.0005
623.4964	-0.013
623.6851	0.0047
623.8737	0.0044
624.0624	-0.0033
624.251	0.0036
624.4396	0.0124
624.6282	0.0074
624.8167	0.0028
625.0053	-0.0001
625.1938	0.0011
625.3823	-0.0021
625.5708	0.0041
625.7593	-0.0068
625.9477	-0.0075
626.1362	-0.0117
626.3246	-0.0087
626.513	0.0079
626.7014	-0.0059
626.8898	0.0001
627.0781	0.0026
627.2665	0.0084
627.4548	-0.0003
627.6431	-0.007
627.8314	0.0034
628.0197	0.0157
628.2079	0.0128
628.3962	0.0012
628.5844	-0.0035
628.7726	-0.0045
628.9608	-0.0039
629.1489	-0.0066
629.3371	-0.0037
629.5252	0.0137
629.7134	0.0036
629.9015	-0.0038
630.0895	-0.0062
630.2776	-0.0068
630.4657	0.007
630.6537	0.0043
630.8417	-0.003
631.0297	-0.0055
631.2177	-0.0018
631.4057	0.0046
631.5936	-0.0025
631.7815	-0.0116
631.9695	0.0136
632.1574	-0.0009
632.3452	0.0033
632.5331	-0.0107
632.7209	0.0041
632.9088	-0.0146
633.0966	0.0225
633.2844	0.0059
633.4722	0.011
633.6599	-0.0163
633.8477	-0.0006
634.0354	0.0018
634.2231	0.0187
634.4108	0.0035
634.5985	-0.0051
634.7861	-0.0042
634.9738	0.0143
635.1614	0.0121
635.349	-0.0221
635.5366	0.0036
635.7242	-0.0058
635.9117	0.0089
636.0993	-0.0101
636.2868	-0.0018
636.4743	0.0138
636.6618	0.0002
636.8492	-0.0007
637.0367	-0.0012
637.2241	-0.0098
637.4115	0.0085
637.5989	0.0107
637.7863	-0.0085
637.9737	0.0006
638.161	-0.0003
638.3484	0.0118
638.5357	-0.0056
638.723	-0.0064
638.9103	-0.0108
639.0975	0.0061
639.2848	0.005
639.472	0.0056
639.6592	-0.0018
639.8464	0.0163
640.0336	0.0042
640.2208	-0.0161
640.4079	0.0123
640.595	-0.0119
640.7821	-0.0001
640.9692	0.0214
641.1563	0.006
641.3434	0.0323
641.5304	0.0046
641.7174	0.0043
641.9044	0.0017
642.0914	0.0023
642.2784	0.0052
642.4653	-0.0051
642.6523	0.0069
642.8392	0.0238
643.0261	-0.0073
643.213	0.0064
643.3999	-0.0079
643.5867	0.0093
643.7735	0.004
643.9604	-0.0259
644.1472	-0.0006
644.3339	-0.0015
644.5207	-0.0275
644.7075	-0.0159
644.8942	0.0287
645.0809	-0.0183
645.2676	-0.0006
645.4543	-0.0028
645.6409	-0.0069
645.8276	0.0022
646.0142	-0.0026
646.2008	-0.0029
646.3874	-0.006
646.574	-0.0226
646.7605	0.0007
646.9471	-0.004
647.1336	0.0077
647.3201	0.0059
647.5066	-0.0098
647.6931	-0.0081
647.8795	-0.002
648.0659	-0.0141
648.2524	-0.0028
648.4388	0.0093
648.6252	-0.0168
648.8115	0.0076
648.9979	-0.0006
649.1842	-0.026
649.3705	0.0087
649.5568	-0.014
649.7431	-0.0044
649.9294	0.0006
650.1156	-0.0114
650.3018	0.0033
650.488	0.0163
650.6742	0.0208
650.8604	-0.005
651.0466	-0.0026
651.2327	-0.0227
651.4188	-0.0065
651.6049	-0.011
651.791	-0.0015
651.9771	-0.0069
652.1632	0.0169
652.3492	0.007
652.5352	0.0048
652.7212	-0.0202
652.9072	0.0043
653.0932	0.0048
653.2791	-0.0122
653.465	-0.0023
653.651	0.0117
653.8369	0.0248
654.0227	-0.0064
654.2086	-0.0201
654.3944	-0.0112
654.5803	-0.0003
654.7661	0.0033
654.9519	-0.0046
655.1377	0.0001
655.3234	0.0001
655.5092	0.0001
655.6949	0.0001
655.8806	0.0001
656.0663	0.0001
656.2519	0.0001
656.4376	0.0001
656.6232	0.0001
656.8088	0.0001
656.9945	0.0001
657.18	0.0001
657.3656	0.0001
657.5511	0.0001
657.7367	0.0001
657.9222	0.0001
658.1077	0.0001
658.2932	0.0001
658.4786	0.0001
658.6641	0.0001
658.8495	0.0001
659.0349	0.0001
659.2203	0.0001
659.4057	0.0023
659.591	0.0311
659.7764	-0.0016
659.9617	-0.0079
660.147	0.0012
660.3323	-0.019
660.5176	0.0044
660.7028	-0.0077
660.888	0.0106
661.0733	0.0004
661.2585	0.0141
661.4436	0.0041
661.6288	-0.0159
661.8139	0.0154
661.9991	-0.0085
662.1842	0.0107
662.3693	0.0181
662.5544	0.0001
662.7394	0.0187
662.9245	-0.0034
663.1095	0.0082
663.2945	0.0166
663.4795	-0.0085
663.6644	0.0004
663.8494	-0.0025
664.0343	-0.0028
664.2193	0.0025
664.4042	-0.0376
664.589	-0.0115
664.7739	0.0006
664.9587	-0.0075
665.1436	0.0038
665.3284	0.0024
665.5132	-0.0097
665.698	0.0033
665.8827	-0.0211
666.0675	0.0085
666.2522	-0.0051
666.4369	-0.0232
666.6216	0.0169
666.8063	-0.0107
666.9909	0.0054
667.1756	-0.0031
667.3602	-0.0282
667.5448	0.0104
667.7294	0.0155
667.9139	-0.004
668.0985	-0.024
668.283	-0.0077
668.4675	-0.0076
668.652	-0.0218
668.8365	-0.0033
669.0209	-0.0316
669.2054	0.015
669.3898	0.0014
669.5742	0.0057
669.7586	-0.0008
669.943	-0.0201
670.1273	0.0289
670.3117	0.025
670.496	0.0216
670.6803	-0.0154
670.8646	0.0042
671.0488	-0.0115
671.2331	-0.0073
671.4173	0.0018
671.6015	-0.0087
671.7857	-0.0227
671.9699	0.0059
672.1541	-0.0056
672.3382	0.0045
672.5223	-0.0036
672.7064	-0.0031
672.8905	-0.0004
673.0746	-0.0004
673.2587	0.0064
673.4427	-0.0249
673.6267	-0.0277
673.8107	-0.009
673.9947	-0.0059
674.1787	-0.0017
674.3626	0.007
674.5465	0.0018
674.7304	-0.0223
674.9143	-0.0064
675.0982	-0.0052
675.2821	0.0033
675.4659	-0.0026
675.6497	0.0109
675.8335	0.015
676.0173	0.0189
676.2011	-0.0186
676.3849	-0.007
676.5686	-0.0012
676.7523	-0.0025
676.936	-0.0197
677.1197	0.0111
677.3034	0.0111
677.487	-0.0008
677.6706	0.0017
677.8542	0.0026
678.0378	0.0006
678.2214	0.0013
678.405	0.0003
678.5885	-0.0072
678.772	-0.0269
678.9555	0.0093
679.139	-0.0066
679.3225	-0.013
679.5059	-0.0089
679.6894	-0.0178
679.8728	-0.005
680.0562	0.0023
680.2395	-0.0025
680.4229	-0.0166
680.6062	0.0042
680.7896	0.0125
680.9729	-0.001
681.1562	-0.0129
681.3394	-0.0078
681.5227	-0.0202
681.7059	-0.004
681.8891	0.0268
682.0723	-0.0304
682.2555	0.0199
682.4387	-0.0002
682.6218	0.0101
682.805	0.0103
682.9881	-0.0001
683.1712	0.0163
683.3542	-0.0046
683.5373	0.0017
683.7203	-0.0071
683.9034	0.0019
684.0864	0.0077
684.2694	0.0061
684.4523	0.0013
684.6353	-0.0167
684.8182	0.008
685.0011	0.0138
685.184	-0.0078
685.3669	-0.0049
685.5498	0.013
685.7326	-0.0045
685.9154	-0.0023
686.0982	-0.0062
686.281	0.009
686.4638	0.0083
686.6465	0.0003
686.8293	-0.0061
687.012	-0.0163
687.1947	0.0113
687.3774	-0.0068
687.56	-0.0063
687.7427	-0.0007
687.9253	0.009
688.1079	0.0144
688.2905	-0.0002
688.4731	0.0063
688.6556	0.0028
688.8382	0.0152
689.0207	-0.0119
689.2032	-0.0142
689.3857	-0.0082
689.5681	-0.0219
689.7506	-0.0122
689.933	-0.0061
690.1154	-0.0013
690.2978	0.008
690.4802	-0.007
690.6626	-0.0053
690.8449	-0.0145
691.0272	-0.0246
691.2095	-0.0169
691.3918	-0.0049
691.5741	-0.0024
691.7563	0.0081
691.9386	-0.0125
692.1208	-0.012
692.303	-0.0091
692.4852	0.0018
692.6673	-0.0067
692.8495	-0.0058
693.0316	-0.0019
693.2137	0.0111
693.3958	0.0029
693.5778	-0.0147
693.7599	-0.0079
693.9419	0.0138
694.1239	0.0027
694.3059	-0.0142
694.4879	-0.0148
694.6699	0.0159
694.8518	0.016
695.0337	-0.0004
695.2157	-0.0078
695.3975	-0.0075
695.5794	-0.014
695.7613	0.0006
695.9431	-0.0141
696.1249	0.0102
696.3067	0.0049
696.4885	0.007
696.6703	-0.0086
696.852	-0.0108
697.0337	0.0079
697.2154	0.0082
697.3971	0.0193
697.5788	0.0213
697.7605	0.0025
697.9421	-0.0134
698.1237	0.012
698.3053	0.0259
698.4869	-0.0077
698.6685	0.0016
698.85	-0.0136
699.0315	0.0093
699.213	0.0066
699.3945	-0.0018
699.576	-0.0088
699.7575	-0.0374
699.9389	0.0054
700.1203	0.0014
700.3017	0.0019
700.4831	-0.0224
700.6645	0.0026
700.8458	0.0092
701.0271	-0.0023
701.2084	-0.0202
701.3897	0.0087
701.571	0.0311
701.7523	-0.0086
701.9335	0.0105
702.1147	-0.0104
702.2959	0.0317
702.4771	-0.0008
702.6583	-0.0172
702.8394	0.0031
703.0205	-0.0126
703.2016	-0.0013
703.3827	0.0203
703.5638	0.0076
703.7449	-0.0114
703.9259	-0.0035
704.1069	0.0245
704.2879	0.0125
704.4689	0.0117
704.6499	-0.0436
704.8308	-0.0239
705.0117	-0.0157
705.1927	-0.0138
705.3735	0.0022
705.5544	0.0007
705.7353	0.011
705.9161	0.0138
706.0969	0.0052
706.2777	0.0223
706.4585	0.0062
706.6393	0.0048
706.82	-0.0098
707.0007	-0.0071
707.1815	0.0169
707.3621	0.004
707.5428	0.0259
707.7235	0.0251
707.9041	-0.0118
708.0847	-0.0171
708.2653	-0.0088
708.4459	-0.0103
708.6265	-0.0193
708.807	-0.0128
708.9875	-0.0107
709.168	0.015
709.3485	-0.0189
709.529	0.0415
709.7095	-0.0278
709.8899	0.0128
710.0703	0.0018
710.2507	-0.0034
710.4311	-0.003
710.6115	0.018
710.7918	-0.0061
710.9721	-0.0172
711.1524	-0.0068
711.3327	0.0128
711.513	-0.0131
711.6932	-0.0322
711.8735	0.0277
712.0537	0.0131
712.2339	-0.0208
712.4141	0.0161
712.5942	-0.0231
712.7744	0.0036
712.9545	-0.0096
713.1346	0.0015
713.3147	0.0059
713.4947	-0.0077
713.6748	-0.0029
713.8548	-0.0024
714.0348	-0.0001
714.2148	0.0028
714.3948	0.0084
714.5748	-0.0141
714.7547	-0.0156
714.9346	0.0071
715.1145	-0.0022
715.2944	-0.0026
715.4743	0.0171
715.6541	-0.0306
715.834	-0.0025
716.0138	0.0204
716.1936	-0.0248
716.3733	0.0152
716.5531	-0.0145
716.7328	-0.0291
716.9126	-0.0151
717.0923	0.0187
717.2719	-0.003
717.4516	-0.0103
717.6312	-0.0192
717.8109	0.0216
717.9905	-0.0077
718.1701	-0.0167
718.3496	-0.0061
718.5292	-0.0095
718.7087	0.0152
718.8882	0.0074
719.0677	0.0117
719.2472	-0.0142
719.4267	0.0009
719.6061	-0.0148
719.7856	-0.0096
719.965	0.0125
720.1443	-0.0116
720.3237	0.0293
720.5031	0.0116
720.6824	-0.0153
720.8617	0.0198
721.041	-0.0193
721.2203	0.0159
721.3995	-0.0026
721.5788	0.0027
721.758	-0.0056
721.9372	-0.0063
722.1164	0.007
722.2956	0.0015
722.4747	0.0191
722.6538	-0.005
722.8329	-0.0383
723.012	0.0296
723.1911	0.0174
723.3702	-0.0296
723.5492	-0.0315
723.7282	0.0102
723.9072	-0.0191
724.0862	-0.012
724.2652	-0.0016
724.4441	-0.0022
724.623	-0.0145
724.8019	0.0075
724.9808	0.0173
725.1597	0.0076
725.3385	-0.0071
725.5174	0.0244
725.6962	0.0285
725.875	0.0084
726.0538	-0.0114
726.2325	-0.0119
726.4112	0.0362
726.59	-0.0266
726.7687	0.0166
726.9474	0.0053
727.126	0.0081
727.3047	-0.0033
727.4833	0.0318
727.6619	0.0131
727.8405	-0.0171
728.0191	-0.0307
728.1976	-0.0306
728.3762	-0.0261
728.5547	0.0016
728.7332	-0.0044
728.9116	-0.0415
729.0901	0.0122
729.2686	-0.0058
729.447	-0.0041
729.6254	0.0227
729.8038	-0.012
729.9821	0.0035
730.1605	-0.0051
730.3388	-0.0154
730.5171	-0.0131
730.6954	0.0162
730.8737	0.0191
731.0519	0.0095
731.2302	-0.023
731.4084	0.0188
731.5866	-0.01
731.7648	-0.0256
731.9429	-0.005
732.1211	-0.0032
732.2992	0.001
732.4773	-0.0084
732.6554	-0.0049
732.8335	0.0292
733.0115	-0.0128
733.1896	-0.0369
733.3676	-0.0092
733.5456	-0.007
733.7235	0.0185
733.9015	0.0022
734.0794	-0.0114
734.2574	0.0195
734.4353	-0.0126
734.6131	0.0032
734.791	0.0214
734.9689	-0.0041
735.1467	-0.013
735.3245	0.0143
735.5023	-0.0069
735.68	-0.0108
735.8578	-0.0046
736.0355	-0.0004
736.2132	-0.0226
736.3909	-0.0041
736.5686	0.004
736.7463	-0.0115
736.9239	-0.0138
737.1015	0.0048
737.2791	0.0154
737.4567	-0.0159
737.6343	0.0052
737.8118	0.0002
737.9894	0.0052
738.1669	0.0107
738.3444	0.0086
738.5218	0.0102
738.6993	-0.0138
738.8767	-0.0123
739.0541	0.0016
739.2315	-0.0047
739.4089	0.0074
739.5863	-0.0046
739.7636	0.0134
739.9409	0.002
740.1182	-0.0099
740.2955	-0.0571
740.4728	0.0089
740.65	-0.0307
740.8272	-0.0416
741.0044	0.0309
741.1816	-0.0111
741.3588	0.0059
741.5359	0.0214
741.7131	0.0414
741.8902	-0.0316
742.0673	0.0184
742.2444	-0.0213
742.4214	0.0112
742.5985	0.0166
742.7755	-0.0362
742.9525	0.0279
743.1295	-0.0222
743.3064	-0.0064
743.4834	0.0033
743.6603	0.009
743.8372	-0.0203
744.0141	0.0204
744.191	-0.018
744.3678	0.023
744.5446	0.0136
744.7215	-0.0122
744.8982	0.0206
745.075	0.0103
745.2518	-0.0143
745.4285	-0.0204
745.6052	0.0125
745.7819	-0.0148
745.9586	0.021
746.1353	-0.0043
746.3119	-0.0027
746.4885	0.0029
746.6651	-0.0405
746.8417	-0.0117
747.0183	-0.0155
747.1948	-0.0149
747.3714	0.0256
747.5479	-0.0008
747.7244	-0.0338
747.9008	0.017
748.0773	0.0014
748.2537	0.0422
748.4301	-0.0138
748.6065	-0.0367
748.7829	-0.0117
748.9593	-0.0025
749.1356	-0.0023
749.3119	-0.0005
749.4882	-0.0002
749.6645	0.0193
749.8408	-0.0215
750.017	-0.0195
750.1933	0.0369
750.3695	-0.0069
750.5457	-0.0165
750.7218	0.0211
750.898	-0.0305
751.0741	0.0069
751.2502	-0.0011
751.4263	0.0038
751.6024	0.0092
751.7784	-0.0251
751.9545	-0.0328
752.1305	0.02
752.3065	0.0126
752.4825	-0.0427
752.6584	-0.0018
752.8344	0.0016
753.0103	-0.0351
753.1862	-0.0133
753.3621	-0.0096
753.5379	-0.0129
753.7138	-0.0333
753.8896	0.0251
754.0654	0.0106
754.2412	0.0264
754.417	-0.0111
754.5927	0.003
754.7685	-0.0246
754.9442	-0.0024
755.1199	-0.0008
755.2956	0.0261
755.4712	-0.0168
755.6469	-0.0073
755.8225	0.0188
755.9981	-0.0064
756.1736	0.0053
756.3492	-0.0141
756.5248	0.0041
756.7003	0.0008
756.8758	-0.0065
757.0513	-0.0096
757.2267	-0.008
757.4022	-0.0065
757.5776	-0.0128
757.753	-0.0132
757.9284	-0.0045
758.1038	-0.0066
758.2791	-0.0044
758.4545	-0.0389
758.6298	-0.016
758.8051	-0.0038
758.9803	-0.0063
759.1556	-0.0235
759.3308	0.0114
759.506	0.0052
759.6812	-0.0111
759.8564	-0.0125
760.0316	-0.0001
760.2067	-0.0176
760.3819	-0.0011
760.557	-0.0153
760.732	0.0348
760.9071	0.0117
761.0821	-0.0101
761.2572	0.0058
761.4322	-0.0036
761.6072	-0.0082
761.7821	0.0263
761.9571	0.004
762.132	0.0098
762.3069	-0.0159
762.4818	-0.0002
762.6567	-0.0099
762.8316	0.0068
763.0064	-0.0219
763.1812	-0.0257
763.356	-0.0012
763.5308	-0.0134
763.7055	-0.0127
763.8803	-0.0178
764.055	0.004
764.2297	-0.011
764.4044	0.0003
764.579	-0.0187
764.7537	-0.004
764.9283	-0.024
765.1029	-0.0128
765.2775	-0.0269
765.4521	0.0102
765.6266	-0.0038
765.8011	-0.0031
765.9756	0.0072
766.1501	0.0301
766.3246	0.0089
766.4991	-0.0054
766.6735	-0.0105
766.8479	-0.0157
767.0223	-0.0148
767.1967	-0.0099
767.371	0.014
767.5454	0.0313
767.7197	0.0323
767.894	0.0105
768.0683	-0.0142
768.2425	-0.0178
768.4168	-0.005
768.591	0.0012
768.7652	-0.0013
768.9394	0.0058
769.1135	-0.0123
769.2877	0.0002
769.4618	0.0089
769.6359	-0.0186
769.81	0.0059
769.984	-0.0021
770.1581	0.0218
770.3321	-0.0367
770.5061	-0.0047
770.6801	0.0148
770.8541	0.0123
771.028	-0.0034
771.202	-0.0383
771.3759	-0.0212
771.5498	-0.0238
771.7236	-0.0072
771.8975	-0.0311
772.0713	0.0022
772.2451	-0.0148
772.4189	-0.0317
772.5927	-0.0339
772.7665	0.0408
772.9402	0.0436
773.1139	-0.0025
773.2876	-0.0228
773.4613	-0.0015
773.635	0.0095
773.8086	-0.0177
773.9822	0.0054
774.1558	0.0074
774.3294	-0.0063
774.503	0.0116
774.6765	0.017
774.8501	-0.0017
775.0236	0.0107
775.1971	-0.0012
775.3705	-0.0004
775.544	0.0013
775.7174	-0.0301
775.8908	0.0372
776.0642	0.0004
776.2376	-0.0168
776.4109	0.0279
776.5843	-0.0146
776.7576	0.0362
776.9309	0.0586
777.1041	-0.0248
777.2774	0.0046
777.4506	-0.0369
777.6238	-0.0332
777.797	0.0173
777.9702	0.0377
778.1434	0.0408
778.3165	0.0083
778.4896	-0.0021
778.6627	0.006
778.8358	-0.0155
779.0089	0.0092
779.1819	-0.0049
779.3549	0.0284
779.5279	-0.0023
779.7009	0.004
779.8739	-0.0105
780.0468	0.0031
780.2197	-0.0118
780.3926	-0.0088
780.5655	-0.0209
780.7384	0.0172
780.9112	-0.0185
781.0841	-0.0095
781.2569	-0.0296
781.4297	0.0361
781.6024	-0.0084
781.7752	-0.0161
781.9479	-0.0113
782.1206	0.0078
782.2933	0.0091
782.466	-0.0139
782.6386	-0.0014
782.8113	-0.022
782.9839	0.0125
783.1565	-0.0056
783.329	-0.0054
783.5016	-0.0191
783.6741	-0.0028
783.8466	-0.0595
784.0191	0.0143
784.1916	-0.0004
784.3641	-0.0538
784.5365	0.0389
784.7089	-0.0028
784.8813	0.0078
785.0537	0.0229
785.2261	-0.023
785.3984	-0.0134
785.5707	0.0542
785.743	-0.0251
785.9153	0.018
786.0876	-0.0191
786.2598	0.0343
786.432	-0.0088
786.6042	0.0099
786.7764	-0.0336
786.9486	0.0112
787.1207	0.0497
787.2928	-0.0053
787.4649	0.0003
787.637	0.006
787.8091	-0.0259
787.9811	-0.0106
788.1532	-0.0125
788.3252	-0.0082
788.4972	-0.0226
788.6691	0.0288
788.8411	-0.0015
789.013	-0.0215
789.1849	0.0032
789.3568	0.0067
789.5287	-0.0541
789.7005	0.0469
789.8723	-0.0702
790.0442	-0.0566
790.2159	0.0494
790.3877	0.0332
790.5595	0.0625
790.7312	0.0058
790.9029	-0.0511
791.0746	0.0546
791.2463	-0.022
791.4179	0.0326
791.5896	-0.0305
791.7612	-0.0332
791.9328	-0.0468
792.1044	-0.0258
792.2759	0.0501
792.4474	-0.0598
792.619	0.0513
792.7905	-0.0286
792.9619	-0.0171
793.1334	-0.0705
793.3048	-0.0322
793.4762	0.0063
793.6476	-0.0304
793.819	-0.0182
793.9904	0.0062
794.1617	0.0203
794.333	-0.0114
794.5043	0.0104
794.6756	0.0132
794.8469	-0.0176
795.0181	-0.0056
795.1893	-0.0234
795.3605	-0.0031
795.5317	0.0176
795.7029	0.0185
795.874	0.0199
796.0452	0.0291
796.2163	0.047
796.3873	-0.0076
796.5584	0.0272
796.7294	-0.0495
796.9005	-0.0628
797.0715	0.0374
797.2425	0.0313
797.4134	0.0063
797.5844	0.0816
797.7553	0.071
797.9262	-0.0262
798.0971	-0.008
798.2679	0.0476
798.4388	-0.0271
798.6096	-0.0007
798.7804	0.0111
798.9512	0.0552
799.122	0.0553
799.2927	0.0115
799.4635	0.068
799.6342	0.0007
799.8049	-0.0019
799.9755	-0.0408
800.1462	-0.0453
800.3168	-0.0549
800.4874	0.0298
800.658	0.0997
800.8286	-0.0242
800.9991	0.0977
801.1696	0.0533
801.3402	-0.0521
801.5106	-0.0884
801.6811	0.0872
801.8516	-0.0424
802.022	0.0285
802.1924	-0.0482
802.3628	0.0589
802.5332	-0.0683
802.7035	0.009
802.8739	-0.0082
803.0442	0.0026
803.2145	-0.0507
803.3847	-0.0563
803.555	0.0358
803.7252	-0.0219
803.8954	0.0839
804.0656	-0.027
804.2358	0.0338
804.4059	0.0554
804.5761	0.0773
804.7462	-0.0552
804.9163	-0.0685
805.0864	0.0202
805.2564	0.0376
805.4264	0.0286
805.5965	0.0444
805.7665	-0.0138
805.9364	-0.0161
806.1064	-0.0095
806.2763	0.0005
806.4462	-0.0024
806.6161	-0.0173
806.786	-0.0075
806.9559	0.0662
807.1257	-0.0079
807.2955	0.0344
807.4653	-0.0419
807.6351	-0.0076
807.8048	-0.0244
807.9746	-0.017
808.1443	0.0553
808.314	0.1022
808.4837	-0.0305
808.6533	0.085
808.8229	-0.0059
808.9926	0.0552
809.1622	0.0417
809.3317	-0.0813
809.5013	0.0797
809.6708	0.084
809.8403	0.022
810.0098	0.0315
810.1793	0.1534
810.3488	0.0768
810.5182	0.0294
810.6876	0.099
810.857	-0.1339
811.0264	-0.0435
811.1958	0.0653
811.3651	-0.0263
811.5344	0.0038
811.7037	0.0156
811.873	0.0579
812.0422	0.0204
812.2115	-0.0575
812.3807	-0.0012
812.5499	0.0379
812.7191	0.1914
812.8882	-0.0396
813.0574	-0.0242
813.2265	-0.0537
813.3956	0.02
813.5646	-0.0364
813.7337	-0.1136
813.9027	-0.001
814.0718	-0.0766
814.2407	-0.121
814.4097	0.1264
814.5787	-0.0095
814.7476	0.0519
814.9165	0.0678
815.0854	0.1313
815.2543	0.0586
815.4232	-0.0862
815.592	0.06
815.7608	0.0868
815.9296	0.0041
816.0984	0.5244
816.2671	0.0949
816.4359	0.2677
816.6046	0.1147
816.7733	-0.055
816.942	0.0524
817.1106	-0.1716
817.2793	-0.032
817.4479	-0.0542
817.6165	-0.0032
817.785	0.0088
817.9536	0.0143
818.1221	0.1434
818.2906	0.1168
818.4591	-0.0813
818.6276	0.0267
818.7961	0.0249
818.9645	0.0977
819.1329	0.0878
819.3013	0.0321
819.4697	0.1306
819.638	0.0381
819.8064	-0.0638
819.9747	0.1097
820.143	-0.0249
820.3113	0.3377
820.4795	0.2306
820.6477	0.008
820.816	0.0065
820.9842	0.0771
821.1523	0.0821
821.3205	-0.0729
821.4886	-0.061
821.6567	-0.0134
821.8248	0.0493
821.9929	-0.075
822.1609	0.1578
822.329	0.0935
822.497	-0.0184
822.665	0.0348
822.833	-0.0642
823.0009	-0.1137
823.1688	0.16
823.3367	-0.2084
823.5046	0.106
823.6725	0.1321
823.8404	0.0028
824.0082	-0.0846
824.176	0.0806
824.3438	0.2588
824.5116	0.2086
824.6793	-0.1135
824.847	0.0141
825.0147	0.0695
825.1824	-0.008
825.3501	-0.0022
825.5177	0.1343
825.6854	0.0612
825.853	-0.0361
826.0206	-0.0225
826.1881	0.0625
826.3557	0.1275
826.5232	0.1083
826.6907	0.0563
826.8582	-0.093
827.0257	-0.0291
827.1931	0.0751
827.3605	-0.1531
827.528	0.2866
827.6953	0.165
827.8627	-0.0049
828.03	0.0957
828.1974	-0.0807
828.3647	0.1006
828.532	0.3633
828.6992	-0.008
828.8665	0.036
829.0337	0.0112
829.2009	0.1476
829.3681	0.0494
829.5352	-0.0021
829.7024	-0.037
829.8695	0.1246
830.0366	0.1508
830.2037	0.0963
830.3707	0.0097
830.5378	0.3673
830.7048	-0.1479
830.8718	-0.0834
831.0388	0.1097
831.2057	0.0214
831.3727	-0.1254
831.5396	-0.0782
831.7065	0.208
831.8734	-0.4991
832.0402	0.304
832.2071	-0.2489
832.3739	0.0825
832.5407	-0
832.7075	0.1768
832.8742	-0
833.041	0.2921
833.2077	0.3826
833.3744	-0.0437
833.541	0.162
833.7077	-0.0293
833.8743	0.1353
834.0409	-0.0716
834.2075	0.0321
834.3741	0.1453
834.5407	-0.2688
834.7072	0.1167
834.8737	0.3324
835.0402	-0.4124
835.2067	0.172
835.3731	0.1345
835.5395	0.0654
835.706	0.5039
835.8723	-0.1203
836.0387	0.053
836.2051	0.8451
836.3714	-0.2704
836.5377	0.0417
836.704	0.0353
836.8703	-0.0926
837.0365	-0
837.2027	-0.3381
837.3689	0.0036
837.5351	0.1515
837.7013	-0.1519
837.8674	-0.7286
838.0335	0.055
838.1997	-0.0179
838.3657	0.5211
838.5318	0.3424
838.6978	-0
838.8639	0.1219
839.0299	0.0798
839.1958	-0.013
839.3618	0.0514
839.5277	-0.0256
839.6937	-0
839.8596	-0.0601
840.0254	0.1481
840.1913	0.7475
840.3571	-0.1423
840.523	-0
840.6888	0.3873
840.8545	0.1603
841.0203	-0.0038
841.186	0.4004
841.3517	0.4346
841.5174	0.0491
841.6831	0.1836
841.8488	0.0908
842.0144	-0.0709
842.18	0.4614
842.3456	-0.1378
842.5112	-0
842.6767	-0.3671
842.8422	-0.0256
843.0077	0.3058
843.1732	0.0179
843.3387	-0
843.5042	0.1777
843.6696	0.1668
843.835	0.1192
844.0004	0.0973
844.1657	-0
844.3311	-0.3551
844.4964	0.1204
844.6617	-0
844.827	-0
844.9923	0.2466
845.1575	-0
845.3227	-0.1825
845.4879	0.3826
845.6531	-0.1529
845.8183	0.166
845.9834	-0.3327
846.1485	0.2666
846.3136	0.1065
846.4787	0.2573
846.6438	0.4982
846.8088	-0
846.9738	0.5461
847.1388	0.0296
847.3038	-0.2489
847.4687	-1.3406
847.6337	0.1927
847.7986	0.4937
847.9635	0.7418
848.1284	-0
848.2932	0.6426
848.458	0.4678
848.6228	0.0516
848.7876	0.0214
848.9524	-0.0872
849.1172	0.3606
849.2819	-0
849.4466	-0
849.6113	-0.1192
849.7759	-0
849.9406	-0.263
850.1052	-0
850.2698	-0
850.4344	1.3724
850.599	0.2257
850.7635	-0
850.928	0.1173
851.0925	1.6842
851.257	0.0908
851.4215	-0
851.5859	0.471
851.7503	0.3136
851.9147	-0
852.0791	-0.272
852.2434	0.7467
852.4078	0.7533
852.5721	-0
852.7364	0.3061
852.9007	0.0976
853.0649	-0
853.2291	-0
853.3934	-0
853.5575	-0.0411
853.7217	-0.2122
853.8859	0.2421
854.05	-0.8792
854.2141	-0.3471
854.3782	0.3329
854.5423	-0.5416
854.7063	0.0526
854.8703	0.6488
855.0343	0.7145
855.1983	0.0054
855.3623	0.4388
855.5262	-0.8568
855.6901	1.3752
855.854	-0.1007
856.0179	-0
856.1818	-0.3791
856.3456	-0
856.5094	-0
856.6732	-0.2097
856.837	0.3829
857.0008	-0
857.1645	-0
857.3282	-0.0915
857.4919	0.7677
857.6556	1.5223
857.8192	0.0597
857.9828	-0.3495
858.1465	0.2719
858.31	-1.6198
858.4736	-0.1907
858.6372	-0
858.8007	-0.9434
858.9642	0.4085
859.1277	-0.294
859.2911	0.3667
859.4546	0.0068
859.618	-0
859.7814	-0
859.9448	-0.3261
860.1081	-0
860.2715	-0
860.4348	-0
860.5981	-0
860.7614	-0.1301
860.9246	-0.2544
861.0879	0.1648
861.2511	-0
861.4143	0.5582
861.5774	0.6036
861.7406	-0.1461
861.9037	-0
862.0668	0.6734
862.2299	-0
862.393	0.5611
862.556	1.1761
862.7191	0.2046
862.8821	-0.1511
863.0451	0.7688
863.208	-0
863.371	0.5656
863.5339	0.2311
863.6968	-0.1359
863.8597	-0
864.0225	-0.2144
864.1854	-0
864.3482	-0.32
864.511	-0.2166
864.6737	-0
864.8365	0.2045
864.9992	-0.4771
865.1619	-0.1284
865.3246	-0.0109
865.4873	-0
865.65	-0
865.8126	0.0648
865.9752	-0.3032
866.1378	-0.8536
866.3004	0.2575
866.4629	0.0064
866.6254	-0
866.7879	0.6048
866.9504	-0
867.1129	0.2863
867.2753	-0.1011
867.4377	0.2679
867.6001	-0.0745
867.7625	0.0057
867.9249	0.4089
868.0872	0.3261
868.2495	-0.2266
868.4118	-0.2539
868.5741	-0
868.7363	0.0656
868.8986	-0.5512
869.0608	0.2871
869.223	0.5813
869.3851	-0
869.5473	-0.4771
869.7094	-0
869.8715	-0
870.0336	-0.0621
870.1957	-0
870.3577	0.0891
870.5197	0.3369
870.6817	-0
870.8437	0.4717
871.0057	1.8261
871.1676	0.0312
871.3295	-0
871.4914	-0.3465
871.6533	0.0959
871.8151	-0.4628
871.977	-0
872.1388	-0.0621
872.3006	0.4771
872.4623	-0
872.6241	-1.8751
872.7858	0.6068
872.9475	-0.7473
873.1092	0.568
873.2709	0.0602
873.4325	-0.4771
873.5941	-0.6264
873.7557	-0.2588
873.9173	-0.5956
874.0789	0.1683
874.2404	-0
874.4019	-0.1212
874.5634	0.6514
874.7249	-0
874.8863	-0.4934
875.0478	0.0775
875.2092	-0.1847
875.3706	-0.3303
875.5319	-0.2673
875.6933	-0
875.8546	-0
876.0159	-0.0508
876.1772	-0
876.3385	-0.4771
876.4997	0.0167
876.6609	-0
876.8221	1.3334
876.9833	0.1337
877.1445	0.7413
877.3056	0.1782
877.4667	-0
877.6278	-0
877.7889	-0
877.9499	-0
878.111	0.507
878.272	-0
878.433	0.5798
878.5939	-0.1704
878.7549	-0
878.9158	-0.432
879.0767	-0
879.2376	-0
879.3984	-0
879.5593	-0
879.7201	-0.1144
879.8809	-0
880.0417	0.1982
880.2024	0.279
880.3632	-0.1387
880.5239	-0
880.6846	-0.7478
880.8452	0.2847
881.0059	0.3606
881.1665	0.4832
881.3271	-0.1678
881.4877	-0.1558
881.6483	-1.7297
881.8088	-0.0959
881.9693	1.8513
882.1298	1.8513
882.2903	1.8513
