Data from D4ACN5uM480nmA_Absorbance_12-08-02-170.txt Node
Date: Fri Feb 21 12:08:02 GMT 2025
User: LASERRRRR
Spectrometer: FLMT03099
Trigger mode: 0
Integration Time (sec): 1.500000E-2
Scans to average: 1
Electric dark correction enabled: true
Nonlinearity correction enabled: false
Boxcar width: 0
XAxis mode: Wavelengths
Number of Pixels in Spectrum: 3648
>>>>>Begin Spectral Data<<<<<
179.3399	-0
179.5586	-0
179.7771	-0
179.9957	0.1698
180.2143	-0.264
180.4329	0.8451
180.6514	-0
180.8699	-0
181.0885	-0.4963
181.307	-0
181.5255	0.1774
181.744	-0.2511
181.9625	0.0124
182.181	0.1574
182.3994	-0
182.6179	-0.3174
182.8363	-0.2964
183.0547	-0
183.2732	0.1247
183.4916	0.3143
183.71	0.233
183.9284	0.1322
184.1467	0.2168
184.3651	0.2092
184.5835	0.1119
184.8018	0.2785
185.0201	0.3035
185.2385	0.0497
185.4568	0.2666
185.6751	0.2583
185.8934	0.6029
186.1117	-0.0403
186.3299	0.1891
186.5482	-0.0577
186.7664	0.1053
186.9847	1.0583
187.2029	0.2127
187.4211	0.1737
187.6393	0.5665
187.8575	0.4048
188.0757	0.2159
188.2939	0.0998
188.512	0.3072
188.7302	0.3546
188.9483	0.1394
189.1665	0.4485
189.3846	0.153
189.6027	0.0054
189.8208	0.66
190.0389	0.2661
190.257	0.1484
190.475	0.2076
190.6931	0.2649
190.9111	0.3453
191.1292	0.2644
191.3472	0.3028
191.5652	0.2966
191.7832	0.1886
192.0012	0.4273
192.2192	0.3498
192.4371	0.3371
192.6551	0.4301
192.873	0.429
193.091	0.2501
193.3089	0.1276
193.5268	0.4332
193.7447	0.4464
193.9626	0.4594
194.1805	0.3499
194.3984	0.4931
194.6162	0.5268
194.8341	0.5531
195.0519	0.5346
195.2697	0.5218
195.4875	0.8331
195.7054	0.4791
195.9231	0.4791
196.1409	0.5598
196.3587	0.3817
196.5765	0.4845
196.7942	0.7287
197.012	0.5972
197.2297	0.4965
197.4474	0.8547
197.6651	0.6965
197.8828	0.7099
198.1005	0.6965
198.3182	0.5681
198.5358	0.5745
198.7535	0.6358
198.9711	0.5739
199.1888	0.5977
199.4064	0.5453
199.624	0.5248
199.8416	0.6294
200.0592	0.5509
200.2767	0.4802
200.4943	0.6165
200.7119	0.541
200.9294	0.6475
201.1469	0.5219
201.3645	0.5985
201.582	0.5401
201.7995	0.5717
202.017	0.5357
202.2344	0.5813
202.4519	0.5209
202.6694	0.5706
202.8868	0.5834
203.1042	0.5392
203.3217	0.5611
203.5391	0.5564
203.7565	0.4952
203.9739	0.5145
204.1913	0.5232
204.4086	0.5592
204.626	0.4898
204.8433	0.5123
205.0607	0.5292
205.278	0.5071
205.4953	0.467
205.7126	0.5065
205.9299	0.4753
206.1472	0.4997
206.3644	0.4693
206.5817	0.4792
206.7989	0.4871
207.0162	0.428
207.2334	0.4364
207.4506	0.4458
207.6678	0.4342
207.885	0.4504
208.1022	0.4642
208.3194	0.4414
208.5365	0.48
208.7537	0.4382
208.9708	0.4674
209.1879	0.4218
209.405	0.4423
209.6222	0.4143
209.8392	0.4166
210.0563	0.4221
210.2734	0.4163
210.4905	0.4178
210.7075	0.4179
210.9245	0.4297
211.1416	0.4346
211.3586	0.4077
211.5756	0.4297
211.7926	0.4002
212.0096	0.4056
212.2265	0.4102
212.4435	0.4272
212.6604	0.4208
212.8774	0.4075
213.0943	0.4261
213.3112	0.4051
213.5281	0.4152
213.745	0.4073
213.9619	0.4096
214.1788	0.4077
214.3956	0.419
214.6125	0.3989
214.8293	0.4174
215.0461	0.3992
215.2629	0.4074
215.4798	0.4007
215.6965	0.3836
215.9133	0.406
216.1301	0.4012
216.3469	0.3854
216.5636	0.4057
216.7803	0.4293
216.9971	0.418
217.2138	0.4173
217.4305	0.4198
217.6472	0.4214
217.8639	0.4008
218.0805	0.4196
218.2972	0.4173
218.5138	0.431
218.7305	0.4286
218.9471	0.4318
219.1637	0.4083
219.3803	0.4252
219.5969	0.4302
219.8135	0.4154
220.0301	0.4227
220.2466	0.4338
220.4632	0.4232
220.6797	0.41
220.8962	0.4265
221.1127	0.4198
221.3292	0.4366
221.5457	0.4405
221.7622	0.447
221.9787	0.4403
222.1951	0.4458
222.4116	0.4349
222.628	0.4377
222.8444	0.4309
223.0608	0.4233
223.2772	0.4425
223.4936	0.4491
223.71	0.4571
223.9264	0.4613
224.1427	0.4393
224.3591	0.4499
224.5754	0.47
224.7917	0.4608
225.008	0.4711
225.2243	0.4644
225.4406	0.4529
225.6569	0.4683
225.8732	0.4482
226.0894	0.4776
226.3057	0.4649
226.5219	0.4744
226.7381	0.4691
226.9543	0.4723
227.1705	0.477
227.3867	0.4919
227.6029	0.4712
227.8191	0.4854
228.0352	0.4971
228.2513	0.4995
228.4675	0.4792
228.6836	0.4789
228.8997	0.4827
229.1158	0.484
229.3319	0.4936
229.548	0.4832
229.764	0.5058
229.9801	0.5032
230.1961	0.4993
230.4121	0.5165
230.6282	0.514
230.8442	0.5133
231.0602	0.5087
231.2761	0.53
231.4921	0.5118
231.7081	0.5142
231.924	0.5125
232.14	0.5174
232.3559	0.5326
232.5718	0.5336
232.7877	0.5287
233.0036	0.5301
233.2195	0.5299
233.4353	0.5302
233.6512	0.5285
233.867	0.5217
234.0829	0.5434
234.2987	0.5326
234.5145	0.5449
234.7303	0.5261
234.9461	0.5354
235.1619	0.5329
235.3776	0.5273
235.5934	0.5271
235.8091	0.5314
236.0249	0.5536
236.2406	0.5447
236.4563	0.5364
236.672	0.5281
236.8877	0.5367
237.1034	0.5337
237.319	0.5447
237.5347	0.5217
237.7503	0.5429
237.966	0.5296
238.1816	0.5282
238.3972	0.5378
238.6128	0.5392
238.8284	0.5337
239.0439	0.5356
239.2595	0.529
239.475	0.5305
239.6906	0.5297
239.9061	0.5278
240.1216	0.5259
240.3371	0.5227
240.5526	0.5093
240.7681	0.5169
240.9836	0.5167
241.199	0.5137
241.4145	0.4982
241.6299	0.5038
241.8453	0.4927
242.0607	0.4901
242.2761	0.4831
242.4915	0.4749
242.7069	0.4596
242.9223	0.4655
243.1376	0.4431
243.353	0.4424
243.5683	0.443
243.7836	0.4351
243.9989	0.4159
244.2142	0.4302
244.4295	0.4135
244.6448	0.3994
244.86	0.3964
245.0753	0.3785
245.2905	0.3752
245.5057	0.3762
245.721	0.3559
245.9362	0.3497
246.1514	0.3443
246.3665	0.3438
246.5817	0.3368
246.7969	0.3243
247.012	0.329
247.2271	0.3109
247.4423	0.317
247.6574	0.3046
247.8725	0.3033
248.0876	0.2886
248.3026	0.2885
248.5177	0.284
248.7328	0.2794
248.9478	0.2746
249.1628	0.2687
249.3779	0.274
249.5929	0.2547
249.8079	0.2519
250.0228	0.2576
250.2378	0.251
250.4528	0.2509
250.6677	0.2481
250.8827	0.2414
251.0976	0.2417
251.3125	0.2394
251.5274	0.2343
251.7423	0.2274
251.9572	0.2184
252.172	0.2193
252.3869	0.2182
252.6017	0.2154
252.8166	0.2207
253.0314	0.217
253.2462	0.2129
253.461	0.2149
253.6758	0.2041
253.8906	0.2016
254.1053	0.208
254.3201	0.2047
254.5348	0.2023
254.7496	0.2044
254.9643	0.2021
255.179	0.1993
255.3937	0.2059
255.6083	0.1989
255.823	0.1991
256.0377	0.2025
256.2523	0.1967
256.467	0.2019
256.6816	0.2008
256.8962	0.1906
257.1108	0.1982
257.3254	0.1923
257.54	0.1921
257.7545	0.189
257.9691	0.1916
258.1836	0.1911
258.3981	0.187
258.6127	0.1855
258.8272	0.191
259.0417	0.1841
259.2561	0.1911
259.4706	0.1939
259.6851	0.187
259.8995	0.1754
260.114	0.1836
260.3284	0.1817
260.5428	0.1756
260.7572	0.189
260.9716	0.187
261.186	0.1791
261.4003	0.1866
261.6147	0.1837
261.829	0.1809
262.0433	0.1823
262.2577	0.1851
262.472	0.1865
262.6863	0.1847
262.9005	0.1919
263.1148	0.1829
263.3291	0.1847
263.5433	0.1898
263.7576	0.1838
263.9718	0.1855
264.186	0.1885
264.4002	0.1871
264.6144	0.1856
264.8286	0.1852
265.0427	0.1895
265.2569	0.1856
265.471	0.1914
265.6851	0.1872
265.8993	0.1826
266.1134	0.1859
266.3275	0.1843
266.5415	0.1816
266.7556	0.1835
266.9697	0.1841
267.1837	0.1834
267.3978	0.1964
267.6118	0.1824
267.8258	0.191
268.0398	0.1841
268.2538	0.1806
268.4677	0.1849
268.6817	0.1737
268.8957	0.184
269.1096	0.1777
269.3235	0.1863
269.5374	0.177
269.7514	0.1779
269.9652	0.1817
270.1791	0.1795
270.393	0.1798
270.6068	0.1707
270.8207	0.1769
271.0345	0.1735
271.2483	0.1749
271.4622	0.1719
271.676	0.176
271.8897	0.1738
272.1035	0.1723
272.3173	0.1763
272.531	0.1768
272.7448	0.1679
272.9585	0.1763
273.1722	0.173
273.3859	0.1722
273.5996	0.1733
273.8133	0.1712
274.0269	0.1805
274.2406	0.176
274.4542	0.1628
274.6679	0.1721
274.8815	0.1688
275.0951	0.1726
275.3087	0.1754
275.5223	0.1736
275.7358	0.1806
275.9494	0.1673
276.1629	0.18
276.3765	0.1728
276.59	0.1769
276.8035	0.1807
277.017	0.1798
277.2305	0.177
277.444	0.1737
277.6574	0.1796
277.8709	0.1809
278.0843	0.1769
278.2978	0.1805
278.5112	0.184
278.7246	0.1791
278.938	0.1781
279.1513	0.1809
279.3647	0.182
279.5781	0.1759
279.7914	0.1817
280.0047	0.1785
280.2181	0.1841
280.4314	0.1804
280.6447	0.1896
280.8579	0.1782
281.0712	0.1801
281.2845	0.1863
281.4977	0.186
281.711	0.1849
281.9242	0.1801
282.1374	0.1861
282.3506	0.1922
282.5638	0.1832
282.7769	0.1825
282.9901	0.1862
283.2033	0.1887
283.4164	0.1825
283.6295	0.1836
283.8426	0.188
284.0557	0.1842
284.2688	0.1887
284.4819	0.1901
284.695	0.196
284.908	0.1956
285.1211	0.1888
285.3341	0.1972
285.5471	0.194
285.7601	0.1958
285.9731	0.1923
286.1861	0.1936
286.3991	0.1972
286.612	0.1985
286.825	0.1946
287.0379	0.1943
287.2508	0.1945
287.4637	0.1983
287.6766	0.2014
287.8895	0.1886
288.1024	0.1949
288.3152	0.1979
288.5281	0.1987
288.7409	0.1975
288.9538	0.1952
289.1666	0.1998
289.3794	0.2024
289.5922	0.1928
289.8049	0.2007
290.0177	0.2035
290.2304	0.2062
290.4432	0.2
290.6559	0.1936
290.8686	0.1999
291.0813	0.2007
291.294	0.2034
291.5067	0.1998
291.7194	0.1975
291.932	0.2023
292.1447	0.2013
292.3573	0.1942
292.5699	0.2015
292.7825	0.1982
292.9951	0.2008
293.2077	0.2032
293.4203	0.2049
293.6328	0.1979
293.8454	0.202
294.0579	0.2018
294.2704	0.2011
294.4829	0.1991
294.6954	0.2013
294.9079	0.2082
295.1204	0.2017
295.3328	0.2054
295.5453	0.2042
295.7577	0.1981
295.9701	0.2002
296.1825	0.1971
296.3949	0.2088
296.6073	0.2008
296.8197	0.2005
297.0321	0.2009
297.2444	0.1988
297.4567	0.2009
297.6691	0.2002
297.8814	0.1981
298.0937	0.1963
298.306	0.1994
298.5182	0.2015
298.7305	0.1996
298.9428	0.1943
299.155	0.2009
299.3672	0.1992
299.5794	0.1952
299.7916	0.2003
300.0038	0.1985
300.216	0.1987
300.4282	0.1942
300.6403	0.193
300.8525	0.2006
301.0646	0.1977
301.2767	0.1994
301.4888	0.1986
301.7009	0.1969
301.913	0.2022
302.125	0.1944
302.3371	0.1991
302.5491	0.195
302.7612	0.1934
302.9732	0.1946
303.1852	0.1955
303.3972	0.1949
303.6092	0.1923
303.8211	0.1899
304.0331	0.1939
304.245	0.1973
304.457	0.1967
304.6689	0.1916
304.8808	0.1903
305.0927	0.1886
305.3046	0.1831
305.5164	0.1815
305.7283	0.1894
305.9401	0.1848
306.152	0.1798
306.3638	0.1781
306.5756	0.184
306.7874	0.1797
306.9992	0.1746
307.2109	0.1722
307.4227	0.1671
307.6344	0.1728
307.8462	0.168
308.0579	0.1705
308.2696	0.1611
308.4813	0.1617
308.693	0.1703
308.9046	0.1625
309.1163	0.1609
309.328	0.1586
309.5396	0.1571
309.7512	0.1585
309.9628	0.1528
310.1744	0.1613
310.386	0.1412
310.5976	0.1451
310.8091	0.144
311.0207	0.1489
311.2322	0.1436
311.4437	0.1439
311.6552	0.1511
311.8667	0.1335
312.0782	0.1458
312.2897	0.1378
312.5012	0.1407
312.7126	0.1312
312.924	0.1353
313.1355	0.1299
313.3469	0.135
313.5583	0.1238
313.7696	0.1275
313.981	0.1313
314.1924	0.1275
314.4037	0.1276
314.6151	0.1256
314.8264	0.1298
315.0377	0.1309
315.249	0.1224
315.4603	0.1218
315.6716	0.1269
315.8828	0.1202
316.0941	0.1189
316.3053	0.1172
316.5165	0.1257
316.7277	0.125
316.9389	0.1227
317.1501	0.1162
317.3613	0.1149
317.5724	0.1209
317.7836	0.1164
317.9947	0.1172
318.2058	0.1168
318.417	0.1181
318.6281	0.1185
318.8391	0.1187
319.0502	0.1209
319.2613	0.1186
319.4723	0.1163
319.6834	0.1224
319.8944	0.1188
320.1054	0.1167
320.3164	0.1182
320.5274	0.1116
320.7383	0.118
320.9493	0.1112
321.1602	0.115
321.3712	0.1159
321.5821	0.1206
321.793	0.1167
322.0039	0.1167
322.2148	0.1141
322.4257	0.1171
322.6365	0.1198
322.8474	0.1149
323.0582	0.1202
323.269	0.1158
323.4798	0.1153
323.6906	0.1149
323.9014	0.1174
324.1122	0.1095
324.3229	0.1151
324.5337	0.1216
324.7444	0.1126
324.9551	0.1206
325.1658	0.1222
325.3765	0.1207
325.5872	0.1216
325.7979	0.1192
326.0085	0.1175
326.2192	0.117
326.4298	0.1203
326.6404	0.1215
326.851	0.1198
327.0616	0.1246
327.2722	0.1201
327.4828	0.1179
327.6933	0.1217
327.9039	0.1185
328.1144	0.1216
328.3249	0.1267
328.5354	0.1261
328.7459	0.1167
328.9564	0.1283
329.1669	0.1222
329.3773	0.1245
329.5878	0.1283
329.7982	0.1254
330.0086	0.1256
330.219	0.1258
330.4294	0.1252
330.6398	0.1304
330.8502	0.1255
331.0605	0.1213
331.2708	0.1232
331.4812	0.1255
331.6915	0.119
331.9018	0.1185
332.1121	0.1261
332.3224	0.124
332.5326	0.1286
332.7429	0.1246
332.9531	0.1241
333.1633	0.1279
333.3735	0.1266
333.5837	0.1335
333.7939	0.1232
334.0041	0.1268
334.2143	0.1279
334.4244	0.1215
334.6346	0.1245
334.8447	0.1216
335.0548	0.1275
335.2649	0.1259
335.475	0.1324
335.685	0.1248
335.8951	0.1345
336.1051	0.1254
336.3152	0.1244
336.5252	0.1329
336.7352	0.1249
336.9452	0.1363
337.1552	0.1271
337.3652	0.1273
337.5751	0.1333
337.7851	0.1258
337.995	0.1281
338.2049	0.1305
338.4148	0.1307
338.6247	0.1256
338.8346	0.1328
339.0445	0.1337
339.2543	0.1317
339.4642	0.1369
339.674	0.1363
339.8838	0.1257
340.0936	0.1405
340.3034	0.1381
340.5132	0.1289
340.7229	0.1316
340.9327	0.1347
341.1424	0.1314
341.3522	0.1396
341.5619	0.1345
341.7716	0.1361
341.9813	0.1387
342.1909	0.1424
342.4006	0.1403
342.6102	0.1361
342.8199	0.1412
343.0295	0.1471
343.2391	0.1413
343.4487	0.1449
343.6583	0.1477
343.8679	0.142
344.0774	0.1458
344.287	0.1494
344.4965	0.1503
344.706	0.1469
344.9155	0.1416
345.125	0.1474
345.3345	0.1452
345.544	0.146
345.7534	0.1517
345.9629	0.1578
346.1723	0.1475
346.3817	0.1469
346.5911	0.153
346.8005	0.151
347.0099	0.1566
347.2193	0.1545
347.4286	0.1547
347.638	0.1522
347.8473	0.1548
348.0566	0.1548
348.2659	0.16
348.4752	0.1577
348.6845	0.1595
348.8937	0.1567
349.103	0.1557
349.3122	0.1629
349.5214	0.1649
349.7306	0.1589
349.9398	0.1572
350.149	0.1655
350.3582	0.1584
350.5674	0.1613
350.7765	0.1697
350.9856	0.158
351.1948	0.1677
351.4039	0.1659
351.613	0.1848
351.822	0.167
352.0311	0.1674
352.2402	0.1737
352.4492	0.1713
352.6582	0.1704
352.8672	0.1716
353.0762	0.1708
353.2852	0.173
353.4942	0.1741
353.7032	0.1661
353.9121	0.17
354.1211	0.1739
354.33	0.1767
354.5389	0.1832
354.7478	0.1813
354.9567	0.1858
355.1655	0.1778
355.3744	0.1768
355.5833	0.1805
355.7921	0.1836
356.0009	0.1801
356.2097	0.1866
356.4185	0.186
356.6273	0.1842
356.8361	0.1913
357.0448	0.1914
357.2536	0.184
357.4623	0.1842
357.671	0.1885
357.8797	0.1934
358.0884	0.1904
358.2971	0.1955
358.5057	0.1891
358.7144	0.1975
358.923	0.1952
359.1316	0.1937
359.3402	0.2006
359.5488	0.2038
359.7574	0.2034
359.966	0.2075
360.1746	0.1936
360.3831	0.2027
360.5916	0.2058
360.8002	0.2086
361.0087	0.2112
361.2172	0.211
361.4256	0.2045
361.6341	0.2084
361.8426	0.2124
362.051	0.2125
362.2594	0.2109
362.4678	0.2177
362.6762	0.215
362.8846	0.2162
363.093	0.2162
363.3014	0.218
363.5097	0.2171
363.718	0.2317
363.9264	0.2266
364.1347	0.2242
364.343	0.2295
364.5513	0.227
364.7595	0.2274
364.9678	0.2299
365.176	0.2318
365.3842	0.2317
365.5925	0.2272
365.8007	0.2369
366.0089	0.2407
366.217	0.2406
366.4252	0.2354
366.6333	0.2331
366.8415	0.2313
367.0496	0.2373
367.2577	0.2439
367.4658	0.2488
367.6739	0.2467
367.882	0.251
368.09	0.2408
368.2981	0.2378
368.5061	0.2508
368.7141	0.2529
368.9221	0.2532
369.1301	0.2574
369.3381	0.2542
369.5461	0.247
369.754	0.2503
369.962	0.2609
370.1699	0.2574
370.3778	0.2597
370.5857	0.254
370.7936	0.263
371.0015	0.251
371.2093	0.2556
371.4172	0.2587
371.625	0.2707
371.8328	0.2607
372.0406	0.2696
372.2484	0.2573
372.4562	0.2649
372.664	0.2663
372.8717	0.2717
373.0795	0.2656
373.2872	0.2764
373.4949	0.2848
373.7026	0.2753
373.9103	0.2661
374.118	0.266
374.3256	0.2867
374.5333	0.2823
374.7409	0.2664
374.9485	0.2633
375.1561	0.2835
375.3637	0.2709
375.5713	0.2811
375.7789	0.2816
375.9864	0.2858
376.194	0.2847
376.4015	0.2901
376.609	0.2822
376.8165	0.2857
377.024	0.2819
377.2315	0.2864
377.4389	0.2735
377.6464	0.2861
377.8538	0.2938
378.0612	0.2797
378.2686	0.2879
378.476	0.2893
378.6834	0.293
378.8908	0.2887
379.0981	0.2963
379.3055	0.3003
379.5128	0.2935
379.7201	0.3036
379.9274	0.2881
380.1347	0.2997
380.342	0.3009
380.5492	0.2986
380.7565	0.2982
380.9637	0.293
381.1709	0.2988
381.3781	0.2985
381.5853	0.3015
381.7925	0.3117
381.9997	0.3049
382.2068	0.2953
382.4139	0.3069
382.6211	0.3109
382.8282	0.3205
383.0353	0.3028
383.2424	0.3176
383.4494	0.3125
383.6565	0.3064
383.8635	0.3202
384.0706	0.3095
384.2776	0.3224
384.4846	0.3161
384.6916	0.3151
384.8986	0.3195
385.1055	0.3174
385.3125	0.3171
385.5194	0.3201
385.7263	0.3096
385.9333	0.311
386.1402	0.3264
386.347	0.3151
386.5539	0.3134
386.7608	0.3129
386.9676	0.313
387.1744	0.3171
387.3813	0.3198
387.5881	0.3184
387.7948	0.3062
388.0016	0.3176
388.2084	0.3165
388.4151	0.3136
388.6219	0.3109
388.8286	0.3256
389.0353	0.312
389.242	0.3109
389.4487	0.3093
389.6553	0.304
389.862	0.299
390.0686	0.311
390.2753	0.3035
390.4819	0.3104
390.6885	0.2983
390.8951	0.3068
391.1016	0.3113
391.3082	0.2964
391.5147	0.3044
391.7213	0.2985
391.9278	0.2972
392.1343	0.3024
392.3408	0.2891
392.5473	0.2925
392.7537	0.2986
392.9602	0.2963
393.1666	0.287
393.373	0.2878
393.5794	0.2882
393.7858	0.2882
393.9922	0.2894
394.1986	0.2893
394.4049	0.2765
394.6113	0.2869
394.8176	0.2835
395.0239	0.2698
395.2302	0.2754
395.4365	0.2814
395.6428	0.2776
395.8491	0.2736
396.0553	0.2753
396.2615	0.2722
396.4678	0.2728
396.674	0.2854
396.8802	0.2722
397.0863	0.2679
397.2925	0.2729
397.4987	0.2702
397.7048	0.2767
397.9109	0.2683
398.117	0.2686
398.3231	0.2709
398.5292	0.2747
398.7353	0.2652
398.9413	0.2722
399.1474	0.2776
399.3534	0.2744
399.5594	0.2658
399.7654	0.2755
399.9714	0.2655
400.1774	0.2634
400.3833	0.2774
400.5893	0.2725
400.7952	0.2705
401.0011	0.261
401.207	0.2733
401.4129	0.2683
401.6188	0.2589
401.8247	0.2626
402.0305	0.2508
402.2364	0.2733
402.4422	0.2694
402.648	0.2775
402.8538	0.2806
403.0596	0.2644
403.2654	0.269
403.4711	0.2673
403.6768	0.2709
403.8826	0.2614
404.0883	0.259
404.294	0.2709
404.4997	0.2646
404.7054	0.2669
404.911	0.2631
405.1167	0.265
405.3223	0.2683
405.5279	0.2659
405.7335	0.2659
405.9391	0.2659
406.1447	0.2863
406.3502	0.2772
406.5558	0.2678
406.7613	0.27
406.9668	0.2694
407.1724	0.2752
407.3778	0.2676
407.5833	0.2617
407.7888	0.2694
407.9942	0.2655
408.1997	0.2735
408.4051	0.257
408.6105	0.2712
408.8159	0.2663
409.0213	0.2703
409.2267	0.2645
409.432	0.2803
409.6374	0.2664
409.8427	0.2694
410.048	0.2589
410.2533	0.2701
410.4586	0.2663
410.6639	0.2638
410.8691	0.2771
411.0744	0.2687
411.2796	0.2732
411.4848	0.2658
411.69	0.2612
411.8952	0.2687
412.1004	0.261
412.3056	0.2698
412.5107	0.2756
412.7158	0.268
412.921	0.2631
413.1261	0.2692
413.3312	0.2678
413.5362	0.2628
413.7413	0.2665
413.9464	0.2603
414.1514	0.2638
414.3564	0.2556
414.5614	0.2663
414.7664	0.2637
414.9714	0.268
415.1764	0.2607
415.3813	0.2508
415.5863	0.2539
415.7912	0.2649
415.9961	0.255
416.201	0.2656
416.4059	0.2553
416.6108	0.2573
416.8156	0.2436
417.0205	0.261
417.2253	0.2619
417.4301	0.2629
417.6349	0.2595
417.8397	0.2612
418.0445	0.2624
418.2492	0.2569
418.454	0.2613
418.6587	0.2579
418.8634	0.2581
419.0681	0.2515
419.2728	0.252
419.4775	0.257
419.6822	0.2483
419.8868	0.2636
420.0915	0.2671
420.2961	0.2481
420.5007	0.2473
420.7053	0.2606
420.9099	0.2424
421.1144	0.2342
421.319	0.2489
421.5235	0.2432
421.728	0.2495
421.9325	0.2435
422.137	0.246
422.3415	0.236
422.546	0.2447
422.7504	0.2431
422.9549	0.2362
423.1593	0.2457
423.3637	0.2388
423.5681	0.2389
423.7725	0.2377
423.9769	0.2336
424.1812	0.2371
424.3856	0.2402
424.5899	0.2319
424.7942	0.2189
424.9985	0.2284
425.2028	0.2354
425.4071	0.2186
425.6113	0.2248
425.8156	0.2263
426.0198	0.2237
426.224	0.2264
426.4282	0.2286
426.6324	0.2259
426.8366	0.2279
427.0407	0.2234
427.2449	0.222
427.449	0.2088
427.6531	0.2122
427.8572	0.2222
428.0613	0.215
428.2654	0.225
428.4694	0.2096
428.6735	0.2038
428.8775	0.2093
429.0815	0.2082
429.2855	0.2044
429.4895	0.2002
429.6935	0.1916
429.8975	0.2027
430.1014	0.2044
430.3053	0.2004
430.5093	0.1983
430.7132	0.1957
430.9171	0.1939
431.1209	0.1981
431.3248	0.1843
431.5286	0.1817
431.7325	0.1848
431.9363	0.1889
432.1401	0.1827
432.3439	0.1771
432.5477	0.182
432.7514	0.1698
432.9552	0.1735
433.1589	0.1677
433.3627	0.1804
433.5664	0.1766
433.7701	0.1685
433.9737	0.1702
434.1774	0.1708
434.3811	0.1637
434.5847	0.1655
434.7883	0.154
434.9919	0.1617
435.1955	0.1605
435.3991	0.1526
435.6027	0.1542
435.8062	0.1549
436.0098	0.1574
436.2133	0.152
436.4168	0.1511
436.6203	0.1361
436.8238	0.1402
437.0272	0.1367
437.2307	0.1346
437.4341	0.1334
437.6375	0.133
437.841	0.1391
438.0443	0.1357
438.2477	0.1318
438.4511	0.1329
438.6545	0.1284
438.8578	0.1269
439.0611	0.1293
439.2644	0.1138
439.4677	0.108
439.671	0.1137
439.8743	0.1117
440.0775	0.1238
440.2808	0.1218
440.484	0.112
440.6872	0.1053
440.8904	0.1063
441.0936	0.1158
441.2967	0.0996
441.4999	0.1104
441.703	0.1007
441.9062	0.1015
442.1093	0.1033
442.3124	0.0991
442.5155	0.0965
442.7185	0.0882
442.9216	0.0969
443.1246	0.092
443.3276	0.0862
443.5307	0.0876
443.7337	0.0901
443.9366	0.0877
444.1396	0.0866
444.3426	0.0872
444.5455	0.0742
444.7484	0.0741
444.9513	0.081
445.1542	0.0774
445.3571	0.0731
445.56	0.0714
445.7628	0.0697
445.9657	0.0765
446.1685	0.0808
446.3713	0.0611
446.5741	0.06
446.7769	0.0723
446.9797	0.073
447.1824	0.064
447.3852	0.0639
447.5879	0.0664
447.7906	0.0537
447.9933	0.0624
448.196	0.0593
448.3986	0.0654
448.6013	0.0573
448.8039	0.0562
449.0066	0.0543
449.2092	0.0468
449.4118	0.055
449.6143	0.0523
449.8169	0.0509
450.0195	0.0514
450.222	0.0509
450.4245	0.057
450.627	0.044
450.8295	0.0492
451.032	0.0495
451.2345	0.0411
451.4369	0.0408
451.6394	0.0456
451.8418	0.0434
452.0442	0.0429
452.2466	0.0462
452.449	0.0397
452.6513	0.037
452.8537	0.0416
453.056	0.0329
453.2583	0.0407
453.4607	0.0342
453.663	0.0472
453.8652	0.0312
454.0675	0.0329
454.2697	0.027
454.472	0.0325
454.6742	0.0269
454.8764	0.0341
455.0786	0.0298
455.2808	0.0337
455.4829	0.033
455.6851	0.0271
455.8872	0.034
456.0893	0.0294
456.2915	0.0228
456.4935	0.0224
456.6956	0.0241
456.8977	0.0261
457.0997	0.028
457.3018	0.0243
457.5038	0.0303
457.7058	0.024
457.9078	0.0317
458.1098	0.0147
458.3117	0.0271
458.5137	0.0287
458.7156	0.0237
458.9175	0.0153
459.1194	0.0234
459.3213	0.0155
459.5232	0.011
459.725	0.0108
459.9269	0.0211
460.1287	0.0159
460.3305	0.0155
460.5323	0.0188
460.7341	0.0219
460.9359	0.0149
461.1376	0.0161
461.3394	0.0151
461.5411	0.0174
461.7428	0.0252
461.9445	0.0052
462.1462	0.0233
462.3479	0.013
462.5495	0.0166
462.7512	0.007
462.9528	0.0133
463.1544	0.003
463.356	0.0223
463.5576	0.0114
463.7592	0.0008
463.9607	0.017
464.1623	0.0208
464.3638	0.0088
464.5653	0.014
464.7668	0.0071
464.9683	0.0161
465.1697	0.0153
465.3712	0.0056
465.5726	0.0148
465.7741	0.0038
465.9755	0.023
466.1769	0.0118
466.3782	0.0094
466.5796	0.0075
466.7809	0.0131
466.9823	0.0067
467.1836	0.0181
467.3849	0.0044
467.5862	0.0042
467.7875	0.0142
467.9887	0.0052
468.19	0.0109
468.3912	0.0142
468.5924	0.0149
468.7936	-0.0008
468.9948	0.0125
469.196	0.0018
469.3972	0.0191
469.5983	-0.0012
469.7994	0.0052
470.0006	0.0102
470.2017	0.0083
470.4027	-0.0026
470.6038	0.0017
470.8049	-0.0027
471.0059	0.0084
471.2069	0.0118
471.408	-0.0031
471.6089	0.0076
471.8099	-0.0005
472.0109	0.001
472.2119	0.0219
472.4128	0.0131
472.6137	0.0078
472.8146	0.0037
473.0155	0.0048
473.2164	-0.0024
473.4173	0.0083
473.6181	0.013
473.819	-0.0007
474.0198	0.0058
474.2206	0.0037
474.4214	0.0063
474.6222	0.0115
474.8229	0.006
475.0237	0.0013
475.2244	0.0062
475.4251	0.0048
475.6258	-0.0021
475.8265	0.0081
476.0272	0.0018
476.2278	0.0049
476.4285	0.0047
476.6291	0.0073
476.8297	0.0038
477.0303	0.0033
477.2309	-0.0099
477.4315	0.0101
477.632	-0.0002
477.8326	-0.0026
478.0331	0.0012
478.2336	0.0155
478.4341	-0.0007
478.6346	0.0083
478.8351	0.0047
479.0355	0.0059
479.236	0.0057
479.4364	0.0007
479.6368	0.0052
479.8372	0.0081
480.0376	0.0096
480.2379	0.0047
480.4383	0.0013
480.6386	-0.0045
480.8389	0.0112
481.0392	0.0018
481.2395	0.0153
481.4398	0.0082
481.6401	-0.0022
481.8403	-0.0001
482.0405	-0.0017
482.2408	0.0106
482.441	0.0025
482.6411	0.0006
482.8413	-0.0039
483.0415	0.0099
483.2416	0.0011
483.4417	0.004
483.6419	-0.0009
483.8419	0.0047
484.042	-0
484.2421	-0.0028
484.4422	0.004
484.6422	0.005
484.8422	0.0001
485.0422	0.0001
485.2422	0.003
485.4422	0.0009
485.6422	0.0013
485.8421	0.0002
486.042	0.0066
486.242	0.0015
486.4419	0.0093
486.6417	0.0036
486.8416	-0.0001
487.0415	0.0012
487.2413	0.0034
487.4411	0.0001
487.641	0.0035
487.8408	0.0024
488.0405	0.0065
488.2403	-0.0011
488.4401	-0.0063
488.6398	0.0048
488.8395	-0.0007
489.0392	0.0023
489.2389	0.0059
489.4386	0.0064
489.6383	-0.0039
489.8379	-0.001
490.0376	0.0012
490.2372	-0
490.4368	0.0025
490.6364	0.0094
490.836	0.0007
491.0355	-0.0016
491.2351	0.0048
491.4346	0.0051
491.6341	-0.0033
491.8336	-0.0044
492.0331	-0.0024
492.2326	0.0001
492.432	0.0046
492.6315	0.0027
492.8309	0.007
493.0303	-0.0076
493.2297	-0.0036
493.4291	0.0015
493.6284	-0.002
493.8278	0.0095
494.0271	-0.0007
494.2264	0.0045
494.4257	-0.0001
494.625	0.0052
494.8243	0.0107
495.0236	0.0028
495.2228	-0.0049
495.422	0.0083
495.6213	-0.0026
495.8205	0.0003
496.0196	0.0042
496.2188	-0.0019
496.418	-0.0032
496.6171	0
496.8162	0.0053
497.0153	0.0076
497.2144	0.0059
497.4135	0.0059
497.6126	-0.0071
497.8116	-0.0015
498.0107	-0.0034
498.2097	0.016
498.4087	0.0054
498.6077	0.0021
498.8067	0.0075
499.0056	0.0017
499.2046	0.0019
499.4035	-0.0129
499.6024	-0.0026
499.8013	-0.0032
500.0002	-0.0005
500.199	0.0049
500.3979	0.0087
500.5967	-0.0063
500.7956	-0.0055
500.9944	0.0088
501.1932	0.0054
501.3919	0.0083
501.5907	-0.0008
501.7895	-0.005
501.9882	-0.007
502.1869	0.0042
502.3856	-0.0035
502.5843	-0.0051
502.783	0.0073
502.9816	-0.0016
503.1803	0.0074
503.3789	0.0123
503.5775	0.003
503.7761	-0.0071
503.9747	-0.0032
504.1732	0.0014
504.3718	0.0005
504.5703	-0.0029
504.7689	-0.0061
504.9674	0.0003
505.1658	0.0035
505.3643	-0.0008
505.5628	0.0026
505.7612	0.003
505.9597	0.003
506.1581	-0.0098
506.3565	-0.0092
506.5549	0.0014
506.7532	0
506.9516	-0.0017
507.1499	0.0016
507.3482	0.0171
507.5465	-0.0048
507.7448	0.009
507.9431	0.0004
508.1414	-0.0011
508.3396	0.006
508.5379	0.0057
508.7361	0.0049
508.9343	0.0071
509.1325	0.0049
509.3306	-0.0089
509.5288	0.0067
509.7269	0.0049
509.9251	-0.0022
510.1232	-0.0117
510.3213	-0.0065
510.5193	0.0052
510.7174	0.0031
510.9154	-0.0009
511.1135	0.004
511.3115	0.0032
511.5095	0.0077
511.7075	0.0025
511.9055	0.0124
512.1034	0.005
512.3014	0.0006
512.4993	-0.0004
512.6972	-0.0059
512.8951	0.0096
513.093	-0.0008
513.2908	0.0015
513.4887	0.0113
513.6865	-0.003
513.8844	0.001
514.0822	-0.0003
514.2799	-0.0032
514.4777	0.0061
514.6755	0.008
514.8732	-0.0014
515.0709	0.0033
515.2687	-0.0004
515.4664	-0.0122
515.664	0
515.8617	0.0084
516.0594	0.0008
516.257	0.0096
516.4546	0.0034
516.6522	-0.0005
516.8498	0.0035
517.0474	-0.0008
517.2449	-0.0021
517.4425	-0.0063
517.64	0.0083
517.8375	0.0024
518.035	-0.0036
518.2325	-0.0011
518.43	-0.0021
518.6274	-0.0104
518.8249	-0.0006
519.0223	-0.0028
519.2197	0.0029
519.4171	-0.0032
519.6145	-0.0112
519.8118	-0.0023
520.0092	0.0018
520.2065	0.0063
520.4038	0.002
520.6011	0.0084
520.7984	0.0026
520.9956	-0.0091
521.1929	-0.0001
521.3901	0.0002
521.5874	0.0019
521.7846	0.0017
521.9818	-0.0053
522.1789	0.0191
522.3761	0.0021
522.5732	-0.008
522.7704	0.0003
522.9675	-0.0024
523.1646	0.0233
523.3617	-0
523.5587	-0.0018
523.7558	0.008
523.9528	0.0026
524.1498	-0.0002
524.3468	0.0045
524.5438	-0.0063
524.7408	-0.0063
524.9378	0.0126
525.1347	0.0028
525.3316	0.0063
525.5285	0.0024
525.7254	-0.0083
525.9223	-0.0015
526.1192	0.0011
526.316	-0.0024
526.5129	0.0051
526.7097	-0.0109
526.9065	0.0029
527.1033	0.0098
527.3	0.0071
527.4968	-0.0027
527.6935	0.0077
527.8903	0.0133
528.087	0.0014
528.2837	0.0042
528.4804	0.0054
528.677	0.0035
528.8737	0.0074
529.0703	0.0067
529.2669	0.0054
529.4635	0.0125
529.6601	0.0029
529.8567	-0.0006
530.0532	0.0087
530.2498	-0.0033
530.4463	0.0077
530.6428	0.0049
530.8393	-0.0031
531.0358	-0.0003
531.2322	0.0057
531.4287	-0.0005
531.6251	-0.0029
531.8215	0.0049
532.0179	-0.0113
532.2143	0.0073
532.4107	0.0091
532.607	0.0014
532.8034	0.004
532.9997	0.0034
533.196	0.0137
533.3923	0.0013
533.5886	0.0013
533.7848	-0.0104
533.9811	-0.0112
534.1773	0.0031
534.3735	0.0095
534.5697	0.0054
534.7659	0.0079
534.9621	0.006
535.1582	0.0004
535.3544	0.0071
535.5505	0.0091
535.7466	0.003
535.9427	-0.0027
536.1387	0.0069
536.3348	0.0046
536.5308	0.0069
536.7269	-0.0104
536.9229	-0.0022
537.1189	0.0043
537.3148	-0.0097
537.5108	-0.0018
537.7068	0.0153
537.9027	0.0024
538.0986	0.001
538.2945	0.0056
538.4904	-0.0013
538.6863	0.0116
538.8821	-0.0072
539.078	-0.0069
539.2738	-0.0101
539.4696	0.0097
539.6654	-0.0092
539.8611	0.0056
540.0569	0.0015
540.2526	-0.0024
540.4484	-0.0092
540.6441	0.0061
540.8398	0.0056
541.0355	0.0065
541.2311	0.0026
541.4268	0.0045
541.6224	0.0035
541.818	-0.0021
542.0136	-0.0057
542.2092	0.0016
542.4048	0.003
542.6003	0.0022
542.7959	0.0001
542.9914	0.0071
543.1869	0.0003
543.3824	-0.001
543.5779	0.0126
543.7734	0.0073
543.9688	-0.0014
544.1642	0.0086
544.3596	0.0022
544.555	0.0052
544.7504	-0.0015
544.9458	-0.0012
545.1411	0.0063
545.3365	0.0062
545.5318	-0.0007
545.7271	0.0172
545.9224	-0.0062
546.1177	0.014
546.3129	-0.001
546.5081	-0.0079
546.7034	0.0009
546.8986	-0.0029
547.0938	-0.0072
547.289	0.0047
547.4841	0.0027
547.6793	-0.0026
547.8744	-0.0069
548.0695	0.0051
548.2646	-0.0078
548.4597	-0
548.6548	0.0052
548.8498	0.0032
549.0448	0.0079
549.2399	0.0022
549.4349	0.0009
549.6298	0.0077
549.8248	-0.0046
550.0198	0.0098
550.2147	-0.0105
550.4096	0.0059
550.6045	-0.0005
550.7994	0.0062
550.9943	0.0006
551.1892	-0.0029
551.384	-0.0018
551.5788	0.0157
551.7737	-0.0091
551.9685	0.0123
552.1632	-0.0016
552.358	0.0082
552.5528	0.0032
552.7475	-0.0053
552.9422	-0.0042
553.1369	0.0057
553.3316	-0.0085
553.5263	-0.0038
553.7209	-0.0069
553.9156	0.0081
554.1102	-0.0034
554.3048	0.0071
554.4994	0.0057
554.694	0.0066
554.8885	-0.0027
555.0831	0.0107
555.2776	0.0044
555.4721	-0.0124
555.6666	0.0038
555.8611	-0.0048
556.0555	0.0032
556.25	0.0021
556.4444	-0.0049
556.6388	0.0013
556.8332	-0.0052
557.0276	0.0148
557.222	-0.0069
557.4163	0.0049
557.6107	0.0004
557.805	-0.0078
557.9993	0.0011
558.1936	0.0063
558.3879	-0.001
558.5821	-0.0094
558.7764	0.0098
558.9706	-0.0019
559.1648	0.0063
559.359	0.0125
559.5532	-0.0069
559.7473	0.0146
559.9415	0.0014
560.1356	-0.0065
560.3297	0.0035
560.5238	0.0015
560.7179	-0.0032
560.9119	0.0062
561.106	0.0082
561.3	0.0003
561.494	0.0029
561.688	0.0022
561.882	0.0017
562.076	0.008
562.2699	0.0068
562.4639	0.0027
562.6578	0.0063
562.8517	-0.0015
563.0456	-0.0054
563.2395	0.0025
563.4333	0.0028
563.6272	0.0026
563.821	0.0008
564.0148	-0.0023
564.2086	0.0025
564.4024	-0.005
564.5961	0.0084
564.7899	0.0096
564.9836	0.0022
565.1773	0.0074
565.371	0.0058
565.5647	-0.0113
565.7584	0.0036
565.952	0.0025
566.1456	0.0027
566.3393	0.0105
566.5329	0.0008
566.7264	0.0048
566.92	0.0021
567.1136	-0.002
567.3071	-0.0014
567.5006	-0.005
567.6941	0.0109
567.8876	-0.0044
568.0811	0.0005
568.2745	0.0021
568.468	0.008
568.6614	0.005
568.8548	-0.0047
569.0482	-0.0002
569.2416	-0.001
569.4349	-0.0003
569.6283	0.0015
569.8216	0.0027
570.0149	0.0008
570.2082	-0.0004
570.4015	-0
570.5947	0.0008
570.788	-0.005
570.9812	-0.0013
571.1744	-0.0025
571.3676	-0.0034
571.5608	-0.0021
571.754	-0.0008
571.9471	0.0076
572.1402	0.0025
572.3333	-0.002
572.5264	0.0054
572.7195	0.0018
572.9126	0.0014
573.1057	0.0013
573.2987	-0.0016
573.4917	0.0007
573.6847	0.0003
573.8777	0.0008
574.0707	-0.0031
574.2636	-0.0011
574.4566	0.0011
574.6495	0.0072
574.8424	-0.0001
575.0353	0.0025
575.2281	0.0039
575.421	-0.0033
575.6138	-0.0007
575.8067	0.0017
575.9995	-0.0003
576.1923	0.0038
576.385	0
576.5778	-0.0028
576.7706	0.0069
576.9633	0.0021
577.156	0.0012
577.3487	-0.0003
577.5414	-0.0016
577.734	-0.0018
577.9267	-0.0003
578.1193	0.0034
578.3119	-0.0047
578.5045	-0.0051
578.6971	-0.0019
578.8897	0.0018
579.0822	0.0068
579.2747	-0.0066
579.4673	-0.0031
579.6598	-0.0053
579.8522	0.005
580.0447	0.0025
580.2372	0.0071
580.4296	-0.0037
580.622	0.0008
580.8144	0.0005
581.0068	0.001
581.1992	0.0035
581.3915	-0.0015
581.5839	0.006
581.7762	0.0008
581.9685	-0.0001
582.1608	0.0008
582.353	-0.0031
582.5453	0.0067
582.7375	0.0024
582.9298	-0.0001
583.122	-0.0035
583.3142	0.005
583.5063	-0.0062
583.6985	0.0013
583.8906	-0.0061
584.0827	-0.0005
584.2749	-0.0007
584.4669	0.0025
584.659	-0.0049
584.8511	0.0006
585.0431	0.0011
585.2352	-0.0043
585.4272	-0.0004
585.6192	0.0015
585.8111	-0.0029
586.0031	0.002
586.195	0.0015
586.387	-0.0019
586.5789	0.0027
586.7708	-0.0006
586.9627	0.0013
587.1545	0.0045
587.3464	0.0043
587.5382	0.0047
587.73	-0.0005
587.9218	0.0011
588.1136	-0.0013
588.3053	0.0003
588.4971	0.0042
588.6888	0.002
588.8805	0.0097
589.0722	-0.0029
589.2639	-0.0008
589.4556	-0.0029
589.6472	-0.002
589.8389	0.0002
590.0305	0.0032
590.2221	0.0073
590.4137	0.0013
590.6052	-0.0033
590.7968	-0.003
590.9883	0.0035
591.1798	-0.0004
591.3713	-0.001
591.5628	0.0001
591.7543	0.0046
591.9458	0.0022
592.1372	-0.0045
592.3286	-0.0034
592.52	-0.0007
592.7114	-0.0062
592.9028	-0.0067
593.0941	-0.0017
593.2855	-0.0001
593.4768	0.0021
593.6681	0.0016
593.8594	-0.0049
594.0506	0.0038
594.2419	-0.0021
594.4331	-0.004
594.6244	0.0018
594.8156	-0.0005
595.0067	0.0045
595.1979	-0.0072
595.3891	-0.0023
595.5802	0.0011
595.7713	0.0032
595.9624	0.0038
596.1535	-0.0043
596.3446	-0.0004
596.5357	-0.004
596.7267	0.004
596.9177	0.0035
597.1087	0.0011
597.2997	0.0051
597.4907	0.0008
597.6817	0.0011
597.8726	0.0073
598.0635	0.0013
598.2544	-0.0064
598.4453	-0.0005
598.6362	-0.0049
598.827	0.0044
599.0179	0.0006
599.2087	-0.0033
599.3995	-0.0006
599.5903	-0.0004
599.7811	-0.0012
599.9718	-0.0055
600.1626	0.0036
600.3533	-0.0009
600.544	-0.0009
600.7347	0.0017
600.9254	0.0038
601.116	-0.0011
601.3067	0.0038
601.4973	0.0108
601.6879	-0.0045
601.8785	-0.0018
602.0691	-0.0007
602.2596	0.0043
602.4502	-0.0029
602.6407	0.0017
602.8312	0.0037
603.0217	-0.0001
603.2122	0.0086
603.4027	-0.006
603.5931	0.003
603.7835	-0.0023
603.9739	-0.0051
604.1643	0.0001
604.3547	0.0035
604.5451	0.0012
604.7354	-0.0042
604.9257	-0.0006
605.116	-0.0057
605.3063	-0.001
605.4966	0.0048
605.6869	-0.0011
605.8771	0.0026
606.0673	-0.0051
606.2575	-0.0037
606.4477	0.0028
606.6379	-0.0069
606.8281	-0.0076
607.0182	-0.0045
607.2083	-0.0002
607.3985	0.0034
607.5885	-0.002
607.7786	0.006
607.9687	-0.0022
608.1587	-0.0026
608.3488	0.0021
608.5388	-0.002
608.7288	-0.0013
608.9187	0.0077
609.1087	-0.0029
609.2986	0.0001
609.4886	0.0019
609.6785	0.0044
609.8684	-0.0011
610.0582	0.0031
610.2481	-0.0018
610.4379	-0.0019
610.6278	-0.006
610.8176	-0.0011
611.0074	-0.0006
611.1971	0.0068
611.3869	-0.0012
611.5766	-0.0008
611.7664	0.0113
611.9561	-0.008
612.1458	-0.002
612.3354	0.0023
612.5251	-0.0024
612.7147	0.0022
612.9044	-0.002
613.094	0.0013
613.2836	0.003
613.4731	0.0029
613.6627	0.0025
613.8522	-0.0065
614.0417	0.0034
614.2313	-0.0091
614.4207	-0.0008
614.6102	-0.004
614.7997	0.0017
614.9891	0.0029
615.1785	-0.002
615.3679	-0.0013
615.5573	-0.0003
615.7467	-0.0005
615.9361	-0.0077
616.1254	-0.0012
616.3147	-0.0009
616.504	0.0006
616.6933	0.0036
616.8826	0.0083
617.0718	-0.004
617.2611	-0.0095
617.4503	-0.0076
617.6395	-0.0054
617.8287	-0.0018
618.0179	-0.0114
618.207	-0.0019
618.3961	-0.0034
618.5853	0.0076
618.7744	0.003
618.9634	0.0025
619.1525	-0.0008
619.3416	-0.0024
619.5306	0.0055
619.7196	0.0002
619.9086	0.0003
620.0976	-0.0011
620.2866	0.0026
620.4755	0.0065
620.6645	0.0062
620.8534	0.0035
621.0423	-0.0092
621.2312	-0.0077
621.42	0.0003
621.6089	-0.0028
621.7977	0.0015
621.9865	0.0037
622.1753	0.0064
622.3641	-0.0166
622.5529	-0.0067
622.7416	-0.0043
622.9303	-0.0016
623.1191	0.0004
623.3078	0.0023
623.4964	-0.0048
623.6851	0.0038
623.8737	0.0081
624.0624	0.0046
624.251	-0.0006
624.4396	-0.0009
624.6282	0.0015
624.8167	0.008
625.0053	0.0024
625.1938	0.0031
625.3823	-0.0049
625.5708	0.0005
625.7593	-0.004
625.9477	-0.0042
626.1362	-0.0007
626.3246	0.0024
626.513	-0.0016
626.7014	0.0074
626.8898	0.0054
627.0781	0.001
627.2665	0.0111
627.4548	-0.0025
627.6431	-0.0097
627.8314	0.0112
628.0197	0.0035
628.2079	-0.0066
628.3962	0.0011
628.5844	0.0019
628.7726	-0.0063
628.9608	0.0038
629.1489	0.0015
629.3371	-0.0168
629.5252	0.0079
629.7134	0.0105
629.9015	-0.0193
630.0895	0.0045
630.2776	0.0039
630.4657	0.0036
630.6537	-0.0082
630.8417	-0.0078
631.0297	-0.0021
631.2177	0.0016
631.4057	-0.0029
631.5936	-0.0006
631.7815	0.0045
631.9695	0.0111
632.1574	-0.003
632.3452	0.0054
632.5331	-0.0122
632.7209	0.0079
632.9088	0.0021
633.0966	-0.0012
633.2844	-0.0097
633.4722	0.0057
633.6599	-0.0177
633.8477	-0.0035
634.0354	0.0094
634.2231	0.0126
634.4108	0.0046
634.5985	-0.0016
634.7861	-0.0098
634.9738	0.0031
635.1614	0.0009
635.349	-0.0126
635.5366	0.006
635.7242	-0.014
635.9117	0.0191
636.0993	-0.0041
636.2868	-0.0032
636.4743	0.009
636.6618	-0.0027
636.8492	0.0029
637.0367	-0.0029
637.2241	0.0012
637.4115	-0.0003
637.5989	0.0191
637.7863	-0.012
637.9737	0.0058
638.161	0.0014
638.3484	0.0185
638.5357	-0.0159
638.723	-0.0073
638.9103	0.0088
639.0975	0.0116
639.2848	0.0114
639.472	-0.0035
639.6592	0.0182
639.8464	0.0167
640.0336	0.003
640.2208	0.0025
640.4079	0.0144
640.595	-0.0103
640.7821	-0.0013
640.9692	0.0074
641.1563	-0.0086
641.3434	0.0028
641.5304	0.0001
641.7174	0.0047
641.9044	0.008
642.0914	-0.0069
642.2784	0.0161
642.4653	0.0052
642.6523	0.001
642.8392	0.0078
643.0261	0.0074
643.213	0.0151
643.3999	0.0106
643.5867	0.0181
643.7735	0.0037
643.9604	-0.0112
644.1472	-0.0034
644.3339	-0.013
644.5207	-0.0089
644.7075	0.0043
644.8942	0.0052
645.0809	-0.0181
645.2676	-0.0021
645.4543	-0.0031
645.6409	-0.0287
645.8276	-0.012
646.0142	0.0204
646.2008	0.0067
646.3874	-0.0001
646.574	-0.0234
646.7605	-0.0013
646.9471	0.0096
647.1336	-0.0012
647.3201	-0.0056
647.5066	-0.0051
647.6931	0.0091
647.8795	0.0084
648.0659	-0.0187
648.2524	-0.013
648.4388	-0.0065
648.6252	-0.0053
648.8115	0.0141
648.9979	0.0052
649.1842	-0.0264
649.3705	0.0003
649.5568	-0.0065
649.7431	0.0056
649.9294	-0.0086
650.1156	-0.0026
650.3018	0.009
650.488	0.0017
650.6742	0.015
650.8604	-0.0022
651.0466	0.004
651.2327	-0.0072
651.4188	-0.0127
651.6049	-0.0093
651.791	0.0248
651.9771	0.0101
652.1632	0.0161
652.3492	-0.0046
652.5352	0.0119
652.7212	-0.011
652.9072	-0.002
653.0932	0.019
653.2791	-0.0041
653.465	-0.0101
653.651	0.0147
653.8369	0.0166
654.0227	-0.0119
654.2086	-0.0033
654.3944	-0.0165
654.5803	-0.0001
654.7661	-0.0063
654.9519	0.0004
655.1377	-0
655.3234	-0
655.5092	-0
655.6949	-0
655.8806	-0
656.0663	-0
656.2519	-0
656.4376	-0
656.6232	-0
656.8088	-0
656.9945	-0
657.18	-0
657.3656	-0
657.5511	-0
657.7367	-0
657.9222	-0
658.1077	-0
658.2932	-0
658.4786	-0
658.6641	-0
658.8495	-0
659.0349	-0
659.2203	-0
659.4057	0.0124
659.591	0.0442
659.7764	0.0161
659.9617	-0.0131
660.147	-0.0056
660.3323	-0.0125
660.5176	0.003
660.7028	-0.0006
660.888	0.002
661.0733	0.0141
661.2585	0.0106
661.4436	0.0107
661.6288	0.0067
661.8139	0.0121
661.9991	-0.0063
662.1842	0.004
662.3693	0.0045
662.5544	0.0136
662.7394	0.0209
662.9245	0.0088
663.1095	-0.0045
663.2945	0.0111
663.4795	-0.001
663.6644	0.0247
663.8494	0.0154
664.0343	-0.0044
664.2193	-0.0184
664.4042	-0.0297
664.589	-0.0123
664.7739	-0.01
664.9587	0.0004
665.1436	0.0131
665.3284	-0.0016
665.5132	-0.01
665.698	0.0016
665.8827	-0.03
666.0675	-0.0114
666.2522	0.0323
666.4369	0.0002
666.6216	-0.0055
666.8063	-0.0134
666.9909	-0.009
667.1756	0.0018
667.3602	0.0015
667.5448	0.0029
667.7294	-0.0117
667.9139	0.0066
668.0985	-0.0013
668.283	0.0143
668.4675	0.0059
668.652	-0.004
668.8365	0.0064
669.0209	0.0093
669.2054	0.0011
669.3898	0.0002
669.5742	0.011
669.7586	0.0166
669.943	-0.0198
670.1273	0.0106
670.3117	0.0142
670.496	0.0109
670.6803	0.0123
670.8646	0.0243
671.0488	-0.0094
671.2331	0.0079
671.4173	-0.0007
671.6015	-0.0076
671.7857	-0.0207
671.9699	0.0013
672.1541	-0.0049
672.3382	0.0138
672.5223	0.0127
672.7064	-0.006
672.8905	-0.0066
673.0746	0.002
673.2587	0.0143
673.4427	0.0102
673.6267	-0.031
673.8107	-0.001
673.9947	-0.0121
674.1787	0.0206
674.3626	-0.0079
674.5465	0.0176
674.7304	-0.0306
674.9143	0.0192
675.0982	-0.0055
675.2821	0.0204
675.4659	-0.0118
675.6497	0.007
675.8335	0.006
676.0173	0.0116
676.2011	0.004
676.3849	-0.0115
676.5686	0.0053
676.7523	0.0126
676.936	-0.0188
677.1197	0.0153
677.3034	0.009
677.487	0.0257
677.6706	-0.0017
677.8542	0.015
678.0378	0.0224
678.2214	-0.011
678.405	0.0171
678.5885	-0.0049
678.772	-0.0035
678.9555	-0.0043
679.139	-0.011
679.3225	-0.0189
679.5059	-0.0051
679.6894	-0.0248
679.8728	-0.0148
680.0562	-0.0055
680.2395	-0.0122
680.4229	0.0001
680.6062	0.0025
680.7896	0.0118
680.9729	0.0178
681.1562	-0.0105
681.3394	0.0075
681.5227	-0.0296
681.7059	-0.0102
681.8891	0.0012
682.0723	-0.0304
682.2555	-0.002
682.4387	0.0108
682.6218	-0.0098
682.805	-0.0078
682.9881	-0.0043
683.1712	0.0043
683.3542	-0.0064
683.5373	0.0248
683.7203	0.0112
683.9034	0.0041
684.0864	-0.007
684.2694	0.0027
684.4523	-0.0138
684.6353	-0.0079
684.8182	-0.0005
685.0011	0.0027
685.184	0.0135
685.3669	-0.0154
685.5498	0.0008
685.7326	-0.0068
685.9154	0.0064
686.0982	0.0007
686.281	0.0154
686.4638	0.0059
686.6465	0.0125
686.8293	-0.0026
687.012	0.0003
687.1947	0.0046
687.3774	0.0012
687.56	0.0108
687.7427	-0.0049
687.9253	0.0069
688.1079	0.0138
688.2905	0.0132
688.4731	0.0323
688.6556	-0.0084
688.8382	0.0065
689.0207	-0.0004
689.2032	-0.0225
689.3857	-0.0243
689.5681	-0.005
689.7506	-0.0067
689.933	-0.0132
690.1154	-0.0099
690.2978	-0.0065
690.4802	0.0049
690.6626	0.0001
690.8449	-0.0142
691.0272	-0.0186
691.2095	0.0045
691.3918	-0.0105
691.5741	0.0094
691.7563	0.0083
691.9386	-0.0071
692.1208	-0.0118
692.303	0.0078
692.4852	0.0035
692.6673	-0.004
692.8495	-0.0068
693.0316	-0.0019
693.2137	0.0342
693.3958	0.0075
693.5778	-0.0052
693.7599	-0.0273
693.9419	0.0059
694.1239	-0.0199
694.3059	-0.0165
694.4879	-0.01
694.6699	0.0165
694.8518	0.0124
695.0337	0.0108
695.2157	0.0169
695.3975	0.0165
695.5794	-0.0132
695.7613	0.0406
695.9431	-0.011
696.1249	-0.0071
696.3067	0.0054
696.4885	-0.0126
696.6703	0.0069
696.852	-0.0075
697.0337	-0.0055
697.2154	0.0201
697.3971	0.0093
697.5788	0.0277
697.7605	-0.0056
697.9421	-0.0098
698.1237	-0.0022
698.3053	-0.0088
698.4869	0.0109
698.6685	0.0088
698.85	0.0031
699.0315	-0.0137
699.213	-0.0151
699.3945	0.0134
699.576	0.018
699.7575	-0.0084
699.9389	0.0006
700.1203	0.0081
700.3017	-0.0281
700.4831	0.0232
700.6645	0.0115
700.8458	0.0025
701.0271	0.0023
701.2084	-0.029
701.3897	0.0174
701.571	-0.008
701.7523	-0.0326
701.9335	0.0153
702.1147	0.0027
702.2959	-0.0083
702.4771	0.003
702.6583	-0.0188
702.8394	-0.0021
703.0205	-0.014
703.2016	0.0035
703.3827	-0.0013
703.5638	-0.0075
703.7449	0.0034
703.9259	0.0036
704.1069	-0.0037
704.2879	0.0193
704.4689	-0.0076
704.6499	-0.0473
704.8308	-0.0248
705.0117	-0.027
705.1927	0.0096
705.3735	0.0125
705.5544	0.0115
705.7353	0.0043
705.9161	0.0319
706.0969	0.0331
706.2777	-0.0026
706.4585	-0.009
706.6393	0.0069
706.82	-0.0223
707.0007	-0.0032
707.1815	0.0112
707.3621	0.0131
707.5428	0.0122
707.7235	0.009
707.9041	-0.0266
708.0847	-0.0066
708.2653	-0.0094
708.4459	0.0106
708.6265	-0.042
708.807	0.0212
708.9875	-0.0017
709.168	0.002
709.3485	0.0124
709.529	-0.0023
709.7095	-0.0064
709.8899	0.0187
710.0703	0.0074
710.2507	-0.0034
710.4311	-0.0105
710.6115	-0.0064
710.7918	-0.0082
710.9721	0.0075
711.1524	-0.0101
711.3327	-0.021
711.513	0.0246
711.6932	-0.0114
711.8735	0.0116
712.0537	-0.0103
712.2339	-0.0047
712.4141	0.0181
712.5942	0.019
712.7744	0.021
712.9545	0.0251
713.1346	-0.0021
713.3147	0.0304
713.4947	0.0061
713.6748	-0.011
713.8548	-0.0044
714.0348	0.0167
714.2148	-0.0095
714.3948	0.0145
714.5748	0.0048
714.7547	0.0083
714.9346	-0.0198
715.1145	-0.0028
715.2944	0.0156
715.4743	-0.0082
715.6541	0.0042
715.834	0.016
716.0138	0.0431
716.1936	0.0041
716.3733	-0.0073
716.5531	0.0155
716.7328	-0.0133
716.9126	-0.0062
717.0923	-0.0154
717.2719	0.0069
717.4516	-0.0197
717.6312	-0.022
717.8109	0.0096
717.9905	-0.0005
718.1701	-0.0034
718.3496	0.0038
718.5292	-0.0114
718.7087	0.0137
718.8882	-0.0005
719.0677	-0.014
719.2472	0.0351
719.4267	-0.0113
719.6061	0.0324
719.7856	0.0002
719.965	0.0282
720.1443	-0.0026
720.3237	0.0536
720.5031	-0.0088
720.6824	0.0119
720.8617	0.0194
721.041	0.0039
721.2203	-0.0096
721.3995	-0.0173
721.5788	0.013
721.758	-0.0098
721.9372	0.0023
722.1164	0.0126
722.2956	0.0157
722.4747	0.0132
722.6538	0.0073
722.8329	-0.0176
723.012	0.0301
723.1911	0.01
723.3702	-0.0345
723.5492	0.0042
723.7282	-0.0011
723.9072	-0.024
724.0862	-0.0021
724.2652	-0.0293
724.4441	-0.0006
724.623	-0.0265
724.8019	-0.0067
724.9808	0.0056
725.1597	-0.004
725.3385	0.0224
725.5174	0.048
725.6962	0.0158
725.875	-0.0103
726.0538	-0.0023
726.2325	-0.0063
726.4112	0.0027
726.59	0.0078
726.7687	-0.003
726.9474	-0.0114
727.126	-0.04
727.3047	-0.0064
727.4833	0.0134
727.6619	0.0226
727.8405	0.0016
728.0191	-0.0478
728.1976	-0.0374
728.3762	-0.0388
728.5547	0.0255
728.7332	0.0027
728.9116	-0.0266
729.0901	0.0093
729.2686	-0.0025
729.447	-0.0146
729.6254	0.0055
729.8038	-0.0213
729.9821	-0.0005
730.1605	-0.0144
730.3388	-0.0093
730.5171	-0.0035
730.6954	0.0317
730.8737	0.0282
731.0519	0.0054
731.2302	-0.0214
731.4084	0.0113
731.5866	-0.0053
731.7648	-0.0146
731.9429	0.0057
732.1211	-0.0068
732.2992	0.0004
732.4773	-0.0099
732.6554	-0.0079
732.8335	0.0133
733.0115	-0.0232
733.1896	-0.0015
733.3676	0.0004
733.5456	-0.0001
733.7235	0.018
733.9015	-0.0218
734.0794	0.0041
734.2574	0.0188
734.4353	-0.0151
734.6131	-0.0171
734.791	0.0142
734.9689	-0.0044
735.1467	-0.0082
735.3245	0.0177
735.5023	0.0135
735.68	-0.0046
735.8578	-0.0015
736.0355	0.0214
736.2132	-0.0094
736.3909	-0.0013
736.5686	-0.0103
736.7463	-0.0018
736.9239	0.0092
737.1015	-0.0029
737.2791	0.0099
737.4567	-0.0142
737.6343	0.0186
737.8118	-0.0075
737.9894	-0.0037
738.1669	0.0042
738.3444	-0.0002
738.5218	0.0296
738.6993	-0.0017
738.8767	-0.0019
739.0541	0.0329
739.2315	0.0048
739.4089	0.0224
739.5863	-0.0106
739.7636	0.0187
739.9409	0.0271
740.1182	-0.0092
740.2955	-0.0333
740.4728	0.0126
740.65	-0.0091
740.8272	-0.0276
741.0044	0.0386
741.1816	0.0369
741.3588	0.0158
741.5359	-0.0061
741.7131	0.0217
741.8902	-0.0152
742.0673	0.0148
742.2444	-0.0193
742.4214	-0.0136
742.5985	0.0111
742.7755	-0.0124
742.9525	0.0113
743.1295	-0.0237
743.3064	-0.0036
743.4834	-0.0093
743.6603	-0.0317
743.8372	0.0202
744.0141	0.0016
744.191	0.0012
744.3678	0.0103
744.5446	0.0173
744.7215	-0.0224
744.8982	0.0251
745.075	-0.0007
745.2518	0.0089
745.4285	-0.0163
745.6052	0.0153
745.7819	0.0007
745.9586	-0.0118
746.1353	0.0069
746.3119	-0.0142
746.4885	-0.0157
746.6651	-0.0318
746.8417	-0.0165
747.0183	-0.0072
747.1948	-0.0083
747.3714	-0.0007
747.5479	0.0019
747.7244	-0.0513
747.9008	-0.0034
748.0773	0.0339
748.2537	0.0196
748.4301	0.0239
748.6065	0.0007
748.7829	0.01
748.9593	0.0231
749.1356	-0.0058
749.3119	0.0049
749.4882	0.0052
749.6645	0.0062
749.8408	-0.0181
750.017	-0.0201
750.1933	0.0154
750.3695	0.0141
750.5457	-0.0178
750.7218	0.0055
750.898	-0.0182
751.0741	0.0072
751.2502	0.0113
751.4263	-0.0145
751.6024	0.0157
751.7784	-0.04
751.9545	-0.0233
752.1305	-0.0033
752.3065	0.0202
752.4825	-0.0123
752.6584	-0.001
752.8344	-0.0013
753.0103	-0.0139
753.1862	-0.0002
753.3621	-0.0213
753.5379	-0.0229
753.7138	-0.0239
753.8896	0.0417
754.0654	0.0013
754.2412	0.0081
754.417	0.0016
754.5927	0.0016
754.7685	-0.018
754.9442	0.0037
755.1199	0.0216
755.2956	-0.0098
755.4712	0.0061
755.6469	0.0031
755.8225	0.0118
755.9981	-0.0067
756.1736	0.014
756.3492	-0.0233
756.5248	-0.0035
756.7003	-0.0203
756.8758	-0.0073
757.0513	-0.0079
757.2267	0.0021
757.4022	-0.0055
757.5776	-0.0228
757.753	0.0015
757.9284	0.0031
758.1038	-0.0208
758.2791	-0.0104
758.4545	0.0049
758.6298	-0.0038
758.8051	0.0007
758.9803	-0.0038
759.1556	-0.002
759.3308	-0.0028
759.506	0.0112
759.6812	-0.0148
759.8564	-0.0078
760.0316	0.0166
760.2067	-0.0201
760.3819	0.0038
760.557	-0.0094
760.732	0.0081
760.9071	-0.0031
761.0821	0.0082
761.2572	-0.0007
761.4322	-0.0139
761.6072	-0.012
761.7821	0.0128
761.9571	-0.0076
762.132	-0.0038
762.3069	-0.004
762.4818	0.0057
762.6567	0.0265
762.8316	0.0214
763.0064	-0.0261
763.1812	-0.0167
763.356	-0.0178
763.5308	-0.0025
763.7055	-0.0023
763.8803	-0.0022
764.055	-0.0071
764.2297	-0.0082
764.4044	-0.0046
764.579	0.002
764.7537	-0.0033
764.9283	-0.0291
765.1029	0.0185
765.2775	-0.0189
765.4521	-0.0019
765.6266	-0.0015
765.8011	0.0101
765.9756	0.0144
766.1501	0.0354
766.3246	-0.0091
766.4991	-0.0245
766.6735	-0.0194
766.8479	-0.0057
767.0223	0.0041
767.1967	-0.0087
767.371	0.0207
767.5454	-0.0136
767.7197	-0.0059
767.894	-0.0343
768.0683	-0.0036
768.2425	-0.0027
768.4168	0.024
768.591	-0.0041
768.7652	-0.038
768.9394	0.0038
769.1135	0.0109
769.2877	0.0041
769.4618	0.0106
769.6359	-0.0298
769.81	0.0028
769.984	0.0059
770.1581	-0.0161
770.3321	-0.0096
770.5061	-0.0016
770.6801	0.0096
770.8541	-0.0192
771.028	-0.0136
771.202	-0.0498
771.3759	0.0177
771.5498	0.0091
771.7236	0.0063
771.8975	-0.0335
772.0713	-0.0299
772.2451	-0.0022
772.4189	-0.0072
772.5927	0.0157
772.7665	0.0082
772.9402	0.0051
773.1139	-0.0188
773.2876	0.0264
773.4613	-0.0032
773.635	-0.0263
773.8086	-0.0557
773.9822	0.0171
774.1558	-0.019
774.3294	-0.0484
774.503	0.0267
774.6765	0.0448
774.8501	0.0256
775.0236	0.0198
775.1971	-0.0158
775.3705	-0.0201
775.544	-0.023
775.7174	0.0059
775.8908	0.0087
776.0642	0.0047
776.2376	-0.0631
776.4109	-0.0154
776.5843	-0.0232
776.7576	0.0428
776.9309	0.0662
777.1041	-0.0239
777.2774	-0.0303
777.4506	-0.0031
777.6238	0.0223
777.797	-0.0294
777.9702	0.024
778.1434	0.0373
778.3165	-0.0009
778.4896	-0.0056
778.6627	0.0113
778.8358	0.0063
779.0089	-0.0067
779.1819	0.0288
779.3549	0.0176
779.5279	0.0029
779.7009	-0.0187
779.8739	-0.0454
780.0468	0.0123
780.2197	-0.0353
780.3926	-0.0108
780.5655	-0.0167
780.7384	0.0071
780.9112	-0.0104
781.0841	0.0062
781.2569	0.0065
781.4297	0.0204
781.6024	-0.0007
781.7752	0.0019
781.9479	-0.0194
782.1206	0.0078
782.2933	-0.0072
782.466	0.0096
782.6386	0.0242
782.8113	-0.0133
782.9839	-0.0065
783.1565	-0.0027
783.329	0.002
783.5016	-0.0322
783.6741	0.0079
783.8466	-0.0461
784.0191	0.0055
784.1916	-0.0156
784.3641	-0.0413
784.5365	0.0333
784.7089	0.0118
784.8813	0.0365
785.0537	-0.0004
785.2261	0.009
785.3984	-0.0176
785.5707	0.0348
785.743	-0.0596
785.9153	0.0493
786.0876	-0.04
786.2598	0.0359
786.432	-0.028
786.6042	0.0175
786.7764	-0.0051
786.9486	0.023
787.1207	0.0246
787.2928	0.0047
787.4649	0.0003
787.637	0.0512
787.8091	-0.0059
787.9811	0.0132
788.1532	0.0252
788.3252	-0.0219
788.4972	0.0003
788.6691	0.0355
788.8411	-0.0167
789.013	-0.0177
789.1849	0.0229
789.3568	0.0303
789.5287	-0.0413
789.7005	-0.007
789.8723	-0.0568
790.0442	-0.0254
790.2159	0.0472
790.3877	-0.0023
790.5595	0.0458
790.7312	-0.0058
790.9029	-0.0203
791.0746	0.0249
791.2463	-0.0038
791.4179	-0.0203
791.5896	-0.0147
791.7612	-0.0189
791.9328	-0.0387
792.1044	-0.0281
792.2759	-0.0222
792.4474	-0.0342
792.619	-0.0128
792.7905	0.0091
792.9619	0.0028
793.1334	-0.0263
793.3048	0.0025
793.4762	-0.0513
793.6476	-0.0004
793.819	-0.0004
793.9904	0.0317
794.1617	0.0273
794.333	-0.0282
794.5043	0.0187
794.6756	-0.008
794.8469	-0.0152
795.0181	-0.0056
795.1893	-0.0421
795.3605	-0.0456
795.5317	0.0208
795.7029	0.0228
795.874	-0.0154
796.0452	-0.0345
796.2163	0.0561
796.3873	-0.0018
796.5584	-0.0008
796.7294	-0.1019
796.9005	-0.0378
797.0715	-0.0568
797.2425	-0.0447
797.4134	0.0348
797.5844	0.0699
797.7553	-0.004
797.9262	-0.0049
798.0971	0.0382
798.2679	0.0006
798.4388	-0.0718
798.6096	0.0267
798.7804	-0.0375
798.9512	0.0789
799.122	0.0363
799.2927	-0.0519
799.4635	0.0219
799.6342	-0.0219
799.8049	0.0189
799.9755	-0.0524
800.1462	0.0401
800.3168	-0.0066
800.4874	-0.0118
800.658	0.0346
800.8286	0.0293
800.9991	-0.0051
801.1696	-0.0296
801.3402	-0.0904
801.5106	-0.0531
801.6811	0.0101
801.8516	-0.0458
802.022	-0.0654
802.1924	0.0231
802.3628	-0.0104
802.5332	-0.0683
802.7035	-0.0753
802.8739	0.0433
803.0442	0.049
803.2145	-0.0187
803.3847	-0.0286
803.555	-0.0065
803.7252	0.0654
803.8954	0.0594
804.0656	-0.045
804.2358	0.0275
804.4059	0.112
804.5761	0.0988
804.7462	-0.0245
804.9163	-0.0029
805.0864	-0.0479
805.2564	0.0122
805.4264	-0.0184
805.5965	0.0128
805.7665	0.0471
805.9364	0.0425
806.1064	-0.029
806.2763	0.0347
806.4462	0.0205
806.6161	-0.0108
806.786	-0.0279
806.9559	-0.0033
807.1257	-0.0244
807.2955	0.0402
807.4653	-0.0622
807.6351	-0.009
807.8048	0.0227
807.9746	-0.0938
808.1443	0.0457
808.314	0.0563
808.4837	-0.0432
808.6533	0.0506
808.8229	-0.0141
808.9926	-0.0516
809.1622	-0.0118
809.3317	-0.031
809.5013	0.1122
809.6708	0.0209
809.8403	-0.0431
810.0098	0.1003
810.1793	0.0364
810.3488	0.0336
810.5182	0.0053
810.6876	-0.0162
810.857	-0.0014
811.0264	-0.029
811.1958	-0.0165
811.3651	-0.112
811.5344	-0.0159
811.7037	-0.0633
811.873	0.0699
812.0422	-0.0081
812.2115	0.1029
812.3807	0.0258
812.5499	-0.0058
812.7191	-0.072
812.8882	-0.048
813.0574	-0.0523
813.2265	0.0134
813.3956	-0.0508
813.5646	-0.0854
813.7337	-0.1256
813.9027	0.025
814.0718	-0.0131
814.2407	-0.1468
814.4097	-0.015
814.5787	0.0173
814.7476	0.1267
814.9165	0.0496
815.0854	0.0414
815.2543	-0.0036
815.4232	0.0256
815.592	0.1031
815.7608	-0.0041
815.9296	-0.0328
816.0984	0.0411
816.2671	-0.0069
816.4359	0.0572
816.6046	0.1293
816.7733	0.0429
816.942	0.0902
817.1106	-0.1455
817.2793	-0.0944
817.4479	-0.1166
817.6165	-0.0011
817.785	0.0806
817.9536	0.0768
818.1221	0.1516
818.2906	0.0834
818.4591	-0.0296
818.6276	0.0215
818.7961	-0.0369
818.9645	0.0339
819.1329	0.2644
819.3013	-0.0618
819.4697	0.1712
819.638	0.0489
819.8064	-0.1826
819.9747	0.1097
820.143	-0.1069
820.3113	-0.0413
820.4795	0.1425
820.6477	-0.0407
820.816	0.0143
820.9842	-0.1018
821.1523	0.3006
821.3205	-0.0292
821.4886	-0.0049
821.6567	0.0226
821.8248	0.0397
821.9929	-0.0407
822.1609	0.0314
822.329	0.0072
822.497	-0.0779
822.665	0.1218
822.833	-0.0719
823.0009	-0.1172
823.1688	0.1133
823.3367	-0.2302
823.5046	0.0445
823.6725	0.0698
823.8404	0.0257
824.0082	0.1474
824.176	-0.0213
824.3438	0.0658
824.5116	0.1311
824.6793	-0.0939
824.847	0.2625
825.0147	0.3293
825.1824	0.0319
825.3501	0.1305
825.5177	0.1836
825.6854	0.0891
825.853	0.0164
826.0206	-0.1722
826.1881	-0.1902
826.3557	0.2054
826.5232	0.1438
826.6907	0.0512
826.8582	-0.1552
827.0257	-0.0776
827.1931	0.0555
827.3605	-0.1502
827.528	0.1928
827.6953	0.2385
827.8627	-0.0536
828.03	0.1247
828.1974	-0.1414
828.3647	-0.0014
828.532	0.1421
828.6992	0.0147
828.8665	0.0836
829.0337	-0.0598
829.2009	0.0861
829.3681	0.0994
829.5352	0.4256
829.7024	0.0758
829.8695	-0.0931
830.0366	-0.0614
830.2037	0.1616
830.3707	0.0339
830.5378	0.079
830.7048	-0.3513
830.8718	-0.093
831.0388	0.1151
831.2057	-0.2667
831.3727	-0.0782
831.5396	-0.202
831.7065	0.1534
831.8734	-0.3149
832.0402	-0.0059
832.2071	-0.2269
832.3739	0.0973
832.5407	-0
832.7075	0.2643
832.8742	0.2702
833.041	0.1593
833.2077	0.0048
833.3744	-0.0108
833.541	-0.0319
833.7077	0.096
833.8743	-0.0809
834.0409	-0.1124
834.2075	0.1574
834.3741	-0.1087
834.5407	-0.1175
834.7072	0.1167
834.8737	0.1612
835.0402	-0.2438
835.2067	0.2006
835.3731	-0.0344
835.5395	0.1121
835.706	0.2276
835.8723	0.0315
836.0387	0.0456
836.2051	0.3438
836.3714	0.0265
836.5377	0.0417
836.704	0.1025
836.8703	0.0762
837.0365	-0.0593
837.2027	1.3862
837.3689	0.1698
837.5351	-0.2054
837.7013	0.3613
837.8674	-0.3136
838.0335	-0.0532
838.1997	-0.0709
838.3657	0.2659
838.5318	-0.4943
838.6978	-0
838.8639	0.7413
839.0299	0.2136
839.1958	-0.0078
839.3618	-0.0839
839.5277	-0.1536
839.6937	-0.4771
839.8596	0.088
840.0254	0.1622
840.1913	0.7237
840.3571	-0.1016
840.523	1.3508
840.6888	-0.1237
840.8545	-0
841.0203	-0.1494
841.186	0.1309
841.3517	0.0496
841.5174	0.1947
841.6831	-0
841.8488	0.4104
842.0144	0.0343
842.18	0.0464
842.3456	0.2147
842.5112	-0.0558
842.6767	-0.1876
842.8422	0.1276
843.0077	0.3058
843.1732	0.0694
843.3387	0.009
843.5042	-0
843.6696	-0.4512
843.835	1.6198
844.0004	0.0441
844.1657	-0.1021
844.3311	-0.1849
844.4964	-0
844.6617	-0
844.827	0.1898
844.9923	-0.0562
845.1575	-0
845.3227	-0.2497
845.4879	0.3182
845.6531	-0.4609
845.8183	0.2501
845.9834	-0.4943
846.1485	-0.3186
846.3136	0.3045
846.4787	-0.4266
846.6438	0.3262
846.8088	-0
846.9738	-0
847.1388	0.0957
847.3038	-0.0186
847.4687	-0
847.6337	-0.0244
847.7986	0.1429
847.9635	-0.2124
848.1284	-0.2808
848.2932	-0.3361
848.458	-0.0964
848.6228	-0.1559
848.7876	-0.2667
848.9524	-0.3836
849.1172	-0.3029
849.2819	-0
849.4466	0.7924
849.6113	0.2048
849.7759	0.2567
849.9406	0.0194
850.1052	-0
850.2698	-1.0414
850.4344	0.0872
850.599	0.207
850.7635	-0.0167
850.928	0.3598
851.0925	0.1657
851.257	-0.5746
851.4215	-0.4006
851.5859	-0.1693
851.7503	-0
851.9147	-0
852.0791	-0.4342
852.2434	-0.2076
852.4078	0.0888
852.5721	0.0429
852.7364	0.7024
852.9007	-0.1751
853.0649	0.2267
853.2291	0.3665
853.3934	0.2889
853.5575	-0.2707
853.7217	-0.0343
853.8859	-0.0356
854.05	-0.9208
854.2141	-0
854.3782	0.4512
854.5423	-0
854.7063	0.0628
854.8703	-0.1091
855.0343	0.202
855.1983	-0.0556
855.3623	0.1811
855.5262	-0.9402
855.6901	0.6458
855.854	-0.0742
856.0179	-0
856.1818	-0
856.3456	-0
856.5094	0.1648
856.6732	-0.7049
856.837	0.5137
857.0008	0.3951
857.1645	-0
857.3282	0.006
857.4919	0.0307
857.6556	0.2775
857.8192	0.3653
857.9828	-0.5652
858.1465	0.4701
858.31	-0
858.4736	-0.1727
858.6372	-0.3149
858.8007	-1.0414
858.9642	0.6593
859.1277	-0
859.2911	0.2991
859.4546	-0
859.618	-0.0225
859.7814	-0.4925
859.9448	-0
860.1081	-0
860.2715	-0.5371
860.4348	0.0189
860.5981	-0.5853
860.7614	1.1004
860.9246	0.462
861.0879	-0.4345
861.2511	-0.1015
861.4143	-0
861.5774	0.202
861.7406	-0
861.9037	-0
862.0668	-0
862.2299	-1.7993
862.393	-0
862.556	0.8081
862.7191	0.4194
862.8821	-0.2052
863.0451	-0.0038
863.208	-0.497
863.371	1.4914
863.5339	-0.064
863.6968	-0.2493
863.8597	-0.6173
864.0225	-0
864.1854	-0
864.3482	-0
864.511	0.1648
864.6737	-0
864.8365	0.0606
864.9992	-0
865.1619	-0.1897
865.3246	-0
865.4873	-0
865.65	-0
865.8126	-0
865.9752	0.205
866.1378	-0.7706
866.3004	0.152
866.4629	-0.2193
866.6254	-0.6173
866.7879	-0.3735
866.9504	-0.1711
867.1129	0.2218
867.2753	-0.1011
867.4377	0.2005
867.6001	0.4442
867.7625	-0.1713
867.9249	-0
868.0872	1.2518
868.2495	-0
868.4118	-0.3489
868.5741	-0.557
868.7363	0.8342
868.8986	-0.335
869.0608	-0
869.223	0.1732
869.3851	-0
869.5473	-1.3782
869.7094	-0.5031
869.8715	0.1951
870.0336	0.0663
870.1957	-0
870.3577	-0.2943
870.5197	0.0643
870.6817	-0
870.8437	0.3973
871.0057	-0
871.1676	0.1014
871.3295	1.9777
871.4914	-0.2688
871.6533	-0.1279
871.8151	0.5714
871.977	0.1844
872.1388	-1.0534
872.3006	-0.1644
872.4623	-0.7036
872.6241	-2.1173
872.7858	0.0094
872.9475	0.3854
873.1092	0.3067
873.2709	-0
873.4325	-0
873.5941	0.0726
873.7557	-0.8166
873.9173	-0.8734
874.0789	-0.2072
874.2404	-0
874.4019	-0.1148
874.5634	0.1051
874.7249	-0
874.8863	0.8451
875.0478	-0.0294
875.2092	-0.0748
875.3706	-0.6196
875.5319	-0
875.6933	0.1782
875.8546	-0.3245
876.0159	-0
876.1772	-0
876.3385	-0.5914
876.4997	-0.127
876.6609	-0
876.8221	0.0847
876.9833	0.1948
877.1445	-0.1345
877.3056	0.6426
877.4667	-0
877.6278	-0.127
877.7889	0.5504
877.9499	-0.1734
878.111	-0.0036
878.272	-0
878.433	-0.1192
878.5939	-0
878.7549	0.5528
878.9158	-0.1814
879.0767	-0.2074
879.2376	-0.6092
879.3984	0.068
879.5593	-0.3725
879.7201	0.1558
879.8809	0.068
880.0417	0.0297
880.2024	0.1481
880.3632	-0.2767
880.5239	0.3147
880.6846	-0.644
880.8452	0.2099
881.0059	-0.1332
881.1665	0.6616
881.3271	0.5714
881.4877	-0.1313
881.6483	-1.3358
881.8088	0.518
881.9693	-0.0199
882.1298	-0.0199
882.2903	-0.0199
