Data from D4ACN5uM480nmA_Absorbance_12-07-59-920.txt Node
Date: Fri Feb 21 12:07:59 GMT 2025
User: LASERRRRR
Spectrometer: FLMT03099
Trigger mode: 0
Integration Time (sec): 1.500000E-2
Scans to average: 1
Electric dark correction enabled: true
Nonlinearity correction enabled: false
Boxcar width: 0
XAxis mode: Wavelengths
Number of Pixels in Spectrum: 3648
>>>>>Begin Spectral Data<<<<<
179.3399	-0
179.5586	-0
179.7771	-0
179.9957	-0.0268
180.2143	-0.2917
180.4329	-0
180.6514	0.1849
180.8699	-0
181.0885	-0.1304
181.307	0.3196
181.5255	0.6465
181.744	-0
181.9625	0.5575
182.181	-0
182.3994	-0.7072
182.6179	-0.9518
182.8363	0.7875
183.0547	-0
183.2732	0.3433
183.4916	0.1576
183.71	0.2092
183.9284	0.5175
184.1467	0.0013
184.3651	0.36
184.5835	0.188
184.8018	0.1797
185.0201	0.2569
185.2385	0.2853
185.4568	0.2765
185.6751	0.1942
185.8934	0.3931
186.1117	0.3731
186.3299	0.2714
186.5482	0.3045
186.7664	0.4742
186.9847	0.3572
187.2029	0.34
187.4211	0.1014
187.6393	0.3497
187.8575	0.1742
188.0757	0.2506
188.2939	0.1494
188.512	0.1219
188.7302	0.3813
188.9483	0.4055
189.1665	1.1615
189.3846	0.1305
189.6027	0.0006
189.8208	0.5539
190.0389	0.3663
190.257	0.2626
190.475	0.1849
190.6931	0.2464
190.9111	0.4495
191.1292	0.2839
191.3472	0.3626
191.5652	0.5676
191.7832	0.1633
192.0012	0.6814
192.2192	0.3968
192.4371	0.293
192.6551	0.4187
192.873	0.5421
193.091	0.4116
193.3089	0.1623
193.5268	0.542
193.7447	0.4005
193.9626	0.4349
194.1805	0.4314
194.3984	0.4185
194.6162	0.4715
194.8341	1.393
195.0519	0.6367
195.2697	0.8211
195.4875	0.612
195.7054	0.5307
195.9231	0.5712
196.1409	0.5326
196.3587	0.6401
196.5765	0.5763
196.7942	0.6046
197.012	0.5282
197.2297	0.5343
197.4474	0.8308
197.6651	0.6285
197.8828	0.8789
198.1005	0.7473
198.3182	0.5399
198.5358	0.4544
198.7535	0.5528
198.9711	0.5244
199.1888	0.6413
199.4064	0.5648
199.624	0.6275
199.8416	0.5915
200.0592	0.5623
200.2767	0.582
200.4943	0.6063
200.7119	0.6552
200.9294	0.5115
201.1469	0.5979
201.3645	0.6538
201.582	0.5008
201.7995	0.6716
202.017	0.5758
202.2344	0.5139
202.4519	0.629
202.6694	0.5313
202.8868	0.605
203.1042	0.56
203.3217	0.5898
203.5391	0.4913
203.7565	0.481
203.9739	0.5901
204.1913	0.5112
204.4086	0.5578
204.626	0.525
204.8433	0.5083
205.0607	0.5007
205.278	0.5732
205.4953	0.4611
205.7126	0.4779
205.9299	0.4774
206.1472	0.4799
206.3644	0.4889
206.5817	0.5278
206.7989	0.496
207.0162	0.4782
207.2334	0.4368
207.4506	0.4456
207.6678	0.4258
207.885	0.4655
208.1022	0.4371
208.3194	0.4283
208.5365	0.4825
208.7537	0.4749
208.9708	0.4469
209.1879	0.4085
209.405	0.4223
209.6222	0.4104
209.8392	0.4239
210.0563	0.4277
210.2734	0.4007
210.4905	0.4022
210.7075	0.4236
210.9245	0.43
211.1416	0.4149
211.3586	0.424
211.5756	0.439
211.7926	0.3887
212.0096	0.4145
212.2265	0.4317
212.4435	0.4076
212.6604	0.4063
212.8774	0.4032
213.0943	0.389
213.3112	0.4381
213.5281	0.4179
213.745	0.397
213.9619	0.3731
214.1788	0.4226
214.3956	0.4178
214.6125	0.4095
214.8293	0.4458
215.0461	0.417
215.2629	0.4182
215.4798	0.4056
215.6965	0.3904
215.9133	0.41
216.1301	0.3994
216.3469	0.3932
216.5636	0.4085
216.7803	0.4158
216.9971	0.4192
217.2138	0.4162
217.4305	0.4142
217.6472	0.4159
217.8639	0.4025
218.0805	0.4232
218.2972	0.4178
218.5138	0.4281
218.7305	0.4157
218.9471	0.4094
219.1637	0.4215
219.3803	0.4352
219.5969	0.4304
219.8135	0.4208
220.0301	0.4093
220.2466	0.4351
220.4632	0.4218
220.6797	0.4333
220.8962	0.4239
221.1127	0.4353
221.3292	0.4439
221.5457	0.4355
221.7622	0.4441
221.9787	0.4419
222.1951	0.4382
222.4116	0.4407
222.628	0.4372
222.8444	0.4596
223.0608	0.4455
223.2772	0.4393
223.4936	0.4389
223.71	0.4512
223.9264	0.474
224.1427	0.4368
224.3591	0.4597
224.5754	0.4666
224.7917	0.4726
225.008	0.4598
225.2243	0.4719
225.4406	0.463
225.6569	0.4521
225.8732	0.4614
226.0894	0.4857
226.3057	0.4684
226.5219	0.4808
226.7381	0.4629
226.9543	0.4861
227.1705	0.49
227.3867	0.4976
227.6029	0.481
227.8191	0.4862
228.0352	0.5038
228.2513	0.4916
228.4675	0.4831
228.6836	0.5032
228.8997	0.5114
229.1158	0.4795
229.3319	0.4943
229.548	0.505
229.764	0.5047
229.9801	0.5124
230.1961	0.4993
230.4121	0.4998
230.6282	0.5029
230.8442	0.5185
231.0602	0.5229
231.2761	0.512
231.4921	0.527
231.7081	0.5145
231.924	0.5145
232.14	0.5203
232.3559	0.5364
232.5718	0.5382
232.7877	0.5389
233.0036	0.5168
233.2195	0.5187
233.4353	0.5423
233.6512	0.5374
233.867	0.5323
234.0829	0.5427
234.2987	0.5311
234.5145	0.5343
234.7303	0.5376
234.9461	0.5247
235.1619	0.5472
235.3776	0.5274
235.5934	0.5298
235.8091	0.5412
236.0249	0.5333
236.2406	0.5328
236.4563	0.5442
236.672	0.54
236.8877	0.5372
237.1034	0.5265
237.319	0.5372
237.5347	0.5313
237.7503	0.5394
237.966	0.527
238.1816	0.5404
238.3972	0.5299
238.6128	0.5486
238.8284	0.5346
239.0439	0.534
239.2595	0.532
239.475	0.5268
239.6906	0.5303
239.9061	0.5281
240.1216	0.5284
240.3371	0.5195
240.5526	0.5135
240.7681	0.5301
240.9836	0.5232
241.199	0.5144
241.4145	0.4976
241.6299	0.5048
241.8453	0.4899
242.0607	0.4932
242.2761	0.4896
242.4915	0.4698
242.7069	0.4678
242.9223	0.4596
243.1376	0.4539
243.353	0.4391
243.5683	0.4488
243.7836	0.4216
243.9989	0.4214
244.2142	0.4153
244.4295	0.4151
244.6448	0.4078
244.86	0.3956
245.0753	0.3901
245.2905	0.3823
245.5057	0.3718
245.721	0.3526
245.9362	0.3504
246.1514	0.3367
246.3665	0.3345
246.5817	0.3323
246.7969	0.3327
247.012	0.324
247.2271	0.3131
247.4423	0.31
247.6574	0.31
247.8725	0.3121
248.0876	0.2891
248.3026	0.2848
248.5177	0.2818
248.7328	0.2775
248.9478	0.2733
249.1628	0.2688
249.3779	0.2617
249.5929	0.262
249.8079	0.2594
250.0228	0.2573
250.2378	0.2511
250.4528	0.2478
250.6677	0.2385
250.8827	0.2404
251.0976	0.2385
251.3125	0.2373
251.5274	0.2312
251.7423	0.2253
251.9572	0.2191
252.172	0.2216
252.3869	0.2173
252.6017	0.2146
252.8166	0.2241
253.0314	0.2188
253.2462	0.2141
253.461	0.2262
253.6758	0.2117
253.8906	0.2046
254.1053	0.2079
254.3201	0.2031
254.5348	0.2023
254.7496	0.1995
254.9643	0.2042
255.179	0.1976
255.3937	0.1999
255.6083	0.1936
255.823	0.2004
256.0377	0.1935
256.2523	0.196
256.467	0.1993
256.6816	0.1987
256.8962	0.1914
257.1108	0.1921
257.3254	0.1929
257.54	0.1912
257.7545	0.1896
257.9691	0.1919
258.1836	0.1897
258.3981	0.1876
258.6127	0.1812
258.8272	0.1909
259.0417	0.1804
259.2561	0.1888
259.4706	0.1893
259.6851	0.1874
259.8995	0.1819
260.114	0.1849
260.3284	0.1856
260.5428	0.1801
260.7572	0.1888
260.9716	0.1855
261.186	0.18
261.4003	0.1906
261.6147	0.1826
261.829	0.1821
262.0433	0.1811
262.2577	0.1884
262.472	0.1897
262.6863	0.1864
262.9005	0.1892
263.1148	0.182
263.3291	0.185
263.5433	0.184
263.7576	0.1861
263.9718	0.1862
264.186	0.1847
264.4002	0.1834
264.6144	0.1896
264.8286	0.1883
265.0427	0.1856
265.2569	0.187
265.471	0.1868
265.6851	0.1816
265.8993	0.1845
266.1134	0.1862
266.3275	0.1831
266.5415	0.1832
266.7556	0.1794
266.9697	0.1832
267.1837	0.181
267.3978	0.1933
267.6118	0.1802
267.8258	0.1809
268.0398	0.186
268.2538	0.1807
268.4677	0.1831
268.6817	0.1766
268.8957	0.1832
269.1096	0.1819
269.3235	0.1887
269.5374	0.1812
269.7514	0.183
269.9652	0.1848
270.1791	0.1792
270.393	0.1851
270.6068	0.1707
270.8207	0.1754
271.0345	0.1757
271.2483	0.1763
271.4622	0.1754
271.676	0.1751
271.8897	0.1808
272.1035	0.1729
272.3173	0.1792
272.531	0.1679
272.7448	0.1654
272.9585	0.1712
273.1722	0.1759
273.3859	0.166
273.5996	0.1727
273.8133	0.1719
274.0269	0.177
274.2406	0.1713
274.4542	0.1729
274.6679	0.1696
274.8815	0.1751
275.0951	0.1725
275.3087	0.176
275.5223	0.1708
275.7358	0.182
275.9494	0.1747
276.1629	0.178
276.3765	0.1687
276.59	0.174
276.8035	0.175
277.017	0.1765
277.2305	0.179
277.444	0.1811
277.6574	0.1749
277.8709	0.1756
278.0843	0.1776
278.2978	0.1779
278.5112	0.1795
278.7246	0.1784
278.938	0.1777
279.1513	0.184
279.3647	0.18
279.5781	0.18
279.7914	0.1852
280.0047	0.1766
280.2181	0.1817
280.4314	0.1814
280.6447	0.1834
280.8579	0.178
281.0712	0.1804
281.2845	0.1868
281.4977	0.1843
281.711	0.1852
281.9242	0.1841
282.1374	0.1797
282.3506	0.1898
282.5638	0.1838
282.7769	0.1755
282.9901	0.1815
283.2033	0.1832
283.4164	0.1833
283.6295	0.1873
283.8426	0.191
284.0557	0.1849
284.2688	0.1925
284.4819	0.1977
284.695	0.1985
284.908	0.1886
285.1211	0.1879
285.3341	0.1945
285.5471	0.1971
285.7601	0.1942
285.9731	0.1908
286.1861	0.1932
286.3991	0.1924
286.612	0.1973
286.825	0.1935
287.0379	0.198
287.2508	0.1946
287.4637	0.1994
287.6766	0.1959
287.8895	0.1922
288.1024	0.195
288.3152	0.1959
288.5281	0.1959
288.7409	0.1951
288.9538	0.1926
289.1666	0.2017
289.3794	0.1978
289.5922	0.1989
289.8049	0.201
290.0177	0.2022
290.2304	0.2011
290.4432	0.1975
290.6559	0.1908
290.8686	0.1997
291.0813	0.2016
291.294	0.2106
291.5067	0.2003
291.7194	0.1976
291.932	0.2036
292.1447	0.2019
292.3573	0.2037
292.5699	0.2022
292.7825	0.1989
292.9951	0.2017
293.2077	0.2013
293.4203	0.2072
293.6328	0.1922
293.8454	0.2041
294.0579	0.202
294.2704	0.2044
294.4829	0.2007
294.6954	0.2011
294.9079	0.1968
295.1204	0.2034
295.3328	0.1993
295.5453	0.202
295.7577	0.1958
295.9701	0.2029
296.1825	0.1971
296.3949	0.2064
296.6073	0.1987
296.8197	0.2035
297.0321	0.2038
297.2444	0.2024
297.4567	0.201
297.6691	0.2035
297.8814	0.2027
298.0937	0.2002
298.306	0.1999
298.5182	0.205
298.7305	0.2034
298.9428	0.197
299.155	0.2028
299.3672	0.2008
299.5794	0.1938
299.7916	0.2019
300.0038	0.195
300.216	0.2023
300.4282	0.1944
300.6403	0.1987
300.8525	0.2081
301.0646	0.1992
301.2767	0.1966
301.4888	0.1967
301.7009	0.1995
301.913	0.2019
302.125	0.1981
302.3371	0.1921
302.5491	0.1954
302.7612	0.1968
302.9732	0.1948
303.1852	0.1959
303.3972	0.1943
303.6092	0.192
303.8211	0.191
304.0331	0.1946
304.245	0.1914
304.457	0.1982
304.6689	0.1902
304.8808	0.195
305.0927	0.191
305.3046	0.1873
305.5164	0.183
305.7283	0.1944
305.9401	0.1821
306.152	0.1792
306.3638	0.1774
306.5756	0.1859
306.7874	0.1809
306.9992	0.178
307.2109	0.1719
307.4227	0.1743
307.6344	0.1774
307.8462	0.173
308.0579	0.1659
308.2696	0.1639
308.4813	0.1632
308.693	0.1676
308.9046	0.1557
309.1163	0.1598
309.328	0.1558
309.5396	0.1594
309.7512	0.1558
309.9628	0.1525
310.1744	0.1573
310.386	0.1461
310.5976	0.1489
310.8091	0.1441
311.0207	0.148
311.2322	0.1508
311.4437	0.1465
311.6552	0.1464
311.8667	0.1381
312.0782	0.1439
312.2897	0.1414
312.5012	0.1412
312.7126	0.1283
312.924	0.1354
313.1355	0.1351
313.3469	0.1317
313.5583	0.129
313.7696	0.1279
313.981	0.1274
314.1924	0.1282
314.4037	0.1312
314.6151	0.1235
314.8264	0.1309
315.0377	0.1285
315.249	0.1217
315.4603	0.1213
315.6716	0.1261
315.8828	0.1217
316.0941	0.1239
316.3053	0.1196
316.5165	0.1273
316.7277	0.1211
316.9389	0.1165
317.1501	0.1217
317.3613	0.121
317.5724	0.1205
317.7836	0.1148
317.9947	0.1167
318.2058	0.1195
318.417	0.1163
318.6281	0.1174
318.8391	0.1155
319.0502	0.1206
319.2613	0.1123
319.4723	0.1207
319.6834	0.1161
319.8944	0.1214
320.1054	0.1184
320.3164	0.1186
320.5274	0.1067
320.7383	0.1134
320.9493	0.1177
321.1602	0.1164
321.3712	0.1181
321.5821	0.1189
321.793	0.1133
322.0039	0.115
322.2148	0.1175
322.4257	0.1207
322.6365	0.1159
322.8474	0.114
323.0582	0.1134
323.269	0.1173
323.4798	0.1166
323.6906	0.1155
323.9014	0.1117
324.1122	0.1159
324.3229	0.1227
324.5337	0.1238
324.7444	0.1143
324.9551	0.1182
325.1658	0.1211
325.3765	0.1221
325.5872	0.1179
325.7979	0.1224
326.0085	0.1147
326.2192	0.1189
326.4298	0.1232
326.6404	0.1161
326.851	0.1192
327.0616	0.1198
327.2722	0.1256
327.4828	0.1193
327.6933	0.1166
327.9039	0.1206
328.1144	0.1207
328.3249	0.1267
328.5354	0.1177
328.7459	0.1206
328.9564	0.1284
329.1669	0.1197
329.3773	0.1192
329.5878	0.1199
329.7982	0.122
330.0086	0.128
330.219	0.1231
330.4294	0.1218
330.6398	0.1243
330.8502	0.1264
331.0605	0.124
331.2708	0.1235
331.4812	0.1246
331.6915	0.1176
331.9018	0.121
332.1121	0.1248
332.3224	0.1277
332.5326	0.1247
332.7429	0.1181
332.9531	0.1231
333.1633	0.1238
333.3735	0.1202
333.5837	0.1267
333.7939	0.1259
334.0041	0.1269
334.2143	0.1243
334.4244	0.1257
334.6346	0.1228
334.8447	0.1279
335.0548	0.1281
335.2649	0.1287
335.475	0.1299
335.685	0.1266
335.8951	0.1326
336.1051	0.1359
336.3152	0.1251
336.5252	0.1327
336.7352	0.1228
336.9452	0.1283
337.1552	0.1327
337.3652	0.1294
337.5751	0.1237
337.7851	0.1279
337.995	0.1277
338.2049	0.1319
338.4148	0.129
338.6247	0.1254
338.8346	0.1308
339.0445	0.1302
339.2543	0.1329
339.4642	0.1364
339.674	0.1396
339.8838	0.132
340.0936	0.1355
340.3034	0.1353
340.5132	0.1307
340.7229	0.1323
340.9327	0.1349
341.1424	0.1377
341.3522	0.142
341.5619	0.1372
341.7716	0.1367
341.9813	0.1444
342.1909	0.1416
342.4006	0.1428
342.6102	0.1412
342.8199	0.1344
343.0295	0.1371
343.2391	0.142
343.4487	0.1452
343.6583	0.1481
343.8679	0.1414
344.0774	0.1415
344.287	0.1415
344.4965	0.1422
344.706	0.1536
344.9155	0.1482
345.125	0.148
345.3345	0.1455
345.544	0.1562
345.7534	0.1515
345.9629	0.1525
346.1723	0.1506
346.3817	0.1429
346.5911	0.157
346.8005	0.1498
347.0099	0.1568
347.2193	0.1472
347.4286	0.1586
347.638	0.1573
347.8473	0.1543
348.0566	0.1559
348.2659	0.1579
348.4752	0.1588
348.6845	0.1621
348.8937	0.1552
349.103	0.1602
349.3122	0.1614
349.5214	0.1533
349.7306	0.1637
349.9398	0.1642
350.149	0.1649
350.3582	0.1612
350.5674	0.1637
350.7765	0.1661
350.9856	0.16
351.1948	0.1677
351.4039	0.1629
351.613	0.1718
351.822	0.1621
352.0311	0.1621
352.2402	0.1682
352.4492	0.1709
352.6582	0.1695
352.8672	0.1695
353.0762	0.1709
353.2852	0.17
353.4942	0.1741
353.7032	0.1735
353.9121	0.1695
354.1211	0.1674
354.33	0.1812
354.5389	0.1827
354.7478	0.1747
354.9567	0.1821
355.1655	0.1826
355.3744	0.1773
355.5833	0.183
355.7921	0.1815
356.0009	0.1827
356.2097	0.1921
356.4185	0.1816
356.6273	0.1854
356.8361	0.1959
357.0448	0.1861
357.2536	0.192
357.4623	0.1918
357.671	0.1907
357.8797	0.1971
358.0884	0.1907
358.2971	0.1962
358.5057	0.1951
358.7144	0.1965
358.923	0.1973
359.1316	0.1963
359.3402	0.2011
359.5488	0.2063
359.7574	0.1984
359.966	0.2033
360.1746	0.1946
360.3831	0.2074
360.5916	0.2064
360.8002	0.2126
361.0087	0.2185
361.2172	0.2167
361.4256	0.1979
361.6341	0.2161
361.8426	0.2092
362.051	0.2137
362.2594	0.2122
362.4678	0.2203
362.6762	0.2167
362.8846	0.2177
363.093	0.2238
363.3014	0.2245
363.5097	0.2233
363.718	0.2307
363.9264	0.2233
364.1347	0.2332
364.343	0.2262
364.5513	0.2326
364.7595	0.2282
364.9678	0.232
365.176	0.2309
365.3842	0.2292
365.5925	0.2309
365.8007	0.2283
366.0089	0.2278
366.217	0.2385
366.4252	0.2391
366.6333	0.2414
366.8415	0.2405
367.0496	0.2393
367.2577	0.2513
367.4658	0.2472
367.6739	0.2448
367.882	0.2523
368.09	0.2466
368.2981	0.2449
368.5061	0.2521
368.7141	0.2486
368.9221	0.2567
369.1301	0.2545
369.3381	0.2511
369.5461	0.2598
369.754	0.2537
369.962	0.2546
370.1699	0.2511
370.3778	0.2514
370.5857	0.2616
370.7936	0.2573
371.0015	0.258
371.2093	0.2647
371.4172	0.2613
371.625	0.2618
371.8328	0.2665
372.0406	0.2547
372.2484	0.2628
372.4562	0.2668
372.664	0.2714
372.8717	0.2743
373.0795	0.271
373.2872	0.2686
373.4949	0.2771
373.7026	0.2848
373.9103	0.2587
374.118	0.272
374.3256	0.2836
374.5333	0.2754
374.7409	0.2739
374.9485	0.2785
375.1561	0.2848
375.3637	0.2643
375.5713	0.2749
375.7789	0.2812
375.9864	0.2874
376.194	0.2861
376.4015	0.286
376.609	0.2932
376.8165	0.2829
377.024	0.2884
377.2315	0.2876
377.4389	0.2783
377.6464	0.2919
377.8538	0.2828
378.0612	0.2816
378.2686	0.3049
378.476	0.2862
378.6834	0.2881
378.8908	0.298
379.0981	0.295
379.3055	0.2997
379.5128	0.2923
379.7201	0.2979
379.9274	0.2908
380.1347	0.2934
380.342	0.3049
380.5492	0.2958
380.7565	0.3004
380.9637	0.298
381.1709	0.3031
381.3781	0.3092
381.5853	0.3042
381.7925	0.3112
381.9997	0.312
382.2068	0.302
382.4139	0.31
382.6211	0.3216
382.8282	0.305
383.0353	0.3064
383.2424	0.3064
383.4494	0.3141
383.6565	0.3103
383.8635	0.3262
384.0706	0.3124
384.2776	0.3212
384.4846	0.3184
384.6916	0.3155
384.8986	0.3134
385.1055	0.3246
385.3125	0.3107
385.5194	0.3167
385.7263	0.3173
385.9333	0.3127
386.1402	0.328
386.347	0.3139
386.5539	0.323
386.7608	0.316
386.9676	0.3222
387.1744	0.3149
387.3813	0.3248
387.5881	0.3211
387.7948	0.3096
388.0016	0.3144
388.2084	0.3148
388.4151	0.3162
388.6219	0.3165
388.8286	0.3141
389.0353	0.3093
389.242	0.3031
389.4487	0.3174
389.6553	0.3052
389.862	0.2996
390.0686	0.312
390.2753	0.3023
390.4819	0.3096
390.6885	0.302
390.8951	0.3203
391.1016	0.3102
391.3082	0.2929
391.5147	0.2979
391.7213	0.3069
391.9278	0.2967
392.1343	0.2914
392.3408	0.2858
392.5473	0.288
392.7537	0.2984
392.9602	0.2843
393.1666	0.2803
393.373	0.2902
393.5794	0.2875
393.7858	0.2983
393.9922	0.2924
394.1986	0.282
394.4049	0.2945
394.6113	0.2843
394.8176	0.2858
395.0239	0.2752
395.2302	0.2705
395.4365	0.2802
395.6428	0.276
395.8491	0.2797
396.0553	0.2732
396.2615	0.2731
396.4678	0.2803
396.674	0.2719
396.8802	0.2766
397.0863	0.2764
397.2925	0.2678
397.4987	0.2635
397.7048	0.2708
397.9109	0.2756
398.117	0.2685
398.3231	0.277
398.5292	0.2718
398.7353	0.2664
398.9413	0.2669
399.1474	0.2688
399.3534	0.2661
399.5594	0.2707
399.7654	0.2748
399.9714	0.2645
400.1774	0.266
400.3833	0.2726
400.5893	0.2625
400.7952	0.2715
401.0011	0.2628
401.207	0.281
401.4129	0.2732
401.6188	0.2668
401.8247	0.2712
402.0305	0.2611
402.2364	0.2688
402.4422	0.2685
402.648	0.2766
402.8538	0.2789
403.0596	0.2635
403.2654	0.2642
403.4711	0.267
403.6768	0.2583
403.8826	0.2704
404.0883	0.2659
404.294	0.2761
404.4997	0.2632
404.7054	0.2706
404.911	0.275
405.1167	0.2784
405.3223	0.2732
405.5279	0.2796
405.7335	0.2651
405.9391	0.2697
406.1447	0.2717
406.3502	0.279
406.5558	0.2689
406.7613	0.2848
406.9668	0.2651
407.1724	0.2795
407.3778	0.2684
407.5833	0.2749
407.7888	0.2679
407.9942	0.2736
408.1997	0.2692
408.4051	0.2564
408.6105	0.2689
408.8159	0.2712
409.0213	0.273
409.2267	0.2625
409.432	0.2733
409.6374	0.2658
409.8427	0.2648
410.048	0.2607
410.2533	0.2639
410.4586	0.2725
410.6639	0.2718
410.8691	0.2801
411.0744	0.2606
411.2796	0.2736
411.4848	0.2566
411.69	0.2701
411.8952	0.2745
412.1004	0.2701
412.3056	0.2555
412.5107	0.2717
412.7158	0.2758
412.921	0.2642
413.1261	0.2711
413.3312	0.2577
413.5362	0.2645
413.7413	0.2675
413.9464	0.2593
414.1514	0.2653
414.3564	0.2624
414.5614	0.2574
414.7664	0.2738
414.9714	0.2708
415.1764	0.2628
415.3813	0.2464
415.5863	0.2669
415.7912	0.2616
415.9961	0.2605
416.201	0.2719
416.4059	0.2504
416.6108	0.2623
416.8156	0.2532
417.0205	0.262
417.2253	0.262
417.4301	0.2717
417.6349	0.2623
417.8397	0.2724
418.0445	0.2558
418.2492	0.2767
418.454	0.2613
418.6587	0.2614
418.8634	0.26
419.0681	0.2485
419.2728	0.2645
419.4775	0.258
419.6822	0.2611
419.8868	0.2602
420.0915	0.2542
420.2961	0.2464
420.5007	0.2493
420.7053	0.2508
420.9099	0.2441
421.1144	0.237
421.319	0.2415
421.5235	0.2458
421.728	0.2466
421.9325	0.2519
422.137	0.2445
422.3415	0.2415
422.546	0.2462
422.7504	0.2539
422.9549	0.2359
423.1593	0.2392
423.3637	0.2328
423.5681	0.2293
423.7725	0.2404
423.9769	0.2481
424.1812	0.2398
424.3856	0.2336
424.5899	0.2362
424.7942	0.2196
424.9985	0.2236
425.2028	0.2284
425.4071	0.2233
425.6113	0.2224
425.8156	0.2266
426.0198	0.2262
426.224	0.2268
426.4282	0.2155
426.6324	0.2194
426.8366	0.2155
427.0407	0.2273
427.2449	0.2219
427.449	0.2133
427.6531	0.2162
427.8572	0.2177
428.0613	0.2167
428.2654	0.2144
428.4694	0.2114
428.6735	0.2099
428.8775	0.2111
429.0815	0.2185
429.2855	0.2028
429.4895	0.1947
429.6935	0.1986
429.8975	0.205
430.1014	0.1968
430.3053	0.1875
430.5093	0.197
430.7132	0.2037
430.9171	0.1946
431.1209	0.197
431.3248	0.1826
431.5286	0.1824
431.7325	0.2005
431.9363	0.1922
432.1401	0.1818
432.3439	0.1796
432.5477	0.1881
432.7514	0.1783
432.9552	0.1776
433.1589	0.17
433.3627	0.1793
433.5664	0.1756
433.7701	0.1764
433.9737	0.1615
434.1774	0.1698
434.3811	0.1722
434.5847	0.1539
434.7883	0.1565
434.9919	0.152
435.1955	0.1642
435.3991	0.1568
435.6027	0.1576
435.8062	0.1577
436.0098	0.1511
436.2133	0.1546
436.4168	0.1527
436.6203	0.149
436.8238	0.1425
437.0272	0.1406
437.2307	0.1339
437.4341	0.1349
437.6375	0.136
437.841	0.1353
438.0443	0.1342
438.2477	0.132
438.4511	0.1311
438.6545	0.1205
438.8578	0.1315
439.0611	0.1282
439.2644	0.1129
439.4677	0.121
439.671	0.1093
439.8743	0.1148
440.0775	0.1105
440.2808	0.13
440.484	0.1133
440.6872	0.1049
440.8904	0.1125
441.0936	0.1148
441.2967	0.1021
441.4999	0.1063
441.703	0.1028
441.9062	0.1081
442.1093	0.0917
442.3124	0.1039
442.5155	0.1031
442.7185	0.0907
442.9216	0.0861
443.1246	0.0926
443.3276	0.0841
443.5307	0.0902
443.7337	0.0873
443.9366	0.092
444.1396	0.0789
444.3426	0.088
444.5455	0.0803
444.7484	0.0782
444.9513	0.0824
445.1542	0.0779
445.3571	0.0744
445.56	0.0795
445.7628	0.0699
445.9657	0.0715
446.1685	0.073
446.3713	0.0721
446.5741	0.0679
446.7769	0.07
446.9797	0.0662
447.1824	0.0712
447.3852	0.0569
447.5879	0.0622
447.7906	0.0574
447.9933	0.0609
448.196	0.0577
448.3986	0.0581
448.6013	0.055
448.8039	0.0617
449.0066	0.0569
449.2092	0.0438
449.4118	0.0549
449.6143	0.052
449.8169	0.0563
450.0195	0.0504
450.222	0.0504
450.4245	0.0583
450.627	0.0485
450.8295	0.0433
451.032	0.0459
451.2345	0.0444
451.4369	0.041
451.6394	0.0424
451.8418	0.0434
452.0442	0.0411
452.2466	0.0423
452.449	0.0343
452.6513	0.0405
452.8537	0.0396
453.056	0.0412
453.2583	0.0409
453.4607	0.0361
453.663	0.0382
453.8652	0.0322
454.0675	0.042
454.2697	0.0342
454.472	0.0372
454.6742	0.0228
454.8764	0.0293
455.0786	0.0314
455.2808	0.0371
455.4829	0.0244
455.6851	0.018
455.8872	0.0323
456.0893	0.0346
456.2915	0.0301
456.4935	0.0196
456.6956	0.0226
456.8977	0.0254
457.0997	0.0261
457.3018	0.0284
457.5038	0.0228
457.7058	0.0192
457.9078	0.0291
458.1098	0.0242
458.3117	0.0241
458.5137	0.035
458.7156	0.0213
458.9175	0.0167
459.1194	0.0207
459.3213	0.019
459.5232	0.01
459.725	0.0262
459.9269	0.0081
460.1287	0.0141
460.3305	0.0117
460.5323	0.0193
460.7341	0.0089
460.9359	0.0173
461.1376	0.0181
461.3394	0.0122
461.5411	0.02
461.7428	0.0183
461.9445	0.0068
462.1462	0.0183
462.3479	0.0192
462.5495	0.0111
462.7512	0.0077
462.9528	0.0145
463.1544	0.0086
463.356	0.0208
463.5576	0.0046
463.7592	0.0076
463.9607	0.0079
464.1623	0.0172
464.3638	0.0141
464.5653	0.0147
464.7668	0.0072
464.9683	0.0091
465.1697	0.01
465.3712	0.0118
465.5726	0.0149
465.7741	0.0126
465.9755	0.0123
466.1769	0.0017
466.3782	0.0114
466.5796	0.0141
466.7809	0.0211
466.9823	0.0004
467.1836	0.0147
467.3849	0.0059
467.5862	0.0043
467.7875	0.0135
467.9887	0.0053
468.19	0.0133
468.3912	0.0061
468.5924	0.0211
468.7936	-0.0054
468.9948	0.0146
469.196	0.0082
469.3972	0.0215
469.5983	0.0062
469.7994	-0.0074
470.0006	0.0088
470.2017	0.029
470.4027	0.0003
470.6038	0.0003
470.8049	0.0046
471.0059	0.0059
471.2069	0.0101
471.408	0.0031
471.6089	0.0076
471.8099	0.0096
472.0109	0.0003
472.2119	0.0175
472.4128	0.0178
472.6137	0.0165
472.8146	0.0083
473.0155	-0.0014
473.2164	0.0008
473.4173	0.0097
473.6181	0.008
473.819	-0.0058
474.0198	0.0062
474.2206	0.0023
474.4214	0.016
474.6222	0.0039
474.8229	0.0036
475.0237	0.0092
475.2244	0.0104
475.4251	0.0039
475.6258	0.0073
475.8265	0.0056
476.0272	0.0083
476.2278	0.0001
476.4285	0.003
476.6291	0.0143
476.8297	0.0006
477.0303	0.0039
477.2309	0.0063
477.4315	0.001
477.632	-0.005
477.8326	-0.0017
478.0331	0.0096
478.2336	0.012
478.4341	0.0059
478.6346	0.0029
478.8351	0.0076
479.0355	0.0059
479.236	0.0009
479.4364	-0.0022
479.6368	0.0071
479.8372	0.0059
480.0376	-0.0031
480.2379	0.0057
480.4383	-0.005
480.6386	0.0071
480.8389	0.0032
481.0392	0.0087
481.2395	0.0046
481.4398	0.0053
481.6401	0.0077
481.8403	0.0008
482.0405	-0.004
482.2408	-0.0019
482.441	0.0009
482.6411	-0.0037
482.8413	-0.003
483.0415	0.0065
483.2416	0.0068
483.4417	0.0015
483.6419	0.0021
483.8419	0.0013
484.042	0.0002
484.2421	0.0048
484.4422	0.0071
484.6422	0.0045
484.8422	0.0009
485.0422	0.0033
485.2422	0.0004
485.4422	-0.003
485.6422	-0.001
485.8421	0.0001
486.042	0.0084
486.242	-0.0012
486.4419	0.004
486.6417	0.0053
486.8416	0.0053
487.0415	-0.0002
487.2413	0.0026
487.4411	0.0004
487.641	0.0022
487.8408	0.0025
488.0405	0.0056
488.2403	-0.0023
488.4401	0.003
488.6398	0.0015
488.8395	0.006
489.0392	0.0021
489.2389	0.0009
489.4386	0.0033
489.6383	0.0126
489.8379	0.0061
490.0376	0.0077
490.2372	0.0014
490.4368	0.0122
490.6364	0.0105
490.836	0.0051
491.0355	0.0043
491.2351	0.0087
491.4346	0.001
491.6341	-0.0069
491.8336	-0.0045
492.0331	-0.0061
492.2326	0.0015
492.432	0.006
492.6315	-0.0024
492.8309	0.0039
493.0303	-0.0038
493.2297	-0.0077
493.4291	-0.0115
493.6284	-0.0009
493.8278	0.0054
494.0271	0.0087
494.2264	0.0045
494.4257	0.0067
494.625	0.0017
494.8243	0.0017
495.0236	0.0006
495.2228	-0.0078
495.422	0.0041
495.6213	-0.0009
495.8205	0.0115
496.0196	0.0012
496.2188	0.0055
496.418	-0.0059
496.6171	0.0001
496.8162	0.0075
497.0153	0.0051
497.2144	-0.0061
497.4135	0.0082
497.6126	-0.0043
497.8116	-0.0029
498.0107	0.0002
498.2097	0.0038
498.4087	-0.0018
498.6077	0.0034
498.8067	0.0036
499.0056	0.0058
499.2046	0.008
499.4035	-0.0009
499.6024	-0.0047
499.8013	0.0055
500.0002	0.0075
500.199	0.0126
500.3979	0.0034
500.5967	0.0007
500.7956	-0.0011
500.9944	0.0018
501.1932	0.0045
501.3919	0.0047
501.5907	0.0065
501.7895	0.0039
501.9882	-0.0025
502.1869	0.0025
502.3856	-0.0081
502.5843	0.0019
502.783	-0.0002
502.9816	-0.0005
503.1803	0.0104
503.3789	0.0065
503.5775	-0.002
503.7761	0.0034
503.9747	0.0014
504.1732	0.0021
504.3718	0.001
504.5703	-0.0039
504.7689	-0.0016
504.9674	0.0014
505.1658	0.0114
505.3643	0.0063
505.5628	0.0068
505.7612	0.0068
505.9597	0.0061
506.1581	-0.0111
506.3565	-0.0096
506.5549	0.0035
506.7532	0.01
506.9516	0.0022
507.1499	0.0069
507.3482	0.0046
507.5465	-0.0011
507.7448	0.0088
507.9431	-0.0007
508.1414	0.0051
508.3396	-0.0004
508.5379	0.0021
508.7361	0.0028
508.9343	-0.0051
509.1325	0.0061
509.3306	0.0041
509.5288	0.0113
509.7269	0.0085
509.9251	-0.0028
510.1232	-0.0059
510.3213	-0.0009
510.5193	0.0055
510.7174	-0.0067
510.9154	0.0082
511.1135	0.0001
511.3115	-0.0021
511.5095	0.0066
511.7075	0.0015
511.9055	0.0084
512.1034	0.011
512.3014	-0.0015
512.4993	-0.0012
512.6972	-0.0065
512.8951	0.0038
513.093	0.0064
513.2908	0.0007
513.4887	0.0133
513.6865	-0.0092
513.8844	0.0072
514.0822	0.0019
514.2799	-0.0067
514.4777	0.0114
514.6755	0.0067
514.8732	-0.0054
515.0709	0.0055
515.2687	0.0098
515.4664	-0.0002
515.664	0.005
515.8617	0.0096
516.0594	0.0026
516.257	0.0122
516.4546	-0.0001
516.6522	0.0116
516.8498	0.0033
517.0474	-0.0032
517.2449	0.0031
517.4425	-0.0082
517.64	-0.0003
517.8375	0.014
518.035	-0.0012
518.2325	0.0036
518.43	0
518.6274	0.0003
518.8249	0.0045
519.0223	-0.0019
519.2197	0.0003
519.4171	0.0022
519.6145	0.0017
519.8118	0.0005
520.0092	0.0067
520.2065	0.0032
520.4038	-0.0061
520.6011	0.0027
520.7984	0.004
520.9956	0.0072
521.1929	-0.003
521.3901	0.0096
521.5874	0.0055
521.7846	-0.0014
521.9818	0.0035
522.1789	0.0082
522.3761	0.0024
522.5732	-0.0051
522.7704	0.0112
522.9675	-0.0021
523.1646	0.0131
523.3617	-0.0012
523.5587	-0.0027
523.7558	0.0017
523.9528	0.0093
524.1498	0.0028
524.3468	-0.0061
524.5438	0.0013
524.7408	-0.0054
524.9378	0.0021
525.1347	0.0014
525.3316	0.01
525.5285	-0.0002
525.7254	-0.0138
525.9223	-0.0006
526.1192	-0.0049
526.316	-0.0123
526.5129	0.0077
526.7097	-0.0008
526.9065	0.0108
527.1033	0.0004
527.3	-0.0005
527.4968	-0.0052
527.6935	0.0066
527.8903	0.0015
528.087	-0.0011
528.2837	0.0043
528.4804	0.0057
528.677	0.0051
528.8737	0.003
529.0703	0.005
529.2669	0.004
529.4635	0.0034
529.6601	0.0057
529.8567	0.0048
530.0532	0.0005
530.2498	-0.0055
530.4463	0.0124
530.6428	-0.0032
530.8393	-0.0023
531.0358	0.0113
531.2322	0.0069
531.4287	0.0068
531.6251	-0.003
531.8215	0.0031
532.0179	0.001
532.2143	0.001
532.4107	0.0048
532.607	0.002
532.8034	0.0042
532.9997	0.0109
533.196	0.0021
533.3923	-0.0045
533.5886	-0.0037
533.7848	-0.0086
533.9811	-0.0032
534.1773	-0.0056
534.3735	0.0069
534.5697	-0.0045
534.7659	0.0003
534.9621	0.0165
535.1582	0.006
535.3544	0.0118
535.5505	0.008
535.7466	0.0058
535.9427	-0.0059
536.1387	0.0011
536.3348	0.007
536.5308	0.016
536.7269	-0.0024
536.9229	0.0044
537.1189	0.0008
537.3148	-0.0043
537.5108	-0.0013
537.7068	0.0122
537.9027	0.0145
538.0986	-0.0088
538.2945	0.0008
538.4904	-0.001
538.6863	0.0125
538.8821	0.005
539.078	-0.0011
539.2738	-0.0082
539.4696	0.0065
539.6654	0.0042
539.8611	0.0015
540.0569	-0.0008
540.2526	0.0004
540.4484	0.0016
540.6441	0.0029
540.8398	-0.0059
541.0355	0.0007
541.2311	-0.0017
541.4268	-0.0016
541.6224	0.0046
541.818	-0.0015
542.0136	-0.005
542.2092	0.0078
542.4048	-0.0047
542.6003	0.0063
542.7959	0.001
542.9914	0.0113
543.1869	0.0063
543.3824	-0.0025
543.5779	0.0012
543.7734	-0.0069
543.9688	0.0042
544.1642	0.0044
544.3596	-0.0036
544.555	0.0033
544.7504	0.0074
544.9458	0.0044
545.1411	0.005
545.3365	0.0088
545.5318	0.0019
545.7271	0.0092
545.9224	-0.0126
546.1177	-0.0033
546.3129	-0.0042
546.5081	-0.013
546.7034	-0.0023
546.8986	0.0043
547.0938	-0.0087
547.289	0.0106
547.4841	-0.0007
547.6793	-0.0037
547.8744	0.0021
548.0695	0.0025
548.2646	-0.0053
548.4597	-0.0001
548.6548	0.0146
548.8498	-0.0048
549.0448	0.0011
549.2399	0.0011
549.4349	0.0069
549.6298	-0.0012
549.8248	-0.0113
550.0198	0.0077
550.2147	-0.005
550.4096	-0.0022
550.6045	0.0048
550.7994	0.0161
550.9943	0.0068
551.1892	-0.0017
551.384	0.0096
551.5788	0.0078
551.7737	0.0006
551.9685	0.0118
552.1632	0.0002
552.358	0.0109
552.5528	-0.0011
552.7475	-0.0024
552.9422	-0.0018
553.1369	0.0076
553.3316	-0.0061
553.5263	-0.0094
553.7209	-0.0019
553.9156	0.0045
554.1102	-0.0027
554.3048	0.0088
554.4994	0.0006
554.694	0.0024
554.8885	0.0145
555.0831	0.0084
555.2776	-0.0012
555.4721	-0.0073
555.6666	0.0067
555.8611	-0.0094
556.0555	0.0036
556.25	-0.0002
556.4444	-0.0003
556.6388	0.007
556.8332	-0.0049
557.0276	0.0096
557.222	-0.0124
557.4163	0.0074
557.6107	-0.0028
557.805	-0.0061
557.9993	-0.0013
558.1936	0.0145
558.3879	0.001
558.5821	-0.0047
558.7764	0.0146
558.9706	0.0062
559.1648	-0.0002
559.359	0.0168
559.5532	-0.0001
559.7473	0.009
559.9415	-0.0071
560.1356	0.0041
560.3297	0.0009
560.5238	-0.0039
560.7179	0.0019
560.9119	-0.0004
561.106	-0.0035
561.3	-0.0044
561.494	0.0027
561.688	0.0025
561.882	0.0035
562.076	0.0082
562.2699	0.0058
562.4639	0.0039
562.6578	0.0123
562.8517	0.0021
563.0456	-0.0039
563.2395	-0.0014
563.4333	0.0019
563.6272	0.0153
563.821	0.0049
564.0148	-0.0038
564.2086	0.0051
564.4024	-0.0028
564.5961	0.0083
564.7899	0.0069
564.9836	0.0006
565.1773	0.0107
565.371	0.008
565.5647	-0.0082
565.7584	-0.0004
565.952	-0.0067
566.1456	0.0133
566.3393	0.0044
566.5329	-0.0016
566.7264	-0.0062
566.92	-0.0003
567.1136	0.0038
567.3071	0.0039
567.5006	-0.0015
567.6941	0.0083
567.8876	-0.0003
568.0811	-0.006
568.2745	-0.0023
568.468	-0.0022
568.6614	0.0045
568.8548	-0.0017
569.0482	0.0002
569.2416	-0.0046
569.4349	0.0015
569.6283	0.007
569.8216	-0.002
570.0149	0.0047
570.2082	-0.0016
570.4015	0.003
570.5947	-0.0015
570.788	-0.0014
570.9812	-0.0016
571.1744	-0.0033
571.3676	-0.0032
571.5608	-0.0025
571.754	-0.0006
571.9471	0.0045
572.1402	0.0018
572.3333	-0.0066
572.5264	0.0037
572.7195	0.0073
572.9126	0.0019
573.1057	-0.0023
573.2987	-0.0013
573.4917	0.0009
573.6847	0.0024
573.8777	0.0015
574.0707	-0.0018
574.2636	0.0013
574.4566	0.0005
574.6495	0.0029
574.8424	-0.0013
575.0353	0.0015
575.2281	0.0055
575.421	-0.0042
575.6138	0.0018
575.8067	-0.0025
575.9995	0.0003
576.1923	0.0037
576.385	-0.0026
576.5778	-0.0017
576.7706	0.0049
576.9633	-0.0007
577.156	0.0033
577.3487	-0.0001
577.5414	-0.0038
577.734	-0.0013
577.9267	-0.0032
578.1193	-0.0001
578.3119	-0.0023
578.5045	0.0004
578.6971	-0.0018
578.8897	0.0012
579.0822	0.0022
579.2747	-0.0058
579.4673	0.001
579.6598	0.003
579.8522	0.0034
580.0447	-0.0013
580.2372	0.0061
580.4296	-0.0007
580.622	0.0003
580.8144	-0.0006
581.0068	0.0033
581.1992	0.0019
581.3915	-0.003
581.5839	0.0007
581.7762	0.0023
581.9685	-0.0007
582.1608	0.0031
582.353	0.0018
582.5453	0.0041
582.7375	0.0018
582.9298	0.0006
583.122	-0.0025
583.3142	0.0019
583.5063	0.0007
583.6985	0.0038
583.8906	-0.0026
584.0827	0.0029
584.2749	0.0013
584.4669	-0.0008
584.659	-0.0046
584.8511	0.0019
585.0431	0.0015
585.2352	-0.0037
585.4272	-0.0014
585.6192	0.0007
585.8111	-0.0063
586.0031	-0.0016
586.195	0.0009
586.387	0.001
586.5789	0.0036
586.7708	-0.002
586.9627	0.0009
587.1545	0.0004
587.3464	0.0044
587.5382	-0.003
587.73	0.0029
587.9218	-0.0023
588.1136	-0.0036
588.3053	0.0012
588.4971	0.0035
588.6888	-0.0032
588.8805	0.0042
589.0722	-0.0019
589.2639	-0.0015
589.4556	-0.0054
589.6472	-0.0022
589.8389	-0.0012
590.0305	-0.0032
590.2221	0.0017
590.4137	-0.0056
590.6052	-0.0043
590.7968	-0.0045
590.9883	0.0027
591.1798	-0.001
591.3713	0.0001
591.5628	-0.0003
591.7543	-0.0025
591.9458	-0.0035
592.1372	-0.007
592.3286	0.0002
592.52	-0.0003
592.7114	-0.0052
592.9028	-0.0042
593.0941	-0.0017
593.2855	0.0065
593.4768	0.0015
593.6681	0.001
593.8594	-0.0071
594.0506	0.0048
594.2419	-0.0055
594.4331	-0
594.6244	0
594.8156	0.0029
595.0067	-0.0016
595.1979	-0.0051
595.3891	0.0007
595.5802	0.0032
595.7713	-0.003
595.9624	0.0035
596.1535	0.0032
596.3446	-0.0062
596.5357	0.0044
596.7267	0.0008
596.9177	-0.0008
597.1087	0.0059
597.2997	0.0014
597.4907	0.0027
597.6817	0.003
597.8726	0.004
598.0635	0.0017
598.2544	-0.0016
598.4453	0.0018
598.6362	-0.0061
598.827	0.0002
599.0179	0.0008
599.2087	-0.002
599.3995	0.0058
599.5903	0.0042
599.7811	0.0055
599.9718	0.0047
600.1626	0.0004
600.3533	-0.0037
600.544	0.0007
600.7347	-0.0004
600.9254	0.0035
601.116	-0.0006
601.3067	0.0096
601.4973	0.0071
601.6879	0.0011
601.8785	0.0046
602.0691	0.0034
602.2596	0.0015
602.4502	0.0032
602.6407	0.0027
602.8312	0.002
603.0217	0.0063
603.2122	0.0042
603.4027	-0.0007
603.5931	0.0006
603.7835	0.0024
603.9739	-0.0008
604.1643	0.0009
604.3547	0.0052
604.5451	0.0065
604.7354	-0.0054
604.9257	0.0045
605.116	0.0061
605.3063	-0.005
605.4966	0.003
605.6869	-0.0009
605.8771	0.0059
606.0673	-0.004
606.2575	0.0004
606.4477	0.0029
606.6379	-0.0021
606.8281	-0.0058
607.0182	-0.0004
607.2083	-0.0008
607.3985	0.0035
607.5885	0.0033
607.7786	0.008
607.9687	0.002
608.1587	0.0053
608.3488	-0.0004
608.5388	0.0006
608.7288	-0.0014
608.9187	0.0045
609.1087	0.0055
609.2986	-0.0012
609.4886	0.0052
609.6785	-0.001
609.8684	-0.0042
610.0582	-0.0009
610.2481	-0.0003
610.4379	0.0052
610.6278	0.0015
610.8176	-0.001
611.0074	-0.0022
611.1971	-0.0003
611.3869	-0.0002
611.5766	-0.0039
611.7664	0.0088
611.9561	0.0034
612.1458	-0.001
612.3354	0.004
612.5251	0.0004
612.7147	0.007
612.9044	0.0011
613.094	0.0001
613.2836	0.0007
613.4731	0.0055
613.6627	0.0001
613.8522	-0.0051
614.0417	0.0014
614.2313	-0.0088
614.4207	0.0009
614.6102	-0.0057
614.7997	-0.0056
614.9891	-0.0023
615.1785	-0.0038
615.3679	0.0028
615.5573	-0.0035
615.7467	-0.0059
615.9361	-0.0005
616.1254	-0.0055
616.3147	0.002
616.504	0.0039
616.6933	-0.0018
616.8826	0.007
617.0718	-0.0095
617.2611	-0.0035
617.4503	-0.0017
617.6395	-0.0031
617.8287	0.0144
618.0179	-0.0006
618.207	-0.0014
618.3961	0.0021
618.5853	0.0075
618.7744	0.0085
618.9634	0.0075
619.1525	-0.0025
619.3416	-0.0011
619.5306	-0.0034
619.7196	-0.0085
619.9086	0.0118
620.0976	-0.0016
620.2866	0.0054
620.4755	0.0108
620.6645	0.0047
620.8534	-0.0009
621.0423	0.0005
621.2312	-0.0085
621.42	-0.0089
621.6089	-0.0024
621.7977	-0.0005
621.9865	0.0054
622.1753	-0.0027
622.3641	-0.0115
622.5529	-0.0048
622.7416	-0.0099
622.9303	-0.0033
623.1191	-0.0032
623.3078	0.0009
623.4964	-0.0111
623.6851	-0.0019
623.8737	0.006
624.0624	-0.0012
624.251	0.0009
624.4396	-0.0015
624.6282	0.0164
624.8167	0.0033
625.0053	0.0037
625.1938	0.0036
625.3823	0.0023
625.5708	-0.0026
625.7593	0.0055
625.9477	-0.0072
626.1362	-0.0018
626.3246	-0.0094
626.513	0.0103
626.7014	0.0003
626.8898	0.0043
627.0781	0.0063
627.2665	0.0072
627.4548	-0.0014
627.6431	-0.0093
627.8314	0.0106
628.0197	0.0048
628.2079	0.0043
628.3962	0.0037
628.5844	-0.0005
628.7726	-0.0047
628.9608	-0.0026
629.1489	0.0011
629.3371	-0.0097
629.5252	0.0081
629.7134	0.0149
629.9015	0.0027
630.0895	0.0062
630.2776	0.0046
630.4657	0.0032
630.6537	-0.0081
630.8417	-0.0122
631.0297	-0.0061
631.2177	-0.0063
631.4057	-0.0114
631.5936	-0.0074
631.7815	-0.003
631.9695	0.0221
632.1574	-0.0025
632.3452	-0.0056
632.5331	0.0116
632.7209	0.0068
632.9088	-0.0174
633.0966	0.0096
633.2844	0.0015
633.4722	0.0043
633.6599	-0.0143
633.8477	0.0004
634.0354	0.0186
634.2231	0.0216
634.4108	0.0105
634.5985	0.0026
634.7861	-0.007
634.9738	0.0095
635.1614	0.0065
635.349	-0.006
635.5366	-0.0081
635.7242	0.0032
635.9117	0.0161
636.0993	-0.0142
636.2868	0.0048
636.4743	0.0226
636.6618	0.0036
636.8492	0.0005
637.0367	-0.0034
637.2241	0.0149
637.4115	0.0174
637.5989	0.0139
637.7863	-0.0103
637.9737	0.0177
638.161	-0.0026
638.3484	0.0052
638.5357	0.0045
638.723	-0.0177
638.9103	0.0059
639.0975	-0.0055
639.2848	0.0121
639.472	0.0135
639.6592	0.0072
639.8464	0.0112
640.0336	0.0051
640.2208	-0.0111
640.4079	0.0163
640.595	-0.0033
640.7821	-0.0053
640.9692	0.0241
641.1563	0.006
641.3434	-0.0018
641.5304	-0.0027
641.7174	0.0059
641.9044	-0.004
642.0914	-0.0091
642.2784	0.0333
642.4653	-0.0043
642.6523	-0.0095
642.8392	0.0196
643.0261	-0.002
643.213	0.0204
643.3999	-0.0023
643.5867	0.023
643.7735	0.0032
643.9604	-0.0034
644.1472	-0.008
644.3339	0.0048
644.5207	-0.0182
644.7075	0.017
644.8942	0.0208
645.0809	0.002
645.2676	-0.0172
645.4543	-0.0061
645.6409	-0.007
645.8276	0.0018
646.0142	0.0091
646.2008	0.0167
646.3874	0.0271
646.574	-0.0098
646.7605	0.0227
646.9471	0.0132
647.1336	0.0153
647.3201	0.0016
647.5066	-0.0045
647.6931	0.0137
647.8795	0.0148
648.0659	-0.0131
648.2524	-0.0018
648.4388	0.0156
648.6252	-0.0062
648.8115	0.0254
648.9979	-0.0147
649.1842	-0.017
649.3705	0.0002
649.5568	-0.0201
649.7431	0.0148
649.9294	0.0033
650.1156	0.0025
650.3018	0.0198
650.488	-0.0005
650.6742	0.0113
650.8604	0.0104
651.0466	0.0064
651.2327	-0.0275
651.4188	-0.0221
651.6049	0.0037
651.791	0.023
651.9771	-0.0038
652.1632	-0.0016
652.3492	0.0026
652.5352	-0.001
652.7212	-0.0024
652.9072	0.0033
653.0932	0.0113
653.2791	0.0059
653.465	-0.0191
653.651	0.0153
653.8369	0.0099
654.0227	-0.0156
654.2086	-0.0078
654.3944	-0.0176
654.5803	0.0047
654.7661	-0.0031
654.9519	0.0006
655.1377	0.0001
655.3234	0.0001
655.5092	0.0001
655.6949	0.0001
655.8806	0.0001
656.0663	0.0001
656.2519	0.0001
656.4376	0.0001
656.6232	0.0001
656.8088	0.0001
656.9945	0.0001
657.18	0.0001
657.3656	0.0001
657.5511	0.0001
657.7367	0.0001
657.9222	0.0001
658.1077	0.0001
658.2932	0.0001
658.4786	0.0001
658.6641	0.0001
658.8495	0.0001
659.0349	0.0001
659.2203	0.0001
659.4057	0.0143
659.591	0.0614
659.7764	0.0029
659.9617	0.0057
660.147	-0.009
660.3323	-0.0065
660.5176	0.0086
660.7028	0.0025
660.888	0.0077
661.0733	0.0099
661.2585	0.0066
661.4436	0.0046
661.6288	-0.0025
661.8139	0.0296
661.9991	0.0119
662.1842	0.0201
662.3693	-0.002
662.5544	0.0105
662.7394	0.0291
662.9245	0.0137
663.1095	0.0244
663.2945	-0.0103
663.4795	0.0078
663.6644	0.0086
663.8494	0.0246
664.0343	-0.0189
664.2193	0.0035
664.4042	0.0031
664.589	-0.029
664.7739	0.0034
664.9587	-0.0066
665.1436	-0.018
665.3284	0.0031
665.5132	0.0051
665.698	-0.0014
665.8827	-0.0105
666.0675	-0.0158
666.2522	0.0149
666.4369	-0.0047
666.6216	-0.0266
666.8063	0.0079
666.9909	-0.0078
667.1756	0.0033
667.3602	-0.0323
667.5448	0.0058
667.7294	0.0027
667.9139	-0.0076
668.0985	-0.0261
668.283	-0.0058
668.4675	-0.0056
668.652	-0.0166
668.8365	-0.0337
669.0209	-0.0308
669.2054	-0.0096
669.3898	0.0201
669.5742	0.0025
669.7586	0.0223
669.943	-0.0277
670.1273	0.0298
670.3117	0.0219
670.496	0.001
670.6803	0.0018
670.8646	0.0089
671.0488	0.0056
671.2331	0.0037
671.4173	0.0101
671.6015	0.009
671.7857	-0.0187
671.9699	0.0027
672.1541	-0.0125
672.3382	0.0041
672.5223	0.0056
672.7064	-0.0043
672.8905	-0.0032
673.0746	-0.0212
673.2587	0.0019
673.4427	-0.0086
673.6267	-0.0211
673.8107	-0.0065
673.9947	0.0001
674.1787	-0.0042
674.3626	0.0014
674.5465	0.0067
674.7304	-0.0153
674.9143	0.0145
675.0982	0.0308
675.2821	0.0306
675.4659	0.011
675.6497	0.0045
675.8335	-0.0111
676.0173	0.0188
676.2011	-0.0015
676.3849	0.0057
676.5686	0.0103
676.7523	0.0169
676.936	-0.0246
677.1197	0.0121
677.3034	0.0248
677.487	0.0053
677.6706	0.0052
677.8542	0.032
678.0378	0.01
678.2214	0.0024
678.405	0.0019
678.5885	-0.0013
678.772	0.0019
678.9555	-0.001
679.139	-0.0137
679.3225	-0.015
679.5059	0.0051
679.6894	-0.0074
679.8728	-0.0101
680.0562	-0.0067
680.2395	0.0034
680.4229	0.0057
680.6062	0.0024
680.7896	0.011
680.9729	0.0145
681.1562	-0.0066
681.3394	0.0144
681.5227	-0.003
681.7059	-0.002
681.8891	0.0074
682.0723	-0.0076
682.2555	0.0182
682.4387	0.0137
682.6218	-0.0175
682.805	-0.0047
682.9881	-0.008
683.1712	0.0136
683.3542	-0.0199
683.5373	0.0076
683.7203	0.0133
683.9034	0.0033
684.0864	0.0049
684.2694	0.0227
684.4523	-0.0077
684.6353	0.0066
684.8182	0.0046
685.0011	-0.0063
685.184	-0.0013
685.3669	-0.0128
685.5498	-0.0023
685.7326	-0.0027
685.9154	0.0006
686.0982	-0.0055
686.281	-0.0008
686.4638	0.007
686.6465	0.0133
686.8293	0.0009
687.012	0.0039
687.1947	0.0155
687.3774	-0.0082
687.56	-0.0085
687.7427	-0.0093
687.9253	0.0202
688.1079	0.0167
688.2905	-0.006
688.4731	0.0229
688.6556	0.0029
688.8382	0.0017
689.0207	-0.0102
689.2032	-0.0161
689.3857	-0.0267
689.5681	-0.0341
689.7506	-0.0059
689.933	0.0109
690.1154	0.0043
690.2978	-0.0192
690.4802	0.0281
690.6626	-0.0091
690.8449	-0.0286
691.0272	-0.0214
691.2095	-0.0053
691.3918	0.0003
691.5741	0.0065
691.7563	-0.0041
691.9386	-0.0135
692.1208	-0.0015
692.303	0.0111
692.4852	0.007
692.6673	-0.0068
692.8495	-0.0166
693.0316	0.0108
693.2137	0.0181
693.3958	0.0094
693.5778	-0.0253
693.7599	-0.0388
693.9419	0.0256
694.1239	-0.0224
694.3059	-0.0048
694.4879	-0.031
694.6699	0.0205
694.8518	-0.0129
695.0337	0.013
695.2157	-0.02
695.3975	-0.0234
695.5794	-0.017
695.7613	0.0132
695.9431	-0.0032
696.1249	-0.0078
696.3067	0.0003
696.4885	-0.0079
696.6703	0.0117
696.852	-0.0025
697.0337	0.0072
697.2154	0.0035
697.3971	0.007
697.5788	0.0336
697.7605	0
697.9421	0.011
698.1237	0.0132
698.3053	0.0008
698.4869	0.0215
698.6685	-0.002
698.85	-0.0125
699.0315	-0.0098
699.213	0.0225
699.3945	0.0098
699.576	-0.0167
699.7575	-0.0096
699.9389	-0.0129
700.1203	-0.0032
700.3017	0.0001
700.4831	0.0147
700.6645	-0.0179
700.8458	0.0095
701.0271	-0.0102
701.2084	-0.0235
701.3897	-0.0026
701.571	0.0031
701.7523	-0.0233
701.9335	0.0177
702.1147	0.0001
702.2959	-0.0008
702.4771	-0.0058
702.6583	-0.018
702.8394	0.003
703.0205	-0.01
703.2016	-0.01
703.3827	0.0194
703.5638	0.0043
703.7449	0.0041
703.9259	0.0053
704.1069	0.0131
704.2879	0.0139
704.4689	0.0138
704.6499	-0.008
704.8308	-0.0126
705.0117	-0.0308
705.1927	0.0026
705.3735	0.0297
705.5544	0.0015
705.7353	0.0228
705.9161	0.0125
706.0969	-0.0168
706.2777	-0.0026
706.4585	0.0185
706.6393	-0.0057
706.82	-0.0136
707.0007	-0.0035
707.1815	0.0362
707.3621	0.0046
707.5428	0.0198
707.7235	0.0099
707.9041	-0.0138
708.0847	-0.0027
708.2653	0.0074
708.4459	-0.0045
708.6265	-0.0138
708.807	0.0103
708.9875	0.0082
709.168	0.0261
709.3485	0.0033
709.529	0.0123
709.7095	-0.0331
709.8899	0.0033
710.0703	-0.0061
710.2507	0.0164
710.4311	0.0033
710.6115	-0.0019
710.7918	0.0269
710.9721	0.0063
711.1524	-0.0051
711.3327	-0.0095
711.513	0.0108
711.6932	-0.0246
711.8735	0.0064
712.0537	0.01
712.2339	0.003
712.4141	0.03
712.5942	0.0077
712.7744	0.0049
712.9545	0.0043
713.1346	0.004
713.3147	0.014
713.4947	-0.0028
713.6748	0.0011
713.8548	0.006
714.0348	0.0069
714.2148	-0.0014
714.3948	0.0162
714.5748	-0.0027
714.7547	-0.024
714.9346	0.0159
715.1145	-0.002
715.2944	0.0144
715.4743	0.0145
715.6541	-0.0139
715.834	0.021
716.0138	0.0177
716.1936	-0.0219
716.3733	0.0098
716.5531	0.0215
716.7328	-0.0315
716.9126	-0.0446
717.0923	0.0089
717.2719	0.0154
717.4516	-0.0386
717.6312	-0.0233
717.8109	0.0125
717.9905	0.0048
718.1701	-0.0011
718.3496	0.0005
718.5292	-0.0115
718.7087	0.0209
718.8882	0.0101
719.0677	-0.0349
719.2472	0.0058
719.4267	-0.014
719.6061	0.0001
719.7856	-0.0046
719.965	0.003
720.1443	0.0005
720.3237	0.0124
720.5031	0.0456
720.6824	0.0141
720.8617	0.0123
721.041	0.0052
721.2203	-0.0019
721.3995	-0.0194
721.5788	-0.0036
721.758	-0.0045
721.9372	0.0075
722.1164	-0.0087
722.2956	0.0089
722.4747	0.0326
722.6538	0.0018
722.8329	0.0001
723.012	0.0161
723.1911	-0.002
723.3702	-0.0277
723.5492	-0.01
723.7282	0.0127
723.9072	-0.0374
724.0862	0.0165
724.2652	0.0033
724.4441	0.0025
724.623	-0.0089
724.8019	-0.0108
724.9808	0.0018
725.1597	0.0082
725.3385	0.0085
725.5174	0.0298
725.6962	0.0192
725.875	0.0104
726.0538	0.0051
726.2325	-0.0235
726.4112	0.0307
726.59	0.0112
726.7687	0.009
726.9474	0.0112
727.126	-0.0267
727.3047	0.0203
727.4833	0.0316
727.6619	0.0387
727.8405	-0.0041
728.0191	-0.0338
728.1976	-0.0249
728.3762	-0.027
728.5547	-0.0021
728.7332	0.0127
728.9116	-0.0041
729.0901	0.0244
729.2686	0.0001
729.447	-0.0314
729.6254	0.0263
729.8038	-0.0038
729.9821	0.0004
730.1605	-0.0069
730.3388	-0.0142
730.5171	-0.0091
730.6954	0.0266
730.8737	0.0158
731.0519	0.0066
731.2302	-0.0228
731.4084	0.0069
731.5866	-0.0039
731.7648	-0.0132
731.9429	0.0157
732.1211	-0.0137
732.2992	0.0058
732.4773	0
732.6554	-0.0008
732.8335	0.0006
733.0115	-0.0185
733.1896	-0.0062
733.3676	0.0033
733.5456	-0.0011
733.7235	-0.0039
733.9015	-0.0105
734.0794	-0.0027
734.2574	0.01
734.4353	0.0075
734.6131	0.0172
734.791	0.0233
734.9689	-0.0142
735.1467	0.0023
735.3245	0.0133
735.5023	0.0042
735.68	0.0023
735.8578	0.0046
736.0355	0.0176
736.2132	0.0114
736.3909	0.0057
736.5686	-0.0094
736.7463	-0.0002
736.9239	0.0112
737.1015	-0.0061
737.2791	0.0125
737.4567	0.0226
737.6343	0.0004
737.8118	0.003
737.9894	0.0134
738.1669	0.0044
738.3444	0.0117
738.5218	-0.0093
738.6993	-0.0083
738.8767	0.0013
739.0541	-0.0034
739.2315	0.0003
739.4089	-0.0005
739.5863	-0.0019
739.7636	0.015
739.9409	-0.0094
740.1182	0.008
740.2955	-0.0368
740.4728	0.0133
740.65	0.0101
740.8272	-0.0273
741.0044	0.0068
741.1816	-0.003
741.3588	0.0037
741.5359	0.0228
741.7131	0.0436
741.8902	-0.0145
742.0673	0.0071
742.2444	-0.006
742.4214	-0.0011
742.5985	0.0042
742.7755	-0.0359
742.9525	0.0292
743.1295	-0.0088
743.3064	0.0074
743.4834	0.0199
743.6603	0.0042
743.8372	0.001
744.0141	0.0311
744.191	0.0045
744.3678	0.0092
744.5446	0.0005
744.7215	0.0057
744.8982	0.0131
745.075	0.0053
745.2518	0.0025
745.4285	-0.0074
745.6052	-0.0093
745.7819	0.0222
745.9586	0.0171
746.1353	0.0011
746.3119	-0.0215
746.4885	0.0101
746.6651	-0.0144
746.8417	-0.0188
747.0183	0.0086
747.1948	-0.0093
747.3714	0.0106
747.5479	0.0087
747.7244	-0.0487
747.9008	0.0591
748.0773	0.0248
748.2537	0.0276
748.4301	0.0152
748.6065	-0.0292
748.7829	-0.0043
748.9593	-0.0015
749.1356	-0.0038
749.3119	0.0148
749.4882	0.0001
749.6645	0.0365
749.8408	-0.0035
750.017	-0.0003
750.1933	0.0495
750.3695	0.0156
750.5457	-0.0217
750.7218	0.0171
750.898	-0.0154
751.0741	0.0263
751.2502	0.0223
751.4263	-0.0025
751.6024	0.031
751.7784	-0.0532
751.9545	-0.0374
752.1305	-0.0087
752.3065	0.0176
752.4825	0.0026
752.6584	0.0087
752.8344	0.0283
753.0103	-0.0144
753.1862	-0.0033
753.3621	0.0021
753.5379	-0.0079
753.7138	0.0008
753.8896	0.0382
754.0654	0.0165
754.2412	0.0328
754.417	-0.012
754.5927	-0.0049
754.7685	-0.0224
754.9442	0.0023
755.1199	-0.0146
755.2956	0.0097
755.4712	0.0152
755.6469	-0.0103
755.8225	0.0123
755.9981	-0.0034
756.1736	0.0233
756.3492	-0.0048
756.5248	0.002
756.7003	0.0059
756.8758	0.0072
757.0513	-0.0051
757.2267	-0.0038
757.4022	0.0067
757.5776	-0.0063
757.753	-0.0052
757.9284	0.0057
758.1038	0.0088
758.2791	-0.0008
758.4545	-0.0104
758.6298	-0.0102
758.8051	0.0185
758.9803	-0.0052
759.1556	-0.0188
759.3308	0.0035
759.506	-0.0112
759.6812	-0.0138
759.8564	-0.0046
760.0316	0.0066
760.2067	-0.0264
760.3819	0.0065
760.557	-0.007
760.732	0.0141
760.9071	0.0068
761.0821	0.0071
761.2572	-0.0002
761.4322	-0.0053
761.6072	-0.0069
761.7821	-0.0006
761.9571	-0.0103
762.132	-0.0163
762.3069	-0.0086
762.4818	0.0173
762.6567	0.0421
762.8316	0.0212
763.0064	-0.033
763.1812	-0.019
763.356	0.0004
763.5308	-0.0242
763.7055	-0.0012
763.8803	-0.0264
764.055	0.0029
764.2297	0.0005
764.4044	0.0061
764.579	0.0012
764.7537	-0.0153
764.9283	-0.0413
765.1029	0.0068
765.2775	-0.0166
765.4521	0.0032
765.6266	-0.01
765.8011	-0.0104
765.9756	0.015
766.1501	0.0213
766.3246	-0.006
766.4991	-0.003
766.6735	0.0122
766.8479	0.0083
767.0223	0.0112
767.1967	-0.0011
767.371	-0.0106
767.5454	0.0069
767.7197	0.0195
767.894	-0.0161
768.0683	-0.0225
768.2425	0.0196
768.4168	0.0312
768.591	0.0043
768.7652	0.0027
768.9394	0.0052
769.1135	-0.0095
769.2877	0.0152
769.4618	-0.0114
769.6359	-0.0004
769.81	0.0102
769.984	0.0178
770.1581	0.0257
770.3321	-0.0179
770.5061	-0.0017
770.6801	0.0164
770.8541	0.0091
771.028	-0.0176
771.202	-0.0535
771.3759	-0.0063
771.5498	-0.0004
771.7236	0.0167
771.8975	-0.0374
772.0713	-0.0178
772.2451	-0.0043
772.4189	0.0072
772.5927	0.0001
772.7665	0.0427
772.9402	0.0243
773.1139	-0.0195
773.2876	0.0023
773.4613	0.0286
773.635	0.0175
773.8086	0.0256
773.9822	-0.0227
774.1558	-0.0131
774.3294	-0.0224
774.503	0.0199
774.6765	0.0823
774.8501	0.0184
775.0236	0.0406
775.1971	-0.0138
775.3705	-0.0007
775.544	-0.0156
775.7174	-0.0429
775.8908	0.0423
776.0642	-0.0015
776.2376	-0.0549
776.4109	0.055
776.5843	-0.0426
776.7576	0.0177
776.9309	0.0471
777.1041	-0.0078
777.2774	-0.0106
777.4506	-0.024
777.6238	0.0652
777.797	0.0047
777.9702	0.0684
778.1434	0.0039
778.3165	-0.0149
778.4896	-0.0064
778.6627	0.0709
778.8358	0.0007
779.0089	-0.0103
779.1819	-0.0033
779.3549	0.011
779.5279	0.0539
779.7009	0.0045
779.8739	-0.0046
780.0468	0.0469
780.2197	-0.0135
780.3926	0.0177
780.5655	-0.0229
780.7384	-0.002
780.9112	0.0075
781.0841	0.0016
781.2569	0.0097
781.4297	0.0193
781.6024	-0.0043
781.7752	-0.009
781.9479	-0.0147
782.1206	0.0282
782.2933	0.0059
782.466	0.0059
782.6386	0.0104
782.8113	0.0129
782.9839	0.0224
783.1565	-0.0388
783.329	0.0058
783.5016	0.0261
783.6741	-0.0398
783.8466	-0.0541
784.0191	-0.0231
784.1916	-0.0045
784.3641	0.0082
784.5365	0.0299
784.7089	0.0362
784.8813	0.0346
785.0537	-0.0241
785.2261	-0.0247
785.3984	-0.0392
785.5707	0.0316
785.743	-0.0415
785.9153	0.0213
786.0876	-0.0239
786.2598	0.0247
786.432	-0.0143
786.6042	0.0358
786.7764	0.021
786.9486	0.0335
787.1207	0.0326
787.2928	-0.0158
787.4649	-0.0131
787.637	0.0408
787.8091	-0.0237
787.9811	0.0136
788.1532	-0.0104
788.3252	0.0026
788.4972	-0.004
788.6691	0.0371
788.8411	0.0043
789.013	-0.0192
789.1849	0.0332
789.3568	0.0104
789.5287	-0.0358
789.7005	0.0171
789.8723	-0.0075
790.0442	-0.0464
790.2159	0.0501
790.3877	0.0076
790.5595	-0.0133
790.7312	-0.003
790.9029	0.0405
791.0746	0.0453
791.2463	-0.0347
791.4179	-0.0728
791.5896	-0.0568
791.7612	-0.0608
791.9328	-0.0437
792.1044	-0.0035
792.2759	0.0024
792.4474	-0.0334
792.619	0.0292
792.7905	0.0162
792.9619	0.007
793.1334	-0.014
793.3048	-0.0362
793.4762	-0.0178
793.6476	-0.0199
793.819	0.0044
793.9904	0.0198
794.1617	0.0239
794.333	-0.0005
794.5043	0.0283
794.6756	0.0091
794.8469	-0.0191
795.0181	-0.0243
795.1893	0.0252
795.3605	-0.0326
795.5317	0.015
795.7029	-0.0102
795.874	0.0078
796.0452	-0.0419
796.2163	0.0637
796.3873	0.0832
796.5584	0.0249
796.7294	-0.0565
796.9005	-0.0634
797.0715	0.0166
797.2425	-0.0438
797.4134	0.0175
797.5844	0.0665
797.7553	-0.0199
797.9262	0.0125
798.0971	-0.018
798.2679	0.0063
798.4388	-0.0586
798.6096	-0.0831
798.7804	0.0322
798.9512	0.0494
799.122	0.0562
799.2927	-0.0252
799.4635	0.0648
799.6342	0.0349
799.8049	0.0278
799.9755	-0.0093
800.1462	0.0485
800.3168	0.0017
800.4874	-0.0054
800.658	0.0601
800.8286	-0.0165
800.9991	0.0916
801.1696	-0.0116
801.3402	-0.0281
801.5106	-0.1002
801.6811	0.0544
801.8516	0.0022
802.022	0.0024
802.1924	0.0223
802.3628	-0.0378
802.5332	-0.1232
802.7035	0.0104
802.8739	0.0591
803.0442	0.0425
803.2145	-0.0015
803.3847	-0.0391
803.555	-0.0113
803.7252	0.0138
803.8954	0.0455
804.0656	0.0867
804.2358	0.0164
804.4059	0.0812
804.5761	0.0387
804.7462	-0.0251
804.9163	-0.0489
805.0864	-0.0215
805.2564	0.0134
805.4264	-0.0373
805.5965	0.0341
805.7665	0.0632
805.9364	-0.0376
806.1064	-0.0222
806.2763	0.0715
806.4462	-0.0444
806.6161	-0.0337
806.786	0.0063
806.9559	0.0135
807.1257	-0.0277
807.2955	0.0119
807.4653	0.0043
807.6351	0.0321
807.8048	-0.0206
807.9746	-0.0828
808.1443	0.0747
808.314	0.006
808.4837	0.0003
808.6533	0.0122
808.8229	-0.1122
808.9926	0.0495
809.1622	-0.0061
809.3317	-0.0566
809.5013	0.0903
809.6708	0.0779
809.8403	0.0299
810.0098	0.1596
810.1793	0.0948
810.3488	0.1906
810.5182	0.0175
810.6876	0.0162
810.857	-0.1056
811.0264	-0.0323
811.1958	-0.1067
811.3651	-0.1147
811.5344	0.0182
811.7037	-0.0132
811.873	-0.0133
812.0422	-0.042
812.2115	-0.052
812.3807	0.0149
812.5499	0.0371
812.7191	0.0761
812.8882	0.0493
813.0574	-0.1557
813.2265	0.0005
813.3956	-0.0306
813.5646	0.0665
813.7337	-0.0567
813.9027	0.0498
814.0718	0.0211
814.2407	-0.0768
814.4097	0.0318
814.5787	0.0229
814.7476	0.0693
814.9165	-0.0199
815.0854	0.0275
815.2543	-0.0672
815.4232	-0.0717
815.592	0.1237
815.7608	0.0994
815.9296	0.0812
816.0984	0.1407
816.2671	0.0394
816.4359	0.0775
816.6046	0.0692
816.7733	-0.0202
816.942	0.0413
817.1106	-0.2853
817.2793	0.0243
817.4479	-0.1602
817.6165	0.0177
817.785	0.1337
817.9536	0.1184
818.1221	0.0349
818.2906	0.1484
818.4591	-0.0117
818.6276	-0.0045
818.7961	0.2377
818.9645	0.1236
819.1329	0.3237
819.3013	0.0064
819.4697	0.3587
819.638	0.3476
819.8064	-0.1495
819.9747	0.009
820.143	0.0216
820.3113	0.1886
820.4795	0.0934
820.6477	0.0069
820.816	-0.0341
820.9842	-0.0357
821.1523	0.0977
821.3205	-0.0716
821.4886	0.0413
821.6567	0.0218
821.8248	0.0342
821.9929	0.039
822.1609	0.0621
822.329	0.0393
822.497	-0.0975
822.665	0.0767
822.833	-0.1058
823.0009	-0.0821
823.1688	-0.004
823.3367	0.0387
823.5046	0.0557
823.6725	0.1127
823.8404	0.2026
824.0082	0.0069
824.176	0.1295
824.3438	0.1177
824.5116	0.215
824.6793	0.1625
824.847	0.0356
825.0147	0.1962
825.1824	0.0631
825.3501	-0.025
825.5177	0.1408
825.6854	0.0568
825.853	-0.0204
826.0206	0.1137
826.1881	0.0007
826.3557	0.0604
826.5232	-0.0336
826.6907	0.1245
826.8582	-0.0473
827.0257	0.1659
827.1931	0.2194
827.3605	-0.0425
827.528	-0.0925
827.6953	0.0034
827.8627	0.0488
828.03	0.009
828.1974	-0.1116
828.3647	0.0471
828.532	0.1815
828.6992	-0.0183
828.8665	0.0496
829.0337	-0.1014
829.2009	0.0503
829.3681	0.0066
829.5352	0.0641
829.7024	-0.0748
829.8695	-0.0799
830.0366	0.1706
830.2037	0.3702
830.3707	0.0408
830.5378	0.1428
830.7048	-0.2775
830.8718	-0.1178
831.0388	0.3139
831.2057	-0
831.3727	0.2328
831.5396	-0.2881
831.7065	0.0132
831.8734	-0.4721
832.0402	0.1727
832.2071	0.0151
832.3739	0.3392
832.5407	-0.0049
832.7075	0.0338
832.8742	0.3653
833.041	0.3016
833.2077	-0.0172
833.3744	-0.068
833.541	-0.0225
833.7077	0.2131
833.8743	0.0594
834.0409	0.0007
834.2075	0.1243
834.3741	0.0855
834.5407	-0.1667
834.7072	0.0846
834.8737	0.2533
835.0402	0.2808
835.2067	0.2877
835.3731	0.105
835.5395	0.0006
835.706	-0.1744
835.8723	0.1539
836.0387	0.151
836.2051	0.3544
836.3714	0.3019
836.5377	-0.0203
836.704	0.4279
836.8703	-0.2151
837.0365	0.0754
837.2027	-0.5028
837.3689	-0.0268
837.5351	0.2279
837.7013	0.0127
837.8674	-0.9167
838.0335	-0.0503
838.1997	-0.097
838.3657	-0.1441
838.5318	-0.6161
838.6978	-0.3076
838.8639	0.2276
839.0299	0.3641
839.1958	0.0513
839.3618	0.2288
839.5277	-0.1334
839.6937	-0.2628
839.8596	-0.0623
840.0254	0.3216
840.1913	0.416
840.3571	-0.3493
840.523	0.5902
840.6888	0.0287
840.8545	0.5265
841.0203	0.2382
841.186	0.0209
841.3517	0.5242
841.5174	0.4727
841.6831	0.3713
841.8488	0.5886
842.0144	0.0239
842.18	0.2419
842.3456	0.4167
842.5112	-0
842.6767	-0.3523
842.8422	0.167
843.0077	-0.1008
843.1732	-0.1198
843.3387	0.7737
843.5042	0.4179
843.6696	0.4526
843.835	0.0023
844.0004	-0.042
844.1657	-0
844.3311	-0
844.4964	-0
844.6617	-0
844.827	0.7598
844.9923	0.0347
845.1575	-0.7625
845.3227	0.3875
845.4879	0.2739
845.6531	-0.2896
845.8183	0.1733
845.9834	-0
846.1485	-0.0709
846.3136	0.06
846.4787	0.0948
846.6438	0.393
846.8088	-0
846.9738	-0
847.1388	0.7894
847.3038	-0.0345
847.4687	-0.789
847.6337	0.6777
847.7986	0.2048
847.9635	-0.053
848.1284	-0
848.2932	-0.1669
848.458	0.1326
848.6228	0.1709
848.7876	-0
848.9524	0.0667
849.1172	-0.0664
849.2819	-0
849.4466	0.3218
849.6113	-0.0812
849.7759	-0
849.9406	-0.1194
850.1052	-0
850.2698	-0
850.4344	-0.0666
850.599	0.2193
850.7635	-0
850.928	0.6704
851.0925	-0.0099
851.257	-0.2595
851.4215	0.0662
851.5859	0.2547
851.7503	-0
851.9147	-0
852.0791	-0.5057
852.2434	-0.1128
852.4078	0.0276
852.5721	-0.0632
852.7364	-0.0187
852.9007	-0.1286
853.0649	0.3636
853.2291	0.2052
853.3934	-0
853.5575	-0
853.7217	-0.2024
853.8859	-0
854.05	-1.0798
854.2141	-0.2218
854.3782	0.3647
854.5423	-0.3826
854.7063	2.7627
854.8703	0.4238
855.0343	0.074
855.1983	0.3475
855.3623	0.2019
855.5262	-0.6239
855.6901	0.8563
855.854	-0.2408
856.0179	-0
856.1818	0.2103
856.3456	0.2562
856.5094	-0
856.6732	0.1542
856.837	0.5074
857.0008	-0
857.1645	-0
857.3282	0.1599
857.4919	0.277
857.6556	-0.0741
857.8192	-0.2186
857.9828	-0.4015
858.1465	0.443
858.31	-0
858.4736	0.0882
858.6372	-0.1792
858.8007	-0
858.9642	0.1968
859.1277	-0.2542
859.2911	0.6977
859.4546	-0.0944
859.618	0.4928
859.7814	-0
859.9448	-0.1081
860.1081	-0
860.2715	0.0475
860.4348	-0.1164
860.5981	-0.7655
860.7614	-0.0796
860.9246	0.6669
861.0879	1.1191
861.2511	-0
861.4143	-0
861.5774	0.4895
861.7406	-0.1814
861.9037	-0
862.0668	-0
862.2299	-0
862.393	-0
862.556	-0
862.7191	1.2034
862.8821	-0.2003
863.0451	-0
863.208	-0
863.371	0.0261
863.5339	0.0607
863.6968	0.4771
863.8597	-0
864.0225	-0.3265
864.1854	-0.031
864.3482	0.2855
864.511	0.4396
864.6737	0.2618
864.8365	-0
864.9992	0.4385
865.1619	0.0131
865.3246	0.0423
865.4873	-0
865.65	-0
865.8126	-0
865.9752	0.1697
866.1378	-0.774
866.3004	0.0907
866.4629	0.0151
866.6254	-0
866.7879	0.6862
866.9504	-0
867.1129	0.2152
867.2753	-0.149
867.4377	0.5405
867.6001	0.0072
867.7625	-0.2173
867.9249	-0
868.0872	-0.0503
868.2495	-0
868.4118	0.0287
868.5741	-0.532
868.7363	-0
868.8986	0.4385
869.0608	-0
869.223	-0
869.3851	-0
869.5473	-1.2508
869.7094	-0
869.8715	0.8081
870.0336	-0.1474
870.1957	-1.1726
870.3577	0.003
870.5197	0.5577
870.6817	-0
870.8437	1.41
871.0057	-0
871.1676	0.0177
871.3295	0.0349
871.4914	0.0272
871.6533	0.0831
871.8151	-0.2699
871.977	0.8651
872.1388	-0.1943
872.3006	1.0202
872.4623	-0.3578
872.6241	-0
872.7858	0.7554
872.9475	-0
873.1092	0.3326
873.2709	-0
873.4325	-0
873.5941	-0.9664
873.7557	-0.4912
873.9173	-0
874.0789	1.6487
874.2404	-0.7703
874.4019	-0.2592
874.5634	-0
874.7249	-0
874.8863	-0.7474
875.0478	-0.0559
875.2092	0.2336
875.3706	-0.4597
875.5319	-0
875.6933	-0.0141
875.8546	-0.4551
876.0159	1.5245
876.1772	-0.7625
876.3385	-0.6009
876.4997	-0
876.6609	-0.2792
876.8221	0.5401
876.9833	-0.2383
877.1445	0.309
877.3056	-0
877.4667	-0
877.6278	-0
877.7889	-0.1196
877.9499	-0
878.111	0.4993
878.272	-0
878.433	0.1502
878.5939	0.016
878.7549	-0
878.9158	-0.0692
879.0767	-0
879.2376	-0.7028
879.3984	-0
879.5593	-0.3279
879.7201	0.1126
879.8809	-0
880.0417	0.3878
880.2024	0.2543
880.3632	0.0205
880.5239	-0
880.6846	-0.2664
880.8452	0.3947
881.0059	-0.2643
881.1665	0.2347
881.3271	-0
881.4877	0.4041
881.6483	-0.7179
881.8088	0.2306
881.9693	0.363
882.1298	0.363
882.2903	0.363
