Data from D4ACN5uM480nmA_Absorbance_12-08-00-715.txt Node
Date: Fri Feb 21 12:08:00 GMT 2025
User: LASERRRRR
Spectrometer: FLMT03099
Trigger mode: 0
Integration Time (sec): 1.500000E-2
Scans to average: 1
Electric dark correction enabled: true
Nonlinearity correction enabled: false
Boxcar width: 0
XAxis mode: Wavelengths
Number of Pixels in Spectrum: 3648
>>>>>Begin Spectral Data<<<<<
179.3399	0.3193
179.5586	0.3193
179.7771	0.3193
179.9957	0.1406
180.2143	-0
180.4329	-0
180.6514	-0.1856
180.8699	-0
181.0885	-0.3552
181.307	0.2909
181.5255	0.8579
181.744	-0.0476
181.9625	0.7156
182.181	0.0387
182.3994	-0
182.6179	-0.5879
182.8363	-0
183.0547	-0.0711
183.2732	0.1344
183.4916	0.3152
183.71	0.1377
183.9284	0.1034
184.1467	-0.0656
184.3651	0.304
184.5835	-0.0169
184.8018	0.3973
185.0201	0.3324
185.2385	0.0693
185.4568	0.0986
185.6751	0.1961
185.8934	0.3654
186.1117	0.0099
186.3299	0.1032
186.5482	0.0899
186.7664	0.3164
186.9847	0.173
187.2029	0.2372
187.4211	0.1136
187.6393	0.085
187.8575	-0.0113
188.0757	0.2942
188.2939	0.3119
188.512	0.0631
188.7302	0.016
188.9483	0.2298
189.1665	0.543
189.3846	0.1903
189.6027	-0.0322
189.8208	0.1857
190.0389	0.267
190.257	0.3406
190.475	0.2539
190.6931	0.1475
190.9111	0.2502
191.1292	0.1638
191.3472	0.1903
191.5652	0.4098
191.7832	0.206
192.0012	0.2474
192.2192	0.4863
192.4371	0.1596
192.6551	0.5247
192.873	0.2633
193.091	0.3128
193.3089	0.1686
193.5268	0.4987
193.7447	0.3253
193.9626	0.3371
194.1805	0.2207
194.3984	0.2885
194.6162	0.4218
194.8341	0.5013
195.0519	0.5101
195.2697	0.5431
195.4875	0.6235
195.7054	0.4021
195.9231	0.445
196.1409	0.5438
196.3587	0.5824
196.5765	0.4739
196.7942	0.5193
197.012	0.4561
197.2297	0.5466
197.4474	0.6408
197.6651	0.577
197.8828	0.7183
198.1005	0.635
198.3182	0.6568
198.5358	0.4155
198.7535	0.5781
198.9711	0.5047
199.1888	0.6048
199.4064	0.5597
199.624	0.5196
199.8416	0.5472
200.0592	0.565
200.2767	0.5601
200.4943	0.6839
200.7119	0.6364
200.9294	0.6301
201.1469	0.6206
201.3645	0.5988
201.582	0.5211
201.7995	0.5583
202.017	0.5695
202.2344	0.5846
202.4519	0.5477
202.6694	0.5604
202.8868	0.5953
203.1042	0.5684
203.3217	0.4944
203.5391	0.4928
203.7565	0.5354
203.9739	0.4937
204.1913	0.5146
204.4086	0.4929
204.626	0.4999
204.8433	0.5133
205.0607	0.5098
205.278	0.5315
205.4953	0.4811
205.7126	0.4791
205.9299	0.4569
206.1472	0.4896
206.3644	0.478
206.5817	0.4649
206.7989	0.4673
207.0162	0.4575
207.2334	0.4744
207.4506	0.4227
207.6678	0.4644
207.885	0.4562
208.1022	0.4296
208.3194	0.4155
208.5365	0.4422
208.7537	0.4078
208.9708	0.4325
209.1879	0.4423
209.405	0.3989
209.6222	0.4123
209.8392	0.4363
210.0563	0.4206
210.2734	0.4057
210.4905	0.4081
210.7075	0.4094
210.9245	0.4104
211.1416	0.4004
211.3586	0.4046
211.5756	0.3906
211.7926	0.4137
212.0096	0.4047
212.2265	0.4071
212.4435	0.4264
212.6604	0.4056
212.8774	0.4034
213.0943	0.4198
213.3112	0.4101
213.5281	0.3954
213.745	0.3953
213.9619	0.392
214.1788	0.4172
214.3956	0.371
214.6125	0.3975
214.8293	0.4064
215.0461	0.3927
215.2629	0.3915
215.4798	0.3717
215.6965	0.3898
215.9133	0.4134
216.1301	0.4204
216.3469	0.4122
216.5636	0.3933
216.7803	0.3999
216.9971	0.4152
217.2138	0.3982
217.4305	0.3972
217.6472	0.4133
217.8639	0.3958
218.0805	0.4056
218.2972	0.4026
218.5138	0.4236
218.7305	0.4003
218.9471	0.3926
219.1637	0.4109
219.3803	0.4249
219.5969	0.4024
219.8135	0.432
220.0301	0.4151
220.2466	0.4287
220.4632	0.4244
220.6797	0.4394
220.8962	0.42
221.1127	0.4081
221.3292	0.4243
221.5457	0.4395
221.7622	0.4281
221.9787	0.4557
222.1951	0.4355
222.4116	0.4326
222.628	0.4555
222.8444	0.4389
223.0608	0.4224
223.2772	0.4414
223.4936	0.447
223.71	0.4383
223.9264	0.4351
224.1427	0.4453
224.3591	0.4454
224.5754	0.4618
224.7917	0.4521
225.008	0.4512
225.2243	0.4653
225.4406	0.4671
225.6569	0.452
225.8732	0.4542
226.0894	0.4658
226.3057	0.4726
226.5219	0.4731
226.7381	0.4707
226.9543	0.4676
227.1705	0.4681
227.3867	0.4803
227.6029	0.4852
227.8191	0.4843
228.0352	0.493
228.2513	0.4949
228.4675	0.4803
228.6836	0.5182
228.8997	0.498
229.1158	0.4966
229.3319	0.513
229.548	0.4937
229.764	0.5068
229.9801	0.5137
230.1961	0.5064
230.4121	0.5083
230.6282	0.5012
230.8442	0.507
231.0602	0.517
231.2761	0.5137
231.4921	0.5051
231.7081	0.5056
231.924	0.5144
232.14	0.5279
232.3559	0.5298
232.5718	0.5202
232.7877	0.5315
233.0036	0.5181
233.2195	0.5293
233.4353	0.5301
233.6512	0.5211
233.867	0.5443
234.0829	0.51
234.2987	0.5266
234.5145	0.5259
234.7303	0.5255
234.9461	0.5222
235.1619	0.5282
235.3776	0.5258
235.5934	0.5281
235.8091	0.5241
236.0249	0.5495
236.2406	0.5437
236.4563	0.5443
236.672	0.5358
236.8877	0.5193
237.1034	0.5268
237.319	0.5414
237.5347	0.5129
237.7503	0.5437
237.966	0.538
238.1816	0.5353
238.3972	0.5416
238.6128	0.545
238.8284	0.5245
239.0439	0.531
239.2595	0.5281
239.475	0.5304
239.6906	0.5249
239.9061	0.5368
240.1216	0.5293
240.3371	0.5236
240.5526	0.5234
240.7681	0.5223
240.9836	0.5146
241.199	0.5134
241.4145	0.4903
241.6299	0.4835
241.8453	0.4904
242.0607	0.4881
242.2761	0.4857
242.4915	0.4741
242.7069	0.4719
242.9223	0.4613
243.1376	0.4554
243.353	0.4347
243.5683	0.4449
243.7836	0.4166
243.9989	0.412
244.2142	0.4111
244.4295	0.4048
244.6448	0.3853
244.86	0.39
245.0753	0.3773
245.2905	0.3708
245.5057	0.3757
245.721	0.3552
245.9362	0.3492
246.1514	0.3354
246.3665	0.3403
246.5817	0.3338
246.7969	0.3293
247.012	0.322
247.2271	0.3133
247.4423	0.3087
247.6574	0.3031
247.8725	0.3083
248.0876	0.295
248.3026	0.2842
248.5177	0.2795
248.7328	0.2738
248.9478	0.2687
249.1628	0.2672
249.3779	0.265
249.5929	0.2621
249.8079	0.2538
250.0228	0.2527
250.2378	0.2484
250.4528	0.2518
250.6677	0.2433
250.8827	0.2361
251.0976	0.2418
251.3125	0.2308
251.5274	0.2318
251.7423	0.2274
251.9572	0.2226
252.172	0.2253
252.3869	0.2202
252.6017	0.2185
252.8166	0.2183
253.0314	0.2189
253.2462	0.2136
253.461	0.211
253.6758	0.2101
253.8906	0.2036
254.1053	0.2061
254.3201	0.2015
254.5348	0.1992
254.7496	0.2065
254.9643	0.2016
255.179	0.1992
255.3937	0.1928
255.6083	0.201
255.823	0.1985
256.0377	0.2016
256.2523	0.1948
256.467	0.1987
256.6816	0.1979
256.8962	0.1923
257.1108	0.1947
257.3254	0.1933
257.54	0.1912
257.7545	0.1897
257.9691	0.189
258.1836	0.1853
258.3981	0.1845
258.6127	0.1847
258.8272	0.1888
259.0417	0.1835
259.2561	0.185
259.4706	0.1902
259.6851	0.1855
259.8995	0.1776
260.114	0.1856
260.3284	0.1828
260.5428	0.1785
260.7572	0.185
260.9716	0.1844
261.186	0.1797
261.4003	0.188
261.6147	0.1807
261.829	0.1808
262.0433	0.1808
262.2577	0.192
262.472	0.1866
262.6863	0.1874
262.9005	0.1875
263.1148	0.1744
263.3291	0.1894
263.5433	0.1828
263.7576	0.1785
263.9718	0.1869
264.186	0.1834
264.4002	0.1837
264.6144	0.1879
264.8286	0.1864
265.0427	0.1861
265.2569	0.1855
265.471	0.1906
265.6851	0.1787
265.8993	0.1859
266.1134	0.1819
266.3275	0.1853
266.5415	0.1824
266.7556	0.1791
266.9697	0.1841
267.1837	0.1815
267.3978	0.1936
267.6118	0.1827
267.8258	0.1888
268.0398	0.1789
268.2538	0.1845
268.4677	0.1848
268.6817	0.1778
268.8957	0.1795
269.1096	0.1728
269.3235	0.1878
269.5374	0.1798
269.7514	0.1828
269.9652	0.177
270.1791	0.1796
270.393	0.1799
270.6068	0.1686
270.8207	0.1773
271.0345	0.1697
271.2483	0.1778
271.4622	0.1774
271.676	0.1734
271.8897	0.1709
272.1035	0.1709
272.3173	0.1757
272.531	0.1719
272.7448	0.1691
272.9585	0.173
273.1722	0.1737
273.3859	0.1709
273.5996	0.1775
273.8133	0.1697
274.0269	0.1745
274.2406	0.1648
274.4542	0.1627
274.6679	0.1748
274.8815	0.1699
275.0951	0.1799
275.3087	0.1772
275.5223	0.1721
275.7358	0.17
275.9494	0.1743
276.1629	0.176
276.3765	0.1738
276.59	0.1794
276.8035	0.1769
277.017	0.1772
277.2305	0.1785
277.444	0.1739
277.6574	0.1735
277.8709	0.1737
278.0843	0.1824
278.2978	0.174
278.5112	0.1826
278.7246	0.182
278.938	0.1747
279.1513	0.1766
279.3647	0.1752
279.5781	0.1761
279.7914	0.1779
280.0047	0.1802
280.2181	0.1853
280.4314	0.1795
280.6447	0.187
280.8579	0.1816
281.0712	0.182
281.2845	0.1855
281.4977	0.1844
281.711	0.1787
281.9242	0.1817
282.1374	0.1834
282.3506	0.1824
282.5638	0.1842
282.7769	0.1802
282.9901	0.1785
283.2033	0.1874
283.4164	0.1859
283.6295	0.1844
283.8426	0.186
284.0557	0.1872
284.2688	0.1878
284.4819	0.1931
284.695	0.1893
284.908	0.1869
285.1211	0.1873
285.3341	0.1913
285.5471	0.1936
285.7601	0.1911
285.9731	0.1892
286.1861	0.1959
286.3991	0.1915
286.612	0.1996
286.825	0.1981
287.0379	0.1965
287.2508	0.1918
287.4637	0.1962
287.6766	0.1957
287.8895	0.1904
288.1024	0.1909
288.3152	0.1966
288.5281	0.1917
288.7409	0.1984
288.9538	0.1914
289.1666	0.2031
289.3794	0.1966
289.5922	0.1962
289.8049	0.1991
290.0177	0.199
290.2304	0.2001
290.4432	0.1987
290.6559	0.1887
290.8686	0.2
291.0813	0.2016
291.294	0.2046
291.5067	0.2062
291.7194	0.1995
291.932	0.2008
292.1447	0.1976
292.3573	0.1959
292.5699	0.1989
292.7825	0.2027
292.9951	0.1988
293.2077	0.2026
293.4203	0.199
293.6328	0.1959
293.8454	0.196
294.0579	0.2047
294.2704	0.206
294.4829	0.1999
294.6954	0.2022
294.9079	0.196
295.1204	0.1964
295.3328	0.2023
295.5453	0.1947
295.7577	0.1902
295.9701	0.2007
296.1825	0.196
296.3949	0.2025
296.6073	0.2004
296.8197	0.1971
297.0321	0.2018
297.2444	0.2017
297.4567	0.1958
297.6691	0.1961
297.8814	0.1975
298.0937	0.2028
298.306	0.1921
298.5182	0.2006
298.7305	0.1989
298.9428	0.197
299.155	0.197
299.3672	0.2029
299.5794	0.1974
299.7916	0.1993
300.0038	0.1949
300.216	0.2021
300.4282	0.1961
300.6403	0.1964
300.8525	0.2037
301.0646	0.1939
301.2767	0.1956
301.4888	0.1971
301.7009	0.1971
301.913	0.2016
302.125	0.2009
302.3371	0.1999
302.5491	0.197
302.7612	0.1968
302.9732	0.1953
303.1852	0.1976
303.3972	0.1948
303.6092	0.1947
303.8211	0.1906
304.0331	0.1924
304.245	0.1976
304.457	0.1956
304.6689	0.1937
304.8808	0.1897
305.0927	0.1919
305.3046	0.185
305.5164	0.1866
305.7283	0.1863
305.9401	0.1803
306.152	0.182
306.3638	0.1814
306.5756	0.183
306.7874	0.175
306.9992	0.1823
307.2109	0.1676
307.4227	0.1673
307.6344	0.1742
307.8462	0.1723
308.0579	0.1692
308.2696	0.1609
308.4813	0.1592
308.693	0.1653
308.9046	0.1669
309.1163	0.1611
309.328	0.1582
309.5396	0.1623
309.7512	0.1583
309.9628	0.1516
310.1744	0.1532
310.386	0.1466
310.5976	0.1546
310.8091	0.1505
311.0207	0.1472
311.2322	0.1469
311.4437	0.1401
311.6552	0.1523
311.8667	0.1389
312.0782	0.1431
312.2897	0.1412
312.5012	0.14
312.7126	0.1356
312.924	0.1332
313.1355	0.1332
313.3469	0.1329
313.5583	0.1281
313.7696	0.1312
313.981	0.1364
314.1924	0.127
314.4037	0.1233
314.6151	0.1287
314.8264	0.1256
315.0377	0.1283
315.249	0.1183
315.4603	0.1188
315.6716	0.1213
315.8828	0.1266
316.0941	0.1196
316.3053	0.1175
316.5165	0.1206
316.7277	0.1234
316.9389	0.1194
317.1501	0.1198
317.3613	0.1145
317.5724	0.1187
317.7836	0.114
317.9947	0.1115
318.2058	0.1155
318.417	0.1166
318.6281	0.1183
318.8391	0.1194
319.0502	0.1148
319.2613	0.1159
319.4723	0.1159
319.6834	0.1178
319.8944	0.1172
320.1054	0.1174
320.3164	0.1141
320.5274	0.1097
320.7383	0.1186
320.9493	0.1158
321.1602	0.1101
321.3712	0.1184
321.5821	0.1203
321.793	0.1171
322.0039	0.1138
322.2148	0.1187
322.4257	0.1173
322.6365	0.1134
322.8474	0.1145
323.0582	0.12
323.269	0.1174
323.4798	0.119
323.6906	0.1176
323.9014	0.1128
324.1122	0.111
324.3229	0.119
324.5337	0.1202
324.7444	0.1188
324.9551	0.1172
325.1658	0.1195
325.3765	0.1212
325.5872	0.1142
325.7979	0.1187
326.0085	0.1199
326.2192	0.1118
326.4298	0.1226
326.6404	0.1212
326.851	0.1166
327.0616	0.1248
327.2722	0.1285
327.4828	0.1191
327.6933	0.1232
327.9039	0.1172
328.1144	0.1231
328.3249	0.1225
328.5354	0.1141
328.7459	0.114
328.9564	0.1211
329.1669	0.1208
329.3773	0.1179
329.5878	0.1236
329.7982	0.1198
330.0086	0.1233
330.219	0.1236
330.4294	0.1257
330.6398	0.1351
330.8502	0.1217
331.0605	0.1243
331.2708	0.1224
331.4812	0.1237
331.6915	0.1187
331.9018	0.1203
332.1121	0.1326
332.3224	0.1249
332.5326	0.1292
332.7429	0.1232
332.9531	0.121
333.1633	0.1261
333.3735	0.128
333.5837	0.1233
333.7939	0.1253
334.0041	0.1236
334.2143	0.1289
334.4244	0.123
334.6346	0.1254
334.8447	0.1306
335.0548	0.121
335.2649	0.1257
335.475	0.127
335.685	0.1256
335.8951	0.1325
336.1051	0.1316
336.3152	0.1291
336.5252	0.1276
336.7352	0.1177
336.9452	0.1255
337.1552	0.1346
337.3652	0.1327
337.5751	0.1333
337.7851	0.1293
337.995	0.1313
338.2049	0.1317
338.4148	0.1264
338.6247	0.1274
338.8346	0.1316
339.0445	0.1372
339.2543	0.1386
339.4642	0.1344
339.674	0.1378
339.8838	0.1305
340.0936	0.133
340.3034	0.1324
340.5132	0.1305
340.7229	0.1342
340.9327	0.1396
341.1424	0.1359
341.3522	0.1462
341.5619	0.1348
341.7716	0.1316
341.9813	0.1456
342.1909	0.1373
342.4006	0.1401
342.6102	0.139
342.8199	0.1358
343.0295	0.1395
343.2391	0.1431
343.4487	0.1519
343.6583	0.1472
343.8679	0.1474
344.0774	0.1381
344.287	0.1436
344.4965	0.1495
344.706	0.149
344.9155	0.147
345.125	0.144
345.3345	0.1444
345.544	0.1527
345.7534	0.1513
345.9629	0.1543
346.1723	0.1438
346.3817	0.1477
346.5911	0.1507
346.8005	0.1539
347.0099	0.1539
347.2193	0.1467
347.4286	0.1563
347.638	0.1501
347.8473	0.1537
348.0566	0.1584
348.2659	0.1608
348.4752	0.1593
348.6845	0.1621
348.8937	0.1605
349.103	0.1542
349.3122	0.1605
349.5214	0.1592
349.7306	0.168
349.9398	0.1618
350.149	0.1632
350.3582	0.1632
350.5674	0.1645
350.7765	0.1629
350.9856	0.1697
351.1948	0.1653
351.4039	0.1691
351.613	0.1785
351.822	0.1671
352.0311	0.1611
352.2402	0.1694
352.4492	0.1676
352.6582	0.164
352.8672	0.1711
353.0762	0.1713
353.2852	0.1723
353.4942	0.175
353.7032	0.1663
353.9121	0.1752
354.1211	0.1728
354.33	0.179
354.5389	0.1829
354.7478	0.1805
354.9567	0.1744
355.1655	0.1764
355.3744	0.1719
355.5833	0.1791
355.7921	0.1839
356.0009	0.1777
356.2097	0.1833
356.4185	0.1904
356.6273	0.1833
356.8361	0.1909
357.0448	0.1898
357.2536	0.1837
357.4623	0.1819
357.671	0.1875
357.8797	0.193
358.0884	0.1942
358.2971	0.1902
358.5057	0.189
358.7144	0.1991
358.923	0.1967
359.1316	0.1874
359.3402	0.1992
359.5488	0.2017
359.7574	0.2046
359.966	0.1953
360.1746	0.1915
360.3831	0.2088
360.5916	0.1995
360.8002	0.1993
361.0087	0.2107
361.2172	0.2055
361.4256	0.1972
361.6341	0.22
361.8426	0.2069
362.051	0.1991
362.2594	0.2164
362.4678	0.21
362.6762	0.2177
362.8846	0.2183
363.093	0.2151
363.3014	0.2219
363.5097	0.2185
363.718	0.2261
363.9264	0.2198
364.1347	0.221
364.343	0.233
364.5513	0.2218
364.7595	0.225
364.9678	0.2318
365.176	0.2196
365.3842	0.2282
365.5925	0.2286
365.8007	0.2439
366.0089	0.2286
366.217	0.2424
366.4252	0.2404
366.6333	0.2333
366.8415	0.2406
367.0496	0.245
367.2577	0.2382
367.4658	0.2519
367.6739	0.2397
367.882	0.2477
368.09	0.2461
368.2981	0.2393
368.5061	0.2468
368.7141	0.2441
368.9221	0.2469
369.1301	0.2508
369.3381	0.2567
369.5461	0.2542
369.754	0.2538
369.962	0.2569
370.1699	0.253
370.3778	0.2548
370.5857	0.262
370.7936	0.2609
371.0015	0.2523
371.2093	0.2611
371.4172	0.2641
371.625	0.2638
371.8328	0.2677
372.0406	0.2603
372.2484	0.2631
372.4562	0.2671
372.664	0.2612
372.8717	0.2616
373.0795	0.2713
373.2872	0.2711
373.4949	0.2723
373.7026	0.2827
373.9103	0.2736
374.118	0.2707
374.3256	0.2824
374.5333	0.2729
374.7409	0.2795
374.9485	0.2685
375.1561	0.2722
375.3637	0.2722
375.5713	0.2729
375.7789	0.2734
375.9864	0.2877
376.194	0.2875
376.4015	0.2864
376.609	0.2845
376.8165	0.2875
377.024	0.2739
377.2315	0.281
377.4389	0.2767
377.6464	0.2852
377.8538	0.2904
378.0612	0.2829
378.2686	0.2903
378.476	0.2858
378.6834	0.2766
378.8908	0.2944
379.0981	0.2949
379.3055	0.3023
379.5128	0.2872
379.7201	0.2954
379.9274	0.2873
380.1347	0.2968
380.342	0.3102
380.5492	0.2963
380.7565	0.2936
380.9637	0.2975
381.1709	0.3044
381.3781	0.2994
381.5853	0.3019
381.7925	0.3078
381.9997	0.2995
382.2068	0.2979
382.4139	0.3113
382.6211	0.3091
382.8282	0.3078
383.0353	0.3014
383.2424	0.314
383.4494	0.3211
383.6565	0.3099
383.8635	0.3223
384.0706	0.3073
384.2776	0.3189
384.4846	0.3162
384.6916	0.3054
384.8986	0.3235
385.1055	0.3138
385.3125	0.3133
385.5194	0.3099
385.7263	0.302
385.9333	0.3148
386.1402	0.3251
386.347	0.3143
386.5539	0.3148
386.7608	0.3097
386.9676	0.323
387.1744	0.3216
387.3813	0.3156
387.5881	0.3149
387.7948	0.3157
388.0016	0.3146
388.2084	0.3148
388.4151	0.3126
388.6219	0.3038
388.8286	0.3078
389.0353	0.2967
389.242	0.3077
389.4487	0.314
389.6553	0.3112
389.862	0.2995
390.0686	0.3069
390.2753	0.2951
390.4819	0.3077
390.6885	0.3044
390.8951	0.3069
391.1016	0.3031
391.3082	0.2931
391.5147	0.2943
391.7213	0.3052
391.9278	0.3023
392.1343	0.2955
392.3408	0.2921
392.5473	0.2867
392.7537	0.2958
392.9602	0.3011
393.1666	0.2978
393.373	0.2935
393.5794	0.2821
393.7858	0.291
393.9922	0.2817
394.1986	0.276
394.4049	0.28
394.6113	0.2824
394.8176	0.2729
395.0239	0.2743
395.2302	0.2695
395.4365	0.2795
395.6428	0.2762
395.8491	0.2743
396.0553	0.264
396.2615	0.2752
396.4678	0.2724
396.674	0.2654
396.8802	0.2715
397.0863	0.2691
397.2925	0.2713
397.4987	0.2696
397.7048	0.2838
397.9109	0.2751
398.117	0.2678
398.3231	0.2818
398.5292	0.2634
398.7353	0.2704
398.9413	0.2559
399.1474	0.2808
399.3534	0.2675
399.5594	0.2666
399.7654	0.2673
399.9714	0.2647
400.1774	0.2635
400.3833	0.2731
400.5893	0.2564
400.7952	0.2722
401.0011	0.2646
401.207	0.2673
401.4129	0.264
401.6188	0.2699
401.8247	0.2587
402.0305	0.2625
402.2364	0.2636
402.4422	0.2678
402.648	0.2617
402.8538	0.2805
403.0596	0.2593
403.2654	0.2689
403.4711	0.2668
403.6768	0.2681
403.8826	0.2625
404.0883	0.2646
404.294	0.2749
404.4997	0.2554
404.7054	0.2626
404.911	0.2691
405.1167	0.2716
405.3223	0.2727
405.5279	0.2665
405.7335	0.2603
405.9391	0.2637
406.1447	0.2635
406.3502	0.2687
406.5558	0.2726
406.7613	0.2727
406.9668	0.2748
407.1724	0.2757
407.3778	0.264
407.5833	0.2684
407.7888	0.2696
407.9942	0.266
408.1997	0.256
408.4051	0.265
408.6105	0.2616
408.8159	0.2645
409.0213	0.2753
409.2267	0.262
409.432	0.2772
409.6374	0.266
409.8427	0.2666
410.048	0.2582
410.2533	0.2629
410.4586	0.2695
410.6639	0.264
410.8691	0.2683
411.0744	0.2613
411.2796	0.2626
411.4848	0.2547
411.69	0.2725
411.8952	0.2673
412.1004	0.2708
412.3056	0.2632
412.5107	0.2701
412.7158	0.2673
412.921	0.255
413.1261	0.2695
413.3312	0.2552
413.5362	0.2629
413.7413	0.2701
413.9464	0.2625
414.1514	0.2694
414.3564	0.2723
414.5614	0.2529
414.7664	0.2617
414.9714	0.2559
415.1764	0.2704
415.3813	0.2562
415.5863	0.2636
415.7912	0.2525
415.9961	0.2567
416.201	0.2497
416.4059	0.2544
416.6108	0.2525
416.8156	0.2471
417.0205	0.2519
417.2253	0.2618
417.4301	0.2586
417.6349	0.2515
417.8397	0.2603
418.0445	0.2469
418.2492	0.2647
418.454	0.2572
418.6587	0.2467
418.8634	0.2648
419.0681	0.2559
419.2728	0.2428
419.4775	0.254
419.6822	0.2413
419.8868	0.2544
420.0915	0.2639
420.2961	0.2459
420.5007	0.2494
420.7053	0.2585
420.9099	0.2393
421.1144	0.2438
421.319	0.2369
421.5235	0.2404
421.728	0.2391
421.9325	0.242
422.137	0.2434
422.3415	0.2432
422.546	0.2442
422.7504	0.2507
422.9549	0.2349
423.1593	0.23
423.3637	0.2369
423.5681	0.248
423.7725	0.2328
423.9769	0.2354
424.1812	0.2281
424.3856	0.2302
424.5899	0.2269
424.7942	0.2283
424.9985	0.2325
425.2028	0.2283
425.4071	0.2263
425.6113	0.2224
425.8156	0.2304
426.0198	0.2173
426.224	0.2204
426.4282	0.2292
426.6324	0.226
426.8366	0.2231
427.0407	0.2233
427.2449	0.2108
427.449	0.2266
427.6531	0.2117
427.8572	0.2175
428.0613	0.2109
428.2654	0.2099
428.4694	0.2063
428.6735	0.2038
428.8775	0.2115
429.0815	0.2102
429.2855	0.2088
429.4895	0.2017
429.6935	0.2029
429.8975	0.2005
430.1014	0.1949
430.3053	0.1966
430.5093	0.1969
430.7132	0.2008
430.9171	0.192
431.1209	0.188
431.3248	0.1838
431.5286	0.18
431.7325	0.1902
431.9363	0.1945
432.1401	0.1772
432.3439	0.1724
432.5477	0.1849
432.7514	0.1669
432.9552	0.1661
433.1589	0.1738
433.3627	0.1807
433.5664	0.1659
433.7701	0.1701
433.9737	0.1706
434.1774	0.1717
434.3811	0.1661
434.5847	0.1591
434.7883	0.1615
434.9919	0.1548
435.1955	0.1495
435.3991	0.1453
435.6027	0.1542
435.8062	0.1531
436.0098	0.1447
436.2133	0.1462
436.4168	0.1442
436.6203	0.1348
436.8238	0.1384
437.0272	0.1385
437.2307	0.1347
437.4341	0.1297
437.6375	0.1298
437.841	0.1295
438.0443	0.13
438.2477	0.127
438.4511	0.1316
438.6545	0.1227
438.8578	0.1309
439.0611	0.1339
439.2644	0.1164
439.4677	0.1184
439.671	0.1255
439.8743	0.1123
440.0775	0.1153
440.2808	0.1299
440.484	0.1036
440.6872	0.105
440.8904	0.1042
441.0936	0.1124
441.2967	0.0975
441.4999	0.1043
441.703	0.1068
441.9062	0.1004
442.1093	0.0915
442.3124	0.1007
442.5155	0.0836
442.7185	0.0867
442.9216	0.0853
443.1246	0.0952
443.3276	0.0853
443.5307	0.0858
443.7337	0.0871
443.9366	0.0773
444.1396	0.0848
444.3426	0.0836
444.5455	0.0781
444.7484	0.0731
444.9513	0.0739
445.1542	0.0683
445.3571	0.0668
445.56	0.0717
445.7628	0.0718
445.9657	0.0744
446.1685	0.0813
446.3713	0.0668
446.5741	0.0623
446.7769	0.0659
446.9797	0.0631
447.1824	0.0679
447.3852	0.0643
447.5879	0.0632
447.7906	0.061
447.9933	0.0637
448.196	0.0559
448.3986	0.0545
448.6013	0.062
448.8039	0.054
449.0066	0.0573
449.2092	0.0582
449.4118	0.0591
449.6143	0.0536
449.8169	0.0509
450.0195	0.0465
450.222	0.0473
450.4245	0.0637
450.627	0.05
450.8295	0.0389
451.032	0.0454
451.2345	0.0448
451.4369	0.0424
451.6394	0.0437
451.8418	0.036
452.0442	0.0385
452.2466	0.0325
452.449	0.0391
452.6513	0.0278
452.8537	0.0349
453.056	0.0372
453.2583	0.0315
453.4607	0.0225
453.663	0.03
453.8652	0.0285
454.0675	0.0299
454.2697	0.0304
454.472	0.0247
454.6742	0.0214
454.8764	0.0314
455.0786	0.0303
455.2808	0.0232
455.4829	0.0238
455.6851	0.0248
455.8872	0.0242
456.0893	0.0276
456.2915	0.0249
456.4935	0.0187
456.6956	0.0281
456.8977	0.0266
457.0997	0.0222
457.3018	0.0153
457.5038	0.0245
457.7058	0.0168
457.9078	0.0304
458.1098	0.0175
458.3117	0.0182
458.5137	0.0233
458.7156	0.0272
458.9175	0.0118
459.1194	0.0312
459.3213	0.0172
459.5232	0.0132
459.725	0.0184
459.9269	0.0179
460.1287	0.0123
460.3305	0.0123
460.5323	0.0184
460.7341	0.0134
460.9359	0.017
461.1376	0.0301
461.3394	0.0109
461.5411	0.0163
461.7428	0.011
461.9445	0.0143
462.1462	0.0142
462.3479	0.0087
462.5495	0.0034
462.7512	0.0023
462.9528	0.0227
463.1544	0.0102
463.356	0.0128
463.5576	0.0089
463.7592	0.0047
463.9607	0.0069
464.1623	0.0132
464.3638	0.0094
464.5653	0.009
464.7668	0.0068
464.9683	0.0144
465.1697	0.0039
465.3712	0.0105
465.5726	0.0123
465.7741	0.0056
465.9755	0.0064
466.1769	0.0038
466.3782	0.0113
466.5796	0.0079
466.7809	0.0097
466.9823	-0.0006
467.1836	0.0123
467.3849	0.0067
467.5862	-0.0048
467.7875	0.0007
467.9887	0.0117
468.19	0.0004
468.3912	0.0118
468.5924	0.0133
468.7936	0.0021
468.9948	0.0076
469.196	0.0027
469.3972	0.0142
469.5983	-0.0064
469.7994	-0.0005
470.0006	-0.0013
470.2017	0.0135
470.4027	-0.0055
470.6038	0.0003
470.8049	-0.0038
471.0059	0.0041
471.2069	0.0087
471.408	-0.0045
471.6089	0.0087
471.8099	-0.0019
472.0109	0.0058
472.2119	0.0182
472.4128	0.0072
472.6137	0.0004
472.8146	0.0037
473.0155	-0.0076
473.2164	0.0045
473.4173	0.0056
473.6181	0.007
473.819	-0.0064
474.0198	0.0043
474.2206	0.0105
474.4214	0.0111
474.6222	0.0038
474.8229	0.0034
475.0237	0.0071
475.2244	0.0101
475.4251	0.0018
475.6258	-0.0036
475.8265	-0.006
476.0272	0.0008
476.2278	0.0042
476.4285	0.004
476.6291	0.0141
476.8297	0.0059
477.0303	0.0106
477.2309	0.0047
477.4315	0.0116
477.632	0
477.8326	-0.0024
478.0331	0.0011
478.2336	0.0115
478.4341	0.0031
478.6346	0.0045
478.8351	0.0023
479.0355	0.0026
479.236	-0.0038
479.4364	0.0037
479.6368	-0.0012
479.8372	0.0077
480.0376	0.0023
480.2379	0.0019
480.4383	0.0035
480.6386	0.0005
480.8389	0.011
481.0392	0.0096
481.2395	0.0051
481.4398	0.0018
481.6401	0.0047
481.8403	0.0047
482.0405	-0.0054
482.2408	0.0005
482.441	0.0011
482.6411	-0.0086
482.8413	-0.0092
483.0415	0.0028
483.2416	0.0047
483.4417	-0.0011
483.6419	0.0015
483.8419	0.0006
484.042	0.0002
484.2421	-0.0039
484.4422	0.0023
484.6422	0.0057
484.8422	-0.0036
485.0422	-0.0007
485.2422	0.0023
485.4422	-0.0022
485.6422	-0.0004
485.8421	-0.0033
486.042	0.005
486.242	0.0003
486.4419	0.002
486.6417	0.0015
486.8416	0.0051
487.0415	0.0011
487.2413	0.0054
487.4411	-0.0021
487.641	0.0076
487.8408	0.0063
488.0405	0.0033
488.2403	-0.004
488.4401	-0.0035
488.6398	-0.0022
488.8395	0.0019
489.0392	-0.0016
489.2389	0.0018
489.4386	-0.0001
489.6383	0.0048
489.8379	-0.0031
490.0376	0.0087
490.2372	-0.0068
490.4368	0.0037
490.6364	0.0072
490.836	0.0022
491.0355	0.0097
491.2351	0.0065
491.4346	0.0015
491.6341	0.0007
491.8336	-0.0015
492.0331	-0.0012
492.2326	-0.0027
492.432	0.0006
492.6315	0.0035
492.8309	0.0106
493.0303	-0.0066
493.2297	-0.0003
493.4291	-0.0022
493.6284	-0.0047
493.8278	0.0026
494.0271	-0.0023
494.2264	-0.0001
494.4257	0.0022
494.625	-0.0029
494.8243	0.0006
495.0236	-0.0012
495.2228	-0.0027
495.422	0.0051
495.6213	0.0002
495.8205	-0.0047
496.0196	-0.0002
496.2188	-0.0002
496.418	-0.0068
496.6171	0.0056
496.8162	-0.0018
497.0153	-0.0039
497.2144	-0.0096
497.4135	0.0018
497.6126	-0.0026
497.8116	0.0054
498.0107	0.0023
498.2097	0.0097
498.4087	0.0051
498.6077	0.0033
498.8067	0.0035
499.0056	-0.0004
499.2046	0.0026
499.4035	0.0023
499.6024	-0.0108
499.8013	0.0036
500.0002	0.0022
500.199	0.0068
500.3979	0.0032
500.5967	-0.0093
500.7956	-0.0064
500.9944	0.0052
501.1932	0.0039
501.3919	0.0058
501.5907	0.0055
501.7895	-0.0065
501.9882	0.0002
502.1869	0.0037
502.3856	-0.003
502.5843	0.0004
502.783	0.0125
502.9816	-0.0024
503.1803	0.0136
503.3789	0.0126
503.5775	0.0048
503.7761	-0.0021
503.9747	-0.0067
504.1732	-0.0105
504.3718	-0.0093
504.5703	-0.0063
504.7689	-0.0045
504.9674	-0.0042
505.1658	0.0058
505.3643	-0.0019
505.5628	0.0038
505.7612	0.0043
505.9597	0.0066
506.1581	0.0003
506.3565	-0.011
506.5549	0.0004
506.7532	0.0035
506.9516	0
507.1499	0.0021
507.3482	0.0114
507.5465	-0.0085
507.7448	0.0057
507.9431	0.0049
508.1414	-0.0066
508.3396	-0.003
508.5379	-0
508.7361	0.0114
508.9343	0.0014
509.1325	0.0012
509.3306	-0.008
509.5288	0.0089
509.7269	0.003
509.9251	-0.0076
510.1232	-0.003
510.3213	0.0037
510.5193	0.001
510.7174	-0.0039
510.9154	0.0118
511.1135	-0.0057
511.3115	-0.0035
511.5095	-0
511.7075	-0.0011
511.9055	0.0005
512.1034	-0.0001
512.3014	-0.0007
512.4993	-0.0019
512.6972	-0.003
512.8951	-0.0036
513.093	-0.0026
513.2908	-0.0043
513.4887	0.0032
513.6865	-0.008
513.8844	0.0055
514.0822	0.0049
514.2799	0.003
514.4777	0.0118
514.6755	0.0063
514.8732	-0.0018
515.0709	0.0036
515.2687	0.0014
515.4664	-0.0057
515.664	0.008
515.8617	0.0096
516.0594	-0.0088
516.257	0.0032
516.4546	-0.0116
516.6522	0.0037
516.8498	0.0004
517.0474	-0.0051
517.2449	-0.0004
517.4425	-0.0005
517.64	-0.0018
517.8375	0.0106
518.035	0.0001
518.2325	-0.002
518.43	-0.0088
518.6274	0.0016
518.8249	0.0001
519.0223	-0.0091
519.2197	-0.0052
519.4171	-0.0051
519.6145	-0.0057
519.8118	0.0031
520.0092	-0.0061
520.2065	0.0106
520.4038	-0.0017
520.6011	-0.0052
520.7984	0.0066
520.9956	0.0044
521.1929	0.0043
521.3901	0.0037
521.5874	-0.0034
521.7846	-0.0013
521.9818	-0.0039
522.1789	0.0178
522.3761	-0.0048
522.5732	-0.0009
522.7704	-0.0007
522.9675	-0.0127
523.1646	0.0134
523.3617	-0.0052
523.5587	0.0023
523.7558	0.0015
523.9528	0.0047
524.1498	0.0028
524.3468	-0.0014
524.5438	-0.0061
524.7408	-0.006
524.9378	0.0096
525.1347	0.0064
525.3316	0.0095
525.5285	-0.0038
525.7254	-0.0022
525.9223	-0.0047
526.1192	-0.0048
526.316	-0.0112
526.5129	-0.0028
526.7097	0.0003
526.9065	0.0132
527.1033	0.0039
527.3	0.0044
527.4968	-0.0125
527.6935	0.0048
527.8903	0.0039
528.087	0.0013
528.2837	-0.0005
528.4804	0.0077
528.677	0.0011
528.8737	0.0004
529.0703	0.0059
529.2669	0.0009
529.4635	0.0017
529.6601	-0.0017
529.8567	0.0026
530.0532	-0.0042
530.2498	-0.0002
530.4463	0.0079
530.6428	-0.0034
530.8393	-0.0041
531.0358	-0.0039
531.2322	0.0076
531.4287	-0.003
531.6251	-0.0102
531.8215	0.0017
532.0179	-0.009
532.2143	0.008
532.4107	-0.0029
532.607	0.0045
532.8034	0.0007
532.9997	0.0042
533.196	0.0133
533.3923	0.0005
533.5886	-0.0008
533.7848	-0.0143
533.9811	-0.011
534.1773	-0.0063
534.3735	0.0055
534.5697	0.0016
534.7659	-0.0067
534.9621	0.0001
535.1582	0.0033
535.3544	0.0083
535.5505	0.0036
535.7466	-0.0041
535.9427	-0.0034
536.1387	0.0081
536.3348	0.0114
536.5308	0.0166
536.7269	-0.0065
536.9229	-0.0051
537.1189	-0.0078
537.3148	-0.013
537.5108	0.0016
537.7068	0.0044
537.9027	0.0051
538.0986	-0.0059
538.2945	-0.0065
538.4904	0.0011
538.6863	0.0088
538.8821	-0.0036
539.078	-0.0065
539.2738	-0.0056
539.4696	0.0179
539.6654	0.0027
539.8611	0.0063
540.0569	-0.0039
540.2526	0.0015
540.4484	-0.0082
540.6441	0.0042
540.8398	-0.0061
541.0355	0.0033
541.2311	0.0042
541.4268	-0.0045
541.6224	0.0032
541.818	-0.0051
542.0136	-0.0104
542.2092	-0.0058
542.4048	0.0008
542.6003	-0.0071
542.7959	0.0097
542.9914	0.0001
543.1869	-0.0052
543.3824	-0.0057
543.5779	-0.0031
543.7734	-0.0115
543.9688	-0.005
544.1642	-0.0042
544.3596	-0.0038
544.555	0.0001
544.7504	-0.0015
544.9458	0.0014
545.1411	-0.0054
545.3365	-0.0019
545.5318	0.0025
545.7271	0.0102
545.9224	-0.0159
546.1177	0.0004
546.3129	-0.0099
546.5081	-0.0166
546.7034	-0.0029
546.8986	0.0027
547.0938	-0.0044
547.289	0.0039
547.4841	-0.0009
547.6793	-0.0088
547.8744	-0.006
548.0695	0.0017
548.2646	-0.003
548.4597	-0.0127
548.6548	-0.0126
548.8498	-0.0001
549.0448	0.0016
549.2399	-0.0086
549.4349	-0.0064
549.6298	-0.014
549.8248	-0.0108
550.0198	-0.0034
550.2147	0.0024
550.4096	0.0007
550.6045	0.0021
550.7994	-0.0015
550.9943	-0.0109
551.1892	-0.0025
551.384	-0.0013
551.5788	0.0032
551.7737	-0.0035
551.9685	0.0041
552.1632	-0.0014
552.358	-0.0024
552.5528	-0.0122
552.7475	-0.0058
552.9422	-0.0012
553.1369	-0.0011
553.3316	-0.0041
553.5263	-0.0042
553.7209	-0.0094
553.9156	0.0103
554.1102	-0.0015
554.3048	-0.0021
554.4994	-0.0065
554.694	-0.0054
554.8885	-0.0018
555.0831	0.0096
555.2776	0.0028
555.4721	-0.0129
555.6666	0.0022
555.8611	-0.0052
556.0555	0.0056
556.25	-0.0033
556.4444	-0.0077
556.6388	-0.0063
556.8332	-0.0093
557.0276	0.0066
557.222	-0.0038
557.4163	0.0003
557.6107	-0.0012
557.805	-0.0122
557.9993	-0.0076
558.1936	0.0081
558.3879	-0.0034
558.5821	-0.0017
558.7764	0.011
558.9706	-0.0003
559.1648	-0.0047
559.359	0.0096
559.5532	-0.009
559.7473	0.0059
559.9415	0.0009
560.1356	0.0051
560.3297	-0.0053
560.5238	-0.0027
560.7179	-0.005
560.9119	0.0086
561.106	-0.0059
561.3	-0.0029
561.494	0.0027
561.688	-0.0038
561.882	0.0016
562.076	0.0048
562.2699	0.0048
562.4639	0.0002
562.6578	0.0035
562.8517	-0.0049
563.0456	-0.0002
563.2395	0.0074
563.4333	-0.0103
563.6272	0.0105
563.821	0.0121
564.0148	-0.0045
564.2086	-0.0006
564.4024	-0.0105
564.5961	-0.0016
564.7899	0.0021
564.9836	-0.0003
565.1773	0.0033
565.371	0.0048
565.5647	-0.0096
565.7584	0.0043
565.952	-0.0039
566.1456	0.0103
566.3393	0.0087
566.5329	-0.0067
566.7264	0.0004
566.92	-0.0025
567.1136	0.0025
567.3071	0.004
567.5006	-0.0076
567.6941	0.0092
567.8876	0.0031
568.0811	-0.0033
568.2745	-0.0073
568.468	0.0121
568.6614	0.0082
568.8548	-0.002
569.0482	0.0015
569.2416	-0.0018
569.4349	0.0019
569.6283	0.0011
569.8216	-0.0016
570.0149	0.0037
570.2082	-0.0012
570.4015	0.0061
570.5947	-0.0057
570.788	-0.0006
570.9812	-0.0029
571.1744	-0.0077
571.3676	-0.0025
571.5608	-0.0005
571.754	-0.0022
571.9471	0.0044
572.1402	0.0048
572.3333	-0.0054
572.5264	0.0035
572.7195	0.009
572.9126	0.0007
573.1057	0.0014
573.2987	0.0025
573.4917	-0.0002
573.6847	0.0029
573.8777	-0.001
574.0707	-0.0024
574.2636	-0.0011
574.4566	0.0006
574.6495	0.0015
574.8424	-0.0008
575.0353	-0.0007
575.2281	-0.0021
575.421	-0.0021
575.6138	-0.0019
575.8067	-0.0001
575.9995	0.0042
576.1923	-0.0007
576.385	-0.0019
576.5778	-0.0018
576.7706	0.0025
576.9633	0.0041
577.156	0.0016
577.3487	-0.0016
577.5414	-0.0021
577.734	0.0011
577.9267	0.0006
578.1193	-0.0001
578.3119	-0.0041
578.5045	-0.0023
578.6971	0.0042
578.8897	-0.0012
579.0822	0.001
579.2747	-0.0053
579.4673	0
579.6598	-0.0032
579.8522	0.0033
580.0447	0.0004
580.2372	0.0035
580.4296	-0.0024
580.622	-0.001
580.8144	-0.0034
581.0068	0.0014
581.1992	-0.0006
581.3915	-0.0003
581.5839	0.0034
581.7762	0.004
581.9685	-0.0026
582.1608	0.0008
582.353	-0.0012
582.5453	0.0025
582.7375	-0.0011
582.9298	0.0011
583.122	-0.0019
583.3142	0.0031
583.5063	-0.0028
583.6985	-0.0034
583.8906	-0.0035
584.0827	0.0008
584.2749	0.0027
584.4669	-0
584.659	-0.0007
584.8511	-0.0033
585.0431	0.0018
585.2352	-0.0064
585.4272	-0.0008
585.6192	-0.0007
585.8111	-0.0083
586.0031	0.0016
586.195	-0.0009
586.387	-0.0002
586.5789	0.0035
586.7708	-0.002
586.9627	0.0038
587.1545	0.0002
587.3464	0.0007
587.5382	0.0023
587.73	0.0038
587.9218	0.0014
588.1136	-0.0067
588.3053	0.0014
588.4971	0.0032
588.6888	0.001
588.8805	0.0009
589.0722	0.0031
589.2639	-0.0064
589.4556	-0.008
589.6472	-0.0045
589.8389	-0.0037
590.0305	0.0011
590.2221	0.0006
590.4137	-0.0047
590.6052	0.0019
590.7968	0.003
590.9883	0.0004
591.1798	-0.0077
591.3713	-0.0053
591.5628	0.0001
591.7543	-0.0022
591.9458	-0.0011
592.1372	-0.0012
592.3286	0.0007
592.52	-0.0035
592.7114	-0.0034
592.9028	-0.0035
593.0941	-0.001
593.2855	0.0046
593.4768	0.0011
593.6681	-0.0027
593.8594	-0.0025
594.0506	-0.0018
594.2419	-0.0045
594.4331	-0.0029
594.6244	0.0024
594.8156	-0.0004
595.0067	0.0028
595.1979	-0.008
595.3891	-0.0006
595.5802	-0.0047
595.7713	0.0005
595.9624	0.0031
596.1535	0.0031
596.3446	0.0002
596.5357	-0.0021
596.7267	0.0006
596.9177	0.0002
597.1087	-0.0007
597.2997	0.0018
597.4907	-0.0063
597.6817	0.0049
597.8726	0.0059
598.0635	-0.0044
598.2544	-0.0009
598.4453	-0.0023
598.6362	-0.0051
598.827	0.0018
599.0179	-0.0003
599.2087	-0.0017
599.3995	-0.0047
599.5903	0.0014
599.7811	-0.0032
599.9718	-0.0021
600.1626	0.0005
600.3533	0.0007
600.544	0.0018
600.7347	-0
600.9254	-0.0039
601.116	0.0035
601.3067	0.0048
601.4973	0.0031
601.6879	-0.0049
601.8785	0.0005
602.0691	0.0011
602.2596	-0.0017
602.4502	-0.0031
602.6407	0.0015
602.8312	-0.002
603.0217	-0.0004
603.2122	0.0072
603.4027	-0.0004
603.5931	-0.0029
603.7835	0.0009
603.9739	-0.005
604.1643	-0.0019
604.3547	-0.0006
604.5451	0.0008
604.7354	-0.0137
604.9257	-0.0032
605.116	-0
605.3063	-0.0045
605.4966	-0.0005
605.6869	-0.0019
605.8771	0.0036
606.0673	-0.0065
606.2575	-0.0045
606.4477	0.0062
606.6379	-0.0004
606.8281	-0.0005
607.0182	-0.0074
607.2083	-0.0053
607.3985	0.003
607.5885	0.0053
607.7786	0.0118
607.9687	-0.0012
608.1587	0.0018
608.3488	-0.0035
608.5388	0.0031
608.7288	-0.008
608.9187	0.0031
609.1087	-0.0061
609.2986	-0.0057
609.4886	0.0044
609.6785	-0.0003
609.8684	-0.0008
610.0582	0.003
610.2481	-0.0051
610.4379	-0.0004
610.6278	-0.0052
610.8176	-0.0047
611.0074	-0.0052
611.1971	0.001
611.3869	-0.0005
611.5766	0.0028
611.7664	0.004
611.9561	0.0018
612.1458	-0.0038
612.3354	0.0058
612.5251	-0.0032
612.7147	0.006
612.9044	-0.0033
613.094	-0.0007
613.2836	-0.0019
613.4731	-0.0054
613.6627	0.0065
613.8522	-0.0024
614.0417	-0.0086
614.2313	-0.0119
614.4207	0.0027
614.6102	-0.0032
614.7997	-0.0015
614.9891	-0.002
615.1785	-0.0068
615.3679	0.0019
615.5573	-0.0073
615.7467	-0.0109
615.9361	-0.0046
616.1254	0.0018
616.3147	0.0048
616.504	-0.0069
616.6933	-0.0016
616.8826	0.0066
617.0718	-0.0011
617.2611	-0.0082
617.4503	-0.0026
617.6395	-0.0059
617.8287	0.0039
618.0179	0.0027
618.207	-0.0002
618.3961	-0.0056
618.5853	-0.0007
618.7744	0.0139
618.9634	0.0067
619.1525	0.003
619.3416	-0.0035
619.5306	0.0019
619.7196	-0.0028
619.9086	0.011
620.0976	-0.008
620.2866	0.0055
620.4755	0.0039
620.6645	-0.0098
620.8534	-0.0045
621.0423	-0.0091
621.2312	-0.0051
621.42	-0.0055
621.6089	-0.0017
621.7977	-0.0103
621.9865	0.0054
622.1753	0.0006
622.3641	-0.0125
622.5529	-0.0172
622.7416	-0.0102
622.9303	-0.0027
623.1191	-0.0064
623.3078	-0.0035
623.4964	-0.0069
623.6851	-0.0027
623.8737	-0.0038
624.0624	-0.0053
624.251	-0.0012
624.4396	-0.0064
624.6282	0.0005
624.8167	0.0007
625.0053	-0.0033
625.1938	0.0003
625.3823	-0.0068
625.5708	0.0005
625.7593	-0.0026
625.9477	-0.0057
626.1362	-0.0137
626.3246	-0.0159
626.513	0.007
626.7014	-0.0056
626.8898	0.0037
627.0781	-0.0009
627.2665	0.0136
627.4548	0.0004
627.6431	-0.0053
627.8314	-0.0026
628.0197	-0.0033
628.2079	-0.0146
628.3962	0.0048
628.5844	-0.0052
628.7726	-0.0062
628.9608	-0.0037
629.1489	-0.0046
629.3371	-0.0098
629.5252	0.0071
629.7134	0.0093
629.9015	-0.01
630.0895	0.0037
630.2776	-0.002
630.4657	0.0062
630.6537	-0.0093
630.8417	0.0047
631.0297	-0.0007
631.2177	0.0016
631.4057	-0.0002
631.5936	-0.014
631.7815	-0.0104
631.9695	0.0085
632.1574	-0.008
632.3452	0.0027
632.5331	-0.001
632.7209	0.0046
632.9088	-0.0133
633.0966	-0.0042
633.2844	-0.0102
633.4722	0.0007
633.6599	-0.0161
633.8477	-0.0113
634.0354	0.0052
634.2231	0.0109
634.4108	-0.0128
634.5985	-0.0137
634.7861	-0.0122
634.9738	0.0091
635.1614	-0.0012
635.349	-0.0286
635.5366	-0.0042
635.7242	-0.0091
635.9117	0.0161
636.0993	-0.0157
636.2868	-0.0175
636.4743	0.0141
636.6618	0.0078
636.8492	-0.0069
637.0367	0.0085
637.2241	-0.0013
637.4115	-0.0022
637.5989	0.0113
637.7863	-0.0042
637.9737	0.003
638.161	0.0146
638.3484	0.0056
638.5357	0.0071
638.723	0.0001
638.9103	0.0012
639.0975	0.0005
639.2848	0.0152
639.472	-0.0234
639.6592	0.0103
639.8464	-0.0006
640.0336	-0.0134
640.2208	0.0066
640.4079	0.0164
640.595	-0.0019
640.7821	-0.0023
640.9692	0.0039
641.1563	-0.0065
641.3434	0.0196
641.5304	-0.014
641.7174	-0.01
641.9044	-0.0014
642.0914	-0.0182
642.2784	0.0123
642.4653	-0.0075
642.6523	0.009
642.8392	0.0023
643.0261	-0.0097
643.213	-0.0034
643.3999	-0.0038
643.5867	-0.0058
643.7735	0.0023
643.9604	-0.0059
644.1472	-0.0069
644.3339	-0.0228
644.5207	-0.0212
644.7075	-0.0066
644.8942	0.0216
645.0809	0.0014
645.2676	-0.0111
645.4543	-0.0113
645.6409	-0.0066
645.8276	-0.0231
646.0142	0.009
646.2008	-0.009
646.3874	0.0089
646.574	-0.0251
646.7605	-0.0121
646.9471	0.0005
647.1336	-0.0078
647.3201	0.0098
647.5066	-0.0116
647.6931	-0.0052
647.8795	0.0024
648.0659	-0.0135
648.2524	-0.0154
648.4388	-0.0036
648.6252	-0.0238
648.8115	0.0056
648.9979	-0.0087
649.1842	-0.0234
649.3705	0.0034
649.5568	-0.02
649.7431	-0.0033
649.9294	-0.0049
650.1156	-0.0387
650.3018	0.0111
650.488	-0.0009
650.6742	0.0065
650.8604	-0.0087
651.0466	0.0075
651.2327	-0.0313
651.4188	-0.0296
651.6049	-0.0029
651.791	0.0091
651.9771	0.0038
652.1632	-0.0039
652.3492	-0.0086
652.5352	0.0117
652.7212	-0.0215
652.9072	-0.0117
653.0932	0.0052
653.2791	-0.0079
653.465	-0.0148
653.651	0.0166
653.8369	0.0064
654.0227	-0.0136
654.2086	-0.0263
654.3944	-0.0159
654.5803	0.0057
654.7661	-0.0063
654.9519	-0.0026
655.1377	-0.0001
655.3234	-0.0001
655.5092	-0.0001
655.6949	-0.0001
655.8806	-0.0001
656.0663	-0.0001
656.2519	-0.0001
656.4376	-0.0001
656.6232	-0.0001
656.8088	-0.0001
656.9945	-0.0001
657.18	-0.0001
657.3656	-0.0001
657.5511	-0.0001
657.7367	-0.0001
657.9222	-0.0001
658.1077	-0.0001
658.2932	-0.0001
658.4786	-0.0001
658.6641	-0.0001
658.8495	-0.0001
659.0349	-0.0001
659.2203	-0.0001
659.4057	0.0112
659.591	0.0609
659.7764	0.0055
659.9617	-0.0009
660.147	-0.0076
660.3323	-0.0025
660.5176	-0.0083
660.7028	-0.0176
660.888	0.0104
661.0733	0.01
661.2585	0.0058
661.4436	-0.0008
661.6288	0.0019
661.8139	0.0101
661.9991	-0.0146
662.1842	0.024
662.3693	-0.0029
662.5544	-0.0223
662.7394	0.0122
662.9245	0.0125
663.1095	0.0083
663.2945	-0.0127
663.4795	-0.0141
663.6644	0.012
663.8494	0.0031
664.0343	-0.0172
664.2193	-0.0325
664.4042	-0.0216
664.589	-0.0225
664.7739	-0.0132
664.9587	-0.0168
665.1436	-0.0047
665.3284	-0.0031
665.5132	-0.0022
665.698	-0.0063
665.8827	-0.0345
666.0675	-0.0151
666.2522	0.0176
666.4369	-0.0167
666.6216	-0.0445
666.8063	-0.0229
666.9909	-0.0022
667.1756	0.0018
667.3602	-0.0259
667.5448	0.005
667.7294	-0.0117
667.9139	0.0031
668.0985	-0.0294
668.283	-0.0032
668.4675	-0.0141
668.652	-0.0046
668.8365	-0.0209
669.0209	-0.0502
669.2054	-0.0075
669.3898	0.0129
669.5742	0.0184
669.7586	0.0002
669.943	-0.0279
670.1273	-0.0172
670.3117	0.0133
670.496	0.0048
670.6803	-0.0081
670.8646	0.0015
671.0488	-0.017
671.2331	-0.01
671.4173	-0.0075
671.6015	-0.0045
671.7857	-0.0193
671.9699	0.003
672.1541	-0.0025
672.3382	0.0056
672.5223	-0.0158
672.7064	-0.0196
672.8905	-0.0048
673.0746	-0.0226
673.2587	0.0048
673.4427	-0.0184
673.6267	-0.0229
673.8107	-0.0318
673.9947	-0.0147
674.1787	0.007
674.3626	-0.0088
674.5465	0.0058
674.7304	-0.0468
674.9143	0.0273
675.0982	-0.0092
675.2821	0.0364
675.4659	0.0179
675.6497	-0.0004
675.8335	0.006
676.0173	0.0147
676.2011	-0.0023
676.3849	0.0035
676.5686	-0.0018
676.7523	0.0046
676.936	-0.0321
677.1197	-0.0017
677.3034	0.0034
677.487	0.0126
677.6706	-0.0072
677.8542	-0.0001
678.0378	0.0026
678.2214	0.0035
678.405	0.0259
678.5885	0.0057
678.772	-0.0162
678.9555	-0.0091
679.139	-0.0056
679.3225	-0.0132
679.5059	-0.003
679.6894	-0.0192
679.8728	-0.0106
680.0562	0.0017
680.2395	-0.0166
680.4229	-0.0024
680.6062	0.0047
680.7896	0.0011
680.9729	0.0075
681.1562	-0.0037
681.3394	-0.0055
681.5227	-0.0407
681.7059	-0.0268
681.8891	0.007
682.0723	-0.0098
682.2555	-0.0025
682.4387	0.0142
682.6218	-0.0199
682.805	0.0098
682.9881	0.0016
683.1712	0.0151
683.3542	-0.0159
683.5373	0.0115
683.7203	0.0002
683.9034	-0.0111
684.0864	-0.0073
684.2694	0.0027
684.4523	-0.0134
684.6353	-0.003
684.8182	-0.0103
685.0011	-0.0009
685.184	-0.0129
685.3669	-0.0081
685.5498	0.0126
685.7326	-0.0167
685.9154	-0.0201
686.0982	-0.0054
686.281	-0.018
686.4638	0.0123
686.6465	-0.01
686.8293	0.0081
687.012	-0.0152
687.1947	0.0081
687.3774	-0.0112
687.56	0.0057
687.7427	-0.0073
687.9253	0.0073
688.1079	0.012
688.2905	-0.023
688.4731	0.0274
688.6556	-0.014
688.8382	-0.0074
689.0207	-0.0203
689.2032	0.0002
689.3857	-0.0238
689.5681	0.0071
689.7506	-0.001
689.933	-0.0332
690.1154	-0.0131
690.2978	0.0008
690.4802	-0.0053
690.6626	-0.0145
690.8449	-0.0262
691.0272	-0.0206
691.2095	-0.0108
691.3918	-0.0098
691.5741	-0.0031
691.7563	0.0119
691.9386	-0.019
692.1208	-0.0268
692.303	-0.0111
692.4852	0.0004
692.6673	-0.0159
692.8495	-0.009
693.0316	-0.0105
693.2137	0.0236
693.3958	0.0029
693.5778	-0.0023
693.7599	-0.014
693.9419	0.0222
694.1239	-0.0202
694.3059	-0.0348
694.4879	-0.0151
694.6699	-0.0007
694.8518	0.0124
695.0337	-0.0099
695.2157	-0.005
695.3975	0.0126
695.5794	-0.0262
695.7613	0.0212
695.9431	-0.0384
696.1249	-0.0093
696.3067	-0.0133
696.4885	-0.0052
696.6703	-0.0035
696.852	-0.0048
697.0337	-0.013
697.2154	0.0133
697.3971	0.0027
697.5788	-0.0038
697.7605	0.0072
697.9421	-0.0148
698.1237	0.0004
698.3053	-0.0064
698.4869	0.009
698.6685	0.0061
698.85	0.021
699.0315	-0.0035
699.213	-0.0181
699.3945	0.0012
699.576	-0.0066
699.7575	-0.0189
699.9389	-0.0241
700.1203	0.0095
700.3017	-0.0176
700.4831	-0.017
700.6645	-0.0185
700.8458	0.0018
701.0271	0.0057
701.2084	-0.0189
701.3897	-0.0028
701.571	-0.0057
701.7523	-0.021
701.9335	0.0198
702.1147	-0.0159
702.2959	0.0005
702.4771	0.0008
702.6583	-0.0108
702.8394	-0.0316
703.0205	-0.0043
703.2016	-0.0069
703.3827	0.0294
703.5638	-0.0013
703.7449	-0.0038
703.9259	-0.0024
704.1069	0.0317
704.2879	0.0154
704.4689	0.0118
704.6499	-0.0113
704.8308	-0.0285
705.0117	-0.0373
705.1927	-0.0259
705.3735	-0.0021
705.5544	-0.0116
705.7353	0.0086
705.9161	-0.0008
706.0969	0.0125
706.2777	-0.0054
706.4585	-0.0001
706.6393	0.0022
706.82	-0.0182
707.0007	-0.0167
707.1815	0.0139
707.3621	-0.0179
707.5428	0.0011
707.7235	0.0053
707.9041	-0.016
708.0847	-0.0222
708.2653	-0.0116
708.4459	0.0008
708.6265	-0.0353
708.807	0.0147
708.9875	-0.0188
709.168	-0.0093
709.3485	0.0088
709.529	0.0247
709.7095	-0.0101
709.8899	0.0122
710.0703	-0.0056
710.2507	-0.0156
710.4311	-0.0145
710.6115	0.0012
710.7918	-0.0102
710.9721	0.0068
711.1524	-0.0112
711.3327	-0.0077
711.513	-0.0362
711.6932	-0.0523
711.8735	-0.0224
712.0537	-0.0102
712.2339	0.004
712.4141	0.007
712.5942	-0.0034
712.7744	0.0161
712.9545	0.0088
713.1346	0.0041
713.3147	0.0089
713.4947	0.001
713.6748	-0.0249
713.8548	-0.0171
714.0348	0.0151
714.2148	-0.0048
714.3948	0.0034
714.5748	-0.0239
714.7547	-0.0067
714.9346	0.0058
715.1145	-0.0061
715.2944	0.0084
715.4743	0.0019
715.6541	-0.031
715.834	-0.0127
716.0138	0.012
716.1936	-0.0299
716.3733	0.0034
716.5531	0.0229
716.7328	-0.0581
716.9126	-0.035
717.0923	-0.0271
717.2719	-0.0145
717.4516	-0.0548
717.6312	-0.0366
717.8109	0.0014
717.9905	0.001
718.1701	-0.0313
718.3496	0.0139
718.5292	-0.0032
718.7087	0.0273
718.8882	-0.0066
719.0677	-0.0098
719.2472	0.0248
719.4267	-0.0098
719.6061	-0.0127
719.7856	0.0156
719.965	0.0186
720.1443	-0.0158
720.3237	0.0056
720.5031	0.0219
720.6824	-0.0108
720.8617	-0.0083
721.041	0.0148
721.2203	0.005
721.3995	-0.0134
721.5788	-0.0138
721.758	-0.0275
721.9372	-0.0018
722.1164	-0.0064
722.2956	-0.0075
722.4747	0.0183
722.6538	0.0283
722.8329	-0.0134
723.012	0.0071
723.1911	-0.0001
723.3702	-0.0237
723.5492	-0.012
723.7282	0.0085
723.9072	-0.0541
724.0862	-0.0173
724.2652	-0.0141
724.4441	-0.0157
724.623	-0.0064
724.8019	-0.0099
724.9808	0.0024
725.1597	-0.0142
725.3385	-0.0071
725.5174	0.03
725.6962	0.0162
725.875	-0.0008
726.0538	0.0031
726.2325	-0.0178
726.4112	0.0147
726.59	-0.0046
726.7687	0.0285
726.9474	-0.0223
727.126	-0.003
727.3047	0.025
727.4833	0.0369
727.6619	0.0191
727.8405	-0.012
728.0191	-0.0409
728.1976	-0.0469
728.3762	-0.0286
728.5547	0.0094
728.7332	0.002
728.9116	-0.0589
729.0901	0.0084
729.2686	-0.0091
729.447	-0.0114
729.6254	0.039
729.8038	-0.0059
729.9821	0.0145
730.1605	-0.0062
730.3388	0.0007
730.5171	-0.0259
730.6954	0.0063
730.8737	0.0257
731.0519	-0.0073
731.2302	-0.0169
731.4084	-0.0101
731.5866	-0.0319
731.7648	-0.0178
731.9429	-0.0214
732.1211	-0.0206
732.2992	-0.0066
732.4773	-0.0319
732.6554	-0.0098
732.8335	0.0153
733.0115	-0.0048
733.1896	-0.0252
733.3676	-0.0043
733.5456	-0.0074
733.7235	-0.0012
733.9015	-0.0019
734.0794	-0.0127
734.2574	0.0079
734.4353	-0.0211
734.6131	0.0092
734.791	0.0043
734.9689	-0.0074
735.1467	-0.0009
735.3245	-0.0097
735.5023	0.011
735.68	0.0066
735.8578	0.0002
736.0355	0.0132
736.2132	0.001
736.3909	-0.0112
736.5686	-0.0124
736.7463	-0.0147
736.9239	0.0194
737.1015	-0.0212
737.2791	0.0052
737.4567	-0.0114
737.6343	-0.0044
737.8118	-0.0099
737.9894	-0.0026
738.1669	-0.0068
738.3444	-0.0153
738.5218	-0.0099
738.6993	-0.0095
738.8767	-0.0042
739.0541	0.0059
739.2315	-0.0173
739.4089	-0.0159
739.5863	0.0106
739.7636	0.0089
739.9409	0.0148
740.1182	0.003
740.2955	-0.0551
740.4728	0.0224
740.65	-0.0235
740.8272	0.0053
741.0044	0.0019
741.1816	-0.0028
741.3588	-0.0078
741.5359	-0.0011
741.7131	0.0124
741.8902	-0.0138
742.0673	-0.0108
742.2444	-0.035
742.4214	0.0003
742.5985	-0.0176
742.7755	-0.0207
742.9525	0.0222
743.1295	-0.0413
743.3064	0.0105
743.4834	-0.0137
743.6603	-0.0206
743.8372	0.0008
744.0141	0.0069
744.191	-0.0055
744.3678	-0.0064
744.5446	-0.0148
744.7215	-0.0116
744.8982	0.0084
745.075	-0.0223
745.2518	-0.0119
745.4285	-0.0265
745.6052	0.0135
745.7819	-0.0194
745.9586	0.0008
746.1353	-0.019
746.3119	0.0053
746.4885	0.0021
746.6651	-0.043
746.8417	-0.0291
747.0183	-0.0253
747.1948	-0.023
747.3714	-0.0053
747.5479	-0.0133
747.7244	-0.0337
747.9008	0.0127
748.0773	0.0009
748.2537	0.0065
748.4301	0.0186
748.6065	-0.0578
748.7829	0.0015
748.9593	-0.0089
749.1356	-0.0043
749.3119	-0.0199
749.4882	-0.0107
749.6645	0.0165
749.8408	-0.009
750.017	-0.0115
750.1933	0.0262
750.3695	0.0048
750.5457	-0.0278
750.7218	0.0049
750.898	-0.0336
751.0741	0.0112
751.2502	0.0152
751.4263	-0.0179
751.6024	0.0089
751.7784	-0.0286
751.9545	-0.05
752.1305	-0.0032
752.3065	0.0123
752.4825	-0.0159
752.6584	0.0031
752.8344	0.0032
753.0103	-0.0216
753.1862	-0.0284
753.3621	-0.0105
753.5379	-0.0212
753.7138	-0.0287
753.8896	0.0131
754.0654	-0.0045
754.2412	0.0228
754.417	-0.0062
754.5927	-0.0162
754.7685	-0.018
754.9442	-0.0159
755.1199	-0.0226
755.2956	0.0065
755.4712	-0.025
755.6469	-0.011
755.8225	-0.0093
755.9981	-0.0074
756.1736	0.0191
756.3492	-0.0207
756.5248	-0.0126
756.7003	-0.0108
756.8758	-0.0127
757.0513	-0.0099
757.2267	-0.0157
757.4022	-0.0139
757.5776	-0.0167
757.753	-0.0125
757.9284	0.0024
758.1038	-0.0194
758.2791	-0.0038
758.4545	-0.0191
758.6298	0.0027
758.8051	-0.0127
758.9803	-0.0182
759.1556	-0.0311
759.3308	-0.0106
759.506	0.0028
759.6812	-0.0034
759.8564	-0.0095
760.0316	-0.0074
760.2067	-0.0188
760.3819	-0.0154
760.557	-0.0001
760.732	0.0113
760.9071	-0.0109
761.0821	0.0038
761.2572	0.009
761.4322	-0.0077
761.6072	-0.0244
761.7821	-0.0041
761.9571	-0.0109
762.132	-0.033
762.3069	-0.0047
762.4818	-0.0044
762.6567	0.0102
762.8316	0.0043
763.0064	-0.0288
763.1812	-0.0156
763.356	0.003
763.5308	-0.0231
763.7055	-0.0044
763.8803	-0.0027
764.055	0.0007
764.2297	-0.0126
764.4044	-0.0045
764.579	-0.0263
764.7537	-0.0078
764.9283	-0.0317
765.1029	-0.0105
765.2775	-0.0156
765.4521	0.0068
765.6266	-0.0355
765.8011	-0.0112
765.9756	0.0144
766.1501	0.0267
766.3246	-0.0321
766.4991	-0.0175
766.6735	-0.0397
766.8479	0.002
767.0223	-0.0205
767.1967	-0.0424
767.371	-0.005
767.5454	-0.0209
767.7197	-0.001
767.894	-0.022
768.0683	-0.0051
768.2425	0.0127
768.4168	0.0111
768.591	-0.0233
768.7652	-0.0389
768.9394	0.0038
769.1135	-0.0054
769.2877	-0.0023
769.4618	-0.0082
769.6359	-0.004
769.81	-0.0235
769.984	0.0029
770.1581	-0.005
770.3321	-0.0307
770.5061	-0.0113
770.6801	0.0197
770.8541	-0.029
771.028	-0.027
771.202	-0.0566
771.3759	-0.0346
771.5498	0.0128
771.7236	-0.013
771.8975	-0.0276
772.0713	0.0081
772.2451	-0.0209
772.4189	-0.0302
772.5927	-0.038
772.7665	0.0268
772.9402	-0.0039
773.1139	0.0134
773.2876	-0.0051
773.4613	-0.0389
773.635	0.0125
773.8086	-0.042
773.9822	0.0166
774.1558	-0.0564
774.3294	-0.0588
774.503	0.0018
774.6765	-0.005
774.8501	-0.0088
775.0236	0.0123
775.1971	-0.0291
775.3705	-0.0176
775.544	-0.0237
775.7174	-0.024
775.8908	0.0215
776.0642	0.0006
776.2376	-0.0386
776.4109	0.0537
776.5843	-0.003
776.7576	0.0092
776.9309	0.0287
777.1041	-0.0549
777.2774	0.0185
777.4506	0.005
777.6238	0.0407
777.797	0.0143
777.9702	0.0234
778.1434	-0.0406
778.3165	-0.0128
778.4896	-0.0382
778.6627	0.013
778.8358	-0.0165
779.0089	0.0051
779.1819	0.012
779.3549	0.0055
779.5279	-0.0198
779.7009	-0.0362
779.8739	-0.0293
780.0468	0.0225
780.2197	-0.0096
780.3926	-0.0309
780.5655	-0.037
780.7384	-0.0287
780.9112	0.0097
781.0841	-0.043
781.2569	-0.0224
781.4297	0.0252
781.6024	-0.0055
781.7752	-0.0303
781.9479	-0.015
782.1206	-0.0189
782.2933	-0.0122
782.466	0.0092
782.6386	-0.0041
782.8113	-0.0304
782.9839	0.0221
783.1565	-0.0223
783.329	-0.0002
783.5016	-0.0354
783.6741	-0.0245
783.8466	-0.0749
784.0191	0.0213
784.1916	-0.0229
784.3641	-0.0366
784.5365	0.0027
784.7089	0.0062
784.8813	0.0064
785.0537	-0.0237
785.2261	-0.0026
785.3984	-0.0075
785.5707	0.0093
785.743	-0.0581
785.9153	0.006
786.0876	-0.0303
786.2598	-0.0436
786.432	0.0099
786.6042	0.01
786.7764	-0.0202
786.9486	-0.0343
787.1207	0.018
787.2928	0.0042
787.4649	-0.0238
787.637	0.0324
787.8091	-0.0305
787.9811	-0.0014
788.1532	0.0028
788.3252	-0.0141
788.4972	-0.033
788.6691	0.013
788.8411	-0.033
789.013	0.0071
789.1849	-0.0024
789.3568	0.0068
789.5287	-0.0186
789.7005	0.0352
789.8723	-0.0693
790.0442	0.0249
790.2159	-0.021
790.3877	-0.0022
790.5595	0.0267
790.7312	-0.0649
790.9029	-0.025
791.0746	-0.0234
791.2463	-0.0412
791.4179	-0.0378
791.5896	-0.0293
791.7612	-0.0573
791.9328	-0.003
792.1044	-0.0439
792.2759	0.0721
792.4474	-0.0719
792.619	0.0818
792.7905	-0.0088
792.9619	0.0087
793.1334	-0.0395
793.3048	-0.0141
793.4762	-0.0478
793.6476	0.0152
793.819	-0.0314
793.9904	-0.0043
794.1617	0.0053
794.333	-0.043
794.5043	-0.0051
794.6756	0.0094
794.8469	-0.0139
795.0181	-0.0265
795.1893	-0.0575
795.3605	-0.0245
795.5317	0.0177
795.7029	0.0272
795.874	-0.0152
796.0452	0.0041
796.2163	0.0113
796.3873	0.0301
796.5584	0.0378
796.7294	-0.0747
796.9005	-0.092
797.0715	0.0129
797.2425	-0.0774
797.4134	-0.0203
797.5844	0.0197
797.7553	0.0053
797.9262	0.0165
798.0971	-0.0268
798.2679	-0.047
798.4388	-0.0788
798.6096	-0.0263
798.7804	-0.0043
798.9512	0.0461
799.122	0.0112
799.2927	-0.1191
799.4635	0.0245
799.6342	-0.0175
799.8049	0.0191
799.9755	-0.0648
800.1462	0.0677
800.3168	-0.0624
800.4874	0.0629
800.658	0.0311
800.8286	-0.0304
800.9991	0.1208
801.1696	-0.0181
801.3402	-0.0733
801.5106	-0.0708
801.6811	-0.063
801.8516	0.0602
802.022	0.0333
802.1924	-0.0305
802.3628	-0.0932
802.5332	-0.0909
802.7035	-0.0914
802.8739	-0.0006
803.0442	0.0082
803.2145	0.0374
803.3847	-0.0383
803.555	-0.0134
803.7252	-0.0536
803.8954	0.0286
804.0656	-0.0268
804.2358	-0.0065
804.4059	0.0148
804.5761	0.0613
804.7462	0.0185
804.9163	-0.1195
805.0864	-0.0091
805.2564	-0.0133
805.4264	-0.0742
805.5965	-0.052
805.7665	0.0399
805.9364	-0.0674
806.1064	-0.0276
806.2763	0.0664
806.4462	-0.0081
806.6161	0.0231
806.786	0.0592
806.9559	0.0238
807.1257	-0.0272
807.2955	-0.0107
807.4653	0.0303
807.6351	-0.0182
807.8048	-0.0641
807.9746	-0.0464
808.1443	-0.0041
808.314	0.0102
808.4837	-0.054
808.6533	0.016
808.8229	-0.0603
808.9926	0.0163
809.1622	0.0124
809.3317	-0.0403
809.5013	0.0584
809.6708	0.1069
809.8403	-0.0879
810.0098	0.086
810.1793	0.0599
810.3488	0.0374
810.5182	-0.0863
810.6876	0.0052
810.857	-0.1024
811.0264	0.0124
811.1958	-0.0085
811.3651	-0.0785
811.5344	-0.0633
811.7037	-0.0975
811.873	0.0583
812.0422	0.0039
812.2115	-0.0531
812.3807	0.0443
812.5499	0.0675
812.7191	0.0211
812.8882	-0.0448
813.0574	-0.1804
813.2265	-0.1335
813.3956	-0.0505
813.5646	-0.0494
813.7337	-0.0956
813.9027	-0.0215
814.0718	0.0138
814.2407	-0.1465
814.4097	-0.0116
814.5787	0.0559
814.7476	0.0081
814.9165	-0.057
815.0854	0.0535
815.2543	0.0191
815.4232	-0.0359
815.592	0.0858
815.7608	-0.1014
815.9296	-0.0641
816.0984	0.0063
816.2671	-0.0655
816.4359	0.0044
816.6046	0.0549
816.7733	-0.1906
816.942	0.0156
817.1106	-0.1822
817.2793	-0.0917
817.4479	-0.0065
817.6165	-0.0412
817.785	0.0355
817.9536	0.0448
818.1221	0.1577
818.2906	0.1782
818.4591	-0.0383
818.6276	0.0167
818.7961	0.0255
818.9645	-0.0547
819.1329	0.243
819.3013	0.017
819.4697	0.2872
819.638	0.078
819.8064	-0.1626
819.9747	-0.0836
820.143	-0.0243
820.3113	0.0881
820.4795	-0.0407
820.6477	-0.0789
820.816	-0.0233
820.9842	-0.1013
821.1523	0.1335
821.3205	0.0414
821.4886	-0.0253
821.6567	-0.0825
821.8248	0.0261
821.9929	-0.021
822.1609	-0.052
822.329	0.0977
822.497	0.0414
822.665	0.0962
822.833	-0.1213
823.0009	-0.137
823.1688	0.0033
823.3367	-0.1215
823.5046	0.048
823.6725	0.013
823.8404	0.0208
824.0082	-0.0919
824.176	-0.1187
824.3438	0.0399
824.5116	0.1317
824.6793	-0.0417
824.847	-0.0018
825.0147	0.054
825.1824	0.065
825.3501	0.0258
825.5177	0.1085
825.6854	0.0618
825.853	0.006
826.0206	-0.0699
826.1881	0.0108
826.3557	0.0751
826.5232	0.0232
826.6907	0.0491
826.8582	-0.1177
827.0257	-0.1713
827.1931	0.1605
827.3605	-0.0767
827.528	0.051
827.6953	0.0576
827.8627	0.1309
828.03	0.2217
828.1974	-0.1163
828.3647	0.0644
828.532	0.0147
828.6992	-0.0524
828.8665	-0.1948
829.0337	-0.0743
829.2009	0.0717
829.3681	-0.004
829.5352	-0.0179
829.7024	0.0358
829.8695	-0.1269
830.0366	0.1313
830.2037	0.145
830.3707	-0.1379
830.5378	-0.009
830.7048	-0.3013
830.8718	0.004
831.0388	0.2258
831.2057	0.1813
831.3727	0.3246
831.5396	-0.1965
831.7065	0.1814
831.8734	-0.6109
832.0402	0.11
832.2071	-0.1336
832.3739	0.0555
832.5407	-0
832.7075	-0.0787
832.8742	0.3768
833.041	0.2167
833.2077	0.0163
833.3744	-0.0269
833.541	-0.0982
833.7077	-0.0153
833.8743	-0.0447
834.0409	-0.102
834.2075	-0.0588
834.3741	0.1031
834.5407	-0.1847
834.7072	0.0191
834.8737	-0.0277
835.0402	0.0393
835.2067	0.0174
835.3731	0.0918
835.5395	-0.0408
835.706	-0.2051
835.8723	-0.0819
836.0387	-0.0522
836.2051	-0.0797
836.3714	-0.2911
836.5377	-0.0363
836.704	0.0717
836.8703	0.0395
837.0365	-0.0353
837.2027	-0.5211
837.3689	-0.1098
837.5351	-0.0045
837.7013	0.0039
837.8674	-1.1394
838.0335	-0.1172
838.1997	0.5276
838.3657	1.6972
838.5318	-0
838.6978	0.0153
838.8639	0.0049
839.0299	0.1283
839.1958	0.5245
839.3618	0.015
839.5277	-0.2208
839.6937	-0.3019
839.8596	-0.097
840.0254	0.2332
840.1913	-0.0917
840.3571	-0.0427
840.523	-0.1352
840.6888	-0.1328
840.8545	0.0078
841.0203	-0.2937
841.186	-0.2041
841.3517	0.1517
841.5174	0.0702
841.6831	0.0522
841.8488	0.1087
842.0144	0.1538
842.18	-0.1877
842.3456	-0.2269
842.5112	-0.3137
842.6767	-0.3551
842.8422	0.2248
843.0077	0.0738
843.1732	-0.1063
843.3387	-0.3193
843.5042	-0.1693
843.6696	-0.0973
843.835	-0.226
844.0004	0.0176
844.1657	-0.3402
844.3311	-0
844.4964	0.1228
844.6617	-0.5643
844.827	0.5851
844.9923	-0.0027
845.1575	-0
845.3227	-0.1102
845.4879	0.4105
845.6531	-0.4919
845.8183	0.0613
845.9834	-0.7518
846.1485	-0.5404
846.3136	0.411
846.4787	-0.1437
846.6438	0.0769
846.8088	-1.3277
846.9738	0.7742
847.1388	0.2591
847.3038	-0.1862
847.4687	-0.0943
847.6337	0.0276
847.7986	0.3069
847.9635	-0.0971
848.1284	-0
848.2932	-0.0688
848.458	0.0258
848.6228	-0.1241
848.7876	0.5612
848.9524	-0.1528
849.1172	-0.1089
849.2819	-0
849.4466	0.0973
849.6113	0.1492
849.7759	-0
849.9406	-0.2477
850.1052	-0.0704
850.2698	-0
850.4344	0.0521
850.599	0.3375
850.7635	0.2485
850.928	0.4736
851.0925	-0.3781
851.257	-0.6672
851.4215	-0.6585
851.5859	-0.1383
851.7503	-0
851.9147	-0
852.0791	-0.4621
852.2434	-0.1464
852.4078	-0
852.5721	-0
852.7364	1.3957
852.9007	-0.1579
853.0649	0.3089
853.2291	-0
853.3934	1.4463
853.5575	0.091
853.7217	-0.5874
853.8859	-0.0469
854.05	-1.0169
854.2141	-0
854.3782	0.2145
854.5423	-0.8724
854.7063	0.1574
854.8703	0.0048
855.0343	-0.014
855.1983	-0.0444
855.3623	0.6346
855.5262	-1.0248
855.6901	0.2633
855.854	-0.3068
856.0179	-0
856.1818	-0.8587
856.3456	0.5558
856.5094	-0
856.6732	-0.5123
856.837	0.7068
857.0008	0.0153
857.1645	-0
857.3282	-0.1089
857.4919	-0.1201
857.6556	0.1161
857.8192	-0.2511
857.9828	-0.0933
858.1465	-0.0363
858.31	-0
858.4736	-0.1258
858.6372	-0
858.8007	-1.2871
858.9642	0.5112
859.1277	-0
859.2911	0.0133
859.4546	0.3755
859.618	-0.0878
859.7814	0.1477
859.9448	0.1511
860.1081	1.1399
860.2715	-0
860.4348	-0.2352
860.5981	-0.1082
860.7614	1.046
860.9246	0.1819
861.0879	-0.3456
861.2511	0.1584
861.4143	-0
861.5774	0.3139
861.7406	0.1175
861.9037	-0
862.0668	-0
862.2299	-1.6659
862.393	-0
862.556	-0
862.7191	0.6286
862.8821	-0.4955
863.0451	-0.0025
863.208	-0.4954
863.371	-0
863.5339	-0.2209
863.6968	-0
863.8597	-0.6272
864.0225	0.4249
864.1854	-0
864.3482	-0.4079
864.511	-0.0866
864.6737	0.1734
864.8365	0.442
864.9992	-0.6062
865.1619	-0.0455
865.3246	-0.1875
865.4873	0.3123
865.65	-0.8419
865.8126	-0.2167
865.9752	-0.0688
866.1378	-0.943
866.3004	0.6729
866.4629	-0.1518
866.6254	-0
866.7879	-0
866.9504	-0
867.1129	-0.2302
867.2753	-0.0157
867.4377	0.3501
867.6001	0.3955
867.7625	-0.29
867.9249	0.7287
868.0872	-0.0801
868.2495	1.4953
868.4118	-0.1113
868.5741	-0.1082
868.7363	-0
868.8986	-0
869.0608	-0
869.223	0.0211
869.3851	-0
869.5473	-1.5541
869.7094	-0.1971
869.8715	-0
870.0336	-0.0706
870.1957	-0.6547
870.3577	-0.2128
870.5197	0.1483
870.6817	-0
870.8437	0.2308
871.0057	-0
871.1676	0.1166
871.3295	0.0251
871.4914	-0.1866
871.6533	-0
871.8151	-0
871.977	0.58
872.1388	-0.8607
872.3006	0.118
872.4623	-0.6089
872.6241	-2.0427
872.7858	-0.311
872.9475	-0.3962
873.1092	0.1464
873.2709	-0
873.4325	-0
873.5941	-0.9288
873.7557	-0.4589
873.9173	-0
874.0789	0.1202
874.2404	0.1113
874.4019	-0.0193
874.5634	-0
874.7249	-0.1415
874.8863	-0.2733
875.0478	-0.0929
875.2092	0.197
875.3706	0.0304
875.5319	0.4673
875.6933	-0.2565
875.8546	0.2327
876.0159	0.1032
876.1772	-0.9302
876.3385	0.082
876.4997	0.5679
876.6609	-0.9349
876.8221	0.332
876.9833	-0
877.1445	0.1235
877.3056	0.0887
877.4667	-0
877.6278	-0
877.7889	0.677
877.9499	-0.5171
878.111	0.1212
878.272	-0
878.433	-0.3023
878.5939	0.2889
878.7549	-0.496
878.9158	-0
879.0767	0.3412
879.2376	-0
879.3984	0.0441
879.5593	-0.1791
879.7201	0.2797
879.8809	-0.4407
880.0417	0.2616
880.2024	0.0067
880.3632	0.0116
880.5239	-0.2445
880.6846	-0
880.8452	1.0485
881.0059	-0
881.1665	0.6662
881.3271	-0
881.4877	-0.3127
881.6483	-0
881.8088	-0.2277
881.9693	0.2553
882.1298	0.2553
882.2903	0.2553
