Data from D4ACN5uM480nmA_Absorbance_12-08-00-100.txt Node
Date: Fri Feb 21 12:08:00 GMT 2025
User: LASERRRRR
Spectrometer: FLMT03099
Trigger mode: 0
Integration Time (sec): 1.500000E-2
Scans to average: 1
Electric dark correction enabled: true
Nonlinearity correction enabled: false
Boxcar width: 0
XAxis mode: Wavelengths
Number of Pixels in Spectrum: 3648
>>>>>Begin Spectral Data<<<<<
179.3399	0.5588
179.5586	0.5588
179.7771	0.5588
179.9957	0.2582
180.2143	-0.6079
180.4329	-0
180.6514	-0
180.8699	-0
181.0885	-0
181.307	-0
181.5255	0.0962
181.744	-0
181.9625	-0.2918
182.181	1.3979
182.3994	-0
182.6179	-0
182.8363	-0.4452
183.0547	-0.6752
183.2732	0.2213
183.4916	0.3848
183.71	0.2533
183.9284	0.1523
184.1467	-0
184.3651	0.64
184.5835	0.1356
184.8018	0.3544
185.0201	0.3137
185.2385	0.1556
185.4568	0.1464
185.6751	0.252
185.8934	0.547
186.1117	0.7454
186.3299	0.1819
186.5482	0.5327
186.7664	0.5291
186.9847	0.3378
187.2029	0.5552
187.4211	0.2976
187.6393	0.2569
187.8575	0.2901
188.0757	0.4281
188.2939	0.1845
188.512	0.465
188.7302	0.7945
188.9483	0.7968
189.1665	0.5098
189.3846	0.2671
189.6027	0.2189
189.8208	0.2947
190.0389	0.2586
190.257	0.4757
190.475	0.0884
190.6931	0.2912
190.9111	0.8161
191.1292	0.1189
191.3472	0.251
191.5652	0.7599
191.7832	0.4257
192.0012	0.3348
192.2192	0.3645
192.4371	0.3972
192.6551	0.5027
192.873	0.2968
193.091	0.5037
193.3089	0.4453
193.5268	0.555
193.7447	1.1073
193.9626	0.4714
194.1805	0.579
194.3984	0.5278
194.6162	0.534
194.8341	0.7919
195.0519	0.5477
195.2697	0.4634
195.4875	0.6113
195.7054	0.6171
195.9231	0.525
196.1409	0.473
196.3587	0.5664
196.5765	0.7362
196.7942	0.6902
197.012	0.5889
197.2297	0.5154
197.4474	0.8353
197.6651	0.6461
197.8828	0.6379
198.1005	0.671
198.3182	0.6273
198.5358	0.5351
198.7535	0.645
198.9711	0.7443
199.1888	0.7097
199.4064	0.5707
199.624	0.6044
199.8416	0.5872
200.0592	0.6217
200.2767	0.6335
200.4943	0.7377
200.7119	0.6107
200.9294	0.6044
201.1469	0.637
201.3645	0.6474
201.582	0.6058
201.7995	0.6504
202.017	0.5741
202.2344	0.5675
202.4519	0.6125
202.6694	0.6276
202.8868	0.5522
203.1042	0.5522
203.3217	0.4683
203.5391	0.5343
203.7565	0.4712
203.9739	0.5107
204.1913	0.5783
204.4086	0.5313
204.626	0.5624
204.8433	0.4651
205.0607	0.5669
205.278	0.5376
205.4953	0.4839
205.7126	0.4881
205.9299	0.4934
206.1472	0.5291
206.3644	0.4673
206.5817	0.5001
206.7989	0.4829
207.0162	0.4227
207.2334	0.4691
207.4506	0.4217
207.6678	0.4728
207.885	0.4654
208.1022	0.4691
208.3194	0.4562
208.5365	0.501
208.7537	0.4461
208.9708	0.4621
209.1879	0.4596
209.405	0.42
209.6222	0.4156
209.8392	0.4111
210.0563	0.426
210.2734	0.3889
210.4905	0.4107
210.7075	0.4284
210.9245	0.4202
211.1416	0.4024
211.3586	0.4184
211.5756	0.4037
211.7926	0.4073
212.0096	0.4103
212.2265	0.4484
212.4435	0.4244
212.6604	0.3984
212.8774	0.4231
213.0943	0.4372
213.3112	0.426
213.5281	0.4351
213.745	0.3904
213.9619	0.3918
214.1788	0.4056
214.3956	0.4185
214.6125	0.4061
214.8293	0.4187
215.0461	0.4079
215.2629	0.4162
215.4798	0.4041
215.6965	0.3896
215.9133	0.401
216.1301	0.391
216.3469	0.3991
216.5636	0.4125
216.7803	0.4246
216.9971	0.4392
217.2138	0.4168
217.4305	0.4232
217.6472	0.4113
217.8639	0.4214
218.0805	0.4166
218.2972	0.4213
218.5138	0.4355
218.7305	0.4327
218.9471	0.443
219.1637	0.4474
219.3803	0.4317
219.5969	0.4275
219.8135	0.4172
220.0301	0.4204
220.2466	0.4212
220.4632	0.4173
220.6797	0.4521
220.8962	0.4284
221.1127	0.4291
221.3292	0.4283
221.5457	0.4523
221.7622	0.4446
221.9787	0.4416
222.1951	0.4346
222.4116	0.4673
222.628	0.4511
222.8444	0.4359
223.0608	0.4322
223.2772	0.4431
223.4936	0.4515
223.71	0.4355
223.9264	0.4421
224.1427	0.4449
224.3591	0.4764
224.5754	0.4666
224.7917	0.4639
225.008	0.4707
225.2243	0.4866
225.4406	0.4638
225.6569	0.4521
225.8732	0.4588
226.0894	0.4687
226.3057	0.4526
226.5219	0.4757
226.7381	0.4815
226.9543	0.4716
227.1705	0.4717
227.3867	0.4889
227.6029	0.4659
227.8191	0.4775
228.0352	0.4952
228.2513	0.4934
228.4675	0.4912
228.6836	0.4918
228.8997	0.4924
229.1158	0.4899
229.3319	0.4953
229.548	0.5128
229.764	0.4991
229.9801	0.5
230.1961	0.5224
230.4121	0.5076
230.6282	0.5068
230.8442	0.5167
231.0602	0.512
231.2761	0.5213
231.4921	0.524
231.7081	0.5151
231.924	0.5051
232.14	0.5299
232.3559	0.522
232.5718	0.5325
232.7877	0.5275
233.0036	0.519
233.2195	0.5298
233.4353	0.5366
233.6512	0.5344
233.867	0.5352
234.0829	0.5341
234.2987	0.5397
234.5145	0.5455
234.7303	0.5334
234.9461	0.5218
235.1619	0.5419
235.3776	0.5249
235.5934	0.5185
235.8091	0.533
236.0249	0.5297
236.2406	0.537
236.4563	0.5378
236.672	0.5336
236.8877	0.5388
237.1034	0.5436
237.319	0.5343
237.5347	0.5296
237.7503	0.5403
237.966	0.5353
238.1816	0.537
238.3972	0.5327
238.6128	0.5355
238.8284	0.5298
239.0439	0.541
239.2595	0.5383
239.475	0.5369
239.6906	0.5268
239.9061	0.5289
240.1216	0.5339
240.3371	0.5218
240.5526	0.5141
240.7681	0.523
240.9836	0.5137
241.199	0.5126
241.4145	0.4962
241.6299	0.4886
241.8453	0.4989
242.0607	0.4877
242.2761	0.4837
242.4915	0.48
242.7069	0.4699
242.9223	0.4631
243.1376	0.4501
243.353	0.4472
243.5683	0.4412
243.7836	0.4247
243.9989	0.4137
244.2142	0.4125
244.4295	0.3991
244.6448	0.3982
244.86	0.3888
245.0753	0.3839
245.2905	0.3735
245.5057	0.3717
245.721	0.3564
245.9362	0.3434
246.1514	0.3338
246.3665	0.3366
246.5817	0.3276
246.7969	0.3261
247.012	0.3208
247.2271	0.3081
247.4423	0.309
247.6574	0.3092
247.8725	0.3035
248.0876	0.2878
248.3026	0.2822
248.5177	0.2761
248.7328	0.2827
248.9478	0.2699
249.1628	0.2699
249.3779	0.2699
249.5929	0.2643
249.8079	0.26
250.0228	0.2532
250.2378	0.2498
250.4528	0.248
250.6677	0.2384
250.8827	0.2438
251.0976	0.2405
251.3125	0.2384
251.5274	0.2332
251.7423	0.2274
251.9572	0.2305
252.172	0.2215
252.3869	0.2241
252.6017	0.2166
252.8166	0.222
253.0314	0.2253
253.2462	0.2202
253.461	0.2204
253.6758	0.205
253.8906	0.2009
254.1053	0.206
254.3201	0.2022
254.5348	0.1987
254.7496	0.2039
254.9643	0.2038
255.179	0.2029
255.3937	0.2057
255.6083	0.1985
255.823	0.2
256.0377	0.2015
256.2523	0.195
256.467	0.1964
256.6816	0.1941
256.8962	0.1975
257.1108	0.1954
257.3254	0.1924
257.54	0.1912
257.7545	0.1928
257.9691	0.1937
258.1836	0.194
258.3981	0.1875
258.6127	0.1846
258.8272	0.1865
259.0417	0.1865
259.2561	0.1859
259.4706	0.1942
259.6851	0.1818
259.8995	0.178
260.114	0.1801
260.3284	0.1889
260.5428	0.1861
260.7572	0.1876
260.9716	0.1857
261.186	0.1818
261.4003	0.1843
261.6147	0.1845
261.829	0.18
262.0433	0.1841
262.2577	0.1901
262.472	0.1868
262.6863	0.1871
262.9005	0.1909
263.1148	0.1771
263.3291	0.1831
263.5433	0.184
263.7576	0.1829
263.9718	0.185
264.186	0.1841
264.4002	0.1827
264.6144	0.1847
264.8286	0.1843
265.0427	0.1886
265.2569	0.181
265.471	0.1852
265.6851	0.1852
265.8993	0.1852
266.1134	0.1882
266.3275	0.1917
266.5415	0.1805
266.7556	0.1822
266.9697	0.1838
267.1837	0.187
267.3978	0.1893
267.6118	0.1785
267.8258	0.1874
268.0398	0.1879
268.2538	0.1795
268.4677	0.1767
268.6817	0.1774
268.8957	0.1824
269.1096	0.175
269.3235	0.1855
269.5374	0.1827
269.7514	0.1849
269.9652	0.1845
270.1791	0.1772
270.393	0.1808
270.6068	0.175
270.8207	0.1733
271.0345	0.1793
271.2483	0.178
271.4622	0.1801
271.676	0.1698
271.8897	0.174
272.1035	0.173
272.3173	0.1665
272.531	0.1706
272.7448	0.1674
272.9585	0.1693
273.1722	0.1769
273.3859	0.1748
273.5996	0.1735
273.8133	0.1699
274.0269	0.1774
274.2406	0.1765
274.4542	0.1713
274.6679	0.1696
274.8815	0.1729
275.0951	0.1748
275.3087	0.1789
275.5223	0.1711
275.7358	0.1734
275.9494	0.1741
276.1629	0.1724
276.3765	0.1742
276.59	0.1769
276.8035	0.1784
277.017	0.1788
277.2305	0.178
277.444	0.1728
277.6574	0.1719
277.8709	0.178
278.0843	0.1827
278.2978	0.174
278.5112	0.1828
278.7246	0.1747
278.938	0.1758
279.1513	0.1763
279.3647	0.179
279.5781	0.1759
279.7914	0.1809
280.0047	0.1774
280.2181	0.1847
280.4314	0.1823
280.6447	0.1866
280.8579	0.1774
281.0712	0.1779
281.2845	0.1857
281.4977	0.1813
281.711	0.1814
281.9242	0.1899
282.1374	0.1786
282.3506	0.1865
282.5638	0.1861
282.7769	0.1817
282.9901	0.1848
283.2033	0.1863
283.4164	0.1856
283.6295	0.1822
283.8426	0.1873
284.0557	0.1845
284.2688	0.1864
284.4819	0.1924
284.695	0.1933
284.908	0.1933
285.1211	0.1943
285.3341	0.1908
285.5471	0.192
285.7601	0.1958
285.9731	0.1875
286.1861	0.1906
286.3991	0.1935
286.612	0.1956
286.825	0.1875
287.0379	0.1991
287.2508	0.1907
287.4637	0.1907
287.6766	0.1989
287.8895	0.1929
288.1024	0.1973
288.3152	0.1958
288.5281	0.1989
288.7409	0.1964
288.9538	0.1952
289.1666	0.1983
289.3794	0.2004
289.5922	0.1955
289.8049	0.2072
290.0177	0.1967
290.2304	0.2009
290.4432	0.2079
290.6559	0.1909
290.8686	0.2025
291.0813	0.2001
291.294	0.206
291.5067	0.1987
291.7194	0.1977
291.932	0.2025
292.1447	0.2029
292.3573	0.1992
292.5699	0.2029
292.7825	0.2
292.9951	0.1981
293.2077	0.1999
293.4203	0.2055
293.6328	0.1999
293.8454	0.2014
294.0579	0.2059
294.2704	0.2028
294.4829	0.1987
294.6954	0.1983
294.9079	0.2018
295.1204	0.2035
295.3328	0.201
295.5453	0.2009
295.7577	0.2008
295.9701	0.2008
296.1825	0.1963
296.3949	0.2066
296.6073	0.1988
296.8197	0.2068
297.0321	0.2041
297.2444	0.1973
297.4567	0.1992
297.6691	0.2014
297.8814	0.1989
298.0937	0.2011
298.306	0.2001
298.5182	0.2037
298.7305	0.196
298.9428	0.1949
299.155	0.1983
299.3672	0.2003
299.5794	0.1966
299.7916	0.1972
300.0038	0.196
300.216	0.2061
300.4282	0.1953
300.6403	0.1945
300.8525	0.1994
301.0646	0.1982
301.2767	0.1968
301.4888	0.2013
301.7009	0.197
301.913	0.2015
302.125	0.1958
302.3371	0.1967
302.5491	0.2031
302.7612	0.1934
302.9732	0.1894
303.1852	0.1957
303.3972	0.1955
303.6092	0.1959
303.8211	0.1904
304.0331	0.1904
304.245	0.1971
304.457	0.1969
304.6689	0.1899
304.8808	0.1944
305.0927	0.1959
305.3046	0.1861
305.5164	0.1867
305.7283	0.1978
305.9401	0.1788
306.152	0.1822
306.3638	0.1797
306.5756	0.182
306.7874	0.1816
306.9992	0.1801
307.2109	0.1726
307.4227	0.1779
307.6344	0.1726
307.8462	0.168
308.0579	0.1696
308.2696	0.1664
308.4813	0.1593
308.693	0.1637
308.9046	0.1627
309.1163	0.1604
309.328	0.156
309.5396	0.1603
309.7512	0.1553
309.9628	0.1553
310.1744	0.1576
310.386	0.1525
310.5976	0.1494
310.8091	0.1422
311.0207	0.149
311.2322	0.15
311.4437	0.1466
311.6552	0.1442
311.8667	0.1371
312.0782	0.1442
312.2897	0.138
312.5012	0.1438
312.7126	0.1298
312.924	0.1374
313.1355	0.1332
313.3469	0.1279
313.5583	0.1355
313.7696	0.1281
313.981	0.1315
314.1924	0.1276
314.4037	0.123
314.6151	0.1293
314.8264	0.1305
315.0377	0.1294
315.249	0.1249
315.4603	0.1213
315.6716	0.1241
315.8828	0.1217
316.0941	0.1225
316.3053	0.1205
316.5165	0.1173
316.7277	0.1245
316.9389	0.1254
317.1501	0.1201
317.3613	0.1156
317.5724	0.1162
317.7836	0.1153
317.9947	0.111
318.2058	0.12
318.417	0.1205
318.6281	0.116
318.8391	0.1246
319.0502	0.1213
319.2613	0.1174
319.4723	0.1203
319.6834	0.1209
319.8944	0.1228
320.1054	0.1173
320.3164	0.1216
320.5274	0.1132
320.7383	0.1172
320.9493	0.1163
321.1602	0.1133
321.3712	0.1234
321.5821	0.117
321.793	0.1168
322.0039	0.1184
322.2148	0.1188
322.4257	0.1166
322.6365	0.1204
322.8474	0.1187
323.0582	0.1208
323.269	0.1178
323.4798	0.1165
323.6906	0.1114
323.9014	0.1153
324.1122	0.1142
324.3229	0.1175
324.5337	0.1181
324.7444	0.1138
324.9551	0.1195
325.1658	0.1163
325.3765	0.1134
325.5872	0.1172
325.7979	0.1194
326.0085	0.1224
326.2192	0.1177
326.4298	0.1253
326.6404	0.1219
326.851	0.1218
327.0616	0.1241
327.2722	0.1183
327.4828	0.1192
327.6933	0.1218
327.9039	0.1204
328.1144	0.1181
328.3249	0.1256
328.5354	0.119
328.7459	0.1237
328.9564	0.1266
329.1669	0.116
329.3773	0.1246
329.5878	0.12
329.7982	0.1226
330.0086	0.1219
330.219	0.1265
330.4294	0.1288
330.6398	0.1263
330.8502	0.1219
331.0605	0.1216
331.2708	0.1246
331.4812	0.1236
331.6915	0.1249
331.9018	0.1207
332.1121	0.1277
332.3224	0.1273
332.5326	0.1268
332.7429	0.1171
332.9531	0.1296
333.1633	0.124
333.3735	0.1229
333.5837	0.1334
333.7939	0.1254
334.0041	0.1249
334.2143	0.1254
334.4244	0.1215
334.6346	0.1209
334.8447	0.1316
335.0548	0.1267
335.2649	0.1299
335.475	0.1226
335.685	0.1246
335.8951	0.127
336.1051	0.1249
336.3152	0.1258
336.5252	0.129
336.7352	0.1251
336.9452	0.1316
337.1552	0.1316
337.3652	0.1311
337.5751	0.1259
337.7851	0.1299
337.995	0.1276
338.2049	0.1354
338.4148	0.1277
338.6247	0.1304
338.8346	0.1316
339.0445	0.129
339.2543	0.1367
339.4642	0.1404
339.674	0.1298
339.8838	0.1291
340.0936	0.1383
340.3034	0.1375
340.5132	0.1348
340.7229	0.1333
340.9327	0.1389
341.1424	0.1412
341.3522	0.1469
341.5619	0.137
341.7716	0.1346
341.9813	0.1413
342.1909	0.1441
342.4006	0.1441
342.6102	0.1441
342.8199	0.1325
343.0295	0.1366
343.2391	0.1401
343.4487	0.1459
343.6583	0.144
343.8679	0.1422
344.0774	0.1483
344.287	0.1474
344.4965	0.1483
344.706	0.1471
344.9155	0.1447
345.125	0.1502
345.3345	0.1484
345.544	0.1471
345.7534	0.1512
345.9629	0.1526
346.1723	0.1485
346.3817	0.1466
346.5911	0.1507
346.8005	0.1488
347.0099	0.1524
347.2193	0.1506
347.4286	0.1526
347.638	0.155
347.8473	0.1576
348.0566	0.1585
348.2659	0.1539
348.4752	0.162
348.6845	0.1539
348.8937	0.1615
349.103	0.1556
349.3122	0.1634
349.5214	0.157
349.7306	0.1619
349.9398	0.1579
350.149	0.1672
350.3582	0.162
350.5674	0.1629
350.7765	0.1654
350.9856	0.1618
351.1948	0.165
351.4039	0.1718
351.613	0.1748
351.822	0.1715
352.0311	0.161
352.2402	0.1699
352.4492	0.173
352.6582	0.1714
352.8672	0.167
353.0762	0.1666
353.2852	0.175
353.4942	0.1667
353.7032	0.1702
353.9121	0.1746
354.1211	0.1763
354.33	0.1782
354.5389	0.1833
354.7478	0.1719
354.9567	0.179
355.1655	0.1802
355.3744	0.181
355.5833	0.1796
355.7921	0.1759
356.0009	0.1804
356.2097	0.1917
356.4185	0.1901
356.6273	0.1814
356.8361	0.1987
357.0448	0.1855
357.2536	0.1899
357.4623	0.1844
357.671	0.1893
357.8797	0.2
358.0884	0.1904
358.2971	0.1947
358.5057	0.1961
358.7144	0.1996
358.923	0.1979
359.1316	0.1861
359.3402	0.1969
359.5488	0.1943
359.7574	0.2015
359.966	0.2111
360.1746	0.2031
360.3831	0.2092
360.5916	0.2048
360.8002	0.2119
361.0087	0.2122
361.2172	0.2158
361.4256	0.1958
361.6341	0.2198
361.8426	0.2072
362.051	0.2112
362.2594	0.2133
362.4678	0.2189
362.6762	0.2204
362.8846	0.2158
363.093	0.2235
363.3014	0.2211
363.5097	0.2302
363.718	0.2247
363.9264	0.2252
364.1347	0.2322
364.343	0.2293
364.5513	0.2366
364.7595	0.2332
364.9678	0.237
365.176	0.2307
365.3842	0.2307
365.5925	0.2229
365.8007	0.236
366.0089	0.2436
366.217	0.2334
366.4252	0.2322
366.6333	0.2369
366.8415	0.2367
367.0496	0.2418
367.2577	0.2436
367.4658	0.2551
367.6739	0.2391
367.882	0.2488
368.09	0.2471
368.2981	0.2401
368.5061	0.2455
368.7141	0.2462
368.9221	0.2497
369.1301	0.2539
369.3381	0.252
369.5461	0.2532
369.754	0.2537
369.962	0.2572
370.1699	0.2575
370.3778	0.2565
370.5857	0.2613
370.7936	0.2618
371.0015	0.25
371.2093	0.2712
371.4172	0.2548
371.625	0.2661
371.8328	0.2706
372.0406	0.2632
372.2484	0.2601
372.4562	0.2718
372.664	0.2653
372.8717	0.2763
373.0795	0.261
373.2872	0.2689
373.4949	0.2763
373.7026	0.2869
373.9103	0.257
374.118	0.2726
374.3256	0.2765
374.5333	0.282
374.7409	0.2789
374.9485	0.2771
375.1561	0.2862
375.3637	0.267
375.5713	0.2791
375.7789	0.2681
375.9864	0.2818
376.194	0.2812
376.4015	0.2809
376.609	0.2916
376.8165	0.2799
377.024	0.2769
377.2315	0.2829
377.4389	0.2762
377.6464	0.2811
377.8538	0.2881
378.0612	0.2871
378.2686	0.2874
378.476	0.2937
378.6834	0.2876
378.8908	0.2983
379.0981	0.2949
379.3055	0.3106
379.5128	0.3029
379.7201	0.2964
379.9274	0.2936
380.1347	0.3048
380.342	0.2999
380.5492	0.3018
380.7565	0.3015
380.9637	0.3033
381.1709	0.2935
381.3781	0.3087
381.5853	0.2995
381.7925	0.3032
381.9997	0.3042
382.2068	0.2996
382.4139	0.3117
382.6211	0.3171
382.8282	0.3093
383.0353	0.3054
383.2424	0.3143
383.4494	0.3068
383.6565	0.3095
383.8635	0.3165
384.0706	0.3
384.2776	0.3097
384.4846	0.3188
384.6916	0.3125
384.8986	0.3222
385.1055	0.3203
385.3125	0.3187
385.5194	0.3047
385.7263	0.3174
385.9333	0.3184
386.1402	0.3193
386.347	0.318
386.5539	0.3171
386.7608	0.3185
386.9676	0.314
387.1744	0.3099
387.3813	0.3241
387.5881	0.3171
387.7948	0.3203
388.0016	0.3123
388.2084	0.315
388.4151	0.3181
388.6219	0.2999
388.8286	0.3183
389.0353	0.3095
389.242	0.3091
389.4487	0.3131
389.6553	0.3021
389.862	0.307
390.0686	0.3118
390.2753	0.2968
390.4819	0.3049
390.6885	0.2979
390.8951	0.315
391.1016	0.3096
391.3082	0.293
391.5147	0.2959
391.7213	0.2954
391.9278	0.3025
392.1343	0.2965
392.3408	0.2915
392.5473	0.293
392.7537	0.2969
392.9602	0.2916
393.1666	0.2861
393.373	0.2961
393.5794	0.2817
393.7858	0.285
393.9922	0.2895
394.1986	0.2867
394.4049	0.2907
394.6113	0.2886
394.8176	0.2808
395.0239	0.272
395.2302	0.2717
395.4365	0.2795
395.6428	0.282
395.8491	0.2678
396.0553	0.2754
396.2615	0.2736
396.4678	0.2742
396.674	0.2668
396.8802	0.2713
397.0863	0.2694
397.2925	0.2708
397.4987	0.2776
397.7048	0.2732
397.9109	0.2774
398.117	0.2637
398.3231	0.2742
398.5292	0.2808
398.7353	0.2674
398.9413	0.2726
399.1474	0.2733
399.3534	0.2684
399.5594	0.272
399.7654	0.2682
399.9714	0.2622
400.1774	0.2643
400.3833	0.2735
400.5893	0.2611
400.7952	0.271
401.0011	0.2572
401.207	0.264
401.4129	0.2627
401.6188	0.2651
401.8247	0.2637
402.0305	0.2525
402.2364	0.2699
402.4422	0.2665
402.648	0.2837
402.8538	0.2758
403.0596	0.2623
403.2654	0.2736
403.4711	0.2648
403.6768	0.268
403.8826	0.2689
404.0883	0.2598
404.294	0.2725
404.4997	0.2707
404.7054	0.266
404.911	0.2589
405.1167	0.2735
405.3223	0.2671
405.5279	0.2647
405.7335	0.2668
405.9391	0.2647
406.1447	0.2694
406.3502	0.2699
406.5558	0.2784
406.7613	0.2552
406.9668	0.2675
407.1724	0.2708
407.3778	0.2625
407.5833	0.2641
407.7888	0.2746
407.9942	0.265
408.1997	0.2695
408.4051	0.2763
408.6105	0.266
408.8159	0.2694
409.0213	0.2787
409.2267	0.2672
409.432	0.2684
409.6374	0.2729
409.8427	0.274
410.048	0.2725
410.2533	0.2599
410.4586	0.2651
410.6639	0.2624
410.8691	0.2774
411.0744	0.2761
411.2796	0.2788
411.4848	0.2675
411.69	0.2584
411.8952	0.2629
412.1004	0.2687
412.3056	0.2589
412.5107	0.272
412.7158	0.2723
412.921	0.2676
413.1261	0.2707
413.3312	0.2548
413.5362	0.2628
413.7413	0.2709
413.9464	0.2667
414.1514	0.2613
414.3564	0.2592
414.5614	0.2673
414.7664	0.261
414.9714	0.2668
415.1764	0.2643
415.3813	0.2647
415.5863	0.2664
415.7912	0.272
415.9961	0.2501
416.201	0.2667
416.4059	0.2597
416.6108	0.2523
416.8156	0.253
417.0205	0.2553
417.2253	0.2628
417.4301	0.2534
417.6349	0.2636
417.8397	0.2652
418.0445	0.2685
418.2492	0.2616
418.454	0.2545
418.6587	0.2628
418.8634	0.258
419.0681	0.2553
419.2728	0.2454
419.4775	0.2576
419.6822	0.2458
419.8868	0.2499
420.0915	0.2575
420.2961	0.2432
420.5007	0.2581
420.7053	0.2587
420.9099	0.2463
421.1144	0.2377
421.319	0.2365
421.5235	0.2431
421.728	0.2458
421.9325	0.2582
422.137	0.2414
422.3415	0.2405
422.546	0.2394
422.7504	0.2486
422.9549	0.2322
423.1593	0.2402
423.3637	0.2327
423.5681	0.2391
423.7725	0.2347
423.9769	0.2434
424.1812	0.2332
424.3856	0.2404
424.5899	0.229
424.7942	0.2327
424.9985	0.2252
425.2028	0.2307
425.4071	0.2157
425.6113	0.225
425.8156	0.2306
426.0198	0.22
426.224	0.2218
426.4282	0.2254
426.6324	0.2143
426.8366	0.217
427.0407	0.2237
427.2449	0.2253
427.449	0.2152
427.6531	0.2233
427.8572	0.2189
428.0613	0.2048
428.2654	0.2196
428.4694	0.1961
428.6735	0.2103
428.8775	0.2007
429.0815	0.2172
429.2855	0.2055
429.4895	0.1973
429.6935	0.1964
429.8975	0.2037
430.1014	0.2084
430.3053	0.1952
430.5093	0.2004
430.7132	0.1999
430.9171	0.1869
431.1209	0.1891
431.3248	0.1802
431.5286	0.1845
431.7325	0.1957
431.9363	0.1872
432.1401	0.1782
432.3439	0.1808
432.5477	0.1776
432.7514	0.1736
432.9552	0.1749
433.1589	0.1703
433.3627	0.1744
433.5664	0.1692
433.7701	0.1742
433.9737	0.1702
434.1774	0.1688
434.3811	0.1663
434.5847	0.1608
434.7883	0.1606
434.9919	0.159
435.1955	0.1614
435.3991	0.1512
435.6027	0.1474
435.8062	0.1523
436.0098	0.1444
436.2133	0.1552
436.4168	0.1458
436.6203	0.1441
436.8238	0.1331
437.0272	0.1379
437.2307	0.1378
437.4341	0.14
437.6375	0.1275
437.841	0.1372
438.0443	0.1361
438.2477	0.1279
438.4511	0.1324
438.6545	0.1368
438.8578	0.1298
439.0611	0.1215
439.2644	0.1123
439.4677	0.1217
439.671	0.1164
439.8743	0.1153
440.0775	0.1132
440.2808	0.1257
440.484	0.1097
440.6872	0.1086
440.8904	0.1084
441.0936	0.1172
441.2967	0.0977
441.4999	0.1065
441.703	0.102
441.9062	0.1071
442.1093	0.0993
442.3124	0.1037
442.5155	0.0996
442.7185	0.0865
442.9216	0.0916
443.1246	0.0948
443.3276	0.0886
443.5307	0.0873
443.7337	0.0881
443.9366	0.0879
444.1396	0.0878
444.3426	0.0837
444.5455	0.0756
444.7484	0.0756
444.9513	0.0737
445.1542	0.0784
445.3571	0.0707
445.56	0.0807
445.7628	0.0734
445.9657	0.0747
446.1685	0.0775
446.3713	0.0706
446.5741	0.0626
446.7769	0.0744
446.9797	0.063
447.1824	0.0653
447.3852	0.0532
447.5879	0.063
447.7906	0.0582
447.9933	0.065
448.196	0.0607
448.3986	0.0608
448.6013	0.0562
448.8039	0.054
449.0066	0.0602
449.2092	0.051
449.4118	0.0527
449.6143	0.0509
449.8169	0.0561
450.0195	0.0472
450.222	0.0591
450.4245	0.0527
450.627	0.0427
450.8295	0.0455
451.032	0.0492
451.2345	0.0424
451.4369	0.0419
451.6394	0.0424
451.8418	0.0438
452.0442	0.0391
452.2466	0.0442
452.449	0.0357
452.6513	0.0416
452.8537	0.0416
453.056	0.0381
453.2583	0.0337
453.4607	0.041
453.663	0.0338
453.8652	0.0307
454.0675	0.0355
454.2697	0.031
454.472	0.0359
454.6742	0.0151
454.8764	0.0273
455.0786	0.0264
455.2808	0.027
455.4829	0.0246
455.6851	0.0174
455.8872	0.0374
456.0893	0.0295
456.2915	0.0229
456.4935	0.0156
456.6956	0.0243
456.8977	0.0193
457.0997	0.0253
457.3018	0.0255
457.5038	0.0234
457.7058	0.0241
457.9078	0.0227
458.1098	0.0206
458.3117	0.0234
458.5137	0.0241
458.7156	0.0218
458.9175	0.0216
459.1194	0.0222
459.3213	0.0144
459.5232	0.0177
459.725	0.0164
459.9269	0.0166
460.1287	0.0118
460.3305	0.0093
460.5323	0.0183
460.7341	0.0092
460.9359	0.0208
461.1376	0.0184
461.3394	0.0147
461.5411	0.0175
461.7428	0.015
461.9445	0.0179
462.1462	0.0115
462.3479	0.0116
462.5495	0.0241
462.7512	0.0139
462.9528	0.0212
463.1544	0.0094
463.356	0.0149
463.5576	0.0152
463.7592	0.0065
463.9607	0.0188
464.1623	0.0231
464.3638	0.0121
464.5653	0.0135
464.7668	0.0017
464.9683	0.0073
465.1697	0.0103
465.3712	0.0088
465.5726	0.0153
465.7741	0.0134
465.9755	0.0119
466.1769	0.0141
466.3782	0.0068
466.5796	0.0143
466.7809	0.0173
466.9823	0.003
467.1836	0.0067
467.3849	0.0035
467.5862	0.0013
467.7875	0.0087
467.9887	0.0112
468.19	0.0119
468.3912	0.0103
468.5924	0.0181
468.7936	-0.0053
468.9948	0.0192
469.196	0.013
469.3972	0.0132
469.5983	0.0051
469.7994	-0.0026
470.0006	0.0093
470.2017	0.0105
470.4027	0.0097
470.6038	0.0029
470.8049	0.0007
471.0059	0.0098
471.2069	0.0146
471.408	0.0001
471.6089	0.0106
471.8099	0.0061
472.0109	0.0017
472.2119	0.0197
472.4128	0.0134
472.6137	-0.0005
472.8146	0.0032
473.0155	-0.001
473.2164	-0.001
473.4173	0.0176
473.6181	0.0047
473.819	0.0008
474.0198	0.0089
474.2206	0.0028
474.4214	0.0116
474.6222	0.0073
474.8229	0.0075
475.0237	0.002
475.2244	0.0187
475.4251	0.001
475.6258	0.011
475.8265	0.0037
476.0272	0.0102
476.2278	0.0026
476.4285	0.0099
476.6291	0.0096
476.8297	0.0028
477.0303	0.0053
477.2309	0.0029
477.4315	0.0134
477.632	0.0037
477.8326	-0.0001
478.0331	-0.0048
478.2336	0.0044
478.4341	0.0007
478.6346	0.0056
478.8351	0.0007
479.0355	0.0018
479.236	0.0007
479.4364	-0.0045
479.6368	0.0013
479.8372	0.0105
480.0376	0.0014
480.2379	0.0061
480.4383	-0.0022
480.6386	-0.0059
480.8389	0.0077
481.0392	0.0114
481.2395	0.005
481.4398	0.0063
481.6401	0.0032
481.8403	-0.0035
482.0405	-0.0029
482.2408	-0.0003
482.441	0.0019
482.6411	0.0015
482.8413	-0.0015
483.0415	-0.0001
483.2416	-0.007
483.4417	-0.0028
483.6419	0.0049
483.8419	-0.0007
484.042	0.0063
484.2421	0.0009
484.4422	0.0078
484.6422	0.0064
484.8422	0.0002
485.0422	0.004
485.2422	-0.0014
485.4422	-0.0015
485.6422	0.0013
485.8421	0.0002
486.042	0.007
486.242	0.0024
486.4419	0.0008
486.6417	0.0019
486.8416	0.0017
487.0415	-0.0044
487.2413	0.0035
487.4411	0.0037
487.641	0.0021
487.8408	0.0033
488.0405	0.0066
488.2403	-0.0011
488.4401	-0.0022
488.6398	0.0003
488.8395	0.0061
489.0392	-0.0013
489.2389	0.0081
489.4386	-0.0003
489.6383	0.0024
489.8379	0.0049
490.0376	0.0177
490.2372	-0.0066
490.4368	0.004
490.6364	0.0095
490.836	0.0036
491.0355	-0.0027
491.2351	0.0029
491.4346	0.0076
491.6341	0.0002
491.8336	-0.0033
492.0331	0.0008
492.2326	-0.0032
492.432	0.0019
492.6315	-0.0028
492.8309	0.0105
493.0303	0.0026
493.2297	0.0057
493.4291	-0.0094
493.6284	-0.0001
493.8278	0.0015
494.0271	0.0006
494.2264	0.008
494.4257	-0.0002
494.625	-0.0005
494.8243	0.0081
495.0236	0.0026
495.2228	-0.0074
495.422	0.0013
495.6213	-0.0001
495.8205	-0
496.0196	0.0025
496.2188	0.0048
496.418	-0.0042
496.6171	0.0057
496.8162	-0.0005
497.0153	-0.0043
497.2144	0.0041
497.4135	0.003
497.6126	-0.0073
497.8116	0.0024
498.0107	-0.0044
498.2097	0.0162
498.4087	0.0013
498.6077	0.0065
498.8067	0.0028
499.0056	0.0004
499.2046	-0.004
499.4035	0.0098
499.6024	-0.0151
499.8013	0.0084
500.0002	0.0018
500.199	0.0025
500.3979	0.0111
500.5967	-0.0054
500.7956	0.0033
500.9944	0.0134
501.1932	0.0027
501.3919	0.004
501.5907	0.0025
501.7895	0.0006
501.9882	-0.0034
502.1869	0.0029
502.3856	-0.0067
502.5843	0.0007
502.783	0.0044
502.9816	-0.0063
503.1803	0.0119
503.3789	-0.0012
503.5775	0.0097
503.7761	-0.0018
503.9747	-0.0051
504.1732	-0.0028
504.3718	-0.0069
504.5703	-0.0068
504.7689	-0.012
504.9674	0.0014
505.1658	0.0068
505.3643	0.0024
505.5628	0.0113
505.7612	0.004
505.9597	0.0036
506.1581	-0.0024
506.3565	-0.0051
506.5549	0.002
506.7532	0.0054
506.9516	0.0028
507.1499	0.0035
507.3482	0.0034
507.5465	-0.0008
507.7448	0.0116
507.9431	-0.0002
508.1414	-0.0004
508.3396	-0.0014
508.5379	-0.0006
508.7361	0.0063
508.9343	0.0055
509.1325	0.0007
509.3306	0.0039
509.5288	0.0068
509.7269	-0.0032
509.9251	-0.0005
510.1232	0.0041
510.3213	-0.0037
510.5193	0.0074
510.7174	-0.005
510.9154	0.0004
511.1135	0.0021
511.3115	0.0028
511.5095	0.0005
511.7075	-0.0012
511.9055	0.0089
512.1034	0.004
512.3014	0.0004
512.4993	0.0048
512.6972	0.0027
512.8951	-0.0016
513.093	-0.002
513.2908	0.0052
513.4887	0.0104
513.6865	-0.0026
513.8844	0.0081
514.0822	0.0018
514.2799	0.0012
514.4777	0.0026
514.6755	0.0045
514.8732	-0.0012
515.0709	0.0046
515.2687	-0.0036
515.4664	-0.0107
515.664	0.0093
515.8617	0.0096
516.0594	-0.0037
516.257	0.0128
516.4546	0.0021
516.6522	-0
516.8498	0.0049
517.0474	-0.0012
517.2449	-0.003
517.4425	-0.0078
517.64	0.0088
517.8375	0.0111
518.035	-0.0027
518.2325	0.0009
518.43	-0.0009
518.6274	-0.0057
518.8249	-0.0002
519.0223	-0.001
519.2197	-0.0067
519.4171	0.0015
519.6145	-0.0006
519.8118	0.0035
520.0092	-0.0023
520.2065	0.0013
520.4038	0.0017
520.6011	0.0041
520.7984	0.0094
520.9956	0.0049
521.1929	0.0052
521.3901	0.0055
521.5874	0.0053
521.7846	-0.0073
521.9818	-0.0042
522.1789	0.0208
522.3761	-0.0036
522.5732	0.0016
522.7704	-0.0029
522.9675	-0.005
523.1646	0.0117
523.3617	-0.0062
523.5587	0.0056
523.7558	0.0092
523.9528	0.004
524.1498	0.0069
524.3468	0.0028
524.5438	-0.0045
524.7408	-0.002
524.9378	0.0097
525.1347	0.008
525.3316	0.0061
525.5285	0.0035
525.7254	0.0004
525.9223	-0.0037
526.1192	-0.0031
526.316	-0.001
526.5129	0.0011
526.7097	-0.0036
526.9065	0.0057
527.1033	-0.0073
527.3	-0.0032
527.4968	-0.0101
527.6935	0.0039
527.8903	0.0054
528.087	0.0057
528.2837	0.0027
528.4804	0.0061
528.677	0.0031
528.8737	-0.0051
529.0703	0.0115
529.2669	0.0061
529.4635	0.0065
529.6601	0.0032
529.8567	0.0053
530.0532	0.0066
530.2498	-0.0009
530.4463	0.0146
530.6428	-0.0007
530.8393	-0.0062
531.0358	0.0041
531.2322	0.0058
531.4287	-0.0028
531.6251	0.0038
531.8215	0.006
532.0179	-0.0062
532.2143	0.0165
532.4107	0.0039
532.607	0.0034
532.8034	0.0091
532.9997	0.0117
533.196	0.013
533.3923	-0.0027
533.5886	0.0038
533.7848	-0.0068
533.9811	-0.0062
534.1773	-0.0084
534.3735	0.0144
534.5697	-0.0015
534.7659	0.0061
534.9621	0.0096
535.1582	0.0108
535.3544	0.0006
535.5505	0.0065
535.7466	-0.0022
535.9427	-0.0009
536.1387	-0.002
536.3348	0.006
536.5308	0.0105
536.7269	-0.0068
536.9229	-0.0069
537.1189	-0.0004
537.3148	-0.0125
537.5108	0.0036
537.7068	0.0131
537.9027	0.0063
538.0986	-0.0107
538.2945	-0.0045
538.4904	-0.0048
538.6863	0.0108
538.8821	-0.0041
539.078	-0.0017
539.2738	-0.0042
539.4696	0.0113
539.6654	0.0032
539.8611	-0.0024
540.0569	0.0037
540.2526	-0.0079
540.4484	-0.0132
540.6441	0.0005
540.8398	-0.0051
541.0355	0.0009
541.2311	0.0019
541.4268	0.0032
541.6224	0.006
541.818	-0.004
542.0136	-0.0151
542.2092	0.0022
542.4048	0.0032
542.6003	0.0011
542.7959	0.0064
542.9914	0.0137
543.1869	-0.0022
543.3824	0.0055
543.5779	0.0021
543.7734	-0.0012
543.9688	0.0046
544.1642	0.0027
544.3596	-0.0054
544.555	0.0087
544.7504	0.0061
544.9458	0.0076
545.1411	-0.0018
545.3365	-0.0024
545.5318	-0.0045
545.7271	0.0139
545.9224	0.0053
546.1177	0.004
546.3129	-0.0145
546.5081	-0.0095
546.7034	0.0003
546.8986	0.0068
547.0938	-0.0002
547.289	0.0008
547.4841	0.0017
547.6793	-0.005
547.8744	0.0036
548.0695	0.0071
548.2646	-0.0092
548.4597	-0.0098
548.6548	0.0062
548.8498	-0.0031
549.0448	0.0037
549.2399	0.0088
549.4349	0.0138
549.6298	-0.0153
549.8248	-0.0091
550.0198	0.0104
550.2147	-0.0039
550.4096	0.0091
550.6045	0.0045
550.7994	0.0039
550.9943	0.0047
551.1892	-0.0052
551.384	0.012
551.5788	0.0123
551.7737	-0.0002
551.9685	0.008
552.1632	0.006
552.358	-0.0054
552.5528	-0.0104
552.7475	-0.0014
552.9422	-0.0003
553.1369	0.0057
553.3316	-0.0013
553.5263	-0.0106
553.7209	-0.0018
553.9156	0.013
554.1102	-0.0039
554.3048	0.0113
554.4994	0.0052
554.694	0.0008
554.8885	0.0028
555.0831	0.0059
555.2776	-0.0033
555.4721	-0.0104
555.6666	-0.0092
555.8611	-0.0142
556.0555	0.0086
556.25	0.0085
556.4444	-0.0016
556.6388	-0.0021
556.8332	-0.0015
557.0276	0.0106
557.222	-0.0075
557.4163	0.0114
557.6107	-0.0006
557.805	0.0011
557.9993	-0.0066
558.1936	0.0129
558.3879	0.0008
558.5821	0.0003
558.7764	0.012
558.9706	0.0054
559.1648	-0.0024
559.359	0.0122
559.5532	-0.0117
559.7473	0.0092
559.9415	0.0083
560.1356	0.0084
560.3297	0.0028
560.5238	0.008
560.7179	-0.0078
560.9119	0.0101
561.106	-0.0006
561.3	-0.0024
561.494	0.0048
561.688	0.0048
561.882	0.0031
562.076	0.007
562.2699	0.0032
562.4639	0.0034
562.6578	0.0047
562.8517	-0.0037
563.0456	0.0008
563.2395	0.0036
563.4333	0.0062
563.6272	0.0022
563.821	0.0131
564.0148	-0.0128
564.2086	0.0043
564.4024	-0.0046
564.5961	-0.0005
564.7899	-0.0009
564.9836	0.002
565.1773	0.0076
565.371	0.01
565.5647	-0.0017
565.7584	0.0009
565.952	-0.0076
566.1456	0.0065
566.3393	0.0093
566.5329	-0.0024
566.7264	0.0031
566.92	0.002
567.1136	0.0043
567.3071	0.0039
567.5006	0.0025
567.6941	0.0107
567.8876	0.0022
568.0811	-0.0009
568.2745	-0.0023
568.468	0.0018
568.6614	0.0017
568.8548	-0.0008
569.0482	0.0023
569.2416	-0.0023
569.4349	-0.0012
569.6283	0.0021
569.8216	0.001
570.0149	0.002
570.2082	-0.0028
570.4015	0.0021
570.5947	-0.0043
570.788	-0.0019
570.9812	-0.0027
571.1744	0.0017
571.3676	-0.0016
571.5608	-0.0003
571.754	-0.0012
571.9471	-0
572.1402	-0.0008
572.3333	-0.0006
572.5264	0.0014
572.7195	0.0064
572.9126	-0.0025
573.1057	-0.0019
573.2987	0.0054
573.4917	-0.0017
573.6847	-0.0003
573.8777	0.0023
574.0707	-0.0015
574.2636	0.0021
574.4566	-0.0011
574.6495	0.0042
574.8424	0.0028
575.0353	-0.0022
575.2281	0.0034
575.421	0.0013
575.6138	-0.0029
575.8067	0.0046
575.9995	0.0019
576.1923	0.0071
576.385	0.006
576.5778	-0.0011
576.7706	0.0036
576.9633	0.0022
577.156	0.0018
577.3487	-0.0008
577.5414	0.0005
577.734	0.0034
577.9267	-0.0034
578.1193	0.0038
578.3119	-0.0017
578.5045	-0.0034
578.6971	0.002
578.8897	-0.001
579.0822	0.0049
579.2747	-0.0048
579.4673	0.0001
579.6598	-0.0051
579.8522	-0.0005
580.0447	-0.0056
580.2372	0.0092
580.4296	-0.0024
580.622	0.0012
580.8144	0.0024
581.0068	-0.0014
581.1992	0.0002
581.3915	-0.0007
581.5839	0.0026
581.7762	0.0001
581.9685	-0.0023
582.1608	0.002
582.353	-0.0017
582.5453	-0.0012
582.7375	0.0031
582.9298	0.0037
583.122	-0.0005
583.3142	0.004
583.5063	0.0004
583.6985	0.0003
583.8906	-0.0011
584.0827	0.0028
584.2749	0.0014
584.4669	-0.002
584.659	0.0051
584.8511	0.001
585.0431	0.0001
585.2352	-0.0034
585.4272	0.0025
585.6192	0.0009
585.8111	-0.0079
586.0031	0.0002
586.195	0.004
586.387	0.0027
586.5789	0.0055
586.7708	-0.0023
586.9627	0.0021
587.1545	-0.0014
587.3464	0.0035
587.5382	0.0006
587.73	0.0007
587.9218	0.0058
588.1136	-0.0026
588.3053	0.0001
588.4971	-0.0001
588.6888	0.0049
588.8805	0.0061
589.0722	0.0007
589.2639	0.0046
589.4556	-0.0058
589.6472	0.0028
589.8389	0.0003
590.0305	0.0014
590.2221	0.0017
590.4137	-0.0018
590.6052	0.0062
590.7968	0.0007
590.9883	0.0008
591.1798	-0.0053
591.3713	-0
591.5628	-0.0018
591.7543	-0.0002
591.9458	0.0002
592.1372	-0.0027
592.3286	0.0023
592.52	-0.0017
592.7114	-0.0034
592.9028	-0.0031
593.0941	-0.0043
593.2855	-0.0002
593.4768	0.0009
593.6681	-0.0011
593.8594	-0.0081
594.0506	0.0017
594.2419	-0.004
594.4331	-0.0038
594.6244	0.0026
594.8156	-0.0012
595.0067	0.0027
595.1979	-0.0037
595.3891	0.0001
595.5802	0.002
595.7713	0.0023
595.9624	0.0017
596.1535	0.0009
596.3446	0.0021
596.5357	-0.0008
596.7267	0.0052
596.9177	-0.0004
597.1087	0.0043
597.2997	0.0008
597.4907	0.0067
597.6817	0.0043
597.8726	0.0006
598.0635	0.0008
598.2544	-0.0029
598.4453	-0.0035
598.6362	-0.0067
598.827	0.0006
599.0179	0.0004
599.2087	-0.0025
599.3995	-0.0022
599.5903	0.0001
599.7811	0
599.9718	0.0038
600.1626	0.0004
600.3533	0.0001
600.544	0.0037
600.7347	-0.0005
600.9254	0.0061
601.116	0.0001
601.3067	0.0036
601.4973	0.003
601.6879	-0.003
601.8785	-0.0009
602.0691	0.0062
602.2596	0.0004
602.4502	0.0015
602.6407	0.0038
602.8312	0.0058
603.0217	0.0068
603.2122	0.0042
603.4027	-0.0015
603.5931	-0.0041
603.7835	0.0007
603.9739	0
604.1643	0.0036
604.3547	0.0001
604.5451	-0.0011
604.7354	-0.0079
604.9257	-0.0013
605.116	-0.0032
605.3063	-0.0013
605.4966	-0.0006
605.6869	0.0009
605.8771	0.0025
606.0673	-0.004
606.2575	0.0009
606.4477	0.0035
606.6379	0.0002
606.8281	-0.0063
607.0182	-0.0025
607.2083	0.0003
607.3985	0.0045
607.5885	-0.0002
607.7786	0.0073
607.9687	-0.0071
608.1587	-0.0031
608.3488	0.0047
608.5388	0.0052
608.7288	-0.0131
608.9187	0.0049
609.1087	-0.0072
609.2986	-0.0017
609.4886	0.0042
609.6785	0.0045
609.8684	-0.0061
610.0582	0.0001
610.2481	-0.0007
610.4379	0.0047
610.6278	-0.0066
610.8176	-0.0051
611.0074	0.0002
611.1971	-0.0018
611.3869	0.0033
611.5766	-0.0016
611.7664	0.0023
611.9561	0.0051
612.1458	-0.0012
612.3354	-0.0005
612.5251	-0.0039
612.7147	0.0036
612.9044	-0.0033
613.094	-0.0003
613.2836	-0.0117
613.4731	0.0004
613.6627	-0.0015
613.8522	-0.0011
614.0417	-0.002
614.2313	-0.0084
614.4207	0.0028
614.6102	-0.0022
614.7997	-0.0003
614.9891	-0.0003
615.1785	-0.0011
615.3679	0.006
615.5573	-0.0069
615.7467	-0.0019
615.9361	-0.0016
616.1254	-0.0047
616.3147	-0.0007
616.504	-0.0044
616.6933	-0.0013
616.8826	0.0058
617.0718	-0.0088
617.2611	-0.0048
617.4503	0.0052
617.6395	-0.0048
617.8287	0.0023
618.0179	-0.0067
618.207	-0.0002
618.3961	-0.0032
618.5853	0.0029
618.7744	0.0013
618.9634	0.0021
619.1525	-0.0031
619.3416	-0.0063
619.5306	-0.0033
619.7196	-0.0017
619.9086	0.0081
620.0976	0.0011
620.2866	0.013
620.4755	0.0134
620.6645	-0.007
620.8534	-0.0083
621.0423	-0.0001
621.2312	-0.0114
621.42	-0.0008
621.6089	-0.008
621.7977	-0.0086
621.9865	0.0109
622.1753	0.0063
622.3641	-0.0136
622.5529	-0.01
622.7416	-0.0034
622.9303	0.002
623.1191	-0.0037
623.3078	0.0053
623.4964	-0.0088
623.6851	0.013
623.8737	0.0062
624.0624	-0.0011
624.251	0.0031
624.4396	-0.0017
624.6282	0.0024
624.8167	0.0064
625.0053	-0.0031
625.1938	0.0013
625.3823	-0.0111
625.5708	0.0084
625.7593	0.0042
625.9477	0.0016
626.1362	-0.0037
626.3246	-0.0017
626.513	0.0005
626.7014	-0.0062
626.8898	0.0023
627.0781	0.0077
627.2665	0.0049
627.4548	0.002
627.6431	-0.005
627.8314	0.0009
628.0197	0.0173
628.2079	0.0016
628.3962	0.0101
628.5844	0.0006
628.7726	-0.0097
628.9608	-0.0041
629.1489	0.0011
629.3371	-0.0083
629.5252	0.0109
629.7134	0.0113
629.9015	0.0047
630.0895	-0.0065
630.2776	-0.0081
630.4657	0.0021
630.6537	0.0018
630.8417	-0.0111
631.0297	0.0027
631.2177	0.0077
631.4057	-0.0014
631.5936	0.0008
631.7815	0.0015
631.9695	0.0092
632.1574	-0.0123
632.3452	0.0032
632.5331	-0.0035
632.7209	0.018
632.9088	-0.0093
633.0966	0.0064
633.2844	0.0005
633.4722	-0.0017
633.6599	-0.0037
633.8477	0.001
634.0354	0.0095
634.2231	0.0197
634.4108	-0.006
634.5985	0.0199
634.7861	-0.0212
634.9738	0.0157
635.1614	0.007
635.349	-0.0107
635.5366	0.0029
635.7242	0.0008
635.9117	0.0174
636.0993	-0.0084
636.2868	-0.0056
636.4743	0.024
636.6618	-0.0025
636.8492	-0.0023
637.0367	0.0096
637.2241	0.0047
637.4115	0.0034
637.5989	0.0075
637.7863	-0.0166
637.9737	-0.0095
638.161	-0.0083
638.3484	0.0106
638.5357	-0.0069
638.723	0.003
638.9103	-0.0038
639.0975	0.0029
639.2848	0.0119
639.472	-0.0114
639.6592	0.0318
639.8464	0.0046
640.0336	0.017
640.2208	-0.0088
640.4079	0.0029
640.595	-0.0104
640.7821	-0.0045
640.9692	0.0021
641.1563	0.0068
641.3434	0.0193
641.5304	0.0061
641.7174	0.0046
641.9044	-0.0121
642.0914	-0.0217
642.2784	0.0124
642.4653	0.006
642.6523	0.0109
642.8392	0.0164
643.0261	-0.0014
643.213	0.0018
643.3999	-0.0156
643.5867	0.0048
643.7735	0.0159
643.9604	-0.0101
644.1472	-0.0029
644.3339	-0.005
644.5207	-0.0253
644.7075	0.0256
644.8942	0.0021
645.0809	-0.0058
645.2676	0.0017
645.4543	-0.0049
645.6409	-0.0251
645.8276	-0.0191
646.0142	0.0158
646.2008	-0.0025
646.3874	0.016
646.574	-0.0149
646.7605	-0.0083
646.9471	0.0163
647.1336	-0.0118
647.3201	-0.0033
647.5066	-0.0073
647.6931	0.0073
647.8795	0.0129
648.0659	-0.0008
648.2524	0.0056
648.4388	0.0058
648.6252	0.0016
648.8115	0.0227
648.9979	0.0129
649.1842	-0.0207
649.3705	0.0015
649.5568	-0.0191
649.7431	-0.0022
649.9294	-0.0105
650.1156	-0.0122
650.3018	0.0328
650.488	-0.0043
650.6742	0.0112
650.8604	-0.0043
651.0466	0.0101
651.2327	-0.0015
651.4188	-0.0151
651.6049	0.0046
651.791	0.0251
651.9771	-0.0068
652.1632	0.0173
652.3492	0.0061
652.5352	0.0055
652.7212	-0.0057
652.9072	-0.0014
653.0932	-0.0034
653.2791	-0.0027
653.465	-0.0057
653.651	0.0219
653.8369	0.0067
654.0227	-0.0105
654.2086	-0.0136
654.3944	-0.0085
654.5803	-0.0054
654.7661	-0.0053
654.9519	-0.001
655.1377	0.0003
655.3234	0.0003
655.5092	0.0003
655.6949	0.0003
655.8806	0.0003
656.0663	0.0003
656.2519	0.0003
656.4376	0.0003
656.6232	0.0003
656.8088	0.0003
656.9945	0.0003
657.18	0.0003
657.3656	0.0003
657.5511	0.0003
657.7367	0.0003
657.9222	0.0003
658.1077	0.0003
658.2932	0.0003
658.4786	0.0003
658.6641	0.0003
658.8495	0.0003
659.0349	0.0003
659.2203	0.0003
659.4057	0.0095
659.591	0.0593
659.7764	0.0069
659.9617	0.0031
660.147	0.0077
660.3323	-0.0055
660.5176	0.0045
660.7028	0.0104
660.888	0.0164
661.0733	-0.005
661.2585	-0.0005
661.4436	-0.0032
661.6288	0.0061
661.8139	0.0168
661.9991	-0.0077
662.1842	0.0211
662.3693	-0.0013
662.5544	0.0315
662.7394	0.0131
662.9245	0.0208
663.1095	-0.0077
663.2945	-0.0076
663.4795	-0.0089
663.6644	0.0086
663.8494	0.0254
664.0343	-0.0038
664.2193	-0.0079
664.4042	-0.0122
664.589	-0.0192
664.7739	-0.0119
664.9587	0.0085
665.1436	0.0119
665.3284	-0.0048
665.5132	0.0032
665.698	-0.0023
665.8827	0.0093
666.0675	-0.0097
666.2522	0.0216
666.4369	-0.0084
666.6216	0.0043
666.8063	-0.017
666.9909	0.0014
667.1756	0.0258
667.3602	-0.0277
667.5448	-0.004
667.7294	0.0044
667.9139	0.0107
668.0985	-0.0044
668.283	-0.0106
668.4675	-0.005
668.652	0.0098
668.8365	-0.0135
669.0209	-0.0048
669.2054	-0.0019
669.3898	0.001
669.5742	0.009
669.7586	0.0272
669.943	0.01
670.1273	0.0082
670.3117	-0.0047
670.496	0.0091
670.6803	0.0103
670.8646	0.0258
671.0488	-0.0043
671.2331	-0.0043
671.4173	0.0179
671.6015	-0.0079
671.7857	-0.0058
671.9699	0.0054
672.1541	-0.0043
672.3382	0.0119
672.5223	0.0058
672.7064	-0.022
672.8905	0.0159
673.0746	-0.0102
673.2587	0.0156
673.4427	0.0028
673.6267	-0.007
673.8107	-0.0089
673.9947	-0
674.1787	-0.0037
674.3626	0.0075
674.5465	0.0191
674.7304	-0.0122
674.9143	0.0096
675.0982	-0.0084
675.2821	0.0306
675.4659	-0.008
675.6497	0.0138
675.8335	-0.0156
676.0173	0.0207
676.2011	0.0259
676.3849	-0.0245
676.5686	0.0411
676.7523	0.0043
676.936	0.0025
677.1197	-0.0003
677.3034	0.0271
677.487	0.0118
677.6706	-0.0019
677.8542	0.0045
678.0378	0.0119
678.2214	0.0074
678.405	-0.0087
678.5885	-0.014
678.772	-0
678.9555	0.0221
679.139	-0.001
679.3225	-0.0092
679.5059	-0.0075
679.6894	-0.0104
679.8728	-0.0122
680.0562	0.0064
680.2395	-0.0128
680.4229	-0.0194
680.6062	-0.0092
680.7896	0.0041
680.9729	0.0099
681.1562	-0.0296
681.3394	-0.0052
681.5227	-0.0383
681.7059	-0.001
681.8891	0.0038
682.0723	-0.0195
682.2555	0.0278
682.4387	0.0003
682.6218	-0.0237
682.805	0.0012
682.9881	-0.0108
683.1712	0.013
683.3542	-0.0058
683.5373	0.0097
683.7203	0.0055
683.9034	0.0143
684.0864	0.0083
684.2694	0.0189
684.4523	-0.001
684.6353	-0.0009
684.8182	0.0025
685.0011	-0.012
685.184	0.0014
685.3669	-0.0002
685.5498	-0.0034
685.7326	-0.0059
685.9154	0.0197
686.0982	-0.0004
686.281	-0.002
686.4638	0.0193
686.6465	-0.0013
686.8293	0.0073
687.012	-0.0069
687.1947	0.0194
687.3774	-0.0131
687.56	0.0181
687.7427	-0.0003
687.9253	0.0071
688.1079	-0.0035
688.2905	-0.0043
688.4731	0.0349
688.6556	0.0079
688.8382	0.01
689.0207	0.0035
689.2032	-0.0246
689.3857	-0.018
689.5681	-0.0182
689.7506	-0.0059
689.933	-0.0118
690.1154	0.0036
690.2978	-0.01
690.4802	0.0275
690.6626	-0.0091
690.8449	-0.0075
691.0272	-0.0276
691.2095	-0.0069
691.3918	-0.0106
691.5741	0.0046
691.7563	0.0163
691.9386	-0.0126
692.1208	-0.0049
692.303	-0.011
692.4852	0.0082
692.6673	-0.001
692.8495	0.0018
693.0316	-0.0245
693.2137	0.0308
693.3958	0.0225
693.5778	-0.0072
693.7599	-0.0177
693.9419	-0.0096
694.1239	-0.0326
694.3059	-0.011
694.4879	-0.015
694.6699	0.0184
694.8518	0.0103
695.0337	-0.0017
695.2157	-0.0182
695.3975	0.0042
695.5794	-0.013
695.7613	0.05
695.9431	-0.0092
696.1249	0.0007
696.3067	-0
696.4885	-0.0134
696.6703	-0.0045
696.852	-0.0074
697.0337	-0.0101
697.2154	0.0052
697.3971	0.0197
697.5788	0.029
697.7605	-0.0114
697.9421	-0.0028
698.1237	-0.0081
698.3053	0.007
698.4869	0.0099
698.6685	-0.0102
698.85	0.0035
699.0315	-0.0126
699.213	-0.001
699.3945	0.0315
699.576	-0.0043
699.7575	-0.0143
699.9389	-0.0067
700.1203	-0.0225
700.3017	0.0004
700.4831	-0.0064
700.6645	0.0134
700.8458	0.0067
701.0271	0.0238
701.2084	-0.0375
701.3897	0.0109
701.571	0.0137
701.7523	-0.0051
701.9335	0.0304
702.1147	-0.0022
702.2959	0.0033
702.4771	0.0183
702.6583	0.0033
702.8394	-0.003
703.0205	0.0042
703.2016	-0.0032
703.3827	0.0097
703.5638	0.0158
703.7449	0.0102
703.9259	-0.0048
704.1069	-0.0126
704.2879	0.0245
704.4689	0.0035
704.6499	-0.0278
704.8308	-0.0005
705.0117	-0.0171
705.1927	0.0124
705.3735	0.046
705.5544	-0.0051
705.7353	0.0364
705.9161	0.0158
706.0969	-0.0006
706.2777	-0.0054
706.4585	-0.0053
706.6393	-0.0115
706.82	-0.0186
707.0007	-0.0033
707.1815	0.0193
707.3621	-0.0072
707.5428	0.0152
707.7235	0.0161
707.9041	-0.0033
708.0847	-0.0075
708.2653	-0.0095
708.4459	0.0079
708.6265	0.0069
708.807	0.0088
708.9875	-0.0159
709.168	0.0018
709.3485	-0.007
709.529	0.0068
709.7095	-0.009
709.8899	0.0199
710.0703	0.0085
710.2507	-0.0019
710.4311	-0.0098
710.6115	0.0036
710.7918	-0.0233
710.9721	0.0073
711.1524	-0.01
711.3327	-0.0219
711.513	-0.0004
711.6932	-0.0307
711.8735	0.0218
712.0537	-0.0129
712.2339	0.0156
712.4141	0.0083
712.5942	0.0018
712.7744	0.0289
712.9545	0.0083
713.1346	0.0145
713.3147	0.0064
713.4947	-0.0165
713.6748	-0.0016
713.8548	-0.0095
714.0348	0.0049
714.2148	-0.013
714.3948	0.0116
714.5748	-0.0146
714.7547	0.0044
714.9346	-0.0007
715.1145	0.0058
715.2944	0.0162
715.4743	-0.0024
715.6541	-0.0009
715.834	-0.0018
716.0138	0.0247
716.1936	-0.0277
716.3733	0.0149
716.5531	0.0043
716.7328	0.004
716.9126	-0.0196
717.0923	0.0255
717.2719	-0.0238
717.4516	-0.024
717.6312	-0.0198
717.8109	0.0041
717.9905	0.0018
718.1701	-0.0103
718.3496	0.0153
718.5292	-0.0112
718.7087	-0.0011
718.8882	0.0189
719.0677	-0.0023
719.2472	0.0246
719.4267	0.0126
719.6061	-0.0117
719.7856	-0.0068
719.965	0.008
720.1443	-0.013
720.3237	0.0341
720.5031	0.0019
720.6824	0.0157
720.8617	0.0157
721.041	0.0078
721.2203	0.0128
721.3995	-0.0087
721.5788	-0.0024
721.758	0.0242
721.9372	-0.0161
722.1164	0.0034
722.2956	0.0044
722.4747	0.0076
722.6538	0.0179
722.8329	0.0043
723.012	0.0299
723.1911	0.0141
723.3702	-0.0265
723.5492	-0.0022
723.7282	-0.0009
723.9072	-0.0426
724.0862	-0.0046
724.2652	-0.0059
724.4441	0.0053
724.623	-0.0101
724.8019	-0.0015
724.9808	0.0011
725.1597	0.0124
725.3385	-0.0205
725.5174	0.0315
725.6962	0.0373
725.875	0.0242
726.0538	0.0075
726.2325	0.0136
726.4112	0.0279
726.59	0.0019
726.7687	0.0189
726.9474	-0.0084
727.126	-0.0209
727.3047	0.0055
727.4833	0.0308
727.6619	0.0372
727.8405	0.0162
728.0191	-0.0597
728.1976	-0.0429
728.3762	-0.002
728.5547	0.0303
728.7332	-0.0092
728.9116	-0.0235
729.0901	0.0224
729.2686	-0.007
729.447	-0.0154
729.6254	0.0336
729.8038	0.0019
729.9821	0.0149
730.1605	-0.0247
730.3388	0.0005
730.5171	-0.0045
730.6954	0.0405
730.8737	0.0232
731.0519	0.0133
731.2302	-0.0025
731.4084	0.0025
731.5866	-0.0152
731.7648	-0.0053
731.9429	-0.0207
732.1211	-0.028
732.2992	-0.0012
732.4773	-0.0047
732.6554	0.0014
732.8335	0.0069
733.0115	-0.0127
733.1896	-0.0197
733.3676	-0.0049
733.5456	0.0174
733.7235	0.0076
733.9015	-0.0025
734.0794	-0.0016
734.2574	-0.0007
734.4353	-0.0119
734.6131	0.0154
734.791	0.0152
734.9689	-0.0006
735.1467	0.0022
735.3245	0.0161
735.5023	0.0106
735.68	-0.0091
735.8578	-0.0042
736.0355	0.0052
736.2132	-0.0043
736.3909	-0.0128
736.5686	0.0118
736.7463	0.0017
736.9239	0.0073
737.1015	-0.0134
737.2791	-0.0033
737.4567	0.0291
737.6343	0.0106
737.8118	0.0119
737.9894	0.0233
738.1669	0.0157
738.3444	-0.0055
738.5218	0.0101
738.6993	0.0046
738.8767	-0.0013
739.0541	0.0042
739.2315	-0.0054
739.4089	0.0161
739.5863	0.0278
739.7636	0.0207
739.9409	-0.008
740.1182	0.0032
740.2955	-0.0132
740.4728	0.0062
740.65	-0.0107
740.8272	-0.0022
741.0044	0.0062
741.1816	0.0198
741.3588	0.029
741.5359	0.0099
741.7131	0.017
741.8902	-0.0035
742.0673	0.0102
742.2444	-0.0164
742.4214	0.0143
742.5985	0.0037
742.7755	0.0102
742.9525	-0.0027
743.1295	0.0096
743.3064	0.0162
743.4834	0.0031
743.6603	0.0031
743.8372	0.0067
744.0141	0.0005
744.191	0
744.3678	0.0045
744.5446	0.0157
744.7215	-0.0133
744.8982	0.0335
745.075	0.0149
745.2518	-0.001
745.4285	0.0042
745.6052	0.0479
745.7819	0.0166
745.9586	-0.0085
746.1353	-0.0105
746.3119	0.0119
746.4885	0.01
746.6651	-0.0131
746.8417	-0.0201
747.0183	0.0257
747.1948	-0.0027
747.3714	0.0329
747.5479	-0
747.7244	-0.0678
747.9008	0.0184
748.0773	0.0212
748.2537	0.0281
748.4301	0.0114
748.6065	-0.0325
748.7829	-0.0036
748.9593	0.0125
749.1356	-0.0028
749.3119	-0.0312
749.4882	0.0016
749.6645	0.0277
749.8408	-0.0204
750.017	0.0029
750.1933	0.0401
750.3695	0.0186
750.5457	-0.0139
750.7218	-0.0028
750.898	-0.0367
751.0741	0.0093
751.2502	0.007
751.4263	-0.0058
751.6024	0.0389
751.7784	-0.0332
751.9545	-0.0228
752.1305	0.0039
752.3065	0.0256
752.4825	-0.0182
752.6584	-0.0125
752.8344	0.0062
753.0103	-0.0302
753.1862	-0.0007
753.3621	-0.0199
753.5379	-0.0055
753.7138	-0.011
753.8896	0.0396
754.0654	-0.0084
754.2412	0.0076
754.417	0.0153
754.5927	0.0054
754.7685	-0.027
754.9442	-0.0058
755.1199	0.0074
755.2956	0.0173
755.4712	-0.0161
755.6469	-0.015
755.8225	0.0181
755.9981	-0.0026
756.1736	0.0245
756.3492	-0.0078
756.5248	-0.0238
756.7003	-0.0125
756.8758	-0.01
757.0513	0.0076
757.2267	-0.0148
757.4022	-0.0091
757.5776	-0.0168
757.753	-0.0077
757.9284	-0.0121
758.1038	-0.0219
758.2791	-0.0147
758.4545	-0.0067
758.6298	0.0039
758.8051	-0.0023
758.9803	-0.0099
759.1556	-0.012
759.3308	-0.0036
759.506	-0.0026
759.6812	-0.0024
759.8564	-0.0198
760.0316	0.0078
760.2067	-0.0124
760.3819	-0.0067
760.557	0.0026
760.732	0.017
760.9071	-0.0022
761.0821	0.0052
761.2572	0.0054
761.4322	-0.01
761.6072	-0.0094
761.7821	0.003
761.9571	0.0204
762.132	-0.0258
762.3069	0.0031
762.4818	0.0335
762.6567	0.0209
762.8316	0.0155
763.0064	-0.0337
763.1812	-0.0104
763.356	-0.0024
763.5308	-0.0003
763.7055	-0.0022
763.8803	-0.0207
764.055	-0.0013
764.2297	0.0005
764.4044	0.0102
764.579	-0.0197
764.7537	-0.0012
764.9283	-0.0278
765.1029	0.0031
765.2775	-0.0122
765.4521	0.0034
765.6266	-0.0178
765.8011	-0.0213
765.9756	0.0011
766.1501	0.0132
766.3246	-0.0158
766.4991	-0.001
766.6735	-0.0081
766.8479	-0.0049
767.0223	0.0408
767.1967	0.0086
767.371	-0.0148
767.5454	-0.0077
767.7197	-0.0083
767.894	-0.0088
768.0683	0.0101
768.2425	-0.0025
768.4168	0.0318
768.591	0.0278
768.7652	0.0135
768.9394	0.0149
769.1135	-0.018
769.2877	0.0281
769.4618	0.0247
769.6359	-0.0063
769.81	0.0009
769.984	-0
770.1581	0.0157
770.3321	-0.0091
770.5061	0.0224
770.6801	0.0164
770.8541	-0.014
771.028	0.0073
771.202	-0.0324
771.3759	0.0213
771.5498	-0.0173
771.7236	-0.0165
771.8975	-0.0197
772.0713	0.0131
772.2451	-0.0146
772.4189	-0.0075
772.5927	0.0046
772.7665	0.023
772.9402	0.0147
773.1139	-0.0143
773.2876	-0.0204
773.4613	-0.0035
773.635	0.0264
773.8086	0.0045
773.9822	0.007
774.1558	0.0203
774.3294	-0.0007
774.503	-0.0203
774.6765	0.0391
774.8501	0.0225
775.0236	0.0156
775.1971	-0.0162
775.3705	-0.004
775.544	0.0247
775.7174	-0.0054
775.8908	0.0253
776.0642	-0.0223
776.2376	-0.0419
776.4109	0.0669
776.5843	0.0009
776.7576	0.0184
776.9309	0.0638
777.1041	-0.0252
777.2774	-0.0164
777.4506	-0.0241
777.6238	0.0051
777.797	0.003
777.9702	0.0551
778.1434	0.0446
778.3165	-0.012
778.4896	-0.003
778.6627	0.0419
778.8358	0.0048
779.0089	-0.0029
779.1819	-0.0327
779.3549	0.0384
779.5279	0.0026
779.7009	-0.0156
779.8739	0.0137
780.0468	0.0155
780.2197	-0.0101
780.3926	-0.0111
780.5655	-0.0259
780.7384	0.0021
780.9112	0.0268
781.0841	-0.025
781.2569	0.0072
781.4297	0.0432
781.6024	0.0015
781.7752	-0.0127
781.9479	0.0022
782.1206	0.0213
782.2933	0.0006
782.466	-0.022
782.6386	0.0006
782.8113	0.0141
782.9839	0.0452
783.1565	-0.0118
783.329	0.0139
783.5016	-0.0257
783.6741	-0.0225
783.8466	-0.0419
784.0191	0.0663
784.1916	-0.0175
784.3641	-0.0098
784.5365	0.0442
784.7089	0.0172
784.8813	0.0211
785.0537	0.0089
785.2261	-0.0299
785.3984	-0.0284
785.5707	0.0165
785.743	-0.0314
785.9153	0.0162
786.0876	-0.0126
786.2598	0.0162
786.432	-0.0144
786.6042	0.0675
786.7764	0.0267
786.9486	0.0027
787.1207	-0.0101
787.2928	-0.0159
787.4649	0.0373
787.637	0.0295
787.8091	-0.0025
787.9811	0.0244
788.1532	0.0243
788.3252	-0.0103
788.4972	-0.0029
788.6691	0.0214
788.8411	-0.0153
789.013	0.0053
789.1849	0.0392
789.3568	0.0316
789.5287	-0.0243
789.7005	0.0275
789.8723	-0.0218
790.0442	-0.0309
790.2159	0.1002
790.3877	0.0681
790.5595	0.0754
790.7312	-0.0166
790.9029	-0.012
791.0746	0.0451
791.2463	-0.0119
791.4179	-0.0287
791.5896	-0.0289
791.7612	-0.0183
791.9328	-0.0654
792.1044	0.0125
792.2759	0.0532
792.4474	-0.0372
792.619	0.0976
792.7905	0.0197
792.9619	0.0316
793.1334	-0.0257
793.3048	0.0215
793.4762	-0.0509
793.6476	-0.0257
793.819	-0.0118
793.9904	0.0365
794.1617	-0.0144
794.333	-0.0142
794.5043	-0.0194
794.6756	0.0257
794.8469	0.0227
795.0181	0.0134
795.1893	-0.015
795.3605	-0.032
795.5317	-0.0239
795.7029	-0.0182
795.874	0.0315
796.0452	0.0273
796.2163	0.0594
796.3873	0.0566
796.5584	0.1248
796.7294	-0.0679
796.9005	-0.0666
797.0715	0.1205
797.2425	-0.0246
797.4134	0.0257
797.5844	0.1131
797.7553	0.0034
797.9262	0.0044
798.0971	-0.0229
798.2679	0.0523
798.4388	-0.0879
798.6096	-0.0273
798.7804	-0.0164
798.9512	0.017
799.122	0.0639
799.2927	-0.0694
799.4635	0.1127
799.6342	-0.0184
799.8049	0.0585
799.9755	0.0266
800.1462	0.0081
800.3168	0.0387
800.4874	0.1396
800.658	0.0897
800.8286	0.0265
800.9991	0.1352
801.1696	-0.0233
801.3402	-0.0389
801.5106	-0.0721
801.6811	0.1041
801.8516	-0.0019
802.022	0.0274
802.1924	-0.0555
802.3628	-0.0791
802.5332	-0.0075
802.7035	0.0662
802.8739	0.1786
803.0442	0.0384
803.2145	-0.0161
803.3847	0.0297
803.555	0.0256
803.7252	0.0257
803.8954	0.0812
804.0656	0.0015
804.2358	-0.023
804.4059	0.0684
804.5761	0.0869
804.7462	-0.041
804.9163	-0.0076
805.0864	0.0548
805.2564	0.0386
805.4264	0.0108
805.5965	0.0812
805.7665	0.1706
805.9364	-0.0473
806.1064	-0.0355
806.2763	0.0311
806.4462	0.0109
806.6161	0.0378
806.786	-0.001
806.9559	0.0903
807.1257	0.0097
807.2955	0.0524
807.4653	-0.0067
807.6351	-0.0361
807.8048	-0.0194
807.9746	-0.0691
808.1443	0.0423
808.314	0.0275
808.4837	-0.0383
808.6533	0.0289
808.8229	-0.0294
808.9926	0.0752
809.1622	0.0273
809.3317	0.0123
809.5013	0.1463
809.6708	0.0651
809.8403	0.047
810.0098	0.1107
810.1793	0.1087
810.3488	0.1394
810.5182	0.0707
810.6876	0.0649
810.857	0.04
811.0264	0.0411
811.1958	0.0294
811.3651	-0.0026
811.5344	0.0075
811.7037	0.0858
811.873	0.0729
812.0422	-0.0023
812.2115	-0.0069
812.3807	0.0121
812.5499	0.1117
812.7191	0.183
812.8882	0.0557
813.0574	-0.114
813.2265	0.0119
813.3956	0.075
813.5646	0.1239
813.7337	-0.1381
813.9027	0.0079
814.0718	0.0176
814.2407	-0.172
814.4097	0.0315
814.5787	0.0449
814.7476	0.0278
814.9165	-0.0141
815.0854	0.0851
815.2543	0.06
815.4232	-0.0676
815.592	0.0586
815.7608	0.0435
815.9296	0.0583
816.0984	0.1664
816.2671	0.092
816.4359	0.1027
816.6046	0.1238
816.7733	-0.0309
816.942	0.0916
817.1106	-0.2231
817.2793	-0.0619
817.4479	0.0085
817.6165	-0.0228
817.785	0.1833
817.9536	0.0848
818.1221	0.0159
818.2906	0.1651
818.4591	0.0357
818.6276	0.0607
818.7961	0.0295
818.9645	0.077
819.1329	0.2673
819.3013	0.1892
819.4697	0.1282
819.638	0.0918
819.8064	-0.0727
819.9747	0.1694
820.143	0.1444
820.3113	0.0678
820.4795	0.1554
820.6477	-0
820.816	0.0664
820.9842	-0.0447
821.1523	0.0653
821.3205	0.009
821.4886	-0.0039
821.6567	0.0106
821.8248	0.0604
821.9929	-0.0312
822.1609	0.3002
822.329	0.1025
822.497	0.0489
822.665	0.1435
822.833	0.0572
823.0009	-0.0308
823.1688	0.0799
823.3367	-0.2066
823.5046	0.084
823.6725	0.0055
823.8404	-0.0808
824.0082	0.0797
824.176	0.1233
824.3438	0.1326
824.5116	0.1526
824.6793	-0
824.847	0.6091
825.0147	0.0048
825.1824	0.1016
825.3501	0.3464
825.5177	0.045
825.6854	0.1656
825.853	0.022
826.0206	0.065
826.1881	0.0465
826.3557	0.2759
826.5232	0.0401
826.6907	-0.0045
826.8582	0.0487
827.0257	-0.0161
827.1931	0.1081
827.3605	0.062
827.528	0.1306
827.6953	0.1424
827.8627	0.0784
828.03	0.3175
828.1974	-0.0318
828.3647	0.1582
828.532	0.162
828.6992	0.0065
828.8665	0.0753
829.0337	0.1582
829.2009	0.2013
829.3681	0.0511
829.5352	0.2198
829.7024	0.6411
829.8695	-0.0693
830.0366	0.206
830.2037	0.2104
830.3707	-0.0437
830.5378	0.2186
830.7048	-0.0524
830.8718	-0.0608
831.0388	0.2281
831.2057	0.0438
831.3727	0.039
831.5396	-0.1551
831.7065	-0
831.8734	-0.5097
832.0402	0.037
832.2071	0.7388
832.3739	0.8077
832.5407	-0
832.7075	0.6087
832.8742	0.1949
833.041	-0.1456
833.2077	0.2892
833.3744	0.051
833.541	-0.0119
833.7077	0.1551
833.8743	0.1577
834.0409	-0.0401
834.2075	0.0519
834.3741	0.1963
834.5407	-0.2775
834.7072	0.1089
834.8737	0.1875
835.0402	1.8865
835.2067	0.3438
835.3731	0.4201
835.5395	-0.0301
835.706	0.0857
835.8723	-0.0067
836.0387	1.4624
836.2051	0.736
836.3714	0.3414
836.5377	0.1979
836.704	0.2023
836.8703	-0.1212
837.0365	0.0943
837.2027	-0.1052
837.3689	0.8138
837.5351	-0.2012
837.7013	0.2717
837.8674	-0.4597
838.0335	0.118
838.1997	-0
838.3657	0.375
838.5318	-0.0497
838.6978	-0
838.8639	0.5894
839.0299	0.4588
839.1958	0.2791
839.3618	-0
839.5277	0.2132
839.6937	-0.4199
839.8596	0.1866
840.0254	0.4796
840.1913	0.4749
840.3571	-0.1926
840.523	0.6774
840.6888	0.0645
840.8545	-0.0115
841.0203	-0.1357
841.186	0.2566
841.3517	0.4532
841.5174	0.1845
841.6831	0.1466
841.8488	0.3551
842.0144	-0
842.18	0.407
842.3456	0.9841
842.5112	-0.4484
842.6767	0.0836
842.8422	0.4322
843.0077	-0.081
843.1732	0.152
843.3387	-0
843.5042	0.3238
843.6696	0.7249
843.835	-0.1411
844.0004	0.347
844.1657	0.247
844.3311	-0
844.4964	0.5427
844.6617	-0
844.827	-0
844.9923	-0
845.1575	-0
845.3227	0.8737
845.4879	-0
845.6531	0.0331
845.8183	0.1942
845.9834	-0
846.1485	-0.1473
846.3136	0.1276
846.4787	-0
846.6438	0.5064
846.8088	-0
846.9738	-0
847.1388	0.5973
847.3038	0.6182
847.4687	-1.1016
847.6337	0.7756
847.7986	0.4237
847.9635	-0
848.1284	-0
848.2932	0.141
848.458	-0.1626
848.6228	-0
848.7876	-0
848.9524	-0
849.1172	-0.0932
849.2819	-0
849.4466	0.5061
849.6113	0.285
849.7759	-0
849.9406	-0
850.1052	-0
850.2698	-1.1875
850.4344	0.987
850.599	0.6662
850.7635	0.3718
850.928	0.3064
851.0925	-0.2935
851.257	-0
851.4215	0.1963
851.5859	0.2007
851.7503	-0.3536
851.9147	-0.5643
852.0791	0.0209
852.2434	0.2169
852.4078	0.4845
852.5721	0.483
852.7364	0.2993
852.9007	-0.2566
853.0649	0.3952
853.2291	0.5954
853.3934	-0
853.5575	-0.1709
853.7217	-0.2336
853.8859	-0
854.05	-0
854.2141	-0
854.3782	-0
854.5423	-0.6702
854.7063	2.2856
854.8703	0.2278
855.0343	0.3443
855.1983	-0.3208
855.3623	0.0509
855.5262	-0
855.6901	-0
855.854	0.2383
856.0179	-0
856.1818	-0
856.3456	-0
856.5094	-0
856.6732	-0.4241
856.837	0.5433
857.0008	-0
857.1645	-0
857.3282	2.1614
857.4919	1.1978
857.6556	-0
857.8192	-0.2105
857.9828	0.1641
858.1465	-0
858.31	-0.9542
858.4736	-0.1292
858.6372	0.4886
858.8007	-1.3402
858.9642	0.7123
859.1277	-0
859.2911	0.6542
859.4546	0.4978
859.618	0.1446
859.7814	-0
859.9448	-0.482
860.1081	-0
860.2715	-0
860.4348	-0
860.5981	-0
860.7614	-0.1197
860.9246	2.0531
861.0879	-0
861.2511	0.4988
861.4143	0.2198
861.5774	-0
861.7406	0.699
861.9037	-0
862.0668	-0
862.2299	-0
862.393	-0
862.556	-0
862.7191	0.2263
862.8821	0.483
863.0451	0.2231
863.208	-0
863.371	0.8179
863.5339	0.1397
863.6968	0.4597
863.8597	-0
864.0225	-0
864.1854	-0.4337
864.3482	-0
864.511	0.1745
864.6737	-0
864.8365	-0
864.9992	-0.3443
865.1619	0.1428
865.3246	-0.6326
865.4873	-0
865.65	-0.7249
865.8126	-0
865.9752	-0
866.1378	-0.882
866.3004	0.2642
866.4629	0.0836
866.6254	-1.3339
866.7879	-0
866.9504	-0
867.1129	1.0474
867.2753	-0.2348
867.4377	-0
867.6001	-0.1739
867.7625	-0.1518
867.9249	-0
868.0872	0.8665
868.2495	-0
868.4118	-0
868.5741	-0
868.7363	-0
868.8986	-0.7592
869.0608	0.4604
869.223	0.0666
869.3851	-0
869.5473	-1.4624
869.7094	-0
869.8715	-0
870.0336	0.0694
870.1957	-0
870.3577	-0.1499
870.5197	-0
870.6817	0.6463
870.8437	-0
871.0057	-0.2192
871.1676	0.1489
871.3295	0.9363
871.4914	-0
871.6533	-0
871.8151	-0
871.977	0.5618
872.1388	-0.9688
872.3006	-0
872.4623	-0.3612
872.6241	-0
872.7858	0.5705
872.9475	-0
873.1092	0.3989
873.2709	-0
873.4325	-0
873.5941	-0
873.7557	0.5863
873.9173	-0
874.0789	-0
874.2404	-0
874.4019	0.0943
874.5634	0.1963
874.7249	-0
874.8863	0.0527
875.0478	0.1523
875.2092	-0
875.3706	-0.0614
875.5319	-0.2278
875.6933	-0
875.8546	1.6532
876.0159	0.1402
876.1772	-0
876.3385	-0.4277
876.4997	-0
876.6609	-0.3378
876.8221	0.3704
876.9833	0.2856
877.1445	0.4883
877.3056	-0
877.4667	-0
877.6278	-0
877.7889	-0.0627
877.9499	-0
878.111	0.134
878.272	-0
878.433	-0.1074
878.5939	0.0424
878.7549	-0
878.9158	-0.8311
879.0767	-0
879.2376	0.699
879.3984	-0
879.5593	0.1526
879.7201	-0.0661
879.8809	-0
880.0417	0.636
880.2024	0.1553
880.3632	-0
880.5239	-0
880.6846	-0
880.8452	0.1678
881.0059	-0.4218
881.1665	1.2304
881.3271	-0.1115
881.4877	-0
881.6483	-1.5185
881.8088	0.7189
881.9693	2.3284
882.1298	2.3284
882.2903	2.3284
