Data from D4ACN5uM480nmA_Absorbance_12-07-59-720.txt Node
Date: Fri Feb 21 12:07:59 GMT 2025
User: LASERRRRR
Spectrometer: FLMT03099
Trigger mode: 0
Integration Time (sec): 1.500000E-2
Scans to average: 1
Electric dark correction enabled: true
Nonlinearity correction enabled: false
Boxcar width: 0
XAxis mode: Wavelengths
Number of Pixels in Spectrum: 3648
>>>>>Begin Spectral Data<<<<<
179.3399	0.0543
179.5586	0.0543
179.7771	0.0543
179.9957	-0.0723
180.2143	0.8751
180.4329	-0
180.6514	-0
180.8699	-0
181.0885	-0
181.307	0.2317
181.5255	0.0712
181.744	-0.4665
181.9625	-0.2255
182.181	-0.0635
182.3994	-0
182.6179	-0.2013
182.8363	0.1761
183.0547	-0
183.2732	0.1794
183.4916	0.3471
183.71	0.2658
183.9284	0.5495
184.1467	0.2504
184.3651	0.6532
184.5835	0.0938
184.8018	0.0232
185.0201	0.9339
185.2385	0.219
185.4568	0.4253
185.6751	0.228
185.8934	0.4354
186.1117	0.1425
186.3299	0.0744
186.5482	0.2557
186.7664	0.2891
186.9847	0.376
187.2029	0.31
187.4211	0.172
187.6393	0.2622
187.8575	0.212
188.0757	0.2972
188.2939	0.1743
188.512	0.3571
188.7302	0.0047
188.9483	0.2416
189.1665	0.5108
189.3846	0.0359
189.6027	0.2438
189.8208	0.2429
190.0389	0.641
190.257	0.2315
190.475	0.4796
190.6931	0.5049
190.9111	0.4331
191.1292	0.3677
191.3472	0.2961
191.5652	0.6375
191.7832	0.3793
192.0012	0.269
192.2192	0.2588
192.4371	0.408
192.6551	0.5398
192.873	0.4371
193.091	0.4063
193.3089	0.3724
193.5268	0.9341
193.7447	0.4491
193.9626	0.6573
194.1805	0.6671
194.3984	0.4181
194.6162	0.4669
194.8341	0.576
195.0519	0.462
195.2697	0.5757
195.4875	0.7129
195.7054	0.5049
195.9231	0.4661
196.1409	0.7656
196.3587	0.6437
196.5765	0.4946
196.7942	0.6993
197.012	0.5515
197.2297	0.5422
197.4474	0.7138
197.6651	0.5915
197.8828	0.648
198.1005	0.7093
198.3182	0.6518
198.5358	0.5861
198.7535	0.5906
198.9711	0.6254
199.1888	0.5968
199.4064	0.573
199.624	0.7036
199.8416	0.6645
200.0592	0.6683
200.2767	0.5897
200.4943	0.7034
200.7119	0.5529
200.9294	0.6467
201.1469	0.606
201.3645	0.6258
201.582	0.5995
201.7995	0.5982
202.017	0.5945
202.2344	0.6341
202.4519	0.6426
202.6694	0.6109
202.8868	0.6125
203.1042	0.6058
203.3217	0.5288
203.5391	0.5502
203.7565	0.5303
203.9739	0.5076
204.1913	0.516
204.4086	0.5632
204.626	0.5733
204.8433	0.5249
205.0607	0.561
205.278	0.529
205.4953	0.4899
205.7126	0.5045
205.9299	0.4475
206.1472	0.4899
206.3644	0.4729
206.5817	0.4727
206.7989	0.4982
207.0162	0.4765
207.2334	0.4419
207.4506	0.4635
207.6678	0.4448
207.885	0.4371
208.1022	0.4513
208.3194	0.4447
208.5365	0.4892
208.7537	0.4331
208.9708	0.4481
209.1879	0.4166
209.405	0.432
209.6222	0.4067
209.8392	0.4376
210.0563	0.4368
210.2734	0.4439
210.4905	0.4181
210.7075	0.443
210.9245	0.4183
211.1416	0.3997
211.3586	0.4235
211.5756	0.4231
211.7926	0.4013
212.0096	0.4275
212.2265	0.4002
212.4435	0.4248
212.6604	0.4085
212.8774	0.4197
213.0943	0.4259
213.3112	0.4042
213.5281	0.4376
213.745	0.4056
213.9619	0.4094
214.1788	0.4327
214.3956	0.425
214.6125	0.3896
214.8293	0.4131
215.0461	0.4277
215.2629	0.4243
215.4798	0.3978
215.6965	0.4033
215.9133	0.4249
216.1301	0.3954
216.3469	0.3912
216.5636	0.4135
216.7803	0.4278
216.9971	0.4182
217.2138	0.4222
217.4305	0.4328
217.6472	0.4231
217.8639	0.4152
218.0805	0.4366
218.2972	0.407
218.5138	0.4207
218.7305	0.4404
218.9471	0.4376
219.1637	0.4223
219.3803	0.4486
219.5969	0.4188
219.8135	0.4355
220.0301	0.4119
220.2466	0.4453
220.4632	0.4334
220.6797	0.4431
220.8962	0.4294
221.1127	0.4443
221.3292	0.4231
221.5457	0.4393
221.7622	0.4404
221.9787	0.4621
222.1951	0.4608
222.4116	0.4534
222.628	0.4528
222.8444	0.4544
223.0608	0.4549
223.2772	0.4641
223.4936	0.4565
223.71	0.4535
223.9264	0.4466
224.1427	0.4624
224.3591	0.471
224.5754	0.4626
224.7917	0.456
225.008	0.4579
225.2243	0.4574
225.4406	0.4565
225.6569	0.4864
225.8732	0.4602
226.0894	0.4779
226.3057	0.4582
226.5219	0.4734
226.7381	0.4761
226.9543	0.487
227.1705	0.4657
227.3867	0.4859
227.6029	0.4668
227.8191	0.4866
228.0352	0.4925
228.2513	0.4954
228.4675	0.4826
228.6836	0.4932
228.8997	0.5032
229.1158	0.4906
229.3319	0.4965
229.548	0.4987
229.764	0.5078
229.9801	0.5089
230.1961	0.5031
230.4121	0.5102
230.6282	0.5203
230.8442	0.5105
231.0602	0.5423
231.2761	0.5398
231.4921	0.5071
231.7081	0.5148
231.924	0.5269
232.14	0.5173
232.3559	0.5291
232.5718	0.5273
232.7877	0.5227
233.0036	0.5204
233.2195	0.5275
233.4353	0.5274
233.6512	0.5445
233.867	0.5432
234.0829	0.524
234.2987	0.5284
234.5145	0.5304
234.7303	0.5406
234.9461	0.5287
235.1619	0.5344
235.3776	0.5318
235.5934	0.5343
235.8091	0.5299
236.0249	0.5344
236.2406	0.5402
236.4563	0.5518
236.672	0.5341
236.8877	0.5493
237.1034	0.5265
237.319	0.5383
237.5347	0.5331
237.7503	0.5335
237.966	0.537
238.1816	0.5331
238.3972	0.5426
238.6128	0.5415
238.8284	0.5391
239.0439	0.5467
239.2595	0.534
239.475	0.5262
239.6906	0.5358
239.9061	0.5324
240.1216	0.5359
240.3371	0.5259
240.5526	0.5276
240.7681	0.5306
240.9836	0.5227
241.199	0.5209
241.4145	0.5067
241.6299	0.497
241.8453	0.4906
242.0607	0.4883
242.2761	0.4839
242.4915	0.4731
242.7069	0.4739
242.9223	0.4574
243.1376	0.4578
243.353	0.4522
243.5683	0.4401
243.7836	0.4303
243.9989	0.4219
244.2142	0.4186
244.4295	0.4135
244.6448	0.3997
244.86	0.3848
245.0753	0.3807
245.2905	0.3755
245.5057	0.372
245.721	0.3599
245.9362	0.3541
246.1514	0.3413
246.3665	0.3424
246.5817	0.3395
246.7969	0.3268
247.012	0.316
247.2271	0.3139
247.4423	0.3101
247.6574	0.3077
247.8725	0.2999
248.0876	0.2939
248.3026	0.2889
248.5177	0.2808
248.7328	0.2805
248.9478	0.2708
249.1628	0.2733
249.3779	0.2641
249.5929	0.2623
249.8079	0.2522
250.0228	0.2498
250.2378	0.2604
250.4528	0.25
250.6677	0.2459
250.8827	0.2384
251.0976	0.2347
251.3125	0.231
251.5274	0.2286
251.7423	0.231
251.9572	0.2226
252.172	0.2184
252.3869	0.223
252.6017	0.2186
252.8166	0.218
253.0314	0.2157
253.2462	0.214
253.461	0.2139
253.6758	0.2075
253.8906	0.2098
254.1053	0.2014
254.3201	0.2058
254.5348	0.2011
254.7496	0.2024
254.9643	0.2089
255.179	0.2056
255.3937	0.2006
255.6083	0.195
255.823	0.1985
256.0377	0.2032
256.2523	0.2032
256.467	0.2004
256.6816	0.1986
256.8962	0.197
257.1108	0.1971
257.3254	0.1909
257.54	0.195
257.7545	0.1961
257.9691	0.1904
258.1836	0.1953
258.3981	0.1871
258.6127	0.1802
258.8272	0.1918
259.0417	0.1841
259.2561	0.1887
259.4706	0.1908
259.6851	0.19
259.8995	0.1807
260.114	0.1869
260.3284	0.1826
260.5428	0.1824
260.7572	0.1924
260.9716	0.1875
261.186	0.1826
261.4003	0.1842
261.6147	0.1852
261.829	0.1763
262.0433	0.1838
262.2577	0.1883
262.472	0.1841
262.6863	0.1905
262.9005	0.1889
263.1148	0.1871
263.3291	0.1927
263.5433	0.1864
263.7576	0.1818
263.9718	0.1872
264.186	0.1838
264.4002	0.1822
264.6144	0.1858
264.8286	0.1902
265.0427	0.1902
265.2569	0.1881
265.471	0.1824
265.6851	0.1851
265.8993	0.1855
266.1134	0.1884
266.3275	0.19
266.5415	0.1855
266.7556	0.18
266.9697	0.1826
267.1837	0.1861
267.3978	0.1886
267.6118	0.1848
267.8258	0.1829
268.0398	0.1802
268.2538	0.1864
268.4677	0.1825
268.6817	0.1749
268.8957	0.1826
269.1096	0.1739
269.3235	0.188
269.5374	0.1779
269.7514	0.1845
269.9652	0.1772
270.1791	0.1759
270.393	0.1823
270.6068	0.1768
270.8207	0.1736
271.0345	0.1792
271.2483	0.1789
271.4622	0.1734
271.676	0.1753
271.8897	0.1706
272.1035	0.1688
272.3173	0.1723
272.531	0.1743
272.7448	0.1705
272.9585	0.1717
273.1722	0.1742
273.3859	0.1691
273.5996	0.1708
273.8133	0.1718
274.0269	0.1796
274.2406	0.1719
274.4542	0.1698
274.6679	0.166
274.8815	0.1734
275.0951	0.175
275.3087	0.1773
275.5223	0.1773
275.7358	0.1776
275.9494	0.1737
276.1629	0.1709
276.3765	0.1709
276.59	0.1736
276.8035	0.1777
277.017	0.171
277.2305	0.1806
277.444	0.1793
277.6574	0.1756
277.8709	0.1719
278.0843	0.181
278.2978	0.1778
278.5112	0.1851
278.7246	0.175
278.938	0.1808
279.1513	0.179
279.3647	0.1843
279.5781	0.1753
279.7914	0.1839
280.0047	0.1778
280.2181	0.1858
280.4314	0.1809
280.6447	0.1835
280.8579	0.1774
281.0712	0.1817
281.2845	0.1815
281.4977	0.1893
281.711	0.1858
281.9242	0.181
282.1374	0.1844
282.3506	0.1869
282.5638	0.1829
282.7769	0.183
282.9901	0.186
283.2033	0.1914
283.4164	0.1838
283.6295	0.1856
283.8426	0.1847
284.0557	0.1868
284.2688	0.1862
284.4819	0.1901
284.695	0.1907
284.908	0.1905
285.1211	0.1955
285.3341	0.1927
285.5471	0.1977
285.7601	0.1968
285.9731	0.1897
286.1861	0.1934
286.3991	0.1921
286.612	0.1958
286.825	0.1913
287.0379	0.1964
287.2508	0.1966
287.4637	0.194
287.6766	0.1989
287.8895	0.1898
288.1024	0.2016
288.3152	0.1932
288.5281	0.1963
288.7409	0.1984
288.9538	0.194
289.1666	0.197
289.3794	0.1995
289.5922	0.1945
289.8049	0.2045
290.0177	0.198
290.2304	0.1983
290.4432	0.1988
290.6559	0.1894
290.8686	0.203
291.0813	0.2047
291.294	0.2038
291.5067	0.2039
291.7194	0.1997
291.932	0.2057
292.1447	0.1986
292.3573	0.2042
292.5699	0.2057
292.7825	0.1999
292.9951	0.1935
293.2077	0.2013
293.4203	0.2038
293.6328	0.1997
293.8454	0.2023
294.0579	0.2025
294.2704	0.2024
294.4829	0.1953
294.6954	0.1991
294.9079	0.2078
295.1204	0.2001
295.3328	0.1994
295.5453	0.1974
295.7577	0.199
295.9701	0.2026
296.1825	0.1987
296.3949	0.2068
296.6073	0.2032
296.8197	0.2024
297.0321	0.203
297.2444	0.198
297.4567	0.2032
297.6691	0.1985
297.8814	0.2
298.0937	0.1989
298.306	0.2038
298.5182	0.2045
298.7305	0.2016
298.9428	0.197
299.155	0.1998
299.3672	0.204
299.5794	0.1974
299.7916	0.1992
300.0038	0.1948
300.216	0.1995
300.4282	0.1939
300.6403	0.1983
300.8525	0.2053
301.0646	0.1913
301.2767	0.1974
301.4888	0.1992
301.7009	0.2004
301.913	0.2064
302.125	0.1984
302.3371	0.1968
302.5491	0.1971
302.7612	0.1966
302.9732	0.1896
303.1852	0.1993
303.3972	0.2011
303.6092	0.1976
303.8211	0.1911
304.0331	0.1907
304.245	0.1955
304.457	0.1971
304.6689	0.1948
304.8808	0.1907
305.0927	0.1939
305.3046	0.1858
305.5164	0.187
305.7283	0.188
305.9401	0.1873
306.152	0.1818
306.3638	0.1816
306.5756	0.1854
306.7874	0.1831
306.9992	0.1805
307.2109	0.1721
307.4227	0.1713
307.6344	0.1775
307.8462	0.1715
308.0579	0.1726
308.2696	0.1628
308.4813	0.1598
308.693	0.169
308.9046	0.1566
309.1163	0.1564
309.328	0.1515
309.5396	0.1599
309.7512	0.1577
309.9628	0.1535
310.1744	0.1544
310.386	0.1498
310.5976	0.1468
310.8091	0.147
311.0207	0.1483
311.2322	0.1463
311.4437	0.1438
311.6552	0.1436
311.8667	0.1421
312.0782	0.1454
312.2897	0.1453
312.5012	0.1408
312.7126	0.1299
312.924	0.1339
313.1355	0.1315
313.3469	0.1281
313.5583	0.1303
313.7696	0.1263
313.981	0.1279
314.1924	0.1286
314.4037	0.1245
314.6151	0.1254
314.8264	0.1296
315.0377	0.1327
315.249	0.1184
315.4603	0.1215
315.6716	0.1259
315.8828	0.1224
316.0941	0.1214
316.3053	0.1252
316.5165	0.1221
316.7277	0.1299
316.9389	0.1184
317.1501	0.1189
317.3613	0.1192
317.5724	0.1218
317.7836	0.1167
317.9947	0.1178
318.2058	0.122
318.417	0.1112
318.6281	0.1169
318.8391	0.1204
319.0502	0.1094
319.2613	0.1151
319.4723	0.1188
319.6834	0.1197
319.8944	0.1203
320.1054	0.12
320.3164	0.1223
320.5274	0.1087
320.7383	0.1153
320.9493	0.1167
321.1602	0.1133
321.3712	0.1165
321.5821	0.1173
321.793	0.1136
322.0039	0.1202
322.2148	0.1199
322.4257	0.1202
322.6365	0.1135
322.8474	0.1161
323.0582	0.12
323.269	0.1148
323.4798	0.1178
323.6906	0.1185
323.9014	0.1176
324.1122	0.1162
324.3229	0.1209
324.5337	0.1234
324.7444	0.117
324.9551	0.1239
325.1658	0.1202
325.3765	0.1233
325.5872	0.1109
325.7979	0.1197
326.0085	0.1184
326.2192	0.1161
326.4298	0.1215
326.6404	0.118
326.851	0.1228
327.0616	0.1235
327.2722	0.1233
327.4828	0.113
327.6933	0.1214
327.9039	0.1201
328.1144	0.1196
328.3249	0.1207
328.5354	0.1159
328.7459	0.1196
328.9564	0.1204
329.1669	0.1215
329.3773	0.1199
329.5878	0.1234
329.7982	0.1207
330.0086	0.1214
330.219	0.1224
330.4294	0.1226
330.6398	0.1291
330.8502	0.1252
331.0605	0.12
331.2708	0.1218
331.4812	0.1252
331.6915	0.1236
331.9018	0.1193
332.1121	0.1293
332.3224	0.1251
332.5326	0.1324
332.7429	0.1228
332.9531	0.124
333.1633	0.1238
333.3735	0.1272
333.5837	0.1282
333.7939	0.1278
334.0041	0.1276
334.2143	0.1258
334.4244	0.1204
334.6346	0.1199
334.8447	0.127
335.0548	0.1252
335.2649	0.1295
335.475	0.1302
335.685	0.1284
335.8951	0.1316
336.1051	0.1306
336.3152	0.1308
336.5252	0.1256
336.7352	0.1198
336.9452	0.1359
337.1552	0.1246
337.3652	0.1273
337.5751	0.1269
337.7851	0.1252
337.995	0.1314
338.2049	0.135
338.4148	0.1357
338.6247	0.1347
338.8346	0.1327
339.0445	0.1374
339.2543	0.1403
339.4642	0.1341
339.674	0.1334
339.8838	0.1353
340.0936	0.1362
340.3034	0.1382
340.5132	0.1352
340.7229	0.1348
340.9327	0.1344
341.1424	0.1363
341.3522	0.1418
341.5619	0.1354
341.7716	0.1358
341.9813	0.1398
342.1909	0.1429
342.4006	0.14
342.6102	0.1417
342.8199	0.1395
343.0295	0.1449
343.2391	0.1468
343.4487	0.1517
343.6583	0.1473
343.8679	0.1479
344.0774	0.1432
344.287	0.1479
344.4965	0.1413
344.706	0.1414
344.9155	0.147
345.125	0.147
345.3345	0.1456
345.544	0.1434
345.7534	0.1484
345.9629	0.1548
346.1723	0.1508
346.3817	0.155
346.5911	0.1556
346.8005	0.1475
347.0099	0.1536
347.2193	0.1467
347.4286	0.1568
347.638	0.1587
347.8473	0.1544
348.0566	0.1629
348.2659	0.1568
348.4752	0.1555
348.6845	0.1614
348.8937	0.1594
349.103	0.1581
349.3122	0.1605
349.5214	0.1591
349.7306	0.1596
349.9398	0.1561
350.149	0.1622
350.3582	0.1583
350.5674	0.1661
350.7765	0.1599
350.9856	0.1655
351.1948	0.1557
351.4039	0.1675
351.613	0.1696
351.822	0.1718
352.0311	0.1644
352.2402	0.1751
352.4492	0.1691
352.6582	0.1702
352.8672	0.1665
353.0762	0.1735
353.2852	0.1745
353.4942	0.1706
353.7032	0.176
353.9121	0.1747
354.1211	0.1725
354.33	0.1767
354.5389	0.1783
354.7478	0.1805
354.9567	0.1779
355.1655	0.1801
355.3744	0.178
355.5833	0.1829
355.7921	0.1828
356.0009	0.1859
356.2097	0.192
356.4185	0.1852
356.6273	0.1761
356.8361	0.1931
357.0448	0.1863
357.2536	0.1842
357.4623	0.1876
357.671	0.1865
357.8797	0.1912
358.0884	0.1889
358.2971	0.1969
358.5057	0.1887
358.7144	0.208
358.923	0.1983
359.1316	0.1948
359.3402	0.2091
359.5488	0.1936
359.7574	0.2009
359.966	0.2066
360.1746	0.1994
360.3831	0.2032
360.5916	0.2097
360.8002	0.2161
361.0087	0.2131
361.2172	0.2172
361.4256	0.2022
361.6341	0.2173
361.8426	0.2093
362.051	0.2028
362.2594	0.2172
362.4678	0.2146
362.6762	0.2157
362.8846	0.2179
363.093	0.221
363.3014	0.2204
363.5097	0.2184
363.718	0.2335
363.9264	0.2251
364.1347	0.232
364.343	0.2324
364.5513	0.2293
364.7595	0.2286
364.9678	0.2391
365.176	0.2349
365.3842	0.2337
365.5925	0.2262
365.8007	0.2393
366.0089	0.2303
366.217	0.2349
366.4252	0.2407
366.6333	0.2429
366.8415	0.2336
367.0496	0.2382
367.2577	0.243
367.4658	0.2438
367.6739	0.255
367.882	0.2513
368.09	0.2477
368.2981	0.2424
368.5061	0.2523
368.7141	0.2524
368.9221	0.2494
369.1301	0.2505
369.3381	0.2568
369.5461	0.2546
369.754	0.2569
369.962	0.2588
370.1699	0.2562
370.3778	0.2567
370.5857	0.2612
370.7936	0.2597
371.0015	0.2678
371.2093	0.2696
371.4172	0.2604
371.625	0.2641
371.8328	0.263
372.0406	0.2594
372.2484	0.2684
372.4562	0.2717
372.664	0.2638
372.8717	0.2695
373.0795	0.2746
373.2872	0.2687
373.4949	0.2789
373.7026	0.2837
373.9103	0.2693
374.118	0.2676
374.3256	0.2871
374.5333	0.2731
374.7409	0.2723
374.9485	0.2838
375.1561	0.2819
375.3637	0.2699
375.5713	0.2754
375.7789	0.2787
375.9864	0.2869
376.194	0.2833
376.4015	0.2807
376.609	0.2848
376.8165	0.2952
377.024	0.2893
377.2315	0.2942
377.4389	0.2752
377.6464	0.2899
377.8538	0.2842
378.0612	0.2776
378.2686	0.2906
378.476	0.2936
378.6834	0.2907
378.8908	0.2989
379.0981	0.3031
379.3055	0.2947
379.5128	0.2974
379.7201	0.293
379.9274	0.2927
380.1347	0.3045
380.342	0.311
380.5492	0.2968
380.7565	0.2936
380.9637	0.2982
381.1709	0.3075
381.3781	0.3077
381.5853	0.3105
381.7925	0.3164
381.9997	0.3119
382.2068	0.3043
382.4139	0.3165
382.6211	0.3119
382.8282	0.311
383.0353	0.3076
383.2424	0.3061
383.4494	0.3131
383.6565	0.3035
383.8635	0.3217
384.0706	0.3105
384.2776	0.3203
384.4846	0.3176
384.6916	0.3021
384.8986	0.3241
385.1055	0.3153
385.3125	0.3083
385.5194	0.3135
385.7263	0.3064
385.9333	0.3148
386.1402	0.3261
386.347	0.3118
386.5539	0.3246
386.7608	0.3223
386.9676	0.3117
387.1744	0.3098
387.3813	0.3209
387.5881	0.3153
387.7948	0.3165
388.0016	0.3163
388.2084	0.3191
388.4151	0.3133
388.6219	0.3047
388.8286	0.3162
389.0353	0.3062
389.242	0.3103
389.4487	0.3145
389.6553	0.3136
389.862	0.3162
390.0686	0.3133
390.2753	0.2974
390.4819	0.3099
390.6885	0.3032
390.8951	0.313
391.1016	0.315
391.3082	0.3062
391.5147	0.3012
391.7213	0.3075
391.9278	0.3039
392.1343	0.2962
392.3408	0.29
392.5473	0.2915
392.7537	0.2989
392.9602	0.2841
393.1666	0.2955
393.373	0.2937
393.5794	0.2921
393.7858	0.2897
393.9922	0.289
394.1986	0.2846
394.4049	0.2843
394.6113	0.2874
394.8176	0.2687
395.0239	0.2878
395.2302	0.2653
395.4365	0.2735
395.6428	0.2884
395.8491	0.2754
396.0553	0.2776
396.2615	0.2745
396.4678	0.2749
396.674	0.2811
396.8802	0.2714
397.0863	0.2762
397.2925	0.2671
397.4987	0.2763
397.7048	0.2815
397.9109	0.2689
398.117	0.2648
398.3231	0.2785
398.5292	0.2717
398.7353	0.2645
398.9413	0.27
399.1474	0.2788
399.3534	0.2753
399.5594	0.2737
399.7654	0.271
399.9714	0.2721
400.1774	0.2742
400.3833	0.2785
400.5893	0.26
400.7952	0.2704
401.0011	0.2616
401.207	0.2681
401.4129	0.2597
401.6188	0.2641
401.8247	0.2635
402.0305	0.2629
402.2364	0.2674
402.4422	0.2742
402.648	0.2768
402.8538	0.2765
403.0596	0.2561
403.2654	0.2744
403.4711	0.2617
403.6768	0.2768
403.8826	0.2694
404.0883	0.2641
404.294	0.2734
404.4997	0.2572
404.7054	0.2619
404.911	0.2699
405.1167	0.2723
405.3223	0.2763
405.5279	0.2741
405.7335	0.2742
405.9391	0.2719
406.1447	0.2656
406.3502	0.273
406.5558	0.2682
406.7613	0.2679
406.9668	0.2779
407.1724	0.2664
407.3778	0.2644
407.5833	0.2701
407.7888	0.2786
407.9942	0.2632
408.1997	0.2654
408.4051	0.2677
408.6105	0.2675
408.8159	0.2669
409.0213	0.2741
409.2267	0.2652
409.432	0.284
409.6374	0.2677
409.8427	0.2722
410.048	0.2666
410.2533	0.2653
410.4586	0.278
410.6639	0.2686
410.8691	0.2791
411.0744	0.271
411.2796	0.2713
411.4848	0.2688
411.69	0.2754
411.8952	0.2688
412.1004	0.2731
412.3056	0.2665
412.5107	0.2676
412.7158	0.2679
412.921	0.2595
413.1261	0.2597
413.3312	0.2608
413.5362	0.2657
413.7413	0.2758
413.9464	0.2579
414.1514	0.2614
414.3564	0.2532
414.5614	0.2616
414.7664	0.2649
414.9714	0.2726
415.1764	0.2705
415.3813	0.259
415.5863	0.2594
415.7912	0.2654
415.9961	0.2649
416.201	0.2724
416.4059	0.2603
416.6108	0.2576
416.8156	0.2555
417.0205	0.264
417.2253	0.2582
417.4301	0.262
417.6349	0.257
417.8397	0.2714
418.0445	0.2635
418.2492	0.2573
418.454	0.2499
418.6587	0.2613
418.8634	0.2569
419.0681	0.254
419.2728	0.2553
419.4775	0.2569
419.6822	0.2529
419.8868	0.258
420.0915	0.2627
420.2961	0.2462
420.5007	0.2515
420.7053	0.2567
420.9099	0.2445
421.1144	0.2475
421.319	0.2412
421.5235	0.2502
421.728	0.2486
421.9325	0.2448
422.137	0.2477
422.3415	0.2381
422.546	0.2442
422.7504	0.2464
422.9549	0.2429
423.1593	0.2435
423.3637	0.2449
423.5681	0.2396
423.7725	0.2453
423.9769	0.2445
424.1812	0.2394
424.3856	0.2435
424.5899	0.2293
424.7942	0.2326
424.9985	0.2362
425.2028	0.2216
425.4071	0.227
425.6113	0.2293
425.8156	0.2327
426.0198	0.2323
426.224	0.2333
426.4282	0.225
426.6324	0.2254
426.8366	0.2208
427.0407	0.227
427.2449	0.2211
427.449	0.2097
427.6531	0.2293
427.8572	0.2189
428.0613	0.2087
428.2654	0.2095
428.4694	0.2188
428.6735	0.2202
428.8775	0.2179
429.0815	0.2073
429.2855	0.2067
429.4895	0.2055
429.6935	0.1975
429.8975	0.2094
430.1014	0.2092
430.3053	0.1968
430.5093	0.2025
430.7132	0.2021
430.9171	0.194
431.1209	0.1907
431.3248	0.1828
431.5286	0.1817
431.7325	0.1948
431.9363	0.1847
432.1401	0.1796
432.3439	0.1818
432.5477	0.186
432.7514	0.172
432.9552	0.1685
433.1589	0.1704
433.3627	0.1742
433.5664	0.1696
433.7701	0.1723
433.9737	0.1769
434.1774	0.1774
434.3811	0.1622
434.5847	0.1658
434.7883	0.158
434.9919	0.1578
435.1955	0.1586
435.3991	0.1578
435.6027	0.1506
435.8062	0.1482
436.0098	0.1521
436.2133	0.1519
436.4168	0.1543
436.6203	0.1391
436.8238	0.1568
437.0272	0.1435
437.2307	0.1319
437.4341	0.1366
437.6375	0.1306
437.841	0.1371
438.0443	0.1312
438.2477	0.1329
438.4511	0.1226
438.6545	0.1264
438.8578	0.1315
439.0611	0.1313
439.2644	0.1265
439.4677	0.1234
439.671	0.1142
439.8743	0.1214
440.0775	0.1182
440.2808	0.1171
440.484	0.107
440.6872	0.1033
440.8904	0.1079
441.0936	0.1156
441.2967	0.1016
441.4999	0.1125
441.703	0.1014
441.9062	0.1019
442.1093	0.1046
442.3124	0.1059
442.5155	0.0982
442.7185	0.0838
442.9216	0.0965
443.1246	0.0949
443.3276	0.0943
443.5307	0.0857
443.7337	0.0882
443.9366	0.0876
444.1396	0.0765
444.3426	0.0792
444.5455	0.0761
444.7484	0.0661
444.9513	0.0901
445.1542	0.0761
445.3571	0.072
445.56	0.0754
445.7628	0.0701
445.9657	0.0746
446.1685	0.0783
446.3713	0.0654
446.5741	0.061
446.7769	0.071
446.9797	0.0647
447.1824	0.0713
447.3852	0.0574
447.5879	0.0612
447.7906	0.0589
447.9933	0.069
448.196	0.0485
448.3986	0.0606
448.6013	0.0505
448.8039	0.0545
449.0066	0.0616
449.2092	0.0504
449.4118	0.0488
449.6143	0.0528
449.8169	0.057
450.0195	0.0467
450.222	0.0478
450.4245	0.0566
450.627	0.0467
450.8295	0.0347
451.032	0.0377
451.2345	0.0436
451.4369	0.0461
451.6394	0.0367
451.8418	0.0398
452.0442	0.0464
452.2466	0.043
452.449	0.0377
452.6513	0.0328
452.8537	0.0423
453.056	0.0501
453.2583	0.0306
453.4607	0.0392
453.663	0.0404
453.8652	0.0388
454.0675	0.0376
454.2697	0.0359
454.472	0.0294
454.6742	0.0274
454.8764	0.0308
455.0786	0.0283
455.2808	0.0301
455.4829	0.0246
455.6851	0.0292
455.8872	0.0358
456.0893	0.0318
456.2915	0.0261
456.4935	0.015
456.6956	0.0213
456.8977	0.0316
457.0997	0.0218
457.3018	0.0276
457.5038	0.0331
457.7058	0.0272
457.9078	0.0314
458.1098	0.0217
458.3117	0.0268
458.5137	0.0253
458.7156	0.0299
458.9175	0.0261
459.1194	0.0198
459.3213	0.0157
459.5232	0.0085
459.725	0.0205
459.9269	0.0198
460.1287	0.0135
460.3305	0.0137
460.5323	0.0189
460.7341	0.0159
460.9359	0.0149
461.1376	0.0131
461.3394	0.0126
461.5411	0.0258
461.7428	0.0196
461.9445	0.0164
462.1462	0.0232
462.3479	0.0132
462.5495	0.016
462.7512	0.0063
462.9528	0.0194
463.1544	0.0122
463.356	0.0275
463.5576	0.0091
463.7592	0.0095
463.9607	0.0053
464.1623	0.0161
464.3638	0.0076
464.5653	0.0156
464.7668	0.013
464.9683	0.0175
465.1697	0.0067
465.3712	0.0044
465.5726	0.0165
465.7741	0.0047
465.9755	0.0118
466.1769	0.0079
466.3782	0.0048
466.5796	0.0072
466.7809	0.0162
466.9823	0.007
467.1836	0.0183
467.3849	0.0185
467.5862	-0.0028
467.7875	0.0047
467.9887	0.0049
468.19	0.0078
468.3912	0.0133
468.5924	0.0217
468.7936	-0.0001
468.9948	0.021
469.196	0.0013
469.3972	0.0186
469.5983	0.0035
469.7994	0.0057
470.0006	0.0058
470.2017	0.0122
470.4027	-0.0004
470.6038	-0.0014
470.8049	-0.0044
471.0059	0.0093
471.2069	0.0195
471.408	0.0026
471.6089	0.0099
471.8099	0.0074
472.0109	0.0112
472.2119	0.0234
472.4128	0.0126
472.6137	0.0073
472.8146	0.0079
473.0155	0.0009
473.2164	0.0024
473.4173	0.0059
473.6181	0.0099
473.819	-0.0062
474.0198	0.0058
474.2206	0.0081
474.4214	0.0097
474.6222	0.0087
474.8229	0.005
475.0237	0.0028
475.2244	0.0087
475.4251	0.0005
475.6258	0.01
475.8265	0.0033
476.0272	0.0115
476.2278	0.0076
476.4285	0.0037
476.6291	0.0155
476.8297	0.0033
477.0303	0.01
477.2309	0.0042
477.4315	0.0098
477.632	0.0041
477.8326	0.0029
478.0331	0.0038
478.2336	0.0089
478.4341	0.0031
478.6346	0.0038
478.8351	0.0066
479.0355	0.0105
479.236	0.0045
479.4364	-0.003
479.6368	0.0087
479.8372	0.007
480.0376	-0.0006
480.2379	0.0035
480.4383	0.0054
480.6386	0.0003
480.8389	0.0015
481.0392	0.0071
481.2395	0.008
481.4398	0.011
481.6401	0.003
481.8403	0.0103
482.0405	-0.0018
482.2408	0.0044
482.441	0.0014
482.6411	-0.0022
482.8413	-0.0016
483.0415	0.0059
483.2416	0.0021
483.4417	0.0034
483.6419	0.0032
483.8419	-0.0004
484.042	0.0021
484.2421	0.0036
484.4422	0.0115
484.6422	0.0121
484.8422	0.0042
485.0422	0.006
485.2422	0.0024
485.4422	-0.0026
485.6422	0.0006
485.8421	-0.0021
486.042	0.006
486.242	0.0013
486.4419	-0.0004
486.6417	0.0025
486.8416	0.0037
487.0415	0.0032
487.2413	0.0032
487.4411	0.0024
487.641	0.0067
487.8408	0.0001
488.0405	0.0007
488.2403	-0.0006
488.4401	-0.0007
488.6398	0.0064
488.8395	0.0047
489.0392	0.0083
489.2389	0.0015
489.4386	0.0044
489.6383	0.0103
489.8379	0.0023
490.0376	0.0075
490.2372	-0.0026
490.4368	0.0088
490.6364	0.0098
490.836	0.0029
491.0355	0.0041
491.2351	0.0064
491.4346	0.0065
491.6341	-0.0014
491.8336	0.0004
492.0331	-0.0007
492.2326	-0.0023
492.432	-0.0032
492.6315	0.0036
492.8309	0.011
493.0303	-0.0079
493.2297	0.0019
493.4291	-0.0067
493.6284	0.0047
493.8278	0.0028
494.0271	0.0038
494.2264	0.0093
494.4257	0.0113
494.625	0.0008
494.8243	0.0057
495.0236	0.0017
495.2228	-0.004
495.422	0.0074
495.6213	0.003
495.8205	-0.0003
496.0196	0.0067
496.2188	0.0018
496.418	-0.0088
496.6171	0.0044
496.8162	0.0005
497.0153	0.0052
497.2144	0.0005
497.4135	0.0062
497.6126	-0.0078
497.8116	0.0042
498.0107	-0.0025
498.2097	0.0094
498.4087	0.0028
498.6077	0.0047
498.8067	0.0058
499.0056	0.0016
499.2046	0.0052
499.4035	0.0089
499.6024	-0.0029
499.8013	0.0104
500.0002	0.0115
500.199	0.0067
500.3979	0.0081
500.5967	0.0047
500.7956	0.0005
500.9944	0.0056
501.1932	0.0066
501.3919	0.0042
501.5907	-0.0007
501.7895	-0.0002
501.9882	0.0013
502.1869	0.0076
502.3856	-0.0007
502.5843	-0.0032
502.783	-0.0021
502.9816	-0.0035
503.1803	0.0057
503.3789	0.0024
503.5775	-0.0003
503.7761	0.0077
503.9747	0.007
504.1732	0.0088
504.3718	-0.0013
504.5703	-0.0012
504.7689	0.0015
504.9674	0.005
505.1658	0.0124
505.3643	-0.0035
505.5628	0.0113
505.7612	0.0113
505.9597	-0.0013
506.1581	-0.0054
506.3565	-0.0007
506.5549	0.0052
506.7532	0.0071
506.9516	0.0134
507.1499	0.0032
507.3482	0.0089
507.5465	-0.0047
507.7448	0.0098
507.9431	-0.0024
508.1414	0.0021
508.3396	0.0012
508.5379	0.0024
508.7361	0.0108
508.9343	0.004
509.1325	0.0079
509.3306	-0.0055
509.5288	0.0141
509.7269	0.0007
509.9251	0.0018
510.1232	-0.0021
510.3213	-0.0023
510.5193	0.0102
510.7174	-0.0063
510.9154	0.0065
511.1135	0.0009
511.3115	0.0039
511.5095	0.0028
511.7075	-0.0015
511.9055	0.0072
512.1034	0.0077
512.3014	-0.008
512.4993	-0.0049
512.6972	0.0017
512.8951	0.0073
513.093	0.0014
513.2908	-0.0008
513.4887	0.0088
513.6865	0.0003
513.8844	0.0057
514.0822	0.0028
514.2799	-0.0031
514.4777	0.0147
514.6755	0.0045
514.8732	-0.0023
515.0709	0.0145
515.2687	0.0076
515.4664	-0.0099
515.664	-0.0017
515.8617	0.0111
516.0594	0.0016
516.257	0.0037
516.4546	-0.0032
516.6522	-0.0051
516.8498	0.0018
517.0474	0.0022
517.2449	0.0016
517.4425	0.0137
517.64	0.0002
517.8375	0.0068
518.035	0.0044
518.2325	-0.0035
518.43	-0.0016
518.6274	-0.0131
518.8249	0.0076
519.0223	-0.0012
519.2197	-0.0041
519.4171	0.0091
519.6145	0.0019
519.8118	-0.0072
520.0092	0.0027
520.2065	0.0018
520.4038	0.0057
520.6011	0.0078
520.7984	0.008
520.9956	0.0021
521.1929	0.0069
521.3901	0.0055
521.5874	-0.0001
521.7846	-0.0007
521.9818	-0.0062
522.1789	0.0145
522.3761	0.0026
522.5732	0.0024
522.7704	0.0018
522.9675	0.0016
523.1646	0.0115
523.3617	0.0097
523.5587	0.003
523.7558	0.0078
523.9528	0.0144
524.1498	-0.0016
524.3468	-0.0037
524.5438	0.0056
524.7408	-0.013
524.9378	0.0037
525.1347	-0.0009
525.3316	0.0073
525.5285	0.0101
525.7254	0.0054
525.9223	-0.0006
526.1192	0.0093
526.316	-0.004
526.5129	0.0046
526.7097	-0.009
526.9065	0.0031
527.1033	-0.0063
527.3	0
527.4968	0.0017
527.6935	0.0033
527.8903	0.0074
528.087	0.001
528.2837	0.0029
528.4804	0.0045
528.677	0.0045
528.8737	-0.0014
529.0703	0.0036
529.2669	0.0034
529.4635	0.008
529.6601	-0.0007
529.8567	0.0046
530.0532	0.0027
530.2498	-0.0072
530.4463	-0.0008
530.6428	0.002
530.8393	0.0094
531.0358	0.0087
531.2322	0.0037
531.4287	0.0018
531.6251	0.0045
531.8215	0.0156
532.0179	-0.0026
532.2143	0.0102
532.4107	-0.0028
532.607	0.0109
532.8034	0.0006
532.9997	-0.0022
533.196	0.0055
533.3923	0.0015
533.5886	0.004
533.7848	-0.0091
533.9811	-0.0036
534.1773	0.006
534.3735	0.0107
534.5697	-0.0049
534.7659	0.0048
534.9621	0.0091
535.1582	0.001
535.3544	0.0146
535.5505	0.0108
535.7466	-0.0004
535.9427	0.0021
536.1387	0.0003
536.3348	0.0082
536.5308	0.009
536.7269	-0.0063
536.9229	0.0047
537.1189	-0.0089
537.3148	-0.0051
537.5108	0.0034
537.7068	-0.0066
537.9027	0.0063
538.0986	-0.0002
538.2945	0.0054
538.4904	0.0027
538.6863	0.0095
538.8821	0.0016
539.078	-0.0083
539.2738	-0.0075
539.4696	0.0155
539.6654	-0.0045
539.8611	0.0017
540.0569	0.0062
540.2526	0.001
540.4484	-0.0044
540.6441	0.0111
540.8398	-0.0059
541.0355	0.0017
541.2311	0.0061
541.4268	-0.0004
541.6224	0.0003
541.818	-0.008
542.0136	-0.0072
542.2092	-0.0023
542.4048	0.002
542.6003	0.0064
542.7959	0.0034
542.9914	-0.0033
543.1869	-0.0027
543.3824	0.0056
543.5779	0.0092
543.7734	-0.0048
543.9688	0.0025
544.1642	-0.0038
544.3596	0.0052
544.555	0.0065
544.7504	0.0124
544.9458	0.0084
545.1411	-0.0005
545.3365	0.0019
545.5318	0.0048
545.7271	0.009
545.9224	-0.0004
546.1177	0.0007
546.3129	-0.0129
546.5081	0.0016
546.7034	0.004
546.8986	0.0042
547.0938	-0.0066
547.289	-0.0017
547.4841	-0.0045
547.6793	0.0051
547.8744	-0.0061
548.0695	0.0015
548.2646	0.0005
548.4597	-0.0001
548.6548	0.0028
548.8498	0.001
549.0448	-0.0071
549.2399	-0.0045
549.4349	0.0118
549.6298	-0.0049
549.8248	-0.0007
550.0198	0.0181
550.2147	-0.0063
550.4096	0.0054
550.6045	0.0034
550.7994	0.0049
550.9943	0.0052
551.1892	0.001
551.384	0.0159
551.5788	0.0099
551.7737	-0.0065
551.9685	0.0138
552.1632	0.0078
552.358	0.0039
552.5528	0.0004
552.7475	-0.0045
552.9422	0.0067
553.1369	0.013
553.3316	-0.0124
553.5263	-0.0093
553.7209	0.0075
553.9156	0.0031
554.1102	-0.0004
554.3048	0.0017
554.4994	0.0078
554.694	0.0024
554.8885	0.0019
555.0831	0.0184
555.2776	-0.0032
555.4721	-0.0055
555.6666	0.0025
555.8611	-0.0051
556.0555	0.0083
556.25	-0.0007
556.4444	-0.008
556.6388	0.0023
556.8332	-0.0064
557.0276	0.0093
557.222	-0.0005
557.4163	0.0029
557.6107	0.0014
557.805	-0.0101
557.9993	0.0027
558.1936	0.0143
558.3879	0.0078
558.5821	-0.0043
558.7764	0.011
558.9706	-0.0036
559.1648	0.0093
559.359	0.0154
559.5532	-0.0039
559.7473	0.0026
559.9415	0.0054
560.1356	0.0144
560.3297	-0.001
560.5238	0.0057
560.7179	0.0062
560.9119	0.0156
561.106	-0.0028
561.3	-0.0014
561.494	0.0062
561.688	0.0014
561.882	0.0059
562.076	0.0062
562.2699	0.0029
562.4639	0.0048
562.6578	0.0142
562.8517	0.0001
563.0456	-0.0053
563.2395	0.0053
563.4333	0.0033
563.6272	0.0115
563.821	0.0016
564.0148	-0.0033
564.2086	0.0079
564.4024	-0.0043
564.5961	0.0077
564.7899	-0.008
564.9836	0.0114
565.1773	-0.0025
565.371	0.0086
565.5647	-0.0039
565.7584	0.0179
565.952	-0.0068
566.1456	0.0079
566.3393	0.0072
566.5329	-0.007
566.7264	0.0052
566.92	0.0066
567.1136	0.0033
567.3071	0.0029
567.5006	-0.0026
567.6941	-0.0001
567.8876	0.0015
568.0811	-0.009
568.2745	-0.0068
568.468	0.0044
568.6614	0.0014
568.8548	-0.004
569.0482	0
569.2416	0.0018
569.4349	0.0004
569.6283	0.0032
569.8216	-0.0006
570.0149	-0.0003
570.2082	-0.005
570.4015	0.0015
570.5947	-0.0013
570.788	-0.0024
570.9812	-0.006
571.1744	-0.0013
571.3676	-0.0012
571.5608	-0.007
571.754	-0.0018
571.9471	0.0061
572.1402	-0.0005
572.3333	0.0001
572.5264	0.0015
572.7195	0.01
572.9126	-0.0017
573.1057	0.0011
573.2987	0.0014
573.4917	-0.0045
573.6847	-0.0028
573.8777	0.0021
574.0707	0.0011
574.2636	0.0007
574.4566	0.001
574.6495	0.0017
574.8424	-0.0001
575.0353	-0.0017
575.2281	0.0014
575.421	-0.006
575.6138	-0.0021
575.8067	0.0029
575.9995	0.0032
576.1923	0.0016
576.385	0.0003
576.5778	0.0021
576.7706	0.0035
576.9633	0.0024
577.156	-0.0001
577.3487	0.0029
577.5414	-0.0016
577.734	0.0007
577.9267	-0.0036
578.1193	0.0054
578.3119	-0.0056
578.5045	-0.0021
578.6971	0.0007
578.8897	0.0002
579.0822	0.0027
579.2747	-0.0031
579.4673	-0.0006
579.6598	0.0015
579.8522	0.0036
580.0447	-0.0021
580.2372	0.003
580.4296	-0.0047
580.622	0.0043
580.8144	-0.0019
581.0068	0.0033
581.1992	0.0009
581.3915	-0.0006
581.5839	0.0003
581.7762	0.0042
581.9685	-0.0027
582.1608	0.001
582.353	-0.0011
582.5453	0.0004
582.7375	-0.0027
582.9298	-0.0002
583.122	-0.0024
583.3142	0.0021
583.5063	-0.0014
583.6985	0.0032
583.8906	-0.0009
584.0827	-0.0001
584.2749	0.0037
584.4669	0.0026
584.659	0.001
584.8511	0.0023
585.0431	0.0019
585.2352	-0.0032
585.4272	-0.0013
585.6192	0.0028
585.8111	-0.0048
586.0031	0.0016
586.195	0.0003
586.387	-0.0022
586.5789	0.0038
586.7708	-0.0007
586.9627	0.0038
587.1545	-0.0028
587.3464	0.0012
587.5382	0.0026
587.73	0.0019
587.9218	-0.0006
588.1136	0.0001
588.3053	-0.0011
588.4971	-0.0007
588.6888	0.0015
588.8805	0.0058
589.0722	-0.0004
589.2639	0.0012
589.4556	-0.0001
589.6472	-0.0007
589.8389	0.005
590.0305	-0.0003
590.2221	0.0098
590.4137	-0.0004
590.6052	0.0026
590.7968	0.0042
590.9883	-0.002
591.1798	-0.0005
591.3713	0.0004
591.5628	-0.0022
591.7543	0.0057
591.9458	-0.0015
592.1372	-0.0003
592.3286	-0.0036
592.52	0.0021
592.7114	-0.0042
592.9028	-0.0028
593.0941	-0.0019
593.2855	0.0038
593.4768	0.0018
593.6681	0.0017
593.8594	-0.0014
594.0506	0.0029
594.2419	-0.0041
594.4331	-0.0026
594.6244	0.0037
594.8156	-0.0033
595.0067	0.0045
595.1979	-0.0017
595.3891	-0.0013
595.5802	-0.0034
595.7713	0.002
595.9624	0.0008
596.1535	-0.0024
596.3446	-0.0001
596.5357	-0.002
596.7267	0.008
596.9177	0.0009
597.1087	-0.0082
597.2997	0.0042
597.4907	0.0025
597.6817	-0.0009
597.8726	0.0095
598.0635	0.0054
598.2544	-0.0032
598.4453	-0.0045
598.6362	-0.0035
598.827	0.0035
599.0179	0.0029
599.2087	-0.0051
599.3995	-0.0011
599.5903	0.0024
599.7811	-0.0021
599.9718	-0.0002
600.1626	-0.0063
600.3533	-0.0022
600.544	-0.0012
600.7347	-0.0006
600.9254	0.0016
601.116	-0.0046
601.3067	0.005
601.4973	0.0047
601.6879	-0.0013
601.8785	-0.0021
602.0691	0.0081
602.2596	0.0032
602.4502	0.0004
602.6407	0.0067
602.8312	0.0022
603.0217	0.004
603.2122	0.0016
603.4027	-0.0027
603.5931	-0.0019
603.7835	-0.0028
603.9739	-0.0025
604.1643	0.0001
604.3547	0.004
604.5451	0.0016
604.7354	-0.0052
604.9257	-0.0014
605.116	-0.0007
605.3063	-0.0038
605.4966	0.0017
605.6869	0.0016
605.8771	0.0003
606.0673	-0.0016
606.2575	-0.0039
606.4477	0.0062
606.6379	-0.0004
606.8281	-0.0071
607.0182	-0.0001
607.2083	-0.0012
607.3985	0.0065
607.5885	0.004
607.7786	0.0047
607.9687	-0.0016
608.1587	-0.0023
608.3488	-0.0055
608.5388	0.0014
608.7288	-0.0025
608.9187	0.0075
609.1087	-0.0033
609.2986	0.0006
609.4886	0.0059
609.6785	-0.0005
609.8684	-0.009
610.0582	0.0024
610.2481	-0.0021
610.4379	-0.001
610.6278	-0.0002
610.8176	-0.0057
611.0074	0.0022
611.1971	-0.001
611.3869	-0.0014
611.5766	-0.0008
611.7664	0.0047
611.9561	-0.0011
612.1458	0.0025
612.3354	0.0056
612.5251	0.0061
612.7147	0.0049
612.9044	0.003
613.094	0.0038
613.2836	-0.0029
613.4731	-0.0002
613.6627	0.0011
613.8522	0.001
614.0417	0.0064
614.2313	-0.0116
614.4207	0.0049
614.6102	0.0004
614.7997	0.003
614.9891	-0.0033
615.1785	-0.0047
615.3679	0.0049
615.5573	-0.0058
615.7467	-0.0013
615.9361	-0.0066
616.1254	-0.0036
616.3147	0.002
616.504	-0.0017
616.6933	-0.0023
616.8826	-0.0024
617.0718	-0.0027
617.2611	-0.0055
617.4503	-0.0015
617.6395	0.002
617.8287	0.0024
618.0179	-0.0086
618.207	-0.0053
618.3961	-0.0001
618.5853	0.0136
618.7744	0.0032
618.9634	0.0011
619.1525	0.0022
619.3416	-0.005
619.5306	0.0006
619.7196	-0.0024
619.9086	0.0097
620.0976	0.0042
620.2866	0.0059
620.4755	0.0191
620.6645	-0.0097
620.8534	-0.0013
621.0423	-0.0028
621.2312	-0.0078
621.42	-0.0056
621.6089	0.0032
621.7977	-0.0014
621.9865	0.0028
622.1753	0.0001
622.3641	-0.0112
622.5529	-0.0058
622.7416	-0.0002
622.9303	-0.0018
623.1191	-0.007
623.3078	-0.0051
623.4964	-0.0047
623.6851	0.0095
623.8737	0.0054
624.0624	-0.0003
624.251	-0.0023
624.4396	-0.0072
624.6282	0.0034
624.8167	0.0093
625.0053	-0.0023
625.1938	0.0079
625.3823	0.0006
625.5708	0.0037
625.7593	-0.003
625.9477	-0.0057
626.1362	0.0003
626.3246	-0.0018
626.513	0.0032
626.7014	-0.0039
626.8898	0.0014
627.0781	0.0067
627.2665	0.0026
627.4548	-0.0036
627.6431	0.0032
627.8314	0.0056
628.0197	0.0094
628.2079	-0.0039
628.3962	-0.0046
628.5844	0.0052
628.7726	0.0011
628.9608	0.0034
629.1489	0.008
629.3371	0.0012
629.5252	0.0087
629.7134	0.0158
629.9015	0.0019
630.0895	0.0088
630.2776	-0.006
630.4657	0.0092
630.6537	-0.0055
630.8417	0.0007
631.0297	0.0091
631.2177	0.0091
631.4057	-0.0024
631.5936	-0.0177
631.7815	-0.004
631.9695	0.0011
632.1574	0.0111
632.3452	0.0101
632.5331	-0.0011
632.7209	0.0236
632.9088	-0.0137
633.0966	0.0015
633.2844	0.0094
633.4722	0.0074
633.6599	-0.0226
633.8477	-0.0058
634.0354	0.0035
634.2231	0.0185
634.4108	0.0072
634.5985	0.0074
634.7861	0.011
634.9738	0.0023
635.1614	0.0138
635.349	-0.0125
635.5366	0.0048
635.7242	-0.0045
635.9117	0.0086
636.0993	0.003
636.2868	-0.0016
636.4743	0.0216
636.6618	-0.0095
636.8492	0.0061
637.0367	0.011
637.2241	-0.0095
637.4115	0.0037
637.5989	0.0148
637.7863	0.0035
637.9737	0.0035
638.161	-0.0046
638.3484	0.0165
638.5357	0.0051
638.723	-0.0065
638.9103	0.0075
639.0975	0.0182
639.2848	0.0166
639.472	-0.0119
639.6592	0.0189
639.8464	0.0198
640.0336	0.0172
640.2208	-0.0016
640.4079	0.0181
640.595	0.0054
640.7821	-0.013
640.9692	0.0168
641.1563	0.0101
641.3434	0.0105
641.5304	-0.006
641.7174	0.0195
641.9044	-0.0046
642.0914	0.005
642.2784	0.0169
642.4653	0.0146
642.6523	0.0009
642.8392	0.0099
643.0261	-0.0011
643.213	0.0079
643.3999	-0.0138
643.5867	0.0163
643.7735	0.0207
643.9604	-0.0014
644.1472	-0.0143
644.3339	-0.0063
644.5207	-0.0324
644.7075	-0.0198
644.8942	0.0242
645.0809	-0.0017
645.2676	-0.01
645.4543	-0.0117
645.6409	-0.0078
645.8276	-0.02
646.0142	0.0091
646.2008	0.0117
646.3874	0.0219
646.574	-0.0207
646.7605	0.0015
646.9471	0.0126
647.1336	-0.0055
647.3201	0.0193
647.5066	0.0028
647.6931	0.005
647.8795	0.0119
648.0659	-0.0177
648.2524	-0.0018
648.4388	0.0066
648.6252	-0.0074
648.8115	0.0122
648.9979	-0.0033
649.1842	-0.008
649.3705	0.0123
649.5568	-0.0098
649.7431	0.0117
649.9294	-0.0034
650.1156	-0.0105
650.3018	0.0318
650.488	-0.0088
650.6742	0.0084
650.8604	0.0047
651.0466	0.0174
651.2327	-0.0249
651.4188	-0.0153
651.6049	-0.0011
651.791	0.0211
651.9771	-0.0098
652.1632	0.0122
652.3492	0.0032
652.5352	0.0116
652.7212	-0.0016
652.9072	-0.0033
653.0932	0.0033
653.2791	-0.006
653.465	-0.0134
653.651	0.0085
653.8369	0.028
654.0227	-0.0011
654.2086	-0.0091
654.3944	-0.0183
654.5803	0.0074
654.7661	0.0016
654.9519	-0.0022
655.1377	0.0001
655.3234	0.0001
655.5092	0.0001
655.6949	0.0001
655.8806	0.0001
656.0663	0.0001
656.2519	0.0001
656.4376	0.0001
656.6232	0.0001
656.8088	0.0001
656.9945	0.0001
657.18	0.0001
657.3656	0.0001
657.5511	0.0001
657.7367	0.0001
657.9222	0.0001
658.1077	0.0001
658.2932	0.0001
658.4786	0.0001
658.6641	0.0001
658.8495	0.0001
659.0349	0.0001
659.2203	0.0001
659.4057	0.0182
659.591	0.0631
659.7764	0.0177
659.9617	-0.0012
660.147	-0.0094
660.3323	-0.012
660.5176	0.0086
660.7028	-0.0004
660.888	0.0044
661.0733	0.0029
661.2585	0.002
661.4436	0.004
661.6288	0.0133
661.8139	0.0168
661.9991	0.0058
662.1842	0.0222
662.3693	0.0244
662.5544	-0.0067
662.7394	0.0166
662.9245	0.0183
663.1095	0.0095
663.2945	0.0012
663.4795	0.0044
663.6644	-0.0032
663.8494	0.0109
664.0343	0.0016
664.2193	0.015
664.4042	-0.0111
664.589	-0.0131
664.7739	-0.0025
664.9587	-0.0097
665.1436	0.0191
665.3284	0.0165
665.5132	0.0061
665.698	-0.0292
665.8827	-0.0276
666.0675	-0.0116
666.2522	0.0041
666.4369	-0.0113
666.6216	-0.0085
666.8063	0.0032
666.9909	-0.0027
667.1756	0.03
667.3602	-0.0013
667.5448	-0.0037
667.7294	0.0014
667.9139	-0.0122
668.0985	-0.0072
668.283	0.0004
668.4675	-0.0007
668.652	-0.0239
668.8365	-0.0031
669.0209	-0.012
669.2054	0.025
669.3898	0.0307
669.5742	-0.0021
669.7586	0.0063
669.943	-0.0042
670.1273	-0.0043
670.3117	0.0022
670.496	0.0188
670.6803	0.0057
670.8646	0
671.0488	0.0068
671.2331	0.0204
671.4173	0.0048
671.6015	-0.0082
671.7857	-0.0206
671.9699	0.007
672.1541	0.0065
672.3382	0.0058
672.5223	-0.0041
672.7064	-0.0025
672.8905	-0.001
673.0746	-0.0034
673.2587	-0.0032
673.4427	-0.0081
673.6267	-0.0222
673.8107	-0.0003
673.9947	-0.0051
674.1787	0.0053
674.3626	0.0102
674.5465	0.0313
674.7304	-0.0184
674.9143	0.0178
675.0982	-0.0053
675.2821	0.0242
675.4659	-0.0226
675.6497	0.0093
675.8335	0.0093
676.0173	0.0012
676.2011	-0.0205
676.3849	0.0107
676.5686	0.0068
676.7523	0.0121
676.936	-0.0115
677.1197	0.006
677.3034	0.0047
677.487	0.0147
677.6706	-0.0112
677.8542	0.014
678.0378	0.0063
678.2214	0.0127
678.405	0.0307
678.5885	0.0067
678.772	-0.0041
678.9555	0.0073
679.139	-0.0206
679.3225	-0.0077
679.5059	0.0035
679.6894	-0.0195
679.8728	-0.0046
680.0562	0.0171
680.2395	-0.0031
680.4229	-0.006
680.6062	0.0062
680.7896	0.0216
680.9729	0.0054
681.1562	-0.0019
681.3394	-0.0128
681.5227	-0.005
681.7059	-0.0075
681.8891	0.0199
682.0723	0.0028
682.2555	0.0118
682.4387	0.007
682.6218	-0.005
682.805	0.0117
682.9881	-0.0022
683.1712	0.0168
683.3542	-0.0076
683.5373	0.0135
683.7203	0.0228
683.9034	0.0241
684.0864	-0.0085
684.2694	0.0194
684.4523	0.0063
684.6353	0.0013
684.8182	0.0064
685.0011	0.0102
685.184	0.0055
685.3669	0.0068
685.5498	0.0118
685.7326	-0.0105
685.9154	0.0067
686.0982	0.0226
686.281	-0.0059
686.4638	0.0015
686.6465	-0.0046
686.8293	0.0036
687.012	0.0011
687.1947	0.0176
687.3774	-0.0004
687.56	0.0078
687.7427	0.0024
687.9253	0.0202
688.1079	0.0268
688.2905	-0.0048
688.4731	0.0217
688.6556	-0.0097
688.8382	0.0123
689.0207	0.0046
689.2032	-0.0045
689.3857	-0.0037
689.5681	-0.0163
689.7506	0.0015
689.933	-0.0239
690.1154	0.003
690.2978	-0.0091
690.4802	0.0268
690.6626	0.0122
690.8449	-0.0337
691.0272	-0.0125
691.2095	0.0081
691.3918	-0.0007
691.5741	0.0167
691.7563	0.0209
691.9386	0.0044
692.1208	-0.0002
692.303	0.0018
692.4852	0.0178
692.6673	0.0052
692.8495	-0.0209
693.0316	-0.0055
693.2137	0.019
693.3958	0.0077
693.5778	-0.0212
693.7599	-0.0261
693.9419	0.0102
694.1239	-0.005
694.3059	-0.0187
694.4879	-0.0245
694.6699	0.014
694.8518	0.0078
695.0337	-0.0067
695.2157	-0.0128
695.3975	0.0016
695.5794	-0.0041
695.7613	0.0281
695.9431	-0.0262
696.1249	-0.0013
696.3067	-0.0034
696.4885	-0.0026
696.6703	0
696.852	-0.0068
697.0337	0.0025
697.2154	0.0254
697.3971	0.0159
697.5788	0.0134
697.7605	-0.0102
697.9421	0.0116
698.1237	0.0039
698.3053	0.004
698.4869	0.0156
698.6685	0.0147
698.85	0.0026
699.0315	0.0007
699.213	0.0061
699.3945	0.038
699.576	-0.004
699.7575	0.0028
699.9389	0.0024
700.1203	0.0071
700.3017	-0.027
700.4831	0.0032
700.6645	0.0188
700.8458	0.0208
701.0271	0.0042
701.2084	-0.0288
701.3897	0.02
701.571	-0.0125
701.7523	-0.0106
701.9335	0.0069
702.1147	-0.0068
702.2959	0.0249
702.4771	0.0031
702.6583	0.0175
702.8394	0.0251
703.0205	0.0014
703.2016	-0.0121
703.3827	0
703.5638	-0.0148
703.7449	0.0033
703.9259	-0.0143
704.1069	0.0199
704.2879	0.0448
704.4689	0.0197
704.6499	-0.0543
704.8308	0.0203
705.0117	-0.0176
705.1927	-0.001
705.3735	0.0204
705.5544	0.0339
705.7353	0.0079
705.9161	0.0082
706.0969	0.0139
706.2777	0.0168
706.4585	-0.011
706.6393	0.0081
706.82	-0.0153
707.0007	-0.0009
707.1815	0.0078
707.3621	0.012
707.5428	0.0072
707.7235	0.0261
707.9041	-0.0117
708.0847	-0.0051
708.2653	-0.0112
708.4459	0.0064
708.6265	-0.003
708.807	0.0046
708.9875	0.0097
709.168	0.0119
709.3485	0.0237
709.529	0.0264
709.7095	0.0088
709.8899	0.0373
710.0703	0.0072
710.2507	0.0098
710.4311	0.0166
710.6115	0.008
710.7918	0.0004
710.9721	0.0044
711.1524	0.0114
711.3327	-0.0063
711.513	0.0189
711.6932	-0.0323
711.8735	0.0046
712.0537	0.0133
712.2339	0.008
712.4141	0.0151
712.5942	-0.0135
712.7744	0.0119
712.9545	-0.001
713.1346	0.0072
713.3147	0.0128
713.4947	-0.0176
713.6748	-0.0016
713.8548	0.0078
714.0348	0.0155
714.2148	0.0009
714.3948	0.0134
714.5748	0.0025
714.7547	-0.0148
714.9346	0.0074
715.1145	0.0095
715.2944	-0.0003
715.4743	0.0029
715.6541	-0.0009
715.834	0.0134
716.0138	0.0461
716.1936	-0.0103
716.3733	0.0181
716.5531	0.022
716.7328	-0.0358
716.9126	-0.0205
717.0923	0.0179
717.2719	0.0134
717.4516	-0.0105
717.6312	-0.0073
717.8109	0.0402
717.9905	-0.005
718.1701	-0.0004
718.3496	-0.0132
718.5292	0.0119
718.7087	0.0204
718.8882	0.0132
719.0677	-0.0367
719.2472	0.0175
719.4267	0.0068
719.6061	-0.0033
719.7856	0.0149
719.965	0.0076
720.1443	0.002
720.3237	0.0382
720.5031	0.0197
720.6824	-0.0007
720.8617	0.0091
721.041	0
721.2203	0.0307
721.3995	-0.0156
721.5788	0.0124
721.758	0.0013
721.9372	-0.0036
722.1164	0.0337
722.2956	0.0147
722.4747	0.0475
722.6538	0.0193
722.8329	-0.0215
723.012	0.0147
723.1911	0.026
723.3702	-0.0214
723.5492	0.0072
723.7282	0.0069
723.9072	0.001
724.0862	-0.0131
724.2652	0
724.4441	0.0029
724.623	0.006
724.8019	0.0126
724.9808	-0.0046
725.1597	0.0175
725.3385	-0.0117
725.5174	0.0478
725.6962	0.0255
725.875	0.0142
726.0538	0.0127
726.2325	-0.01
726.4112	0.009
726.59	-0.0037
726.7687	0.0143
726.9474	-0.0222
727.126	-0.0352
727.3047	0.0231
727.4833	0.0269
727.6619	0.0256
727.8405	0.0119
728.0191	-0.0371
728.1976	-0.0351
728.3762	-0.0074
728.5547	0.0029
728.7332	0.0043
728.9116	-0.0353
729.0901	0.0139
729.2686	-0.0279
729.447	-0.0201
729.6254	0.037
729.8038	0.0095
729.9821	0.0242
730.1605	-0.0066
730.3388	-0.0021
730.5171	-0.0163
730.6954	0.0117
730.8737	0.0173
731.0519	0.0023
731.2302	0.0064
731.4084	0.0184
731.5866	-0.0198
731.7648	-0.0165
731.9429	0.0034
732.1211	-0.003
732.2992	0.0051
732.4773	-0.0132
732.6554	-0.0044
732.8335	0.0149
733.0115	-0.005
733.1896	-0.0021
733.3676	-0.0095
733.5456	0.0082
733.7235	0.0268
733.9015	-0.0081
734.0794	0.0017
734.2574	0.0189
734.4353	-0.0052
734.6131	0.0099
734.791	0.0178
734.9689	0.008
735.1467	0.0194
735.3245	0.0025
735.5023	0.0083
735.68	0.0076
735.8578	0.0117
736.0355	-0.003
736.2132	0.0024
736.3909	0.0006
736.5686	0.0099
736.7463	0
736.9239	0.0229
737.1015	-0.0079
737.2791	-0.0072
737.4567	-0.0106
737.6343	0.0004
737.8118	0.0108
737.9894	0.0036
738.1669	0.0109
738.3444	0.0107
738.5218	0.0292
738.6993	-0.0051
738.8767	-0.0137
739.0541	-0.0027
739.2315	0.0138
739.4089	0.0195
739.5863	-0.0086
739.7636	0.0139
739.9409	-0.004
740.1182	-0.0086
740.2955	-0.0454
740.4728	0.0282
740.65	-0.0107
740.8272	-0.0408
741.0044	0.0041
741.1816	0.0237
741.3588	-0.006
741.5359	0.0176
741.7131	0.0342
741.8902	0.0022
742.0673	0.0326
742.2444	-0.0092
742.4214	-0.004
742.5985	0.0075
742.7755	-0.0188
742.9525	0.0326
743.1295	-0.0309
743.3064	0.0039
743.4834	0.0135
743.6603	-0.012
743.8372	0.0024
744.0141	0.049
744.191	-0.0149
744.3678	0.011
744.5446	0.0087
744.7215	0.0075
744.8982	-0.0171
745.075	0.0005
745.2518	-0.0291
745.4285	0.009
745.6052	0.0114
745.7819	-0.009
745.9586	0.011
746.1353	0.0113
746.3119	0.0085
746.4885	-0.0022
746.6651	-0.0271
746.8417	-0.0205
747.0183	-0.0037
747.1948	-0.0142
747.3714	0.0528
747.5479	0.012
747.7244	-0.0575
747.9008	0.0465
748.0773	0.0271
748.2537	0.0341
748.4301	0.0135
748.6065	0.0044
748.7829	-0.0044
748.9593	-0.0136
749.1356	0.0004
749.3119	0.0007
749.4882	-0.0062
749.6645	0.0147
749.8408	-0.0161
750.017	-0.0022
750.1933	0.0244
750.3695	0.0149
750.5457	-0.0163
750.7218	0.0269
750.898	-0.0024
751.0741	0.0081
751.2502	0.0108
751.4263	0.0013
751.6024	0.0239
751.7784	-0.0416
751.9545	0.0021
752.1305	0.0134
752.3065	0.0533
752.4825	-0.0025
752.6584	-0.0081
752.8344	0.0044
753.0103	-0.0073
753.1862	-0.0062
753.3621	0.0007
753.5379	-0.0214
753.7138	-0.0338
753.8896	0.0031
754.0654	0.0022
754.2412	0.0336
754.417	-0.0113
754.5927	0.0022
754.7685	-0.0155
754.9442	0.0026
755.1199	0.0136
755.2956	0.0285
755.4712	-0.011
755.6469	-0.0077
755.8225	0.0094
755.9981	-0.0002
756.1736	0.0181
756.3492	-0.0325
756.5248	-0.0125
756.7003	-0.0206
756.8758	0.0018
757.0513	-0.0052
757.2267	-0.0089
757.4022	0.001
757.5776	-0.0162
757.753	-0.0147
757.9284	0.0102
758.1038	-0.0072
758.2791	-0.0008
758.4545	-0.0178
758.6298	-0.0028
758.8051	-0.0179
758.9803	-0.0157
759.1556	-0.0257
759.3308	0.0032
759.506	0.0107
759.6812	-0.0075
759.8564	-0.02
760.0316	0.0106
760.2067	-0.0076
760.3819	-0.0002
760.557	-0.0042
760.732	0.0182
760.9071	0.0119
761.0821	0.0034
761.2572	0.0009
761.4322	0.001
761.6072	0.0097
761.7821	0.0337
761.9571	-0.0216
762.132	-0.0125
762.3069	-0.0101
762.4818	0.023
762.6567	0.0137
762.8316	0.0224
763.0064	-0.0083
763.1812	-0.0154
763.356	0.0021
763.5308	-0.0177
763.7055	-0.0101
763.8803	-0.002
764.055	-0.0051
764.2297	-0.0146
764.4044	-0.0029
764.579	0.0102
764.7537	-0.0134
764.9283	-0.0326
765.1029	0.0083
765.2775	-0.01
765.4521	0.0122
765.6266	-0.0133
765.8011	-0.0043
765.9756	0.0324
766.1501	0.0308
766.3246	0.0029
766.4991	0.023
766.6735	-0.0227
766.8479	0.0387
767.0223	-0.0038
767.1967	0.0001
767.371	0.0233
767.5454	-0.01
767.7197	0.0031
767.894	-0.0121
768.0683	0.0027
768.2425	-0.005
768.4168	0.0357
768.591	-0.0028
768.7652	0.0054
768.9394	0.0166
769.1135	0.0062
769.2877	0.0205
769.4618	0.0252
769.6359	-0.0076
769.81	-0.0225
769.984	0.0131
770.1581	0.0154
770.3321	-0.0344
770.5061	0.0151
770.6801	0.015
770.8541	-0.0015
771.028	0.0218
771.202	-0.0016
771.3759	0.0089
771.5498	0.0022
771.7236	-0.0222
771.8975	-0.0327
772.0713	-0.0014
772.2451	0.006
772.4189	0.0286
772.5927	-0.0227
772.7665	0.028
772.9402	0.0153
773.1139	0.0074
773.2876	-0.0043
773.4613	0.0459
773.635	-0.0189
773.8086	-0.0106
773.9822	0.0288
774.1558	-0.0069
774.3294	-0.0599
774.503	0.0483
774.6765	0.037
774.8501	0.0324
775.0236	0.0382
775.1971	0.0128
775.3705	-0.0188
775.544	-0.0008
775.7174	0.0167
775.8908	0.0168
776.0642	0.0362
776.2376	-0.0237
776.4109	0.0241
776.5843	0.0073
776.7576	0.0462
776.9309	0.0143
777.1041	0.011
777.2774	0.0137
777.4506	0.0081
777.6238	-0.0075
777.797	-0.0262
777.9702	0.0551
778.1434	0.0268
778.3165	0.0074
778.4896	-0.0358
778.6627	0.0489
778.8358	-0.0128
779.0089	0.0107
779.1819	0.0219
779.3549	0.0275
779.5279	-0.0396
779.7009	0.0044
779.8739	0.008
780.0468	0.012
780.2197	-0.0191
780.3926	-0.0187
780.5655	-0.0024
780.7384	0.018
780.9112	0.003
781.0841	-0.0226
781.2569	-0.014
781.4297	0.0197
781.6024	0.0049
781.7752	-0.036
781.9479	0.0068
782.1206	0.0414
782.2933	0.0047
782.466	0.0275
782.6386	0.0069
782.8113	0.0332
782.9839	0.0093
783.1565	0.0278
783.329	0.0259
783.5016	-0.0053
783.6741	-0.0018
783.8466	-0.0339
784.0191	0.0052
784.1916	-0.0114
784.3641	0.0132
784.5365	0.0346
784.7089	0.0449
784.8813	0.0443
785.0537	0.0104
785.2261	0.0231
785.3984	0.0188
785.5707	0.0411
785.743	-0.0055
785.9153	0.0607
786.0876	-0.0337
786.2598	0.0208
786.432	0.0063
786.6042	0.0257
786.7764	0.0064
786.9486	0.0143
787.1207	0.0284
787.2928	0.033
787.4649	0.0065
787.637	0.0339
787.8091	-0.0208
787.9811	0.0214
788.1532	0.0331
788.3252	-0.0085
788.4972	-0.0478
788.6691	0.0389
788.8411	-0.0135
789.013	-0.009
789.1849	0.0086
789.3568	0.0585
789.5287	-0.0105
789.7005	0.0503
789.8723	-0.0477
790.0442	-0.0455
790.2159	0.071
790.3877	0.0399
790.5595	-0.002
790.7312	-0.0393
790.9029	-0.0099
791.0746	0.0365
791.2463	0.0056
791.4179	-0.0116
791.5896	-0.0054
791.7612	-0.0182
791.9328	-0.0163
792.1044	-0.0309
792.2759	0.0373
792.4474	-0.0465
792.619	0.0203
792.7905	0.0594
792.9619	0.028
793.1334	-0.0035
793.3048	-0.0307
793.4762	-0.0288
793.6476	-0.0235
793.819	0.005
793.9904	0.05
794.1617	0.0497
794.333	-0.0068
794.5043	0.0133
794.6756	0.077
794.8469	0.0188
795.0181	0.0218
795.1893	-0.023
795.3605	-0.0082
795.5317	0.0008
795.7029	0.0041
795.874	0.0245
796.0452	-0.0193
796.2163	0.0154
796.3873	0.0845
796.5584	0.0402
796.7294	-0.0071
796.9005	-0.0369
797.0715	0.0562
797.2425	-0.0205
797.4134	0.0392
797.5844	0.0565
797.7553	-0.037
797.9262	-0.0409
798.0971	-0.024
798.2679	0.0733
798.4388	-0.0486
798.6096	0.0437
798.7804	-0.0088
798.9512	0.0769
799.122	0.0346
799.2927	-0.0187
799.4635	0.1113
799.6342	0.0254
799.8049	0.0277
799.9755	0.0099
800.1462	-0.026
800.3168	0.0001
800.4874	0.0784
800.658	0.1126
800.8286	-0.0606
800.9991	0.0483
801.1696	0.0628
801.3402	0.0258
801.5106	-0.0245
801.6811	0.0002
801.8516	-0.0055
802.022	-0.0884
802.1924	-0.0797
802.3628	-0.0226
802.5332	0.0234
802.7035	0.0184
802.8739	0.0568
803.0442	0.0366
803.2145	-0.0212
803.3847	-0.0276
803.555	-0.0749
803.7252	0.0513
803.8954	-0.0043
804.0656	0.033
804.2358	0.0394
804.4059	0.0633
804.5761	0.0849
804.7462	-0.0459
804.9163	-0.1144
805.0864	0.0053
805.2564	-0.0144
805.4264	-0.0292
805.5965	0.0152
805.7665	0.0464
805.9364	-0.0282
806.1064	0.036
806.2763	0.0459
806.4462	0.0305
806.6161	-0.0158
806.786	0.062
806.9559	0.0858
807.1257	-0.0512
807.2955	0.0707
807.4653	-0.0119
807.6351	-0.0561
807.8048	-0.0163
807.9746	-0.0108
808.1443	0.1471
808.314	0.0453
808.4837	-0.0194
808.6533	-0.0406
808.8229	-0.0339
808.9926	0.0001
809.1622	0.0248
809.3317	-0.0567
809.5013	0.0369
809.6708	0.1295
809.8403	0.0418
810.0098	0.0813
810.1793	0.1443
810.3488	0.0455
810.5182	0.1208
810.6876	-0.0281
810.857	-0.0883
811.0264	-0.0177
811.1958	0.016
811.3651	0.0436
811.5344	0.0339
811.7037	-0.0594
811.873	0.1534
812.0422	0.0049
812.2115	0.1196
812.3807	0.0427
812.5499	0.0194
812.7191	0.0671
812.8882	-0.0783
813.0574	-0.1196
813.2265	0.0805
813.3956	0.0262
813.5646	-0.0047
813.7337	-0.1589
813.9027	0.018
814.0718	0.0624
814.2407	-0.065
814.4097	-0.0217
814.5787	0.0434
814.7476	0.1259
814.9165	0.0017
815.0854	0.081
815.2543	-0.0235
815.4232	-0.116
815.592	0.0812
815.7608	0.1026
815.9296	-0.0364
816.0984	0.1507
816.2671	0.1536
816.4359	0.0619
816.6046	-0.0493
816.7733	-0.0205
816.942	0.1034
817.1106	-0.0931
817.2793	-0.0837
817.4479	-0.0999
817.6165	0.045
817.785	-0.0793
817.9536	0.0457
818.1221	0.0181
818.2906	0.0486
818.4591	-0.0071
818.6276	0.0443
818.7961	0.1818
818.9645	0.071
819.1329	0.2915
819.3013	0.1105
819.4697	0.3663
819.638	0.117
819.8064	0.0045
819.9747	0.0303
820.143	0.0996
820.3113	-0.0688
820.4795	0.1632
820.6477	0.1873
820.816	0.0002
820.9842	0.0003
821.1523	0.1585
821.3205	0.0208
821.4886	-0.0018
821.6567	-0.0886
821.8248	0.034
821.9929	-0.0089
822.1609	0.1513
822.329	0.1405
822.497	0.059
822.665	0.1604
822.833	-0.0772
823.0009	-0.0471
823.1688	0.2089
823.3367	-0.0172
823.5046	0.2146
823.6725	0.0984
823.8404	-0.094
824.0082	0.047
824.176	0.0554
824.3438	0.2488
824.5116	0.2069
824.6793	0.0222
824.847	0.3118
825.0147	0.1267
825.1824	0.0168
825.3501	0.2203
825.5177	0.006
825.6854	0.3705
825.853	0.0416
826.0206	0.1673
826.1881	0.0559
826.3557	0.2312
826.5232	0.1105
826.6907	0.0427
826.8582	0.0097
827.0257	0.0467
827.1931	0.0638
827.3605	-0.0889
827.528	0.2339
827.6953	0.0427
827.8627	0.1696
828.03	-0.0191
828.1974	0.0869
828.3647	0.1625
828.532	0.1371
828.6992	0.1436
828.8665	0.0241
829.0337	-0.0614
829.2009	0.0909
829.3681	0.1331
829.5352	0.2418
829.7024	0.0733
829.8695	0.1462
830.0366	0.5781
830.2037	0.0586
830.3707	0.0447
830.5378	0.2458
830.7048	-0.2508
830.8718	0.0442
831.0388	0.5573
831.2057	0.1692
831.3727	-0.087
831.5396	-0.0212
831.7065	0.4248
831.8734	-0.1951
832.0402	0.0331
832.2071	0.1006
832.3739	0.4248
832.5407	-0
832.7075	0.1146
832.8742	0.0758
833.041	-0.14
833.2077	-0.1517
833.3744	0.1445
833.541	-0.0663
833.7077	-0.0954
833.8743	0.0336
834.0409	-0.0512
834.2075	0.1696
834.3741	0.0297
834.5407	-0.0403
834.7072	0.0605
834.8737	0.1316
835.0402	-0.1805
835.2067	-0.0223
835.3731	0.2203
835.5395	-0.1041
835.706	0.066
835.8723	0.1251
836.0387	0.4497
836.2051	0.1726
836.3714	-0.1079
836.5377	0.0752
836.704	0.1557
836.8703	0.1229
837.0365	0.7976
837.2027	-0.2594
837.3689	-0.1653
837.5351	-0.106
837.7013	0.5719
837.8674	-0.6309
838.0335	-0.0884
838.1997	0.3895
838.3657	-0
838.5318	-0.3428
838.6978	-0
838.8639	0.6875
839.0299	0.4598
839.1958	0.0568
839.3618	0.6445
839.5277	-0.3939
839.6937	-0.1113
839.8596	0.075
840.0254	0.528
840.1913	1.9298
840.3571	-0.0616
840.523	-0
840.6888	0.0651
840.8545	-0.2429
841.0203	0.0488
841.186	0.0272
841.3517	0.1119
841.5174	0.3674
841.6831	0.2022
841.8488	0.3715
842.0144	0.9826
842.18	0.1094
842.3456	0.3151
842.5112	-0
842.6767	0.2754
842.8422	-0.0394
843.0077	0.5085
843.1732	0.1534
843.3387	1.0489
843.5042	-0
843.6696	0.1516
843.835	-0
844.0004	0.0556
844.1657	-0.0416
844.3311	-0
844.4964	-0.1556
844.6617	-0.1034
844.827	-0
844.9923	-0.2916
845.1575	-0
845.3227	-0.2135
845.4879	0.3731
845.6531	-0.3719
845.8183	0.2446
845.9834	-0.0458
846.1485	-0.0442
846.3136	0.8891
846.4787	0.4153
846.6438	0.1115
846.8088	-0.5229
846.9738	-0
847.1388	0.0005
847.3038	0.0551
847.4687	-0.669
847.6337	-0
847.7986	0.7236
847.9635	1.2353
848.1284	-0
848.2932	0.5469
848.458	0.0008
848.6228	0.2356
848.7876	0.314
848.9524	-0.1268
849.1172	-0.3204
849.2819	-0
849.4466	-0.2037
849.6113	-0
849.7759	-0
849.9406	-0
850.1052	-0.1125
850.2698	-1.084
850.4344	-0
850.599	1.082
850.7635	0.3479
850.928	0.3694
851.0925	0.2547
851.257	-0
851.4215	-0.203
851.5859	0.6658
851.7503	-0
851.9147	-0
852.0791	0.1187
852.2434	0.6738
852.4078	-0.0012
852.5721	0.3364
852.7364	0.9526
852.9007	-0.275
853.0649	1.4442
853.2291	0.8282
853.3934	-0
853.5575	-0.2023
853.7217	0.4059
853.8859	-0
854.05	-1.1559
854.2141	-0
854.3782	1.574
854.5423	-0.9045
854.7063	-0.0886
854.8703	0.7392
855.0343	0.0663
855.1983	0.5568
855.3623	0.1415
855.5262	-0
855.6901	0.2939
855.854	-0.2654
856.0179	-0.1442
856.1818	-0
856.3456	1.0358
856.5094	-0
856.6732	-0.5737
856.837	0.4529
857.0008	0.3222
857.1645	0.0634
857.3282	0.1416
857.4919	0.0093
857.6556	-0
857.8192	-0.1792
857.9828	-0.0175
858.1465	0.217
858.31	-0
858.4736	-0.2373
858.6372	-0
858.8007	-0
858.9642	0.6135
859.1277	-0.4879
859.2911	0.4377
859.4546	-0
859.618	0.4888
859.7814	-0
859.9448	0.0279
860.1081	-0.3134
860.2715	-0
860.4348	-0.1172
860.5981	-0
860.7614	-0
860.9246	-0.2317
861.0879	-0.1287
861.2511	-0
861.4143	-0
861.5774	0.5271
861.7406	-0
861.9037	1.2235
862.0668	-0.7663
862.2299	-1.9478
862.393	-0
862.556	-0
862.7191	0.0573
862.8821	-0.1293
863.0451	1.2572
863.208	-0
863.371	0.1527
863.5339	-0.1899
863.6968	-0.1944
863.8597	-0.9565
864.0225	-0.3745
864.1854	-0.2314
864.3482	-0
864.511	0.1761
864.6737	0.5164
864.8365	0.1142
864.9992	-0.4576
865.1619	-0
865.3246	-0.1643
865.4873	-0
865.65	-0
865.8126	-0
865.9752	-0
866.1378	-1.0382
866.3004	0.2025
866.4629	0.6793
866.6254	-1.2598
866.7879	0.4426
866.9504	-0.4443
867.1129	1.2235
867.2753	-0.1234
867.4377	-0
867.6001	-0.1913
867.7625	-0.1511
867.9249	-0
868.0872	-0
868.2495	0.1418
868.4118	1.1943
868.5741	-0
868.7363	-0
868.8986	-0.4285
869.0608	-0
869.223	0.3493
869.3851	1.567
869.5473	-1.2728
869.7094	-0
869.8715	-0
870.0336	0.0058
870.1957	-1.0497
870.3577	-0.3874
870.5197	-0.1899
870.6817	-0
870.8437	-0
871.0057	-0
871.1676	0.19
871.3295	-0
871.4914	0.3222
871.6533	-0.0731
871.8151	-0.5822
871.977	-0
872.1388	-1.2453
872.3006	0.871
872.4623	-0.6155
872.6241	-1.1027
872.7858	-0.1797
872.9475	-0
873.1092	1.1455
873.2709	0.0866
873.4325	-0.0892
873.5941	-0
873.7557	-0.9097
873.9173	-0
874.0789	-0.1925
874.2404	-0
874.4019	0.5288
874.5634	-0
874.7249	-0
874.8863	-0.3554
875.0478	-0.0564
875.2092	0.381
875.3706	-0.3931
875.5319	0.3913
875.6933	-0
875.8546	-0
876.0159	0.001
876.1772	-1.2025
876.3385	0.3057
876.4997	-0
876.6609	-0
876.8221	0.6214
876.9833	-0.1275
877.1445	1.4369
877.3056	0.4902
877.4667	-1.4614
877.6278	0.409
877.7889	-0
877.9499	-0
878.111	0.2464
878.272	-0.1162
878.433	-0
878.5939	-0.1558
878.7549	-0
878.9158	-0.5657
879.0767	-0
879.2376	-0.8032
879.3984	-0
879.5593	-0.3672
879.7201	0.3492
879.8809	-0
880.0417	-0.1736
880.2024	0.3103
880.3632	-0
880.5239	-0.065
880.6846	-0
880.8452	0.3811
881.0059	-0.0841
881.1665	1.0035
881.3271	0.0433
881.4877	1.5157
881.6483	-1.7765
881.8088	-0
881.9693	0.3806
882.1298	0.3806
882.2903	0.3806
