Data from D4ACN5uM480nmA_Absorbance_12-08-01-660.txt Node
Date: Fri Feb 21 12:08:01 GMT 2025
User: LASERRRRR
Spectrometer: FLMT03099
Trigger mode: 0
Integration Time (sec): 1.500000E-2
Scans to average: 1
Electric dark correction enabled: true
Nonlinearity correction enabled: false
Boxcar width: 0
XAxis mode: Wavelengths
Number of Pixels in Spectrum: 3648
>>>>>Begin Spectral Data<<<<<
179.3399	0.1802
179.5586	0.1802
179.7771	0.1802
179.9957	0.2197
180.2143	-0.0835
180.4329	-0
180.6514	-0
180.8699	-0.206
181.0885	-0.2572
181.307	-0
181.5255	0.3185
181.744	-0
181.9625	0.1135
182.181	0.3385
182.3994	-0
182.6179	-0
182.8363	0.6441
183.0547	-0
183.2732	0.4305
183.4916	0.2891
183.71	0.3165
183.9284	0.073
184.1467	0.9561
184.3651	0.2111
184.5835	0.0129
184.8018	0.1372
185.0201	0.2554
185.2385	0.161
185.4568	0.4325
185.6751	0.2119
185.8934	0.187
186.1117	0.034
186.3299	0.3123
186.5482	0.0988
186.7664	0.1997
186.9847	0.2604
187.2029	-0.0184
187.4211	0.129
187.6393	0.2815
187.8575	0.4638
188.0757	0.249
188.2939	0.1948
188.512	0.2498
188.7302	-0.0172
188.9483	0.6424
189.1665	0.4528
189.3846	0.0736
189.6027	0.0822
189.8208	0.4694
190.0389	0.1262
190.257	0.2719
190.475	0.2495
190.6931	0.3484
190.9111	0.3878
191.1292	0.2957
191.3472	0.1987
191.5652	0.5776
191.7832	0.3134
192.0012	0.3204
192.2192	0.335
192.4371	0.3527
192.6551	0.3851
192.873	0.348
193.091	0.2482
193.3089	0.4954
193.5268	0.4878
193.7447	0.3333
193.9626	0.3453
194.1805	0.2461
194.3984	0.5132
194.6162	0.3313
194.8341	2.0287
195.0519	0.4872
195.2697	0.5115
195.4875	0.9104
195.7054	0.4659
195.9231	0.411
196.1409	0.5381
196.3587	0.4194
196.5765	0.4233
196.7942	0.6899
197.012	0.5694
197.2297	0.579
197.4474	0.6522
197.6651	0.5572
197.8828	0.5888
198.1005	0.6945
198.3182	0.549
198.5358	0.5372
198.7535	0.5501
198.9711	0.5946
199.1888	0.6633
199.4064	0.6559
199.624	0.5092
199.8416	0.5149
200.0592	0.5126
200.2767	0.5796
200.4943	0.68
200.7119	0.5559
200.9294	0.5593
201.1469	0.6571
201.3645	0.6744
201.582	0.4891
201.7995	0.5602
202.017	0.491
202.2344	0.5061
202.4519	0.5455
202.6694	0.5069
202.8868	0.5454
203.1042	0.4793
203.3217	0.5196
203.5391	0.5032
203.7565	0.5491
203.9739	0.5149
204.1913	0.5168
204.4086	0.5395
204.626	0.5114
204.8433	0.52
205.0607	0.492
205.278	0.5223
205.4953	0.453
205.7126	0.4601
205.9299	0.4828
206.1472	0.4874
206.3644	0.4551
206.5817	0.4881
206.7989	0.4814
207.0162	0.4143
207.2334	0.4476
207.4506	0.4411
207.6678	0.4519
207.885	0.4262
208.1022	0.4232
208.3194	0.4062
208.5365	0.453
208.7537	0.4354
208.9708	0.4274
209.1879	0.4298
209.405	0.4068
209.6222	0.4231
209.8392	0.4079
210.0563	0.4233
210.2734	0.3912
210.4905	0.4274
210.7075	0.4076
210.9245	0.4139
211.1416	0.3794
211.3586	0.3639
211.5756	0.4121
211.7926	0.397
212.0096	0.4098
212.2265	0.3854
212.4435	0.431
212.6604	0.3877
212.8774	0.4035
213.0943	0.4021
213.3112	0.4139
213.5281	0.4079
213.745	0.4075
213.9619	0.3914
214.1788	0.37
214.3956	0.4079
214.6125	0.4064
214.8293	0.4127
215.0461	0.3856
215.2629	0.3955
215.4798	0.3633
215.6965	0.4232
215.9133	0.403
216.1301	0.4027
216.3469	0.3951
216.5636	0.4085
216.7803	0.402
216.9971	0.4121
217.2138	0.4034
217.4305	0.4161
217.6472	0.3984
217.8639	0.4084
218.0805	0.3949
218.2972	0.4093
218.5138	0.3978
218.7305	0.4119
218.9471	0.4174
219.1637	0.4291
219.3803	0.3858
219.5969	0.4136
219.8135	0.4279
220.0301	0.4044
220.2466	0.4419
220.4632	0.4081
220.6797	0.4147
220.8962	0.4186
221.1127	0.4448
221.3292	0.4236
221.5457	0.4359
221.7622	0.4408
221.9787	0.4434
222.1951	0.4273
222.4116	0.4468
222.628	0.43
222.8444	0.4271
223.0608	0.4319
223.2772	0.4489
223.4936	0.4473
223.71	0.4395
223.9264	0.4486
224.1427	0.4364
224.3591	0.4485
224.5754	0.4641
224.7917	0.456
225.008	0.4506
225.2243	0.4584
225.4406	0.4526
225.6569	0.4527
225.8732	0.4642
226.0894	0.4703
226.3057	0.47
226.5219	0.4731
226.7381	0.4655
226.9543	0.4638
227.1705	0.474
227.3867	0.4862
227.6029	0.4773
227.8191	0.4683
228.0352	0.4977
228.2513	0.4897
228.4675	0.4753
228.6836	0.4812
228.8997	0.4969
229.1158	0.4897
229.3319	0.502
229.548	0.4963
229.764	0.4996
229.9801	0.5157
230.1961	0.5168
230.4121	0.5037
230.6282	0.5028
230.8442	0.5051
231.0602	0.5249
231.2761	0.5133
231.4921	0.5128
231.7081	0.5001
231.924	0.5158
232.14	0.532
232.3559	0.5314
232.5718	0.53
232.7877	0.5325
233.0036	0.5168
233.2195	0.5225
233.4353	0.5304
233.6512	0.5329
233.867	0.5408
234.0829	0.5209
234.2987	0.5343
234.5145	0.5371
234.7303	0.5355
234.9461	0.5222
235.1619	0.5226
235.3776	0.536
235.5934	0.5328
235.8091	0.5405
236.0249	0.532
236.2406	0.548
236.4563	0.5249
236.672	0.5366
236.8877	0.5321
237.1034	0.5267
237.319	0.5333
237.5347	0.5244
237.7503	0.5453
237.966	0.5339
238.1816	0.5241
238.3972	0.5301
238.6128	0.5356
238.8284	0.5274
239.0439	0.5346
239.2595	0.5293
239.475	0.5201
239.6906	0.5167
239.9061	0.5278
240.1216	0.5354
240.3371	0.5259
240.5526	0.5337
240.7681	0.525
240.9836	0.513
241.199	0.5033
241.4145	0.4981
241.6299	0.4935
241.8453	0.4995
242.0607	0.4826
242.2761	0.4898
242.4915	0.4663
242.7069	0.4651
242.9223	0.4621
243.1376	0.4631
243.353	0.437
243.5683	0.4411
243.7836	0.4231
243.9989	0.4302
244.2142	0.4146
244.4295	0.4039
244.6448	0.3968
244.86	0.3908
245.0753	0.3901
245.2905	0.3786
245.5057	0.3716
245.721	0.3586
245.9362	0.3482
246.1514	0.3351
246.3665	0.3417
246.5817	0.3339
246.7969	0.3248
247.012	0.3192
247.2271	0.3094
247.4423	0.3007
247.6574	0.3149
247.8725	0.3053
248.0876	0.2888
248.3026	0.284
248.5177	0.2827
248.7328	0.2791
248.9478	0.2755
249.1628	0.2647
249.3779	0.2691
249.5929	0.2572
249.8079	0.255
250.0228	0.2484
250.2378	0.2482
250.4528	0.2478
250.6677	0.2362
250.8827	0.2373
251.0976	0.2444
251.3125	0.2327
251.5274	0.229
251.7423	0.229
251.9572	0.2156
252.172	0.2179
252.3869	0.2194
252.6017	0.2135
252.8166	0.2202
253.0314	0.2143
253.2462	0.2145
253.461	0.209
253.6758	0.2034
253.8906	0.2067
254.1053	0.2068
254.3201	0.2027
254.5348	0.1995
254.7496	0.204
254.9643	0.2062
255.179	0.2071
255.3937	0.1991
255.6083	0.1965
255.823	0.1986
256.0377	0.1987
256.2523	0.1947
256.467	0.1948
256.6816	0.2001
256.8962	0.1892
257.1108	0.1963
257.3254	0.1895
257.54	0.1895
257.7545	0.1859
257.9691	0.1941
258.1836	0.1928
258.3981	0.1843
258.6127	0.1776
258.8272	0.1831
259.0417	0.1755
259.2561	0.1857
259.4706	0.1892
259.6851	0.1838
259.8995	0.1861
260.114	0.1875
260.3284	0.1883
260.5428	0.1792
260.7572	0.1823
260.9716	0.187
261.186	0.1816
261.4003	0.1873
261.6147	0.1827
261.829	0.1845
262.0433	0.1809
262.2577	0.1919
262.472	0.1887
262.6863	0.1834
262.9005	0.1878
263.1148	0.182
263.3291	0.186
263.5433	0.1893
263.7576	0.1862
263.9718	0.1886
264.186	0.1852
264.4002	0.1807
264.6144	0.1903
264.8286	0.1844
265.0427	0.1936
265.2569	0.1844
265.471	0.1834
265.6851	0.1873
265.8993	0.1843
266.1134	0.188
266.3275	0.1888
266.5415	0.1837
266.7556	0.1833
266.9697	0.1799
267.1837	0.1832
267.3978	0.1895
267.6118	0.1803
267.8258	0.1875
268.0398	0.1838
268.2538	0.187
268.4677	0.181
268.6817	0.1736
268.8957	0.1842
269.1096	0.1762
269.3235	0.1881
269.5374	0.1753
269.7514	0.1832
269.9652	0.175
270.1791	0.1827
270.393	0.1823
270.6068	0.1761
270.8207	0.1723
271.0345	0.1769
271.2483	0.1759
271.4622	0.1737
271.676	0.1721
271.8897	0.1702
272.1035	0.1748
272.3173	0.1685
272.531	0.1701
272.7448	0.1714
272.9585	0.1724
273.1722	0.1746
273.3859	0.1679
273.5996	0.1688
273.8133	0.1705
274.0269	0.1763
274.2406	0.1767
274.4542	0.1706
274.6679	0.1702
274.8815	0.1762
275.0951	0.1755
275.3087	0.1818
275.5223	0.1708
275.7358	0.176
275.9494	0.1724
276.1629	0.1719
276.3765	0.1693
276.59	0.1738
276.8035	0.1754
277.017	0.1754
277.2305	0.1772
277.444	0.177
277.6574	0.1791
277.8709	0.1794
278.0843	0.1767
278.2978	0.1779
278.5112	0.1832
278.7246	0.1787
278.938	0.1765
279.1513	0.1828
279.3647	0.1784
279.5781	0.1763
279.7914	0.1765
280.0047	0.1787
280.2181	0.18
280.4314	0.1807
280.6447	0.1815
280.8579	0.178
281.0712	0.184
281.2845	0.1815
281.4977	0.1866
281.711	0.1788
281.9242	0.1806
282.1374	0.1839
282.3506	0.1891
282.5638	0.1819
282.7769	0.1821
282.9901	0.1799
283.2033	0.1841
283.4164	0.1868
283.6295	0.1842
283.8426	0.1863
284.0557	0.1905
284.2688	0.1908
284.4819	0.1908
284.695	0.1908
284.908	0.196
285.1211	0.1845
285.3341	0.1952
285.5471	0.1878
285.7601	0.1865
285.9731	0.192
286.1861	0.1872
286.3991	0.1914
286.612	0.1905
286.825	0.1901
287.0379	0.1986
287.2508	0.1982
287.4637	0.1951
287.6766	0.1934
287.8895	0.1904
288.1024	0.1942
288.3152	0.1923
288.5281	0.1981
288.7409	0.2004
288.9538	0.1994
289.1666	0.2002
289.3794	0.1973
289.5922	0.1934
289.8049	0.2094
290.0177	0.1981
290.2304	0.1987
290.4432	0.2015
290.6559	0.1942
290.8686	0.1957
291.0813	0.1968
291.294	0.2046
291.5067	0.204
291.7194	0.1951
291.932	0.2059
292.1447	0.1938
292.3573	0.1999
292.5699	0.2011
292.7825	0.2023
292.9951	0.2017
293.2077	0.1989
293.4203	0.2025
293.6328	0.195
293.8454	0.2019
294.0579	0.2001
294.2704	0.2058
294.4829	0.1995
294.6954	0.1925
294.9079	0.203
295.1204	0.2019
295.3328	0.201
295.5453	0.1936
295.7577	0.1976
295.9701	0.2039
296.1825	0.1985
296.3949	0.2056
296.6073	0.2013
296.8197	0.196
297.0321	0.2006
297.2444	0.2024
297.4567	0.2043
297.6691	0.1974
297.8814	0.2001
298.0937	0.1987
298.306	0.1973
298.5182	0.1982
298.7305	0.1976
298.9428	0.1953
299.155	0.1959
299.3672	0.1976
299.5794	0.191
299.7916	0.1982
300.0038	0.1966
300.216	0.202
300.4282	0.1922
300.6403	0.1973
300.8525	0.1994
301.0646	0.1995
301.2767	0.1931
301.4888	0.193
301.7009	0.1952
301.913	0.1988
302.125	0.1967
302.3371	0.1965
302.5491	0.1991
302.7612	0.1973
302.9732	0.1893
303.1852	0.1924
303.3972	0.1919
303.6092	0.2023
303.8211	0.1876
304.0331	0.1866
304.245	0.1908
304.457	0.2011
304.6689	0.1947
304.8808	0.1913
305.0927	0.194
305.3046	0.1863
305.5164	0.1859
305.7283	0.1946
305.9401	0.1792
306.152	0.1792
306.3638	0.1767
306.5756	0.1844
306.7874	0.1807
306.9992	0.1732
307.2109	0.1692
307.4227	0.1737
307.6344	0.1778
307.8462	0.1659
308.0579	0.1705
308.2696	0.1697
308.4813	0.1623
308.693	0.1676
308.9046	0.1626
309.1163	0.1641
309.328	0.1537
309.5396	0.1583
309.7512	0.1538
309.9628	0.1473
310.1744	0.1534
310.386	0.1452
310.5976	0.1448
310.8091	0.1477
311.0207	0.1468
311.2322	0.1461
311.4437	0.1414
311.6552	0.1419
311.8667	0.1433
312.0782	0.1404
312.2897	0.1378
312.5012	0.1365
312.7126	0.1325
312.924	0.1393
313.1355	0.1265
313.3469	0.1213
313.5583	0.124
313.7696	0.1283
313.981	0.1245
314.1924	0.1275
314.4037	0.1258
314.6151	0.1249
314.8264	0.1251
315.0377	0.1256
315.249	0.1227
315.4603	0.1212
315.6716	0.1242
315.8828	0.1257
316.0941	0.1227
316.3053	0.1174
316.5165	0.1238
316.7277	0.1219
316.9389	0.1253
317.1501	0.1216
317.3613	0.1212
317.5724	0.1203
317.7836	0.1209
317.9947	0.1124
318.2058	0.1176
318.417	0.1193
318.6281	0.1157
318.8391	0.1162
319.0502	0.1165
319.2613	0.1172
319.4723	0.1146
319.6834	0.1195
319.8944	0.1191
320.1054	0.1126
320.3164	0.1135
320.5274	0.1074
320.7383	0.1157
320.9493	0.1174
321.1602	0.1135
321.3712	0.1169
321.5821	0.1205
321.793	0.1119
322.0039	0.1153
322.2148	0.1154
322.4257	0.1188
322.6365	0.1143
322.8474	0.1156
323.0582	0.1126
323.269	0.1143
323.4798	0.1154
323.6906	0.1166
323.9014	0.1096
324.1122	0.1143
324.3229	0.1174
324.5337	0.1207
324.7444	0.1163
324.9551	0.1144
325.1658	0.1224
325.3765	0.1161
325.5872	0.1163
325.7979	0.1176
326.0085	0.1206
326.2192	0.1138
326.4298	0.1219
326.6404	0.1183
326.851	0.1215
327.0616	0.1239
327.2722	0.1243
327.4828	0.1183
327.6933	0.1222
327.9039	0.1169
328.1144	0.1191
328.3249	0.1232
328.5354	0.1141
328.7459	0.1227
328.9564	0.1237
329.1669	0.1236
329.3773	0.1197
329.5878	0.123
329.7982	0.1195
330.0086	0.1213
330.219	0.1226
330.4294	0.129
330.6398	0.1255
330.8502	0.1258
331.0605	0.1217
331.2708	0.1231
331.4812	0.1239
331.6915	0.1165
331.9018	0.1226
332.1121	0.1271
332.3224	0.1273
332.5326	0.1217
332.7429	0.1211
332.9531	0.1254
333.1633	0.1298
333.3735	0.1238
333.5837	0.1264
333.7939	0.1252
334.0041	0.1245
334.2143	0.126
334.4244	0.1263
334.6346	0.124
334.8447	0.127
335.0548	0.1208
335.2649	0.1236
335.475	0.1282
335.685	0.127
335.8951	0.1349
336.1051	0.1343
336.3152	0.1279
336.5252	0.1269
336.7352	0.1186
336.9452	0.133
337.1552	0.1336
337.3652	0.1246
337.5751	0.1267
337.7851	0.127
337.995	0.1312
338.2049	0.1353
338.4148	0.1277
338.6247	0.1261
338.8346	0.1313
339.0445	0.133
339.2543	0.1325
339.4642	0.1323
339.674	0.1349
339.8838	0.133
340.0936	0.1399
340.3034	0.1303
340.5132	0.1337
340.7229	0.1373
340.9327	0.1395
341.1424	0.138
341.3522	0.1428
341.5619	0.1392
341.7716	0.139
341.9813	0.1441
342.1909	0.1424
342.4006	0.1405
342.6102	0.1408
342.8199	0.1374
343.0295	0.1402
343.2391	0.1422
343.4487	0.1392
343.6583	0.1495
343.8679	0.146
344.0774	0.148
344.287	0.1433
344.4965	0.1466
344.706	0.1468
344.9155	0.1513
345.125	0.1515
345.3345	0.1452
345.544	0.1538
345.7534	0.1458
345.9629	0.1523
346.1723	0.1488
346.3817	0.148
346.5911	0.1511
346.8005	0.1509
347.0099	0.1534
347.2193	0.1501
347.4286	0.1515
347.638	0.1524
347.8473	0.1555
348.0566	0.1579
348.2659	0.1574
348.4752	0.1507
348.6845	0.1596
348.8937	0.1582
349.103	0.1547
349.3122	0.1615
349.5214	0.1603
349.7306	0.1568
349.9398	0.1593
350.149	0.1666
350.3582	0.1624
350.5674	0.1661
350.7765	0.1706
350.9856	0.1599
351.1948	0.1576
351.4039	0.1712
351.613	0.1753
351.822	0.1667
352.0311	0.1662
352.2402	0.1687
352.4492	0.1727
352.6582	0.1685
352.8672	0.1694
353.0762	0.1721
353.2852	0.1719
353.4942	0.1636
353.7032	0.1669
353.9121	0.1755
354.1211	0.1712
354.33	0.1744
354.5389	0.1833
354.7478	0.1754
354.9567	0.1814
355.1655	0.1806
355.3744	0.18
355.5833	0.1831
355.7921	0.1728
356.0009	0.1757
356.2097	0.1884
356.4185	0.1938
356.6273	0.1867
356.8361	0.1941
357.0448	0.1919
357.2536	0.1877
357.4623	0.1875
357.671	0.185
357.8797	0.193
358.0884	0.1894
358.2971	0.1931
358.5057	0.1872
358.7144	0.1939
358.923	0.1961
359.1316	0.1946
359.3402	0.1991
359.5488	0.1955
359.7574	0.1943
359.966	0.1977
360.1746	0.1968
360.3831	0.2076
360.5916	0.2008
360.8002	0.2137
361.0087	0.2078
361.2172	0.2048
361.4256	0.2016
361.6341	0.21
361.8426	0.2068
362.051	0.2117
362.2594	0.2198
362.4678	0.2132
362.6762	0.2256
362.8846	0.2204
363.093	0.2118
363.3014	0.2183
363.5097	0.2205
363.718	0.2233
363.9264	0.2264
364.1347	0.2235
364.343	0.2196
364.5513	0.2283
364.7595	0.2309
364.9678	0.2276
365.176	0.2269
365.3842	0.2351
365.5925	0.2228
365.8007	0.2367
366.0089	0.2348
366.217	0.2313
366.4252	0.233
366.6333	0.2323
366.8415	0.239
367.0496	0.238
367.2577	0.2466
367.4658	0.2473
367.6739	0.2335
367.882	0.2419
368.09	0.241
368.2981	0.2394
368.5061	0.2452
368.7141	0.2457
368.9221	0.2468
369.1301	0.2562
369.3381	0.2539
369.5461	0.254
369.754	0.253
369.962	0.256
370.1699	0.2579
370.3778	0.2642
370.5857	0.2549
370.7936	0.2602
371.0015	0.2516
371.2093	0.26
371.4172	0.2615
371.625	0.257
371.8328	0.26
372.0406	0.2592
372.2484	0.2603
372.4562	0.2633
372.664	0.266
372.8717	0.2686
373.0795	0.2617
373.2872	0.2684
373.4949	0.2673
373.7026	0.2803
373.9103	0.2573
374.118	0.2676
374.3256	0.2783
374.5333	0.2698
374.7409	0.2713
374.9485	0.2685
375.1561	0.2844
375.3637	0.2679
375.5713	0.2748
375.7789	0.2723
375.9864	0.2857
376.194	0.2809
376.4015	0.2847
376.609	0.2831
376.8165	0.2849
377.024	0.2797
377.2315	0.292
377.4389	0.28
377.6464	0.2824
377.8538	0.2862
378.0612	0.2784
378.2686	0.2895
378.476	0.2871
378.6834	0.2907
378.8908	0.2879
379.0981	0.2961
379.3055	0.2916
379.5128	0.295
379.7201	0.2965
379.9274	0.2894
380.1347	0.2988
380.342	0.2994
380.5492	0.3056
380.7565	0.2917
380.9637	0.2986
381.1709	0.2979
381.3781	0.3109
381.5853	0.3062
381.7925	0.3103
381.9997	0.3105
382.2068	0.301
382.4139	0.3158
382.6211	0.3096
382.8282	0.3019
383.0353	0.3079
383.2424	0.3112
383.4494	0.3101
383.6565	0.3139
383.8635	0.3215
384.0706	0.3121
384.2776	0.3164
384.4846	0.3154
384.6916	0.3036
384.8986	0.3164
385.1055	0.3122
385.3125	0.3191
385.5194	0.3072
385.7263	0.312
385.9333	0.3122
386.1402	0.3082
386.347	0.3034
386.5539	0.3167
386.7608	0.3224
386.9676	0.3184
387.1744	0.3113
387.3813	0.316
387.5881	0.3152
387.7948	0.3131
388.0016	0.3157
388.2084	0.3204
388.4151	0.309
388.6219	0.3123
388.8286	0.2998
389.0353	0.3032
389.242	0.3131
389.4487	0.3116
389.6553	0.3093
389.862	0.301
390.0686	0.3079
390.2753	0.3067
390.4819	0.303
390.6885	0.307
390.8951	0.3083
391.1016	0.3082
391.3082	0.2925
391.5147	0.297
391.7213	0.298
391.9278	0.3011
392.1343	0.3042
392.3408	0.2892
392.5473	0.2853
392.7537	0.2829
392.9602	0.2789
393.1666	0.3028
393.373	0.283
393.5794	0.286
393.7858	0.2854
393.9922	0.283
394.1986	0.2869
394.4049	0.2864
394.6113	0.2821
394.8176	0.2769
395.0239	0.2718
395.2302	0.266
395.4365	0.2827
395.6428	0.2771
395.8491	0.2608
396.0553	0.2643
396.2615	0.2765
396.4678	0.2773
396.674	0.2645
396.8802	0.268
397.0863	0.2636
397.2925	0.2616
397.4987	0.2659
397.7048	0.2717
397.9109	0.2763
398.117	0.2649
398.3231	0.2772
398.5292	0.2756
398.7353	0.2637
398.9413	0.276
399.1474	0.272
399.3534	0.2688
399.5594	0.2715
399.7654	0.2666
399.9714	0.261
400.1774	0.2699
400.3833	0.2736
400.5893	0.258
400.7952	0.2674
401.0011	0.2592
401.207	0.2645
401.4129	0.2651
401.6188	0.2704
401.8247	0.2801
402.0305	0.2529
402.2364	0.2703
402.4422	0.273
402.648	0.2758
402.8538	0.2733
403.0596	0.2665
403.2654	0.2626
403.4711	0.2723
403.6768	0.2647
403.8826	0.2637
404.0883	0.2563
404.294	0.2649
404.4997	0.2642
404.7054	0.2664
404.911	0.2612
405.1167	0.2707
405.3223	0.2741
405.5279	0.2613
405.7335	0.2651
405.9391	0.2615
406.1447	0.2713
406.3502	0.2629
406.5558	0.2713
406.7613	0.2618
406.9668	0.2656
407.1724	0.2712
407.3778	0.2734
407.5833	0.2603
407.7888	0.2675
407.9942	0.2644
408.1997	0.2675
408.4051	0.2621
408.6105	0.2704
408.8159	0.2625
409.0213	0.2665
409.2267	0.2659
409.432	0.2647
409.6374	0.2705
409.8427	0.2667
410.048	0.2576
410.2533	0.264
410.4586	0.2717
410.6639	0.2664
410.8691	0.2667
411.0744	0.2663
411.2796	0.2617
411.4848	0.2674
411.69	0.2658
411.8952	0.2735
412.1004	0.2616
412.3056	0.2558
412.5107	0.2771
412.7158	0.2656
412.921	0.2614
413.1261	0.2647
413.3312	0.2693
413.5362	0.267
413.7413	0.2702
413.9464	0.2556
414.1514	0.2628
414.3564	0.2631
414.5614	0.2539
414.7664	0.2704
414.9714	0.2628
415.1764	0.2495
415.3813	0.2422
415.5863	0.2493
415.7912	0.2566
415.9961	0.2588
416.201	0.2604
416.4059	0.2401
416.6108	0.2546
416.8156	0.2462
417.0205	0.2641
417.2253	0.2631
417.4301	0.2684
417.6349	0.2571
417.8397	0.2649
418.0445	0.2566
418.2492	0.2551
418.454	0.2471
418.6587	0.2571
418.8634	0.253
419.0681	0.2515
419.2728	0.2416
419.4775	0.261
419.6822	0.2446
419.8868	0.2594
420.0915	0.2627
420.2961	0.243
420.5007	0.2515
420.7053	0.2565
420.9099	0.2377
421.1144	0.2407
421.319	0.2444
421.5235	0.2405
421.728	0.2431
421.9325	0.2448
422.137	0.2345
422.3415	0.2374
422.546	0.2364
422.7504	0.2398
422.9549	0.2406
423.1593	0.2474
423.3637	0.2284
423.5681	0.2397
423.7725	0.2344
423.9769	0.232
424.1812	0.2427
424.3856	0.2341
424.5899	0.237
424.7942	0.2223
424.9985	0.2261
425.2028	0.2288
425.4071	0.2196
425.6113	0.2373
425.8156	0.228
426.0198	0.2166
426.224	0.2252
426.4282	0.2288
426.6324	0.2227
426.8366	0.2288
427.0407	0.2184
427.2449	0.2189
427.449	0.2176
427.6531	0.2233
427.8572	0.2098
428.0613	0.2062
428.2654	0.2132
428.4694	0.2068
428.6735	0.208
428.8775	0.2004
429.0815	0.2057
429.2855	0.203
429.4895	0.1973
429.6935	0.1875
429.8975	0.1963
430.1014	0.1986
430.3053	0.1973
430.5093	0.201
430.7132	0.1975
430.9171	0.1881
431.1209	0.1892
431.3248	0.1803
431.5286	0.1751
431.7325	0.1888
431.9363	0.1787
432.1401	0.1792
432.3439	0.1804
432.5477	0.1847
432.7514	0.1785
432.9552	0.175
433.1589	0.1659
433.3627	0.169
433.5664	0.1692
433.7701	0.1745
433.9737	0.1704
434.1774	0.1718
434.3811	0.1671
434.5847	0.1562
434.7883	0.1596
434.9919	0.1457
435.1955	0.1501
435.3991	0.1605
435.6027	0.1535
435.8062	0.1581
436.0098	0.1457
436.2133	0.1465
436.4168	0.1464
436.6203	0.1425
436.8238	0.1349
437.0272	0.1444
437.2307	0.1356
437.4341	0.139
437.6375	0.1261
437.841	0.1365
438.0443	0.1272
438.2477	0.1296
438.4511	0.1216
438.6545	0.1308
438.8578	0.1312
439.0611	0.1329
439.2644	0.1228
439.4677	0.1215
439.671	0.113
439.8743	0.1117
440.0775	0.1037
440.2808	0.1232
440.484	0.0982
440.6872	0.1075
440.8904	0.1038
441.0936	0.1143
441.2967	0.1018
441.4999	0.1017
441.703	0.1048
441.9062	0.0965
442.1093	0.1026
442.3124	0.0942
442.5155	0.0916
442.7185	0.0819
442.9216	0.1008
443.1246	0.0966
443.3276	0.0798
443.5307	0.0885
443.7337	0.0854
443.9366	0.0832
444.1396	0.0816
444.3426	0.0807
444.5455	0.0764
444.7484	0.072
444.9513	0.0742
445.1542	0.0748
445.3571	0.0686
445.56	0.0763
445.7628	0.0721
445.9657	0.0743
446.1685	0.0717
446.3713	0.0686
446.5741	0.0564
446.7769	0.066
446.9797	0.0659
447.1824	0.0681
447.3852	0.05
447.5879	0.0604
447.7906	0.0617
447.9933	0.0638
448.196	0.0527
448.3986	0.0569
448.6013	0.0543
448.8039	0.0611
449.0066	0.05
449.2092	0.0453
449.4118	0.052
449.6143	0.0489
449.8169	0.0538
450.0195	0.0433
450.222	0.0536
450.4245	0.0549
450.627	0.0478
450.8295	0.0369
451.032	0.0482
451.2345	0.0438
451.4369	0.038
451.6394	0.0492
451.8418	0.0437
452.0442	0.0457
452.2466	0.0415
452.449	0.0323
452.6513	0.0407
452.8537	0.0364
453.056	0.0403
453.2583	0.0305
453.4607	0.0302
453.663	0.0405
453.8652	0.0295
454.0675	0.0342
454.2697	0.0287
454.472	0.0302
454.6742	0.024
454.8764	0.0208
455.0786	0.0296
455.2808	0.03
455.4829	0.0219
455.6851	0.0269
455.8872	0.0323
456.0893	0.0382
456.2915	0.0265
456.4935	0.0081
456.6956	0.0277
456.8977	0.026
457.0997	0.029
457.3018	0.0281
457.5038	0.0257
457.7058	0.0194
457.9078	0.0221
458.1098	0.0188
458.3117	0.0236
458.5137	0.0283
458.7156	0.0285
458.9175	0.016
459.1194	0.0262
459.3213	0.0174
459.5232	0.0228
459.725	0.0199
459.9269	0.0222
460.1287	0.0067
460.3305	0.015
460.5323	0.0177
460.7341	0.0127
460.9359	0.0192
461.1376	0.0184
461.3394	0.0142
461.5411	0.0146
461.7428	0.0121
461.9445	0.0169
462.1462	0.0106
462.3479	0.0202
462.5495	0.0203
462.7512	0.0026
462.9528	0.019
463.1544	0.0056
463.356	0.0211
463.5576	0.0055
463.7592	0.0021
463.9607	0.0154
464.1623	0.0185
464.3638	0.0151
464.5653	0.0201
464.7668	0.0061
464.9683	0.007
465.1697	0.0013
465.3712	0.0131
465.5726	0.0099
465.7741	0.0144
465.9755	0.0072
466.1769	0.0132
466.3782	0.0055
466.5796	0.0084
466.7809	0.0135
466.9823	0.0083
467.1836	0.0149
467.3849	0.0156
467.5862	-0.0012
467.7875	0.0078
467.9887	0.0054
468.19	0.0059
468.3912	0.012
468.5924	0.0237
468.7936	-0.0021
468.9948	0.0139
469.196	0.0083
469.3972	0.008
469.5983	0.0017
469.7994	0.0055
470.0006	0.0039
470.2017	0.006
470.4027	-0.0048
470.6038	-0.0011
470.8049	-0.0023
471.0059	0.0075
471.2069	0.0107
471.408	0.0017
471.6089	0.0091
471.8099	0.0087
472.0109	-0.0085
472.2119	0.011
472.4128	0.0103
472.6137	0.0039
472.8146	0.001
473.0155	0.0029
473.2164	-0.0026
473.4173	0.0069
473.6181	0.0097
473.819	0.0039
474.0198	0.0025
474.2206	-0
474.4214	0.01
474.6222	-0.0006
474.8229	-0.0044
475.0237	0.0051
475.2244	0.0035
475.4251	-0.002
475.6258	0.0024
475.8265	-0.0017
476.0272	-0.0035
476.2278	0.011
476.4285	0.0029
476.6291	0.0078
476.8297	-0.0061
477.0303	0.0041
477.2309	0.0005
477.4315	0.0086
477.632	-0.0018
477.8326	-0.0041
478.0331	-0.0024
478.2336	0.0113
478.4341	0.0029
478.6346	0.0034
478.8351	0.0086
479.0355	0.0083
479.236	0.0031
479.4364	-0.002
479.6368	0.0008
479.8372	0.0086
480.0376	0.002
480.2379	0.008
480.4383	0.0034
480.6386	0.0007
480.8389	0.003
481.0392	0.0044
481.2395	0.0004
481.4398	0.0069
481.6401	0.0083
481.8403	-0.0087
482.0405	-0.0022
482.2408	0.0033
482.441	0.0054
482.6411	-0.0016
482.8413	-0.0028
483.0415	0.0079
483.2416	0.0054
483.4417	0.0045
483.6419	0.0022
483.8419	0.0002
484.042	0.0044
484.2421	-0.0047
484.4422	0.0052
484.6422	0.0089
484.8422	0.0008
485.0422	0.0006
485.2422	0.0004
485.4422	-0.0005
485.6422	-0.0026
485.8421	-0.0005
486.042	0.0075
486.242	0.0014
486.4419	0.0061
486.6417	0.0024
486.8416	0.0097
487.0415	-0.0034
487.2413	0.0019
487.4411	-0.0024
487.641	0.0097
487.8408	0.0071
488.0405	0.0003
488.2403	0.0019
488.4401	-0.0039
488.6398	0.0104
488.8395	0.0083
489.0392	0.0063
489.2389	-0.0017
489.4386	0.0029
489.6383	0.0045
489.8379	0.0002
490.0376	0.0043
490.2372	0.003
490.4368	0.0027
490.6364	0.0103
490.836	-0.0054
491.0355	-0.0038
491.2351	0.0079
491.4346	0.0111
491.6341	0.001
491.8336	0.0005
492.0331	0.0021
492.2326	-0.0026
492.432	0.0092
492.6315	-0.0069
492.8309	0.0049
493.0303	-0.0134
493.2297	-0.0046
493.4291	-0.0059
493.6284	-0.0015
493.8278	0.0057
494.0271	0.003
494.2264	0.0072
494.4257	0.0009
494.625	-0.0072
494.8243	0.0006
495.0236	0.0053
495.2228	-0.0089
495.422	0.0114
495.6213	0.0035
495.8205	0.0025
496.0196	0.0058
496.2188	0.0025
496.418	-0.0123
496.6171	0.0073
496.8162	0.0048
497.0153	0.0049
497.2144	-0.0061
497.4135	-0.0006
497.6126	-0.0025
497.8116	0.0025
498.0107	0.0056
498.2097	0.0067
498.4087	-0.0014
498.6077	-0.0001
498.8067	0.0135
499.0056	-0.0056
499.2046	0.0027
499.4035	0.0007
499.6024	-0.0039
499.8013	0.0054
500.0002	0.0002
500.199	0.0019
500.3979	0.0057
500.5967	-0.0052
500.7956	-0.0048
500.9944	0.0045
501.1932	0.0014
501.3919	0.0005
501.5907	0.0029
501.7895	-0.009
501.9882	0.0002
502.1869	0.0041
502.3856	-0.0012
502.5843	-0
502.783	0.0003
502.9816	-0.0033
503.1803	0.0056
503.3789	0.0047
503.5775	0.0031
503.7761	0.0011
503.9747	-0.0046
504.1732	0.0001
504.3718	-0.0031
504.5703	-0.0043
504.7689	0.0004
504.9674	0.002
505.1658	-0.0055
505.3643	-0.0043
505.5628	0.0081
505.7612	0.0061
505.9597	-0
506.1581	-0.0045
506.3565	-0.0091
506.5549	0.0057
506.7532	0.0001
506.9516	0.0046
507.1499	0.0003
507.3482	0.0179
507.5465	-0.0074
507.7448	0.0096
507.9431	-0.0039
508.1414	0.0045
508.3396	-0.003
508.5379	-0.0046
508.7361	0.0094
508.9343	0.0005
509.1325	-0.0031
509.3306	-0.0001
509.5288	0.0089
509.7269	0.0018
509.9251	-0.0018
510.1232	0.0004
510.3213	0.0006
510.5193	-0.0005
510.7174	0.0016
510.9154	0.0082
511.1135	0.003
511.3115	-0.0004
511.5095	0.0055
511.7075	-0.0014
511.9055	0.0087
512.1034	0.0038
512.3014	-0.0143
512.4993	0.0021
512.6972	-0.0056
512.8951	0.0014
513.093	-0.0034
513.2908	0.0016
513.4887	0.0043
513.6865	-0.0057
513.8844	0.0017
514.0822	-0.0052
514.2799	0.0038
514.4777	0.0039
514.6755	0.0073
514.8732	0.0029
515.0709	0.0048
515.2687	-0.0044
515.4664	-0.0157
515.664	0.0066
515.8617	0.0141
516.0594	0.0034
516.257	0.0091
516.4546	-0.0088
516.6522	-0.0081
516.8498	-0.0112
517.0474	-0.005
517.2449	-0.0009
517.4425	-0.0074
517.64	0.0041
517.8375	0.0007
518.035	-0.0035
518.2325	-0.0109
518.43	-0.0014
518.6274	-0.0025
518.8249	-0.0005
519.0223	-0.0108
519.2197	-0.0055
519.4171	-0.0018
519.6145	-0.0092
519.8118	0.0005
520.0092	-0.0112
520.2065	-0.0042
520.4038	-0.0023
520.6011	0.0025
520.7984	0.0024
520.9956	-0.0091
521.1929	-0.0106
521.3901	0.0041
521.5874	0.0046
521.7846	-0.0018
521.9818	-0.0062
522.1789	0.0045
522.3761	0.0119
522.5732	0.0035
522.7704	-0.0039
522.9675	0.0037
523.1646	0.0029
523.3617	0.0035
523.5587	0.0003
523.7558	0.0038
523.9528	-0.0023
524.1498	0.0042
524.3468	-0.0003
524.5438	-0.0147
524.7408	-0.0041
524.9378	0.0015
525.1347	0.0066
525.3316	0.0035
525.5285	-0.0044
525.7254	-0.0021
525.9223	0.0006
526.1192	-0.0026
526.316	-0.0146
526.5129	-0.007
526.7097	0.0002
526.9065	0.0174
527.1033	0.0012
527.3	-0.0028
527.4968	-0.0168
527.6935	0.0056
527.8903	-0.0032
528.087	0.0021
528.2837	0.0056
528.4804	0.0002
528.677	0.0082
528.8737	-0.002
529.0703	-0.0047
529.2669	-0.0075
529.4635	0.0053
529.6601	0.0099
529.8567	0.0025
530.0532	-0.0016
530.2498	0.0083
530.4463	-0.0018
530.6428	0.0005
530.8393	-0.0064
531.0358	0.0012
531.2322	0.0009
531.4287	0.0013
531.6251	-0.0096
531.8215	0.0037
532.0179	-0.0131
532.2143	-0.0028
532.4107	0.0028
532.607	0.0003
532.8034	0.0098
532.9997	0.0025
533.196	0.0113
533.3923	0.006
533.5886	0.0028
533.7848	-0.0084
533.9811	-0.0058
534.1773	0.0005
534.3735	0.0026
534.5697	0.0026
534.7659	0.0045
534.9621	0.0097
535.1582	0.0068
535.3544	0.0053
535.5505	-0.0025
535.7466	-0.0024
535.9427	-0.0037
536.1387	-0.0092
536.3348	0.0095
536.5308	0.0045
536.7269	-0.0001
536.9229	-0.0034
537.1189	-0.0008
537.3148	-0.0061
537.5108	0.0016
537.7068	-0.0018
537.9027	0.0119
538.0986	-0.0018
538.2945	-0.0014
538.4904	-0.0049
538.6863	0.0105
538.8821	-0.0099
539.078	0.0007
539.2738	-0.0119
539.4696	0.0016
539.6654	-0.0005
539.8611	0.003
540.0569	0.006
540.2526	-0.0093
540.4484	-0.0117
540.6441	-0.0018
540.8398	-0.0101
541.0355	0.0042
541.2311	0.0035
541.4268	-0.0055
541.6224	0.0009
541.818	-0.0124
542.0136	0.0016
542.2092	0.0039
542.4048	0.0056
542.6003	0.0026
542.7959	-0.0001
542.9914	0.0067
543.1869	-0.0004
543.3824	0.0026
543.5779	0.0014
543.7734	-0.0086
543.9688	-0.0085
544.1642	0.0063
544.3596	-0.0056
544.555	-0.0008
544.7504	0.0039
544.9458	-0.0034
545.1411	-0.009
545.3365	-0.0012
545.5318	0.0039
545.7271	0.0017
545.9224	-0.0102
546.1177	0.002
546.3129	-0.0097
546.5081	-0.0143
546.7034	-0.0015
546.8986	0.0026
547.0938	-0.0014
547.289	-0.0021
547.4841	-0.0013
547.6793	-0.005
547.8744	-0.0056
548.0695	-0.001
548.2646	-0.011
548.4597	-0.0093
548.6548	0.0015
548.8498	0.0078
549.0448	0.0026
549.2399	-0.0013
549.4349	-0.002
549.6298	-0.0033
549.8248	-0.0108
550.0198	-0.0011
550.2147	-0.0014
550.4096	0.0101
550.6045	0.0075
550.7994	0.0074
550.9943	0.0015
551.1892	-0.0062
551.384	0.0109
551.5788	0.0017
551.7737	-0.0101
551.9685	0.0035
552.1632	0.0001
552.358	0.0063
552.5528	-0.001
552.7475	-0.0044
552.9422	0.0066
553.1369	0.0064
553.3316	0.0034
553.5263	-0.0075
553.7209	-0.0014
553.9156	0.0137
554.1102	-0.0067
554.3048	0.0027
554.4994	-0.0043
554.694	0.0048
554.8885	-0.0009
555.0831	0.0037
555.2776	-0.0098
555.4721	-0.0146
555.6666	0.0061
555.8611	0.0008
556.0555	0.0019
556.25	-0.0042
556.4444	0.0029
556.6388	-0.009
556.8332	-0.0017
557.0276	0.0072
557.222	-0.013
557.4163	0.0036
557.6107	0.0028
557.805	-0.0143
557.9993	0.0023
558.1936	0.0018
558.3879	0.0003
558.5821	0.0019
558.7764	0.0085
558.9706	-0.0045
559.1648	-0.0093
559.359	0.0092
559.5532	-0.014
559.7473	0.0052
559.9415	0.0015
560.1356	0.006
560.3297	-0.0017
560.5238	0.0022
560.7179	-0.0012
560.9119	0.0122
561.106	0.0006
561.3	0.0012
561.494	0.0063
561.688	-0.001
561.882	0.0018
562.076	-0.0073
562.2699	0.0006
562.4639	-0.0036
562.6578	0.0039
562.8517	0.0078
563.0456	-0.0028
563.2395	0.0009
563.4333	0.0034
563.6272	0.0119
563.821	0.0047
564.0148	-0.0199
564.2086	0.0082
564.4024	-0.0029
564.5961	0.0079
564.7899	-0.0023
564.9836	-0.0067
565.1773	0.0052
565.371	0.0004
565.5647	-0.0045
565.7584	0.009
565.952	0.0004
566.1456	0.0001
566.3393	0.0081
566.5329	-0.0037
566.7264	-0.0024
566.92	-0.0104
567.1136	0.006
567.3071	-0.0019
567.5006	-0.0155
567.6941	0.0053
567.8876	-0.0052
568.0811	-0.0048
568.2745	-0.0062
568.468	0.0055
568.6614	0.002
568.8548	-0.0013
569.0482	0.0022
569.2416	-0.0034
569.4349	0.0029
569.6283	-0.001
569.8216	-0.0055
570.0149	-0.0018
570.2082	-0.0016
570.4015	0.006
570.5947	-0.0051
570.788	-0.0034
570.9812	0.0005
571.1744	-0.0034
571.3676	-0.0049
571.5608	-0.004
571.754	-0.0028
571.9471	0.0064
572.1402	0.003
572.3333	-0.0001
572.5264	0.0007
572.7195	0.0079
572.9126	-0.0013
573.1057	0.0006
573.2987	0.0028
573.4917	-0.0016
573.6847	0.0006
573.8777	0.0001
574.0707	-0.0033
574.2636	0.0017
574.4566	-0.0001
574.6495	0.006
574.8424	0.0035
575.0353	-0.0042
575.2281	0.0029
575.421	-0.0009
575.6138	0.0018
575.8067	0.0016
575.9995	-0.0025
576.1923	0.0013
576.385	-0.0044
576.5778	-0.0031
576.7706	0.0061
576.9633	0.002
577.156	0.0047
577.3487	-0.0038
577.5414	-0.0021
577.734	0.0012
577.9267	-0.001
578.1193	0.0006
578.3119	-0.0008
578.5045	0.0027
578.6971	-0.0028
578.8897	-0.0005
579.0822	0.0048
579.2747	-0.0066
579.4673	-0.0009
579.6598	-0.003
579.8522	0.0033
580.0447	-0.0033
580.2372	0.0043
580.4296	-0.005
580.622	0.0004
580.8144	-0.001
581.0068	0.0021
581.1992	0.003
581.3915	-0.0007
581.5839	0.0015
581.7762	0.0007
581.9685	-0.002
582.1608	0.0017
582.353	-0.0016
582.5453	0.0019
582.7375	0.0024
582.9298	-0.0057
583.122	-0.0027
583.3142	0.0014
583.5063	-0.0007
583.6985	0.0013
583.8906	0.0024
584.0827	0.0009
584.2749	-0.0038
584.4669	0.0027
584.659	-0.0023
584.8511	0.0004
585.0431	-0.0016
585.2352	-0.0032
585.4272	-0.0009
585.6192	-0.0024
585.8111	-0.0069
586.0031	0.0027
586.195	0.0005
586.387	0.003
586.5789	0.0027
586.7708	0.0021
586.9627	-0.0012
587.1545	0.0024
587.3464	0.0024
587.5382	-0.002
587.73	0.0011
587.9218	-0.0027
588.1136	-0.0047
588.3053	-0.001
588.4971	0.0014
588.6888	0.005
588.8805	0.0042
589.0722	0.0033
589.2639	-0.0054
589.4556	-0.0047
589.6472	-0.003
589.8389	-0.0034
590.0305	-0.0016
590.2221	0.0064
590.4137	-0.0074
590.6052	0.002
590.7968	0.0032
590.9883	0.005
591.1798	-0.007
591.3713	-0.0015
591.5628	-0.0041
591.7543	0.0047
591.9458	-0.0009
592.1372	0.0003
592.3286	-0.0015
592.52	-0.0004
592.7114	-0.0074
592.9028	-0.0048
593.0941	-0.0023
593.2855	0.0008
593.4768	0
593.6681	-0.0027
593.8594	-0.0064
594.0506	-0.0022
594.2419	-0.0066
594.4331	-0.0029
594.6244	0.0036
594.8156	-0.0003
595.0067	-0.0012
595.1979	-0.0068
595.3891	-0.0021
595.5802	-0.0061
595.7713	-0.0008
595.9624	0
596.1535	-0.0058
596.3446	-0.0056
596.5357	-0.0028
596.7267	0.0034
596.9177	0.0033
597.1087	0.0007
597.2997	0.0001
597.4907	0.0077
597.6817	0.0034
597.8726	0.001
598.0635	-0.0026
598.2544	-0.0046
598.4453	0.0006
598.6362	-0.0037
598.827	0.0018
599.0179	0.0041
599.2087	-0.0016
599.3995	0.002
599.5903	0.001
599.7811	0
599.9718	-0.0004
600.1626	-0.0015
600.3533	-0.0063
600.544	-0.0007
600.7347	-0.002
600.9254	0.0002
601.116	0.0021
601.3067	0.0024
601.4973	0.0037
601.6879	-0.0071
601.8785	-0.0007
602.0691	0.001
602.2596	-0.0046
602.4502	-0.0031
602.6407	0.0034
602.8312	0.0051
603.0217	0.0044
603.2122	0.0004
603.4027	-0.0007
603.5931	0.0036
603.7835	0.0027
603.9739	0.0007
604.1643	-0.0024
604.3547	0.0034
604.5451	0.0005
604.7354	-0.0028
604.9257	-0.0002
605.116	0.0004
605.3063	-0.0085
605.4966	0.0033
605.6869	-0.004
605.8771	0.0004
606.0673	-0.0032
606.2575	-0.0005
606.4477	0.002
606.6379	-0.0035
606.8281	-0.0027
607.0182	-0.0028
607.2083	-0.0074
607.3985	-0.0006
607.5885	0.0073
607.7786	0.0095
607.9687	-0.0018
608.1587	-0.0009
608.3488	-0.0072
608.5388	0.005
608.7288	0.0001
608.9187	0.0094
609.1087	-0.0001
609.2986	-0.0029
609.4886	0.0048
609.6785	0.005
609.8684	-0.0054
610.0582	0
610.2481	-0.0019
610.4379	0.0002
610.6278	-0.0078
610.8176	-0.005
611.0074	-0.0072
611.1971	0.0043
611.3869	-0.0059
611.5766	-0.0059
611.7664	0.0005
611.9561	-0.0008
612.1458	-0.0044
612.3354	0.0004
612.5251	-0.0046
612.7147	-0.002
612.9044	-0.0086
613.094	0.003
613.2836	-0.0033
613.4731	-0.004
613.6627	0.0008
613.8522	-0.0039
614.0417	0.0049
614.2313	-0.0079
614.4207	0.004
614.6102	-0.0051
614.7997	0.0011
614.9891	-0.0007
615.1785	0.0013
615.3679	0.0029
615.5573	-0.0059
615.7467	-0.0069
615.9361	-0.0041
616.1254	0.0009
616.3147	0.0041
616.504	-0.0019
616.6933	-0.0003
616.8826	0.0036
617.0718	-0.0001
617.2611	-0.0021
617.4503	-0.0044
617.6395	0.0023
617.8287	-0.0048
618.0179	-0.0003
618.207	-0.0052
618.3961	0.0017
618.5853	-0.0001
618.7744	0.0079
618.9634	0.005
619.1525	0.0072
619.3416	-0.0025
619.5306	0.006
619.7196	-0.0055
619.9086	-0.0002
620.0976	-0.009
620.2866	0.0009
620.4755	0.0176
620.6645	-0.0105
620.8534	-0.0074
621.0423	-0.0071
621.2312	-0.0037
621.42	-0.0098
621.6089	0.0073
621.7977	-0.0086
621.9865	0.0157
622.1753	-0.0039
622.3641	-0.0191
622.5529	-0.017
622.7416	-0.0124
622.9303	-0.0018
623.1191	-0.005
623.3078	-0.0066
623.4964	-0.0132
623.6851	0.0111
623.8737	0.006
624.0624	0.0052
624.251	0.0008
624.4396	-0.0051
624.6282	0.0009
624.8167	0.0079
625.0053	-0.0024
625.1938	-0.0016
625.3823	-0.0036
625.5708	-0.0034
625.7593	0.0013
625.9477	-0.0098
626.1362	0.0023
626.3246	-0.0136
626.513	0.0064
626.7014	-0.0087
626.8898	0.0028
627.0781	0.0018
627.2665	0.0058
627.4548	0.0019
627.6431	-0.015
627.8314	-0.0004
628.0197	0.0078
628.2079	-0.0066
628.3962	-0.007
628.5844	0.005
628.7726	-0.0129
628.9608	-0.0055
629.1489	-0.0031
629.3371	-0.0178
629.5252	-0.0029
629.7134	0.0057
629.9015	-0.0109
630.0895	-0.0034
630.2776	-0.0013
630.4657	0.0043
630.6537	0.0001
630.8417	-0.0015
631.0297	-0.0087
631.2177	-0.0051
631.4057	-0.0036
631.5936	-0.0056
631.7815	-0.0055
631.9695	0.0115
632.1574	-0.0109
632.3452	0.0003
632.5331	-0.005
632.7209	-0.0041
632.9088	-0.0065
633.0966	0.0008
633.2844	-0.0073
633.4722	-0.005
633.6599	-0.0212
633.8477	-0.0106
634.0354	0.0101
634.2231	0.0074
634.4108	-0.0139
634.5985	-0.0026
634.7861	-0.0071
634.9738	-0.0051
635.1614	-0.0026
635.349	-0.0037
635.5366	-0.0098
635.7242	-0.0045
635.9117	0.0101
636.0993	-0.0215
636.2868	0.0052
636.4743	0.0066
636.6618	-0.0056
636.8492	-0.0034
637.0367	-0.0108
637.2241	-0
637.4115	-0.0095
637.5989	0.0064
637.7863	-0.0154
637.9737	0.0134
638.161	-0.0008
638.3484	0.017
638.5357	-0.0067
638.723	-0.0091
638.9103	0.0119
639.0975	0.006
639.2848	-0.0043
639.472	-0.0136
639.6592	0.0254
639.8464	0.0036
640.0336	-0.0043
640.2208	-0.0078
640.4079	0.0013
640.595	-0.0112
640.7821	0.0014
640.9692	0.0083
641.1563	0.0128
641.3434	0.0162
641.5304	-0.003
641.7174	0.0052
641.9044	-0.0123
642.0914	-0.0154
642.2784	0.0055
642.4653	-0.0039
642.6523	0.0063
642.8392	0.0061
643.0261	-0.0138
643.213	-0
643.3999	-0.0116
643.5867	-0.0062
643.7735	0.0029
643.9604	-0.0092
644.1472	-0.0038
644.3339	-0.0127
644.5207	-0.009
644.7075	-0.0111
644.8942	0.0258
645.0809	-0.0054
645.2676	-0.0064
645.4543	-0.0008
645.6409	-0.0101
645.8276	-0.0161
646.0142	-0.0022
646.2008	-0.0109
646.3874	0.0227
646.574	-0.031
646.7605	-0.0174
646.9471	0.0235
647.1336	-0.0099
647.3201	0.0068
647.5066	-0.0144
647.6931	0.0069
647.8795	0.0181
648.0659	-0.0072
648.2524	-0.007
648.4388	0.0005
648.6252	-0.0114
648.8115	0.0171
648.9979	-0.0014
649.1842	-0.0184
649.3705	0.0013
649.5568	-0.0101
649.7431	-0.0086
649.9294	-0.0094
650.1156	-0.0137
650.3018	0.0147
650.488	-0.0003
650.6742	0.0084
650.8604	-0.0059
651.0466	-0.0092
651.2327	-0.0167
651.4188	-0.0242
651.6049	-0.0195
651.791	0.0057
651.9771	-0.0113
652.1632	0.0059
652.3492	0.0117
652.5352	0.0061
652.7212	-0.0135
652.9072	-0.0027
653.0932	-0.0036
653.2791	-0.0056
653.465	-0.0162
653.651	0.0154
653.8369	0.0018
654.0227	-0.014
654.2086	-0.0212
654.3944	-0.0301
654.5803	0.002
654.7661	-0.002
654.9519	-0.0011
655.1377	-0
655.3234	-0
655.5092	-0
655.6949	-0
655.8806	-0
656.0663	-0
656.2519	-0
656.4376	-0
656.6232	-0
656.8088	-0
656.9945	-0
657.18	-0
657.3656	-0
657.5511	-0
657.7367	-0
657.9222	-0
658.1077	-0
658.2932	-0
658.4786	-0
658.6641	-0
658.8495	-0
659.0349	-0
659.2203	-0
659.4057	0.0049
659.591	0.0668
659.7764	-0.0076
659.9617	-0.0065
660.147	-0.02
660.3323	0.0041
660.5176	-0.002
660.7028	-0.002
660.888	0.015
661.0733	-0.0038
661.2585	0.0014
661.4436	0.0181
661.6288	0.0033
661.8139	0.0089
661.9991	-0.0111
662.1842	0.0259
662.3693	0.0043
662.5544	0.0149
662.7394	0.0185
662.9245	0.0108
663.1095	0.012
663.2945	-0.0096
663.4795	-0.0017
663.6644	0.0091
663.8494	0.0018
664.0343	-0.0192
664.2193	0.0056
664.4042	-0.0063
664.589	0.0016
664.7739	0.0075
664.9587	-0.0205
665.1436	0.0099
665.3284	-0.0015
665.5132	-0.0057
665.698	-0.0135
665.8827	-0.0218
666.0675	-0.031
666.2522	0.0015
666.4369	-0.016
666.6216	-0.0085
666.8063	-0.0053
666.9909	-0.0172
667.1756	-0.0013
667.3602	-0.0054
667.5448	-0.0007
667.7294	0.0136
667.9139	-0.0274
668.0985	-0.008
668.283	-0.0069
668.4675	-0.0025
668.652	-0.0263
668.8365	-0.0205
669.0209	-0.0318
669.2054	-0.0074
669.3898	-0.0064
669.5742	-0.0031
669.7586	0.0078
669.943	-0.0475
670.1273	0.0056
670.3117	0.0031
670.496	0.0071
670.6803	0.0183
670.8646	0.0029
671.0488	0.0077
671.2331	0.0015
671.4173	0.0054
671.6015	-0.0143
671.7857	-0.0121
671.9699	0.0029
672.1541	-0.0064
672.3382	0.0065
672.5223	-0.0186
672.7064	-0.007
672.8905	-0.003
673.0746	-0.028
673.2587	0.0065
673.4427	-0.0112
673.6267	-0.0217
673.8107	-0.0144
673.9947	-0.0105
674.1787	-0.0052
674.3626	-0.0247
674.5465	0.0069
674.7304	-0.0143
674.9143	0.0141
675.0982	-0.0109
675.2821	-0.0068
675.4659	0.0056
675.6497	0.0135
675.8335	-0.0088
676.0173	0.0181
676.2011	-0.0082
676.3849	0.0096
676.5686	0.0165
676.7523	-0.0089
676.936	-0.021
677.1197	0.0205
677.3034	0.0089
677.487	0.0156
677.6706	-0.0115
677.8542	0.0013
678.0378	-0.0029
678.2214	-0.0167
678.405	-0.0046
678.5885	0.0166
678.772	-0.0021
678.9555	-0.0082
679.139	-0.0075
679.3225	-0.0075
679.5059	-0.0025
679.6894	-0.027
679.8728	-0.0151
680.0562	0.0099
680.2395	-0.0019
680.4229	-0.0236
680.6062	-0.0054
680.7896	0.0161
680.9729	0.0009
681.1562	-0.0045
681.3394	-0
681.5227	-0.0244
681.7059	-0.0162
681.8891	0.0123
682.0723	-0.0061
682.2555	0.0197
682.4387	0.0056
682.6218	-0.023
682.805	-0.0041
682.9881	0.0108
683.1712	-0.0023
683.3542	-0.0307
683.5373	0.0039
683.7203	0.0053
683.9034	-0.0063
684.0864	-0.0081
684.2694	0.0121
684.4523	0.0095
684.6353	0.0013
684.8182	0.002
685.0011	-0.0115
685.184	-0.0122
685.3669	-0.0002
685.5498	0.0173
685.7326	-0.0198
685.9154	0.0012
686.0982	0.0018
686.281	0.0002
686.4638	-0.0062
686.6465	-0.0073
686.8293	-0.0008
687.012	-0.0092
687.1947	-0.0076
687.3774	-0.0149
687.56	-0.0043
687.7427	-0.0161
687.9253	0.0143
688.1079	0.0299
688.2905	0.0086
688.4731	0.0135
688.6556	-0.0167
688.8382	0.0072
689.0207	-0.0205
689.2032	-0.0141
689.3857	-0.0245
689.5681	-0.0091
689.7506	0.0009
689.933	-0.0234
690.1154	-0.0033
690.2978	0.0003
690.4802	0.0025
690.6626	-0.0321
690.8449	-0.0032
691.0272	-0.0223
691.2095	-0.0056
691.3918	-0.0095
691.5741	0.0053
691.7563	0.0165
691.9386	-0.0161
692.1208	-0.0206
692.303	0.0128
692.4852	0.0118
692.6673	-0.0008
692.8495	-0.0198
693.0316	0.0086
693.2137	0.0417
693.3958	-0.0038
693.5778	-0.0149
693.7599	-0.0331
693.9419	0.0054
694.1239	-0.0346
694.3059	-0.0025
694.4879	-0.0261
694.6699	-0.0087
694.8518	0.015
695.0337	-0.0148
695.2157	0.0012
695.3975	0.0061
695.5794	-0.0314
695.7613	0.0004
695.9431	-0.0233
696.1249	-0.0092
696.3067	-0.0045
696.4885	-0.0139
696.6703	-0.0008
696.852	-0.0039
697.0337	-0.0027
697.2154	0.0023
697.3971	0.0096
697.5788	0.0384
697.7605	-0.0074
697.9421	-0.014
698.1237	-0.0053
698.3053	-0.0103
698.4869	0.0016
698.6685	0.0006
698.85	-0.0132
699.0315	0.0072
699.213	-0.0019
699.3945	0.0156
699.576	0.0073
699.7575	-0.0154
699.9389	-0.006
700.1203	-0.0166
700.3017	-0.0338
700.4831	-0.0257
700.6645	-0.006
700.8458	0.011
701.0271	-0.0127
701.2084	-0.0232
701.3897	-0.008
701.571	-0.0176
701.7523	-0.0392
701.9335	0.0209
702.1147	-0.017
702.2959	0.0116
702.4771	-0.0013
702.6583	0.0033
702.8394	-0.0085
703.0205	-0.0159
703.2016	-0.0236
703.3827	0.0063
703.5638	-0
703.7449	-0.0178
703.9259	-0.0132
704.1069	0.007
704.2879	0.0175
704.4689	0.0215
704.6499	-0.0235
704.8308	-0.0194
705.0117	-0.0388
705.1927	0.0041
705.3735	0.0137
705.5544	0.0084
705.7353	0.0108
705.9161	0.015
706.0969	0.0006
706.2777	-0.0187
706.4585	0.01
706.6393	0.0027
706.82	-0.0149
707.0007	0.0046
707.1815	0.0206
707.3621	-0.0005
707.5428	0.0138
707.7235	0.0061
707.9041	-0.04
708.0847	-0.0183
708.2653	-0.0132
708.4459	0.0021
708.6265	-0.033
708.807	-0.0059
708.9875	-0.0048
709.168	-0.0092
709.3485	-0.0025
709.529	-0.0053
709.7095	-0.0168
709.8899	0.0266
710.0703	-0.0144
710.2507	-0.0133
710.4311	-0.0113
710.6115	-0.0159
710.7918	-0.0112
710.9721	-0.0132
711.1524	0.0011
711.3327	-0.0139
711.513	-0.0189
711.6932	-0.0265
711.8735	-0.0176
712.0537	-0.0021
712.2339	-0.0131
712.4141	0.0015
712.5942	0.0007
712.7744	-0.0021
712.9545	-0.0043
713.1346	-0.0193
713.3147	0.0095
713.4947	-0.002
713.6748	-0.0022
713.8548	-0.0048
714.0348	0.0214
714.2148	-0.0093
714.3948	0.0006
714.5748	-0.029
714.7547	0.0057
714.9346	-0.019
715.1145	0.0091
715.2944	0.0078
715.4743	-0.0264
715.6541	-0.0267
715.834	0.0162
716.0138	0.0365
716.1936	-0.021
716.3733	0.0051
716.5531	-0.0137
716.7328	-0.0153
716.9126	-0.0211
717.0923	-0.0021
717.2719	-0.0194
717.4516	-0.0244
717.6312	-0.0507
717.8109	0.0155
717.9905	0.0114
718.1701	-0.0252
718.3496	0.0079
718.5292	0.0019
718.7087	0.0037
718.8882	-0.0011
719.0677	-0.0435
719.2472	0.0219
719.4267	-0.0119
719.6061	-0.0026
719.7856	0.0043
719.965	0.0097
720.1443	-0.0164
720.3237	0.0324
720.5031	0.0053
720.6824	-0.005
720.8617	0.0003
721.041	0.0115
721.2203	-0
721.3995	-0.0071
721.5788	-0.018
721.758	-0.023
721.9372	-0.0157
722.1164	0.018
722.2956	0.0168
722.4747	-0.0083
722.6538	-0.0147
722.8329	-0.0216
723.012	0.0142
723.1911	-0.0104
723.3702	-0.0315
723.5492	-0.0175
723.7282	0.0108
723.9072	-0.043
724.0862	-0.0069
724.2652	0.0134
724.4441	-0.0105
724.623	-0.0362
724.8019	-0.0029
724.9808	-0.0043
725.1597	-0.0252
725.3385	-0.007
725.5174	0.0263
725.6962	0.016
725.875	-0.0054
726.0538	0.0014
726.2325	-0.004
726.4112	0.0082
726.59	0.0157
726.7687	0.0028
726.9474	-0.0055
727.126	-0.0303
727.3047	0.0074
727.4833	0.0125
727.6619	0.0252
727.8405	0.0031
728.0191	-0.0324
728.1976	-0.0447
728.3762	-0.0128
728.5547	-0
728.7332	-0.0113
728.9116	-0.0469
729.0901	0.0259
729.2686	-0.0226
729.447	-0.0103
729.6254	0.0095
729.8038	-0.0303
729.9821	0.0136
730.1605	-0.0173
730.3388	-0.0259
730.5171	-0.0246
730.6954	0.0195
730.8737	-0.0022
731.0519	0.0102
731.2302	-0.0134
731.4084	-0.0089
731.5866	-0.0202
731.7648	-0.0157
731.9429	-0.0028
732.1211	-0.0176
732.2992	-0.0092
732.4773	-0.0184
732.6554	-0.005
732.8335	0.0008
733.0115	0.0028
733.1896	-0.0264
733.3676	-0.0025
733.5456	-0.0118
733.7235	-0.0029
733.9015	-0.0097
734.0794	-0.0074
734.2574	-0.0072
734.4353	0.0077
734.6131	0.0122
734.791	0.0083
734.9689	-0.0065
735.1467	-0.0162
735.3245	0.0056
735.5023	0.003
735.68	-0.0009
735.8578	-0.0256
736.0355	-0.0081
736.2132	-0.0014
736.3909	-0.0239
736.5686	0.0022
736.7463	-0.0119
736.9239	-0.0063
737.1015	0.0071
737.2791	-0.0189
737.4567	-0.0073
737.6343	0.0131
737.8118	0.0007
737.9894	-0.0143
738.1669	-0.0139
738.3444	-0.0016
738.5218	0.0215
738.6993	-0.0154
738.8767	-0.0064
739.0541	-0.0114
739.2315	-0.0035
739.4089	0.0063
739.5863	-0.0142
739.7636	0.015
739.9409	-0.0066
740.1182	-0.0242
740.2955	-0.0277
740.4728	0.0103
740.65	-0.0323
740.8272	-0.0335
741.0044	0.0241
741.1816	-0.0011
741.3588	0.0187
741.5359	-0.0221
741.7131	-0.0097
741.8902	-0.0208
742.0673	0.0129
742.2444	-0.0184
742.4214	-0.0127
742.5985	-0.0155
742.7755	0.005
742.9525	0.0064
743.1295	-0.0201
743.3064	0.0201
743.4834	0.0108
743.6603	-0.0086
743.8372	-0.0196
744.0141	0.0355
744.191	-0.0126
744.3678	0.0109
744.5446	-0.013
744.7215	-0.0196
744.8982	-0.0057
745.075	-0.0019
745.2518	-0.0291
745.4285	-0.0088
745.6052	0.01
745.7819	-0.0048
745.9586	0.0109
746.1353	-0.013
746.3119	-0.0239
746.4885	-0.0177
746.6651	-0.0407
746.8417	-0.0357
747.0183	-0.0094
747.1948	-0.0085
747.3714	0.0173
747.5479	-0.009
747.7244	-0.0679
747.9008	0.008
748.0773	-0.0333
748.2537	0.0198
748.4301	-0.0156
748.6065	-0.0325
748.7829	-0.0044
748.9593	-0.0203
749.1356	-0.006
749.3119	-0.008
749.4882	0.0035
749.6645	0.0067
749.8408	-0.0263
750.017	-0.0324
750.1933	0.03
750.3695	0.0149
750.5457	-0.0244
750.7218	-0.0086
750.898	-0.0197
751.0741	-0.0095
751.2502	-0.0044
751.4263	0.0098
751.6024	0.0201
751.7784	-0.0173
751.9545	-0.0236
752.1305	0.0015
752.3065	0.0438
752.4825	-0.0129
752.6584	-0.0157
752.8344	0.0163
753.0103	-0.0413
753.1862	-0.0014
753.3621	-0.0212
753.5379	0.0021
753.7138	-0.0338
753.8896	0.0037
754.0654	-0.0051
754.2412	0.0313
754.417	-0.0124
754.5927	-0.0071
754.7685	-0.0231
754.9442	-0.0121
755.1199	0.0033
755.2956	0.0054
755.4712	-0.0095
755.6469	-0.0045
755.8225	-0.0009
755.9981	-0.0154
756.1736	0.0245
756.3492	-0.0179
756.5248	-0.0102
756.7003	-0.0053
756.8758	-0.0178
757.0513	-0.0207
757.2267	-0.0197
757.4022	-0.0113
757.5776	-0.0076
757.753	-0.0069
757.9284	0.0022
758.1038	-0.0097
758.2791	-0.0088
758.4545	-0.017
758.6298	-0.0165
758.8051	0.0068
758.9803	0.0015
759.1556	-0.0191
759.3308	-0.0113
759.506	0.0163
759.6812	-0.0071
759.8564	-0.0167
760.0316	0.0012
760.2067	-0.018
760.3819	0.0074
760.557	-0.0062
760.732	0.0055
760.9071	-0.0111
761.0821	0.019
761.2572	0.0085
761.4322	-0.0153
761.6072	-0.0254
761.7821	0.0154
761.9571	0.0157
762.132	-0.0079
762.3069	-0.0094
762.4818	-0.0074
762.6567	-0.0101
762.8316	-0.0185
763.0064	-0.0141
763.1812	-0.0252
763.356	-0.0042
763.5308	-0.0075
763.7055	-0.0135
763.8803	-0.0069
764.055	-0.0191
764.2297	-0.0128
764.4044	-0.0063
764.579	-0.0075
764.7537	0.001
764.9283	-0.0285
765.1029	0.0093
765.2775	-0.007
765.4521	-0.0138
765.6266	-0.0149
765.8011	-0.021
765.9756	-0.012
766.1501	0.0325
766.3246	-0.0245
766.4991	-0.0287
766.6735	-0.0182
766.8479	-0.0113
767.0223	0.0271
767.1967	-0.022
767.371	-0.0027
767.5454	0.0058
767.7197	-0.0005
767.894	-0.0154
768.0683	-0.005
768.2425	0.015
768.4168	0.0085
768.591	-0.006
768.7652	-0.024
768.9394	-0.0004
769.1135	-0.0113
769.2877	0.0263
769.4618	0.0224
769.6359	-0.0097
769.81	0.0083
769.984	0.003
770.1581	-0.0101
770.3321	-0.0169
770.5061	0.0057
770.6801	-0.0057
770.8541	-0.0074
771.028	-0.0135
771.202	-0.05
771.3759	-0.0075
771.5498	0.0066
771.7236	-0.0293
771.8975	-0.0132
772.0713	-0.0015
772.2451	-0.0127
772.4189	0.0055
772.5927	-0.0174
772.7665	0.0339
772.9402	0.0021
773.1139	0.024
773.2876	-0.0114
773.4613	-0.0128
773.635	-0.0287
773.8086	-0.026
773.9822	0.0148
774.1558	-0.0231
774.3294	-0.0554
774.503	0.0062
774.6765	0.018
774.8501	0.006
775.0236	0.042
775.1971	-0.0363
775.3705	-0.0415
775.544	-0.0115
775.7174	-0.0365
775.8908	0.0493
776.0642	-0.0279
776.2376	-0.0357
776.4109	0.0222
776.5843	0.0026
776.7576	-0.0035
776.9309	0.0378
777.1041	-0.021
777.2774	-0.0284
777.4506	-0.0284
777.6238	0.0138
777.797	-0.0263
777.9702	0.0064
778.1434	-0.0258
778.3165	-0.0435
778.4896	-0.0231
778.6627	0.0207
778.8358	-0.0226
779.0089	-0.0223
779.1819	-0.0246
779.3549	0.0347
779.5279	-0.0343
779.7009	-0.0267
779.8739	-0.0186
780.0468	-0.0157
780.2197	-0.0275
780.3926	-0.0169
780.5655	-0.0129
780.7384	0.0031
780.9112	-0.0154
781.0841	0.0009
781.2569	-0.0232
781.4297	-0.004
781.6024	-0.0163
781.7752	-0.0291
781.9479	-0.0276
782.1206	-0.0259
782.2933	-0.012
782.466	-0.0481
782.6386	-0.0118
782.8113	-0.0223
782.9839	0.008
783.1565	-0.0136
783.329	-0.0207
783.5016	0.0018
783.6741	-0.0184
783.8466	-0.0867
784.0191	0.0299
784.1916	-0.0337
784.3641	-0.0148
784.5365	0.0368
784.7089	0.0056
784.8813	-0.0001
785.0537	-0.0037
785.2261	-0.0212
785.3984	-0.0052
785.5707	0.0228
785.743	-0.0586
785.9153	0.0048
786.0876	-0.0353
786.2598	-0.0015
786.432	-0.0241
786.6042	0.0512
786.7764	0.0023
786.9486	0.017
787.1207	0.0142
787.2928	-0.0219
787.4649	0.0051
787.637	0.0017
787.8091	-0.0136
787.9811	-0
788.1532	0.0174
788.3252	-0.0349
788.4972	-0.0366
788.6691	0.0148
788.8411	0.0023
789.013	-0.0218
789.1849	-0.0029
789.3568	0.0232
789.5287	-0.0553
789.7005	0.0354
789.8723	-0.0547
790.0442	-0.0852
790.2159	0.0116
790.3877	0.0121
790.5595	0.0582
790.7312	-0.0126
790.9029	-0.017
791.0746	0.0254
791.2463	0.0043
791.4179	-0.07
791.5896	-0.029
791.7612	-0.0601
791.9328	-0.014
792.1044	-0.0218
792.2759	0.0135
792.4474	-0.0467
792.619	0.0346
792.7905	0.0222
792.9619	-0.0057
793.1334	-0.0436
793.3048	-0.0186
793.4762	-0.051
793.6476	-0.0392
793.819	-0.051
793.9904	0.0023
794.1617	0.0341
794.333	-0.0214
794.5043	-0.0141
794.6756	0.0187
794.8469	0.016
795.0181	0.0168
795.1893	-0.0014
795.3605	-0.0571
795.5317	0.0187
795.7029	0.0114
795.874	-0.0113
796.0452	-0.0216
796.2163	-0.0001
796.3873	-0.0219
796.5584	-0.008
796.7294	-0.0286
796.9005	-0.0545
797.0715	0.0396
797.2425	-0.0193
797.4134	-0.0339
797.5844	0.0882
797.7553	-0.0319
797.9262	-0.0184
798.0971	-0.0634
798.2679	0.0455
798.4388	-0.0514
798.6096	-0.0621
798.7804	-0.0115
798.9512	-0.0119
799.122	0.021
799.2927	-0.0885
799.4635	0.1111
799.6342	-0.024
799.8049	0.0584
799.9755	-0.0357
800.1462	-0.0287
800.3168	-0.0315
800.4874	0.007
800.658	0.0164
800.8286	0.0282
800.9991	0.048
801.1696	-0.022
801.3402	-0.0969
801.5106	-0.1882
801.6811	-0.053
801.8516	-0.002
802.022	-0.0002
802.1924	-0.1267
802.3628	-0.0593
802.5332	-0.0101
802.7035	-0.0973
802.8739	-0.0002
803.0442	-0.0206
803.2145	-0.0947
803.3847	-0.0756
803.555	-0.0284
803.7252	-0.0018
803.8954	0.0211
804.0656	-0.0485
804.2358	0.0221
804.4059	0.0544
804.5761	0.0578
804.7462	0.0093
804.9163	-0.1447
805.0864	-0.0741
805.2564	-0.0869
805.4264	-0.0426
805.5965	-0.006
805.7665	0.0462
805.9364	-0.0729
806.1064	0.0012
806.2763	0.0792
806.4462	-0.0357
806.6161	-0.0295
806.786	0.0413
806.9559	0.08
807.1257	-0.0137
807.2955	-0.0094
807.4653	-0.0001
807.6351	0.0332
807.8048	-0.0611
807.9746	-0.0178
808.1443	0.0161
808.314	0.0237
808.4837	-0.0284
808.6533	-0.0286
808.8229	-0.0495
808.9926	-0.0375
809.1622	0.0037
809.3317	-0.0935
809.5013	0.035
809.6708	0.0721
809.8403	0.0398
810.0098	0.1569
810.1793	0.0804
810.3488	0.0065
810.5182	-0.0859
810.6876	-0.0021
810.857	0.0164
811.0264	-0.0788
811.1958	-0.0277
811.3651	-0.0604
811.5344	-0.1039
811.7037	0.0855
811.873	0.0687
812.0422	0.0141
812.2115	-0.0421
812.3807	0.0836
812.5499	0.0339
812.7191	-0.0738
812.8882	-0.1272
813.0574	-0.1023
813.2265	0.1484
813.3956	0.0587
813.5646	0.1077
813.7337	-0.0432
813.9027	-0.0302
814.0718	-0.014
814.2407	-0.141
814.4097	0.0047
814.5787	0.0073
814.7476	0.0462
814.9165	0.0079
815.0854	-0.0339
815.2543	-0.0861
815.4232	-0.0448
815.592	0.0865
815.7608	0.0985
815.9296	0.0457
816.0984	-0.0003
816.2671	-0.04
816.4359	0.038
816.6046	-0.0398
816.7733	0.0565
816.942	0.1207
817.1106	-0.1842
817.2793	-0.0981
817.4479	-0.0821
817.6165	-0.0503
817.785	0.0499
817.9536	0.0689
818.1221	-0.023
818.2906	0.1375
818.4591	-0.0865
818.6276	-0.0171
818.7961	0.081
818.9645	-0.0655
819.1329	0.4008
819.3013	-0.0288
819.4697	0.0694
819.638	0.0794
819.8064	-0.1101
819.9747	-0.0472
820.143	0.0171
820.3113	0.1564
820.4795	-0.0329
820.6477	-0.0337
820.816	-0.0689
820.9842	-0.0751
821.1523	0.1091
821.3205	-0.1221
821.4886	-0.0267
821.6567	0.0751
821.8248	-0.0172
821.9929	-0.0584
822.1609	0.026
822.329	0.1725
822.497	-0.0336
822.665	0.033
822.833	0.0671
823.0009	-0.1805
823.1688	-0.0551
823.3367	-0.1158
823.5046	0.0804
823.6725	0.1013
823.8404	-0.0948
824.0082	0.0225
824.176	-0.0456
824.3438	-0.0042
824.5116	0.1325
824.6793	-0.1068
824.847	0.1351
825.0147	0.089
825.1824	-0.052
825.3501	0.4202
825.5177	0.088
825.6854	0.1695
825.853	0.0371
826.0206	-0.063
826.1881	-0.0237
826.3557	0.2916
826.5232	0.158
826.6907	0.0784
826.8582	0.0184
827.0257	-0.0568
827.1931	-0.003
827.3605	-0.1341
827.528	-0.0748
827.6953	0.0719
827.8627	-0.0776
828.03	0.0504
828.1974	-0.0827
828.3647	0.0749
828.532	0.1194
828.6992	-0.0252
828.8665	-0.0441
829.0337	-0.0987
829.2009	0.0414
829.3681	0.0645
829.5352	0.2262
829.7024	0.0784
829.8695	-0.0987
830.0366	0.1403
830.2037	-0.0151
830.3707	-0.0405
830.5378	0.0625
830.7048	-0.2444
830.8718	-0.0236
831.0388	0.1395
831.2057	-0.1983
831.3727	-0.0629
831.5396	-0.0629
831.7065	0.2985
831.8734	-0.4586
832.0402	0.1268
832.2071	0.0387
832.3739	0.222
832.5407	-0
832.7075	0.1567
832.8742	0.3596
833.041	0.412
833.2077	-0
833.3744	0.0707
833.541	-0.0123
833.7077	0.566
833.8743	-0.0354
834.0409	-0.0876
834.2075	-0.0225
834.3741	-0.0044
834.5407	0.0212
834.7072	0.2611
834.8737	0.0405
835.0402	-0.2877
835.2067	0.0648
835.3731	-0.0518
835.5395	0.0358
835.706	-0.0648
835.8723	-0.1077
836.0387	0.2664
836.2051	-0.1285
836.3714	-0.2395
836.5377	0.0344
836.704	0.0101
836.8703	-0.1062
837.0365	-0.085
837.2027	-0.1592
837.3689	0.1431
837.5351	-0.407
837.7013	-0.1118
837.8674	-1.1067
838.0335	0.0986
838.1997	0.369
838.3657	-0
838.5318	-0.3918
838.6978	0.2702
838.8639	0.0219
839.0299	0.1354
839.1958	-0.1392
839.3618	0.1442
839.5277	-0.0009
839.6937	-0.4952
839.8596	-0.0006
840.0254	0.2106
840.1913	0.56
840.3571	-0.1182
840.523	0.0217
840.6888	-0.0448
840.8545	-0.0125
841.0203	-0.1192
841.186	-0.0005
841.3517	0.2528
841.5174	0.1577
841.6831	0.1726
841.8488	-0.12
842.0144	0.369
842.18	-0.1759
842.3456	0.431
842.5112	-0.4139
842.6767	-0.0601
842.8422	-0.0864
843.0077	0.1322
843.1732	-0.1948
843.3387	0.4147
843.5042	-0.0374
843.6696	-0.5716
843.835	0.4405
844.0004	-0.1282
844.1657	0.4324
844.3311	0.1673
844.4964	-0.043
844.6617	-0
844.827	0.2084
844.9923	-0.0672
845.1575	-0
845.3227	-0.0009
845.4879	-0.1103
845.6531	-0.2665
845.8183	-0
845.9834	0.5485
846.1485	-0.032
846.3136	0.2159
846.4787	0.1417
846.6438	0.3899
846.8088	-0
846.9738	-0.2114
847.1388	0.1153
847.3038	-0.0374
847.4687	-0
847.6337	0.9992
847.7986	0.5365
847.9635	-0.0125
848.1284	0.5485
848.2932	-0.3925
848.458	-0.332
848.6228	0.6295
848.7876	0.4806
848.9524	-0.2181
849.1172	-0.3286
849.2819	-0
849.4466	-0.3267
849.6113	0.5518
849.7759	-0
849.9406	0.1667
850.1052	-0.141
850.2698	-0.5399
850.4344	0.4023
850.599	0.1964
850.7635	-0.1758
850.928	0.2775
851.0925	-0.3234
851.257	-0.4499
851.4215	-0.4126
851.5859	-0.0473
851.7503	-0
851.9147	-0
852.0791	-0.5438
852.2434	-0.0299
852.4078	-0
852.5721	0.6503
852.7364	0.4589
852.9007	-0.1477
853.0649	0.5167
853.2291	-0
853.3934	0.2254
853.5575	-0.1093
853.7217	-0.002
853.8859	0.9432
854.05	-0.8855
854.2141	-0
854.3782	0.0881
854.5423	0.273
854.7063	-0.0096
854.8703	1.2642
855.0343	0.3171
855.1983	-0.1536
855.3623	-0.1651
855.5262	-0.7895
855.6901	0.1983
855.854	0.2186
856.0179	-0
856.1818	-0
856.3456	-0.0375
856.5094	-0
856.6732	-0.1097
856.837	0.7458
857.0008	0.3144
857.1645	-0
857.3282	0.5893
857.4919	-0.1375
857.6556	0.6089
857.8192	-0.2489
857.9828	-0.6273
858.1465	0.1029
858.31	-0
858.4736	0.0598
858.6372	-0.2513
858.8007	-1.3908
858.9642	0.4485
859.1277	-0.1387
859.2911	0.1055
859.4546	1.1406
859.618	0.5857
859.7814	0.2391
859.9448	-0
860.1081	-0
860.2715	-0.1877
860.4348	-0.0897
860.5981	0.1148
860.7614	-0
860.9246	-0.045
861.0879	-0.1544
861.2511	-0
861.4143	2.0243
861.5774	0.1776
861.7406	-0.6758
861.9037	-0
862.0668	-0
862.2299	-0
862.393	-0
862.556	-0.1619
862.7191	0.1321
862.8821	-0.0236
863.0451	-0.0894
863.208	1.0289
863.371	-0.1065
863.5339	-0.1665
863.6968	-0.1982
863.8597	-0
864.0225	-0.3041
864.1854	-0.1769
864.3482	-0.1335
864.511	-0.2798
864.6737	0.7835
864.8365	0.7235
864.9992	-0
865.1619	0.957
865.3246	-0.0598
865.4873	-0
865.65	-0.7744
865.8126	-0
865.9752	-0.4195
866.1378	-0.4886
866.3004	0.9711
866.4629	0.2484
866.6254	-0.426
866.7879	0.2076
866.9504	-0
867.1129	0.6385
867.2753	-0.1991
867.4377	0.2983
867.6001	0.5698
867.7625	0.3696
867.9249	0.9103
868.0872	-0
868.2495	-0.002
868.4118	0.5343
868.5741	-0
868.7363	0.1733
868.8986	-0.2623
869.0608	-0
869.223	0.2144
869.3851	-0
869.5473	-1.6316
869.7094	-0.2414
869.8715	-0
870.0336	0.208
870.1957	-0
870.3577	0.1991
870.5197	0.207
870.6817	-0
870.8437	0.4467
871.0057	-0
871.1676	0.2059
871.3295	0.3087
871.4914	-0
871.6533	-0
871.8151	-0.426
871.977	0.0068
872.1388	-0.6131
872.3006	0.2896
872.4623	0.1645
872.6241	-1.727
872.7858	-0.3766
872.9475	-0.7578
873.1092	0.3616
873.2709	0.0848
873.4325	-0
873.5941	-0.4582
873.7557	-0.6281
873.9173	-0.2924
874.0789	0.2016
874.2404	0.3449
874.4019	0.0078
874.5634	0.7537
874.7249	-0.2571
874.8863	-0.6672
875.0478	0.0891
875.2092	0.6008
875.3706	-0
875.5319	-0
875.6933	-0.2346
875.8546	-0
876.0159	-0.3401
876.1772	-0.6633
876.3385	-0
876.4997	-0
876.6609	-0.9198
876.8221	1.0457
876.9833	-0.1404
877.1445	-0.1481
877.3056	-0.2909
877.4667	-1.142
877.6278	-0
877.7889	-0
877.9499	-0.5342
878.111	-0.0285
878.272	-0
878.433	0.3522
878.5939	-0
878.7549	-0.1249
878.9158	-0
879.0767	-0
879.2376	-0
879.3984	-0.1494
879.5593	-0.1303
879.7201	-0.3756
879.8809	-0.0495
880.0417	-0.1846
880.2024	0.4503
880.3632	-0.0014
880.5239	-0
880.6846	-0.2195
880.8452	0.2916
881.0059	-0.6411
881.1665	0.1401
881.3271	1.6639
881.4877	0.0866
881.6483	-1.4402
881.8088	-0.4611
881.9693	-0
882.1298	-0
882.2903	-0
