Data from D4ACN5uM480nmA_Absorbance_12-08-00-040.txt Node
Date: Fri Feb 21 12:08:00 GMT 2025
User: LASERRRRR
Spectrometer: FLMT03099
Trigger mode: 0
Integration Time (sec): 1.500000E-2
Scans to average: 1
Electric dark correction enabled: true
Nonlinearity correction enabled: false
Boxcar width: 0
XAxis mode: Wavelengths
Number of Pixels in Spectrum: 3648
>>>>>Begin Spectral Data<<<<<
179.3399	0.5071
179.5586	0.5071
179.7771	0.5071
179.9957	0.1654
180.2143	-0.2739
180.4329	-0
180.6514	-0
180.8699	-0
181.0885	-0.1703
181.307	0.363
181.5255	0.0712
181.744	-0.0062
181.9625	0.0496
182.181	-0
182.3994	-0
182.6179	-0
182.8363	1.1492
183.0547	-0
183.2732	0.2686
183.4916	0.4273
183.71	0.2307
183.9284	0.2112
184.1467	-0.0758
184.3651	0.2953
184.5835	-0.0739
184.8018	0.1083
185.0201	0.1845
185.2385	0.1012
185.4568	0.4253
185.6751	0.1143
185.8934	0.4931
186.1117	0.1688
186.3299	0.4552
186.5482	0.1873
186.7664	0.3646
186.9847	0.1429
187.2029	0.0983
187.4211	0.168
187.6393	0.2722
187.8575	-0.0235
188.0757	0.502
188.2939	0.2938
188.512	0.3904
188.7302	0.0224
188.9483	0.2679
189.1665	0.2618
189.3846	0.2089
189.6027	0.0536
189.8208	0.2429
190.0389	0.2443
190.257	0.1675
190.475	0.3008
190.6931	0.3779
190.9111	0.349
191.1292	0.3053
191.3472	0.3056
191.5652	2.8654
191.7832	0.2929
192.0012	0.6805
192.2192	0.1156
192.4371	0.1951
192.6551	0.2759
192.873	0.2717
193.091	0.3826
193.3089	0.2246
193.5268	0.4589
193.7447	0.413
193.9626	0.3839
194.1805	0.4865
194.3984	0.2423
194.6162	0.5861
194.8341	0.6629
195.0519	0.5715
195.2697	0.6395
195.4875	0.6494
195.7054	0.5827
195.9231	0.4271
196.1409	0.5755
196.3587	0.6017
196.5765	0.5272
196.7942	0.6188
197.012	0.5859
197.2297	0.4857
197.4474	0.6493
197.6651	0.5861
197.8828	0.6161
198.1005	0.6242
198.3182	0.5827
198.5358	0.6586
198.7535	0.6048
198.9711	0.5399
199.1888	0.608
199.4064	0.5504
199.624	0.5525
199.8416	0.5119
200.0592	0.5892
200.2767	0.4526
200.4943	0.6196
200.7119	0.622
200.9294	0.5515
201.1469	0.6766
201.3645	0.6415
201.582	0.5523
201.7995	0.6166
202.017	0.5138
202.2344	0.5577
202.4519	0.5713
202.6694	0.5537
202.8868	0.5188
203.1042	0.5081
203.3217	0.5209
203.5391	0.5311
203.7565	0.5091
203.9739	0.5076
204.1913	0.5102
204.4086	0.5621
204.626	0.524
204.8433	0.5183
205.0607	0.4863
205.278	0.5068
205.4953	0.4882
205.7126	0.458
205.9299	0.5206
206.1472	0.5083
206.3644	0.4721
206.5817	0.4585
206.7989	0.4647
207.0162	0.4845
207.2334	0.4329
207.4506	0.4506
207.6678	0.452
207.885	0.4396
208.1022	0.4359
208.3194	0.4259
208.5365	0.4512
208.7537	0.4455
208.9708	0.435
209.1879	0.431
209.405	0.4483
209.6222	0.3863
209.8392	0.4483
210.0563	0.4373
210.2734	0.404
210.4905	0.4166
210.7075	0.427
210.9245	0.393
211.1416	0.4214
211.3586	0.423
211.5756	0.4055
211.7926	0.4056
212.0096	0.3827
212.2265	0.4055
212.4435	0.4179
212.6604	0.37
212.8774	0.4128
213.0943	0.4083
213.3112	0.4111
213.5281	0.4036
213.745	0.4075
213.9619	0.3972
214.1788	0.4198
214.3956	0.4323
214.6125	0.3991
214.8293	0.4018
215.0461	0.4196
215.2629	0.3942
215.4798	0.4063
215.6965	0.3862
215.9133	0.4118
216.1301	0.396
216.3469	0.3958
216.5636	0.4075
216.7803	0.4257
216.9971	0.4299
217.2138	0.4119
217.4305	0.4113
217.6472	0.4149
217.8639	0.423
218.0805	0.433
218.2972	0.416
218.5138	0.4231
218.7305	0.4237
218.9471	0.4047
219.1637	0.4174
219.3803	0.4143
219.5969	0.4211
219.8135	0.4191
220.0301	0.4376
220.2466	0.4353
220.4632	0.4207
220.6797	0.4455
220.8962	0.4354
221.1127	0.4388
221.3292	0.4335
221.5457	0.4303
221.7622	0.4382
221.9787	0.427
222.1951	0.436
222.4116	0.4343
222.628	0.4471
222.8444	0.4423
223.0608	0.4364
223.2772	0.432
223.4936	0.4309
223.71	0.4373
223.9264	0.4403
224.1427	0.4544
224.3591	0.4604
224.5754	0.4713
224.7917	0.4474
225.008	0.4453
225.2243	0.4633
225.4406	0.4557
225.6569	0.4467
225.8732	0.4535
226.0894	0.4706
226.3057	0.4517
226.5219	0.4714
226.7381	0.4681
226.9543	0.4782
227.1705	0.476
227.3867	0.4943
227.6029	0.4747
227.8191	0.4895
228.0352	0.4972
228.2513	0.5006
228.4675	0.4769
228.6836	0.4923
228.8997	0.4901
229.1158	0.4871
229.3319	0.4941
229.548	0.497
229.764	0.5099
229.9801	0.4971
230.1961	0.5041
230.4121	0.5071
230.6282	0.5052
230.8442	0.5106
231.0602	0.5088
231.2761	0.5205
231.4921	0.5065
231.7081	0.5086
231.924	0.5064
232.14	0.5319
232.3559	0.5181
232.5718	0.5237
232.7877	0.5305
233.0036	0.5143
233.2195	0.5239
233.4353	0.5403
233.6512	0.5314
233.867	0.5396
234.0829	0.5397
234.2987	0.5316
234.5145	0.5325
234.7303	0.5292
234.9461	0.5303
235.1619	0.5383
235.3776	0.5213
235.5934	0.5295
235.8091	0.5278
236.0249	0.5259
236.2406	0.5413
236.4563	0.5439
236.672	0.5288
236.8877	0.541
237.1034	0.5364
237.319	0.5373
237.5347	0.5222
237.7503	0.5417
237.966	0.5313
238.1816	0.544
238.3972	0.5347
238.6128	0.5377
238.8284	0.5466
239.0439	0.5458
239.2595	0.534
239.475	0.5264
239.6906	0.5249
239.9061	0.5202
240.1216	0.515
240.3371	0.5189
240.5526	0.522
240.7681	0.518
240.9836	0.5162
241.199	0.5218
241.4145	0.5082
241.6299	0.5012
241.8453	0.4923
242.0607	0.4951
242.2761	0.4788
242.4915	0.4756
242.7069	0.4688
242.9223	0.4606
243.1376	0.4489
243.353	0.4453
243.5683	0.4372
243.7836	0.4176
243.9989	0.4245
244.2142	0.4194
244.4295	0.4075
244.6448	0.394
244.86	0.3885
245.0753	0.3837
245.2905	0.3785
245.5057	0.3738
245.721	0.3547
245.9362	0.3496
246.1514	0.3347
246.3665	0.3405
246.5817	0.3261
246.7969	0.3213
247.012	0.3271
247.2271	0.3125
247.4423	0.3045
247.6574	0.3063
247.8725	0.2938
248.0876	0.2897
248.3026	0.2849
248.5177	0.2784
248.7328	0.2783
248.9478	0.2684
249.1628	0.2741
249.3779	0.2651
249.5929	0.2565
249.8079	0.2554
250.0228	0.2491
250.2378	0.2475
250.4528	0.251
250.6677	0.2431
250.8827	0.2332
251.0976	0.2397
251.3125	0.2329
251.5274	0.2301
251.7423	0.227
251.9572	0.2193
252.172	0.222
252.3869	0.2188
252.6017	0.2185
252.8166	0.222
253.0314	0.2137
253.2462	0.2134
253.461	0.207
253.6758	0.2084
253.8906	0.21
254.1053	0.2041
254.3201	0.2062
254.5348	0.2003
254.7496	0.2056
254.9643	0.2053
255.179	0.2027
255.3937	0.1988
255.6083	0.1965
255.823	0.1998
256.0377	0.1973
256.2523	0.1966
256.467	0.2004
256.6816	0.1976
256.8962	0.1919
257.1108	0.1934
257.3254	0.1885
257.54	0.1931
257.7545	0.1967
257.9691	0.1929
258.1836	0.1951
258.3981	0.1895
258.6127	0.1865
258.8272	0.1836
259.0417	0.1822
259.2561	0.192
259.4706	0.1866
259.6851	0.1834
259.8995	0.1803
260.114	0.179
260.3284	0.1846
260.5428	0.1787
260.7572	0.1908
260.9716	0.1824
261.186	0.1802
261.4003	0.1855
261.6147	0.1785
261.829	0.1849
262.0433	0.1869
262.2577	0.1847
262.472	0.1837
262.6863	0.1868
262.9005	0.1873
263.1148	0.1829
263.3291	0.1877
263.5433	0.1811
263.7576	0.1829
263.9718	0.185
264.186	0.1867
264.4002	0.1839
264.6144	0.1901
264.8286	0.1938
265.0427	0.1939
265.2569	0.1856
265.471	0.1894
265.6851	0.1845
265.8993	0.1836
266.1134	0.1865
266.3275	0.1838
266.5415	0.1802
266.7556	0.1822
266.9697	0.1838
267.1837	0.1841
267.3978	0.186
267.6118	0.184
267.8258	0.1836
268.0398	0.1823
268.2538	0.1837
268.4677	0.1769
268.6817	0.1784
268.8957	0.1789
269.1096	0.1776
269.3235	0.1823
269.5374	0.1839
269.7514	0.1828
269.9652	0.1835
270.1791	0.1764
270.393	0.1792
270.6068	0.1761
270.8207	0.1741
271.0345	0.1741
271.2483	0.1773
271.4622	0.1713
271.676	0.1689
271.8897	0.1706
272.1035	0.1715
272.3173	0.173
272.531	0.1744
272.7448	0.1714
272.9585	0.1743
273.1722	0.1706
273.3859	0.1689
273.5996	0.1662
273.8133	0.1723
274.0269	0.1757
274.2406	0.1704
274.4542	0.1609
274.6679	0.1708
274.8815	0.17
275.0951	0.1753
275.3087	0.1785
275.5223	0.1731
275.7358	0.1752
275.9494	0.175
276.1629	0.1759
276.3765	0.1712
276.59	0.1775
276.8035	0.178
277.017	0.1742
277.2305	0.1765
277.444	0.1756
277.6574	0.1782
277.8709	0.1791
278.0843	0.173
278.2978	0.183
278.5112	0.1765
278.7246	0.1782
278.938	0.1758
279.1513	0.1816
279.3647	0.1834
279.5781	0.1841
279.7914	0.1824
280.0047	0.1794
280.2181	0.1843
280.4314	0.1825
280.6447	0.1836
280.8579	0.1741
281.0712	0.1797
281.2845	0.1842
281.4977	0.1874
281.711	0.1824
281.9242	0.1828
282.1374	0.1803
282.3506	0.185
282.5638	0.1827
282.7769	0.1787
282.9901	0.1888
283.2033	0.1865
283.4164	0.1808
283.6295	0.1822
283.8426	0.1836
284.0557	0.1844
284.2688	0.1894
284.4819	0.1903
284.695	0.1966
284.908	0.1914
285.1211	0.1875
285.3341	0.1935
285.5471	0.1906
285.7601	0.1951
285.9731	0.1933
286.1861	0.1941
286.3991	0.1911
286.612	0.2002
286.825	0.1917
287.0379	0.1977
287.2508	0.1935
287.4637	0.1957
287.6766	0.1964
287.8895	0.1927
288.1024	0.1933
288.3152	0.1935
288.5281	0.191
288.7409	0.1989
288.9538	0.1907
289.1666	0.1984
289.3794	0.2022
289.5922	0.1967
289.8049	0.2036
290.0177	0.2008
290.2304	0.198
290.4432	0.2018
290.6559	0.1978
290.8686	0.197
291.0813	0.2036
291.294	0.2054
291.5067	0.2012
291.7194	0.1989
291.932	0.1976
292.1447	0.1996
292.3573	0.1961
292.5699	0.2036
292.7825	0.1943
292.9951	0.203
293.2077	0.2002
293.4203	0.2055
293.6328	0.1932
293.8454	0.2014
294.0579	0.2044
294.2704	0.2074
294.4829	0.2034
294.6954	0.2004
294.9079	0.1993
295.1204	0.1963
295.3328	0.2022
295.5453	0.1981
295.7577	0.1977
295.9701	0.2009
296.1825	0.1964
296.3949	0.2072
296.6073	0.2001
296.8197	0.2055
297.0321	0.2062
297.2444	0.2018
297.4567	0.2001
297.6691	0.1978
297.8814	0.1994
298.0937	0.2007
298.306	0.1978
298.5182	0.1971
298.7305	0.2002
298.9428	0.1985
299.155	0.1958
299.3672	0.1983
299.5794	0.1946
299.7916	0.2015
300.0038	0.1875
300.216	0.2006
300.4282	0.1956
300.6403	0.1962
300.8525	0.2047
301.0646	0.1954
301.2767	0.2013
301.4888	0.1987
301.7009	0.1987
301.913	0.2002
302.125	0.1956
302.3371	0.1934
302.5491	0.1927
302.7612	0.1962
302.9732	0.1925
303.1852	0.1949
303.3972	0.1898
303.6092	0.1964
303.8211	0.1889
304.0331	0.1864
304.245	0.1947
304.457	0.1933
304.6689	0.1954
304.8808	0.1913
305.0927	0.194
305.3046	0.1833
305.5164	0.1892
305.7283	0.1836
305.9401	0.1847
306.152	0.1783
306.3638	0.179
306.5756	0.1792
306.7874	0.1822
306.9992	0.1739
307.2109	0.1734
307.4227	0.1745
307.6344	0.1769
307.8462	0.166
308.0579	0.1712
308.2696	0.1694
308.4813	0.1588
308.693	0.1665
308.9046	0.1582
309.1163	0.1594
309.328	0.1554
309.5396	0.1576
309.7512	0.1512
309.9628	0.1544
310.1744	0.156
310.386	0.1505
310.5976	0.1482
310.8091	0.146
311.0207	0.145
311.2322	0.1494
311.4437	0.1437
311.6552	0.1472
311.8667	0.1362
312.0782	0.1387
312.2897	0.1432
312.5012	0.1443
312.7126	0.1308
312.924	0.1379
313.1355	0.1333
313.3469	0.1303
313.5583	0.1288
313.7696	0.1259
313.981	0.1286
314.1924	0.1276
314.4037	0.1246
314.6151	0.1271
314.8264	0.1288
315.0377	0.1275
315.249	0.1235
315.4603	0.1217
315.6716	0.1294
315.8828	0.1217
316.0941	0.1183
316.3053	0.121
316.5165	0.1214
316.7277	0.1243
316.9389	0.122
317.1501	0.1216
317.3613	0.1169
317.5724	0.1223
317.7836	0.1208
317.9947	0.1125
318.2058	0.1158
318.417	0.1114
318.6281	0.1186
318.8391	0.118
319.0502	0.1178
319.2613	0.1149
319.4723	0.1162
319.6834	0.1177
319.8944	0.1172
320.1054	0.1154
320.3164	0.1169
320.5274	0.108
320.7383	0.1097
320.9493	0.1153
321.1602	0.1157
321.3712	0.1183
321.5821	0.1174
321.793	0.1167
322.0039	0.1163
322.2148	0.1171
322.4257	0.1208
322.6365	0.1128
322.8474	0.1151
323.0582	0.1201
323.269	0.1136
323.4798	0.119
323.6906	0.1163
323.9014	0.1096
324.1122	0.1113
324.3229	0.1209
324.5337	0.1191
324.7444	0.1179
324.9551	0.115
325.1658	0.1158
325.3765	0.1172
325.5872	0.1157
325.7979	0.1164
326.0085	0.1171
326.2192	0.1133
326.4298	0.1208
326.6404	0.1187
326.851	0.1187
327.0616	0.1217
327.2722	0.1217
327.4828	0.118
327.6933	0.1156
327.9039	0.1176
328.1144	0.1181
328.3249	0.12
328.5354	0.1181
328.7459	0.1223
328.9564	0.1294
329.1669	0.1241
329.3773	0.1185
329.5878	0.1216
329.7982	0.1216
330.0086	0.1212
330.219	0.1232
330.4294	0.1242
330.6398	0.1225
330.8502	0.1241
331.0605	0.1216
331.2708	0.1247
331.4812	0.123
331.6915	0.1203
331.9018	0.1181
332.1121	0.1281
332.3224	0.1238
332.5326	0.127
332.7429	0.1213
332.9531	0.1286
333.1633	0.1302
333.3735	0.1215
333.5837	0.1272
333.7939	0.1248
334.0041	0.1237
334.2143	0.124
334.4244	0.1203
334.6346	0.1256
334.8447	0.1273
335.0548	0.1288
335.2649	0.1268
335.475	0.1226
335.685	0.1231
335.8951	0.1272
336.1051	0.1282
336.3152	0.1269
336.5252	0.1272
336.7352	0.1201
336.9452	0.1273
337.1552	0.1307
337.3652	0.1309
337.5751	0.1295
337.7851	0.1253
337.995	0.1273
338.2049	0.1288
338.4148	0.1278
338.6247	0.1318
338.8346	0.1291
339.0445	0.1301
339.2543	0.1347
339.4642	0.1407
339.674	0.1359
339.8838	0.1331
340.0936	0.1292
340.3034	0.1304
340.5132	0.1322
340.7229	0.1324
340.9327	0.1371
341.1424	0.1364
341.3522	0.1328
341.5619	0.1381
341.7716	0.1338
341.9813	0.1314
342.1909	0.1433
342.4006	0.1446
342.6102	0.1336
342.8199	0.1377
343.0295	0.1423
343.2391	0.1329
343.4487	0.1442
343.6583	0.1484
343.8679	0.1488
344.0774	0.1442
344.287	0.1486
344.4965	0.1472
344.706	0.1419
344.9155	0.1447
345.125	0.1471
345.3345	0.1525
345.544	0.1505
345.7534	0.1486
345.9629	0.1507
346.1723	0.1528
346.3817	0.1479
346.5911	0.1475
346.8005	0.1487
347.0099	0.1542
347.2193	0.1508
347.4286	0.159
347.638	0.1523
347.8473	0.158
348.0566	0.1578
348.2659	0.1532
348.4752	0.1528
348.6845	0.1613
348.8937	0.1602
349.103	0.1544
349.3122	0.1606
349.5214	0.1572
349.7306	0.1595
349.9398	0.166
350.149	0.1611
350.3582	0.1587
350.5674	0.1619
350.7765	0.1643
350.9856	0.1637
351.1948	0.1664
351.4039	0.1644
351.613	0.1708
351.822	0.1675
352.0311	0.1666
352.2402	0.1639
352.4492	0.1679
352.6582	0.1718
352.8672	0.1721
353.0762	0.1725
353.2852	0.169
353.4942	0.1711
353.7032	0.1708
353.9121	0.1729
354.1211	0.1743
354.33	0.1793
354.5389	0.1839
354.7478	0.1804
354.9567	0.1789
355.1655	0.1815
355.3744	0.179
355.5833	0.1818
355.7921	0.1815
356.0009	0.179
356.2097	0.186
356.4185	0.1897
356.6273	0.1861
356.8361	0.1936
357.0448	0.1869
357.2536	0.1927
357.4623	0.1818
357.671	0.1866
357.8797	0.1931
358.0884	0.1859
358.2971	0.1908
358.5057	0.1921
358.7144	0.1965
358.923	0.1927
359.1316	0.1945
359.3402	0.2018
359.5488	0.1972
359.7574	0.1979
359.966	0.2017
360.1746	0.1977
360.3831	0.2016
360.5916	0.2065
360.8002	0.2101
361.0087	0.2135
361.2172	0.2108
361.4256	0.2068
361.6341	0.2165
361.8426	0.2061
362.051	0.2124
362.2594	0.2157
362.4678	0.2238
362.6762	0.2168
362.8846	0.2182
363.093	0.2216
363.3014	0.2291
363.5097	0.219
363.718	0.2298
363.9264	0.2232
364.1347	0.2275
364.343	0.2267
364.5513	0.2334
364.7595	0.222
364.9678	0.2288
365.176	0.2331
365.3842	0.2281
365.5925	0.2262
365.8007	0.2288
366.0089	0.2357
366.217	0.2359
366.4252	0.2354
366.6333	0.2285
366.8415	0.2337
367.0496	0.2327
367.2577	0.2467
367.4658	0.2478
367.6739	0.2343
367.882	0.2374
368.09	0.2393
368.2981	0.2407
368.5061	0.2488
368.7141	0.251
368.9221	0.2474
369.1301	0.2442
369.3381	0.2504
369.5461	0.2571
369.754	0.2502
369.962	0.2561
370.1699	0.2609
370.3778	0.2599
370.5857	0.2594
370.7936	0.2589
371.0015	0.254
371.2093	0.2603
371.4172	0.2539
371.625	0.2641
371.8328	0.2685
372.0406	0.2605
372.2484	0.2565
372.4562	0.258
372.664	0.2701
372.8717	0.2651
373.0795	0.2762
373.2872	0.2744
373.4949	0.2738
373.7026	0.2818
373.9103	0.2738
374.118	0.2744
374.3256	0.2907
374.5333	0.2762
374.7409	0.2664
374.9485	0.275
375.1561	0.2775
375.3637	0.2726
375.5713	0.2726
375.7789	0.2814
375.9864	0.288
376.194	0.2901
376.4015	0.2873
376.609	0.2921
376.8165	0.2831
377.024	0.2819
377.2315	0.291
377.4389	0.2775
377.6464	0.2923
377.8538	0.2889
378.0612	0.2842
378.2686	0.2837
378.476	0.287
378.6834	0.291
378.8908	0.2923
379.0981	0.294
379.3055	0.293
379.5128	0.2988
379.7201	0.2896
379.9274	0.2968
380.1347	0.2943
380.342	0.3044
380.5492	0.2917
380.7565	0.3023
380.9637	0.3013
381.1709	0.2965
381.3781	0.3008
381.5853	0.2998
381.7925	0.3138
381.9997	0.3053
382.2068	0.2903
382.4139	0.3003
382.6211	0.3071
382.8282	0.3067
383.0353	0.3056
383.2424	0.3112
383.4494	0.3188
383.6565	0.2992
383.8635	0.3184
384.0706	0.3077
384.2776	0.3213
384.4846	0.3112
384.6916	0.302
384.8986	0.3152
385.1055	0.3167
385.3125	0.3117
385.5194	0.3136
385.7263	0.3092
385.9333	0.3188
386.1402	0.3174
386.347	0.3152
386.5539	0.3232
386.7608	0.315
386.9676	0.3036
387.1744	0.3163
387.3813	0.3217
387.5881	0.3158
387.7948	0.3142
388.0016	0.3131
388.2084	0.3148
388.4151	0.3136
388.6219	0.3071
388.8286	0.3072
389.0353	0.3091
389.242	0.3056
389.4487	0.3106
389.6553	0.3037
389.862	0.308
390.0686	0.3081
390.2753	0.2998
390.4819	0.3127
390.6885	0.2997
390.8951	0.3092
391.1016	0.3005
391.3082	0.2945
391.5147	0.3002
391.7213	0.3032
391.9278	0.2929
392.1343	0.2892
392.3408	0.2937
392.5473	0.282
392.7537	0.3032
392.9602	0.2852
393.1666	0.2893
393.373	0.282
393.5794	0.2997
393.7858	0.2927
393.9922	0.2936
394.1986	0.2853
394.4049	0.2846
394.6113	0.2905
394.8176	0.2781
395.0239	0.2785
395.2302	0.2746
395.4365	0.277
395.6428	0.2802
395.8491	0.2829
396.0553	0.26
396.2615	0.2704
396.4678	0.2782
396.674	0.2758
396.8802	0.2693
397.0863	0.2663
397.2925	0.2675
397.4987	0.2722
397.7048	0.2722
397.9109	0.2747
398.117	0.274
398.3231	0.2768
398.5292	0.2802
398.7353	0.2633
398.9413	0.2586
399.1474	0.2747
399.3534	0.2732
399.5594	0.2707
399.7654	0.2759
399.9714	0.262
400.1774	0.255
400.3833	0.269
400.5893	0.2673
400.7952	0.2684
401.0011	0.255
401.207	0.2646
401.4129	0.2669
401.6188	0.259
401.8247	0.2624
402.0305	0.2533
402.2364	0.27
402.4422	0.2753
402.648	0.2704
402.8538	0.2751
403.0596	0.2581
403.2654	0.2615
403.4711	0.2738
403.6768	0.278
403.8826	0.2737
404.0883	0.2545
404.294	0.2709
404.4997	0.2595
404.7054	0.2616
404.911	0.2617
405.1167	0.2664
405.3223	0.2653
405.5279	0.2658
405.7335	0.2604
405.9391	0.2584
406.1447	0.2661
406.3502	0.2702
406.5558	0.2754
406.7613	0.265
406.9668	0.2662
407.1724	0.2735
407.3778	0.2633
407.5833	0.2551
407.7888	0.2654
407.9942	0.2644
408.1997	0.2671
408.4051	0.262
408.6105	0.2725
408.8159	0.2635
409.0213	0.2786
409.2267	0.2612
409.432	0.2658
409.6374	0.2633
409.8427	0.2609
410.048	0.2562
410.2533	0.2638
410.4586	0.2705
410.6639	0.2549
410.8691	0.2738
411.0744	0.261
411.2796	0.2713
411.4848	0.2543
411.69	0.2627
411.8952	0.2664
412.1004	0.2596
412.3056	0.2628
412.5107	0.269
412.7158	0.2678
412.921	0.262
413.1261	0.27
413.3312	0.2634
413.5362	0.2623
413.7413	0.2735
413.9464	0.2582
414.1514	0.2652
414.3564	0.2578
414.5614	0.2626
414.7664	0.2627
414.9714	0.2639
415.1764	0.2545
415.3813	0.2414
415.5863	0.2607
415.7912	0.2696
415.9961	0.2567
416.201	0.2527
416.4059	0.2582
416.6108	0.2517
416.8156	0.2488
417.0205	0.2692
417.2253	0.2589
417.4301	0.2704
417.6349	0.2578
417.8397	0.2633
418.0445	0.2566
418.2492	0.2603
418.454	0.254
418.6587	0.2442
418.8634	0.2627
419.0681	0.2456
419.2728	0.2481
419.4775	0.2561
419.6822	0.2452
419.8868	0.2554
420.0915	0.254
420.2961	0.2506
420.5007	0.2546
420.7053	0.2543
420.9099	0.2376
421.1144	0.2378
421.319	0.2402
421.5235	0.2377
421.728	0.2397
421.9325	0.2506
422.137	0.2391
422.3415	0.2346
422.546	0.252
422.7504	0.2418
422.9549	0.2352
423.1593	0.2418
423.3637	0.2293
423.5681	0.2492
423.7725	0.2383
423.9769	0.2392
424.1812	0.2492
424.3856	0.238
424.5899	0.2414
424.7942	0.2237
424.9985	0.2261
425.2028	0.2345
425.4071	0.2093
425.6113	0.2268
425.8156	0.2303
426.0198	0.2184
426.224	0.2294
426.4282	0.229
426.6324	0.2275
426.8366	0.2199
427.0407	0.2224
427.2449	0.2189
427.449	0.2181
427.6531	0.2184
427.8572	0.2189
428.0613	0.205
428.2654	0.2104
428.4694	0.2075
428.6735	0.2119
428.8775	0.2048
429.0815	0.2187
429.2855	0.1985
429.4895	0.1904
429.6935	0.1933
429.8975	0.1933
430.1014	0.1991
430.3053	0.1941
430.5093	0.1944
430.7132	0.1968
430.9171	0.1839
431.1209	0.2009
431.3248	0.1929
431.5286	0.1801
431.7325	0.1945
431.9363	0.1879
432.1401	0.1703
432.3439	0.1797
432.5477	0.1858
432.7514	0.1689
432.9552	0.1668
433.1589	0.1693
433.3627	0.1669
433.5664	0.1781
433.7701	0.171
433.9737	0.1723
434.1774	0.1656
434.3811	0.1744
434.5847	0.163
434.7883	0.1621
434.9919	0.1501
435.1955	0.1562
435.3991	0.1519
435.6027	0.1454
435.8062	0.1524
436.0098	0.1587
436.2133	0.1528
436.4168	0.1427
436.6203	0.1505
436.8238	0.1371
437.0272	0.1338
437.2307	0.1303
437.4341	0.1364
437.6375	0.1197
437.841	0.1321
438.0443	0.1361
438.2477	0.1321
438.4511	0.1327
438.6545	0.1352
438.8578	0.1276
439.0611	0.1229
439.2644	0.1094
439.4677	0.1178
439.671	0.1224
439.8743	0.1095
440.0775	0.1211
440.2808	0.1174
440.484	0.1086
440.6872	0.1107
440.8904	0.1116
441.0936	0.1183
441.2967	0.0995
441.4999	0.1062
441.703	0.1004
441.9062	0.1015
442.1093	0.1021
442.3124	0.101
442.5155	0.0875
442.7185	0.0747
442.9216	0.0873
443.1246	0.089
443.3276	0.0886
443.5307	0.0869
443.7337	0.085
443.9366	0.0907
444.1396	0.0829
444.3426	0.0846
444.5455	0.0772
444.7484	0.0711
444.9513	0.0789
445.1542	0.0747
445.3571	0.0675
445.56	0.0773
445.7628	0.0778
445.9657	0.071
446.1685	0.0726
446.3713	0.0655
446.5741	0.0643
446.7769	0.0712
446.9797	0.0662
447.1824	0.0735
447.3852	0.0528
447.5879	0.0659
447.7906	0.0577
447.9933	0.0639
448.196	0.0476
448.3986	0.0575
448.6013	0.0522
448.8039	0.0517
449.0066	0.0532
449.2092	0.0463
449.4118	0.0491
449.6143	0.0547
449.8169	0.0449
450.0195	0.039
450.222	0.0451
450.4245	0.0475
450.627	0.041
450.8295	0.0408
451.032	0.0414
451.2345	0.0414
451.4369	0.042
451.6394	0.0414
451.8418	0.0489
452.0442	0.0421
452.2466	0.0473
452.449	0.0316
452.6513	0.0337
452.8537	0.0451
453.056	0.0368
453.2583	0.0312
453.4607	0.0272
453.663	0.0365
453.8652	0.0241
454.0675	0.0306
454.2697	0.0292
454.472	0.0252
454.6742	0.0347
454.8764	0.0299
455.0786	0.033
455.2808	0.0316
455.4829	0.0209
455.6851	0.0245
455.8872	0.0283
456.0893	0.0282
456.2915	0.0213
456.4935	0.015
456.6956	0.0223
456.8977	0.0223
457.0997	0.0242
457.3018	0.0276
457.5038	0.0213
457.7058	0.0179
457.9078	0.0247
458.1098	0.0223
458.3117	0.0199
458.5137	0.0309
458.7156	0.0295
458.9175	0.0161
459.1194	0.0218
459.3213	0.0152
459.5232	0.0143
459.725	0.0161
459.9269	0.0105
460.1287	0.0146
460.3305	0.0142
460.5323	0.0193
460.7341	0.0129
460.9359	0.0173
461.1376	0.0137
461.3394	0.008
461.5411	0.0206
461.7428	0.0147
461.9445	0.0118
462.1462	0.0157
462.3479	0.0102
462.5495	0.016
462.7512	0.0018
462.9528	0.0157
463.1544	0.01
463.356	0.016
463.5576	0.0044
463.7592	0.0061
463.9607	0.0116
464.1623	0.0121
464.3638	0.0143
464.5653	0.0153
464.7668	0.0079
464.9683	0.013
465.1697	0.0129
465.3712	0.0097
465.5726	0.015
465.7741	0.0124
465.9755	0.0135
466.1769	0.0067
466.3782	0.0052
466.5796	0.0092
466.7809	0.018
466.9823	0.0099
467.1836	0.0197
467.3849	0.0051
467.5862	-0.0104
467.7875	0.0049
467.9887	0.0141
468.19	0.0034
468.3912	0.0081
468.5924	0.0099
468.7936	-0.0054
468.9948	0.0122
469.196	-0.0006
469.3972	0.0213
469.5983	-0.0001
469.7994	0.0014
470.0006	-0.0012
470.2017	0.0087
470.4027	0.0077
470.6038	0.0021
470.8049	-0.0044
471.0059	0.0046
471.2069	0.0141
471.408	-0.0021
471.6089	0.0065
471.8099	0.011
472.0109	0.0008
472.2119	0.0174
472.4128	0.0039
472.6137	0.0061
472.8146	0.001
473.0155	0.0053
473.2164	-0.0029
473.4173	0.0011
473.6181	0.0051
473.819	-0.0057
474.0198	0.0022
474.2206	0.0008
474.4214	0.0159
474.6222	0.0098
474.8229	0.0068
475.0237	0.0079
475.2244	0.008
475.4251	-0.0078
475.6258	0.0063
475.8265	-0.0067
476.0272	0.0104
476.2278	-0.0035
476.4285	-0.0066
476.6291	0.005
476.8297	-0.0071
477.0303	0.0012
477.2309	-0.0032
477.4315	0.0112
477.632	-0.007
477.8326	0.0092
478.0331	0.0063
478.2336	0.0069
478.4341	0.003
478.6346	0.0003
478.8351	0.0067
479.0355	0.0086
479.236	0.0021
479.4364	0.0007
479.6368	0.0054
479.8372	0.0103
480.0376	0.0032
480.2379	0.0047
480.4383	-0.0072
480.6386	-0.002
480.8389	0.0039
481.0392	0.0039
481.2395	0.0124
481.4398	0.0021
481.6401	0.0061
481.8403	-0.0007
482.0405	-0.0056
482.2408	-0.0015
482.441	0.0002
482.6411	0.0018
482.8413	-0.0037
483.0415	-0.0001
483.2416	-0.0055
483.4417	-0.0005
483.6419	0.0036
483.8419	0.0036
484.042	-0.0008
484.2421	-0.0061
484.4422	0.0079
484.6422	0.0109
484.8422	0.0021
485.0422	0.0009
485.2422	0.0005
485.4422	-0.0017
485.6422	-0.0021
485.8421	0.0029
486.042	0.0062
486.242	0.0024
486.4419	0.0019
486.6417	0.0049
486.8416	0.0017
487.0415	-0.0006
487.2413	0.0031
487.4411	0.0051
487.641	0.0046
487.8408	0.0116
488.0405	0.0025
488.2403	-0.0006
488.4401	0.0024
488.6398	0.0142
488.8395	-0.001
489.0392	0.0017
489.2389	0.0011
489.4386	-0.0025
489.6383	0.0059
489.8379	0.0011
490.0376	0.007
490.2372	-0.0079
490.4368	0.0087
490.6364	0.0046
490.836	-0.0034
491.0355	-0.0013
491.2351	0.0034
491.4346	0.0073
491.6341	0.0074
491.8336	-0.0048
492.0331	-0.0023
492.2326	0.0027
492.432	0.0038
492.6315	-0.0021
492.8309	0.0014
493.0303	-0.0008
493.2297	-0.0068
493.4291	-0.0095
493.6284	0.0022
493.8278	0.0022
494.0271	-0.0006
494.2264	0.0013
494.4257	0.0052
494.625	-0.0105
494.8243	0.0023
495.0236	-0.0002
495.2228	-0.0052
495.422	0.0001
495.6213	-0.0007
495.8205	-0.0021
496.0196	0.0053
496.2188	-0.0019
496.418	-0.0066
496.6171	0.0002
496.8162	0.0001
497.0153	0.0041
497.2144	0.0003
497.4135	0.0031
497.6126	-0.0023
497.8116	0.0041
498.0107	0.0073
498.2097	0.0044
498.4087	-0.0028
498.6077	0.0004
498.8067	0.0016
499.0056	0.0048
499.2046	-0.0035
499.4035	0.0027
499.6024	-0.0042
499.8013	-0.0017
500.0002	-0.0017
500.199	0.0045
500.3979	0.0011
500.5967	-0.0048
500.7956	-0.0024
500.9944	-0.0062
501.1932	0.0049
501.3919	0.0082
501.5907	-0.0017
501.7895	-0.001
501.9882	-0.0057
502.1869	0.0019
502.3856	-0.0051
502.5843	-0.0029
502.783	0.0065
502.9816	-0.0043
503.1803	0.0057
503.3789	0.0081
503.5775	0.0041
503.7761	-0.0052
503.9747	-0.0013
504.1732	-0.0046
504.3718	-0.0051
504.5703	0.0009
504.7689	-0.0045
504.9674	-0.0049
505.1658	0.0048
505.3643	-0.0009
505.5628	0.0058
505.7612	-0.0008
505.9597	0.0038
506.1581	-0.0104
506.3565	-0.0045
506.5549	0.0092
506.7532	0.0049
506.9516	-0.0071
507.1499	-0.0002
507.3482	0.0045
507.5465	-0.0034
507.7448	0.0027
507.9431	-0.0035
508.1414	-0.0037
508.3396	0.0008
508.5379	0.0017
508.7361	0.0046
508.9343	-0.0092
509.1325	0.0089
509.3306	-0.0045
509.5288	0.0092
509.7269	0.0011
509.9251	-0.0031
510.1232	-0.0081
510.3213	-0.001
510.5193	0.003
510.7174	-0.0089
510.9154	0.0044
511.1135	-0.0023
511.3115	0.0027
511.5095	0.002
511.7075	-0.0105
511.9055	0.0064
512.1034	0.0021
512.3014	0.0058
512.4993	-0.0019
512.6972	-0.0017
512.8951	0.0053
513.093	-0.0039
513.2908	0.0007
513.4887	0.003
513.6865	-0.0082
513.8844	0.0011
514.0822	-0.0004
514.2799	-0.0076
514.4777	0.004
514.6755	0.0082
514.8732	0.0013
515.0709	0.0018
515.2687	-0.0013
515.4664	-0.0089
515.664	0.004
515.8617	0.0025
516.0594	0.0115
516.257	0.0095
516.4546	0.0025
516.6522	-0.0002
516.8498	0.0013
517.0474	-0.0069
517.2449	0.0016
517.4425	-0.0044
517.64	-0.0053
517.8375	-0.0016
518.035	0.008
518.2325	-0.0043
518.43	-0.0002
518.6274	-0.0058
518.8249	0.006
519.0223	-0.001
519.2197	-0.0099
519.4171	0.0026
519.6145	0.0068
519.8118	-0.001
520.0092	-0.009
520.2065	0.0058
520.4038	-0.0039
520.6011	0.0025
520.7984	0.0022
520.9956	-0.0048
521.1929	0.0026
521.3901	0.0053
521.5874	-0.0032
521.7846	0.0011
521.9818	-0.008
522.1789	0.0091
522.3761	-0.0088
522.5732	-0.0086
522.7704	0.0045
522.9675	0.0011
523.1646	0.0072
523.3617	0.003
523.5587	0.001
523.7558	0.0057
523.9528	0.0041
524.1498	0.0081
524.3468	-0.0044
524.5438	-0.004
524.7408	-0.007
524.9378	0.0007
525.1347	0.0074
525.3316	0.0192
525.5285	-0.0011
525.7254	0.0008
525.9223	0.0014
526.1192	-0.0082
526.316	-0.0033
526.5129	-0.0005
526.7097	-0.0026
526.9065	-0.0017
527.1033	0.0092
527.3	0.0004
527.4968	0.0011
527.6935	-0.0032
527.8903	0.002
528.087	0.0059
528.2837	-0.0034
528.4804	0.0066
528.677	-0.0032
528.8737	-0.004
529.0703	0.0064
529.2669	0.0095
529.4635	0.0048
529.6601	0.0037
529.8567	0.0088
530.0532	-0.0011
530.2498	-0.0037
530.4463	0.0001
530.6428	-0.0067
530.8393	-0.0064
531.0358	0.0006
531.2322	0.0113
531.4287	-0.0082
531.6251	-0.0055
531.8215	0.0009
532.0179	-0.0104
532.2143	0.0156
532.4107	0.0018
532.607	-0.0038
532.8034	-0.0005
532.9997	0.0037
533.196	0.0147
533.3923	-0.0015
533.5886	-0.0025
533.7848	-0.0071
533.9811	-0.0085
534.1773	0.0051
534.3735	0.0046
534.5697	0.0041
534.7659	-0.0039
534.9621	0.0018
535.1582	-0.0051
535.3544	0.0085
535.5505	0.0089
535.7466	0.0032
535.9427	-0.0144
536.1387	-0.0034
536.3348	0.0017
536.5308	0.0156
536.7269	-0.0059
536.9229	-0.0075
537.1189	-0.0018
537.3148	-0.0087
537.5108	-0.0006
537.7068	0.0043
537.9027	0.007
538.0986	-0.0038
538.2945	-0.0035
538.4904	-0.0082
538.6863	0.0063
538.8821	-0.0098
539.078	-0.0032
539.2738	-0.008
539.4696	0.0082
539.6654	-0.0015
539.8611	-0.0008
540.0569	0.0019
540.2526	-0.0157
540.4484	-0.0043
540.6441	0.0016
540.8398	-0.0032
541.0355	-0.0018
541.2311	0.0034
541.4268	0.0051
541.6224	0.0039
541.818	-0.0151
542.0136	-0.003
542.2092	-0.0035
542.4048	0.0015
542.6003	0.0088
542.7959	-0.0062
542.9914	0.004
543.1869	-0.0066
543.3824	0.0022
543.5779	-0.0018
543.7734	0
543.9688	-0.0022
544.1642	0.0018
544.3596	-0.0131
544.555	0.0027
544.7504	0.0014
544.9458	-0.0023
545.1411	-0.0065
545.3365	0.0105
545.5318	-0.0063
545.7271	0.0024
545.9224	-0.0072
546.1177	-0.0029
546.3129	-0.0089
546.5081	-0.0192
546.7034	-0.005
546.8986	0.0028
547.0938	-0.0086
547.289	0.0068
547.4841	0.0039
547.6793	-0.0144
547.8744	-0.0069
548.0695	0.0005
548.2646	-0.0099
548.4597	-0.0112
548.6548	-0.0012
548.8498	0.0008
549.0448	-0.008
549.2399	0
549.4349	0.0033
549.6298	-0.009
549.8248	-0.0085
550.0198	0.0132
550.2147	-0.0061
550.4096	-0.006
550.6045	0.0086
550.7994	0.0033
550.9943	0.0018
551.1892	-0.0029
551.384	0.0113
551.5788	0.0065
551.7737	-0.0083
551.9685	0.001
552.1632	-0.0032
552.358	-0.0037
552.5528	-0.0009
552.7475	-0.0058
552.9422	0.0063
553.1369	-0.0042
553.3316	-0.0079
553.5263	-0.0097
553.7209	-0.0086
553.9156	0.0136
554.1102	-0.0037
554.3048	-0.0066
554.4994	-0.0036
554.694	0.0022
554.8885	-0.0016
555.0831	0.0047
555.2776	-0.007
555.4721	-0.0108
555.6666	0.0089
555.8611	-0.0075
556.0555	0.0002
556.25	-0.0066
556.4444	0.0006
556.6388	-0.0118
556.8332	-0.0049
557.0276	0.0168
557.222	-0.009
557.4163	-0.0078
557.6107	-0.011
557.805	-0.0096
557.9993	-0.006
558.1936	0.0101
558.3879	-0.0029
558.5821	-0.0059
558.7764	0.0109
558.9706	-0.0026
559.1648	-0.0025
559.359	0.0095
559.5532	-0.0057
559.7473	0.0065
559.9415	-0.0089
560.1356	0.0028
560.3297	-0.0006
560.5238	-0.0026
560.7179	-0.0007
560.9119	0.0069
561.106	0.0004
561.3	-0.0066
561.494	0.0029
561.688	0.0025
561.882	0.001
562.076	0.0041
562.2699	-0.0004
562.4639	0.0025
562.6578	0.0117
562.8517	-0.0092
563.0456	-0.01
563.2395	-0.0051
563.4333	0.0024
563.6272	0.0035
563.821	0.0132
564.0148	-0.005
564.2086	0.0095
564.4024	-0.0001
564.5961	-0.0014
564.7899	-0.0022
564.9836	-0.0026
565.1773	-0.0013
565.371	-0.0002
565.5647	-0.0064
565.7584	-0.0002
565.952	-0.0064
566.1456	0.0026
566.3393	0.0178
566.5329	0.0049
566.7264	-0.0051
566.92	-0.0034
567.1136	-0.0014
567.3071	-0.0001
567.5006	-0.0015
567.6941	0.0053
567.8876	-0.0046
568.0811	-0.0039
568.2745	-0.0009
568.468	0.004
568.6614	-0.0027
568.8548	0.0009
569.0482	0.0044
569.2416	-0.0009
569.4349	0.005
569.6283	-0.0001
569.8216	-0.0011
570.0149	0.002
570.2082	-0.0041
570.4015	0.0063
570.5947	-0.002
570.788	0.0001
570.9812	-0.0003
571.1744	0.003
571.3676	-0.0022
571.5608	-0.003
571.754	-0.0041
571.9471	0.0049
572.1402	0.0036
572.3333	0.0036
572.5264	0.0014
572.7195	0.0031
572.9126	-0.0001
573.1057	-0.0018
573.2987	0.0001
573.4917	-0.0001
573.6847	-0.0007
573.8777	0.0023
574.0707	-0.0012
574.2636	0.0003
574.4566	0.0057
574.6495	0.0023
574.8424	-0.0006
575.0353	-0.0021
575.2281	-0.0016
575.421	0.0036
575.6138	0.0009
575.8067	-0.0026
575.9995	0.0044
576.1923	0.0064
576.385	-0.0026
576.5778	0.0005
576.7706	0.003
576.9633	0.002
577.156	0.0026
577.3487	0.0019
577.5414	-0.001
577.734	-0.0004
577.9267	-0.0017
578.1193	0.0003
578.3119	-0.0035
578.5045	-0.0028
578.6971	-0.0025
578.8897	-0.0042
579.0822	0.0014
579.2747	-0.0078
579.4673	-0.0018
579.6598	0.003
579.8522	0.0012
580.0447	-0.0027
580.2372	0.0001
580.4296	-0.0028
580.622	-0.0001
580.8144	-0.0025
581.0068	0.0004
581.1992	0.0021
581.3915	-0.0003
581.5839	0.0044
581.7762	0.0013
581.9685	-0.0006
582.1608	0.0009
582.353	-0.002
582.5453	-0.001
582.7375	-0.003
582.9298	-0.0001
583.122	-0.0032
583.3142	0.0024
583.5063	-0.006
583.6985	-0.0004
583.8906	0.0045
584.0827	-0.0021
584.2749	0.0001
584.4669	-0.0009
584.659	-0.0038
584.8511	0.0015
585.0431	-0.0008
585.2352	0.001
585.4272	0.0012
585.6192	-0.0004
585.8111	-0.0057
586.0031	-0.0035
586.195	0.0019
586.387	0.0017
586.5789	0.0023
586.7708	0.0017
586.9627	0.0055
587.1545	0.0013
587.3464	0.0026
587.5382	-0.0007
587.73	0.0037
587.9218	0.0015
588.1136	-0.0054
588.3053	-0.0013
588.4971	0.0023
588.6888	-0.0017
588.8805	0.0047
589.0722	0.0039
589.2639	-0.0054
589.4556	-0.0089
589.6472	-0.0066
589.8389	-0.0001
590.0305	0.0062
590.2221	0.0043
590.4137	-0.0069
590.6052	-0.0027
590.7968	0.0001
590.9883	0.0017
591.1798	-0.0021
591.3713	-0.0049
591.5628	-0.005
591.7543	0.0005
591.9458	0.0037
592.1372	-0.002
592.3286	-0.0025
592.52	0.0002
592.7114	-0.0005
592.9028	-0.0055
593.0941	-0.0018
593.2855	0.0025
593.4768	-0.0002
593.6681	-0.0045
593.8594	-0.0102
594.0506	0.0043
594.2419	-0.0054
594.4331	0.0002
594.6244	-0.0029
594.8156	0.004
595.0067	0.0038
595.1979	-0.0079
595.3891	-0.0032
595.5802	-0.0007
595.7713	0.0045
595.9624	0.0039
596.1535	-0.0012
596.3446	-0.0054
596.5357	-0.0027
596.7267	0.001
596.9177	0.0016
597.1087	-0.0064
597.2997	0.0048
597.4907	0.003
597.6817	0.0017
597.8726	0.0031
598.0635	0.0033
598.2544	0.0014
598.4453	-0.0007
598.6362	-0.0053
598.827	0.0033
599.0179	0.0007
599.2087	-0.0033
599.3995	-0.0039
599.5903	-0.0005
599.7811	0.0041
599.9718	0.004
600.1626	-0.0022
600.3533	-0.0018
600.544	-0.0018
600.7347	0.0067
600.9254	0.0073
601.116	-0.0045
601.3067	0.0033
601.4973	0.0042
601.6879	-0.0117
601.8785	0.0017
602.0691	-0.0032
602.2596	-0.0033
602.4502	-0
602.6407	0.0032
602.8312	0.0026
603.0217	0.0056
603.2122	0.0108
603.4027	-0.0008
603.5931	-0.0001
603.7835	-0.0006
603.9739	0.0017
604.1643	0.0049
604.3547	0.0054
604.5451	0.0004
604.7354	-0.0008
604.9257	0.0043
605.116	0.0005
605.3063	-0.0054
605.4966	-0.0001
605.6869	0.0018
605.8771	0.0006
606.0673	-0.0017
606.2575	-0.001
606.4477	0.0032
606.6379	-0.0027
606.8281	-0.0055
607.0182	0.0013
607.2083	0.0008
607.3985	0.0042
607.5885	-0.0011
607.7786	0.0049
607.9687	-0.0028
608.1587	-0.0028
608.3488	-0.0061
608.5388	-0.0013
608.7288	0.0009
608.9187	0.005
609.1087	0.0003
609.2986	-0.0066
609.4886	0.0045
609.6785	0.0002
609.8684	-0.0091
610.0582	-0.0057
610.2481	-0.0064
610.4379	0.0031
610.6278	-0.0024
610.8176	-0.0013
611.0074	0.0003
611.1971	0.002
611.3869	0.0009
611.5766	-0.006
611.7664	0.0068
611.9561	-0.0012
612.1458	-0.0019
612.3354	0.0013
612.5251	0.0033
612.7147	0.0052
612.9044	-0.002
613.094	-0.0002
613.2836	-0.0016
613.4731	-0.0031
613.6627	0.0046
613.8522	-0.0066
614.0417	0.0023
614.2313	-0.0045
614.4207	0.0016
614.6102	-0.0041
614.7997	-0.0035
614.9891	0.0026
615.1785	-0.0043
615.3679	0.0014
615.5573	-0.0088
615.7467	-0.0039
615.9361	-0.0057
616.1254	-0.0064
616.3147	-0.0013
616.504	-0.0033
616.6933	0.003
616.8826	0.0079
617.0718	-0.0017
617.2611	0.0047
617.4503	-0.0045
617.6395	-0.0031
617.8287	0.0021
618.0179	-0.0047
618.207	-0.0034
618.3961	-0.0007
618.5853	-0.0026
618.7744	0.0036
618.9634	-0.0108
619.1525	-0.0095
619.3416	0.0005
619.5306	-0.0059
619.7196	-0.0101
619.9086	-0.0004
620.0976	0.0038
620.2866	-0.0001
620.4755	0.018
620.6645	-0.0126
620.8534	0.0062
621.0423	-0.0082
621.2312	-0.0106
621.42	-0.0046
621.6089	-0.0011
621.7977	-0.0024
621.9865	0.0114
622.1753	0.0035
622.3641	-0.0024
622.5529	-0.0119
622.7416	-0.0105
622.9303	-0.006
623.1191	-0.0048
623.3078	-0.0041
623.4964	-0.0084
623.6851	0.0101
623.8737	-0.0073
624.0624	-0.0025
624.251	-0.0031
624.4396	0.0051
624.6282	0.0035
624.8167	0.0044
625.0053	-0.0021
625.1938	0.0031
625.3823	-0.013
625.5708	-0.0017
625.7593	-0.003
625.9477	0.0009
626.1362	-0.0075
626.3246	-0.0012
626.513	0.0004
626.7014	-0.0096
626.8898	-0.0048
627.0781	-0.0039
627.2665	0.0022
627.4548	-0.0095
627.6431	-0.0141
627.8314	-0.0059
628.0197	0.0013
628.2079	0.0004
628.3962	0.0061
628.5844	0.001
628.7726	-0.0002
628.9608	-0.0108
629.1489	0.0064
629.3371	-0.0028
629.5252	-0.0009
629.7134	0.0075
629.9015	-0.0071
630.0895	0.0071
630.2776	-0.001
630.4657	-0.0017
630.6537	-0.0021
630.8417	-0.0017
631.0297	0.0016
631.2177	-0.0058
631.4057	-0.0172
631.5936	-0.0133
631.7815	-0.0007
631.9695	0.0161
632.1574	-0.0191
632.3452	-0.0067
632.5331	-0.0062
632.7209	0.0102
632.9088	-0.009
633.0966	0.0125
633.2844	0.0036
633.4722	0.0054
633.6599	-0.0244
633.8477	-0.0034
634.0354	-0.0036
634.2231	0.0146
634.4108	0.0004
634.5985	-0.0019
634.7861	-0.0044
634.9738	0.0054
635.1614	0.0005
635.349	-0.0301
635.5366	-0.0057
635.7242	-0.0145
635.9117	0.0163
636.0993	-0.0211
636.2868	-0.0104
636.4743	0.0149
636.6618	-0.0032
636.8492	0
637.0367	-0.0045
637.2241	0.0005
637.4115	0.005
637.5989	0.011
637.7863	-0.0091
637.9737	-0.0037
638.161	-0.0035
638.3484	0.0094
638.5357	-0.003
638.723	0.0156
638.9103	0.0082
639.0975	0.0053
639.2848	0.009
639.472	-0.0071
639.6592	0.004
639.8464	0.0067
640.0336	0.0066
640.2208	-0.0178
640.4079	0.0145
640.595	-0.0078
640.7821	-0.0002
640.9692	0.0164
641.1563	-0.0024
641.3434	-0.0116
641.5304	-0.0066
641.7174	0.0006
641.9044	-0.0112
642.0914	-0.0165
642.2784	0.0278
642.4653	-0.0009
642.6523	-0.006
642.8392	-0.0047
643.0261	0.0037
643.213	0.0123
643.3999	-0.0027
643.5867	0.0005
643.7735	0.0027
643.9604	-0.0132
644.1472	0.0022
644.3339	-0.0066
644.5207	-0.0157
644.7075	-0.0075
644.8942	-0.0014
645.0809	-0.0058
645.2676	0.0028
645.4543	-0.0071
645.6409	0.0037
645.8276	-0.0111
646.0142	0.0158
646.2008	-0.0092
646.3874	-0.0051
646.574	-0.0224
646.7605	-0.0072
646.9471	-0.0071
647.1336	0.0014
647.3201	-0.0084
647.5066	-0.0194
647.6931	-0.0043
647.8795	0.0293
648.0659	-0.0222
648.2524	-0.0068
648.4388	0.0011
648.6252	-0.0229
648.8115	0.0134
648.9979	0.0065
649.1842	-0.0145
649.3705	0.0063
649.5568	-0.0066
649.7431	0.0081
649.9294	0.0033
650.1156	-0.0153
650.3018	0.0049
650.488	-0.001
650.6742	0.0107
650.8604	-0.0063
651.0466	0.0025
651.2327	-0.0049
651.4188	-0.0103
651.6049	-0.0008
651.791	0.0175
651.9771	-0.0116
652.1632	-0.0028
652.3492	-0.0023
652.5352	0.0142
652.7212	-0.0073
652.9072	-0.0053
653.0932	0.0223
653.2791	0.0017
653.465	-0.022
653.651	0.0012
653.8369	0.0038
654.0227	-0.0129
654.2086	-0.0051
654.3944	-0.0194
654.5803	0.0079
654.7661	-0.0071
654.9519	0.0006
655.1377	0
655.3234	0
655.5092	0
655.6949	0
655.8806	0
656.0663	0
656.2519	0
656.4376	0
656.6232	0
656.8088	0
656.9945	0
657.18	0
657.3656	0
657.5511	0
657.7367	0
657.9222	0
658.1077	0
658.2932	0
658.4786	0
658.6641	0
658.8495	0
659.0349	0
659.2203	0
659.4057	0.0155
659.591	0.0722
659.7764	0.0002
659.9617	-0.0041
660.147	-0.0155
660.3323	-0.0087
660.5176	-0.0143
660.7028	0.0032
660.888	0.0105
661.0733	0.0106
661.2585	0.0203
661.4436	0.0008
661.6288	-0.0094
661.8139	-0.0039
661.9991	-0.0062
662.1842	0.0206
662.3693	0.0085
662.5544	-0.0094
662.7394	0.0083
662.9245	-0.0068
663.1095	-0.0057
663.2945	-0.0258
663.4795	-0.0005
663.6644	0.0089
663.8494	0.0241
664.0343	-0.0253
664.2193	-0.0216
664.4042	-0.0046
664.589	-0.0244
664.7739	-0.0161
664.9587	-0.0157
665.1436	-0.0078
665.3284	0.0043
665.5132	0.0141
665.698	0.0125
665.8827	-0.0195
666.0675	-0.0177
666.2522	0.0113
666.4369	-0.0067
666.6216	-0.0137
666.8063	-0.0197
666.9909	-0.0158
667.1756	0.0109
667.3602	-0.0033
667.5448	-0.0087
667.7294	0.0112
667.9139	-0.0077
668.0985	-0.0262
668.283	-0.0113
668.4675	-0.0259
668.652	0.0084
668.8365	-0.002
669.0209	-0.0272
669.2054	-0.008
669.3898	-0.0013
669.5742	0.0166
669.7586	-0.0055
669.943	-0.0265
670.1273	0.0079
670.3117	-0.0105
670.496	0.0007
670.6803	-0.0092
670.8646	0.007
671.0488	0.0237
671.2331	0.0128
671.4173	0.0165
671.6015	0.0018
671.7857	-0.0065
671.9699	0.0104
672.1541	-0.0002
672.3382	-0.0061
672.5223	-0.0143
672.7064	-0.0056
672.8905	0.0015
673.0746	-0.0204
673.2587	-0.0095
673.4427	-0.0147
673.6267	-0.0169
673.8107	-0.01
673.9947	-0.0242
674.1787	0.0034
674.3626	-0.0156
674.5465	0.0147
674.7304	-0.037
674.9143	0.0112
675.0982	-0.0034
675.2821	0.0131
675.4659	0.001
675.6497	0.0147
675.8335	0.0059
676.0173	-0.0023
676.2011	-0.0031
676.3849	-0.0264
676.5686	-0.002
676.7523	-0.0108
676.936	-0.0106
677.1197	0.016
677.3034	0.0125
677.487	0.0145
677.6706	-0.0158
677.8542	0.0043
678.0378	0.0126
678.2214	-0.0063
678.405	0.0042
678.5885	0.0016
678.772	-0.0092
678.9555	0.0023
679.139	-0.0219
679.3225	-0.0215
679.5059	-0.0079
679.6894	-0.0106
679.8728	-0.0074
680.0562	0.0005
680.2395	-0.0132
680.4229	-0.0078
680.6062	0.0026
680.7896	0.0058
680.9729	0.0014
681.1562	-0.0078
681.3394	0.0083
681.5227	-0.0288
681.7059	-0.0083
681.8891	0.0044
682.0723	-0.0177
682.2555	0.0065
682.4387	0.012
682.6218	-0.0139
682.805	-0.0194
682.9881	-0.0192
683.1712	0.0073
683.3542	-0.0274
683.5373	0.0127
683.7203	-0.0004
683.9034	0.0042
684.0864	-0.0042
684.2694	0.0097
684.4523	-0.0025
684.6353	0.0152
684.8182	0.0009
685.0011	-0.0078
685.184	0.0073
685.3669	0.0044
685.5498	0.0058
685.7326	-0.0174
685.9154	-0.0081
686.0982	-0.0018
686.281	-0.007
686.4638	-0.0045
686.6465	-0.0071
686.8293	0.0159
687.012	-0.0019
687.1947	0.0037
687.3774	0.0016
687.56	-0.0029
687.7427	0.0063
687.9253	0.0037
688.1079	0.0101
688.2905	-0.0057
688.4731	0.0067
688.6556	0.0021
688.8382	-0.0022
689.0207	-0.012
689.2032	-0.0357
689.3857	-0.0162
689.5681	-0.016
689.7506	-0.01
689.933	-0.0047
690.1154	-0.0018
690.2978	0.0097
690.4802	-0.0111
690.6626	-0.0221
690.8449	-0.0282
691.0272	-0.0174
691.2095	-0.0051
691.3918	-0.0128
691.5741	0.0042
691.7563	0.0021
691.9386	-0.0232
692.1208	-0.0069
692.303	0.0033
692.4852	-0.0035
692.6673	-0.0168
692.8495	-0.0025
693.0316	-0.0226
693.2137	0.0257
693.3958	0.0011
693.5778	-0.0148
693.7599	-0.0356
693.9419	0.0168
694.1239	-0.0155
694.3059	-0.013
694.4879	-0.0304
694.6699	-0.0064
694.8518	-0.0065
695.0337	-0.0059
695.2157	-0.0009
695.3975	-0.0139
695.5794	-0.0221
695.7613	0.0226
695.9431	-0.0278
696.1249	-0.0156
696.3067	-0.0096
696.4885	0.0073
696.6703	0.0066
696.852	-0.0212
697.0337	-0.0189
697.2154	-0.0018
697.3971	0.0161
697.5788	0.0369
697.7605	0.0073
697.9421	-0.0142
698.1237	-0.0002
698.3053	-0.0162
698.4869	0.013
698.6685	-0.0144
698.85	0.0097
699.0315	-0.0132
699.213	-0.0201
699.3945	0.0084
699.576	-0.022
699.7575	-0.0123
699.9389	-0.0102
700.1203	-0.0061
700.3017	-0.0182
700.4831	-0.0028
700.6645	0.02
700.8458	0.0071
701.0271	-0.017
701.2084	-0.0264
701.3897	-0.0091
701.571	0.0326
701.7523	-0.032
701.9335	0.0249
702.1147	-0.0212
702.2959	0.0234
702.4771	-0.0122
702.6583	-0.0224
702.8394	-0.0026
703.0205	-0.0094
703.2016	-0.0086
703.3827	0.0102
703.5638	-0.0226
703.7449	0.009
703.9259	0.0008
704.1069	0.0102
704.2879	0.0115
704.4689	0.0044
704.6499	-0.0359
704.8308	-0.0083
705.0117	-0.0055
705.1927	-0.0101
705.3735	0.0286
705.5544	0.0071
705.7353	-0.0045
705.9161	0.0161
706.0969	-0.0094
706.2777	0.0159
706.4585	-0.0102
706.6393	-0.0145
706.82	-0.0088
707.0007	0.0013
707.1815	0.0263
707.3621	-0.0004
707.5428	0.0193
707.7235	-0.0046
707.9041	-0.0098
708.0847	-0.0244
708.2653	-0.0154
708.4459	0.012
708.6265	0.0062
708.807	-0.016
708.9875	0.0101
709.168	-0.0042
709.3485	0.0004
709.529	0.0145
709.7095	0.0092
709.8899	0.0287
710.0703	0.0046
710.2507	0.0052
710.4311	-0.0214
710.6115	0.0185
710.7918	-0.0114
710.9721	-0.0086
711.1524	-0.0161
711.3327	0.002
711.513	-0.0281
711.6932	-0.0294
711.8735	0.014
712.0537	0.01
712.2339	-0.0226
712.4141	0
712.5942	0
712.7744	0.0056
712.9545	-0.0042
713.1346	-0.0042
713.3147	0.0185
713.4947	-0.01
713.6748	-0.0084
713.8548	-0.0042
714.0348	0.0124
714.2148	-0.0067
714.3948	0.0165
714.5748	-0.0134
714.7547	0.0241
714.9346	-0.0082
715.1145	-0.0139
715.2944	0.009
715.4743	-0.0127
715.6541	-0.0017
715.834	0.0277
716.0138	-0.0057
716.1936	0.0067
716.3733	-0.0341
716.5531	-0.0037
716.7328	-0.0315
716.9126	-0.0211
717.0923	0.0201
717.2719	-0.0138
717.4516	-0.028
717.6312	-0.036
717.8109	0.0187
717.9905	-0.0135
718.1701	-0.0237
718.3496	0.0004
718.5292	-0.0279
718.7087	-0.0087
718.8882	0.0125
719.0677	-0.0276
719.2472	0.0212
719.4267	-0.0129
719.6061	-0.0096
719.7856	-0.0097
719.965	0.0201
720.1443	-0.0152
720.3237	-0.0022
720.5031	-0.003
720.6824	-0.0015
720.8617	-0.0115
721.041	0.0188
721.2203	0.0269
721.3995	-0.0082
721.5788	0.0025
721.758	-0.005
721.9372	-0.0109
722.1164	0.0194
722.2956	0.0049
722.4747	0.0094
722.6538	0.0018
722.8329	-0.0367
723.012	0.0052
723.1911	0.022
723.3702	-0.0306
723.5492	-0.0048
723.7282	0.0202
723.9072	-0.0442
724.0862	-0.0095
724.2652	-0.0081
724.4441	-0.0283
724.623	-0.0062
724.8019	0.0015
724.9808	-0.0266
725.1597	-0.0066
725.3385	0.0032
725.5174	0.0209
725.6962	0.0308
725.875	0.0199
726.0538	0.0007
726.2325	-0.0036
726.4112	0.0141
726.59	-0.0075
726.7687	0.0257
726.9474	-0.005
727.126	-0.0106
727.3047	0.0059
727.4833	-0.01
727.6619	0.0193
727.8405	0
728.0191	-0.0168
728.1976	-0.0311
728.3762	-0.0376
728.5547	-0.005
728.7332	0.0025
728.9116	-0.0526
729.0901	0.0343
729.2686	-0.0151
729.447	0.0184
729.6254	0.0099
729.8038	-0.0105
729.9821	0.0105
730.1605	-0.0077
730.3388	-0.0241
730.5171	-0.0158
730.6954	-0.0086
730.8737	0.0121
731.0519	-0.0087
731.2302	-0.0104
731.4084	-0.0103
731.5866	-0.0413
731.7648	-0.029
731.9429	-0.0127
732.1211	-0.0167
732.2992	-0.0172
732.4773	-0.014
732.6554	-0.0042
732.8335	0.0058
733.0115	0.0025
733.1896	-0.0243
733.3676	0.005
733.5456	0.007
733.7235	-0.0022
733.9015	-0.0018
734.0794	-0.0146
734.2574	0.012
734.4353	-0.0195
734.6131	0.0057
734.791	-0.0157
734.9689	0.0037
735.1467	-0.0137
735.3245	0.0141
735.5023	-0.0024
735.68	0.0081
735.8578	0.0108
736.0355	-0.0134
736.2132	0.0011
736.3909	-0.0185
736.5686	-0.0005
736.7463	-0.0047
736.9239	0.0058
737.1015	-0.0128
737.2791	0.0087
737.4567	-0.0007
737.6343	0.0069
737.8118	0.0019
737.9894	-0.0067
738.1669	0.0157
738.3444	-0.0052
738.5218	-0.0068
738.6993	-0.0146
738.8767	-0.0082
739.0541	0.0102
739.2315	0.0047
739.4089	-0.0114
739.5863	0.0052
739.7636	0.0129
739.9409	-0.018
740.1182	-0.0223
740.2955	-0.0425
740.4728	0.0045
740.65	-0.0028
740.8272	-0.0263
741.0044	0.0047
741.1816	0.0259
741.3588	0.0162
741.5359	-0.0116
741.7131	0.0255
741.8902	-0.0286
742.0673	0.0272
742.2444	-0.0124
742.4214	-0.0184
742.5985	0.0071
742.7755	-0.0368
742.9525	0.0078
743.1295	-0.0049
743.3064	0.0058
743.4834	-0.001
743.6603	-0.0204
743.8372	0.0048
744.0141	0.009
744.191	-0.0039
744.3678	0.0064
744.5446	0.0134
744.7215	-0.0096
744.8982	-0.0033
745.075	-0.0244
745.2518	-0.0113
745.4285	-0.0183
745.6052	0.0005
745.7819	-0.0066
745.9586	-0.004
746.1353	0.0155
746.3119	-0.0125
746.4885	-0.0071
746.6651	-0.0484
746.8417	-0.0197
747.0183	-0.0139
747.1948	-0.0085
747.3714	0.0154
747.5479	0.0142
747.7244	-0.0465
747.9008	0.0086
748.0773	0.016
748.2537	0.0073
748.4301	0.0047
748.6065	-0.027
748.7829	0.0008
748.9593	-0.0042
749.1356	-0.0187
749.3119	-0.0053
749.4882	-0.0348
749.6645	0.0107
749.8408	-0.0102
750.017	-0.0101
750.1933	0.0274
750.3695	0.0214
750.5457	-0.0059
750.7218	0.0197
750.898	-0.0151
751.0741	0.0236
751.2502	0.0013
751.4263	-0.0099
751.6024	0.0232
751.7784	-0.0405
751.9545	-0.0374
752.1305	-0.0004
752.3065	-0.0038
752.4825	-0.0328
752.6584	0.0108
752.8344	-0.0018
753.0103	-0.0141
753.1862	-0.0082
753.3621	-0.0097
753.5379	0.0028
753.7138	-0.0419
753.8896	0.0253
754.0654	0.0093
754.2412	0.008
754.417	-0.0007
754.5927	-0.0063
754.7685	-0.0273
754.9442	-0.0108
755.1199	-0.0003
755.2956	0.0124
755.4712	-0.0116
755.6469	-0.0094
755.8225	-0.0086
755.9981	0.0182
756.1736	0.0204
756.3492	-0.0162
756.5248	-0.0173
756.7003	-0.0031
756.8758	-0.0102
757.0513	-0.0131
757.2267	-0.0091
757.4022	-0.0024
757.5776	-0.0156
757.753	-0.0219
757.9284	-0.0024
758.1038	-0.0083
758.2791	-0.0054
758.4545	-0.0295
758.6298	-0.0137
758.8051	-0.0085
758.9803	0.002
759.1556	-0.0286
759.3308	0.0081
759.506	0.0193
759.6812	-0.0055
759.8564	-0.0202
760.0316	0.0081
760.2067	-0.014
760.3819	-0.0201
760.557	-0.0057
760.732	0.0145
760.9071	-0.0062
761.0821	0.0052
761.2572	0.0109
761.4322	-0.0143
761.6072	-0.0193
761.7821	0.019
761.9571	-0.0166
762.132	-0.0094
762.3069	-0.0094
762.4818	-0.0008
762.6567	0.0107
762.8316	0.0197
763.0064	-0.048
763.1812	-0.0335
763.356	0.0025
763.5308	-0.0078
763.7055	0.0006
763.8803	-0.008
764.055	-0.02
764.2297	-0.0111
764.4044	-0.0104
764.579	-0.0195
764.7537	-0.001
764.9283	-0.027
765.1029	0.0042
765.2775	-0.0225
765.4521	0.0119
765.6266	-0.0354
765.8011	-0.0199
765.9756	0.0048
766.1501	0.0112
766.3246	-0.0239
766.4991	-0.0518
766.6735	0.0072
766.8479	0.0022
767.0223	0.005
767.1967	0.0257
767.371	0.0143
767.5454	0.001
767.7197	-0.0181
767.894	0.0043
768.0683	-0.0181
768.2425	0.0051
768.4168	0.0163
768.591	0.0108
768.7652	0.0038
768.9394	-0.0109
769.1135	0.0111
769.2877	0.0035
769.4618	-0.0114
769.6359	0.0259
769.81	0.0013
769.984	-0.0163
770.1581	0.0027
770.3321	-0.0442
770.5061	0.0191
770.6801	0.0085
770.8541	-0.0175
771.028	-0.0173
771.202	-0.032
771.3759	-0.0187
771.5498	-0.0223
771.7236	-0.0041
771.8975	-0.0313
772.0713	0.0142
772.2451	-0.0058
772.4189	0.0087
772.5927	-0.0105
772.7665	0.0104
772.9402	-0.0021
773.1139	0.0085
773.2876	-0.0108
773.4613	-0.02
773.635	-0.0022
773.8086	0.0001
773.9822	-0.0155
774.1558	0.0117
774.3294	-0.052
774.503	0.0063
774.6765	-0.0087
774.8501	-0.0072
775.0236	0.0008
775.1971	0.0235
775.3705	-0.0031
775.544	0.0401
775.7174	-0.0653
775.8908	0.0306
776.0642	0.0353
776.2376	-0.0418
776.4109	0.0241
776.5843	0.0465
776.7576	0.0491
776.9309	-0.004
777.1041	-0.0044
777.2774	-0.0322
777.4506	-0.0324
777.6238	-0.0223
777.797	0.0008
777.9702	0.0312
778.1434	-0.0031
778.3165	-0.0277
778.4896	-0.0047
778.6627	0.0257
778.8358	-0.0029
779.0089	-0.0017
779.1819	0.0153
779.3549	0.0588
779.5279	0.0227
779.7009	0.0096
779.8739	-0.0319
780.0468	0.0214
780.2197	-0.0171
780.3926	-0.0392
780.5655	-0.0368
780.7384	0.0026
780.9112	-0.0187
781.0841	-0.0236
781.2569	-0.0056
781.4297	0.032
781.6024	-0.0143
781.7752	0.0109
781.9479	-0.0233
782.1206	-0.0192
782.2933	0.0275
782.466	-0.0192
782.6386	-0.0364
782.8113	-0.0199
782.9839	-0.0073
783.1565	-0.0088
783.329	0.0116
783.5016	-0.0153
783.6741	-0.037
783.8466	-0.066
784.0191	-0.0057
784.1916	0.0071
784.3641	-0.0533
784.5365	0.0354
784.7089	-0.0015
784.8813	0.0669
785.0537	-0.0378
785.2261	0.0087
785.3984	0.0001
785.5707	0.0389
785.743	-0.0487
785.9153	-0.0041
786.0876	-0.0164
786.2598	0.0332
786.432	-0.0144
786.6042	0.0228
786.7764	-0.0244
786.9486	0.0241
787.1207	0.0381
787.2928	-0.0122
787.4649	0.0291
787.637	0
787.8091	-0.0238
787.9811	-0.0214
788.1532	-0.0179
788.3252	-0.0079
788.4972	-0.0195
788.6691	0.0115
788.8411	0.0091
789.013	0.0107
789.1849	0.0065
789.3568	0.0342
789.5287	-0.0449
789.7005	0.0338
789.8723	-0.0086
790.0442	-0.0368
790.2159	0.0425
790.3877	0.0278
790.5595	-0.0194
790.7312	0.0184
790.9029	-0.0089
791.0746	0.0058
791.2463	0.0296
791.4179	-0.0385
791.5896	-0.0065
791.7612	-0.0818
791.9328	-0.062
792.1044	-0.0366
792.2759	-0.0331
792.4474	-0.0489
792.619	0.0291
792.7905	-0.0035
792.9619	0.0185
793.1334	-0.0211
793.3048	0.0061
793.4762	-0.0395
793.6476	0.0031
793.819	-0.0337
793.9904	0
794.1617	-0.0042
794.333	0.0001
794.5043	-0.017
794.6756	0.0028
794.8469	-0.0081
795.0181	-0.0078
795.1893	-0.019
795.3605	-0.0509
795.5317	0.0125
795.7029	0.019
795.874	0.002
796.0452	-0.0076
796.2163	0.035
796.3873	0.0621
796.5584	0.0181
796.7294	-0.0368
796.9005	-0.0769
797.0715	-0.0114
797.2425	0.0202
797.4134	-0.001
797.5844	0.0915
797.7553	0.0024
797.9262	0.0515
798.0971	-0.0502
798.2679	0.016
798.4388	-0.0396
798.6096	-0.0502
798.7804	-0.0261
798.9512	-0.014
799.122	0.0164
799.2927	-0.0693
799.4635	0.0214
799.6342	-0.0292
799.8049	0.0749
799.9755	-0.0355
800.1462	0.0454
800.3168	-0.0215
800.4874	0.0015
800.658	-0.0034
800.8286	-0.0546
800.9991	0.0274
801.1696	-0.0371
801.3402	-0.0589
801.5106	-0.0157
801.6811	-0.0106
801.8516	-0.0871
802.022	-0.0198
802.1924	-0.1157
802.3628	-0.1036
802.5332	-0.0359
802.7035	-0.0793
802.8739	0.0094
803.0442	0.0621
803.2145	0.0323
803.3847	-0.031
803.555	0.0211
803.7252	0.0966
803.8954	0.0437
804.0656	0.0685
804.2358	-0.0248
804.4059	0.0462
804.5761	0.0723
804.7462	0.0689
804.9163	-0.0948
805.0864	-0.0591
805.2564	-0.0108
805.4264	-0.0122
805.5965	0.034
805.7665	0.0304
805.9364	-0.0016
806.1064	-0.0199
806.2763	0.0059
806.4462	-0.0028
806.6161	-0.0186
806.786	0.0197
806.9559	0.0057
807.1257	-0.0042
807.2955	-0.0144
807.4653	-0.0184
807.6351	-0.015
807.8048	-0.0192
807.9746	-0.0189
808.1443	0.0227
808.314	0.0691
808.4837	-0.0574
808.6533	0.0046
808.8229	-0.0447
808.9926	-0.0132
809.1622	0.0142
809.3317	-0.0876
809.5013	0.1255
809.6708	0.0397
809.8403	0.0082
810.0098	0.1206
810.1793	0.0674
810.3488	0.0624
810.5182	0.013
810.6876	0.0201
810.857	0.0085
811.0264	-0.0719
811.1958	0.0187
811.3651	-0.1285
811.5344	-0.0602
811.7037	-0.069
811.873	0.067
812.0422	0.0369
812.2115	-0.0543
812.3807	-0.0364
812.5499	0.0498
812.7191	0.0003
812.8882	-0.1008
813.0574	-0.0988
813.2265	-0.0254
813.3956	0.0214
813.5646	-0.0328
813.7337	-0.0449
813.9027	-0.0796
814.0718	0.0017
814.2407	-0.1322
814.4097	-0.0248
814.5787	-0.0297
814.7476	-0.0392
814.9165	0.0958
815.0854	0.0726
815.2543	-0.0394
815.4232	-0.0913
815.592	0.0643
815.7608	0.1204
815.9296	0.0876
816.0984	-0.1472
816.2671	-0.0982
816.4359	0.1268
816.6046	-0.016
816.7733	0.0148
816.942	0.019
817.1106	-0.1727
817.2793	-0.0789
817.4479	-0.0349
817.6165	-0.0685
817.785	0.1135
817.9536	0.0436
818.1221	0.0161
818.2906	0.0327
818.4591	0.036
818.6276	-0.0167
818.7961	0.0549
818.9645	0.0649
819.1329	0.1745
819.3013	-0.0227
819.4697	0.2565
819.638	0.0153
819.8064	-0.2102
819.9747	0.0045
820.143	0.1262
820.3113	0.1321
820.4795	0.1446
820.6477	-0.1133
820.816	-0.0707
820.9842	-0.033
821.1523	0.2106
821.3205	-0.0444
821.4886	-0.0208
821.6567	0.0129
821.8248	0.1025
821.9929	-0.0641
822.1609	-0.0029
822.329	0.0549
822.497	0.0364
822.665	-0.0492
822.833	-0.1365
823.0009	-0.0304
823.1688	-0.0954
823.3367	-0.1419
823.5046	0.0057
823.6725	0.0345
823.8404	0.0351
824.0082	-0.0588
824.176	0.1567
824.3438	0.0246
824.5116	0.1171
824.6793	-0.0102
824.847	0.144
825.0147	0.2866
825.1824	0.1681
825.3501	0.0325
825.5177	0.1327
825.6854	0.0632
825.853	-0.0068
826.0206	0.0737
826.1881	-0.0037
826.3557	0.0413
826.5232	0.2863
826.6907	0.0427
826.8582	0.0543
827.0257	-0.2155
827.1931	0.0606
827.3605	-0.0989
827.528	-0.0041
827.6953	0.1983
827.8627	0.0068
828.03	0.1121
828.1974	-0.0889
828.3647	-0.0025
828.532	0.1336
828.6992	-0.0247
828.8665	-0.0132
829.0337	0.0184
829.2009	-0.0309
829.3681	0.0651
829.5352	0.1153
829.7024	0.0672
829.8695	-0.0084
830.0366	0.0735
830.2037	0.035
830.3707	-0.1311
830.5378	-0.1389
830.7048	-0.1914
830.8718	-0.1612
831.0388	0.1182
831.2057	-0.2056
831.3727	-0.1598
831.5396	-0.0553
831.7065	-0.0714
831.8734	-0.4072
832.0402	0.184
832.2071	-0
832.3739	-0.0055
832.5407	-0
832.7075	0.1216
832.8742	0.1962
833.041	-0.0903
833.2077	1.3198
833.3744	0.0982
833.541	-0.0505
833.7077	0.0394
833.8743	-0.043
834.0409	-0.0038
834.2075	0.1462
834.3741	0.0565
834.5407	-0.1599
834.7072	0.1761
834.8737	-0.0335
835.0402	-0.3892
835.2067	0.1425
835.3731	0.0219
835.5395	-0.0611
835.706	0.2362
835.8723	-0.0193
836.0387	-0.1639
836.2051	0.0006
836.3714	-0.3095
836.5377	0.049
836.704	-0.0395
836.8703	-0.0728
837.0365	-0
837.2027	-0.4031
837.3689	-0
837.5351	-0.3558
837.7013	0.5719
837.8674	-0.7724
838.0335	-0.0282
838.1997	-0.2574
838.3657	0.0658
838.5318	-0.6297
838.6978	-0.0202
838.8639	0.6214
839.0299	0.6532
839.1958	0.0221
839.3618	0.1717
839.5277	-0.1183
839.6937	-0.2753
839.8596	0.0161
840.0254	0.3207
840.1913	0.3516
840.3571	-0.3558
840.523	0.2481
840.6888	0.3497
840.8545	-0.0327
841.0203	-0.2068
841.186	0.7425
841.3517	0.0785
841.5174	0.0883
841.6831	0.3493
841.8488	0.2395
842.0144	0.1477
842.18	0.5258
842.3456	-0.0136
842.5112	-0
842.6767	-0.2658
842.8422	-0.0936
843.0077	0.2524
843.1732	0.0637
843.3387	-0.2082
843.5042	1.4677
843.6696	0.1173
843.835	0.4469
844.0004	-0.1416
844.1657	-0
844.3311	-0.7054
844.4964	-0
844.6617	-0
844.827	-0
844.9923	0.2008
845.1575	-0
845.3227	0.8806
845.4879	-0.0271
845.6531	-0.2903
845.8183	0.1105
845.9834	-0.6042
846.1485	-0.229
846.3136	0.029
846.4787	-0.3554
846.6438	0.446
846.8088	-1.4105
846.9738	0.3874
847.1388	0.0846
847.3038	-0.0692
847.4687	-0
847.6337	1.1354
847.7986	0.0773
847.9635	-0.354
848.1284	-0
848.2932	0.0374
848.458	1.1645
848.6228	0.2123
848.7876	1.4279
848.9524	0.381
849.1172	-0.104
849.2819	-0
849.4466	-0.3072
849.6113	-0.1233
849.7759	-0.0776
849.9406	0.5275
850.1052	0.037
850.2698	-0
850.4344	0.3807
850.599	1.2468
850.7635	0.0619
850.928	0.6676
851.0925	-0.0336
851.257	-0.3573
851.4215	-0.591
851.5859	0.1462
851.7503	-0
851.9147	-0
852.0791	-0.2309
852.2434	0.011
852.4078	-0
852.5721	-0
852.7364	0.2872
852.9007	-0.256
853.0649	0.3302
853.2291	0.0192
853.3934	-0
853.5575	-0.1866
853.7217	-0
853.8859	-0
854.05	-0.9442
854.2141	-0
854.3782	0.5842
854.5423	-0.6978
854.7063	0.1018
854.8703	0.8751
855.0343	-0.1118
855.1983	0.4535
855.3623	-0.1179
855.5262	-0.287
855.6901	0.3209
855.854	-0.0304
856.0179	-0
856.1818	-0
856.3456	0.5704
856.5094	-0
856.6732	-0
856.837	0.2668
857.0008	-0.1951
857.1645	-0.0053
857.3282	0.2136
857.4919	-0.1302
857.6556	0.3004
857.8192	-0.3511
857.9828	-0.317
858.1465	0.7799
858.31	-1.8047
858.4736	0.509
858.6372	-0.2739
858.8007	-1.1127
858.9642	0.5172
859.1277	-0.6999
859.2911	0.1385
859.4546	0.3276
859.618	-0.1528
859.7814	-0.3595
859.9448	0.4029
860.1081	-0
860.2715	-0
860.4348	-0.1945
860.5981	-0.4292
860.7614	-0
860.9246	-0.2038
861.0879	-0.5289
861.2511	-0
861.4143	-0
861.5774	0.6442
861.7406	0.044
861.9037	-0.0657
862.0668	-0.5484
862.2299	-0
862.393	-0
862.556	-0
862.7191	0.5411
862.8821	-0.4296
863.0451	0.1761
863.208	-0.1055
863.371	0.7272
863.5339	-0.1717
863.6968	-0
863.8597	-0.8653
864.0225	-0
864.1854	0.3033
864.3482	-0
864.511	0.0011
864.6737	-0
864.8365	0.1229
864.9992	0.2655
865.1619	-0
865.3246	0.712
865.4873	-0
865.65	-1.0464
865.8126	-0
865.9752	-0.2329
866.1378	-0.8813
866.3004	0.0553
866.4629	-0.139
866.6254	-0
866.7879	-0.1478
866.9504	-0.7326
867.1129	-0
867.2753	-0.0955
867.4377	0.1761
867.6001	0.4793
867.7625	0.0125
867.9249	1.0466
868.0872	2.273
868.2495	-0
868.4118	-0.0644
868.5741	0.2967
868.7363	-0
868.8986	-0.0417
869.0608	0.6706
869.223	0.5415
869.3851	-0
869.5473	-1.405
869.7094	-0
869.8715	-0
870.0336	0.6273
870.1957	-0.8998
870.3577	2.1629
870.5197	-0.0673
870.6817	-0
870.8437	1.8321
871.0057	-0
871.1676	0.1573
871.3295	-0
871.4914	-0.433
871.6533	0.0661
871.8151	-0.0744
871.977	-0
872.1388	-0.8138
872.3006	0.5177
872.4623	-0
872.6241	-0
872.7858	-0.3983
872.9475	-0
873.1092	0.0158
873.2709	-0.0994
873.4325	-0
873.5941	-0.953
873.7557	-0.0053
873.9173	-0.6762
874.0789	0.1374
874.2404	0.0605
874.4019	0.2023
874.5634	0.1761
874.7249	-0
874.8863	-0.4867
875.0478	0.2617
875.2092	0.0829
875.3706	0.0443
875.5319	-0
875.6933	0.1936
875.8546	-0.4137
876.0159	0.1096
876.1772	-0
876.3385	0.0547
876.4997	-0.0587
876.6609	-0
876.8221	-0
876.9833	0.4231
877.1445	-0.0209
877.3056	-0.1184
877.4667	-0.5229
877.6278	-0
877.7889	0.2395
877.9499	-0.0587
878.111	0.3967
878.272	0.0058
878.433	-0.1055
878.5939	0.1628
878.7549	-0.385
878.9158	-0.2438
879.0767	-0.3616
879.2376	0.1217
879.3984	-0
879.5593	0.3442
879.7201	-0
879.8809	-0.1972
880.0417	0.1557
880.2024	-0.2458
880.3632	0.019
880.5239	0.1254
880.6846	-0
880.8452	0.5584
881.0059	-0.1822
881.1665	0.0253
881.3271	0.0928
881.4877	0.6706
881.6483	-1.7465
881.8088	-0.211
881.9693	-0.1198
882.1298	-0.1198
882.2903	-0.1198
