Data from D4ACN5uM480nmA_Absorbance_12-08-01-765.txt Node
Date: Fri Feb 21 12:08:01 GMT 2025
User: LASERRRRR
Spectrometer: FLMT03099
Trigger mode: 0
Integration Time (sec): 1.500000E-2
Scans to average: 1
Electric dark correction enabled: true
Nonlinearity correction enabled: false
Boxcar width: 0
XAxis mode: Wavelengths
Number of Pixels in Spectrum: 3648
>>>>>Begin Spectral Data<<<<<
179.3399	0.5489
179.5586	0.5489
179.7771	0.5489
179.9957	-0.1905
180.2143	-0.1068
180.4329	-0
180.6514	-0
180.8699	-0
181.0885	-0.4604
181.307	0.4407
181.5255	-0.2784
181.744	-0
181.9625	-0.5259
182.181	0.4373
182.3994	-0
182.6179	-0.7291
182.8363	-0
183.0547	0.1619
183.2732	0.2094
183.4916	0.108
183.71	0.1765
183.9284	0.1124
184.1467	-0.108
184.3651	0.3771
184.5835	0.0545
184.8018	0.1977
185.0201	0.4481
185.2385	0.238
185.4568	0.5613
185.6751	0.1649
185.8934	0.4422
186.1117	0.0753
186.3299	0.1323
186.5482	0.1229
186.7664	0.3428
186.9847	0.3368
187.2029	0.1026
187.4211	0.2757
187.6393	0.2325
187.8575	0.074
188.0757	0.5729
188.2939	-0.0406
188.512	0.1909
188.7302	0.1166
188.9483	0.5811
189.1665	0.4416
189.3846	0.1218
189.6027	0.1274
189.8208	0.2775
190.0389	0.3395
190.257	0.3291
190.475	0.1585
190.6931	0.2962
190.9111	0.6854
191.1292	0.4771
191.3472	0.3092
191.5652	0.7367
191.7832	0.1544
192.0012	0.2846
192.2192	0.3459
192.4371	0.2457
192.6551	0.3937
192.873	0.2179
193.091	0.3504
193.3089	0.1609
193.5268	0.526
193.7447	0.7111
193.9626	0.5869
194.1805	0.4172
194.3984	0.4324
194.6162	0.5096
194.8341	0.549
195.0519	0.5072
195.2697	0.6176
195.4875	0.6682
195.7054	0.498
195.9231	0.5178
196.1409	0.6226
196.3587	0.576
196.5765	0.555
196.7942	0.6562
197.012	0.5388
197.2297	0.5817
197.4474	0.6813
197.6651	0.5374
197.8828	0.6888
198.1005	0.7872
198.3182	0.5111
198.5358	0.5581
198.7535	0.5785
198.9711	0.7014
199.1888	0.6709
199.4064	0.5874
199.624	0.613
199.8416	0.581
200.0592	0.5981
200.2767	0.5316
200.4943	0.6515
200.7119	0.6426
200.9294	0.6266
201.1469	0.6683
201.3645	0.6215
201.582	0.5802
201.7995	0.6908
202.017	0.5272
202.2344	0.5504
202.4519	0.5405
202.6694	0.5651
202.8868	0.548
203.1042	0.5458
203.3217	0.5689
203.5391	0.5083
203.7565	0.5182
203.9739	0.5042
204.1913	0.5468
204.4086	0.523
204.626	0.5487
204.8433	0.5265
205.0607	0.4853
205.278	0.5512
205.4953	0.4796
205.7126	0.5026
205.9299	0.4884
206.1472	0.4897
206.3644	0.4976
206.5817	0.4748
206.7989	0.4888
207.0162	0.4561
207.2334	0.4851
207.4506	0.4133
207.6678	0.4401
207.885	0.4928
208.1022	0.4412
208.3194	0.4045
208.5365	0.4554
208.7537	0.462
208.9708	0.4576
209.1879	0.4264
209.405	0.4078
209.6222	0.3962
209.8392	0.4173
210.0563	0.4307
210.2734	0.4053
210.4905	0.4194
210.7075	0.4353
210.9245	0.4129
211.1416	0.4218
211.3586	0.402
211.5756	0.4188
211.7926	0.4313
212.0096	0.3834
212.2265	0.4054
212.4435	0.4372
212.6604	0.4044
212.8774	0.4178
213.0943	0.419
213.3112	0.3921
213.5281	0.4198
213.745	0.431
213.9619	0.4054
214.1788	0.4302
214.3956	0.4214
214.6125	0.4072
214.8293	0.4061
215.0461	0.4026
215.2629	0.4057
215.4798	0.3945
215.6965	0.405
215.9133	0.4198
216.1301	0.399
216.3469	0.3994
216.5636	0.4012
216.7803	0.4126
216.9971	0.4207
217.2138	0.3951
217.4305	0.4157
217.6472	0.4264
217.8639	0.4033
218.0805	0.4114
218.2972	0.4168
218.5138	0.4399
218.7305	0.461
218.9471	0.4015
219.1637	0.4196
219.3803	0.4287
219.5969	0.3964
219.8135	0.4204
220.0301	0.4228
220.2466	0.4215
220.4632	0.4247
220.6797	0.4282
220.8962	0.4363
221.1127	0.4374
221.3292	0.4372
221.5457	0.4362
221.7622	0.4335
221.9787	0.4499
222.1951	0.4308
222.4116	0.4287
222.628	0.4545
222.8444	0.4392
223.0608	0.4418
223.2772	0.4428
223.4936	0.4631
223.71	0.4669
223.9264	0.4358
224.1427	0.4453
224.3591	0.4549
224.5754	0.4661
224.7917	0.4623
225.008	0.4524
225.2243	0.46
225.4406	0.4648
225.6569	0.4635
225.8732	0.4614
226.0894	0.4793
226.3057	0.4597
226.5219	0.4714
226.7381	0.4496
226.9543	0.4706
227.1705	0.4749
227.3867	0.4952
227.6029	0.4607
227.8191	0.4831
228.0352	0.4986
228.2513	0.4953
228.4675	0.4833
228.6836	0.4968
228.8997	0.5072
229.1158	0.4859
229.3319	0.4897
229.548	0.4912
229.764	0.4836
229.9801	0.4936
230.1961	0.5126
230.4121	0.5102
230.6282	0.5132
230.8442	0.5086
231.0602	0.513
231.2761	0.5148
231.4921	0.5144
231.7081	0.5156
231.924	0.5122
232.14	0.5245
232.3559	0.5393
232.5718	0.5284
232.7877	0.5272
233.0036	0.5185
233.2195	0.5289
233.4353	0.5396
233.6512	0.5323
233.867	0.5346
234.0829	0.5343
234.2987	0.5209
234.5145	0.5378
234.7303	0.5289
234.9461	0.5328
235.1619	0.5266
235.3776	0.5308
235.5934	0.5255
235.8091	0.5264
236.0249	0.541
236.2406	0.5375
236.4563	0.5466
236.672	0.5472
236.8877	0.5462
237.1034	0.5228
237.319	0.5424
237.5347	0.5208
237.7503	0.5305
237.966	0.535
238.1816	0.5285
238.3972	0.5314
238.6128	0.5428
238.8284	0.5316
239.0439	0.5472
239.2595	0.5238
239.475	0.5412
239.6906	0.54
239.9061	0.523
240.1216	0.5368
240.3371	0.527
240.5526	0.5136
240.7681	0.5268
240.9836	0.5169
241.199	0.5152
241.4145	0.4985
241.6299	0.4995
241.8453	0.4988
242.0607	0.4965
242.2761	0.4757
242.4915	0.4749
242.7069	0.4667
242.9223	0.4635
243.1376	0.4466
243.353	0.4448
243.5683	0.438
243.7836	0.4294
243.9989	0.4187
244.2142	0.4139
244.4295	0.4061
244.6448	0.403
244.86	0.3852
245.0753	0.3761
245.2905	0.3726
245.5057	0.3645
245.721	0.3653
245.9362	0.3538
246.1514	0.335
246.3665	0.3382
246.5817	0.3369
246.7969	0.3248
247.012	0.3244
247.2271	0.3117
247.4423	0.3096
247.6574	0.3069
247.8725	0.2958
248.0876	0.2961
248.3026	0.2905
248.5177	0.2833
248.7328	0.282
248.9478	0.2666
249.1628	0.2683
249.3779	0.2708
249.5929	0.2602
249.8079	0.2534
250.0228	0.2488
250.2378	0.2494
250.4528	0.249
250.6677	0.2447
250.8827	0.2387
251.0976	0.249
251.3125	0.2344
251.5274	0.2347
251.7423	0.2271
251.9572	0.2197
252.172	0.212
252.3869	0.2213
252.6017	0.2213
252.8166	0.2197
253.0314	0.2198
253.2462	0.2167
253.461	0.2164
253.6758	0.2093
253.8906	0.2041
254.1053	0.2061
254.3201	0.2053
254.5348	0.2041
254.7496	0.2027
254.9643	0.205
255.179	0.2078
255.3937	0.195
255.6083	0.1979
255.823	0.1992
256.0377	0.1925
256.2523	0.1983
256.467	0.2053
256.6816	0.2086
256.8962	0.196
257.1108	0.1931
257.3254	0.1941
257.54	0.1947
257.7545	0.1922
257.9691	0.1844
258.1836	0.1877
258.3981	0.1861
258.6127	0.1855
258.8272	0.1848
259.0417	0.1816
259.2561	0.1856
259.4706	0.1914
259.6851	0.1837
259.8995	0.1834
260.114	0.1856
260.3284	0.1881
260.5428	0.1839
260.7572	0.1878
260.9716	0.1806
261.186	0.1798
261.4003	0.1917
261.6147	0.1874
261.829	0.186
262.0433	0.181
262.2577	0.18
262.472	0.1836
262.6863	0.1882
262.9005	0.1869
263.1148	0.1813
263.3291	0.1893
263.5433	0.1845
263.7576	0.1782
263.9718	0.1879
264.186	0.1823
264.4002	0.1806
264.6144	0.1928
264.8286	0.1921
265.0427	0.1853
265.2569	0.1936
265.471	0.19
265.6851	0.1798
265.8993	0.1855
266.1134	0.1837
266.3275	0.1863
266.5415	0.1851
266.7556	0.185
266.9697	0.1803
267.1837	0.1846
267.3978	0.191
267.6118	0.1848
267.8258	0.1829
268.0398	0.1868
268.2538	0.1866
268.4677	0.185
268.6817	0.177
268.8957	0.1784
269.1096	0.1748
269.3235	0.1878
269.5374	0.1742
269.7514	0.1841
269.9652	0.1832
270.1791	0.1849
270.393	0.1863
270.6068	0.1691
270.8207	0.1713
271.0345	0.1782
271.2483	0.1802
271.4622	0.1772
271.676	0.1736
271.8897	0.1713
272.1035	0.1727
272.3173	0.1749
272.531	0.1729
272.7448	0.1691
272.9585	0.1722
273.1722	0.174
273.3859	0.17
273.5996	0.1672
273.8133	0.1688
274.0269	0.1729
274.2406	0.1735
274.4542	0.1647
274.6679	0.1769
274.8815	0.172
275.0951	0.1759
275.3087	0.1757
275.5223	0.1715
275.7358	0.1789
275.9494	0.1751
276.1629	0.1806
276.3765	0.1747
276.59	0.1791
276.8035	0.1867
277.017	0.174
277.2305	0.1764
277.444	0.1764
277.6574	0.1776
277.8709	0.1785
278.0843	0.1759
278.2978	0.1759
278.5112	0.183
278.7246	0.1748
278.938	0.1762
279.1513	0.1837
279.3647	0.1826
279.5781	0.1751
279.7914	0.184
280.0047	0.1815
280.2181	0.1799
280.4314	0.1836
280.6447	0.1884
280.8579	0.1807
281.0712	0.1849
281.2845	0.189
281.4977	0.1859
281.711	0.1835
281.9242	0.1837
282.1374	0.1848
282.3506	0.1894
282.5638	0.1832
282.7769	0.1865
282.9901	0.1839
283.2033	0.1869
283.4164	0.1866
283.6295	0.1791
283.8426	0.1849
284.0557	0.1885
284.2688	0.1897
284.4819	0.1943
284.695	0.1877
284.908	0.1914
285.1211	0.1888
285.3341	0.1905
285.5471	0.1892
285.7601	0.1935
285.9731	0.1934
286.1861	0.1923
286.3991	0.1921
286.612	0.1951
286.825	0.192
287.0379	0.1898
287.2508	0.1965
287.4637	0.1966
287.6766	0.1947
287.8895	0.1877
288.1024	0.1997
288.3152	0.195
288.5281	0.1916
288.7409	0.1983
288.9538	0.2016
289.1666	0.1997
289.3794	0.2022
289.5922	0.1951
289.8049	0.2023
290.0177	0.1954
290.2304	0.2015
290.4432	0.1976
290.6559	0.1907
290.8686	0.2005
291.0813	0.1974
291.294	0.208
291.5067	0.2029
291.7194	0.1957
291.932	0.2007
292.1447	0.2013
292.3573	0.2025
292.5699	0.2003
292.7825	0.2012
292.9951	0.2048
293.2077	0.2031
293.4203	0.2003
293.6328	0.1957
293.8454	0.2049
294.0579	0.2016
294.2704	0.1973
294.4829	0.1941
294.6954	0.1959
294.9079	0.2059
295.1204	0.1979
295.3328	0.1979
295.5453	0.2035
295.7577	0.1979
295.9701	0.2001
296.1825	0.1936
296.3949	0.2038
296.6073	0.2003
296.8197	0.2062
297.0321	0.1977
297.2444	0.1953
297.4567	0.1981
297.6691	0.1973
297.8814	0.2018
298.0937	0.1991
298.306	0.1975
298.5182	0.2014
298.7305	0.1938
298.9428	0.1988
299.155	0.1945
299.3672	0.1981
299.5794	0.1971
299.7916	0.199
300.0038	0.1963
300.216	0.1999
300.4282	0.1952
300.6403	0.1923
300.8525	0.2021
301.0646	0.1996
301.2767	0.2001
301.4888	0.1981
301.7009	0.1957
301.913	0.2034
302.125	0.2001
302.3371	0.1961
302.5491	0.1976
302.7612	0.2008
302.9732	0.1938
303.1852	0.1996
303.3972	0.1954
303.6092	0.1917
303.8211	0.1837
304.0331	0.1903
304.245	0.1918
304.457	0.1959
304.6689	0.1939
304.8808	0.1915
305.0927	0.1961
305.3046	0.1884
305.5164	0.1868
305.7283	0.1911
305.9401	0.1776
306.152	0.1829
306.3638	0.1778
306.5756	0.1799
306.7874	0.1823
306.9992	0.1773
307.2109	0.1692
307.4227	0.1735
307.6344	0.1753
307.8462	0.167
308.0579	0.1665
308.2696	0.1677
308.4813	0.1648
308.693	0.1692
308.9046	0.1621
309.1163	0.1602
309.328	0.1567
309.5396	0.163
309.7512	0.153
309.9628	0.1528
310.1744	0.1587
310.386	0.1506
310.5976	0.1472
310.8091	0.1448
311.0207	0.1474
311.2322	0.1457
311.4437	0.1441
311.6552	0.1445
311.8667	0.1384
312.0782	0.1416
312.2897	0.1415
312.5012	0.142
312.7126	0.1304
312.924	0.1352
313.1355	0.1335
313.3469	0.1289
313.5583	0.1328
313.7696	0.1273
313.981	0.1305
314.1924	0.1298
314.4037	0.1226
314.6151	0.1246
314.8264	0.1269
315.0377	0.1321
315.249	0.1208
315.4603	0.1222
315.6716	0.1236
315.8828	0.1244
316.0941	0.1221
316.3053	0.1199
316.5165	0.1235
316.7277	0.1221
316.9389	0.1219
317.1501	0.117
317.3613	0.1198
317.5724	0.119
317.7836	0.1176
317.9947	0.1186
318.2058	0.1187
318.417	0.1212
318.6281	0.1168
318.8391	0.1184
319.0502	0.1189
319.2613	0.1211
319.4723	0.1127
319.6834	0.1191
319.8944	0.1192
320.1054	0.1151
320.3164	0.117
320.5274	0.11
320.7383	0.1082
320.9493	0.1157
321.1602	0.1181
321.3712	0.1165
321.5821	0.1201
321.793	0.1166
322.0039	0.1159
322.2148	0.1147
322.4257	0.1183
322.6365	0.1167
322.8474	0.1156
323.0582	0.1181
323.269	0.1126
323.4798	0.1222
323.6906	0.1172
323.9014	0.1086
324.1122	0.1178
324.3229	0.1172
324.5337	0.1203
324.7444	0.1097
324.9551	0.1226
325.1658	0.1208
325.3765	0.119
325.5872	0.1188
325.7979	0.1148
326.0085	0.12
326.2192	0.1155
326.4298	0.1177
326.6404	0.1179
326.851	0.1225
327.0616	0.1225
327.2722	0.1257
327.4828	0.1179
327.6933	0.1173
327.9039	0.1168
328.1144	0.1191
328.3249	0.1169
328.5354	0.1217
328.7459	0.1233
328.9564	0.1239
329.1669	0.1216
329.3773	0.1241
329.5878	0.1199
329.7982	0.1224
330.0086	0.121
330.219	0.1238
330.4294	0.1276
330.6398	0.1315
330.8502	0.1208
331.0605	0.1206
331.2708	0.1241
331.4812	0.122
331.6915	0.1197
331.9018	0.1202
332.1121	0.1265
332.3224	0.1336
332.5326	0.1227
332.7429	0.1213
332.9531	0.1264
333.1633	0.1232
333.3735	0.1248
333.5837	0.1267
333.7939	0.126
334.0041	0.1255
334.2143	0.1214
334.4244	0.1234
334.6346	0.1232
334.8447	0.1318
335.0548	0.1239
335.2649	0.1294
335.475	0.1275
335.685	0.1263
335.8951	0.1298
336.1051	0.1318
336.3152	0.1302
336.5252	0.1329
336.7352	0.1234
336.9452	0.1356
337.1552	0.1258
337.3652	0.1343
337.5751	0.1279
337.7851	0.1275
337.995	0.1363
338.2049	0.1314
338.4148	0.1297
338.6247	0.1302
338.8346	0.1246
339.0445	0.1355
339.2543	0.135
339.4642	0.1362
339.674	0.1374
339.8838	0.1281
340.0936	0.1336
340.3034	0.1331
340.5132	0.1295
340.7229	0.1321
340.9327	0.1433
341.1424	0.1356
341.3522	0.1359
341.5619	0.1349
341.7716	0.1365
341.9813	0.1428
342.1909	0.1458
342.4006	0.1426
342.6102	0.1364
342.8199	0.1352
343.0295	0.1422
343.2391	0.1437
343.4487	0.1444
343.6583	0.1489
343.8679	0.1438
344.0774	0.1429
344.287	0.1507
344.4965	0.1494
344.706	0.1444
344.9155	0.148
345.125	0.1489
345.3345	0.1482
345.544	0.1482
345.7534	0.141
345.9629	0.1507
346.1723	0.1516
346.3817	0.1484
346.5911	0.155
346.8005	0.1494
347.0099	0.1562
347.2193	0.1465
347.4286	0.1546
347.638	0.1538
347.8473	0.1587
348.0566	0.1626
348.2659	0.152
348.4752	0.1594
348.6845	0.1584
348.8937	0.1606
349.103	0.1574
349.3122	0.1573
349.5214	0.1531
349.7306	0.1582
349.9398	0.1592
350.149	0.1675
350.3582	0.1616
350.5674	0.1668
350.7765	0.1691
350.9856	0.1695
351.1948	0.1657
351.4039	0.1681
351.613	0.1745
351.822	0.1695
352.0311	0.1646
352.2402	0.1701
352.4492	0.1705
352.6582	0.1679
352.8672	0.1692
353.0762	0.1704
353.2852	0.1653
353.4942	0.175
353.7032	0.1691
353.9121	0.1684
354.1211	0.1746
354.33	0.172
354.5389	0.1765
354.7478	0.1814
354.9567	0.173
355.1655	0.1789
355.3744	0.18
355.5833	0.1892
355.7921	0.1818
356.0009	0.1836
356.2097	0.1872
356.4185	0.1962
356.6273	0.1883
356.8361	0.1869
357.0448	0.1906
357.2536	0.1855
357.4623	0.1809
357.671	0.1913
357.8797	0.1934
358.0884	0.1878
358.2971	0.2008
358.5057	0.1922
358.7144	0.1943
358.923	0.1993
359.1316	0.1922
359.3402	0.2032
359.5488	0.1971
359.7574	0.2028
359.966	0.2075
360.1746	0.1956
360.3831	0.21
360.5916	0.205
360.8002	0.2094
361.0087	0.2058
361.2172	0.2045
361.4256	0.199
361.6341	0.2119
361.8426	0.2052
362.051	0.2043
362.2594	0.2142
362.4678	0.2102
362.6762	0.2189
362.8846	0.221
363.093	0.2149
363.3014	0.2226
363.5097	0.2185
363.718	0.2281
363.9264	0.219
364.1347	0.2293
364.343	0.2301
364.5513	0.2359
364.7595	0.2303
364.9678	0.228
365.176	0.2298
365.3842	0.2381
365.5925	0.2267
365.8007	0.2343
366.0089	0.2347
366.217	0.2403
366.4252	0.2392
366.6333	0.2358
366.8415	0.2412
367.0496	0.2401
367.2577	0.2471
367.4658	0.2428
367.6739	0.2357
367.882	0.2454
368.09	0.2437
368.2981	0.2426
368.5061	0.2555
368.7141	0.2515
368.9221	0.2493
369.1301	0.2494
369.3381	0.2602
369.5461	0.255
369.754	0.2525
369.962	0.2479
370.1699	0.2602
370.3778	0.2551
370.5857	0.2598
370.7936	0.2669
371.0015	0.2559
371.2093	0.2607
371.4172	0.2608
371.625	0.2603
371.8328	0.2661
372.0406	0.2737
372.2484	0.2667
372.4562	0.2619
372.664	0.2681
372.8717	0.2731
373.0795	0.2636
373.2872	0.2674
373.4949	0.2841
373.7026	0.282
373.9103	0.2653
374.118	0.2795
374.3256	0.2794
374.5333	0.2737
374.7409	0.2716
374.9485	0.2787
375.1561	0.2777
375.3637	0.2799
375.5713	0.2756
375.7789	0.2711
375.9864	0.2858
376.194	0.2835
376.4015	0.2859
376.609	0.293
376.8165	0.2912
377.024	0.2807
377.2315	0.3015
377.4389	0.2784
377.6464	0.291
377.8538	0.2908
378.0612	0.2918
378.2686	0.2835
378.476	0.2906
378.6834	0.2886
378.8908	0.2963
379.0981	0.2934
379.3055	0.2981
379.5128	0.2954
379.7201	0.2955
379.9274	0.2986
380.1347	0.3029
380.342	0.2995
380.5492	0.2978
380.7565	0.2932
380.9637	0.2978
381.1709	0.3001
381.3781	0.2975
381.5853	0.3017
381.7925	0.3138
381.9997	0.3045
382.2068	0.2886
382.4139	0.3127
382.6211	0.3107
382.8282	0.3023
383.0353	0.3105
383.2424	0.3076
383.4494	0.3079
383.6565	0.3129
383.8635	0.3189
384.0706	0.3081
384.2776	0.3176
384.4846	0.3172
384.6916	0.3071
384.8986	0.3123
385.1055	0.319
385.3125	0.3209
385.5194	0.3052
385.7263	0.3079
385.9333	0.3148
386.1402	0.3117
386.347	0.3185
386.5539	0.3146
386.7608	0.3149
386.9676	0.3134
387.1744	0.3119
387.3813	0.3164
387.5881	0.318
387.7948	0.317
388.0016	0.3144
388.2084	0.3147
388.4151	0.3099
388.6219	0.3119
388.8286	0.3072
389.0353	0.3093
389.242	0.3062
389.4487	0.314
389.6553	0.3048
389.862	0.3039
390.0686	0.3207
390.2753	0.3015
390.4819	0.3112
390.6885	0.3039
390.8951	0.3166
391.1016	0.3097
391.3082	0.2916
391.5147	0.2939
391.7213	0.3061
391.9278	0.3039
392.1343	0.2915
392.3408	0.294
392.5473	0.2974
392.7537	0.2953
392.9602	0.2858
393.1666	0.2899
393.373	0.3002
393.5794	0.285
393.7858	0.2796
393.9922	0.2938
394.1986	0.2785
394.4049	0.2809
394.6113	0.2883
394.8176	0.2666
395.0239	0.2765
395.2302	0.2751
395.4365	0.2833
395.6428	0.2906
395.8491	0.279
396.0553	0.2745
396.2615	0.2705
396.4678	0.2798
396.674	0.2726
396.8802	0.2677
397.0863	0.2664
397.2925	0.2635
397.4987	0.2684
397.7048	0.2757
397.9109	0.2729
398.117	0.2648
398.3231	0.2743
398.5292	0.2673
398.7353	0.2722
398.9413	0.2603
399.1474	0.271
399.3534	0.273
399.5594	0.2684
399.7654	0.2681
399.9714	0.2594
400.1774	0.2646
400.3833	0.2681
400.5893	0.2627
400.7952	0.2676
401.0011	0.2619
401.207	0.2753
401.4129	0.2767
401.6188	0.2656
401.8247	0.2672
402.0305	0.2613
402.2364	0.2685
402.4422	0.271
402.648	0.2791
402.8538	0.2771
403.0596	0.259
403.2654	0.2621
403.4711	0.2689
403.6768	0.2639
403.8826	0.2667
404.0883	0.2625
404.294	0.2668
404.4997	0.2626
404.7054	0.258
404.911	0.2565
405.1167	0.2765
405.3223	0.2719
405.5279	0.2579
405.7335	0.2697
405.9391	0.2672
406.1447	0.2695
406.3502	0.2765
406.5558	0.2752
406.7613	0.2696
406.9668	0.2667
407.1724	0.2754
407.3778	0.2675
407.5833	0.2709
407.7888	0.2734
407.9942	0.2735
408.1997	0.2726
408.4051	0.2592
408.6105	0.2759
408.8159	0.2744
409.0213	0.2769
409.2267	0.262
409.432	0.2693
409.6374	0.266
409.8427	0.2698
410.048	0.2596
410.2533	0.2595
410.4586	0.2673
410.6639	0.2616
410.8691	0.279
411.0744	0.2611
411.2796	0.2725
411.4848	0.261
411.69	0.2593
411.8952	0.2618
412.1004	0.2631
412.3056	0.2641
412.5107	0.2647
412.7158	0.2605
412.921	0.2663
413.1261	0.2701
413.3312	0.2574
413.5362	0.2611
413.7413	0.264
413.9464	0.2544
414.1514	0.2653
414.3564	0.2603
414.5614	0.2575
414.7664	0.2631
414.9714	0.2774
415.1764	0.2567
415.3813	0.2553
415.5863	0.2552
415.7912	0.2611
415.9961	0.2615
416.201	0.2669
416.4059	0.2534
416.6108	0.2484
416.8156	0.2526
417.0205	0.2679
417.2253	0.2573
417.4301	0.2741
417.6349	0.2564
417.8397	0.2693
418.0445	0.2534
418.2492	0.2565
418.454	0.2546
418.6587	0.2486
418.8634	0.2605
419.0681	0.2567
419.2728	0.2529
419.4775	0.2508
419.6822	0.2503
419.8868	0.2587
420.0915	0.2477
420.2961	0.2465
420.5007	0.2531
420.7053	0.257
420.9099	0.2448
421.1144	0.2426
421.319	0.2533
421.5235	0.2373
421.728	0.2461
421.9325	0.2491
422.137	0.2364
422.3415	0.2331
422.546	0.2398
422.7504	0.2404
422.9549	0.2392
423.1593	0.2335
423.3637	0.2324
423.5681	0.234
423.7725	0.2343
423.9769	0.2391
424.1812	0.2393
424.3856	0.239
424.5899	0.2437
424.7942	0.225
424.9985	0.2385
425.2028	0.2314
425.4071	0.2217
425.6113	0.2302
425.8156	0.2226
426.0198	0.2235
426.224	0.2345
426.4282	0.2278
426.6324	0.2101
426.8366	0.2249
427.0407	0.224
427.2449	0.2218
427.449	0.2241
427.6531	0.2212
427.8572	0.2187
428.0613	0.2131
428.2654	0.2179
428.4694	0.2031
428.6735	0.213
428.8775	0.1989
429.0815	0.2076
429.2855	0.1989
429.4895	0.2061
429.6935	0.2055
429.8975	0.2125
430.1014	0.1981
430.3053	0.1943
430.5093	0.2093
430.7132	0.1971
430.9171	0.1914
431.1209	0.194
431.3248	0.189
431.5286	0.1781
431.7325	0.2027
431.9363	0.1815
432.1401	0.1869
432.3439	0.1791
432.5477	0.1877
432.7514	0.1709
432.9552	0.1776
433.1589	0.178
433.3627	0.18
433.5664	0.1698
433.7701	0.1714
433.9737	0.163
434.1774	0.1781
434.3811	0.1604
434.5847	0.1597
434.7883	0.1596
434.9919	0.1521
435.1955	0.1687
435.3991	0.1571
435.6027	0.1471
435.8062	0.1556
436.0098	0.1514
436.2133	0.1543
436.4168	0.1428
436.6203	0.1403
436.8238	0.1444
437.0272	0.1392
437.2307	0.1343
437.4341	0.1385
437.6375	0.1282
437.841	0.1307
438.0443	0.136
438.2477	0.1346
438.4511	0.1287
438.6545	0.1257
438.8578	0.1328
439.0611	0.1205
439.2644	0.1127
439.4677	0.1298
439.671	0.1197
439.8743	0.114
440.0775	0.1178
440.2808	0.1209
440.484	0.1031
440.6872	0.1039
440.8904	0.1042
441.0936	0.1181
441.2967	0.0959
441.4999	0.1098
441.703	0.1016
441.9062	0.0993
442.1093	0.1032
442.3124	0.0994
442.5155	0.0967
442.7185	0.0901
442.9216	0.0964
443.1246	0.0993
443.3276	0.083
443.5307	0.0785
443.7337	0.0865
443.9366	0.0865
444.1396	0.0762
444.3426	0.0834
444.5455	0.0826
444.7484	0.0683
444.9513	0.0845
445.1542	0.0748
445.3571	0.0698
445.56	0.0753
445.7628	0.0752
445.9657	0.0783
446.1685	0.0771
446.3713	0.0643
446.5741	0.0636
446.7769	0.0644
446.9797	0.0562
447.1824	0.0679
447.3852	0.0534
447.5879	0.0629
447.7906	0.056
447.9933	0.072
448.196	0.0513
448.3986	0.0512
448.6013	0.0545
448.8039	0.0502
449.0066	0.0527
449.2092	0.0501
449.4118	0.053
449.6143	0.0541
449.8169	0.0505
450.0195	0.0524
450.222	0.046
450.4245	0.0538
450.627	0.0438
450.8295	0.0436
451.032	0.0543
451.2345	0.0452
451.4369	0.053
451.6394	0.0496
451.8418	0.038
452.0442	0.0467
452.2466	0.0439
452.449	0.0386
452.6513	0.0401
452.8537	0.0458
453.056	0.0398
453.2583	0.0277
453.4607	0.0265
453.663	0.0401
453.8652	0.0355
454.0675	0.0389
454.2697	0.0261
454.472	0.0264
454.6742	0.0263
454.8764	0.0164
455.0786	0.0302
455.2808	0.0257
455.4829	0.019
455.6851	0.0257
455.8872	0.0385
456.0893	0.0231
456.2915	0.0247
456.4935	0.0161
456.6956	0.0279
456.8977	0.0318
457.0997	0.024
457.3018	0.0343
457.5038	0.0207
457.7058	0.0158
457.9078	0.0283
458.1098	0.0287
458.3117	0.0219
458.5137	0.0216
458.7156	0.0321
458.9175	0.0179
459.1194	0.0228
459.3213	0.017
459.5232	0.0129
459.725	0.0189
459.9269	0.0154
460.1287	0.0131
460.3305	0.0177
460.5323	0.0169
460.7341	0.0098
460.9359	0.0111
461.1376	0.0115
461.3394	0.0156
461.5411	0.0237
461.7428	0.02
461.9445	0.0145
462.1462	0.0124
462.3479	0.0135
462.5495	0.0192
462.7512	0.02
462.9528	0.0068
463.1544	0.0027
463.356	0.009
463.5576	0.0094
463.7592	0.0032
463.9607	0.0063
464.1623	0.0162
464.3638	0.0105
464.5653	0.0173
464.7668	0.0127
464.9683	0.0155
465.1697	0.0184
465.3712	0.0041
465.5726	0.0252
465.7741	0.0081
465.9755	0.0091
466.1769	0.0089
466.3782	0.0048
466.5796	0.0048
466.7809	0.0133
466.9823	0.0124
467.1836	0.0153
467.3849	0.0095
467.5862	-0.0016
467.7875	0.0099
467.9887	0.0123
468.19	0.0138
468.3912	0.0062
468.5924	0.0151
468.7936	0.0044
468.9948	0.0141
469.196	0.0124
469.3972	0.0086
469.5983	-0.0005
469.7994	0.0011
470.0006	0.0029
470.2017	0.0176
470.4027	0.0049
470.6038	-0.0016
470.8049	0.0006
471.0059	0.009
471.2069	0.0041
471.408	-0.0021
471.6089	0.0098
471.8099	-0.0003
472.0109	0.0004
472.2119	0.0186
472.4128	0.0158
472.6137	-0.0008
472.8146	0.0018
473.0155	0.0058
473.2164	-0.0083
473.4173	0.0104
473.6181	0.0129
473.819	0.0027
474.0198	0.0063
474.2206	0.0115
474.4214	0.0117
474.6222	-0.0003
474.8229	0.0045
475.0237	-0.0011
475.2244	0.0142
475.4251	-0.0036
475.6258	0.0145
475.8265	0.0008
476.0272	0.006
476.2278	-0.0027
476.4285	-0.0053
476.6291	0.0028
476.8297	0.0001
477.0303	0.01
477.2309	-0.0029
477.4315	0.0011
477.632	-0.0029
477.8326	0.014
478.0331	-0.0024
478.2336	0.0104
478.4341	0.0078
478.6346	0.003
478.8351	0.0041
479.0355	0.0028
479.236	0.0079
479.4364	-0.0013
479.6368	0.0033
479.8372	0.0077
480.0376	0.0013
480.2379	0.0009
480.4383	-0.0028
480.6386	0.0007
480.8389	0.0135
481.0392	0.0092
481.2395	0.0088
481.4398	0.0037
481.6401	0.0066
481.8403	-0.0021
482.0405	-0
482.2408	0.001
482.441	0.003
482.6411	0.0006
482.8413	-0.0021
483.0415	-0.0008
483.2416	0.0085
483.4417	-0.0016
483.6419	0.0019
483.8419	0.0004
484.042	0.0021
484.2421	0.0013
484.4422	0.0019
484.6422	0.0008
484.8422	0.0067
485.0422	0.0043
485.2422	-0.0016
485.4422	-0.0028
485.6422	-0.0018
485.8421	-0.0033
486.042	0.0058
486.242	0.0039
486.4419	0.0033
486.6417	0.0025
486.8416	0.0057
487.0415	-0.0024
487.2413	0.0042
487.4411	-0.0054
487.641	0.0036
487.8408	0.01
488.0405	0.0074
488.2403	0.0006
488.4401	-0.0011
488.6398	0.0073
488.8395	0.0058
489.0392	-0.0018
489.2389	0.0014
489.4386	0.0007
489.6383	-0.0002
489.8379	0.0036
490.0376	0.0076
490.2372	-0.0032
490.4368	0.0063
490.6364	0.0083
490.836	-0.0017
491.0355	0.0007
491.2351	0.0073
491.4346	0.0026
491.6341	-0.0012
491.8336	-0.0078
492.0331	-0.0025
492.2326	-0.0047
492.432	0.0031
492.6315	0.0028
492.8309	0.0148
493.0303	-0.0073
493.2297	0.0082
493.4291	-0.0033
493.6284	0.0026
493.8278	0.0069
494.0271	-0.0003
494.2264	0.0116
494.4257	-0.0003
494.625	-0.002
494.8243	0.0019
495.0236	0.0008
495.2228	-0.0052
495.422	-0.0009
495.6213	0.0064
495.8205	0.0071
496.0196	0.0026
496.2188	0.0012
496.418	-0.0037
496.6171	-0.0001
496.8162	0.0034
497.0153	-0.0025
497.2144	-0.0064
497.4135	0.0057
497.6126	-0.0085
497.8116	0.0049
498.0107	0.0042
498.2097	0.0141
498.4087	0.0014
498.6077	0.0008
498.8067	0.007
499.0056	-0.0049
499.2046	0.0044
499.4035	0.0004
499.6024	-0.0091
499.8013	-0.0002
500.0002	0.0064
500.199	0.0075
500.3979	0.0083
500.5967	0.0043
500.7956	0.0002
500.9944	0.0072
501.1932	0.0049
501.3919	0.0074
501.5907	0.0043
501.7895	-0.0036
501.9882	-0.001
502.1869	0.0035
502.3856	-0.0031
502.5843	0.005
502.783	0.005
502.9816	-0.0065
503.1803	0.0105
503.3789	0.0004
503.5775	0.0037
503.7761	0.0002
503.9747	-0.0019
504.1732	-0.0012
504.3718	0.0024
504.5703	0.0018
504.7689	0.0032
504.9674	-0.002
505.1658	0.0029
505.3643	0.0024
505.5628	0.0045
505.7612	0.0067
505.9597	-0.0009
506.1581	0.0024
506.3565	-0.0017
506.5549	0.0084
506.7532	-0.001
506.9516	0.0025
507.1499	0.0074
507.3482	0.0105
507.5465	-0.002
507.7448	0.0105
507.9431	-0.0043
508.1414	-0.0042
508.3396	0.0028
508.5379	-0.0022
508.7361	0.0021
508.9343	0.0065
509.1325	0.0046
509.3306	-0.0004
509.5288	0.0083
509.7269	0.0047
509.9251	-0.007
510.1232	-0.0049
510.3213	0.001
510.5193	0.0042
510.7174	-0.0008
510.9154	0.0094
511.1135	0.004
511.3115	0.0031
511.5095	0.004
511.7075	0.0051
511.9055	0.0086
512.1034	0.0037
512.3014	-0.0039
512.4993	-0.0002
512.6972	0.0012
512.8951	-0.0032
513.093	0.0013
513.2908	0.0025
513.4887	0.0039
513.6865	-0.0065
513.8844	0.0118
514.0822	0.0086
514.2799	-0.0031
514.4777	0.0085
514.6755	-0.0025
514.8732	-0.0002
515.0709	0.0096
515.2687	0.0019
515.4664	-0.0067
515.664	0.007
515.8617	0.0148
516.0594	-0.008
516.257	-0.0002
516.4546	-0.0023
516.6522	-0.006
516.8498	0.0048
517.0474	-0.0005
517.2449	0.0084
517.4425	-0.0042
517.64	-0.0018
517.8375	0.0056
518.035	-0.0061
518.2325	-0.0013
518.43	0.0022
518.6274	0.0018
518.8249	0.0048
519.0223	0.0054
519.2197	0.0052
519.4171	-0.0029
519.6145	0.0058
519.8118	-0.0007
520.0092	0.0135
520.2065	0.0003
520.4038	0.0045
520.6011	0.0011
520.7984	-0.0035
520.9956	-0.0002
521.1929	0.0039
521.3901	0.008
521.5874	0.0055
521.7846	0.0001
521.9818	0.0027
522.1789	0.0164
522.3761	0.0085
522.5732	0.0044
522.7704	0.0054
522.9675	0.0014
523.1646	0.0051
523.3617	-0.0017
523.5587	0.0124
523.7558	0.0081
523.9528	0.0015
524.1498	0.0016
524.3468	0.0019
524.5438	-0.0093
524.7408	0.0006
524.9378	0.0035
525.1347	0.0161
525.3316	0.0043
525.5285	0.0052
525.7254	0.0065
525.9223	-0.0008
526.1192	-0.0102
526.316	-0.0071
526.5129	0.0098
526.7097	-0.0043
526.9065	0.0109
527.1033	-0.0009
527.3	-0.0084
527.4968	-0.0094
527.6935	-0.0015
527.8903	0.0061
528.087	0.0036
528.2837	-0.0035
528.4804	0.0076
528.677	0.0058
528.8737	0.0007
529.0703	0.0135
529.2669	0.0016
529.4635	0.0137
529.6601	0.0079
529.8567	0.0049
530.0532	-0.0054
530.2498	0.004
530.4463	0.0015
530.6428	0.0012
530.8393	0.0039
531.0358	0.0049
531.2322	0.0046
531.4287	-0.0079
531.6251	-0.0001
531.8215	0.0039
532.0179	-0.0061
532.2143	0.0009
532.4107	-0.0013
532.607	0.0014
532.8034	0.004
532.9997	0.0102
533.196	0.0081
533.3923	-0.0031
533.5886	0.0072
533.7848	-0.0131
533.9811	-0.0105
534.1773	0.0013
534.3735	0.0081
534.5697	-0.0043
534.7659	-0.0042
534.9621	0.0046
535.1582	0.0005
535.3544	0.0048
535.5505	0.0039
535.7466	-0.0143
535.9427	-0.0065
536.1387	0.0012
536.3348	-0.0007
536.5308	0.0034
536.7269	-0.0047
536.9229	-0.0053
537.1189	-0.0042
537.3148	-0.0129
537.5108	-0.0027
537.7068	-0.0051
537.9027	0.006
538.0986	-0.0048
538.2945	-0.0027
538.4904	0.0012
538.6863	0.0164
538.8821	-0.0036
539.078	-0
539.2738	-0.0065
539.4696	0.0113
539.6654	0.0075
539.8611	-0.0016
540.0569	-0.0051
540.2526	-0.0022
540.4484	-0.0021
540.6441	-0.0042
540.8398	-0.0084
541.0355	0.0076
541.2311	0.009
541.4268	0.015
541.6224	0.0041
541.818	-0.005
542.0136	0.0012
542.2092	-0.0006
542.4048	0.0053
542.6003	0.0014
542.7959	-0.008
542.9914	0.0086
543.1869	-0.0031
543.3824	0.0058
543.5779	0.0135
543.7734	-0.0051
543.9688	-0.0062
544.1642	0.0078
544.3596	0.001
544.555	0.0027
544.7504	0.0016
544.9458	-0.0014
545.1411	0.0019
545.3365	0.0016
545.5318	0.0054
545.7271	0.0073
545.9224	-0.0094
546.1177	0.0022
546.3129	-0.0025
546.5081	-0.0048
546.7034	0.0012
546.8986	-0.0008
547.0938	-0.0027
547.289	-0.0044
547.4841	-0.0072
547.6793	-0.0043
547.8744	-0.008
548.0695	-0.0003
548.2646	-0.0019
548.4597	-0.0081
548.6548	0.0166
548.8498	0.0019
549.0448	-0.0054
549.2399	-0.0073
549.4349	0.0021
549.6298	-0.009
549.8248	-0.0077
550.0198	0.0024
550.2147	-0.0053
550.4096	0.0017
550.6045	0.0039
550.7994	0.006
550.9943	0.0055
551.1892	-0.0025
551.384	0.0098
551.5788	-0.0018
551.7737	-0.0038
551.9685	0.0042
552.1632	-0.0011
552.358	0.0032
552.5528	-0.0022
552.7475	-0.004
552.9422	0.002
553.1369	0.0091
553.3316	-0.0043
553.5263	-0.0065
553.7209	0.0074
553.9156	0.0065
554.1102	-0.0041
554.3048	0.0055
554.4994	-0.002
554.694	0.0071
554.8885	0.0054
555.0831	0.0076
555.2776	-0.0065
555.4721	-0.0112
555.6666	0.0117
555.8611	-0.0057
556.0555	-0.0012
556.25	-0.0036
556.4444	-0.004
556.6388	0.0047
556.8332	0.0095
557.0276	0.0044
557.222	-0.0112
557.4163	0.0086
557.6107	0.0027
557.805	-0.0074
557.9993	-0.009
558.1936	0.0075
558.3879	-0.0021
558.5821	-0.0138
558.7764	0.0088
558.9706	-0.013
559.1648	-0.0017
559.359	0.018
559.5532	0.0005
559.7473	0.0091
559.9415	0.0085
560.1356	0.0043
560.3297	0.0032
560.5238	0.0016
560.7179	0.002
560.9119	0.0107
561.106	-0.0048
561.3	-0.0065
561.494	-0.0066
561.688	0.0034
561.882	-0.0081
562.076	0.0095
562.2699	-0.0023
562.4639	0.0047
562.6578	0.0128
562.8517	0.0019
563.0456	0.008
563.2395	0.0012
563.4333	-0.0035
563.6272	-0
563.821	0.0039
564.0148	0.0009
564.2086	0.0021
564.4024	0.0029
564.5961	0.0007
564.7899	-0.0028
564.9836	-0.0011
565.1773	-0.0057
565.371	-0.0008
565.5647	-0.0047
565.7584	0.0024
565.952	0.0021
566.1456	-0.0012
566.3393	0.0098
566.5329	-0.0054
566.7264	0.0091
566.92	-0.0081
567.1136	0.0029
567.3071	0.0013
567.5006	-0.0075
567.6941	0.0049
567.8876	0.0002
568.0811	-0.0037
568.2745	-0.0089
568.468	0.0045
568.6614	0.0012
568.8548	-0.0016
569.0482	0.0056
569.2416	-0.001
569.4349	0.0062
569.6283	0.0028
569.8216	0.0032
570.0149	0.0011
570.2082	0.0016
570.4015	0.0015
570.5947	-0.0017
570.788	0.0071
570.9812	-0.0023
571.1744	0.0009
571.3676	0.0008
571.5608	-0.0021
571.754	-0.0028
571.9471	0.0039
572.1402	0.0007
572.3333	-0.003
572.5264	0.0043
572.7195	0.0043
572.9126	-0.0028
573.1057	0.0005
573.2987	0.0034
573.4917	0.0009
573.6847	0.0039
573.8777	0.003
574.0707	-0.0045
574.2636	0.0008
574.4566	-0.0015
574.6495	0.0044
574.8424	0.0006
575.0353	0.0013
575.2281	0.0008
575.421	-0.0001
575.6138	-0.0018
575.8067	-0.0017
575.9995	0.0037
576.1923	0.0038
576.385	-0.0035
576.5778	-0.002
576.7706	0.0051
576.9633	-0.0007
577.156	-0.0022
577.3487	-0.0016
577.5414	0.0016
577.734	-0.0004
577.9267	-0.0019
578.1193	0.0027
578.3119	-0.002
578.5045	-0.0021
578.6971	-0.0003
578.8897	0.0016
579.0822	0.0059
579.2747	-0.0041
579.4673	-0.0023
579.6598	0.0002
579.8522	0.0044
580.0447	-0.0014
580.2372	0.0065
580.4296	-0.0029
580.622	0.0057
580.8144	0.0012
581.0068	0.0011
581.1992	0.0001
581.3915	-0.0006
581.5839	0.0025
581.7762	0.0025
581.9685	-0.001
582.1608	0.0012
582.353	-0.001
582.5453	0.0023
582.7375	-0.0002
582.9298	0.0012
583.122	-0.0015
583.3142	0.0025
583.5063	-0.0054
583.6985	0.004
583.8906	0.0019
584.0827	0.001
584.2749	0.003
584.4669	-0.0007
584.659	-0.0024
584.8511	0.0015
585.0431	0.0019
585.2352	-0.0044
585.4272	0.0005
585.6192	0.0015
585.8111	-0.0018
586.0031	-0.0007
586.195	0.003
586.387	0.0064
586.5789	0.0022
586.7708	0.0001
586.9627	0.0017
587.1545	0.0034
587.3464	-0.0017
587.5382	0.0051
587.73	0.0007
587.9218	0.0016
588.1136	-0.0002
588.3053	-0.004
588.4971	-0.0001
588.6888	0.0032
588.8805	0.0079
589.0722	0.0025
589.2639	-0.0018
589.4556	-0.0047
589.6472	-0.0038
589.8389	0.0002
590.0305	0.0031
590.2221	0.0006
590.4137	-0.0034
590.6052	0.0035
590.7968	0.0025
590.9883	0.0058
591.1798	-0.0096
591.3713	-0.007
591.5628	0.0082
591.7543	0.0043
591.9458	0.0033
592.1372	-0.0038
592.3286	-0.0051
592.52	-0.003
592.7114	-0.0047
592.9028	0.0024
593.0941	0.0007
593.2855	0.0043
593.4768	-0.0004
593.6681	0.0045
593.8594	-0.0035
594.0506	0.0024
594.2419	-0.0038
594.4331	0.0008
594.6244	0.0019
594.8156	0.003
595.0067	-0.0019
595.1979	-0.0091
595.3891	-0.0042
595.5802	-0.006
595.7713	-0.0006
595.9624	0.0048
596.1535	0.0032
596.3446	0.003
596.5357	0.0035
596.7267	-0.0008
596.9177	-0.0009
597.1087	0.0032
597.2997	0.0004
597.4907	0.0037
597.6817	0.0008
597.8726	0.0064
598.0635	-0.0028
598.2544	-0.0018
598.4453	-0.0006
598.6362	-0.0021
598.827	0.0029
599.0179	0.0026
599.2087	-0.0038
599.3995	-0
599.5903	0.0044
599.7811	-0.0001
599.9718	0.0018
600.1626	0.0014
600.3533	-0.0026
600.544	-0.0037
600.7347	-0.0008
600.9254	0.0052
601.116	-0.005
601.3067	0.0071
601.4973	0.0076
601.6879	-0.0026
601.8785	0.0039
602.0691	-0.0015
602.2596	-0.0018
602.4502	-0.0023
602.6407	0.0037
602.8312	0.0048
603.0217	0.001
603.2122	0.0068
603.4027	-0.0042
603.5931	-0.0024
603.7835	-0.0031
603.9739	0.0017
604.1643	-0.0012
604.3547	0.0046
604.5451	-0.0033
604.7354	-0.0042
604.9257	-0.0028
605.116	0.0005
605.3063	-0.0039
605.4966	0.0021
605.6869	0.0026
605.8771	-0.0025
606.0673	-0.0008
606.2575	0.0003
606.4477	0.0061
606.6379	0.0011
606.8281	-0.0059
607.0182	-0.0021
607.2083	-0.0014
607.3985	0.003
607.5885	0.0022
607.7786	0.0005
607.9687	-0.0034
608.1587	-0.0005
608.3488	0.0001
608.5388	0.0018
608.7288	-0.0029
608.9187	0.0079
609.1087	0.0041
609.2986	0.0012
609.4886	0.0009
609.6785	0.004
609.8684	-0.0005
610.0582	0.0025
610.2481	-0.0025
610.4379	-0.0008
610.6278	-0.0014
610.8176	-0.002
611.0074	-0.0011
611.1971	0.0022
611.3869	-0.0035
611.5766	0.0009
611.7664	0.0012
611.9561	-0.0031
612.1458	-0.0012
612.3354	0.0101
612.5251	-0.0024
612.7147	0.004
612.9044	-0.0007
613.094	0.008
613.2836	-0.0023
613.4731	0.0005
613.6627	-0.0011
613.8522	-0.0091
614.0417	0.0049
614.2313	-0.0068
614.4207	0.0017
614.6102	-0.0053
614.7997	0.0054
614.9891	0.0017
615.1785	-0.005
615.3679	0.0022
615.5573	-0.0056
615.7467	-0.0055
615.9361	-0.0037
616.1254	-0.0072
616.3147	-0.0012
616.504	-0.002
616.6933	0.0033
616.8826	-0.0027
617.0718	-0.0063
617.2611	0.0009
617.4503	-0.0007
617.6395	0.0024
617.8287	0.0127
618.0179	-0.0039
618.207	0.0008
618.3961	-0.0007
618.5853	-0.0016
618.7744	-0
618.9634	0.0039
619.1525	0.0087
619.3416	0.0012
619.5306	-0.0097
619.7196	-0.014
619.9086	0.0102
620.0976	0.009
620.2866	0.0121
620.4755	0.0124
620.6645	-0.0154
620.8534	-0.0023
621.0423	-0.0039
621.2312	-0.0173
621.42	-0.0084
621.6089	-0.0056
621.7977	-0.007
621.9865	0.0076
622.1753	0.0076
622.3641	-0.0099
622.5529	-0.0062
622.7416	-0.0094
622.9303	-0.0008
623.1191	-0.0038
623.3078	0.0029
623.4964	-0.0138
623.6851	0.0042
623.8737	0.0033
624.0624	-0.0061
624.251	-0.0017
624.4396	-0.0013
624.6282	0.0071
624.8167	0.0172
625.0053	-0.002
625.1938	0.0058
625.3823	-0.0004
625.5708	-0.0046
625.7593	-0.0014
625.9477	-0.0157
626.1362	-0.009
626.3246	-0.0022
626.513	0.0032
626.7014	-0.0086
626.8898	0.002
627.0781	0.0053
627.2665	0.0101
627.4548	-0.0057
627.6431	-0.019
627.8314	-0.0026
628.0197	0.0051
628.2079	-0.0097
628.3962	0.0047
628.5844	0.0031
628.7726	0.0002
628.9608	-0.0152
629.1489	-0.004
629.3371	-0.0098
629.5252	0.013
629.7134	0.0083
629.9015	-0.0109
630.0895	0.0043
630.2776	-0.0146
630.4657	-0.0033
630.6537	-0.0112
630.8417	-0.0041
631.0297	-0.0016
631.2177	-0.0042
631.4057	-0.0057
631.5936	-0.0007
631.7815	-0.0095
631.9695	0.0193
632.1574	-0.0113
632.3452	-0.0055
632.5331	-0.0033
632.7209	0.011
632.9088	-0.0055
633.0966	-0.0009
633.2844	-0.0116
633.4722	0.0267
633.6599	-0.0146
633.8477	-0.0062
634.0354	0.0037
634.2231	0.002
634.4108	-0.0129
634.5985	-0.0091
634.7861	-0.0115
634.9738	0.0106
635.1614	0.0021
635.349	-0.001
635.5366	0.0045
635.7242	-0.0012
635.9117	0.0062
636.0993	-0.0234
636.2868	0.0016
636.4743	0.0034
636.6618	-0.0034
636.8492	0.0083
637.0367	-0.0043
637.2241	0.0025
637.4115	0.0003
637.5989	0.0162
637.7863	-0.0165
637.9737	-0.0031
638.161	-0.0025
638.3484	0.0097
638.5357	0.0061
638.723	-0.0081
638.9103	0.002
639.0975	0.0141
639.2848	0.0137
639.472	-0.0012
639.6592	0.0052
639.8464	0.0142
640.0336	0.0107
640.2208	-0.012
640.4079	0.0123
640.595	0.0008
640.7821	-0.015
640.9692	-0.0053
641.1563	0.0178
641.3434	0.0149
641.5304	-0.0163
641.7174	0.0121
641.9044	-0.0023
642.0914	0.0031
642.2784	0.0231
642.4653	-0.0077
642.6523	-0.0069
642.8392	0.0146
643.0261	-0.0171
643.213	0.0013
643.3999	0.0112
643.5867	0.0128
643.7735	0.0141
643.9604	-0.0106
644.1472	-0.0132
644.3339	-0.0083
644.5207	-0.0119
644.7075	0.0054
644.8942	0.0147
645.0809	-0.0032
645.2676	-0.0057
645.4543	-0.0045
645.6409	-0.0139
645.8276	-0.0107
646.0142	0.0182
646.2008	-0.0003
646.3874	0.0104
646.574	-0.007
646.7605	0.0132
646.9471	0.0264
647.1336	-0.0045
647.3201	0.0226
647.5066	-0.0093
647.6931	-0.0052
647.8795	0.0169
648.0659	-0.0104
648.2524	-0.0061
648.4388	-0.008
648.6252	-0.0181
648.8115	0.0106
648.9979	-0.0057
649.1842	-0.0151
649.3705	0.0092
649.5568	-0.0156
649.7431	-0.0035
649.9294	0.0121
650.1156	-0.0091
650.3018	0.0154
650.488	0.009
650.6742	0.0117
650.8604	0.0111
651.0466	0.0054
651.2327	-0.0146
651.4188	-0.0271
651.6049	-0.0046
651.791	0.0114
651.9771	-0.0069
652.1632	0.0147
652.3492	0.0011
652.5352	0.0043
652.7212	-0.0061
652.9072	-0.0025
653.0932	-0.0008
653.2791	-0.0079
653.465	-0.0117
653.651	0.0012
653.8369	0.0092
654.0227	-0.0054
654.2086	0.0051
654.3944	-0.0204
654.5803	-0.0049
654.7661	-0.0007
654.9519	-0.0041
655.1377	0
655.3234	0
655.5092	0
655.6949	0
655.8806	0
656.0663	0
656.2519	0
656.4376	0
656.6232	0
656.8088	0
656.9945	0
657.18	0
657.3656	0
657.5511	0
657.7367	0
657.9222	0
658.1077	0
658.2932	0
658.4786	0
658.6641	0
658.8495	0
659.0349	0
659.2203	0
659.4057	0.0107
659.591	0.0027
659.7764	0.0013
659.9617	-0.0002
660.147	-0.0124
660.3323	-0.0082
660.5176	-0.0047
660.7028	0.012
660.888	0.0083
661.0733	-0.0111
661.2585	0.0046
661.4436	0.0121
661.6288	0.0007
661.8139	0.0142
661.9991	-0.0087
662.1842	0.0165
662.3693	0.0069
662.5544	0.0234
662.7394	0.0359
662.9245	0.0171
663.1095	0.0177
663.2945	-0.0151
663.4795	0.0082
663.6644	-0.0079
663.8494	-0.0024
664.0343	0.0114
664.2193	-0.0184
664.4042	-0.0039
664.589	-0.0019
664.7739	-0.0077
664.9587	-0.0105
665.1436	0.0037
665.3284	-0.0023
665.5132	0.0141
665.698	-0.0094
665.8827	-0.0207
666.0675	-0.0095
666.2522	-0.0123
666.4369	-0.0111
666.6216	-0.0162
666.8063	-0.0133
666.9909	-0.0031
667.1756	0.0254
667.3602	-0.0159
667.5448	-0.0087
667.7294	-0.0113
667.9139	-0.0078
668.0985	-0.0048
668.283	0.0144
668.4675	-0.0283
668.652	-0.0021
668.8365	-0.0251
669.0209	-0.0117
669.2054	0.0181
669.3898	-0.0071
669.5742	0.0191
669.7586	0.018
669.943	-0.0166
670.1273	0.0197
670.3117	0.014
670.496	0.0094
670.6803	-0.0075
670.8646	0.0187
671.0488	-0.0084
671.2331	-0.002
671.4173	0.0029
671.6015	-0.0143
671.7857	-0.0086
671.9699	0.0118
672.1541	0.0003
672.3382	0.0088
672.5223	-0.0026
672.7064	-0.013
672.8905	-0.0058
673.0746	-0.0077
673.2587	-0
673.4427	0.0005
673.6267	-0.019
673.8107	-0.0247
673.9947	-0.0277
674.1787	0.0093
674.3626	0.0138
674.5465	0.0109
674.7304	-0.0348
674.9143	0.0375
675.0982	0.0041
675.2821	0.019
675.4659	0.0059
675.6497	0.0017
675.8335	0.0027
676.0173	0.0008
676.2011	-0.0148
676.3849	0.0119
676.5686	0.0037
676.7523	-0.003
676.936	-0.0082
677.1197	0.0068
677.3034	0.0142
677.487	0.0129
677.6706	0.0079
677.8542	0.0081
678.0378	0.0031
678.2214	-0.0054
678.405	0.0282
678.5885	0.0079
678.772	-0.0155
678.9555	-0.0082
679.139	-0.0103
679.3225	-0.0133
679.5059	0.021
679.6894	-0.0148
679.8728	-0.0174
680.0562	-0.0033
680.2395	0.0043
680.4229	-0.0131
680.6062	0.0021
680.7896	0.0075
680.9729	0.0016
681.1562	-0.0088
681.3394	0.0062
681.5227	-0.0117
681.7059	-0.0016
681.8891	-0.0059
682.0723	0.013
682.2555	0.0258
682.4387	-0.0133
682.6218	-0.0243
682.805	0.0165
682.9881	0.0084
683.1712	0.0358
683.3542	-0.0217
683.5373	0.0041
683.7203	0.0163
683.9034	0.0138
684.0864	0.0021
684.2694	0.0115
684.4523	0.0051
684.6353	0.0002
684.8182	0.0062
685.0011	0.0038
685.184	0.0066
685.3669	-0.0088
685.5498	0.0121
685.7326	-0.0039
685.9154	-0.0008
686.0982	-0.0004
686.281	-0.0059
686.4638	0.0086
686.6465	-0.0032
686.8293	0.0165
687.012	-0.0092
687.1947	0.0149
687.3774	0.0027
687.56	0.0139
687.7427	-0.0035
687.9253	-0.0103
688.1079	0.0243
688.2905	-0.0031
688.4731	0.0174
688.6556	-0.0137
688.8382	0.0027
689.0207	-0.0056
689.2032	-0.0067
689.3857	-0.0022
689.5681	-0.008
689.7506	-0.0083
689.933	-0.024
690.1154	0.0011
690.2978	0.0023
690.4802	0.0083
690.6626	-0.0061
690.8449	-0.0166
691.0272	-0.0141
691.2095	-0.0084
691.3918	-0.012
691.5741	-0.0092
691.7563	0.0129
691.9386	-0.0091
692.1208	-0.0169
692.303	0.0056
692.4852	-0.0045
692.6673	-0.0097
692.8495	-0.0217
693.0316	-0.0088
693.2137	0.0138
693.3958	0.0134
693.5778	-0.0063
693.7599	-0.0321
693.9419	0.0237
694.1239	-0.0083
694.3059	-0.035
694.4879	-0.0034
694.6699	0.0169
694.8518	0.0216
695.0337	-0.0126
695.2157	-0.0177
695.3975	0.017
695.5794	-0.0236
695.7613	0.0172
695.9431	-0.0097
696.1249	0.0121
696.3067	0.022
696.4885	-0.0148
696.6703	0.0099
696.852	-0.0113
697.0337	-0.0029
697.2154	0.0217
697.3971	0.0147
697.5788	0.0163
697.7605	-0.0017
697.9421	-0.0039
698.1237	0.0051
698.3053	-0.0006
698.4869	-0.0108
698.6685	0.0116
698.85	0.0079
699.0315	-0.0118
699.213	0.0181
699.3945	-0.0007
699.576	-0.003
699.7575	-0.0117
699.9389	-0.006
700.1203	-0.0261
700.3017	-0.0093
700.4831	-0.0021
700.6645	0.0043
700.8458	0.0066
701.0271	-0.0058
701.2084	-0.006
701.3897	0.0077
701.571	-0.0053
701.7523	-0.0262
701.9335	0.0398
702.1147	-0.006
702.2959	0.0137
702.4771	-0.0037
702.6583	-0.0212
702.8394	0.012
703.0205	-0.0032
703.2016	-0.0122
703.3827	0.0135
703.5638	-0.0223
703.7449	0.0253
703.9259	0.0037
704.1069	0.0157
704.2879	0.0203
704.4689	0.0083
704.6499	-0.0196
704.8308	-0.0204
705.0117	-0.0145
705.1927	0.0134
705.3735	0.0342
705.5544	0.0051
705.7353	0.0341
705.9161	0.0223
706.0969	0.0175
706.2777	0.0076
706.4585	-0.0024
706.6393	-0.004
706.82	-0.0178
707.0007	0.0057
707.1815	0.0208
707.3621	-0.0025
707.5428	-0.0021
707.7235	0.0188
707.9041	-0.0123
708.0847	-0.0102
708.2653	0.0079
708.4459	0.0141
708.6265	-0.0096
708.807	0.0279
708.9875	0.0051
709.168	0.0064
709.3485	-0.0067
709.529	0.0007
709.7095	0.0145
709.8899	0.0259
710.0703	-0.0122
710.2507	0.0061
710.4311	0.0003
710.6115	-0.0146
710.7918	0.0006
710.9721	0.0032
711.1524	0.0007
711.3327	-0.0084
711.513	0.0141
711.6932	-0.0073
711.8735	-0.0021
712.0537	0.0024
712.2339	-0.0075
712.4141	0.0094
712.5942	-0.0011
712.7744	0.0041
712.9545	0.019
713.1346	0.0134
713.3147	0.0023
713.4947	-0.0109
713.6748	-0.0055
713.8548	-0.0115
714.0348	0.0068
714.2148	-0.0039
714.3948	0.0032
714.5748	-0.0164
714.7547	-0.0113
714.9346	-0.02
715.1145	0.0102
715.2944	0.0172
715.4743	0.004
715.6541	-0.0093
715.834	0.0152
716.0138	0.0375
716.1936	0.0005
716.3733	0.0196
716.5531	-0.0065
716.7328	-0.0274
716.9126	-0.0354
717.0923	0.0025
717.2719	-0.0005
717.4516	-0.0212
717.6312	-0.0187
717.8109	0.0029
717.9905	-0.0011
718.1701	-0.0119
718.3496	-0.0012
718.5292	-0.0008
718.7087	0.0165
718.8882	-0.0045
719.0677	-0.0188
719.2472	0.0119
719.4267	-0.0155
719.6061	-0.0051
719.7856	0.0086
719.965	0.0058
720.1443	0.0092
720.3237	0.0291
720.5031	0.0263
720.6824	0.0216
720.8617	0.0259
721.041	0.0104
721.2203	0.0181
721.3995	-0.0172
721.5788	0.0073
721.758	-0.0198
721.9372	0.012
722.1164	0.0219
722.2956	0.0078
722.4747	0.0281
722.6538	-0.0023
722.8329	-0.0211
723.012	-0.006
723.1911	-0.0125
723.3702	-0.042
723.5492	-0.0054
723.7282	0.0008
723.9072	-0.0332
724.0862	-0.0302
724.2652	0.0059
724.4441	0.0161
724.623	-0.0301
724.8019	-0.0116
724.9808	-0.0033
725.1597	-0.0087
725.3385	0.002
725.5174	0.0249
725.6962	0.0226
725.875	-0.0055
726.0538	0.0093
726.2325	-0.0146
726.4112	0.0007
726.59	0.0126
726.7687	0.0023
726.9474	0.0149
727.126	-0.005
727.3047	-0.0123
727.4833	0.0478
727.6619	0.0245
727.8405	0.0055
728.0191	-0.023
728.1976	-0.0373
728.3762	-0.0387
728.5547	-0.0001
728.7332	-0.0008
728.9116	-0.0336
729.0901	0.0123
729.2686	-0.0162
729.447	-0.0075
729.6254	0.0232
729.8038	-0.0081
729.9821	-0.0013
730.1605	0.0011
730.3388	-0.0241
730.5171	0.001
730.6954	-0.0075
730.8737	0.0199
731.0519	0.0025
731.2302	0.0008
731.4084	-0.0092
731.5866	-0.019
731.7648	-0.0047
731.9429	0.0077
732.1211	-0.0001
732.2992	-0.0159
732.4773	-0.021
732.6554	-0.0014
732.8335	0.0114
733.0115	-0.0072
733.1896	-0.0119
733.3676	0.0022
733.5456	0.0023
733.7235	0.0055
733.9015	-0.0032
734.0794	-0.0044
734.2574	0.0214
734.4353	-0.0239
734.6131	-0.0075
734.791	0.0044
734.9689	0.0037
735.1467	0.0005
735.3245	0.0263
735.5023	0.0041
735.68	0.0019
735.8578	-0.0048
736.0355	0.0192
736.2132	0.0037
736.3909	-0.0194
736.5686	-0.0113
736.7463	-0.0073
736.9239	0.021
737.1015	-0.0224
737.2791	0.0097
737.4567	-0.0181
737.6343	0.0116
737.8118	0.0187
737.9894	-0.0161
738.1669	0.0132
738.3444	-0.0056
738.5218	0.0115
738.6993	-0.0021
738.8767	-0.0145
739.0541	-0.0083
739.2315	0.0008
739.4089	-0.0132
739.5863	0.0361
739.7636	0.0082
739.9409	-0.0316
740.1182	-0.0125
740.2955	-0.0269
740.4728	0.0191
740.65	-0.0306
740.8272	-0.0192
741.0044	0.0076
741.1816	0.0073
741.3588	-0.0273
741.5359	0.0074
741.7131	0.0218
741.8902	-0.0295
742.0673	0.0077
742.2444	-0.0053
742.4214	-0.0009
742.5985	0.022
742.7755	-0.0109
742.9525	0.0329
743.1295	-0.0178
743.3064	0.0004
743.4834	0.0224
743.6603	0.002
743.8372	-0.0109
744.0141	0.0225
744.191	-0.0308
744.3678	0.0203
744.5446	0.0036
744.7215	-0.0302
744.8982	0.0303
745.075	0.0028
745.2518	0.0009
745.4285	-0.0052
745.6052	0.0004
745.7819	0.0077
745.9586	-0.0063
746.1353	-0.0011
746.3119	0.0034
746.4885	-0.013
746.6651	-0.0382
746.8417	-0.0102
747.0183	-0.0252
747.1948	0.01
747.3714	0.0193
747.5479	0.0303
747.7244	-0.0511
747.9008	0.029
748.0773	0.0433
748.2537	0.058
748.4301	-0.0102
748.6065	-0.0581
748.7829	0.0219
748.9593	0.0057
749.1356	0.0042
749.3119	0.004
749.4882	-0.0287
749.6645	0.0088
749.8408	-0.0127
750.017	-0.0032
750.1933	0.0152
750.3695	0.0261
750.5457	-0.0053
750.7218	0.0109
750.898	-0.0004
751.0741	-0.0042
751.2502	0.0192
751.4263	0.0035
751.6024	0.0282
751.7784	-0.0217
751.9545	-0.0524
752.1305	-0.0145
752.3065	0.0276
752.4825	-0.0092
752.6584	-0.0065
752.8344	0.008
753.0103	-0.0353
753.1862	-0.002
753.3621	-0.0121
753.5379	-0.0118
753.7138	-0.029
753.8896	0.0366
754.0654	0.0036
754.2412	0.025
754.417	-0.0265
754.5927	0.0014
754.7685	-0.0076
754.9442	-0.0017
755.1199	-0.0037
755.2956	0.0197
755.4712	-0.0013
755.6469	-0.0104
755.8225	0.0096
755.9981	-0.0164
756.1736	0.0232
756.3492	-0.0225
756.5248	-0.0337
756.7003	-0.0003
756.8758	-0.0003
757.0513	0.0035
757.2267	-0.0006
757.4022	0.0046
757.5776	-0.0267
757.753	-0.001
757.9284	-0.0032
758.1038	-0.0052
758.2791	-0.0214
758.4545	-0.0232
758.6298	-0.01
758.8051	0.001
758.9803	-0.0013
759.1556	-0.0099
759.3308	-0.0144
759.506	0.0102
759.6812	-0.0205
759.8564	-0.0139
760.0316	0.0035
760.2067	-0.0269
760.3819	-0.016
760.557	-0.0011
760.732	0.0195
760.9071	-0.0057
761.0821	0.0007
761.2572	-0.0142
761.4322	-0.015
761.6072	-0.0105
761.7821	0.003
761.9571	-0.0192
762.132	-0.0091
762.3069	-0.019
762.4818	-0.0102
762.6567	0.0032
762.8316	0.0106
763.0064	-0.0395
763.1812	-0.0188
763.356	-0.0156
763.5308	-0.019
763.7055	-0.0028
763.8803	0.0117
764.055	-0.0049
764.2297	-0.0166
764.4044	0.0006
764.579	0.0009
764.7537	-0.0198
764.9283	-0.009
765.1029	0.0186
765.2775	-0.0145
765.4521	0.008
765.6266	-0.0241
765.8011	0.0003
765.9756	0.0066
766.1501	0.0053
766.3246	0.0052
766.4991	0.0025
766.6735	-0.0039
766.8479	-0.0087
767.0223	-0.0017
767.1967	-0.0191
767.371	0.0015
767.5454	0.0072
767.7197	0.0048
767.894	0.0038
768.0683	-0.01
768.2425	0.0079
768.4168	0.0173
768.591	0.0263
768.7652	-0.0255
768.9394	0.0103
769.1135	-0.013
769.2877	-0.0026
769.4618	0.0117
769.6359	0.0227
769.81	-0.0091
769.984	0.0079
770.1581	0.0102
770.3321	-0.0415
770.5061	0.0046
770.6801	0.0087
770.8541	0.0094
771.028	-0.0156
771.202	-0.0309
771.3759	0.0027
771.5498	0.0225
771.7236	0.0165
771.8975	-0.0423
772.0713	-0.0114
772.2451	-0.004
772.4189	0.0242
772.5927	-0.0342
772.7665	0.0304
772.9402	0.0224
773.1139	0.0033
773.2876	-0.0012
773.4613	0.0076
773.635	0.0138
773.8086	-0.0033
773.9822	0.0012
774.1558	-0.0052
774.3294	-0.0283
774.503	-0.0029
774.6765	0.0151
774.8501	0.0189
775.0236	0.0006
775.1971	-0.0596
775.3705	0.0121
775.544	-0.021
775.7174	0.0164
775.8908	0.0313
776.0642	-0.0118
776.2376	-0.0517
776.4109	0.0239
776.5843	-0.0461
776.7576	0.0059
776.9309	0.0124
777.1041	-0.0508
777.2774	-0.006
777.4506	-0.0132
777.6238	0.028
777.797	0.0311
777.9702	0.0044
778.1434	-0.0083
778.3165	0.0167
778.4896	-0.026
778.6627	0.0424
778.8358	-0.021
779.0089	0.0058
779.1819	-0.0258
779.3549	0.0068
779.5279	-0.004
779.7009	0.0108
779.8739	-0.0025
780.0468	0.0475
780.2197	0.0035
780.3926	-0.0301
780.5655	-0.0403
780.7384	0.012
780.9112	0.0103
781.0841	-0.0045
781.2569	-0.0118
781.4297	0.0397
781.6024	0.0098
781.7752	-0.0112
781.9479	-0.0176
782.1206	0.014
782.2933	0.0146
782.466	-0.0081
782.6386	-0.0035
782.8113	0.0096
782.9839	0.0228
783.1565	-0.0205
783.329	0.0216
783.5016	-0.0314
783.6741	-0.0038
783.8466	-0.0517
784.0191	-0.0122
784.1916	0.0006
784.3641	-0.0473
784.5365	0.0328
784.7089	-0.0334
784.8813	0.0179
785.0537	0.0125
785.2261	-0.0205
785.3984	-0.006
785.5707	0.0228
785.743	-0.0126
785.9153	0.0132
786.0876	-0.0686
786.2598	0.026
786.432	0.0212
786.6042	0.0407
786.7764	-0.0079
786.9486	-0.0014
787.1207	0.0317
787.2928	0.0138
787.4649	0.0063
787.637	0.0356
787.8091	-0.0327
787.9811	0.0093
788.1532	-0.0089
788.3252	-0.0116
788.4972	-0.0356
788.6691	0.0345
788.8411	0.0139
789.013	-0.0124
789.1849	0.0049
789.3568	-0.0025
789.5287	-0.0394
789.7005	0.0083
789.8723	-0.0347
790.0442	-0.08
790.2159	0.0674
790.3877	0.0286
790.5595	0.0727
790.7312	0.0105
790.9029	0.0091
791.0746	0.0314
791.2463	0.0353
791.4179	-0.0333
791.5896	-0.0453
791.7612	-0.0436
791.9328	0.0076
792.1044	-0.077
792.2759	0.0227
792.4474	-0.0167
792.619	-0.0094
792.7905	0.0746
792.9619	-0.0036
793.1334	-0.0293
793.3048	0.0099
793.4762	-0.0662
793.6476	-0.0128
793.819	-0.0254
793.9904	0.0117
794.1617	0.0135
794.333	-0.0285
794.5043	0.0125
794.6756	0.037
794.8469	-0.0126
795.0181	-0.0195
795.1893	-0.0355
795.3605	-0.0036
795.5317	0.0375
795.7029	0.0282
795.874	0.0273
796.0452	-0.028
796.2163	-0.0071
796.3873	0.0497
796.5584	0.0613
796.7294	-0.1172
796.9005	-0.0578
797.0715	0.0395
797.2425	-0.0058
797.4134	0.0291
797.5844	0.0072
797.7553	0.0125
797.9262	0.002
798.0971	-0.0483
798.2679	0.083
798.4388	-0.0451
798.6096	0.0027
798.7804	-0.0116
798.9512	0.0639
799.122	0.0281
799.2927	-0.0403
799.4635	0.0591
799.6342	0.0552
799.8049	0.0837
799.9755	-0.0358
800.1462	0.0093
800.3168	0.0516
800.4874	-0.0379
800.658	0.0334
800.8286	-0.0534
800.9991	0.0147
801.1696	-0.0654
801.3402	-0.0371
801.5106	-0.1376
801.6811	-0.0483
801.8516	-0.057
802.022	-0.0064
802.1924	-0.0702
802.3628	-0.0615
802.5332	-0.0718
802.7035	-0.0454
802.8739	0.1047
803.0442	-0.0174
803.2145	0.0519
803.3847	-0.1091
803.555	0.0101
803.7252	0.0564
803.8954	0.0566
804.0656	0.0277
804.2358	-0.0158
804.4059	0.0898
804.5761	0.0995
804.7462	-0.0239
804.9163	-0.0042
805.0864	0.0299
805.2564	-0.054
805.4264	-0.0725
805.5965	0.0703
805.7665	0.0815
805.9364	-0.0657
806.1064	-0.045
806.2763	0.0632
806.4462	-0.0127
806.6161	0.0095
806.786	0.0039
806.9559	0.0536
807.1257	-0.0117
807.2955	-0.0023
807.4653	-0.0187
807.6351	-0.0002
807.8048	-0.1146
807.9746	-0.0044
808.1443	0.053
808.314	0.1013
808.4837	-0.0814
808.6533	0.0042
808.8229	-0.076
808.9926	-0.0077
809.1622	0.0298
809.3317	0.0102
809.5013	0.0803
809.6708	0.0058
809.8403	0.0538
810.0098	0.0368
810.1793	0.0668
810.3488	0.045
810.5182	0.0081
810.6876	0.0534
810.857	-0.0217
811.0264	-0.079
811.1958	0.0127
811.3651	-0.0716
811.5344	0.0226
811.7037	-0.0767
811.873	-0.0037
812.0422	0.0312
812.2115	-0.0317
812.3807	0.0581
812.5499	0.0388
812.7191	0.0295
812.8882	-0.0764
813.0574	-0.195
813.2265	-0.0396
813.3956	-0.0481
813.5646	0.0171
813.7337	-0.0953
813.9027	0.0075
814.0718	-0.0434
814.2407	-0.1611
814.4097	0.0804
814.5787	0.075
814.7476	0.0638
814.9165	0.0226
815.0854	-0.0324
815.2543	0.0944
815.4232	-0.0635
815.592	0.1487
815.7608	0.1159
815.9296	0.0134
816.0984	0.0812
816.2671	-0.1669
816.4359	0.2411
816.6046	0.043
816.7733	-0.1207
816.942	0.0112
817.1106	-0.3091
817.2793	-0.0062
817.4479	-0.017
817.6165	-0.0428
817.785	-0.0362
817.9536	0.1126
818.1221	0.0217
818.2906	0.0533
818.4591	-0.0334
818.6276	0.1145
818.7961	0.0706
818.9645	-0.0208
819.1329	0.3626
819.3013	0.0269
819.4697	0.1893
819.638	0.207
819.8064	-0.1293
819.9747	-0.103
820.143	-0.0173
820.3113	0.156
820.4795	0.0796
820.6477	-0.094
820.816	-0.0106
820.9842	0.0058
821.1523	0.1016
821.3205	-0.0388
821.4886	-0.0119
821.6567	0.0483
821.8248	0.0477
821.9929	0.0722
822.1609	0.0465
822.329	0.0321
822.497	-0.0866
822.665	0.0721
822.833	-0.0855
823.0009	-0.1431
823.1688	0.0294
823.3367	-0.1842
823.5046	0.0901
823.6725	0.0645
823.8404	-0.0628
824.0082	-0.0623
824.176	-0.0702
824.3438	0.0195
824.5116	0.1909
824.6793	-0.1042
824.847	0.4104
825.0147	0.2245
825.1824	0.2621
825.3501	0.0409
825.5177	0.1555
825.6854	0.1959
825.853	0.003
826.0206	-0.0571
826.1881	-0.0202
826.3557	0.1936
826.5232	0.0527
826.6907	0.1513
826.8582	-0.0991
827.0257	-0.1401
827.1931	0.0864
827.3605	0.0204
827.528	0.2398
827.6953	0.0819
827.8627	-0.0555
828.03	-0.0484
828.1974	-0.0208
828.3647	-0.0032
828.532	0.1362
828.6992	0.1208
828.8665	0.0133
829.0337	-0.0264
829.2009	0.0522
829.3681	-0.0065
829.5352	-0.0446
829.7024	0.1166
829.8695	-0.0264
830.0366	0.1692
830.2037	0.0475
830.3707	-0.0194
830.5378	0.1303
830.7048	-0.2118
830.8718	-0.1975
831.0388	0.2339
831.2057	-0.2791
831.3727	0.1922
831.5396	0.0139
831.7065	-0
831.8734	-0.1207
832.0402	0.0673
832.2071	-0.2392
832.3739	-0.007
832.5407	-0
832.7075	0.0737
832.8742	-0.1494
833.041	-0.0552
833.2077	-0.0016
833.3744	0.0126
833.541	-0.1802
833.7077	0.1674
833.8743	-0.1125
834.0409	-0.1427
834.2075	0.0404
834.3741	0.0329
834.5407	-0.0428
834.7072	-0.0742
834.8737	-0.0122
835.0402	-0.4895
835.2067	0.3421
835.3731	-0.121
835.5395	-0.0527
835.706	-0.1276
835.8723	-0.327
836.0387	-0.0512
836.2051	0.3185
836.3714	-0.0853
836.5377	-0.0449
836.704	-0.1107
836.8703	-0.0961
837.0365	-0
837.2027	-0.6104
837.3689	-0.1413
837.5351	-0.2726
837.7013	0.1654
837.8674	-0.6598
838.0335	0.0799
838.1997	0.2896
838.3657	0.5701
838.5318	-0.3935
838.6978	-0
838.8639	0.0788
839.0299	0.2904
839.1958	-0.0265
839.3618	0.2388
839.5277	0.2103
839.6937	-0.2175
839.8596	0.2086
840.0254	0.3844
840.1913	0.3117
840.3571	-0.3202
840.523	-0.0821
840.6888	0.167
840.8545	0.2206
841.0203	0.1201
841.186	0.3446
841.3517	0.3604
841.5174	0.2647
841.6831	0.0377
841.8488	0.1186
842.0144	0.106
842.18	-0.0013
842.3456	0.0861
842.5112	0.1673
842.6767	-0.132
842.8422	-0.1657
843.0077	0.1674
843.1732	-0.2703
843.3387	0.5145
843.5042	0.0239
843.6696	1.617
843.835	-0.1327
844.0004	-0.0611
844.1657	0.184
844.3311	0.3544
844.4964	-0.2152
844.6617	-0
844.827	-0
844.9923	0.4036
845.1575	-0
845.3227	0.2631
845.4879	-0.0016
845.6531	-0.1922
845.8183	0.1081
845.9834	-0.5371
846.1485	-0.2406
846.3136	0.4503
846.4787	-0.1558
846.6438	0.2879
846.8088	-0
846.9738	-0
847.1388	-0.0872
847.3038	-0.132
847.4687	-0
847.6337	0.2854
847.7986	0.4664
847.9635	-0.0955
848.1284	0.1091
848.2932	-0
848.458	-0.2561
848.6228	-0
848.7876	0.4373
848.9524	-0.3078
849.1172	-0.3222
849.2819	1.2967
849.4466	0.1255
849.6113	-0.1632
849.7759	-0
849.9406	-0.2244
850.1052	0.1483
850.2698	-1.4271
850.4344	-0
850.599	0.1446
850.7635	-0.2588
850.928	0.4564
851.0925	-0.1166
851.257	0.0282
851.4215	-0.2988
851.5859	0.1707
851.7503	-0
851.9147	-0
852.0791	-0.2792
852.2434	-0.3701
852.4078	-0
852.5721	0.5972
852.7364	0.5926
852.9007	-0.3005
853.0649	0.4918
853.2291	0.2958
853.3934	-0.0113
853.5575	-0.2685
853.7217	0.454
853.8859	-0
854.05	0.0751
854.2141	-0
854.3782	0.4412
854.5423	-0.626
854.7063	0.1104
854.8703	2.1673
855.0343	-0.0416
855.1983	-0.0891
855.3623	0.0869
855.5262	-0.7179
855.6901	0.5494
855.854	0.0317
856.0179	-0
856.1818	-0
856.3456	0.305
856.5094	-0
856.6732	-0.3277
856.837	0.1948
857.0008	-0
857.1645	-0
857.3282	-0.1346
857.4919	0.4944
857.6556	0.55
857.8192	-0.3458
857.9828	-0.4041
858.1465	0.2631
858.31	-0
858.4736	0.9475
858.6372	0.7508
858.8007	0.2009
858.9642	0.3395
859.1277	-0.806
859.2911	0.3918
859.4546	-0
859.618	0.1628
859.7814	-0
859.9448	-0
860.1081	-0
860.2715	-0
860.4348	-0.0804
860.5981	-0
860.7614	-0
860.9246	-0.2249
861.0879	-0.3954
861.2511	0.2266
861.4143	-0
861.5774	0.0371
861.7406	-0
861.9037	-0
862.0668	-0.6328
862.2299	-1.6596
862.393	-0
862.556	-0
862.7191	0.2705
862.8821	-0.264
863.0451	-0
863.208	-0.1114
863.371	0.0494
863.5339	-0.0367
863.6968	-0.4611
863.8597	-0
864.0225	-0
864.1854	0.0643
864.3482	0.3845
864.511	-0.1258
864.6737	-0
864.8365	0.1479
864.9992	-0.0324
865.1619	0.1558
865.3246	0.1958
865.4873	-0.9261
865.65	-1.1992
865.8126	-0
865.9752	0.0517
866.1378	-0.4496
866.3004	0.0877
866.4629	0.5169
866.6254	-0.7816
866.7879	0.1252
866.9504	-0
867.1129	-0
867.2753	0.1716
867.4377	0.6935
867.6001	0.22
867.7625	0.1949
867.9249	-0
868.0872	0.336
868.2495	-0
868.4118	-0
868.5741	-0
868.7363	0.4998
868.8986	0.8318
869.0608	0.3174
869.223	0.1771
869.3851	-0
869.5473	-1.2954
869.7094	0.1168
869.8715	-0
870.0336	0.0099
870.1957	-0.3076
870.3577	0.1694
870.5197	0.0077
870.6817	-0
870.8437	0.4454
871.0057	-0
871.1676	0.4454
871.3295	1.6097
871.4914	0.2269
871.6533	-0.317
871.8151	-0.2993
871.977	0.177
872.1388	-0.8387
872.3006	0.511
872.4623	0.1588
872.6241	-0
872.7858	-0.1167
872.9475	-0
873.1092	0.2161
873.2709	0.0345
873.4325	-0
873.5941	-0.1332
873.7557	-0.6837
873.9173	-0.9782
874.0789	0.2004
874.2404	-0.1003
874.4019	0.0925
874.5634	-0
874.7249	-0
874.8863	-0.8613
875.0478	-0.0336
875.2092	0.0281
875.3706	0.4157
875.5319	-0
875.6933	0.8687
875.8546	-0
876.0159	0.6342
876.1772	-0
876.3385	0.2281
876.4997	-0.4391
876.6609	-0
876.8221	0.5317
876.9833	-0.0171
877.1445	0.037
877.3056	-0
877.4667	-0
877.6278	-0
877.7889	-0
877.9499	-0.0931
878.111	0.3748
878.272	-0.3318
878.433	-0.4937
878.5939	0.2932
878.7549	-0.3921
878.9158	-0.3346
879.0767	-0.0395
879.2376	-0
879.3984	-0
879.5593	-0.0813
879.7201	-0
879.8809	-0.4571
880.0417	0.2093
880.2024	0.542
880.3632	-0.0358
880.5239	-0.2912
880.6846	0.4325
880.8452	0.4832
881.0059	-0
881.1665	0.5489
881.3271	1.2883
881.4877	0.0719
881.6483	-0
881.8088	-0.3638
881.9693	-0.1395
882.1298	-0.1395
882.2903	-0.1395
