Data from D4ACN5uM480nmA_Absorbance_12-08-00-850.txt Node
Date: Fri Feb 21 12:08:00 GMT 2025
User: LASERRRRR
Spectrometer: FLMT03099
Trigger mode: 0
Integration Time (sec): 1.500000E-2
Scans to average: 1
Electric dark correction enabled: true
Nonlinearity correction enabled: false
Boxcar width: 0
XAxis mode: Wavelengths
Number of Pixels in Spectrum: 3648
>>>>>Begin Spectral Data<<<<<
179.3399	1.0212
179.5586	1.0212
179.7771	1.0212
179.9957	0.3251
180.2143	0.3254
180.4329	-0
180.6514	-0
180.8699	-0.3821
181.0885	-0.2545
181.307	-0
181.5255	-0.0532
181.744	-0
181.9625	-0.0626
182.181	0.6198
182.3994	-0
182.6179	-0
182.8363	-0
183.0547	-0
183.2732	0.2311
183.4916	0.2829
183.71	0.1663
183.9284	0.2418
184.1467	0.1193
184.3651	0.1844
184.5835	0.0327
184.8018	0.1543
185.0201	0.4967
185.2385	0.1843
185.4568	0.3115
185.6751	0.2552
185.8934	0.2232
186.1117	0.5745
186.3299	0.2049
186.5482	0.2772
186.7664	0.3423
186.9847	0.3244
187.2029	0.2071
187.4211	0.1471
187.6393	0.0567
187.8575	0.0189
188.0757	0.2878
188.2939	-0.0009
188.512	0.1154
188.7302	0.5989
188.9483	-0.0108
189.1665	0.1855
189.3846	0.0395
189.6027	0.248
189.8208	0.3787
190.0389	0.3331
190.257	0.2551
190.475	0.209
190.6931	0.308
190.9111	0.4708
191.1292	0.366
191.3472	0.5086
191.5652	-0
191.7832	0.5948
192.0012	0.7831
192.2192	0.495
192.4371	0.2038
192.6551	0.4676
192.873	0.2433
193.091	0.3416
193.3089	0.2328
193.5268	0.3929
193.7447	0.4247
193.9626	0.4375
194.1805	0.5369
194.3984	0.7389
194.6162	0.4259
194.8341	0.6295
195.0519	0.6078
195.2697	0.5268
195.4875	0.5756
195.7054	0.4407
195.9231	0.4859
196.1409	0.6631
196.3587	0.5897
196.5765	0.4908
196.7942	0.6325
197.012	0.5816
197.2297	0.5524
197.4474	0.586
197.6651	0.596
197.8828	0.6995
198.1005	0.687
198.3182	0.6539
198.5358	0.6606
198.7535	0.5456
198.9711	0.6759
199.1888	0.668
199.4064	0.6119
199.624	0.6265
199.8416	0.6047
200.0592	0.6273
200.2767	0.5547
200.4943	0.6751
200.7119	0.6031
200.9294	0.5986
201.1469	0.6088
201.3645	0.6369
201.582	0.5941
201.7995	0.6282
202.017	0.6357
202.2344	0.5462
202.4519	0.5869
202.6694	0.5832
202.8868	0.6245
203.1042	0.566
203.3217	0.5352
203.5391	0.559
203.7565	0.4835
203.9739	0.5212
204.1913	0.5042
204.4086	0.517
204.626	0.5384
204.8433	0.4963
205.0607	0.5359
205.278	0.5184
205.4953	0.4922
205.7126	0.4459
205.9299	0.4747
206.1472	0.4758
206.3644	0.4742
206.5817	0.4771
206.7989	0.4761
207.0162	0.4676
207.2334	0.4404
207.4506	0.4543
207.6678	0.4524
207.885	0.4562
208.1022	0.4285
208.3194	0.4269
208.5365	0.4809
208.7537	0.4409
208.9708	0.4515
209.1879	0.4126
209.405	0.4167
209.6222	0.3947
209.8392	0.4136
210.0563	0.4154
210.2734	0.3897
210.4905	0.4001
210.7075	0.4434
210.9245	0.4167
211.1416	0.4194
211.3586	0.4196
211.5756	0.4289
211.7926	0.4025
212.0096	0.3868
212.2265	0.4175
212.4435	0.4156
212.6604	0.4
212.8774	0.4072
213.0943	0.3912
213.3112	0.4117
213.5281	0.4114
213.745	0.4289
213.9619	0.3848
214.1788	0.4129
214.3956	0.4101
214.6125	0.4075
214.8293	0.4078
215.0461	0.4044
215.2629	0.3785
215.4798	0.3917
215.6965	0.3944
215.9133	0.4241
216.1301	0.4155
216.3469	0.4085
216.5636	0.4008
216.7803	0.4166
216.9971	0.4331
217.2138	0.4011
217.4305	0.4357
217.6472	0.4151
217.8639	0.3908
218.0805	0.43
218.2972	0.4284
218.5138	0.4292
218.7305	0.4086
218.9471	0.4353
219.1637	0.4302
219.3803	0.4325
219.5969	0.4184
219.8135	0.4193
220.0301	0.4118
220.2466	0.4394
220.4632	0.4214
220.6797	0.4294
220.8962	0.4371
221.1127	0.4163
221.3292	0.4468
221.5457	0.4385
221.7622	0.4433
221.9787	0.4641
222.1951	0.4379
222.4116	0.448
222.628	0.4321
222.8444	0.4453
223.0608	0.4321
223.2772	0.4444
223.4936	0.4517
223.71	0.426
223.9264	0.4441
224.1427	0.4592
224.3591	0.4465
224.5754	0.4566
224.7917	0.4585
225.008	0.4359
225.2243	0.4647
225.4406	0.4574
225.6569	0.474
225.8732	0.4616
226.0894	0.4638
226.3057	0.4489
226.5219	0.4735
226.7381	0.469
226.9543	0.4741
227.1705	0.4702
227.3867	0.4925
227.6029	0.4671
227.8191	0.4712
228.0352	0.4935
228.2513	0.4751
228.4675	0.4962
228.6836	0.4969
228.8997	0.4807
229.1158	0.4961
229.3319	0.4881
229.548	0.4865
229.764	0.4909
229.9801	0.5094
230.1961	0.4909
230.4121	0.5162
230.6282	0.5147
230.8442	0.5256
231.0602	0.5049
231.2761	0.5256
231.4921	0.5171
231.7081	0.5045
231.924	0.5231
232.14	0.5049
232.3559	0.5357
232.5718	0.5418
232.7877	0.5203
233.0036	0.5256
233.2195	0.5253
233.4353	0.5313
233.6512	0.5298
233.867	0.5186
234.0829	0.5344
234.2987	0.5258
234.5145	0.5332
234.7303	0.548
234.9461	0.5364
235.1619	0.5323
235.3776	0.5306
235.5934	0.5378
235.8091	0.5345
236.0249	0.5315
236.2406	0.5435
236.4563	0.532
236.672	0.5277
236.8877	0.5384
237.1034	0.5328
237.319	0.5318
237.5347	0.5315
237.7503	0.5356
237.966	0.5494
238.1816	0.5345
238.3972	0.5401
238.6128	0.5521
238.8284	0.5357
239.0439	0.5365
239.2595	0.5194
239.475	0.5294
239.6906	0.5244
239.9061	0.5238
240.1216	0.5355
240.3371	0.5266
240.5526	0.5175
240.7681	0.5271
240.9836	0.5144
241.199	0.5068
241.4145	0.4868
241.6299	0.5038
241.8453	0.4809
242.0607	0.4908
242.2761	0.4685
242.4915	0.4846
242.7069	0.465
242.9223	0.4662
243.1376	0.4495
243.353	0.4446
243.5683	0.4351
243.7836	0.4205
243.9989	0.4229
244.2142	0.4177
244.4295	0.4118
244.6448	0.401
244.86	0.3873
245.0753	0.378
245.2905	0.3761
245.5057	0.3691
245.721	0.3612
245.9362	0.3487
246.1514	0.3401
246.3665	0.3444
246.5817	0.3323
246.7969	0.3303
247.012	0.3299
247.2271	0.3072
247.4423	0.31
247.6574	0.303
247.8725	0.306
248.0876	0.2949
248.3026	0.2886
248.5177	0.2859
248.7328	0.2736
248.9478	0.2728
249.1628	0.2562
249.3779	0.274
249.5929	0.2669
249.8079	0.258
250.0228	0.2513
250.2378	0.2509
250.4528	0.2459
250.6677	0.2429
250.8827	0.2375
251.0976	0.2453
251.3125	0.2323
251.5274	0.2326
251.7423	0.2295
251.9572	0.2247
252.172	0.2172
252.3869	0.2198
252.6017	0.2163
252.8166	0.2227
253.0314	0.2184
253.2462	0.213
253.461	0.2093
253.6758	0.2086
253.8906	0.2037
254.1053	0.2042
254.3201	0.2041
254.5348	0.1998
254.7496	0.2028
254.9643	0.2023
255.179	0.2055
255.3937	0.1939
255.6083	0.1955
255.823	0.1946
256.0377	0.1981
256.2523	0.1961
256.467	0.194
256.6816	0.1987
256.8962	0.1933
257.1108	0.1952
257.3254	0.1921
257.54	0.1893
257.7545	0.1856
257.9691	0.1915
258.1836	0.1959
258.3981	0.1898
258.6127	0.1855
258.8272	0.1834
259.0417	0.1776
259.2561	0.1845
259.4706	0.1915
259.6851	0.1879
259.8995	0.1824
260.114	0.185
260.3284	0.1851
260.5428	0.1772
260.7572	0.1886
260.9716	0.1855
261.186	0.1804
261.4003	0.1856
261.6147	0.1809
261.829	0.1846
262.0433	0.1839
262.2577	0.1891
262.472	0.1861
262.6863	0.1875
262.9005	0.185
263.1148	0.1767
263.3291	0.1921
263.5433	0.1856
263.7576	0.182
263.9718	0.1927
264.186	0.1839
264.4002	0.1838
264.6144	0.1898
264.8286	0.1844
265.0427	0.1927
265.2569	0.1928
265.471	0.188
265.6851	0.1873
265.8993	0.1895
266.1134	0.1866
266.3275	0.1887
266.5415	0.186
266.7556	0.1827
266.9697	0.1783
267.1837	0.1806
267.3978	0.1918
267.6118	0.1817
267.8258	0.1842
268.0398	0.1816
268.2538	0.1862
268.4677	0.1859
268.6817	0.1787
268.8957	0.1786
269.1096	0.1733
269.3235	0.1902
269.5374	0.1832
269.7514	0.1807
269.9652	0.1797
270.1791	0.1822
270.393	0.1841
270.6068	0.1739
270.8207	0.1749
271.0345	0.1723
271.2483	0.1795
271.4622	0.1764
271.676	0.1829
271.8897	0.17
272.1035	0.1741
272.3173	0.1694
272.531	0.1707
272.7448	0.1685
272.9585	0.1754
273.1722	0.1705
273.3859	0.1704
273.5996	0.1734
273.8133	0.1721
274.0269	0.174
274.2406	0.1698
274.4542	0.1654
274.6679	0.1653
274.8815	0.1709
275.0951	0.1738
275.3087	0.1774
275.5223	0.1693
275.7358	0.1737
275.9494	0.167
276.1629	0.1761
276.3765	0.173
276.59	0.1768
276.8035	0.1799
277.017	0.1755
277.2305	0.1789
277.444	0.1785
277.6574	0.1774
277.8709	0.1776
278.0843	0.1815
278.2978	0.1805
278.5112	0.1838
278.7246	0.176
278.938	0.1813
279.1513	0.1823
279.3647	0.1819
279.5781	0.1807
279.7914	0.1842
280.0047	0.1763
280.2181	0.1832
280.4314	0.1802
280.6447	0.1835
280.8579	0.1812
281.0712	0.1835
281.2845	0.1862
281.4977	0.1935
281.711	0.1838
281.9242	0.1818
282.1374	0.184
282.3506	0.1902
282.5638	0.181
282.7769	0.1816
282.9901	0.1775
283.2033	0.1848
283.4164	0.1858
283.6295	0.187
283.8426	0.1819
284.0557	0.1873
284.2688	0.1933
284.4819	0.1916
284.695	0.1888
284.908	0.1956
285.1211	0.1894
285.3341	0.1881
285.5471	0.202
285.7601	0.1927
285.9731	0.1915
286.1861	0.1932
286.3991	0.1944
286.612	0.1992
286.825	0.1911
287.0379	0.1998
287.2508	0.1987
287.4637	0.194
287.6766	0.1995
287.8895	0.1954
288.1024	0.1934
288.3152	0.1905
288.5281	0.2007
288.7409	0.1945
288.9538	0.1932
289.1666	0.1986
289.3794	0.1958
289.5922	0.1972
289.8049	0.2035
290.0177	0.2039
290.2304	0.2013
290.4432	0.1998
290.6559	0.1923
290.8686	0.2047
291.0813	0.2026
291.294	0.201
291.5067	0.2059
291.7194	0.1984
291.932	0.1985
292.1447	0.1995
292.3573	0.2006
292.5699	0.2007
292.7825	0.1984
292.9951	0.2068
293.2077	0.2002
293.4203	0.1996
293.6328	0.1965
293.8454	0.1983
294.0579	0.203
294.2704	0.2039
294.4829	0.2036
294.6954	0.1979
294.9079	0.2036
295.1204	0.2047
295.3328	0.2017
295.5453	0.1966
295.7577	0.1959
295.9701	0.2005
296.1825	0.1963
296.3949	0.2026
296.6073	0.1996
296.8197	0.2044
297.0321	0.203
297.2444	0.1986
297.4567	0.1991
297.6691	0.2029
297.8814	0.2015
298.0937	0.201
298.306	0.2018
298.5182	0.1981
298.7305	0.1915
298.9428	0.1996
299.155	0.1995
299.3672	0.1973
299.5794	0.1996
299.7916	0.1964
300.0038	0.2004
300.216	0.204
300.4282	0.1933
300.6403	0.1905
300.8525	0.1987
301.0646	0.1983
301.2767	0.1927
301.4888	0.2018
301.7009	0.1994
301.913	0.2
302.125	0.1988
302.3371	0.1956
302.5491	0.2017
302.7612	0.1961
302.9732	0.1918
303.1852	0.1942
303.3972	0.196
303.6092	0.1921
303.8211	0.193
304.0331	0.1886
304.245	0.1934
304.457	0.1997
304.6689	0.1951
304.8808	0.1949
305.0927	0.1884
305.3046	0.1856
305.5164	0.1876
305.7283	0.1886
305.9401	0.1815
306.152	0.18
306.3638	0.1754
306.5756	0.1827
306.7874	0.1813
306.9992	0.1796
307.2109	0.1741
307.4227	0.1723
307.6344	0.1755
307.8462	0.1683
308.0579	0.1724
308.2696	0.16
308.4813	0.1592
308.693	0.1653
308.9046	0.1611
309.1163	0.1626
309.328	0.1548
309.5396	0.1621
309.7512	0.1554
309.9628	0.1562
310.1744	0.1534
310.386	0.1439
310.5976	0.1478
310.8091	0.1471
311.0207	0.1417
311.2322	0.1494
311.4437	0.1459
311.6552	0.1474
311.8667	0.144
312.0782	0.1404
312.2897	0.14
312.5012	0.1369
312.7126	0.1282
312.924	0.1419
313.1355	0.1313
313.3469	0.1302
313.5583	0.1345
313.7696	0.1256
313.981	0.1294
314.1924	0.1248
314.4037	0.1196
314.6151	0.1305
314.8264	0.1261
315.0377	0.1287
315.249	0.1199
315.4603	0.1205
315.6716	0.1207
315.8828	0.1218
316.0941	0.1254
316.3053	0.1184
316.5165	0.1206
316.7277	0.1229
316.9389	0.1227
317.1501	0.1149
317.3613	0.1128
317.5724	0.1196
317.7836	0.1175
317.9947	0.1135
318.2058	0.114
318.417	0.1153
318.6281	0.119
318.8391	0.1146
319.0502	0.1117
319.2613	0.1185
319.4723	0.1131
319.6834	0.1177
319.8944	0.1189
320.1054	0.1167
320.3164	0.1129
320.5274	0.1132
320.7383	0.1166
320.9493	0.1133
321.1602	0.1133
321.3712	0.1177
321.5821	0.1184
321.793	0.118
322.0039	0.1213
322.2148	0.12
322.4257	0.1166
322.6365	0.1185
322.8474	0.1132
323.0582	0.1176
323.269	0.1124
323.4798	0.1147
323.6906	0.117
323.9014	0.1122
324.1122	0.115
324.3229	0.1217
324.5337	0.1196
324.7444	0.1197
324.9551	0.1154
325.1658	0.1162
325.3765	0.1171
325.5872	0.1122
325.7979	0.1179
326.0085	0.115
326.2192	0.1151
326.4298	0.1261
326.6404	0.12
326.851	0.1142
327.0616	0.1256
327.2722	0.1255
327.4828	0.1207
327.6933	0.1231
327.9039	0.1176
328.1144	0.118
328.3249	0.1246
328.5354	0.1191
328.7459	0.1235
328.9564	0.1298
329.1669	0.1193
329.3773	0.1209
329.5878	0.126
329.7982	0.1251
330.0086	0.1237
330.219	0.1199
330.4294	0.1298
330.6398	0.1252
330.8502	0.1248
331.0605	0.127
331.2708	0.119
331.4812	0.1242
331.6915	0.1224
331.9018	0.1208
332.1121	0.1283
332.3224	0.1294
332.5326	0.1282
332.7429	0.1201
332.9531	0.1272
333.1633	0.1241
333.3735	0.1196
333.5837	0.1306
333.7939	0.1259
334.0041	0.1269
334.2143	0.1229
334.4244	0.1206
334.6346	0.1247
334.8447	0.1262
335.0548	0.1256
335.2649	0.1296
335.475	0.125
335.685	0.1248
335.8951	0.1262
336.1051	0.1275
336.3152	0.126
336.5252	0.1337
336.7352	0.1209
336.9452	0.1296
337.1552	0.1336
337.3652	0.1306
337.5751	0.1286
337.7851	0.1204
337.995	0.1296
338.2049	0.1324
338.4148	0.1309
338.6247	0.13
338.8346	0.1243
339.0445	0.1348
339.2543	0.1303
339.4642	0.1338
339.674	0.1342
339.8838	0.1322
340.0936	0.1295
340.3034	0.1373
340.5132	0.1363
340.7229	0.1314
340.9327	0.1409
341.1424	0.1339
341.3522	0.1438
341.5619	0.141
341.7716	0.1411
341.9813	0.146
342.1909	0.1476
342.4006	0.1427
342.6102	0.1391
342.8199	0.139
343.0295	0.1442
343.2391	0.1431
343.4487	0.1425
343.6583	0.1431
343.8679	0.1405
344.0774	0.1427
344.287	0.1445
344.4965	0.1445
344.706	0.1474
344.9155	0.1443
345.125	0.1433
345.3345	0.1395
345.544	0.1538
345.7534	0.1525
345.9629	0.1523
346.1723	0.1512
346.3817	0.1498
346.5911	0.1487
346.8005	0.156
347.0099	0.1572
347.2193	0.1508
347.4286	0.1586
347.638	0.1542
347.8473	0.1624
348.0566	0.1546
348.2659	0.1521
348.4752	0.1581
348.6845	0.1609
348.8937	0.1629
349.103	0.1506
349.3122	0.1678
349.5214	0.155
349.7306	0.1557
349.9398	0.1613
350.149	0.1764
350.3582	0.1585
350.5674	0.1641
350.7765	0.1641
350.9856	0.166
351.1948	0.1652
351.4039	0.1633
351.613	0.1728
351.822	0.1643
352.0311	0.1678
352.2402	0.1726
352.4492	0.169
352.6582	0.1692
352.8672	0.17
353.0762	0.1724
353.2852	0.173
353.4942	0.1751
353.7032	0.1707
353.9121	0.1729
354.1211	0.1747
354.33	0.1795
354.5389	0.1769
354.7478	0.1774
354.9567	0.1752
355.1655	0.1807
355.3744	0.1801
355.5833	0.1778
355.7921	0.184
356.0009	0.1861
356.2097	0.1887
356.4185	0.187
356.6273	0.1882
356.8361	0.1974
357.0448	0.1883
357.2536	0.1891
357.4623	0.1882
357.671	0.1871
357.8797	0.1944
358.0884	0.1858
358.2971	0.192
358.5057	0.1879
358.7144	0.1947
358.923	0.1962
359.1316	0.1985
359.3402	0.2026
359.5488	0.198
359.7574	0.1982
359.966	0.2007
360.1746	0.1949
360.3831	0.1963
360.5916	0.195
360.8002	0.21
361.0087	0.2107
361.2172	0.2116
361.4256	0.2007
361.6341	0.2131
361.8426	0.2049
362.051	0.2073
362.2594	0.2196
362.4678	0.2192
362.6762	0.224
362.8846	0.2247
363.093	0.2093
363.3014	0.2247
363.5097	0.2201
363.718	0.2302
363.9264	0.2192
364.1347	0.2288
364.343	0.2244
364.5513	0.2256
364.7595	0.2337
364.9678	0.235
365.176	0.2293
365.3842	0.2327
365.5925	0.2351
365.8007	0.2355
366.0089	0.238
366.217	0.2347
366.4252	0.2367
366.6333	0.2357
366.8415	0.2352
367.0496	0.2438
367.2577	0.2438
367.4658	0.2489
367.6739	0.241
367.882	0.2549
368.09	0.2451
368.2981	0.241
368.5061	0.2507
368.7141	0.2516
368.9221	0.2448
369.1301	0.2552
369.3381	0.2576
369.5461	0.2583
369.754	0.2492
369.962	0.259
370.1699	0.2668
370.3778	0.2589
370.5857	0.2583
370.7936	0.2591
371.0015	0.2608
371.2093	0.2657
371.4172	0.2625
371.625	0.2598
371.8328	0.2765
372.0406	0.2574
372.2484	0.2564
372.4562	0.2629
372.664	0.266
372.8717	0.2722
373.0795	0.2666
373.2872	0.2685
373.4949	0.2794
373.7026	0.2745
373.9103	0.2648
374.118	0.2735
374.3256	0.2811
374.5333	0.2767
374.7409	0.2697
374.9485	0.2732
375.1561	0.2791
375.3637	0.2626
375.5713	0.2754
375.7789	0.2704
375.9864	0.2812
376.194	0.2866
376.4015	0.2842
376.609	0.2881
376.8165	0.279
377.024	0.288
377.2315	0.296
377.4389	0.2773
377.6464	0.2842
377.8538	0.2913
378.0612	0.29
378.2686	0.287
378.476	0.2886
378.6834	0.2902
378.8908	0.288
379.0981	0.2987
379.3055	0.2985
379.5128	0.2969
379.7201	0.2974
379.9274	0.2915
380.1347	0.2975
380.342	0.2998
380.5492	0.2929
380.7565	0.302
380.9637	0.2994
381.1709	0.3016
381.3781	0.3023
381.5853	0.301
381.7925	0.3038
381.9997	0.3072
382.2068	0.303
382.4139	0.3044
382.6211	0.3182
382.8282	0.3074
383.0353	0.3156
383.2424	0.3068
383.4494	0.3145
383.6565	0.3111
383.8635	0.32
384.0706	0.3117
384.2776	0.3227
384.4846	0.3144
384.6916	0.314
384.8986	0.3185
385.1055	0.3151
385.3125	0.318
385.5194	0.3156
385.7263	0.3045
385.9333	0.3137
386.1402	0.3248
386.347	0.3097
386.5539	0.3171
386.7608	0.3071
386.9676	0.3102
387.1744	0.3139
387.3813	0.318
387.5881	0.3065
387.7948	0.319
388.0016	0.3079
388.2084	0.3151
388.4151	0.3075
388.6219	0.3075
388.8286	0.3105
389.0353	0.3145
389.242	0.3133
389.4487	0.308
389.6553	0.3073
389.862	0.2991
390.0686	0.3167
390.2753	0.3087
390.4819	0.3068
390.6885	0.3059
390.8951	0.3136
391.1016	0.3087
391.3082	0.2909
391.5147	0.3037
391.7213	0.2971
391.9278	0.3052
392.1343	0.2983
392.3408	0.2858
392.5473	0.2903
392.7537	0.3021
392.9602	0.2921
393.1666	0.2875
393.373	0.285
393.5794	0.2865
393.7858	0.2892
393.9922	0.2799
394.1986	0.2795
394.4049	0.277
394.6113	0.2888
394.8176	0.2736
395.0239	0.2789
395.2302	0.2752
395.4365	0.2794
395.6428	0.2913
395.8491	0.2768
396.0553	0.2791
396.2615	0.2716
396.4678	0.2699
396.674	0.2651
396.8802	0.2708
397.0863	0.28
397.2925	0.2663
397.4987	0.2662
397.7048	0.2791
397.9109	0.2769
398.117	0.2673
398.3231	0.2738
398.5292	0.271
398.7353	0.2604
398.9413	0.2725
399.1474	0.2769
399.3534	0.2755
399.5594	0.2728
399.7654	0.2726
399.9714	0.2631
400.1774	0.2731
400.3833	0.2711
400.5893	0.2592
400.7952	0.2654
401.0011	0.2609
401.207	0.266
401.4129	0.2702
401.6188	0.2732
401.8247	0.2721
402.0305	0.2534
402.2364	0.2602
402.4422	0.2708
402.648	0.2702
402.8538	0.2741
403.0596	0.2586
403.2654	0.2689
403.4711	0.2673
403.6768	0.2658
403.8826	0.2692
404.0883	0.2512
404.294	0.2732
404.4997	0.2559
404.7054	0.2636
404.911	0.2632
405.1167	0.2719
405.3223	0.2699
405.5279	0.2685
405.7335	0.2569
405.9391	0.259
406.1447	0.2657
406.3502	0.2722
406.5558	0.2713
406.7613	0.2706
406.9668	0.2661
407.1724	0.2805
407.3778	0.2626
407.5833	0.2554
407.7888	0.2701
407.9942	0.2711
408.1997	0.2672
408.4051	0.2772
408.6105	0.2722
408.8159	0.2669
409.0213	0.2675
409.2267	0.2636
409.432	0.2638
409.6374	0.2691
409.8427	0.2632
410.048	0.2547
410.2533	0.2645
410.4586	0.2556
410.6639	0.269
410.8691	0.2721
411.0744	0.2661
411.2796	0.2708
411.4848	0.2703
411.69	0.2612
411.8952	0.262
412.1004	0.266
412.3056	0.261
412.5107	0.2714
412.7158	0.2749
412.921	0.2584
413.1261	0.2579
413.3312	0.2611
413.5362	0.2598
413.7413	0.2674
413.9464	0.2587
414.1514	0.2537
414.3564	0.2667
414.5614	0.2608
414.7664	0.2587
414.9714	0.2602
415.1764	0.2587
415.3813	0.2453
415.5863	0.2534
415.7912	0.2664
415.9961	0.2597
416.201	0.273
416.4059	0.2612
416.6108	0.2583
416.8156	0.2559
417.0205	0.2642
417.2253	0.2686
417.4301	0.2737
417.6349	0.2525
417.8397	0.2652
418.0445	0.2582
418.2492	0.2579
418.454	0.2568
418.6587	0.2614
418.8634	0.2516
419.0681	0.2392
419.2728	0.2414
419.4775	0.2546
419.6822	0.2405
419.8868	0.2632
420.0915	0.254
420.2961	0.2464
420.5007	0.2569
420.7053	0.2483
420.9099	0.244
421.1144	0.2392
421.319	0.2369
421.5235	0.2423
421.728	0.2468
421.9325	0.2549
422.137	0.2427
422.3415	0.2384
422.546	0.2403
422.7504	0.2356
422.9549	0.2463
423.1593	0.2429
423.3637	0.2451
423.5681	0.2401
423.7725	0.2416
423.9769	0.245
424.1812	0.2353
424.3856	0.2334
424.5899	0.2403
424.7942	0.2164
424.9985	0.2216
425.2028	0.2254
425.4071	0.2151
425.6113	0.2232
425.8156	0.2281
426.0198	0.2152
426.224	0.2341
426.4282	0.2172
426.6324	0.2258
426.8366	0.2251
427.0407	0.2171
427.2449	0.2196
427.449	0.2186
427.6531	0.2118
427.8572	0.2083
428.0613	0.2045
428.2654	0.2019
428.4694	0.2028
428.6735	0.2135
428.8775	0.2062
429.0815	0.2079
429.2855	0.1994
429.4895	0.2039
429.6935	0.2024
429.8975	0.2057
430.1014	0.1985
430.3053	0.1968
430.5093	0.2019
430.7132	0.1937
430.9171	0.1904
431.1209	0.1858
431.3248	0.179
431.5286	0.1825
431.7325	0.1929
431.9363	0.1858
432.1401	0.175
432.3439	0.1807
432.5477	0.1752
432.7514	0.1756
432.9552	0.1757
433.1589	0.1674
433.3627	0.1721
433.5664	0.1696
433.7701	0.1733
433.9737	0.1691
434.1774	0.1744
434.3811	0.1684
434.5847	0.167
434.7883	0.1718
434.9919	0.1544
435.1955	0.1557
435.3991	0.1538
435.6027	0.1553
435.8062	0.1509
436.0098	0.1462
436.2133	0.1615
436.4168	0.1457
436.6203	0.1369
436.8238	0.1447
437.0272	0.1298
437.2307	0.139
437.4341	0.1377
437.6375	0.1349
437.841	0.131
438.0443	0.1317
438.2477	0.1262
438.4511	0.1295
438.6545	0.1252
438.8578	0.1238
439.0611	0.1243
439.2644	0.1165
439.4677	0.1148
439.671	0.1144
439.8743	0.1166
440.0775	0.1151
440.2808	0.12
440.484	0.1149
440.6872	0.1127
440.8904	0.1086
441.0936	0.1043
441.2967	0.1006
441.4999	0.1061
441.703	0.1014
441.9062	0.095
442.1093	0.1026
442.3124	0.0972
442.5155	0.0975
442.7185	0.0824
442.9216	0.0866
443.1246	0.0978
443.3276	0.0841
443.5307	0.0829
443.7337	0.0925
443.9366	0.0898
444.1396	0.0718
444.3426	0.087
444.5455	0.0734
444.7484	0.0744
444.9513	0.0867
445.1542	0.0728
445.3571	0.0641
445.56	0.0827
445.7628	0.0717
445.9657	0.0734
446.1685	0.0721
446.3713	0.0668
446.5741	0.0607
446.7769	0.0725
446.9797	0.0688
447.1824	0.0675
447.3852	0.0558
447.5879	0.0588
447.7906	0.0506
447.9933	0.0726
448.196	0.0486
448.3986	0.0596
448.6013	0.0531
448.8039	0.0561
449.0066	0.0564
449.2092	0.0543
449.4118	0.0584
449.6143	0.0511
449.8169	0.0492
450.0195	0.0481
450.222	0.0525
450.4245	0.0486
450.627	0.0541
450.8295	0.0406
451.032	0.0476
451.2345	0.0466
451.4369	0.0465
451.6394	0.0405
451.8418	0.0322
452.0442	0.0368
452.2466	0.0464
452.449	0.038
452.6513	0.0366
452.8537	0.0397
453.056	0.0452
453.2583	0.0367
453.4607	0.0338
453.663	0.0315
453.8652	0.0325
454.0675	0.0392
454.2697	0.033
454.472	0.0312
454.6742	0.026
454.8764	0.0327
455.0786	0.0274
455.2808	0.0358
455.4829	0.0263
455.6851	0.0284
455.8872	0.0362
456.0893	0.0295
456.2915	0.0194
456.4935	0.0217
456.6956	0.018
456.8977	0.0288
457.0997	0.0312
457.3018	0.0236
457.5038	0.0166
457.7058	0.0223
457.9078	0.0232
458.1098	0.027
458.3117	0.0268
458.5137	0.0236
458.7156	0.0241
458.9175	0.0136
459.1194	0.027
459.3213	0.0177
459.5232	0.0133
459.725	0.0217
459.9269	0.0217
460.1287	0.0186
460.3305	0.0173
460.5323	0.0167
460.7341	0.0161
460.9359	0.0117
461.1376	0.0233
461.3394	0.0118
461.5411	0.0126
461.7428	0.0136
461.9445	0.0081
462.1462	0.0165
462.3479	0.0162
462.5495	0.0153
462.7512	0.0057
462.9528	0.0131
463.1544	-0.0005
463.356	0.0175
463.5576	0.0023
463.7592	0.0094
463.9607	0.014
464.1623	0.0148
464.3638	0.0047
464.5653	0.0138
464.7668	0.0128
464.9683	0.0123
465.1697	0.0059
465.3712	0.0073
465.5726	0.0141
465.7741	0.0125
465.9755	0.0167
466.1769	0.0063
466.3782	0.0055
466.5796	0.0136
466.7809	0.022
466.9823	0.005
467.1836	0.011
467.3849	0.0137
467.5862	-0.0047
467.7875	0.0137
467.9887	0.0167
468.19	0.0104
468.3912	0.0057
468.5924	0.0185
468.7936	-0.0031
468.9948	0.01
469.196	0.0091
469.3972	0.0241
469.5983	0.0038
469.7994	0.0093
470.0006	0.0076
470.2017	0.0077
470.4027	0.002
470.6038	0.0042
470.8049	0.0057
471.0059	0.0092
471.2069	0.0145
471.408	0.0075
471.6089	0.0059
471.8099	0.0002
472.0109	0.0042
472.2119	0.0144
472.4128	0.0086
472.6137	0.0057
472.8146	0.009
473.0155	0.0053
473.2164	-0.0008
473.4173	0.0094
473.6181	0.0088
473.819	-0.0095
474.0198	0.003
474.2206	0.0091
474.4214	0.0173
474.6222	-0.0014
474.8229	0.0067
475.0237	0.0064
475.2244	0.0133
475.4251	0.0056
475.6258	0.0074
475.8265	-0.0033
476.0272	0.0049
476.2278	0.004
476.4285	0.0032
476.6291	0.0144
476.8297	-0.006
477.0303	0.0217
477.2309	0.0001
477.4315	0.0085
477.632	0.002
477.8326	-0.0031
478.0331	0.0023
478.2336	0.0115
478.4341	0.0047
478.6346	0.003
478.8351	0.0026
479.0355	0.0057
479.236	0.0001
479.4364	-0.0052
479.6368	0.0003
479.8372	0.0049
480.0376	-0.0038
480.2379	0.0073
480.4383	0.0005
480.6386	-0.0007
480.8389	0.0075
481.0392	0.0076
481.2395	0.0013
481.4398	0.0046
481.6401	0.0075
481.8403	-0.004
482.0405	-0.0058
482.2408	0.0016
482.441	-0.0027
482.6411	0.0001
482.8413	-0.0034
483.0415	0.005
483.2416	0.0058
483.4417	-0.0016
483.6419	-0.0011
483.8419	-0.0054
484.042	0.0022
484.2421	-0.003
484.4422	0.0067
484.6422	0.0061
484.8422	-0.0034
485.0422	0.0047
485.2422	0.0012
485.4422	0.0002
485.6422	-0.002
485.8421	0.0012
486.042	0.0055
486.242	0.0007
486.4419	0.0041
486.6417	-0.0027
486.8416	0.0029
487.0415	-0.0007
487.2413	0.0028
487.4411	-0.0007
487.641	0.0084
487.8408	0.009
488.0405	0.0021
488.2403	-0.0057
488.4401	-0.002
488.6398	0.009
488.8395	-0.0023
489.0392	0.0002
489.2389	0.002
489.4386	0.0013
489.6383	0.0018
489.8379	0.0017
490.0376	0.0085
490.2372	0.001
490.4368	0.0077
490.6364	0.007
490.836	-0.0012
491.0355	-0.0089
491.2351	0.0066
491.4346	0.0023
491.6341	0.0021
491.8336	-0.0025
492.0331	-0.0031
492.2326	-0.0029
492.432	0.0075
492.6315	-0.0108
492.8309	0.006
493.0303	-0.0071
493.2297	-0.0069
493.4291	-0.0034
493.6284	-0.0014
493.8278	0.0112
494.0271	0.0074
494.2264	-0.0063
494.4257	0.0029
494.625	-0.0064
494.8243	0.0091
495.0236	0.002
495.2228	-0.0008
495.422	0.0073
495.6213	-0.0007
495.8205	0.0018
496.0196	0.0057
496.2188	0.0021
496.418	0.0006
496.6171	0.0044
496.8162	0.003
497.0153	0.0014
497.2144	0.001
497.4135	0.0022
497.6126	-0.0094
497.8116	0.0028
498.0107	-0.0072
498.2097	0.0122
498.4087	0.0029
498.6077	0.0026
498.8067	0.0119
499.0056	-0.0069
499.2046	0.0027
499.4035	-0.0017
499.6024	-0.0108
499.8013	0.002
500.0002	0.0032
500.199	0.0073
500.3979	0.0128
500.5967	0.0009
500.7956	0.0048
500.9944	0.0043
501.1932	0.0051
501.3919	0.0066
501.5907	0.0022
501.7895	-0.0058
501.9882	-0.0012
502.1869	0.0065
502.3856	-0.0034
502.5843	0.0018
502.783	0.0029
502.9816	-0.0037
503.1803	0.0077
503.3789	0.007
503.5775	0.0076
503.7761	-0.0027
503.9747	-0.0006
504.1732	0.0007
504.3718	-0.0009
504.5703	-0.003
504.7689	-0.0027
504.9674	0.0013
505.1658	-0.0007
505.3643	0.003
505.5628	0.0031
505.7612	0.0042
505.9597	0.0012
506.1581	-0.0032
506.3565	-0.0107
506.5549	0.0071
506.7532	0.005
506.9516	0.0029
507.1499	0.0063
507.3482	0.0103
507.5465	-0.0057
507.7448	0.0004
507.9431	-0.0099
508.1414	-0.0015
508.3396	0.0019
508.5379	0.0041
508.7361	0.0034
508.9343	0.0024
509.1325	0.0081
509.3306	-0.0068
509.5288	0.0091
509.7269	-0.0004
509.9251	-0.0057
510.1232	-0.006
510.3213	-0.0042
510.5193	0.0076
510.7174	-0.0038
510.9154	0.0071
511.1135	0.0034
511.3115	-0.0001
511.5095	0.0105
511.7075	-0.0062
511.9055	0.0043
512.1034	0.008
512.3014	0.0039
512.4993	0.0039
512.6972	-0.0028
512.8951	-0.0036
513.093	0.0046
513.2908	0.009
513.4887	0.0057
513.6865	0.0016
513.8844	0.0081
514.0822	0.0029
514.2799	0.0035
514.4777	0.0049
514.6755	0.0044
514.8732	-0.0042
515.0709	0.0051
515.2687	0.0055
515.4664	-0.0118
515.664	0.0052
515.8617	0.0063
516.0594	0.0036
516.257	0.0116
516.4546	-0.0005
516.6522	0.0038
516.8498	0.0048
517.0474	-0.0008
517.2449	-0.0031
517.4425	0.0007
517.64	0.0074
517.8375	0.0115
518.035	0.002
518.2325	-0.0052
518.43	-0.0051
518.6274	-0.0047
518.8249	-0.0065
519.0223	0.0001
519.2197	0.0016
519.4171	0.0064
519.6145	0.0057
519.8118	0.0031
520.0092	-0.0031
520.2065	0.0034
520.4038	-0.0024
520.6011	0.0076
520.7984	-0.0007
520.9956	-0.0015
521.1929	-0.0035
521.3901	0.0052
521.5874	-0.0064
521.7846	0.0017
521.9818	-0.0074
522.1789	0.005
522.3761	0.0094
522.5732	-0.0054
522.7704	-0.0037
522.9675	-0.0092
523.1646	0.0122
523.3617	0.005
523.5587	-0.0019
523.7558	-0.0057
523.9528	0.0049
524.1498	0.0017
524.3468	-0.0074
524.5438	-0.0005
524.7408	-0.0057
524.9378	0.0043
525.1347	0.015
525.3316	0.0006
525.5285	-0.0038
525.7254	0.0051
525.9223	-0.0026
526.1192	-0.0011
526.316	0.0002
526.5129	0.0009
526.7097	-0.0027
526.9065	-0.0015
527.1033	0.0004
527.3	-0.0053
527.4968	0.0005
527.6935	-0.0015
527.8903	0.0123
528.087	0.0039
528.2837	-0.0035
528.4804	0.0066
528.677	0.0169
528.8737	-0.0044
529.0703	0.0019
529.2669	0.005
529.4635	0.0154
529.6601	0.0047
529.8567	0.0054
530.0532	-0.0033
530.2498	-0.0056
530.4463	-0
530.6428	0.0006
530.8393	0.0069
531.0358	0.0024
531.2322	0.0005
531.4287	-0.0039
531.6251	-0.0004
531.8215	0.0046
532.0179	-0.0082
532.2143	0.0206
532.4107	0.0115
532.607	0.0053
532.8034	0.0061
532.9997	0.0061
533.196	0.02
533.3923	-0.0024
533.5886	0.0077
533.7848	-0.0077
533.9811	-0.0071
534.1773	-0.0028
534.3735	0.0132
534.5697	-0.0048
534.7659	0.0006
534.9621	0.012
535.1582	-0.0055
535.3544	-0.003
535.5505	0.0055
535.7466	0.0048
535.9427	-0.0033
536.1387	0.0062
536.3348	0.0127
536.5308	0.008
536.7269	0.006
536.9229	0.0028
537.1189	0.0043
537.3148	-0.0135
537.5108	0.0068
537.7068	-0.0009
537.9027	0.009
538.0986	-0.0072
538.2945	0.0006
538.4904	0.0036
538.6863	0.0072
538.8821	-0.0008
539.078	-0.0053
539.2738	-0.0132
539.4696	0.0056
539.6654	0.008
539.8611	-0.0001
540.0569	-0.0065
540.2526	-0.0072
540.4484	-0.009
540.6441	0.0024
540.8398	-0.0029
541.0355	-0.0009
541.2311	0.0089
541.4268	-0.0063
541.6224	0.0087
541.818	-0.0089
542.0136	0.0011
542.2092	0.001
542.4048	0.0009
542.6003	-0.0042
542.7959	-0.0014
542.9914	-0.0081
543.1869	-0.0083
543.3824	0.0042
543.5779	0.001
543.7734	0.0028
543.9688	0.0071
544.1642	0.0069
544.3596	-0.002
544.555	0.002
544.7504	-0.0062
544.9458	0.0029
545.1411	0.0101
545.3365	0.0036
545.5318	0.0084
545.7271	0.0075
545.9224	0.0052
546.1177	0.0012
546.3129	-0.01
546.5081	-0.0087
546.7034	0.0023
546.8986	0.0041
547.0938	-0.0038
547.289	0.0003
547.4841	0.0016
547.6793	-0.0021
547.8744	0.007
548.0695	0.0002
548.2646	-0.0077
548.4597	-0.0063
548.6548	-0.005
548.8498	-0.0022
549.0448	0.0052
549.2399	0.0026
549.4349	0.009
549.6298	-0.0083
549.8248	-0.0014
550.0198	0.0152
550.2147	-0.0053
550.4096	0.0012
550.6045	0.0045
550.7994	0.0039
550.9943	0.0064
551.1892	-0.0065
551.384	0.006
551.5788	-0.0019
551.7737	-0.0059
551.9685	0.0091
552.1632	0.007
552.358	0.0054
552.5528	-0.004
552.7475	-0.0061
552.9422	0.003
553.1369	0.0023
553.3316	-0.0079
553.5263	-0.0092
553.7209	-0.0029
553.9156	0.0072
554.1102	0.008
554.3048	-0.0063
554.4994	0.0036
554.694	0.0023
554.8885	0.0045
555.0831	0.0128
555.2776	-0.0062
555.4721	-0.0131
555.6666	0.0098
555.8611	-0.0114
556.0555	-0.0004
556.25	0.0002
556.4444	0.0032
556.6388	0.0015
556.8332	-0.0041
557.0276	0.0131
557.222	0.0031
557.4163	0.0038
557.6107	-0.0012
557.805	-0.013
557.9993	-0.0086
558.1936	0.008
558.3879	-0.0112
558.5821	0.0034
558.7764	0.0181
558.9706	0.0042
559.1648	0.0012
559.359	0.0028
559.5532	-0.0094
559.7473	0.0093
559.9415	-0.0023
560.1356	0.0042
560.3297	0.0014
560.5238	-0.0008
560.7179	0.0002
560.9119	0.0037
561.106	-0.0021
561.3	-0.003
561.494	0.0049
561.688	0.0025
561.882	-0.004
562.076	0.0074
562.2699	0.0061
562.4639	-0.0007
562.6578	0.0039
562.8517	-0.0041
563.0456	-0.006
563.2395	0.0073
563.4333	-0.0013
563.6272	0.0047
563.821	0.0087
564.0148	-0.0104
564.2086	-0.0017
564.4024	-0.0092
564.5961	-0.0009
564.7899	0.0078
564.9836	-0.0013
565.1773	0.001
565.371	-0.0039
565.5647	-0.0101
565.7584	0.002
565.952	-0.0033
566.1456	0.0034
566.3393	0.0153
566.5329	0.0005
566.7264	0.0009
566.92	-0.0017
567.1136	0.0076
567.3071	-0.0017
567.5006	0.0019
567.6941	0.0111
567.8876	0.0014
568.0811	-0.0084
568.2745	-0.0031
568.468	0.0028
568.6614	-0.0018
568.8548	-0.0022
569.0482	0.0069
569.2416	-0.0046
569.4349	0.0019
569.6283	0.0035
569.8216	0.001
570.0149	-0.0037
570.2082	-0.0057
570.4015	0.0033
570.5947	-0.0011
570.788	-0.0049
570.9812	-0.0018
571.1744	-0.0041
571.3676	-0.0018
571.5608	-0.0054
571.754	-0.0058
571.9471	0.0066
572.1402	-0.0022
572.3333	-0.0029
572.5264	0.0027
572.7195	0.0042
572.9126	0.0014
573.1057	-0.0024
573.2987	0.0017
573.4917	-0.0013
573.6847	0.0004
573.8777	0.0016
574.0707	-0.0005
574.2636	0.0024
574.4566	0.004
574.6495	0.0037
574.8424	0.0021
575.0353	-0.001
575.2281	0.0011
575.421	-0.0029
575.6138	0.0013
575.8067	0.0006
575.9995	0.0029
576.1923	0.0037
576.385	-0.005
576.5778	-0.0023
576.7706	0.005
576.9633	0.0012
577.156	-0.0018
577.3487	0.0005
577.5414	-0.0016
577.734	-0.0015
577.9267	-0.0009
578.1193	0.0012
578.3119	-0.005
578.5045	-0.0046
578.6971	-0.0022
578.8897	0.0014
579.0822	-0.0006
579.2747	-0.0075
579.4673	-0.0033
579.6598	0.0008
579.8522	0.0049
580.0447	0
580.2372	0.0046
580.4296	0.0001
580.622	0.0029
580.8144	0.002
581.0068	0.0007
581.1992	0.0003
581.3915	-0.0013
581.5839	0.0056
581.7762	0.0023
581.9685	0.0015
582.1608	0.0018
582.353	-0.0049
582.5453	0.0014
582.7375	0.0026
582.9298	-0.0025
583.122	-0.0034
583.3142	0.0046
583.5063	-0.0014
583.6985	-0.0011
583.8906	-0.0045
584.0827	0.0008
584.2749	0.0001
584.4669	0.0005
584.659	0.0031
584.8511	0.0003
585.0431	-0.0004
585.2352	-0.0039
585.4272	-0.0014
585.6192	0.0002
585.8111	-0.0041
586.0031	-0.0006
586.195	-0.0023
586.387	-0
586.5789	-0.0021
586.7708	-0.0044
586.9627	0.0047
587.1545	0.0032
587.3464	-0.0026
587.5382	0.0032
587.73	0.0015
587.9218	-0.0038
588.1136	0.001
588.3053	-0.0019
588.4971	0.0031
588.6888	-0.0008
588.8805	0.0099
589.0722	-0.0024
589.2639	0.0031
589.4556	-0.0025
589.6472	0.0034
589.8389	0.0015
590.0305	0.0013
590.2221	0.0045
590.4137	-0.0005
590.6052	0.001
590.7968	0.0079
590.9883	0.006
591.1798	-0.0068
591.3713	0.0025
591.5628	0.0004
591.7543	0
591.9458	0.0001
592.1372	0.0032
592.3286	-0.0043
592.52	-0.0031
592.7114	-0.0032
592.9028	-0.0044
593.0941	-0.0047
593.2855	0.0055
593.4768	-0
593.6681	-0.001
593.8594	-0.0009
594.0506	0.0025
594.2419	-0.0034
594.4331	-0.0018
594.6244	0.0028
594.8156	-0.0038
595.0067	0.0033
595.1979	-0.0096
595.3891	-0.0096
595.5802	-0.0054
595.7713	0.0051
595.9624	-0.0011
596.1535	-0.0042
596.3446	0.0036
596.5357	0.0044
596.7267	-0.004
596.9177	0.0052
597.1087	-0.0026
597.2997	0.0023
597.4907	-0.0025
597.6817	-0.0039
597.8726	0.0038
598.0635	0.0096
598.2544	-0.0031
598.4453	0.0015
598.6362	-0.0029
598.827	0.0004
599.0179	0.0009
599.2087	-0.003
599.3995	0.0017
599.5903	0.0012
599.7811	0.0023
599.9718	0.0014
600.1626	-0.0004
600.3533	0.0002
600.544	0.0003
600.7347	0.0015
600.9254	0.0016
601.116	-0.0046
601.3067	0.0024
601.4973	0.0069
601.6879	-0.0016
601.8785	-0.0026
602.0691	-0.002
602.2596	0.0033
602.4502	-0
602.6407	0.0059
602.8312	0.0056
603.0217	0.0055
603.2122	0.0018
603.4027	-0.0063
603.5931	0.0017
603.7835	0.0001
603.9739	0.0022
604.1643	0.0047
604.3547	0.0054
604.5451	0.0029
604.7354	-0.0005
604.9257	-0.0057
605.116	-0.0024
605.3063	-0.0004
605.4966	0.0017
605.6869	-0.0026
605.8771	-0.001
606.0673	-0.0028
606.2575	-0.0037
606.4477	0.0039
606.6379	-0.0036
606.8281	-0.0102
607.0182	-0.0036
607.2083	-0.0024
607.3985	0.0009
607.5885	-0.0016
607.7786	0.0075
607.9687	-0.0048
608.1587	0.0062
608.3488	-0.0045
608.5388	0.0054
608.7288	-0.003
608.9187	0.0032
609.1087	-0.0035
609.2986	-0.0021
609.4886	0.0036
609.6785	-0.0023
609.8684	-0.003
610.0582	0.0062
610.2481	-0.0027
610.4379	0.0015
610.6278	-0.0087
610.8176	-0.0064
611.0074	-0.0033
611.1971	0.0069
611.3869	0.0015
611.5766	0.0004
611.7664	0.0093
611.9561	0.0003
612.1458	0.0017
612.3354	0.003
612.5251	-0.0002
612.7147	0.003
612.9044	-0.009
613.094	0.004
613.2836	-0.0057
613.4731	0.0008
613.6627	0.0089
613.8522	-0.0097
614.0417	0.0007
614.2313	-0.0024
614.4207	0.0045
614.6102	-0.0012
614.7997	-0.0061
614.9891	-0.0039
615.1785	0.0028
615.3679	0.0009
615.5573	-0.0087
615.7467	-0.0044
615.9361	-0.0026
616.1254	0.0017
616.3147	-0.0038
616.504	-0.0091
616.6933	0.0025
616.8826	0.0029
617.0718	-0.0056
617.2611	-0.0053
617.4503	0.0011
617.6395	-0.0014
617.8287	-0.0022
618.0179	-0.0068
618.207	0.0035
618.3961	0.0016
618.5853	0.003
618.7744	0.0052
618.9634	-0.0011
619.1525	-0.0044
619.3416	0.0014
619.5306	-0.0012
619.7196	-0.0081
619.9086	0.0108
620.0976	0.006
620.2866	0.0055
620.4755	0.0088
620.6645	-0.0027
620.8534	-0.0044
621.0423	-0.0112
621.2312	-0.0073
621.42	-0.0142
621.6089	0.0011
621.7977	0.0014
621.9865	0.0059
622.1753	0.004
622.3641	0.0021
622.5529	-0.0047
622.7416	-0.0124
622.9303	-0.0088
623.1191	0.0003
623.3078	-0.0097
623.4964	-0.0089
623.6851	0.0055
623.8737	-0.0012
624.0624	-0.0024
624.251	-0.0043
624.4396	-0.0026
624.6282	0.0082
624.8167	0.0092
625.0053	0.0053
625.1938	-0.0046
625.3823	-0.0094
625.5708	-0.0073
625.7593	-0.0123
625.9477	-0.0119
626.1362	-0.011
626.3246	0.0038
626.513	0.0019
626.7014	-0.0102
626.8898	0.0021
627.0781	0.0057
627.2665	0.0146
627.4548	0.0025
627.6431	-0.0154
627.8314	-0.0003
628.0197	0.0014
628.2079	-0.0051
628.3962	-0.0018
628.5844	0.0027
628.7726	-0.0135
628.9608	-0.0036
629.1489	-0
629.3371	-0.0014
629.5252	0.0118
629.7134	0.0089
629.9015	-0.0103
630.0895	0.0041
630.2776	-0.0064
630.4657	0.0051
630.6537	0.0005
630.8417	-0.0216
631.0297	-0.0087
631.2177	-0.0023
631.4057	-0.0014
631.5936	-0.0084
631.7815	-0.0078
631.9695	0.0148
632.1574	-0.0064
632.3452	0.0021
632.5331	-0
632.7209	0.0173
632.9088	-0.0084
633.0966	0.004
633.2844	-0.0192
633.4722	-0.0044
633.6599	-0.0274
633.8477	0.01
634.0354	0.0064
634.2231	0.0248
634.4108	-0.0004
634.5985	-0.0007
634.7861	-0.0025
634.9738	0.003
635.1614	0.0093
635.349	-0.0145
635.5366	0.0009
635.7242	-0.0041
635.9117	0.0015
636.0993	-0.0104
636.2868	-0.0041
636.4743	0.0211
636.6618	-0.0062
636.8492	-0.0009
637.0367	-0.0032
637.2241	0.0159
637.4115	0.0062
637.5989	0.0075
637.7863	-0.0009
637.9737	0.0001
638.161	-0.0044
638.3484	-0.002
638.5357	-0.0076
638.723	-0.0039
638.9103	0.0053
639.0975	0.007
639.2848	0.0124
639.472	0.0047
639.6592	0.0054
639.8464	0.0097
640.0336	0.0019
640.2208	-0.0251
640.4079	0.0036
640.595	0.0024
640.7821	0.0079
640.9692	-0.0039
641.1563	0.0008
641.3434	-0.0034
641.5304	0.0038
641.7174	0.0035
641.9044	-0.0021
642.0914	-0.0163
642.2784	0.014
642.4653	-0.0057
642.6523	0.0035
642.8392	0.0177
643.0261	0.007
643.213	0.0113
643.3999	-0.0114
643.5867	0.0018
643.7735	0.0038
643.9604	0.0026
644.1472	-0.0262
644.3339	-0.0102
644.5207	-0.0146
644.7075	0.0143
644.8942	0.006
645.0809	-0.0112
645.2676	-0.0147
645.4543	0.0196
645.6409	-0.0112
645.8276	-0.0218
646.0142	0.0068
646.2008	0.009
646.3874	0.0095
646.574	-0.0282
646.7605	-0.0155
646.9471	0.0066
647.1336	-0.0061
647.3201	0.021
647.5066	-0.006
647.6931	0.0002
647.8795	0.014
648.0659	-0.0152
648.2524	-0.0112
648.4388	-0.0113
648.6252	-0.016
648.8115	0.0106
648.9979	-0.0126
649.1842	-0.0113
649.3705	0.0088
649.5568	-0.0107
649.7431	-0.0189
649.9294	-0.0021
650.1156	-0.0067
650.3018	0.0096
650.488	0.0082
650.6742	0.0145
650.8604	0.0056
651.0466	0.0116
651.2327	0.0064
651.4188	-0.0168
651.6049	-0.0057
651.791	0.0133
651.9771	-0.0043
652.1632	0.0185
652.3492	-0.0059
652.5352	0.0025
652.7212	-0.0005
652.9072	-0.0094
653.0932	0.0118
653.2791	-0.0065
653.465	-0.0007
653.651	0.0143
653.8369	0.0111
654.0227	-0.0033
654.2086	-0.0129
654.3944	-0.0231
654.5803	0.0151
654.7661	0.0033
654.9519	-0.0015
655.1377	0.0002
655.3234	0.0002
655.5092	0.0002
655.6949	0.0002
655.8806	0.0002
656.0663	0.0002
656.2519	0.0002
656.4376	0.0002
656.6232	0.0002
656.8088	0.0002
656.9945	0.0002
657.18	0.0002
657.3656	0.0002
657.5511	0.0002
657.7367	0.0002
657.9222	0.0002
658.1077	0.0002
658.2932	0.0002
658.4786	0.0002
658.6641	0.0002
658.8495	0.0002
659.0349	0.0002
659.2203	0.0002
659.4057	0.0064
659.591	0.0619
659.7764	-0.0022
659.9617	0.0034
660.147	-0.0072
660.3323	-0.0033
660.5176	0.0008
660.7028	-0.01
660.888	0.0102
661.0733	-0.0022
661.2585	-0.0034
661.4436	0.0146
661.6288	0.0156
661.8139	-0.002
661.9991	0.0165
662.1842	0.0048
662.3693	0.0027
662.5544	0.0035
662.7394	0.0248
662.9245	0.0136
663.1095	0.0117
663.2945	0.0039
663.4795	-0.0001
663.6644	-0.0032
663.8494	0.009
664.0343	-0.028
664.2193	-0.0025
664.4042	-0.02
664.589	-0.0145
664.7739	-0.0059
664.9587	-0.0098
665.1436	-0.011
665.3284	-0.0123
665.5132	0.0187
665.698	0.0068
665.8827	-0.0104
666.0675	-0.0123
666.2522	0.0261
666.4369	-0.0111
666.6216	-0.0121
666.8063	-0.0144
666.9909	-0.0123
667.1756	-0.0049
667.3602	-0.0166
667.5448	-0.0004
667.7294	0.0073
667.9139	0.0114
668.0985	-0.0148
668.283	-0.0059
668.4675	0.0071
668.652	-0.0188
668.8365	-0.0235
669.0209	-0.0237
669.2054	0.0048
669.3898	-0.0103
669.5742	-0.0019
669.7586	0.0154
669.943	-0.0147
670.1273	-0.0054
670.3117	0.0018
670.496	-0.0055
670.6803	0.0002
670.8646	-0.0124
671.0488	-0.0168
671.2331	0.0019
671.4173	-0.001
671.6015	-0.0125
671.7857	-0.0159
671.9699	-0.0064
672.1541	-0.0083
672.3382	0.009
672.5223	-0
672.7064	-0.01
672.8905	0.0145
673.0746	0.0015
673.2587	0.0125
673.4427	-0.0184
673.6267	-0.0173
673.8107	-0.0048
673.9947	0.0027
674.1787	-0.0071
674.3626	0.0055
674.5465	-0.0117
674.7304	-0.0262
674.9143	0.0092
675.0982	0.0056
675.2821	0.004
675.4659	-0.0025
675.6497	0.0131
675.8335	-0.0037
676.0173	-0.0098
676.2011	-0.0245
676.3849	-0.013
676.5686	-0.0114
676.7523	0.0026
676.936	-0.0259
677.1197	0.0103
677.3034	0.0104
677.487	0.003
677.6706	-0.0051
677.8542	0.0132
678.0378	0.0168
678.2214	-0.0045
678.405	0.0119
678.5885	0.0011
678.772	-0.0084
678.9555	0.018
679.139	-0.007
679.3225	-0.0075
679.5059	-0.0095
679.6894	-0.0141
679.8728	-0.018
680.0562	-0.0007
680.2395	-0.0093
680.4229	-0.017
680.6062	0.004
680.7896	-0.0079
680.9729	-0.0056
681.1562	-0.0234
681.3394	-0.006
681.5227	-0.0275
681.7059	-0.0135
681.8891	0.0098
682.0723	-0.0257
682.2555	0.0229
682.4387	-0.0095
682.6218	-0.0205
682.805	0.0035
682.9881	-0.0004
683.1712	0.0153
683.3542	-0.0009
683.5373	0.0015
683.7203	0.0036
683.9034	-0.0061
684.0864	-0.0042
684.2694	0.0078
684.4523	-0.0082
684.6353	-0.0004
684.8182	0.0036
685.0011	0.0013
685.184	-0.0005
685.3669	0.0135
685.5498	-0.008
685.7326	0.0085
685.9154	0.0052
686.0982	0.0114
686.281	0.0024
686.4638	0.0023
686.6465	0.0016
686.8293	-0.0019
687.012	0.0004
687.1947	0.0014
687.3774	0.0024
687.56	0.0077
687.7427	0.0029
687.9253	0.0251
688.1079	0.0109
688.2905	0.0033
688.4731	0.028
688.6556	-0.0087
688.8382	0.0102
689.0207	-0.0069
689.2032	-0.027
689.3857	-0.01
689.5681	-0.0055
689.7506	-0.0063
689.933	-0.0054
690.1154	-0.0285
690.2978	-0.0021
690.4802	-0.0028
690.6626	0.0045
690.8449	-0.024
691.0272	-0.0115
691.2095	-0.0105
691.3918	-0.01
691.5741	0.0107
691.7563	0.0126
691.9386	0.0009
692.1208	-0.0069
692.303	0.0097
692.4852	0.0172
692.6673	-0.0222
692.8495	-0.0021
693.0316	-0.0071
693.2137	0.0259
693.3958	0.0131
693.5778	-0.0146
693.7599	-0.0348
693.9419	-0.0008
694.1239	-0.0055
694.3059	-0.0231
694.4879	-0.037
694.6699	0.0042
694.8518	0.0102
695.0337	-0.0102
695.2157	0.0068
695.3975	0.0025
695.5794	-0.024
695.7613	-0.0036
695.9431	-0.0049
696.1249	-0.0102
696.3067	0.001
696.4885	-0.0086
696.6703	0.0061
696.852	-0.0174
697.0337	-0.0041
697.2154	0.0016
697.3971	0.0267
697.5788	0.0422
697.7605	0.0002
697.9421	-0.0006
698.1237	0.0165
698.3053	-0.0142
698.4869	-0.0006
698.6685	-0.003
698.85	-0.0027
699.0315	0.0075
699.213	0.0177
699.3945	0.0166
699.576	-0.0224
699.7575	-0.0159
699.9389	-0.0048
700.1203	0.0343
700.3017	-0.0039
700.4831	-0.01
700.6645	-0.0053
700.8458	0.0133
701.0271	0.0032
701.2084	-0.016
701.3897	0.0007
701.571	0.0105
701.7523	-0.0171
701.9335	0.0248
702.1147	0.013
702.2959	0.0208
702.4771	-0.0001
702.6583	-0.002
702.8394	0.0049
703.0205	0.0049
703.2016	-0.0182
703.3827	0.0014
703.5638	0.0065
703.7449	-0.0089
703.9259	0.0033
704.1069	0.0137
704.2879	0.0086
704.4689	0.0209
704.6499	-0.0274
704.8308	-0.0284
705.0117	-0.0614
705.1927	0.0086
705.3735	0.0447
705.5544	0.0367
705.7353	-0.0103
705.9161	0.0335
706.0969	0.0008
706.2777	-0.0049
706.4585	0.0053
706.6393	0.0033
706.82	-0.0058
707.0007	-0.0057
707.1815	0.0145
707.3621	-0.0044
707.5428	0.0272
707.7235	0.0191
707.9041	-0.0036
708.0847	-0.017
708.2653	-0.0081
708.4459	-0.0055
708.6265	-0.0221
708.807	0.0305
708.9875	0.0164
709.168	0.0006
709.3485	-0.0082
709.529	0.0373
709.7095	-0.0084
709.8899	0.0076
710.0703	-0.0036
710.2507	0.0061
710.4311	0.0255
710.6115	-0.0275
710.7918	0.0013
710.9721	0.0014
711.1524	0.0112
711.3327	-0.0284
711.513	-0.011
711.6932	-0.0333
711.8735	0.0007
712.0537	-0.0078
712.2339	-0.0111
712.4141	-0.0166
712.5942	0.0154
712.7744	-0.0093
712.9545	0.0099
713.1346	0.0171
713.3147	0.0051
713.4947	-0.0196
713.6748	-0.0093
713.8548	0.0002
714.0348	0.0154
714.2148	-0.0091
714.3948	0.0259
714.5748	0.0052
714.7547	0.0125
714.9346	0.0062
715.1145	0.0248
715.2944	-0.0054
715.4743	-0.0125
715.6541	-0.0301
715.834	-0.0033
716.0138	-0.0087
716.1936	0.0104
716.3733	-0.0146
716.5531	0.0157
716.7328	-0.0438
716.9126	-0.0134
717.0923	0.0135
717.2719	-0.0053
717.4516	-0.0106
717.6312	-0.0448
717.8109	0.0093
717.9905	-0.0112
718.1701	-0.0162
718.3496	0.0091
718.5292	-0.015
718.7087	0.0195
718.8882	0.011
719.0677	-0.0255
719.2472	0.0137
719.4267	-0.0079
719.6061	0.0076
719.7856	0.0095
719.965	0.0053
720.1443	-0.0199
720.3237	0.021
720.5031	0.0203
720.6824	-0.0051
720.8617	0.0014
721.041	-0.0135
721.2203	-0.0044
721.3995	-0.008
721.5788	-0.0129
721.758	-0.0109
721.9372	-0.0106
722.1164	0.0345
722.2956	0.0016
722.4747	0.03
722.6538	0.0065
722.8329	-0.0157
723.012	0.0119
723.1911	-0.0026
723.3702	-0.0161
723.5492	-0.0128
723.7282	0.0068
723.9072	-0.0239
724.0862	-0.029
724.2652	-0.0197
724.4441	0.0065
724.623	-0.0268
724.8019	-0.0066
724.9808	-0.0015
725.1597	-0.0008
725.3385	0.0156
725.5174	0.0311
725.6962	0.0097
725.875	0.0033
726.0538	0.0046
726.2325	-0.0065
726.4112	-0.0043
726.59	0.0022
726.7687	0.01
726.9474	-0.0318
727.126	-0.0198
727.3047	0.0062
727.4833	0.0083
727.6619	0.0129
727.8405	0.0058
728.0191	-0.0456
728.1976	-0.0302
728.3762	-0.0125
728.5547	-0.0263
728.7332	0.0167
728.9116	-0.034
729.0901	0.01
729.2686	-0.0217
729.447	-0.0343
729.6254	0.0047
729.8038	0.0032
729.9821	0.0174
730.1605	-0.0048
730.3388	0.0049
730.5171	-0.0102
730.6954	0.0112
730.8737	0.015
731.0519	-0.0103
731.2302	-0.0064
731.4084	0.0076
731.5866	-0.0193
731.7648	-0.0121
731.9429	-0.0004
732.1211	-0.0127
732.2992	-0.0121
732.4773	-0.0196
732.6554	-0.0117
732.8335	-0.0077
733.0115	-0.0152
733.1896	-0.0098
733.3676	-0.0096
733.5456	0.0081
733.7235	0.0071
733.9015	0.0052
734.0794	-0.0111
734.2574	0.0087
734.4353	-0.0009
734.6131	0.0067
734.791	0.0134
734.9689	0.0126
735.1467	0.0016
735.3245	-0.0097
735.5023	0.0167
735.68	-0.0056
735.8578	-0.0106
736.0355	0.0079
736.2132	0.0032
736.3909	-0.0162
736.5686	-0.0012
736.7463	-0.0317
736.9239	0.0152
737.1015	-0.0129
737.2791	-0.0141
737.4567	-0.0205
737.6343	-0.0015
737.8118	0.0195
737.9894	-0.0199
738.1669	0.0219
738.3444	-0.0068
738.5218	0.0238
738.6993	-0.0112
738.8767	0.0144
739.0541	0.0155
739.2315	-0.0068
739.4089	0.0011
739.5863	0.0176
739.7636	0.0228
739.9409	0.0047
740.1182	-0.0032
740.2955	-0.041
740.4728	0.029
740.65	-0.0271
740.8272	-0.0425
741.0044	-0.0151
741.1816	0.028
741.3588	0.0102
741.5359	-0.0127
741.7131	0.0539
741.8902	-0.0364
742.0673	-0.0093
742.2444	0.009
742.4214	-0.0005
742.5985	0.0099
742.7755	-0.0015
742.9525	0.0081
743.1295	-0.0144
743.3064	-0.011
743.4834	0.006
743.6603	0.0071
743.8372	-0.0229
744.0141	0.02
744.191	0.0073
744.3678	0.0202
744.5446	-0.0183
744.7215	0.0064
744.8982	0.0178
745.075	-0.0044
745.2518	-0.003
745.4285	0.0055
745.6052	0.0094
745.7819	-0.0025
745.9586	0.0136
746.1353	-0.028
746.3119	0.0078
746.4885	-0.0126
746.6651	-0.0447
746.8417	-0.0172
747.0183	-0.0053
747.1948	-0.0117
747.3714	0.0066
747.5479	0.0268
747.7244	-0.0484
747.9008	0.041
748.0773	-0.0062
748.2537	0.0221
748.4301	0.0224
748.6065	-0.0194
748.7829	-0.0045
748.9593	0.0092
749.1356	-0.0001
749.3119	-0.0137
749.4882	-0.0038
749.6645	0.0045
749.8408	-0.0159
750.017	-0.0182
750.1933	0.0091
750.3695	0.0359
750.5457	-0.0301
750.7218	0.0009
750.898	-0.0243
751.0741	-0.0061
751.2502	0.0136
751.4263	-0.0046
751.6024	0.0141
751.7784	-0.041
751.9545	-0.0595
752.1305	0.0034
752.3065	0.0167
752.4825	-0.0166
752.6584	-0.0009
752.8344	-0.0019
753.0103	0.0025
753.1862	-0.0196
753.3621	-0.0134
753.5379	-0.0301
753.7138	-0.0263
753.8896	0.0259
754.0654	-0.0067
754.2412	0.0181
754.417	-0.0093
754.5927	0.0092
754.7685	-0.0219
754.9442	-0.023
755.1199	-0.0115
755.2956	0.0178
755.4712	-0.0185
755.6469	-0.0033
755.8225	-0.0068
755.9981	0.0071
756.1736	0.015
756.3492	-0.0106
756.5248	-0.0071
756.7003	0.0022
756.8758	-0.0025
757.0513	-0.0152
757.2267	-0.0143
757.4022	-0.0204
757.5776	-0.0254
757.753	-0.0087
757.9284	0.0101
758.1038	-0.01
758.2791	-0.0035
758.4545	-0.0117
758.6298	-0.0026
758.8051	-0.0167
758.9803	-0.0205
759.1556	-0.0067
759.3308	-0.01
759.506	0.0135
759.6812	-0.01
759.8564	-0.0049
760.0316	-0.0141
760.2067	-0.0188
760.3819	-0.0086
760.557	-0.0075
760.732	0.0122
760.9071	0.0087
761.0821	0.0107
761.2572	0.0059
761.4322	-0.011
761.6072	-0.0197
761.7821	0.0239
761.9571	0.009
762.132	-0.004
762.3069	-0.0334
762.4818	-0.0102
762.6567	0.0189
762.8316	0.0043
763.0064	-0.0274
763.1812	-0.0266
763.356	0.0037
763.5308	-0.0146
763.7055	-0.0007
763.8803	-0.0078
764.055	-0.0171
764.2297	0.0009
764.4044	0.0065
764.579	-0.0164
764.7537	-0.0061
764.9283	-0.0362
765.1029	-0.0016
765.2775	-0.0123
765.4521	0.0246
765.6266	-0.0086
765.8011	-0.0161
765.9756	0.0122
766.1501	0.0267
766.3246	-0.0086
766.4991	-0.0239
766.6735	0.0623
766.8479	-0.042
767.0223	0.0224
767.1967	-0.0232
767.371	-0.0023
767.5454	0.0013
767.7197	0.0025
767.894	-0.0043
768.0683	0.0022
768.2425	0.005
768.4168	0.0255
768.591	0.0214
768.7652	-0.0072
768.9394	-0.0083
769.1135	-0.0084
769.2877	0.0181
769.4618	0.0174
769.6359	0.0055
769.81	0.0209
769.984	0.0007
770.1581	0.0188
770.3321	-0.0054
770.5061	-0.0018
770.6801	-0.0011
770.8541	-0.0216
771.028	-0.0393
771.202	-0.0336
771.3759	0.0027
771.5498	0.0048
771.7236	-0.0029
771.8975	-0.0456
772.0713	-0.002
772.2451	-0.005
772.4189	0.0157
772.5927	-0.0155
772.7665	0.0069
772.9402	0.0286
773.1139	0.0106
773.2876	-0.0232
773.4613	0.0178
773.635	-0.013
773.8086	-0.0114
773.9822	-0.0163
774.1558	-0.0109
774.3294	-0.0127
774.503	0.0419
774.6765	0.0345
774.8501	0.014
775.0236	0.0285
775.1971	-0.0306
775.3705	0.0071
775.544	0.0042
775.7174	-0.0197
775.8908	0.0277
776.0642	0.0206
776.2376	-0.008
776.4109	0.0501
776.5843	-0.0238
776.7576	0.0218
776.9309	0.0522
777.1041	0.0106
777.2774	-0.0371
777.4506	0.0033
777.6238	0.0163
777.797	-0.0179
777.9702	-0.0052
778.1434	0.0005
778.3165	-0.0285
778.4896	0.0082
778.6627	0.0458
778.8358	-0.0165
779.0089	0.004
779.1819	-0.0092
779.3549	0.0395
779.5279	0.0011
779.7009	-0.0506
779.8739	-0.03
780.0468	0.0241
780.2197	0.0071
780.3926	0.0167
780.5655	-0.0069
780.7384	0.0109
780.9112	0.0073
781.0841	-0.0162
781.2569	0.0134
781.4297	0.0186
781.6024	-0.003
781.7752	-0.0332
781.9479	-0.0079
782.1206	0.015
782.2933	0.0033
782.466	0.0039
782.6386	-0.0024
782.8113	-0.0184
782.9839	-0.0047
783.1565	0.0028
783.329	-0.0041
783.5016	0.0133
783.6741	-0.0232
783.8466	-0.0466
784.0191	-0.02
784.1916	0.0014
784.3641	0.017
784.5365	0.014
784.7089	0.0297
784.8813	0.0072
785.0537	-0.0251
785.2261	-0.0033
785.3984	-0.0111
785.5707	0.0306
785.743	-0.0345
785.9153	0.0068
786.0876	-0.0666
786.2598	-0.0248
786.432	-0.0386
786.6042	0.0341
786.7764	-0.0149
786.9486	0.0155
787.1207	0.0102
787.2928	0.0061
787.4649	0.0095
787.637	-0.0007
787.8091	-0.0351
787.9811	0.0045
788.1532	0.021
788.3252	-0.0188
788.4972	-0.0174
788.6691	0.0443
788.8411	0.0207
789.013	-0.008
789.1849	-0.0229
789.3568	0.0133
789.5287	-0.0467
789.7005	0.0193
789.8723	-0.0766
790.0442	-0.0582
790.2159	0.0379
790.3877	0.0561
790.5595	-0.0106
790.7312	-0.0199
790.9029	0.0048
791.0746	0.0217
791.2463	-0.0111
791.4179	-0.0672
791.5896	-0.0176
791.7612	-0.022
791.9328	-0.0105
792.1044	-0.0208
792.2759	0.0542
792.4474	-0.008
792.619	0.0156
792.7905	0.0481
792.9619	0.0601
793.1334	-0.0599
793.3048	-0.015
793.4762	-0.0579
793.6476	-0.0084
793.819	-0.0307
793.9904	0.0063
794.1617	-0.0044
794.333	0.0203
794.5043	0.0055
794.6756	0.043
794.8469	-0.0008
795.0181	0.0005
795.1893	-0.0206
795.3605	-0.0529
795.5317	0.0391
795.7029	0.0575
795.874	0.0302
796.0452	-0.0249
796.2163	0.0259
796.3873	0.0883
796.5584	-0.0067
796.7294	-0.062
796.9005	-0.0039
797.0715	0.016
797.2425	0.0082
797.4134	-0.0309
797.5844	0.0659
797.7553	-0.0148
797.9262	-0.0133
798.0971	-0.0325
798.2679	0.0244
798.4388	-0.0267
798.6096	-0.022
798.7804	0.0543
798.9512	0.0242
799.122	0.016
799.2927	0.0174
799.4635	0.0603
799.6342	0.0358
799.8049	0.0961
799.9755	0.0828
800.1462	0.0317
800.3168	-0.0077
800.4874	0.0829
800.658	0.1095
800.8286	-0.0189
800.9991	0.1094
801.1696	0.0087
801.3402	-0.0807
801.5106	-0.0706
801.6811	-0.0613
801.8516	-0.0024
802.022	-0.0525
802.1924	0.1474
802.3628	-0.0657
802.5332	0.0095
802.7035	-0.0025
802.8739	0.0478
803.0442	-0.0242
803.2145	-0.0095
803.3847	-0.0698
803.555	0.0145
803.7252	-0.0004
803.8954	0.1046
804.0656	0.0042
804.2358	0.0746
804.4059	0.0228
804.5761	0.0594
804.7462	-0.0005
804.9163	-0.0714
805.0864	-0.0366
805.2564	0.0126
805.4264	-0.0247
805.5965	0.0303
805.7665	0.0415
805.9364	-0.0287
806.1064	-0.0542
806.2763	0.0521
806.4462	0.0197
806.6161	-0.0068
806.786	0.01
806.9559	0.017
807.1257	0.0182
807.2955	-0.0003
807.4653	-0.0825
807.6351	-0.0339
807.8048	-0.0479
807.9746	0.0298
808.1443	0.0327
808.314	0.0398
808.4837	-0.0484
808.6533	0.007
808.8229	-0.0718
808.9926	-0.0019
809.1622	0.0022
809.3317	-0.037
809.5013	0.02
809.6708	0.0425
809.8403	0.0777
810.0098	0.0255
810.1793	0.0247
810.3488	-0.0037
810.5182	-0.0827
810.6876	0.0034
810.857	-0.0422
811.0264	-0.1457
811.1958	0.0124
811.3651	-0.0108
811.5344	-0.0841
811.7037	-0.0062
811.873	0.0335
812.0422	0.0137
812.2115	0.0807
812.3807	0.0214
812.5499	0.0463
812.7191	-0.0358
812.8882	0.0912
813.0574	-0.1432
813.2265	0.0052
813.3956	0.1172
813.5646	0.0169
813.7337	-0.0352
813.9027	-0.0687
814.0718	-0.0143
814.2407	-0.093
814.4097	-0.002
814.5787	0.0207
814.7476	0.0523
814.9165	0.0109
815.0854	0.0066
815.2543	-0.0078
815.4232	-0.1004
815.592	0.0634
815.7608	0.0021
815.9296	0.0048
816.0984	0.1596
816.2671	0.085
816.4359	0.049
816.6046	0.0979
816.7733	-0.0932
816.942	0.0278
817.1106	-0.1418
817.2793	-0.0962
817.4479	-0.0871
817.6165	0.0059
817.785	0.0411
817.9536	0.0555
818.1221	0.1607
818.2906	0.1113
818.4591	-0.0221
818.6276	0.03
818.7961	0.005
818.9645	0.1398
819.1329	0.2434
819.3013	0.0592
819.4697	0.8406
819.638	0.0785
819.8064	-0.0052
819.9747	-0.001
820.143	0.3301
820.3113	0.0635
820.4795	0.1544
820.6477	0.1226
820.816	0.0539
820.9842	-0.0483
821.1523	0.116
821.3205	0.0295
821.4886	-0.0537
821.6567	0.0772
821.8248	-0.0133
821.9929	0.0305
822.1609	0.1111
822.329	0.0909
822.497	-0.0724
822.665	0.1717
822.833	-0.0671
823.0009	-0.13
823.1688	0.0963
823.3367	-0.1561
823.5046	0.1548
823.6725	0.0335
823.8404	0.0642
824.0082	-0.04
824.176	-0.0242
824.3438	0.3566
824.5116	0.2499
824.6793	0.0209
824.847	0.226
825.0147	0.0654
825.1824	0.0653
825.3501	0.0759
825.5177	0.2714
825.6854	0.0052
825.853	-0.0385
826.0206	-0.0183
826.1881	0.059
826.3557	0.0788
826.5232	0.1169
826.6907	0.0673
826.8582	0.0739
827.0257	-0.0479
827.1931	0.0314
827.3605	-0.0404
827.528	0.0173
827.6953	0.0449
827.8627	-0.0781
828.03	-0.0754
828.1974	-0.1667
828.3647	0.1416
828.532	0.3042
828.6992	-0.0464
828.8665	0.0225
829.0337	-0.2077
829.2009	0.0929
829.3681	0.2812
829.5352	0.1302
829.7024	-0.0114
829.8695	0.0357
830.0366	0.2002
830.2037	0.0575
830.3707	0.0068
830.5378	0.019
830.7048	-0.1807
830.8718	-0.1013
831.0388	0.0377
831.2057	-0.1726
831.3727	0.1578
831.5396	-0.1069
831.7065	0.147
831.8734	-0.3122
832.0402	0.0954
832.2071	0.0364
832.3739	0.3745
832.5407	0.2937
832.7075	-0.087
832.8742	0.4029
833.041	0.0598
833.2077	0.1437
833.3744	0.2222
833.541	-0.0731
833.7077	0.0693
833.8743	-0.0525
834.0409	0.0249
834.2075	0.0933
834.3741	-0.0246
834.5407	-0.2372
834.7072	0.3861
834.8737	0.2235
835.0402	0.1231
835.2067	0.086
835.3731	0.2542
835.5395	-0.094
835.706	0.1388
835.8723	-0.1488
836.0387	0.1761
836.2051	0.3639
836.3714	0.8855
836.5377	-0.177
836.704	0.1245
836.8703	0.2291
837.0365	-0
837.2027	-0.5133
837.3689	0.1033
837.5351	-0.1398
837.7013	-0.0072
837.8674	-0.9339
838.0335	-0.065
838.1997	0.6758
838.3657	-0
838.5318	-0.722
838.6978	-0
838.8639	0.2884
839.0299	0.1888
839.1958	0.3411
839.3618	0.4252
839.5277	-0.1129
839.6937	-0.5772
839.8596	-0.148
840.0254	0.968
840.1913	0.685
840.3571	0.1563
840.523	0.2228
840.6888	-0.0397
840.8545	-0.2709
841.0203	0.1397
841.186	-0.056
841.3517	0.3494
841.5174	0.2805
841.6831	0.4624
841.8488	-0
842.0144	0.3661
842.18	0.7567
842.3456	-0.1204
842.5112	-0
842.6767	-0.2017
842.8422	-0.2567
843.0077	0.2057
843.1732	0.1479
843.3387	-0.0851
843.5042	0.0798
843.6696	-0
843.835	-0.2723
844.0004	0.0459
844.1657	-0.257
844.3311	0.3478
844.4964	-0
844.6617	-0
844.827	0.3115
844.9923	-0.0176
845.1575	-0
845.3227	-0.1095
845.4879	0.0171
845.6531	0.0462
845.8183	-0
845.9834	-0
846.1485	-0.1721
846.3136	-0
846.4787	-0.0051
846.6438	0.4273
846.8088	-1.0645
846.9738	-0
847.1388	0.1484
847.3038	-0.2471
847.4687	-1.0155
847.6337	0.4746
847.7986	0.3422
847.9635	-0.2582
848.1284	-0
848.2932	-0.2835
848.458	0.6439
848.6228	-0.1436
848.7876	-0
848.9524	0.4884
849.1172	-0.1919
849.2819	-0
849.4466	-0.4081
849.6113	-0.1984
849.7759	0.0575
849.9406	0.0798
850.1052	-0
850.2698	-0
850.4344	-0
850.599	1.1847
850.7635	-0
850.928	0.6902
851.0925	-0.2635
851.257	0.0253
851.4215	-0
851.5859	-0.0015
851.7503	-0
851.9147	-0.301
852.0791	-0.6146
852.2434	0.2838
852.4078	-0
852.5721	0.8308
852.7364	1.1547
852.9007	-0.1322
853.0649	0.8505
853.2291	0.277
853.3934	-0
853.5575	-0.0709
853.7217	-0.4245
853.8859	0.3358
854.05	-1.0082
854.2141	-0
854.3782	0.4255
854.5423	-0
854.7063	-0.0198
854.8703	0.1691
855.0343	0.4636
855.1983	-0.0985
855.3623	0.4444
855.5262	-0
855.6901	1.2705
855.854	0.0307
856.0179	-0
856.1818	-0.2449
856.3456	0.2008
856.5094	-0.7626
856.6732	-0
856.837	1.3266
857.0008	-0
857.1645	-0
857.3282	0.369
857.4919	0.2399
857.6556	2.0663
857.8192	-0.425
857.9828	-0.2707
858.1465	1.3892
858.31	-0.301
858.4736	-0.2015
858.6372	-0
858.8007	-0.915
858.9642	0.5419
859.1277	0.0142
859.2911	0.6816
859.4546	0.4116
859.618	-0
859.7814	-0
859.9448	-0.1834
860.1081	-0.3707
860.2715	-0
860.4348	-0
860.5981	-0.5954
860.7614	-0.4607
860.9246	-0
861.0879	0.0235
861.2511	0.4197
861.4143	-0
861.5774	-0
861.7406	-0
861.9037	-0
862.0668	-0.301
862.2299	-0
862.393	0.3793
862.556	-0.2389
862.7191	0.2859
862.8821	-0.1885
863.0451	-0
863.208	-0
863.371	-0
863.5339	-0.0023
863.6968	-0
863.8597	-0
864.0225	-0.301
864.1854	0.3222
864.3482	0.1592
864.511	0.1507
864.6737	-0
864.8365	-0
864.9992	-0.7357
865.1619	0.1873
865.3246	0.8976
865.4873	-0.8947
865.65	-0
865.8126	0.8582
865.9752	-0.0526
866.1378	-0.0147
866.3004	-0.0091
866.4629	0.5569
866.6254	-0.9744
866.7879	0.0955
866.9504	-0.7782
867.1129	0.2693
867.2753	1.8603
867.4377	1.168
867.6001	0.12
867.7625	-0.2895
867.9249	-0
868.0872	0.2518
868.2495	0.0709
868.4118	-0
868.5741	-0
868.7363	-0
868.8986	-0.6804
869.0608	-0.0657
869.223	1.574
869.3851	-0
869.5473	-0.3882
869.7094	-0
869.8715	-0
870.0336	0.1815
870.1957	-1
870.3577	-0.0546
870.5197	0.8615
870.6817	-0
870.8437	0.2605
871.0057	-0
871.1676	0.2506
871.3295	-0
871.4914	0.4094
871.6533	0.2002
871.8151	-0
871.977	0.8976
872.1388	-1.0847
872.3006	0.6656
872.4623	-0.8567
872.6241	-0
872.7858	-0
872.9475	-0
873.1092	-0
873.2709	-0
873.4325	0.2788
873.5941	-0
873.7557	-0.3882
873.9173	-0
874.0789	-0.0283
874.2404	-0.5258
874.4019	-0.0267
874.5634	0.0414
874.7249	-0
874.8863	-0.1549
875.0478	0.4557
875.2092	-0.0962
875.3706	-0.5881
875.5319	0.5971
875.6933	-0
875.8546	-0.0458
876.0159	0.061
876.1772	-0.722
876.3385	-0
876.4997	-0
876.6609	-0.4323
876.8221	0.8976
876.9833	-0.0352
877.1445	0.1546
877.3056	-0
877.4667	-0
877.6278	-0
877.7889	-0.0441
877.9499	0.3093
878.111	0.5128
878.272	-0.2253
878.433	-0.4428
878.5939	-0
878.7549	-0.301
878.9158	-0
879.0767	-0
879.2376	-0.8492
879.3984	-0.2615
879.5593	-0
879.7201	1.5623
879.8809	-0.4307
880.0417	0.1176
880.2024	-0
880.3632	-0.0676
880.5239	0.2544
880.6846	1.2672
880.8452	0.3575
881.0059	0.4449
881.1665	0.347
881.3271	-0.2867
881.4877	1.4065
881.6483	-1.4367
881.8088	-0
881.9693	-0
882.1298	-0
882.2903	-0
