Data from D4ACN5uM480nmA_Absorbance_12-08-01-270.txt Node
Date: Fri Feb 21 12:08:01 GMT 2025
User: LASERRRRR
Spectrometer: FLMT03099
Trigger mode: 0
Integration Time (sec): 1.500000E-2
Scans to average: 1
Electric dark correction enabled: true
Nonlinearity correction enabled: false
Boxcar width: 0
XAxis mode: Wavelengths
Number of Pixels in Spectrum: 3648
>>>>>Begin Spectral Data<<<<<
179.3399	-0
179.5586	-0
179.7771	-0
179.9957	0.4294
180.2143	-0.6066
180.4329	-0
180.6514	-0
180.8699	-0
181.0885	0.7566
181.307	0.2524
181.5255	0.068
181.744	-0
181.9625	1.4833
182.181	0.6875
182.3994	-0
182.6179	-0
182.8363	0.0062
183.0547	-0
183.2732	0.5417
183.4916	0.4636
183.71	0.4514
183.9284	0.296
184.1467	0.0064
184.3651	0.4799
184.5835	0.1483
184.8018	0.4067
185.0201	0.3336
185.2385	0.3238
185.4568	0.1325
185.6751	0.2905
185.8934	0.4706
186.1117	0.2376
186.3299	0.1323
186.5482	0.2322
186.7664	0.159
186.9847	0.3614
187.2029	0.3677
187.4211	0.167
187.6393	0.4718
187.8575	0.13
188.0757	0.3987
188.2939	0.6112
188.512	0.1748
188.7302	0.2032
188.9483	0.3231
189.1665	0.4416
189.3846	0.0848
189.6027	0.1948
189.8208	0.3531
190.0389	0.2781
190.257	0.3611
190.475	0.2259
190.6931	0.4143
190.9111	0.3474
191.1292	0.3366
191.3472	0.4517
191.5652	-0
191.7832	0.4852
192.0012	0.2001
192.2192	0.3819
192.4371	0.2493
192.6551	0.3187
192.873	0.2536
193.091	0.5753
193.3089	0.2798
193.5268	0.2507
193.7447	0.3188
193.9626	0.4202
194.1805	0.4952
194.3984	0.4363
194.6162	0.7181
194.8341	0.6013
195.0519	0.4707
195.2697	0.5313
195.4875	0.8836
195.7054	0.46
195.9231	0.5851
196.1409	0.5284
196.3587	0.6717
196.5765	0.5786
196.7942	0.6106
197.012	0.5755
197.2297	0.5388
197.4474	0.6775
197.6651	0.6774
197.8828	0.6374
198.1005	0.6737
198.3182	0.6039
198.5358	0.5212
198.7535	0.6264
198.9711	0.7101
199.1888	0.5726
199.4064	0.5896
199.624	0.6606
199.8416	0.5457
200.0592	0.6767
200.2767	0.642
200.4943	0.6579
200.7119	0.5755
200.9294	0.6133
201.1469	0.6664
201.3645	0.6234
201.582	0.5681
201.7995	0.6197
202.017	0.5739
202.2344	0.5969
202.4519	0.5939
202.6694	0.5787
202.8868	0.6592
203.1042	0.5558
203.3217	0.5816
203.5391	0.5845
203.7565	0.4846
203.9739	0.4847
204.1913	0.5071
204.4086	0.5171
204.626	0.5227
204.8433	0.5172
205.0607	0.5169
205.278	0.5878
205.4953	0.4429
205.7126	0.4993
205.9299	0.4892
206.1472	0.4797
206.3644	0.4782
206.5817	0.4718
206.7989	0.4732
207.0162	0.4094
207.2334	0.4265
207.4506	0.4318
207.6678	0.4882
207.885	0.4133
208.1022	0.4561
208.3194	0.4178
208.5365	0.4762
208.7537	0.4126
208.9708	0.4564
209.1879	0.4435
209.405	0.4358
209.6222	0.405
209.8392	0.4058
210.0563	0.4275
210.2734	0.401
210.4905	0.402
210.7075	0.4368
210.9245	0.4186
211.1416	0.4129
211.3586	0.3976
211.5756	0.3997
211.7926	0.3978
212.0096	0.4222
212.2265	0.4148
212.4435	0.4165
212.6604	0.3927
212.8774	0.4034
213.0943	0.4033
213.3112	0.4061
213.5281	0.4251
213.745	0.4265
213.9619	0.4026
214.1788	0.3975
214.3956	0.4338
214.6125	0.4143
214.8293	0.4281
215.0461	0.4127
215.2629	0.4098
215.4798	0.403
215.6965	0.3896
215.9133	0.4141
216.1301	0.4003
216.3469	0.3967
216.5636	0.4131
216.7803	0.4173
216.9971	0.4108
217.2138	0.3958
217.4305	0.4232
217.6472	0.4125
217.8639	0.3985
218.0805	0.4247
218.2972	0.4221
218.5138	0.4323
218.7305	0.4081
218.9471	0.4366
219.1637	0.4167
219.3803	0.4296
219.5969	0.4219
219.8135	0.432
220.0301	0.4176
220.2466	0.4295
220.4632	0.4094
220.6797	0.4307
220.8962	0.4439
221.1127	0.4181
221.3292	0.4112
221.5457	0.4313
221.7622	0.4354
221.9787	0.4441
222.1951	0.4298
222.4116	0.4423
222.628	0.4513
222.8444	0.4292
223.0608	0.4382
223.2772	0.4495
223.4936	0.4567
223.71	0.4514
223.9264	0.4409
224.1427	0.4605
224.3591	0.4478
224.5754	0.4739
224.7917	0.4708
225.008	0.4831
225.2243	0.4744
225.4406	0.4518
225.6569	0.4673
225.8732	0.4732
226.0894	0.4691
226.3057	0.4672
226.5219	0.4831
226.7381	0.4676
226.9543	0.4787
227.1705	0.466
227.3867	0.4858
227.6029	0.4745
227.8191	0.4863
228.0352	0.5006
228.2513	0.4911
228.4675	0.4857
228.6836	0.4917
228.8997	0.4902
229.1158	0.4785
229.3319	0.4844
229.548	0.4958
229.764	0.507
229.9801	0.4941
230.1961	0.5099
230.4121	0.5162
230.6282	0.5018
230.8442	0.5304
231.0602	0.5123
231.2761	0.511
231.4921	0.5055
231.7081	0.5168
231.924	0.5262
232.14	0.5215
232.3559	0.5382
232.5718	0.5328
232.7877	0.5267
233.0036	0.5179
233.2195	0.5273
233.4353	0.5318
233.6512	0.5287
233.867	0.5356
234.0829	0.543
234.2987	0.5366
234.5145	0.5354
234.7303	0.5396
234.9461	0.5269
235.1619	0.5311
235.3776	0.54
235.5934	0.5275
235.8091	0.5289
236.0249	0.5377
236.2406	0.5299
236.4563	0.5429
236.672	0.5307
236.8877	0.5399
237.1034	0.5379
237.319	0.5391
237.5347	0.529
237.7503	0.5382
237.966	0.529
238.1816	0.5341
238.3972	0.5393
238.6128	0.5492
238.8284	0.5319
239.0439	0.5339
239.2595	0.5193
239.475	0.5287
239.6906	0.5251
239.9061	0.5305
240.1216	0.5345
240.3371	0.5199
240.5526	0.5214
240.7681	0.5232
240.9836	0.5243
241.199	0.5051
241.4145	0.5044
241.6299	0.4944
241.8453	0.4897
242.0607	0.4886
242.2761	0.4785
242.4915	0.4743
242.7069	0.4658
242.9223	0.4721
243.1376	0.4538
243.353	0.446
243.5683	0.4373
243.7836	0.4278
243.9989	0.418
244.2142	0.4145
244.4295	0.4057
244.6448	0.4019
244.86	0.3888
245.0753	0.3779
245.2905	0.3726
245.5057	0.3816
245.721	0.3567
245.9362	0.3543
246.1514	0.3309
246.3665	0.3393
246.5817	0.3316
246.7969	0.3237
247.012	0.3207
247.2271	0.307
247.4423	0.3043
247.6574	0.3093
247.8725	0.2985
248.0876	0.2966
248.3026	0.29
248.5177	0.2805
248.7328	0.2848
248.9478	0.2707
249.1628	0.2669
249.3779	0.2672
249.5929	0.2622
249.8079	0.2559
250.0228	0.2492
250.2378	0.2494
250.4528	0.2463
250.6677	0.2389
250.8827	0.2451
251.0976	0.2389
251.3125	0.235
251.5274	0.2301
251.7423	0.2347
251.9572	0.2224
252.172	0.2241
252.3869	0.2237
252.6017	0.2157
252.8166	0.2172
253.0314	0.2211
253.2462	0.2092
253.461	0.2157
253.6758	0.2058
253.8906	0.2076
254.1053	0.211
254.3201	0.2032
254.5348	0.2065
254.7496	0.2013
254.9643	0.2019
255.179	0.2015
255.3937	0.1967
255.6083	0.2017
255.823	0.198
256.0377	0.1952
256.2523	0.2007
256.467	0.1928
256.6816	0.199
256.8962	0.1896
257.1108	0.1986
257.3254	0.1921
257.54	0.195
257.7545	0.1914
257.9691	0.1903
258.1836	0.1902
258.3981	0.1876
258.6127	0.1865
258.8272	0.1826
259.0417	0.1879
259.2561	0.1838
259.4706	0.1919
259.6851	0.1901
259.8995	0.1825
260.114	0.1848
260.3284	0.1891
260.5428	0.1847
260.7572	0.1894
260.9716	0.1855
261.186	0.1864
261.4003	0.186
261.6147	0.1857
261.829	0.1808
262.0433	0.1842
262.2577	0.1924
262.472	0.1898
262.6863	0.1826
262.9005	0.1905
263.1148	0.179
263.3291	0.1858
263.5433	0.1881
263.7576	0.1826
263.9718	0.1837
264.186	0.1791
264.4002	0.1799
264.6144	0.1912
264.8286	0.1846
265.0427	0.1866
265.2569	0.1913
265.471	0.1838
265.6851	0.1823
265.8993	0.1879
266.1134	0.1865
266.3275	0.1867
266.5415	0.1828
266.7556	0.1787
266.9697	0.186
267.1837	0.181
267.3978	0.1887
267.6118	0.1866
267.8258	0.1858
268.0398	0.1785
268.2538	0.1843
268.4677	0.1801
268.6817	0.181
268.8957	0.1818
269.1096	0.1784
269.3235	0.1882
269.5374	0.1788
269.7514	0.1846
269.9652	0.1841
270.1791	0.1815
270.393	0.1838
270.6068	0.1682
270.8207	0.1721
271.0345	0.1713
271.2483	0.1755
271.4622	0.1784
271.676	0.1766
271.8897	0.1677
272.1035	0.1698
272.3173	0.1729
272.531	0.1748
272.7448	0.1697
272.9585	0.1719
273.1722	0.1733
273.3859	0.1739
273.5996	0.1733
273.8133	0.1683
274.0269	0.1759
274.2406	0.169
274.4542	0.1669
274.6679	0.1718
274.8815	0.1732
275.0951	0.17
275.3087	0.1746
275.5223	0.1783
275.7358	0.1782
275.9494	0.1717
276.1629	0.1772
276.3765	0.1703
276.59	0.1771
276.8035	0.1748
277.017	0.1766
277.2305	0.1755
277.444	0.1726
277.6574	0.176
277.8709	0.1733
278.0843	0.1772
278.2978	0.1731
278.5112	0.1823
278.7246	0.1751
278.938	0.1741
279.1513	0.1787
279.3647	0.1829
279.5781	0.1781
279.7914	0.1779
280.0047	0.1857
280.2181	0.1816
280.4314	0.1764
280.6447	0.1879
280.8579	0.1803
281.0712	0.1822
281.2845	0.1835
281.4977	0.1885
281.711	0.1821
281.9242	0.1868
282.1374	0.181
282.3506	0.1861
282.5638	0.1868
282.7769	0.1909
282.9901	0.1861
283.2033	0.1858
283.4164	0.1841
283.6295	0.1858
283.8426	0.1851
284.0557	0.1854
284.2688	0.1923
284.4819	0.1872
284.695	0.1933
284.908	0.193
285.1211	0.1949
285.3341	0.1934
285.5471	0.1963
285.7601	0.1922
285.9731	0.1894
286.1861	0.1873
286.3991	0.1959
286.612	0.1942
286.825	0.1947
287.0379	0.1983
287.2508	0.1933
287.4637	0.1946
287.6766	0.2005
287.8895	0.1924
288.1024	0.1965
288.3152	0.1953
288.5281	0.1964
288.7409	0.1976
288.9538	0.1974
289.1666	0.197
289.3794	0.1934
289.5922	0.1942
289.8049	0.2061
290.0177	0.1979
290.2304	0.1935
290.4432	0.1964
290.6559	0.1916
290.8686	0.2027
291.0813	0.1972
291.294	0.2001
291.5067	0.1953
291.7194	0.199
291.932	0.2038
292.1447	0.198
292.3573	0.1968
292.5699	0.2024
292.7825	0.1968
292.9951	0.1987
293.2077	0.2071
293.4203	0.1993
293.6328	0.1967
293.8454	0.1915
294.0579	0.1986
294.2704	0.1986
294.4829	0.202
294.6954	0.2047
294.9079	0.2014
295.1204	0.1962
295.3328	0.2002
295.5453	0.2017
295.7577	0.1951
295.9701	0.2015
296.1825	0.1996
296.3949	0.2005
296.6073	0.1962
296.8197	0.2012
297.0321	0.1983
297.2444	0.1964
297.4567	0.1922
297.6691	0.1951
297.8814	0.2002
298.0937	0.1989
298.306	0.197
298.5182	0.2071
298.7305	0.197
298.9428	0.1961
299.155	0.1977
299.3672	0.2012
299.5794	0.1925
299.7916	0.1924
300.0038	0.1904
300.216	0.1971
300.4282	0.1921
300.6403	0.1939
300.8525	0.1975
301.0646	0.1939
301.2767	0.1967
301.4888	0.1949
301.7009	0.1997
301.913	0.1997
302.125	0.1974
302.3371	0.1959
302.5491	0.1924
302.7612	0.194
302.9732	0.1842
303.1852	0.1929
303.3972	0.1954
303.6092	0.2007
303.8211	0.1862
304.0331	0.19
304.245	0.1984
304.457	0.1945
304.6689	0.1945
304.8808	0.194
305.0927	0.1932
305.3046	0.187
305.5164	0.1876
305.7283	0.1895
305.9401	0.1847
306.152	0.1879
306.3638	0.1818
306.5756	0.1862
306.7874	0.1774
306.9992	0.1761
307.2109	0.1788
307.4227	0.1718
307.6344	0.1823
307.8462	0.1699
308.0579	0.1669
308.2696	0.1675
308.4813	0.1597
308.693	0.159
308.9046	0.1609
309.1163	0.157
309.328	0.1551
309.5396	0.1554
309.7512	0.1548
309.9628	0.1519
310.1744	0.1525
310.386	0.1534
310.5976	0.1481
310.8091	0.1484
311.0207	0.1426
311.2322	0.1459
311.4437	0.1445
311.6552	0.1453
311.8667	0.1404
312.0782	0.1416
312.2897	0.1373
312.5012	0.1356
312.7126	0.129
312.924	0.1353
313.1355	0.1309
313.3469	0.1263
313.5583	0.1284
313.7696	0.131
313.981	0.1315
314.1924	0.13
314.4037	0.1244
314.6151	0.1356
314.8264	0.1245
315.0377	0.1273
315.249	0.1242
315.4603	0.1223
315.6716	0.1279
315.8828	0.1225
316.0941	0.1251
316.3053	0.1172
316.5165	0.1133
316.7277	0.1294
316.9389	0.1206
317.1501	0.1168
317.3613	0.1118
317.5724	0.1199
317.7836	0.1217
317.9947	0.1127
318.2058	0.1207
318.417	0.1186
318.6281	0.1236
318.8391	0.1184
319.0502	0.1186
319.2613	0.1167
319.4723	0.1204
319.6834	0.1214
319.8944	0.1228
320.1054	0.1142
320.3164	0.1156
320.5274	0.1121
320.7383	0.1164
320.9493	0.1109
321.1602	0.1181
321.3712	0.1188
321.5821	0.1213
321.793	0.1204
322.0039	0.1136
322.2148	0.112
322.4257	0.1226
322.6365	0.1146
322.8474	0.1162
323.0582	0.1207
323.269	0.1157
323.4798	0.1125
323.6906	0.1182
323.9014	0.1127
324.1122	0.1159
324.3229	0.1215
324.5337	0.1187
324.7444	0.1153
324.9551	0.1203
325.1658	0.1128
325.3765	0.1206
325.5872	0.1154
325.7979	0.1167
326.0085	0.1159
326.2192	0.1135
326.4298	0.122
326.6404	0.1154
326.851	0.1215
327.0616	0.121
327.2722	0.1251
327.4828	0.1235
327.6933	0.1205
327.9039	0.1196
328.1144	0.1169
328.3249	0.1259
328.5354	0.1268
328.7459	0.1195
328.9564	0.1203
329.1669	0.1224
329.3773	0.1224
329.5878	0.1242
329.7982	0.1257
330.0086	0.1225
330.219	0.1265
330.4294	0.1325
330.6398	0.1284
330.8502	0.1239
331.0605	0.1241
331.2708	0.1246
331.4812	0.1235
331.6915	0.1156
331.9018	0.119
332.1121	0.1261
332.3224	0.1282
332.5326	0.1244
332.7429	0.1196
332.9531	0.1245
333.1633	0.1329
333.3735	0.1226
333.5837	0.1241
333.7939	0.1211
334.0041	0.1257
334.2143	0.1249
334.4244	0.1225
334.6346	0.1148
334.8447	0.1278
335.0548	0.1296
335.2649	0.1289
335.475	0.1282
335.685	0.1284
335.8951	0.1303
336.1051	0.1285
336.3152	0.1324
336.5252	0.1254
336.7352	0.1214
336.9452	0.1312
337.1552	0.1283
337.3652	0.1315
337.5751	0.1284
337.7851	0.1268
337.995	0.1312
338.2049	0.1302
338.4148	0.1293
338.6247	0.1349
338.8346	0.1228
339.0445	0.1329
339.2543	0.1338
339.4642	0.1353
339.674	0.1403
339.8838	0.133
340.0936	0.1351
340.3034	0.1344
340.5132	0.1342
340.7229	0.1354
340.9327	0.141
341.1424	0.1342
341.3522	0.1416
341.5619	0.1343
341.7716	0.1357
341.9813	0.1426
342.1909	0.1435
342.4006	0.1407
342.6102	0.1412
342.8199	0.1374
343.0295	0.1439
343.2391	0.136
343.4487	0.1443
343.6583	0.149
343.8679	0.1483
344.0774	0.1442
344.287	0.1436
344.4965	0.1483
344.706	0.1438
344.9155	0.1474
345.125	0.1465
345.3345	0.1447
345.544	0.1501
345.7534	0.1473
345.9629	0.1458
346.1723	0.1445
346.3817	0.1455
346.5911	0.1561
346.8005	0.1497
347.0099	0.1574
347.2193	0.1448
347.4286	0.1519
347.638	0.1506
347.8473	0.1566
348.0566	0.1569
348.2659	0.157
348.4752	0.1625
348.6845	0.1605
348.8937	0.16
349.103	0.1548
349.3122	0.1642
349.5214	0.1584
349.7306	0.1575
349.9398	0.1557
350.149	0.1606
350.3582	0.1604
350.5674	0.1662
350.7765	0.1699
350.9856	0.1619
351.1948	0.1648
351.4039	0.1593
351.613	0.1743
351.822	0.1701
352.0311	0.1697
352.2402	0.1689
352.4492	0.1748
352.6582	0.1708
352.8672	0.1683
353.0762	0.1658
353.2852	0.1734
353.4942	0.1761
353.7032	0.1691
353.9121	0.172
354.1211	0.1717
354.33	0.1809
354.5389	0.183
354.7478	0.1799
354.9567	0.1802
355.1655	0.1808
355.3744	0.1741
355.5833	0.1807
355.7921	0.1796
356.0009	0.1795
356.2097	0.1813
356.4185	0.1912
356.6273	0.1826
356.8361	0.1978
357.0448	0.188
357.2536	0.1893
357.4623	0.1843
357.671	0.1855
357.8797	0.1966
358.0884	0.1967
358.2971	0.1945
358.5057	0.186
358.7144	0.1936
358.923	0.1962
359.1316	0.1963
359.3402	0.198
359.5488	0.2072
359.7574	0.2058
359.966	0.2016
360.1746	0.1974
360.3831	0.2074
360.5916	0.2047
360.8002	0.2103
361.0087	0.2118
361.2172	0.2064
361.4256	0.2009
361.6341	0.2168
361.8426	0.2096
362.051	0.2102
362.2594	0.2166
362.4678	0.2124
362.6762	0.2189
362.8846	0.2174
363.093	0.2131
363.3014	0.2139
363.5097	0.2192
363.718	0.2236
363.9264	0.2196
364.1347	0.2309
364.343	0.2272
364.5513	0.2324
364.7595	0.2238
364.9678	0.2335
365.176	0.2329
365.3842	0.2277
365.5925	0.2244
365.8007	0.2345
366.0089	0.2308
366.217	0.2365
366.4252	0.2418
366.6333	0.2417
366.8415	0.2475
367.0496	0.2323
367.2577	0.2432
367.4658	0.2507
367.6739	0.238
367.882	0.2503
368.09	0.2436
368.2981	0.2495
368.5061	0.2423
368.7141	0.2453
368.9221	0.2418
369.1301	0.2465
369.3381	0.2553
369.5461	0.2497
369.754	0.2495
369.962	0.2525
370.1699	0.2583
370.3778	0.2606
370.5857	0.2609
370.7936	0.2628
371.0015	0.2546
371.2093	0.2589
371.4172	0.2595
371.625	0.2644
371.8328	0.2696
372.0406	0.2599
372.2484	0.2527
372.4562	0.2619
372.664	0.2673
372.8717	0.2678
373.0795	0.2763
373.2872	0.2707
373.4949	0.277
373.7026	0.2836
373.9103	0.2659
374.118	0.2715
374.3256	0.2836
374.5333	0.278
374.7409	0.28
374.9485	0.2688
375.1561	0.2816
375.3637	0.2684
375.5713	0.28
375.7789	0.2809
375.9864	0.288
376.194	0.2883
376.4015	0.2909
376.609	0.2923
376.8165	0.2835
377.024	0.2777
377.2315	0.2931
377.4389	0.2864
377.6464	0.2894
377.8538	0.2828
378.0612	0.2815
378.2686	0.2923
378.476	0.294
378.6834	0.2964
378.8908	0.2899
379.0981	0.2936
379.3055	0.2997
379.5128	0.295
379.7201	0.2906
379.9274	0.2896
380.1347	0.3051
380.342	0.3044
380.5492	0.3004
380.7565	0.3041
380.9637	0.3025
381.1709	0.3039
381.3781	0.3071
381.5853	0.3045
381.7925	0.2997
381.9997	0.3062
382.2068	0.2907
382.4139	0.3048
382.6211	0.322
382.8282	0.3006
383.0353	0.3019
383.2424	0.3138
383.4494	0.3139
383.6565	0.3081
383.8635	0.3257
384.0706	0.3118
384.2776	0.3225
384.4846	0.3139
384.6916	0.3053
384.8986	0.3146
385.1055	0.3111
385.3125	0.3049
385.5194	0.315
385.7263	0.3143
385.9333	0.3184
386.1402	0.3194
386.347	0.3142
386.5539	0.3219
386.7608	0.3152
386.9676	0.3136
387.1744	0.3236
387.3813	0.3173
387.5881	0.3121
387.7948	0.3117
388.0016	0.3122
388.2084	0.3081
388.4151	0.3079
388.6219	0.3064
388.8286	0.3178
389.0353	0.2924
389.242	0.3039
389.4487	0.302
389.6553	0.3111
389.862	0.3121
390.0686	0.3261
390.2753	0.3018
390.4819	0.3112
390.6885	0.3067
390.8951	0.3155
391.1016	0.3022
391.3082	0.2935
391.5147	0.3007
391.7213	0.3012
391.9278	0.2969
392.1343	0.2954
392.3408	0.2944
392.5473	0.2941
392.7537	0.2924
392.9602	0.294
393.1666	0.2903
393.373	0.2962
393.5794	0.2833
393.7858	0.2898
393.9922	0.2914
394.1986	0.2803
394.4049	0.2826
394.6113	0.2768
394.8176	0.2664
395.0239	0.2849
395.2302	0.2682
395.4365	0.2672
395.6428	0.2743
395.8491	0.2799
396.0553	0.2758
396.2615	0.2678
396.4678	0.2843
396.674	0.2764
396.8802	0.2745
397.0863	0.2789
397.2925	0.2633
397.4987	0.2587
397.7048	0.2707
397.9109	0.2684
398.117	0.2697
398.3231	0.2779
398.5292	0.2706
398.7353	0.269
398.9413	0.2637
399.1474	0.2746
399.3534	0.2728
399.5594	0.2643
399.7654	0.2703
399.9714	0.269
400.1774	0.2624
400.3833	0.2761
400.5893	0.2664
400.7952	0.2737
401.0011	0.2589
401.207	0.2712
401.4129	0.2704
401.6188	0.2617
401.8247	0.2676
402.0305	0.2536
402.2364	0.2763
402.4422	0.2702
402.648	0.2671
402.8538	0.2796
403.0596	0.2602
403.2654	0.2654
403.4711	0.275
403.6768	0.2744
403.8826	0.2677
404.0883	0.2654
404.294	0.2706
404.4997	0.2665
404.7054	0.2664
404.911	0.2671
405.1167	0.2673
405.3223	0.2754
405.5279	0.2666
405.7335	0.2598
405.9391	0.2646
406.1447	0.2671
406.3502	0.2559
406.5558	0.2754
406.7613	0.2698
406.9668	0.2706
407.1724	0.27
407.3778	0.2624
407.5833	0.2582
407.7888	0.2678
407.9942	0.2692
408.1997	0.2685
408.4051	0.2743
408.6105	0.2762
408.8159	0.267
409.0213	0.2649
409.2267	0.2609
409.432	0.2641
409.6374	0.2707
409.8427	0.2672
410.048	0.262
410.2533	0.2529
410.4586	0.2776
410.6639	0.2691
410.8691	0.2738
411.0744	0.2587
411.2796	0.2631
411.4848	0.2653
411.69	0.2678
411.8952	0.271
412.1004	0.263
412.3056	0.2589
412.5107	0.2658
412.7158	0.2663
412.921	0.2687
413.1261	0.2651
413.3312	0.2513
413.5362	0.2571
413.7413	0.2689
413.9464	0.2558
414.1514	0.2646
414.3564	0.2563
414.5614	0.2605
414.7664	0.2681
414.9714	0.2715
415.1764	0.2553
415.3813	0.2553
415.5863	0.2594
415.7912	0.2656
415.9961	0.2587
416.201	0.2531
416.4059	0.2644
416.6108	0.2653
416.8156	0.2529
417.0205	0.2606
417.2253	0.2612
417.4301	0.264
417.6349	0.2625
417.8397	0.2701
418.0445	0.254
418.2492	0.2576
418.454	0.2521
418.6587	0.2569
418.8634	0.2575
419.0681	0.2499
419.2728	0.2525
419.4775	0.2523
419.6822	0.2429
419.8868	0.2597
420.0915	0.2602
420.2961	0.251
420.5007	0.2468
420.7053	0.2555
420.9099	0.2426
421.1144	0.2415
421.319	0.2356
421.5235	0.2404
421.728	0.2448
421.9325	0.2471
422.137	0.2443
422.3415	0.2397
422.546	0.2479
422.7504	0.2449
422.9549	0.2415
423.1593	0.2378
423.3637	0.2318
423.5681	0.2385
423.7725	0.2308
423.9769	0.2372
424.1812	0.2282
424.3856	0.2315
424.5899	0.2374
424.7942	0.23
424.9985	0.2305
425.2028	0.2267
425.4071	0.2172
425.6113	0.2422
425.8156	0.2202
426.0198	0.2257
426.224	0.235
426.4282	0.2224
426.6324	0.2242
426.8366	0.2196
427.0407	0.2269
427.2449	0.2108
427.449	0.2211
427.6531	0.2147
427.8572	0.2183
428.0613	0.2092
428.2654	0.2163
428.4694	0.2044
428.6735	0.2022
428.8775	0.2014
429.0815	0.2069
429.2855	0.2062
429.4895	0.1952
429.6935	0.1894
429.8975	0.2062
430.1014	0.1971
430.3053	0.1978
430.5093	0.1922
430.7132	0.2035
430.9171	0.1899
431.1209	0.1949
431.3248	0.1896
431.5286	0.1857
431.7325	0.1871
431.9363	0.182
432.1401	0.1814
432.3439	0.1748
432.5477	0.1913
432.7514	0.1733
432.9552	0.1781
433.1589	0.1757
433.3627	0.1762
433.5664	0.1724
433.7701	0.1766
433.9737	0.1704
434.1774	0.1663
434.3811	0.1671
434.5847	0.1602
434.7883	0.1525
434.9919	0.149
435.1955	0.1575
435.3991	0.1563
435.6027	0.1552
435.8062	0.1503
436.0098	0.1496
436.2133	0.1552
436.4168	0.1483
436.6203	0.1511
436.8238	0.1397
437.0272	0.138
437.2307	0.1335
437.4341	0.1382
437.6375	0.1311
437.841	0.1289
438.0443	0.1365
438.2477	0.1229
438.4511	0.1359
438.6545	0.1377
438.8578	0.1252
439.0611	0.1385
439.2644	0.1159
439.4677	0.1315
439.671	0.1245
439.8743	0.1086
440.0775	0.1107
440.2808	0.1275
440.484	0.1108
440.6872	0.1037
440.8904	0.103
441.0936	0.1165
441.2967	0.1001
441.4999	0.1054
441.703	0.1025
441.9062	0.0976
442.1093	0.104
442.3124	0.103
442.5155	0.0982
442.7185	0.088
442.9216	0.0856
443.1246	0.0925
443.3276	0.085
443.5307	0.0911
443.7337	0.0846
443.9366	0.0836
444.1396	0.0802
444.3426	0.0851
444.5455	0.0696
444.7484	0.0758
444.9513	0.0806
445.1542	0.081
445.3571	0.0711
445.56	0.0728
445.7628	0.0636
445.9657	0.0765
446.1685	0.0777
446.3713	0.0705
446.5741	0.0575
446.7769	0.0656
446.9797	0.0652
447.1824	0.0667
447.3852	0.0638
447.5879	0.0668
447.7906	0.057
447.9933	0.0613
448.196	0.0519
448.3986	0.0561
448.6013	0.063
448.8039	0.0617
449.0066	0.0506
449.2092	0.0565
449.4118	0.0604
449.6143	0.0547
449.8169	0.051
450.0195	0.0459
450.222	0.0501
450.4245	0.0565
450.627	0.04
450.8295	0.0472
451.032	0.0425
451.2345	0.0435
451.4369	0.0444
451.6394	0.0446
451.8418	0.0454
452.0442	0.0398
452.2466	0.0452
452.449	0.0455
452.6513	0.0367
452.8537	0.0518
453.056	0.0467
453.2583	0.0422
453.4607	0.0379
453.663	0.0359
453.8652	0.0312
454.0675	0.0371
454.2697	0.0291
454.472	0.0275
454.6742	0.0322
454.8764	0.034
455.0786	0.0351
455.2808	0.0291
455.4829	0.0276
455.6851	0.0278
455.8872	0.0232
456.0893	0.0361
456.2915	0.0188
456.4935	0.0261
456.6956	0.0168
456.8977	0.0208
457.0997	0.0273
457.3018	0.0237
457.5038	0.024
457.7058	0.0262
457.9078	0.0362
458.1098	0.0173
458.3117	0.0243
458.5137	0.0295
458.7156	0.0317
458.9175	0.0134
459.1194	0.0253
459.3213	0.0141
459.5232	0.0167
459.725	0.0259
459.9269	0.0167
460.1287	0.0187
460.3305	0.0142
460.5323	0.0173
460.7341	0.013
460.9359	0.0165
461.1376	0.0157
461.3394	0.0183
461.5411	0.0165
461.7428	0.0146
461.9445	0.0093
462.1462	0.0191
462.3479	0.0176
462.5495	0.0093
462.7512	0.0062
462.9528	0.0158
463.1544	0.0116
463.356	0.0131
463.5576	0.0082
463.7592	0.0009
463.9607	0.0222
464.1623	0.0115
464.3638	0.0074
464.5653	0.0217
464.7668	0.0068
464.9683	0.0096
465.1697	0.0038
465.3712	0.0068
465.5726	0.0067
465.7741	0.0138
465.9755	0.0181
466.1769	0.0031
466.3782	0.0043
466.5796	0.0092
466.7809	0.0192
466.9823	0.0118
467.1836	0.0144
467.3849	0.0067
467.5862	-0.0059
467.7875	0.0126
467.9887	0.0102
468.19	0.0077
468.3912	0.0083
468.5924	0.0134
468.7936	-0.0019
468.9948	0.0073
469.196	0.0019
469.3972	0.0161
469.5983	-0.0004
469.7994	0.0049
470.0006	0.0184
470.2017	0.0165
470.4027	0.005
470.6038	0.002
470.8049	0.005
471.0059	0.0054
471.2069	0.014
471.408	-0.0029
471.6089	0.0036
471.8099	-0.0042
472.0109	0.0006
472.2119	0.0168
472.4128	0.0104
472.6137	0.0093
472.8146	0.0014
473.0155	0.0027
473.2164	-0.0057
473.4173	0.01
473.6181	0.007
473.819	-0
474.0198	0.0041
474.2206	0.0089
474.4214	0.0056
474.6222	0.0061
474.8229	0.0015
475.0237	0.0085
475.2244	0.0097
475.4251	0.0005
475.6258	0.007
475.8265	0.0025
476.0272	-0.003
476.2278	0.0009
476.4285	-0.0015
476.6291	0.0057
476.8297	0.0032
477.0303	0.0103
477.2309	0.0016
477.4315	0.0079
477.632	0.0001
477.8326	0.0031
478.0331	0.0076
478.2336	0.0066
478.4341	0.0002
478.6346	0.0072
478.8351	0.001
479.0355	0.0057
479.236	0.006
479.4364	0.0064
479.6368	-0.0017
479.8372	0.0028
480.0376	-0.0028
480.2379	0.0002
480.4383	-0.0004
480.6386	0.001
480.8389	0.0074
481.0392	0.0108
481.2395	0.0027
481.4398	0.0011
481.6401	0.0009
481.8403	-0.0064
482.0405	-0.0034
482.2408	0.004
482.441	0.01
482.6411	0.0039
482.8413	-0.0048
483.0415	-0.0034
483.2416	0.0025
483.4417	-0.0034
483.6419	0.0009
483.8419	0.0041
484.042	0.0069
484.2421	0.0033
484.4422	-0.0003
484.6422	0.0046
484.8422	0.0053
485.0422	0.0055
485.2422	0.0038
485.4422	-0.0027
485.6422	-0.0022
485.8421	-0.0016
486.042	0.0039
486.242	0.0033
486.4419	0.0018
486.6417	0.0069
486.8416	0.0085
487.0415	-0.0052
487.2413	0.0014
487.4411	0.0005
487.641	0.012
487.8408	0.0084
488.0405	-0.0012
488.2403	-0.0025
488.4401	0.0034
488.6398	0.0106
488.8395	0.0041
489.0392	0.0062
489.2389	0.0006
489.4386	0.0064
489.6383	0.0084
489.8379	0.0047
490.0376	0.0113
490.2372	0.0007
490.4368	0.0089
490.6364	0.0054
490.836	0.0029
491.0355	0.0042
491.2351	-0.0043
491.4346	0.0087
491.6341	-0.0036
491.8336	-0.0006
492.0331	-0.0001
492.2326	-0.0011
492.432	0.0072
492.6315	-0.0056
492.8309	0.0074
493.0303	-0.01
493.2297	-0.0042
493.4291	0.0002
493.6284	0.0091
493.8278	0.0073
494.0271	0.0017
494.2264	0.0072
494.4257	0.0056
494.625	-0.0065
494.8243	0.0014
495.0236	0.0067
495.2228	-0.0016
495.422	0.0057
495.6213	0.0046
495.8205	-0.0017
496.0196	0.002
496.2188	0.003
496.418	-0.0048
496.6171	0.0079
496.8162	-0.0016
497.0153	0.0031
497.2144	-0.0041
497.4135	0.0072
497.6126	-0.0032
497.8116	-0.0011
498.0107	0.0002
498.2097	0.0055
498.4087	-0.0041
498.6077	0.0082
498.8067	0.007
499.0056	-0.0045
499.2046	-0.0031
499.4035	0.0022
499.6024	-0.0084
499.8013	0.0024
500.0002	0.0049
500.199	0.0049
500.3979	0.0047
500.5967	-0.008
500.7956	0.0043
500.9944	0.0012
501.1932	0.0034
501.3919	0.0108
501.5907	-0
501.7895	-0.0043
501.9882	-0.0015
502.1869	0.0099
502.3856	-0.0028
502.5843	-0.0021
502.783	0.0026
502.9816	0.0038
503.1803	0.0149
503.3789	0.0056
503.5775	0.0036
503.7761	0.0019
503.9747	0.0028
504.1732	-0.0036
504.3718	-0.0006
504.5703	-0.0005
504.7689	-0.0048
504.9674	-0.0001
505.1658	0.0034
505.3643	-0.004
505.5628	0.0148
505.7612	0.0079
505.9597	0.0048
506.1581	-0.0055
506.3565	-0.0082
506.5549	-0.0011
506.7532	0.0056
506.9516	0.0022
507.1499	0.001
507.3482	0.0094
507.5465	-0.0069
507.7448	0.0055
507.9431	-0.0068
508.1414	-0.0069
508.3396	0.0061
508.5379	0.0046
508.7361	0.0067
508.9343	-0.0026
509.1325	0.0072
509.3306	-0.0052
509.5288	0.011
509.7269	0.0008
509.9251	0.0014
510.1232	-0.0093
510.3213	0.0004
510.5193	0.0049
510.7174	-0.0057
510.9154	0.0021
511.1135	0.0005
511.3115	0.0022
511.5095	0.0042
511.7075	-0.0018
511.9055	0.0038
512.1034	0.0055
512.3014	-0.0005
512.4993	0.0091
512.6972	0.002
512.8951	0.0082
513.093	0.0039
513.2908	-0.0039
513.4887	0.0134
513.6865	-0.0081
513.8844	0.0018
514.0822	0.0002
514.2799	-0.0012
514.4777	0.0151
514.6755	0.004
514.8732	0.0001
515.0709	0.0101
515.2687	-0.0019
515.4664	-0.009
515.664	0.013
515.8617	0.0148
516.0594	0.0024
516.257	0.0159
516.4546	-0.0044
516.6522	0.0035
516.8498	0.0047
517.0474	-0.0036
517.2449	0.0018
517.4425	0.0027
517.64	-0.0019
517.8375	0.0152
518.035	-0.0003
518.2325	-0.0088
518.43	-0.0024
518.6274	-0.006
518.8249	0.0063
519.0223	0.0013
519.2197	-0.0014
519.4171	0.0029
519.6145	0.0014
519.8118	0.0044
520.0092	-0.0042
520.2065	-0.0047
520.4038	0.004
520.6011	-0.0013
520.7984	0.0029
520.9956	-0.0014
521.1929	0.0038
521.3901	0.0024
521.5874	0.0035
521.7846	0.0016
521.9818	0.0016
522.1789	0.0099
522.3761	-0.0023
522.5732	-0.0021
522.7704	0.007
522.9675	-0.0081
523.1646	0.0182
523.3617	0.002
523.5587	0.0029
523.7558	0.0019
523.9528	-0.0016
524.1498	-0.0034
524.3468	-0.0023
524.5438	0.0062
524.7408	-0.0041
524.9378	0.0115
525.1347	0.0071
525.3316	0.0101
525.5285	-0.0024
525.7254	0.0044
525.9223	0.004
526.1192	-0.0056
526.316	-0.0013
526.5129	0.0101
526.7097	-0.0004
526.9065	-0.0009
527.1033	0.0033
527.3	-0.0084
527.4968	-0.0026
527.6935	0.0009
527.8903	0.0057
528.087	0.009
528.2837	-0.0013
528.4804	0.0058
528.677	-0.0032
528.8737	-0.0086
529.0703	0.0064
529.2669	0.0052
529.4635	0.0125
529.6601	0.0046
529.8567	-0.0014
530.0532	-0.0006
530.2498	-0.0007
530.4463	0.0108
530.6428	-0.0018
530.8393	-0.0016
531.0358	0.0057
531.2322	-0.0042
531.4287	-0.0009
531.6251	-0.001
531.8215	-0.0088
532.0179	0.0015
532.2143	0.0073
532.4107	-0.0026
532.607	-0.0002
532.8034	0.0055
532.9997	0.0107
533.196	0.0069
533.3923	0.0029
533.5886	-0.0003
533.7848	-0.0105
533.9811	-0.0046
534.1773	-0.0012
534.3735	0.0068
534.5697	0.0064
534.7659	0.0033
534.9621	-0.0014
535.1582	0.0003
535.3544	0.0045
535.5505	0.0106
535.7466	-0.0046
535.9427	-0.0044
536.1387	0.0085
536.3348	0.0082
536.5308	0.0072
536.7269	-0.0074
536.9229	0.0056
537.1189	-0.0107
537.3148	-0.0128
537.5108	-0.0055
537.7068	0.0001
537.9027	0.0054
538.0986	-0.0064
538.2945	0.009
538.4904	0.0045
538.6863	0.0084
538.8821	-0.0033
539.078	-0.0014
539.2738	-0.0041
539.4696	0.0108
539.6654	0.0017
539.8611	0.0099
540.0569	0.0003
540.2526	-0.0116
540.4484	-0.0063
540.6441	0.003
540.8398	-0.003
541.0355	0.0036
541.2311	-0.0004
541.4268	0.0018
541.6224	-0.003
541.818	-0.0023
542.0136	-0.0088
542.2092	0.0064
542.4048	0.0126
542.6003	0.0001
542.7959	-0.004
542.9914	-0.002
543.1869	0.0002
543.3824	0.0019
543.5779	-0.0015
543.7734	-0.0109
543.9688	-0.005
544.1642	0.0052
544.3596	-0.0034
544.555	0.0049
544.7504	0.0072
544.9458	0.0005
545.1411	0.0025
545.3365	0.0048
545.5318	0.0056
545.7271	-0
545.9224	-0.0054
546.1177	0.0066
546.3129	-0.0077
546.5081	-0.0119
546.7034	0.0008
546.8986	0.0012
547.0938	-0.0027
547.289	0.0018
547.4841	-0.0028
547.6793	-0.0052
547.8744	-0.0032
548.0695	0.0002
548.2646	-0.0096
548.4597	-0.0028
548.6548	0.014
548.8498	-0.0024
549.0448	-0.0043
549.2399	0.0068
549.4349	0.0126
549.6298	-0.0099
549.8248	-0.0046
550.0198	0.0066
550.2147	-0.0023
550.4096	-0.0048
550.6045	0.0067
550.7994	0.0088
550.9943	-0.0056
551.1892	-0.0048
551.384	0.0176
551.5788	-0.0042
551.7737	-0.0047
551.9685	-0.0009
552.1632	-0.0015
552.358	-0.0033
552.5528	-0.0039
552.7475	-0.0041
552.9422	0.003
553.1369	0.0118
553.3316	-0.0056
553.5263	-0.0026
553.7209	-0.0049
553.9156	0.0136
554.1102	-0.0046
554.3048	-0.0037
554.4994	-0.0021
554.694	0.0085
554.8885	0.0078
555.0831	0.0008
555.2776	-0.0018
555.4721	-0.0007
555.6666	0.0006
555.8611	-0.004
556.0555	0.0015
556.25	-0.0049
556.4444	0.003
556.6388	-0.0038
556.8332	0.0041
557.0276	0.0099
557.222	-0.0075
557.4163	0.0067
557.6107	-0.0035
557.805	-0.005
557.9993	0.0021
558.1936	0.01
558.3879	-0.0099
558.5821	-0.0098
558.7764	0.0001
558.9706	-0.0078
559.1648	-0.0074
559.359	0.009
559.5532	-0.012
559.7473	-0.0032
559.9415	-0.0004
560.1356	0.003
560.3297	0.0026
560.5238	0.008
560.7179	-0.0079
560.9119	0.0133
561.106	-0.0122
561.3	-0.0029
561.494	0.0043
561.688	-0.0027
561.882	0.0068
562.076	0.0061
562.2699	-0.0014
562.4639	0.0084
562.6578	0.0061
562.8517	-0.0068
563.0456	-0.0001
563.2395	0.0012
563.4333	0.0054
563.6272	0.0126
563.821	0.0091
564.0148	-0.0058
564.2086	0.0034
564.4024	-0.0075
564.5961	0.0005
564.7899	-0.0004
564.9836	-0.0042
565.1773	-0.0058
565.371	0.0026
565.5647	-0.0137
565.7584	-0.0015
565.952	0.0047
566.1456	0.0049
566.3393	0.0141
566.5329	0.005
566.7264	0.0017
566.92	0.0009
567.1136	0.0053
567.3071	-0.0016
567.5006	0.0019
567.6941	0.0073
567.8876	-0.0043
568.0811	-0.0087
568.2745	-0.0006
568.468	0.0005
568.6614	0.0001
568.8548	0.0001
569.0482	0.0071
569.2416	-0.0016
569.4349	0.0025
569.6283	0.0006
569.8216	-0.0003
570.0149	-0.0002
570.2082	-0.0031
570.4015	0.0021
570.5947	-0.0098
570.788	-0.0015
570.9812	0.0021
571.1744	0.0008
571.3676	-0.0053
571.5608	0.0002
571.754	-0.0038
571.9471	0.0001
572.1402	0.0001
572.3333	0.0027
572.5264	0.0027
572.7195	0.0049
572.9126	-0.001
573.1057	-0.0015
573.2987	0.0037
573.4917	0.0029
573.6847	0.0029
573.8777	0.0024
574.0707	-0.0036
574.2636	0.0005
574.4566	0.0009
574.6495	0.0024
574.8424	-0.0025
575.0353	-0.0046
575.2281	0.0003
575.421	-0.001
575.6138	-0.0016
575.8067	0.0013
575.9995	-0.001
576.1923	0.0026
576.385	-0.0004
576.5778	-0.0017
576.7706	0.003
576.9633	-0.0001
577.156	0.0023
577.3487	-0.0025
577.5414	-0.0031
577.734	-0.0019
577.9267	-0.0044
578.1193	0.0015
578.3119	-0.0044
578.5045	0.0003
578.6971	-0.0004
578.8897	-0.0001
579.0822	0.0012
579.2747	-0.0021
579.4673	0.0027
579.6598	-0.003
579.8522	0.0003
580.0447	-0.0003
580.2372	0.0065
580.4296	-0.003
580.622	-0.0013
580.8144	0.0005
581.0068	0.0042
581.1992	0.0031
581.3915	0.0019
581.5839	0.0014
581.7762	0.0039
581.9685	-0.0002
582.1608	-0.0015
582.353	-0.0008
582.5453	-0.0032
582.7375	0.003
582.9298	-0.0018
583.122	-0.003
583.3142	0.0019
583.5063	-0.0054
583.6985	-0.002
583.8906	0.0007
584.0827	-0.0012
584.2749	0.001
584.4669	-0.0012
584.659	-0.0016
584.8511	0.0003
585.0431	-0.0009
585.2352	-0.0063
585.4272	0.0024
585.6192	0.0014
585.8111	-0.0056
586.0031	0.0039
586.195	0.0005
586.387	0.0018
586.5789	0.0025
586.7708	-0.0019
586.9627	-0.001
587.1545	0.0025
587.3464	-0.0017
587.5382	-0.0006
587.73	-0.0017
587.9218	0.0017
588.1136	-0.0037
588.3053	-0.0002
588.4971	0.0018
588.6888	0.0023
588.8805	0.0062
589.0722	-0.0009
589.2639	-0.0036
589.4556	-0.0037
589.6472	-0
589.8389	-0.0022
590.0305	0.0026
590.2221	0.0056
590.4137	0.0005
590.6052	-0.0032
590.7968	0.0027
590.9883	0.0009
591.1798	-0.0098
591.3713	-0.0061
591.5628	-0.0049
591.7543	0.0021
591.9458	-0.0041
592.1372	-0.0008
592.3286	-0.0018
592.52	-0.0044
592.7114	-0.008
592.9028	-0.0034
593.0941	-0.0039
593.2855	-0.0007
593.4768	0.0052
593.6681	0.0009
593.8594	-0.0009
594.0506	0.0023
594.2419	-0.0046
594.4331	-0.0028
594.6244	-0.0025
594.8156	0.0005
595.0067	0.0038
595.1979	-0.0029
595.3891	-0.003
595.5802	-0.0021
595.7713	0.0009
595.9624	0.0041
596.1535	0.0009
596.3446	-0.0063
596.5357	-0.0072
596.7267	0.006
596.9177	-0.0012
597.1087	-0.0017
597.2997	0.0009
597.4907	0.0009
597.6817	-0.0013
597.8726	0.0051
598.0635	0.0018
598.2544	-0.0024
598.4453	0.0013
598.6362	-0.0034
598.827	0.0025
599.0179	0.0013
599.2087	-0.0003
599.3995	0.0023
599.5903	0.0003
599.7811	-0.0052
599.9718	-0.0007
600.1626	-0.0053
600.3533	0.0032
600.544	-0.005
600.7347	-0.0017
600.9254	0.0013
601.116	-0.0021
601.3067	0.0033
601.4973	0.0095
601.6879	-0.0055
601.8785	0.0004
602.0691	0.0057
602.2596	-0.0027
602.4502	-0.0002
602.6407	0.0027
602.8312	0.0068
603.0217	0.0056
603.2122	0.0077
603.4027	-0.0077
603.5931	0.0024
603.7835	0.0017
603.9739	-0.0011
604.1643	-0.0019
604.3547	0.0041
604.5451	0.0006
604.7354	-0.0041
604.9257	-0.0031
605.116	0.0009
605.3063	0.0041
605.4966	-0.0022
605.6869	0.0003
605.8771	-0.0004
606.0673	-0.0053
606.2575	-0.0053
606.4477	0.0042
606.6379	0.0008
606.8281	-0.0041
607.0182	-0.0043
607.2083	0.0019
607.3985	0.0013
607.5885	0.0026
607.7786	0.0105
607.9687	-0.0018
608.1587	-0.0034
608.3488	-0.0023
608.5388	-0.0022
608.7288	0.0039
608.9187	0.0066
609.1087	-0.0011
609.2986	-0.0031
609.4886	0.0082
609.6785	0.0015
609.8684	-0.0031
610.0582	0.002
610.2481	0.0024
610.4379	0.0038
610.6278	-0.0059
610.8176	-0.0067
611.0074	0.0005
611.1971	0.0096
611.3869	0.0036
611.5766	0.0004
611.7664	0.0054
611.9561	-0.0001
612.1458	-0.0037
612.3354	-0.0004
612.5251	0.0004
612.7147	0.0044
612.9044	-0.0051
613.094	0.0051
613.2836	-0.0025
613.4731	-0.0048
613.6627	0.0038
613.8522	-0.0029
614.0417	0.0035
614.2313	-0.0109
614.4207	0.0004
614.6102	-0.0019
614.7997	-0.0036
614.9891	-0.0017
615.1785	-0.0035
615.3679	-0.0041
615.5573	-0.0051
615.7467	-0.0009
615.9361	-0.0088
616.1254	0.0049
616.3147	0.0044
616.504	-0.0012
616.6933	-0.0014
616.8826	0.004
617.0718	-0.0088
617.2611	0.003
617.4503	0.0055
617.6395	-0.0046
617.8287	0.0026
618.0179	0.0059
618.207	-0.0091
618.3961	0.0014
618.5853	0.0052
618.7744	-0.0017
618.9634	-0.004
619.1525	-0.0019
619.3416	-0.005
619.5306	-0.0035
619.7196	-0.0053
619.9086	0.0081
620.0976	-0.0009
620.2866	0.011
620.4755	0.0095
620.6645	-0.0078
620.8534	0.0012
621.0423	-0.0082
621.2312	-0.004
621.42	-0.0079
621.6089	0.004
621.7977	0.0026
621.9865	0.0009
622.1753	-0.0031
622.3641	-0.0132
622.5529	-0.0117
622.7416	-0.0148
622.9303	-0.0005
623.1191	-0.0061
623.3078	-0.0034
623.4964	-0.013
623.6851	0.0089
623.8737	0.0014
624.0624	0.0011
624.251	-0.0021
624.4396	-0.0003
624.6282	0.0018
624.8167	0.0028
625.0053	0.0059
625.1938	-0.0003
625.3823	-0.0096
625.5708	0.0068
625.7593	-0.0002
625.9477	-0.011
626.1362	0.0061
626.3246	-0.0101
626.513	0.0131
626.7014	-0.0033
626.8898	0.0092
627.0781	0.0138
627.2665	0.0083
627.4548	-0.003
627.6431	-0.0088
627.8314	0.0048
628.0197	0.0055
628.2079	-0.0024
628.3962	-0.0023
628.5844	0.0044
628.7726	-0.0057
628.9608	0.0006
629.1489	0.0109
629.3371	0.0061
629.5252	0.004
629.7134	0.0144
629.9015	-0.006
630.0895	0.006
630.2776	-0.0044
630.4657	0.006
630.6537	-0.0076
630.8417	-0.0137
631.0297	0.0021
631.2177	0.0007
631.4057	-0.0043
631.5936	-0.0038
631.7815	0.0006
631.9695	0.0112
632.1574	-0
632.3452	0.0063
632.5331	-0.0121
632.7209	0.0038
632.9088	-0.002
633.0966	0.0116
633.2844	0.0045
633.4722	0.0063
633.6599	-0.0192
633.8477	0.0034
634.0354	-0.0143
634.2231	0.0183
634.4108	-0.0031
634.5985	-0.0054
634.7861	-0.017
634.9738	0.0113
635.1614	0.011
635.349	-0.0061
635.5366	0.009
635.7242	-0.0011
635.9117	0.0127
636.0993	-0.0106
636.2868	0.0146
636.4743	0.0196
636.6618	-0.006
636.8492	-0.0005
637.0367	0.0126
637.2241	0.0059
637.4115	-0.0037
637.5989	0.0046
637.7863	-0.0169
637.9737	0.0134
638.161	0.0072
638.3484	-0.0212
638.5357	0.0041
638.723	-0.0099
638.9103	0.0014
639.0975	0.0117
639.2848	0.0205
639.472	0.0086
639.6592	0.002
639.8464	0.0059
640.0336	0.0139
640.2208	-0.0012
640.4079	0.0159
640.595	-0.0143
640.7821	-0.0072
640.9692	0.0079
641.1563	-0.0021
641.3434	0.005
641.5304	-0.0073
641.7174	0.0199
641.9044	-0.0009
642.0914	-0.0186
642.2784	0.002
642.4653	-0.0082
642.6523	0.0033
642.8392	0.0068
643.0261	0.0025
643.213	0.0049
643.3999	-0.0039
643.5867	-0.0078
643.7735	0.0075
643.9604	-0.0255
644.1472	0.012
644.3339	-0.017
644.5207	-0.0181
644.7075	-0.0017
644.8942	0.0067
645.0809	-0.013
645.2676	-0.0093
645.4543	0.0092
645.6409	-0.0068
645.8276	-0.0069
646.0142	0.0027
646.2008	0.0011
646.3874	0.0109
646.574	-0.0173
646.7605	0.0002
646.9471	0.0033
647.1336	-0.008
647.3201	-0.0146
647.5066	-0.0032
647.6931	-0.0074
647.8795	0.0031
648.0659	-0.0196
648.2524	0.0016
648.4388	-0.0021
648.6252	-0.0149
648.8115	0.0223
648.9979	-0.0007
649.1842	-0.0093
649.3705	0.0145
649.5568	-0.0075
649.7431	0.003
649.9294	-0.0039
650.1156	0.0012
650.3018	0.0069
650.488	-0.0008
650.6742	0.0066
650.8604	-0.0069
651.0466	-0.0054
651.2327	-0.0158
651.4188	-0.0249
651.6049	-0.0137
651.791	0.0046
651.9771	0.003
652.1632	-0.0011
652.3492	0.001
652.5352	0.013
652.7212	-0.0156
652.9072	-0.005
653.0932	-0.006
653.2791	-0.0009
653.465	-0.0194
653.651	0.0112
653.8369	0.0205
654.0227	-0.0044
654.2086	-0.0124
654.3944	-0.0111
654.5803	-0.0027
654.7661	-0.0026
654.9519	-0.0013
655.1377	0.0002
655.3234	0.0002
655.5092	0.0002
655.6949	0.0002
655.8806	0.0002
656.0663	0.0002
656.2519	0.0002
656.4376	0.0002
656.6232	0.0002
656.8088	0.0002
656.9945	0.0002
657.18	0.0002
657.3656	0.0002
657.5511	0.0002
657.7367	0.0002
657.9222	0.0002
658.1077	0.0002
658.2932	0.0002
658.4786	0.0002
658.6641	0.0002
658.8495	0.0002
659.0349	0.0002
659.2203	0.0002
659.4057	0.0095
659.591	0.0534
659.7764	0.0128
659.9617	-0.009
660.147	0.0102
660.3323	-0.0031
660.5176	0.0027
660.7028	-0.02
660.888	0.0074
661.0733	0.0031
661.2585	0.0053
661.4436	0.0017
661.6288	-0.0018
661.8139	0.0178
661.9991	0.0108
662.1842	0.0035
662.3693	-0.0043
662.5544	-0.0186
662.7394	0.0193
662.9245	0.003
663.1095	0.0066
663.2945	0.0158
663.4795	0.0005
663.6644	-0.0092
663.8494	0.0047
664.0343	0.0167
664.2193	-0.0124
664.4042	-0.0098
664.589	-0.033
664.7739	-0.0176
664.9587	-0.0115
665.1436	0.0027
665.3284	0.0028
665.5132	0.0071
665.698	-0.0135
665.8827	-0.013
666.0675	-0.0095
666.2522	0.0304
666.4369	-0.0041
666.6216	-0.0089
666.8063	0.0057
666.9909	-0.0042
667.1756	0.0026
667.3602	-0.0037
667.5448	0.0043
667.7294	-0.0142
667.9139	0.0031
668.0985	-0.0048
668.283	0.0034
668.4675	0.0057
668.652	-0.0184
668.8365	-0.0225
669.0209	-0.0376
669.2054	-0.0039
669.3898	-0.0029
669.5742	0.0201
669.7586	-0.0102
669.943	-0.0066
670.1273	0.024
670.3117	-0.0029
670.496	0.0241
670.6803	0.023
670.8646	0.0072
671.0488	-0.0053
671.2331	-0.002
671.4173	-0.0029
671.6015	-0.002
671.7857	-0.0152
671.9699	0.0095
672.1541	-0.0049
672.3382	-0.0075
672.5223	-0.0045
672.7064	-0.0128
672.8905	-0.0028
673.0746	-0.028
673.2587	0.0108
673.4427	-0.014
673.6267	-0.027
673.8107	-0.0021
673.9947	-0.0058
674.1787	-0.0107
674.3626	0.0111
674.5465	0.0036
674.7304	-0.0368
674.9143	0.02
675.0982	0.0041
675.2821	0.0223
675.4659	0.0006
675.6497	0.0233
675.8335	-0.0085
676.0173	0.0172
676.2011	-0.0178
676.3849	-0.004
676.5686	0.0085
676.7523	-0.0089
676.936	-0.0186
677.1197	0.0065
677.3034	0.0091
677.487	0.0026
677.6706	-0.0151
677.8542	0.0015
678.0378	0.0193
678.2214	-0.0015
678.405	0.024
678.5885	0.0051
678.772	-0.0097
678.9555	-0.0047
679.139	-0.0033
679.3225	-0.0083
679.5059	0.0043
679.6894	-0.0125
679.8728	-0.0277
680.0562	0.0041
680.2395	-0.0133
680.4229	-0.0185
680.6062	-0.0019
680.7896	0.0082
680.9729	0.0032
681.1562	-0.0088
681.3394	0.0078
681.5227	-0.0072
681.7059	-0.0032
681.8891	-0
682.0723	-0.0205
682.2555	0.0055
682.4387	-0.0001
682.6218	-0.0285
682.805	0.0014
682.9881	0.0116
683.1712	0.0041
683.3542	-0.0164
683.5373	-0.0059
683.7203	0.0196
683.9034	-0.0013
684.0864	-0.0073
684.2694	0.008
684.4523	-0.0112
684.6353	0.0181
684.8182	0.0102
685.0011	0.0051
685.184	0.0012
685.3669	-0.0133
685.5498	0.0055
685.7326	0.0005
685.9154	0.0064
686.0982	-0.0084
686.281	-0.0018
686.4638	0.0117
686.6465	0.0061
686.8293	0.0048
687.012	-0.007
687.1947	0.001
687.3774	-0.0173
687.56	0.0164
687.7427	0.0114
687.9253	0.018
688.1079	0.0139
688.2905	-0.0244
688.4731	0.0256
688.6556	-0.0069
688.8382	0.0027
689.0207	-0.0048
689.2032	-0.0237
689.3857	-0.0086
689.5681	0.0107
689.7506	0.0102
689.933	-0.0001
690.1154	-0.0165
690.2978	0.0026
690.4802	0.0183
690.6626	-0.0043
690.8449	-0.0159
691.0272	-0.0258
691.2095	0.0021
691.3918	0.0081
691.5741	0.0102
691.7563	-0.0003
691.9386	0.0017
692.1208	-0.0255
692.303	0.0107
692.4852	0.006
692.6673	-0.0056
692.8495	-0.0094
693.0316	-0.0085
693.2137	0.0134
693.3958	0.0032
693.5778	-0.0378
693.7599	-0.0255
693.9419	0.0156
694.1239	0.0003
694.3059	-0.0107
694.4879	-0.0202
694.6699	0.0033
694.8518	0.0167
695.0337	0.0025
695.2157	-0.0153
695.3975	0.0051
695.5794	-0.0297
695.7613	0.0107
695.9431	-0.0136
696.1249	0.0093
696.3067	-0.005
696.4885	-0.0215
696.6703	0.0076
696.852	-0.0189
697.0337	0.0017
697.2154	0.0006
697.3971	0.0087
697.5788	0.0106
697.7605	0.0019
697.9421	0.0083
698.1237	-0.0031
698.3053	0.0013
698.4869	0.0071
698.6685	0.0068
698.85	0.0217
699.0315	0.0072
699.213	0.0051
699.3945	0.0019
699.576	0.0007
699.7575	-0.0226
699.9389	-0.0111
700.1203	0.0028
700.3017	-0.0191
700.4831	-0.0056
700.6645	0.0199
700.8458	-0.0028
701.0271	0.0045
701.2084	0.0051
701.3897	-0.0016
701.571	-0.0067
701.7523	-0.0056
701.9335	0.0183
702.1147	-0.0109
702.2959	0.0116
702.4771	-0.005
702.6583	-0.0165
702.8394	0.0066
703.0205	0.0067
703.2016	-0.0076
703.3827	0.0208
703.5638	-0.0104
703.7449	-0.0013
703.9259	0.0182
704.1069	0.0082
704.2879	-0.0005
704.4689	-0.0155
704.6499	-0.0317
704.8308	-0.0142
705.0117	0.0119
705.1927	-0.0107
705.3735	0.0112
705.5544	-0.0052
705.7353	0.0231
705.9161	0.0186
706.0969	0.0129
706.2777	0.007
706.4585	-0
706.6393	0.014
706.82	-0.0169
707.0007	-0.0016
707.1815	0.0013
707.3621	-0.0084
707.5428	0.0164
707.7235	0.0039
707.9041	-0.0239
708.0847	-0.0033
708.2653	0.0105
708.4459	0.0153
708.6265	-0.0004
708.807	0.0279
708.9875	-0.007
709.168	0.0104
709.3485	0.0158
709.529	0.0122
709.7095	-0.0218
709.8899	0.0106
710.0703	-0.0204
710.2507	-0.0074
710.4311	0.0255
710.6115	0.0036
710.7918	-0.0053
710.9721	-0.0146
711.1524	-0.0023
711.3327	-0.0181
711.513	-0.0274
711.6932	-0.053
711.8735	0.0075
712.0537	-0.0114
712.2339	0.0091
712.4141	0.0236
712.5942	0.0039
712.7744	0.0013
712.9545	-0.0101
713.1346	-0.0033
713.3147	0.0139
713.4947	0.007
713.6748	0.0047
713.8548	0.0094
714.0348	0.0054
714.2148	-0.0033
714.3948	0.0062
714.5748	-0.0131
714.7547	-0.0177
714.9346	-0.0032
715.1145	-0.0064
715.2944	0.0191
715.4743	0.0016
715.6541	-0.0001
715.834	0.0157
716.0138	0.0023
716.1936	-0.0001
716.3733	-0.0086
716.5531	-0.0038
716.7328	-0.0332
716.9126	-0.0294
717.0923	0.0067
717.2719	-0.0103
717.4516	-0.0257
717.6312	-0.0054
717.8109	0.0018
717.9905	0.0054
718.1701	-0.0056
718.3496	-0.0125
718.5292	-0.0232
718.7087	0.0246
718.8882	0.0096
719.0677	-0.0199
719.2472	-0.004
719.4267	-0.0034
719.6061	-0.0022
719.7856	0.0021
719.965	0.0261
720.1443	-0.0165
720.3237	0.0198
720.5031	0.0022
720.6824	-0.0159
720.8617	0.0018
721.041	-0.0001
721.2203	0.0127
721.3995	-0.0079
721.5788	-0.0041
721.758	-0.0088
721.9372	0.0145
722.1164	0.0097
722.2956	0.0145
722.4747	0.0106
722.6538	-0.0117
722.8329	-0.0288
723.012	0.0186
723.1911	0.0153
723.3702	-0.0101
723.5492	-0.0145
723.7282	-0.0026
723.9072	-0.0122
724.0862	0.0078
724.2652	-0.0046
724.4441	0.0102
724.623	0.0039
724.8019	-0.0059
724.9808	-0.0015
725.1597	0.0215
725.3385	-0.0073
725.5174	0.0225
725.6962	0.0036
725.875	-0.0171
726.0538	-0.0025
726.2325	-0.0058
726.4112	0.029
726.59	-0.0113
726.7687	0.0044
726.9474	-0.0105
727.126	-0.0046
727.3047	-0.0081
727.4833	0.0162
727.6619	0.032
727.8405	0.0065
728.0191	-0.0368
728.1976	-0.0161
728.3762	-0.0293
728.5547	0.012
728.7332	-0.0127
728.9116	-0.0517
729.0901	0.0075
729.2686	-0.0258
729.447	-0.0085
729.6254	0.0275
729.8038	0.0078
729.9821	-0.0088
730.1605	-0.0031
730.3388	-0.0187
730.5171	-0.0189
730.6954	0.0097
730.8737	-0.0081
731.0519	0.0048
731.2302	-0.0061
731.4084	0.0146
731.5866	-0.0164
731.7648	-0.0261
731.9429	-0.014
732.1211	-0.0109
732.2992	-0.0024
732.4773	-0.0178
732.6554	0.0022
732.8335	-0.0066
733.0115	-0.0048
733.1896	-0.003
733.3676	-0.0081
733.5456	0.0053
733.7235	0.0142
733.9015	0.0075
734.0794	0.0042
734.2574	-0.001
734.4353	0.0106
734.6131	-0.0006
734.791	0.022
734.9689	-0.0057
735.1467	-0.0086
735.3245	-0.008
735.5023	0.0077
735.68	-0.0115
735.8578	-0.0009
736.0355	0.0085
736.2132	-0.0022
736.3909	0.0048
736.5686	-0.0028
736.7463	0.0016
736.9239	0.017
737.1015	-0.0232
737.2791	-0.0102
737.4567	-0.0042
737.6343	0.0036
737.8118	-0.0008
737.9894	-0.0004
738.1669	0.0091
738.3444	-0.0047
738.5218	0.0198
738.6993	0.0093
738.8767	0.0152
739.0541	0.033
739.2315	-0.0084
739.4089	-0.0089
739.5863	0.016
739.7636	0.0146
739.9409	-0.0142
740.1182	-0.0216
740.2955	-0.0244
740.4728	0.0477
740.65	-0.0057
740.8272	-0.006
741.0044	0.0224
741.1816	0.0078
741.3588	-0.0001
741.5359	0.0044
741.7131	0.0482
741.8902	-0.0291
742.0673	0.0019
742.2444	-0.0149
742.4214	-0.0084
742.5985	0.0155
742.7755	-0.0193
742.9525	0.0228
743.1295	-0.0085
743.3064	0.0126
743.4834	-0.0112
743.6603	-0.0146
743.8372	-0.0137
744.0141	0.0099
744.191	-0.0059
744.3678	0.0222
744.5446	0.0367
744.7215	-0.0196
744.8982	0.0095
745.075	-0.0127
745.2518	-0.022
745.4285	-0.0029
745.6052	0.0464
745.7819	-0.0006
745.9586	0.01
746.1353	-0.0051
746.3119	-0.0304
746.4885	0.0054
746.6651	-0.0408
746.8417	-0.0328
747.0183	-0.0167
747.1948	-0.0165
747.3714	0.0158
747.5479	-0.0148
747.7244	-0.019
747.9008	0.0178
748.0773	0.0402
748.2537	0.0233
748.4301	-0.0006
748.6065	-0.0496
748.7829	0.0206
748.9593	-0.0035
749.1356	0.0021
749.3119	-0.0198
749.4882	-0.0159
749.6645	0.0216
749.8408	-0.0071
750.017	-0.0032
750.1933	0.0187
750.3695	0.0013
750.5457	-0.0105
750.7218	0.0235
750.898	-0.0208
751.0741	0.0185
751.2502	-0.0041
751.4263	0.0111
751.6024	0.0175
751.7784	-0.0339
751.9545	-0.0247
752.1305	-0.0108
752.3065	0.0163
752.4825	-0.0076
752.6584	-0.0053
752.8344	0.0247
753.0103	-0.0329
753.1862	-0.0157
753.3621	-0.0007
753.5379	-0.0104
753.7138	-0.0015
753.8896	0.0058
754.0654	0.0077
754.2412	-0.0109
754.417	-0.0065
754.5927	0.0075
754.7685	-0.0241
754.9442	-0.0017
755.1199	0.0089
755.2956	0.0225
755.4712	0.0071
755.6469	-0.0167
755.8225	0.0181
755.9981	0.0021
756.1736	0.0229
756.3492	-0.0201
756.5248	-0.0166
756.7003	-0.0145
756.8758	-0.006
757.0513	-0.0002
757.2267	-0.0148
757.4022	-0.0046
757.5776	-0.0088
757.753	-0.003
757.9284	0.0017
758.1038	-0.0134
758.2791	-0.0015
758.4545	-0.0134
758.6298	-0.0127
758.8051	-0.0122
758.9803	-0.0119
759.1556	-0.0259
759.3308	0.0032
759.506	0.0115
759.6812	-0.0143
759.8564	-0.0146
760.0316	0.0109
760.2067	-0.0277
760.3819	0.0093
760.557	-0.0077
760.732	0.0088
760.9071	0.0085
761.0821	0.0099
761.2572	0.0062
761.4322	-0.0129
761.6072	-0.0375
761.7821	0.0158
761.9571	0.0068
762.132	-0.0149
762.3069	-0.0065
762.4818	-0.0163
762.6567	0.0301
762.8316	0.0147
763.0064	-0.0073
763.1812	-0.0101
763.356	0.0076
763.5308	-0.0023
763.7055	0.004
763.8803	-0.005
764.055	-0.0055
764.2297	-0.0293
764.4044	-0.0052
764.579	-0.0175
764.7537	-0.0066
764.9283	-0.0163
765.1029	0.0041
765.2775	-0.0391
765.4521	-0.0043
765.6266	-0.0137
765.8011	0.0018
765.9756	0.0122
766.1501	0.0413
766.3246	-0.0104
766.4991	-0.0022
766.6735	-0.0006
766.8479	0.0043
767.0223	0.0529
767.1967	0.0023
767.371	0.0237
767.5454	-0.0058
767.7197	-0.0014
767.894	-0.015
768.0683	-0.0148
768.2425	0.0036
768.4168	0.0149
768.591	0.0089
768.7652	-0.0146
768.9394	0.0039
769.1135	-0.0139
769.2877	-0.0013
769.4618	0.0034
769.6359	-0.0176
769.81	-0.0312
769.984	0.0228
770.1581	0.0204
770.3321	-0.0227
770.5061	0.0071
770.6801	0.0205
770.8541	-0.01
771.028	-0.0083
771.202	-0.0351
771.3759	-0.0005
771.5498	-0.0211
771.7236	-0.0107
771.8975	-0.0178
772.0713	0.0072
772.2451	-0.0025
772.4189	-0.0011
772.5927	-0.0106
772.7665	0.0195
772.9402	0.0146
773.1139	0.0044
773.2876	0.0021
773.4613	-0.0001
773.635	-0.0086
773.8086	0.0044
773.9822	-0.0181
774.1558	0.0122
774.3294	-0.0448
774.503	-0.0131
774.6765	0.0208
774.8501	-0.0087
775.0236	0.0388
775.1971	-0.0048
775.3705	0.0064
775.544	-0.0019
775.7174	-0.0126
775.8908	0.0132
776.0642	0.05
776.2376	-0.0367
776.4109	0.0772
776.5843	-0.0347
776.7576	0.0655
776.9309	0.0782
777.1041	-0.027
777.2774	0.0266
777.4506	0.0339
777.6238	0.0059
777.797	-0.0009
777.9702	0.0499
778.1434	-0.0211
778.3165	-0.0001
778.4896	0.0005
778.6627	0.0179
778.8358	0.0059
779.0089	-0.0329
779.1819	0.0005
779.3549	0.0359
779.5279	-0.0116
779.7009	-0.0016
779.8739	-0.0001
780.0468	0.0459
780.2197	-0.0269
780.3926	-0.032
780.5655	-0.023
780.7384	0.0163
780.9112	0.0113
781.0841	-0.0175
781.2569	-0.0205
781.4297	0.0126
781.6024	0.0291
781.7752	-0.0236
781.9479	0.0005
782.1206	-0.0224
782.2933	-0.0121
782.466	-0.0036
782.6386	0.0091
782.8113	-0.0297
782.9839	-0.0052
783.1565	-0.0007
783.329	-0.0012
783.5016	-0.0286
783.6741	-0.0214
783.8466	-0.0625
784.0191	-0.0375
784.1916	-0.0001
784.3641	-0.041
784.5365	0.0172
784.7089	0.0121
784.8813	0.0531
785.0537	0.0036
785.2261	0.0038
785.3984	-0.003
785.5707	0.0143
785.743	-0.0628
785.9153	0.0175
786.0876	-0.0339
786.2598	0.0306
786.432	-0.0292
786.6042	0.0262
786.7764	0.0183
786.9486	0.0502
787.1207	0.0057
787.2928	-0.0184
787.4649	0.0181
787.637	0.0501
787.8091	0.0081
787.9811	-0.0041
788.1532	-0.006
788.3252	-0.0235
788.4972	-0.0007
788.6691	0.0394
788.8411	0.0096
789.013	-0.0206
789.1849	-0.0071
789.3568	0.0077
789.5287	-0.0019
789.7005	0.0247
789.8723	-0.0256
790.0442	-0.0487
790.2159	0.0893
790.3877	0.0468
790.5595	0.0191
790.7312	-0.0208
790.9029	0.007
791.0746	0.0032
791.2463	0.0143
791.4179	-0.0165
791.5896	-0.0571
791.7612	-0.054
791.9328	-0.0336
792.1044	-0.0558
792.2759	-0.0155
792.4474	-0.0386
792.619	0.0517
792.7905	0.031
792.9619	0.0241
793.1334	0.0297
793.3048	0.0161
793.4762	-0.0553
793.6476	-0.023
793.819	0.0142
793.9904	0.0052
794.1617	0.0427
794.333	-0.0315
794.5043	-0.0277
794.6756	0.0163
794.8469	-0.0119
795.0181	-0.0112
795.1893	0.009
795.3605	-0.023
795.5317	0.0251
795.7029	0.0188
795.874	-0.0215
796.0452	0.019
796.2163	-0.04
796.3873	0.0081
796.5584	-0.0144
796.7294	-0.0587
796.9005	0.0231
797.0715	0.0071
797.2425	-0.1023
797.4134	-0.0013
797.5844	0.0277
797.7553	-0.0597
797.9262	0.0366
798.0971	-0.0359
798.2679	0.0034
798.4388	-0.0738
798.6096	0.0133
798.7804	-0.004
798.9512	0.045
799.122	0.0367
799.2927	-0.0451
799.4635	0.0512
799.6342	-0.0296
799.8049	0.0822
799.9755	0.0752
800.1462	0.1196
800.3168	-0.0261
800.4874	0.0664
800.658	-0.011
800.8286	-0.0981
800.9991	0.0874
801.1696	-0.0563
801.3402	-0.1096
801.5106	-0.0525
801.6811	-0.0128
801.8516	-0.0401
802.022	-0.0223
802.1924	-0.1125
802.3628	0.002
802.5332	0.0472
802.7035	0.0283
802.8739	0.0222
803.0442	-0.0403
803.2145	0.0299
803.3847	-0.0281
803.555	-0.0089
803.7252	0.0508
803.8954	0.0194
804.0656	0.0013
804.2358	-0.0399
804.4059	0.1535
804.5761	0.093
804.7462	0.0072
804.9163	-0.0647
805.0864	0.041
805.2564	0.0464
805.4264	-0.0618
805.5965	0.0257
805.7665	0.0642
805.9364	-0.0506
806.1064	-0.0381
806.2763	0.0067
806.4462	0.0097
806.6161	0.0345
806.786	-0.0276
806.9559	0.0776
807.1257	-0.0065
807.2955	0.004
807.4653	0.0093
807.6351	-0.026
807.8048	-0.0478
807.9746	-0.0716
808.1443	0.016
808.314	0.0249
808.4837	-0.0343
808.6533	0.0302
808.8229	-0.076
808.9926	0.0894
809.1622	0.0298
809.3317	0.0435
809.5013	0.057
809.6708	0.051
809.8403	0.0362
810.0098	0.138
810.1793	0.0894
810.3488	0.0638
810.5182	0.0279
810.6876	-0.008
810.857	-0.0294
811.0264	-0.0158
811.1958	-0.0327
811.3651	0.018
811.5344	-0.0453
811.7037	0.0886
811.873	0.0746
812.0422	0.0188
812.2115	0.0066
812.3807	0.1226
812.5499	0.0188
812.7191	0.1399
812.8882	0.0215
813.0574	-0.1619
813.2265	0.059
813.3956	0.0019
813.5646	0.0742
813.7337	-0.1025
813.9027	0.0016
814.0718	0.0124
814.2407	-0.0794
814.4097	0.0144
814.5787	0.0102
814.7476	0.0186
814.9165	-0.005
815.0854	0.1961
815.2543	-0.0264
815.4232	-0.0258
815.592	0.1041
815.7608	-0.0032
815.9296	0.0704
816.0984	0.1879
816.2671	-0.1343
816.4359	-0.0004
816.6046	0.028
816.7733	-0.0571
816.942	0.0637
817.1106	-0.2524
817.2793	-0.0034
817.4479	-0.0632
817.6165	0.0305
817.785	0.0469
817.9536	0.0472
818.1221	0.1205
818.2906	0.1506
818.4591	0.0406
818.6276	-0.0244
818.7961	0.168
818.9645	0.0265
819.1329	0.4243
819.3013	0.0663
819.4697	0.6151
819.638	-0.0723
819.8064	0.043
819.9747	0.066
820.143	-0.1243
820.3113	0.1191
820.4795	0.0764
820.6477	-0.0914
820.816	-0.0712
820.9842	0.0058
821.1523	0.1524
821.3205	0.0226
821.4886	-0.025
821.6567	0.0578
821.8248	0.0909
821.9929	-0.0504
822.1609	0.0758
822.329	0.1091
822.497	-0.0444
822.665	0.1192
822.833	-0.0225
823.0009	-0.1716
823.1688	0.0399
823.3367	0.0431
823.5046	0.0672
823.6725	0.1296
823.8404	0.1269
824.0082	0.0715
824.176	0.1172
824.3438	0.1947
824.5116	0.1554
824.6793	0.0102
824.847	0.2459
825.0147	0.1719
825.1824	0.1133
825.3501	0.197
825.5177	0.2881
825.6854	0.0491
825.853	0.0862
826.0206	0.0212
826.1881	0.0928
826.3557	0.2114
826.5232	0.2023
826.6907	0.0891
826.8582	-0.0765
827.0257	-0.0009
827.1931	0.0696
827.3605	0.0856
827.528	0.0519
827.6953	0.0549
827.8627	0.0738
828.03	0.0286
828.1974	0.0248
828.3647	0.1232
828.532	0.2041
828.6992	0.0577
828.8665	0.0277
829.0337	-0.018
829.2009	0.1453
829.3681	0.2175
829.5352	0.0723
829.7024	0.0096
829.8695	0.0711
830.0366	0.0903
830.2037	0.1053
830.3707	0.0522
830.5378	0.2441
830.7048	-0.1508
830.8718	-0.0914
831.0388	0.3555
831.2057	-0.4105
831.3727	0.1481
831.5396	0.1378
831.7065	0.2858
831.8734	0.1568
832.0402	0.032
832.2071	-0
832.3739	0.6179
832.5407	-0
832.7075	-0.069
832.8742	0.3577
833.041	0.1843
833.2077	1.122
833.3744	0.1079
833.541	0.0635
833.7077	0.1158
833.8743	0.1566
834.0409	-0.1241
834.2075	0.006
834.3741	0.1305
834.5407	0.2542
834.7072	0.037
834.8737	0.1575
835.0402	-0.1536
835.2067	0.1885
835.3731	0.0723
835.5395	0.0171
835.706	0.1398
835.8723	0.2348
836.0387	0.2778
836.2051	1.142
836.3714	0.0413
836.5377	-0.2525
836.704	0.0666
836.8703	0.1769
837.0365	2.0899
837.2027	-0
837.3689	-0.0677
837.5351	0.3809
837.7013	1.1428
837.8674	-0
838.0335	0.2698
838.1997	0.7988
838.3657	-0
838.5318	-0.803
838.6978	-0
838.8639	0.645
839.0299	0.2667
839.1958	0.418
839.3618	0.7673
839.5277	0.0309
839.6937	-0.3602
839.8596	0.0064
840.0254	0.7047
840.1913	0.3301
840.3571	0.5346
840.523	-0.1498
840.6888	-0.0206
840.8545	-0.2379
841.0203	0.0467
841.186	-0.1519
841.3517	0.1162
841.5174	0.5388
841.6831	0.3898
841.8488	0.6059
842.0144	-0
842.18	0.4934
842.3456	0.2187
842.5112	1.11
842.6767	-0.2743
842.8422	-0.1511
843.0077	-0.0872
843.1732	0.5534
843.3387	-0
843.5042	-0
843.6696	-0
843.835	0.1072
844.0004	-0.0498
844.1657	-0
844.3311	-0.3337
844.4964	0.8601
844.6617	-0
844.827	1.1845
844.9923	0.0677
845.1575	-0.8742
845.3227	-0.1
845.4879	-0.0801
845.6531	-0.2496
845.8183	0.3273
845.9834	0.2714
846.1485	-0.2585
846.3136	0.7333
846.4787	-0
846.6438	0.3888
846.8088	-0
846.9738	-0.1603
847.1388	0.3369
847.3038	-0
847.4687	-0
847.6337	0.5784
847.7986	0.1162
847.9635	0.2206
848.1284	-0
848.2932	-0.2453
848.458	0.5375
848.6228	-0
848.7876	0.1253
848.9524	-0
849.1172	0.821
849.2819	-0
849.4466	0.1012
849.6113	-0.0627
849.7759	-0
849.9406	-0.0929
850.1052	-0.0366
850.2698	-0
850.4344	0.3745
850.599	0.8489
850.7635	0.0587
850.928	0.7296
851.0925	0.2087
851.257	-0.143
851.4215	-0
851.5859	0.2295
851.7503	0.5298
851.9147	-0.7861
852.0791	-0.1966
852.2434	0.112
852.4078	-0
852.5721	0.7009
852.7364	0.0642
852.9007	-0.2379
853.0649	0.8548
853.2291	0.0168
853.3934	0.3807
853.5575	-0.288
853.7217	-0
853.8859	1.0829
854.05	-0.777
854.2141	-0
854.3782	0.5593
854.5423	-0.4693
854.7063	0.1343
854.8703	1.0534
855.0343	0.0113
855.1983	0.1076
855.3623	0.0405
855.5262	-0
855.6901	-0
855.854	-0.3703
856.0179	-0
856.1818	-0.5371
856.3456	0.4403
856.5094	-0.1418
856.6732	0.3267
856.837	0.8132
857.0008	0.0192
857.1645	-0.0506
857.3282	-0.1764
857.4919	1.0646
857.6556	0.4771
857.8192	0.4615
857.9828	-0.214
858.1465	0.8132
858.31	-0
858.4736	-0.0113
858.6372	-0.1536
858.8007	-0.031
858.9642	0.7814
859.1277	-0.7082
859.2911	-0.0316
859.4546	0.2676
859.618	0.9174
859.7814	-0
859.9448	-0.1653
860.1081	-0.3401
860.2715	0.8999
860.4348	0.142
860.5981	0.0462
860.7614	0.2636
860.9246	-0.3777
861.0879	0.1361
861.2511	-0
861.4143	-0
861.5774	-0
861.7406	-0
861.9037	-0
862.0668	-0
862.2299	-1.7609
862.393	0.1119
862.556	-0.0064
862.7191	0.0165
862.8821	0.1331
863.0451	0.427
863.208	-0
863.371	0.7605
863.5339	0.0787
863.6968	1.4683
863.8597	-0
864.0225	-0.2435
864.1854	-0.1753
864.3482	0.4771
864.511	-0.0627
864.6737	-0
864.8365	0.3927
864.9992	-0.1613
865.1619	0.172
865.3246	-0.3727
865.4873	-0.2954
865.65	-0.6761
865.8126	-0
865.9752	-0.255
866.1378	-0.8247
866.3004	0.045
866.4629	0.0107
866.6254	-1.1296
866.7879	-0.0537
866.9504	-0
867.1129	-0
867.2753	-0.0783
867.4377	0.556
867.6001	-0.0979
867.7625	-0.1024
867.9249	-0
868.0872	-0
868.2495	-0
868.4118	-0.0039
868.5741	-0
868.7363	1.0602
868.8986	-0.4541
869.0608	0.7753
869.223	-0.0089
869.3851	0.4632
869.5473	-1.2435
869.7094	-0.1587
869.8715	-0
870.0336	-0.0062
870.1957	-0.7533
870.3577	0.1437
870.5197	0.8042
870.6817	-0
870.8437	0.5295
871.0057	-0
871.1676	0.3145
871.3295	-0.015
871.4914	-0
871.6533	-0
871.8151	-0
871.977	0.4845
872.1388	-0.462
872.3006	0.1418
872.4623	-0
872.6241	-0.2218
872.7858	-0
872.9475	-0.6368
873.1092	0.0894
873.2709	0.1644
873.4325	0.1224
873.5941	-0.8576
873.7557	-0.4398
873.9173	-0
874.0789	0.1863
874.2404	-0.4062
874.4019	0.5508
874.5634	0.1926
874.7249	-0
874.8863	-0.4306
875.0478	0.1702
875.2092	-0
875.3706	-0
875.5319	-0.162
875.6933	-0
875.8546	-0
876.0159	-0
876.1772	-0.8298
876.3385	-0.3034
876.4997	-0.166
876.6609	-0
876.8221	0.2619
876.9833	-0.2091
877.1445	0.5574
877.3056	0.8687
877.4667	-0
877.6278	-0
877.7889	0.7496
877.9499	-0
878.111	-0.0012
878.272	-0
878.433	-0.1968
878.5939	0.3497
878.7549	-0
878.9158	-0.6417
879.0767	-0
879.2376	-0
879.3984	1.0855
879.5593	-0.2549
879.7201	-0
879.8809	0.7032
880.0417	0.0916
880.2024	0.1824
880.3632	-0.1085
880.5239	-0.1124
880.6846	-0
880.8452	-0.0283
881.0059	-0.482
881.1665	0.7648
881.3271	-0.2247
881.4877	0.2321
881.6483	-1.4168
881.8088	0.2898
881.9693	1.0812
882.1298	1.0812
882.2903	1.0812
