Data from D4ACN5uM480nmA_Absorbance_12-08-01-465.txt Node
Date: Fri Feb 21 12:08:01 GMT 2025
User: LASERRRRR
Spectrometer: FLMT03099
Trigger mode: 0
Integration Time (sec): 1.500000E-2
Scans to average: 1
Electric dark correction enabled: true
Nonlinearity correction enabled: false
Boxcar width: 0
XAxis mode: Wavelengths
Number of Pixels in Spectrum: 3648
>>>>>Begin Spectral Data<<<<<
179.3399	-0
179.5586	-0
179.7771	-0
179.9957	0.1681
180.2143	-0.0104
180.4329	1.1366
180.6514	-0
180.8699	-0
181.0885	0.2105
181.307	-0.0479
181.5255	-0
181.744	-0
181.9625	1.2144
182.181	0.4187
182.3994	-0
182.6179	-1.0185
182.8363	0.1118
183.0547	-0
183.2732	0.4528
183.4916	0.2602
183.71	0.6141
183.9284	0.2508
184.1467	-0.1051
184.3651	0.2602
184.5835	-0.0117
184.8018	0.3024
185.0201	0.2579
185.2385	0.2866
185.4568	0.3868
185.6751	0.1598
185.8934	0.7773
186.1117	0.0646
186.3299	0.3023
186.5482	0.2189
186.7664	0.7351
186.9847	0.3776
187.2029	0.2507
187.4211	0.169
187.6393	0.3885
187.8575	0.214
188.0757	0.91
188.2939	0.256
188.512	0.1321
188.7302	0.2657
188.9483	0.2437
189.1665	0.993
189.3846	0.0115
189.6027	0.2517
189.8208	0.2063
190.0389	0.2085
190.257	0.1643
190.475	0.1609
190.6931	0.1961
190.9111	0.3702
191.1292	0.1997
191.3472	0.3473
191.5652	0.6414
191.7832	0.2738
192.0012	0.4443
192.2192	0.2506
192.4371	0.1992
192.6551	0.4006
192.873	0.3626
193.091	0.2999
193.3089	0.2771
193.5268	0.4721
193.7447	0.5166
193.9626	0.3654
194.1805	0.2473
194.3984	0.3312
194.6162	0.4983
194.8341	0.6813
195.0519	0.4475
195.2697	0.5955
195.4875	0.5994
195.7054	0.4504
195.9231	0.4786
196.1409	0.3842
196.3587	0.5258
196.5765	0.4623
196.7942	0.6197
197.012	0.5739
197.2297	0.5294
197.4474	0.6397
197.6651	0.6857
197.8828	0.5566
198.1005	0.6994
198.3182	0.6313
198.5358	0.5998
198.7535	0.6328
198.9711	0.5266
199.1888	0.5886
199.4064	0.5907
199.624	0.5964
199.8416	0.6039
200.0592	0.4949
200.2767	0.6191
200.4943	0.6201
200.7119	0.6805
200.9294	0.618
201.1469	0.687
201.3645	0.5805
201.582	0.4921
201.7995	0.67
202.017	0.5166
202.2344	0.5322
202.4519	0.5677
202.6694	0.5935
202.8868	0.5368
203.1042	0.5693
203.3217	0.5325
203.5391	0.5539
203.7565	0.5241
203.9739	0.5186
204.1913	0.5698
204.4086	0.5068
204.626	0.5252
204.8433	0.5112
205.0607	0.4949
205.278	0.5568
205.4953	0.4834
205.7126	0.5063
205.9299	0.4506
206.1472	0.4785
206.3644	0.4731
206.5817	0.433
206.7989	0.5389
207.0162	0.4257
207.2334	0.4194
207.4506	0.4249
207.6678	0.4515
207.885	0.4528
208.1022	0.4779
208.3194	0.4546
208.5365	0.4094
208.7537	0.4419
208.9708	0.4422
209.1879	0.4167
209.405	0.4289
209.6222	0.4131
209.8392	0.4123
210.0563	0.4262
210.2734	0.3928
210.4905	0.4104
210.7075	0.4657
210.9245	0.3977
211.1416	0.4273
211.3586	0.4217
211.5756	0.3905
211.7926	0.4229
212.0096	0.4019
212.2265	0.4078
212.4435	0.415
212.6604	0.4007
212.8774	0.3954
213.0943	0.4055
213.3112	0.4083
213.5281	0.422
213.745	0.3838
213.9619	0.406
214.1788	0.403
214.3956	0.3986
214.6125	0.4058
214.8293	0.3947
215.0461	0.4098
215.2629	0.3763
215.4798	0.3813
215.6965	0.389
215.9133	0.4115
216.1301	0.416
216.3469	0.4138
216.5636	0.3903
216.7803	0.4084
216.9971	0.4387
217.2138	0.4179
217.4305	0.4233
217.6472	0.4046
217.8639	0.4083
218.0805	0.4261
218.2972	0.4226
218.5138	0.4365
218.7305	0.3986
218.9471	0.4022
219.1637	0.4298
219.3803	0.4251
219.5969	0.4325
219.8135	0.4364
220.0301	0.4216
220.2466	0.424
220.4632	0.4251
220.6797	0.422
220.8962	0.4303
221.1127	0.4154
221.3292	0.4242
221.5457	0.4384
221.7622	0.4365
221.9787	0.4321
222.1951	0.4477
222.4116	0.4403
222.628	0.4394
222.8444	0.4436
223.0608	0.4316
223.2772	0.4274
223.4936	0.4476
223.71	0.4349
223.9264	0.4424
224.1427	0.4604
224.3591	0.4518
224.5754	0.4593
224.7917	0.4603
225.008	0.453
225.2243	0.456
225.4406	0.4559
225.6569	0.4605
225.8732	0.4613
226.0894	0.4751
226.3057	0.4606
226.5219	0.4715
226.7381	0.4683
226.9543	0.4635
227.1705	0.465
227.3867	0.4812
227.6029	0.4803
227.8191	0.5042
228.0352	0.4931
228.2513	0.4903
228.4675	0.4856
228.6836	0.4986
228.8997	0.4961
229.1158	0.4826
229.3319	0.5078
229.548	0.5012
229.764	0.5059
229.9801	0.5012
230.1961	0.5083
230.4121	0.5094
230.6282	0.5124
230.8442	0.5098
231.0602	0.5268
231.2761	0.5227
231.4921	0.5172
231.7081	0.5115
231.924	0.5186
232.14	0.5214
232.3559	0.5307
232.5718	0.5284
232.7877	0.5219
233.0036	0.5258
233.2195	0.5266
233.4353	0.5316
233.6512	0.5235
233.867	0.5221
234.0829	0.5355
234.2987	0.5294
234.5145	0.54
234.7303	0.5196
234.9461	0.5345
235.1619	0.5217
235.3776	0.5262
235.5934	0.535
235.8091	0.5268
236.0249	0.5295
236.2406	0.5384
236.4563	0.5342
236.672	0.5236
236.8877	0.5343
237.1034	0.5359
237.319	0.5343
237.5347	0.5187
237.7503	0.539
237.966	0.5351
238.1816	0.5296
238.3972	0.5488
238.6128	0.544
238.8284	0.5371
239.0439	0.538
239.2595	0.5302
239.475	0.5319
239.6906	0.5245
239.9061	0.5261
240.1216	0.5266
240.3371	0.5295
240.5526	0.5125
240.7681	0.5244
240.9836	0.5197
241.199	0.5134
241.4145	0.5072
241.6299	0.5047
241.8453	0.4883
242.0607	0.4826
242.2761	0.4819
242.4915	0.4725
242.7069	0.4736
242.9223	0.4563
243.1376	0.4566
243.353	0.4468
243.5683	0.4363
243.7836	0.4361
243.9989	0.4203
244.2142	0.417
244.4295	0.4099
244.6448	0.3901
244.86	0.3906
245.0753	0.3731
245.2905	0.3759
245.5057	0.3708
245.721	0.3574
245.9362	0.354
246.1514	0.3402
246.3665	0.3368
246.5817	0.3373
246.7969	0.3254
247.012	0.3216
247.2271	0.3039
247.4423	0.3133
247.6574	0.3133
247.8725	0.3005
248.0876	0.2959
248.3026	0.288
248.5177	0.2811
248.7328	0.2803
248.9478	0.2724
249.1628	0.2695
249.3779	0.2593
249.5929	0.2635
249.8079	0.2537
250.0228	0.2543
250.2378	0.2532
250.4528	0.2592
250.6677	0.2427
250.8827	0.2388
251.0976	0.2362
251.3125	0.2361
251.5274	0.2337
251.7423	0.2273
251.9572	0.2227
252.172	0.2217
252.3869	0.2197
252.6017	0.2186
252.8166	0.2167
253.0314	0.2189
253.2462	0.2166
253.461	0.2167
253.6758	0.2095
253.8906	0.2097
254.1053	0.2074
254.3201	0.2
254.5348	0.1985
254.7496	0.2036
254.9643	0.2017
255.179	0.2002
255.3937	0.1955
255.6083	0.1958
255.823	0.1943
256.0377	0.195
256.2523	0.1972
256.467	0.1957
256.6816	0.1923
256.8962	0.1988
257.1108	0.1923
257.3254	0.1956
257.54	0.1877
257.7545	0.1895
257.9691	0.1821
258.1836	0.1935
258.3981	0.1884
258.6127	0.1795
258.8272	0.1916
259.0417	0.1773
259.2561	0.1787
259.4706	0.1898
259.6851	0.1883
259.8995	0.1791
260.114	0.1805
260.3284	0.1862
260.5428	0.182
260.7572	0.1853
260.9716	0.1866
261.186	0.1811
261.4003	0.1844
261.6147	0.1884
261.829	0.1822
262.0433	0.1818
262.2577	0.1909
262.472	0.186
262.6863	0.1892
262.9005	0.1856
263.1148	0.1846
263.3291	0.1906
263.5433	0.1883
263.7576	0.1808
263.9718	0.1862
264.186	0.1862
264.4002	0.1827
264.6144	0.1858
264.8286	0.1858
265.0427	0.1904
265.2569	0.1863
265.471	0.1816
265.6851	0.1817
265.8993	0.1863
266.1134	0.1815
266.3275	0.1873
266.5415	0.185
266.7556	0.1804
266.9697	0.1829
267.1837	0.1803
267.3978	0.193
267.6118	0.188
267.8258	0.1821
268.0398	0.179
268.2538	0.18
268.4677	0.179
268.6817	0.1771
268.8957	0.1775
269.1096	0.1782
269.3235	0.1801
269.5374	0.1802
269.7514	0.1857
269.9652	0.1789
270.1791	0.1842
270.393	0.1839
270.6068	0.1739
270.8207	0.1814
271.0345	0.17
271.2483	0.1748
271.4622	0.1789
271.676	0.1747
271.8897	0.1694
272.1035	0.171
272.3173	0.1728
272.531	0.1664
272.7448	0.1686
272.9585	0.1757
273.1722	0.1768
273.3859	0.1721
273.5996	0.1733
273.8133	0.1708
274.0269	0.1721
274.2406	0.1702
274.4542	0.1689
274.6679	0.1679
274.8815	0.1736
275.0951	0.1757
275.3087	0.1706
275.5223	0.17
275.7358	0.1743
275.9494	0.1714
276.1629	0.1765
276.3765	0.1714
276.59	0.169
276.8035	0.1791
277.017	0.1813
277.2305	0.1751
277.444	0.1793
277.6574	0.1742
277.8709	0.1797
278.0843	0.1794
278.2978	0.1845
278.5112	0.1799
278.7246	0.1748
278.938	0.179
279.1513	0.1843
279.3647	0.1773
279.5781	0.1785
279.7914	0.1809
280.0047	0.1769
280.2181	0.1851
280.4314	0.1784
280.6447	0.1797
280.8579	0.1795
281.0712	0.1852
281.2845	0.1839
281.4977	0.1866
281.711	0.1821
281.9242	0.185
282.1374	0.1837
282.3506	0.1883
282.5638	0.1828
282.7769	0.1817
282.9901	0.1828
283.2033	0.1852
283.4164	0.1829
283.6295	0.182
283.8426	0.1866
284.0557	0.187
284.2688	0.1863
284.4819	0.1918
284.695	0.193
284.908	0.1921
285.1211	0.1939
285.3341	0.2
285.5471	0.1976
285.7601	0.1941
285.9731	0.1882
286.1861	0.1922
286.3991	0.1866
286.612	0.1928
286.825	0.1904
287.0379	0.1943
287.2508	0.195
287.4637	0.198
287.6766	0.1938
287.8895	0.1909
288.1024	0.1945
288.3152	0.1927
288.5281	0.1972
288.7409	0.1974
288.9538	0.1937
289.1666	0.1966
289.3794	0.2015
289.5922	0.1928
289.8049	0.2032
290.0177	0.2012
290.2304	0.1986
290.4432	0.2021
290.6559	0.1918
290.8686	0.1986
291.0813	0.1966
291.294	0.2036
291.5067	0.1973
291.7194	0.1992
291.932	0.2047
292.1447	0.2003
292.3573	0.1984
292.5699	0.2033
292.7825	0.2049
292.9951	0.1968
293.2077	0.2036
293.4203	0.2001
293.6328	0.1974
293.8454	0.1984
294.0579	0.2047
294.2704	0.2012
294.4829	0.1919
294.6954	0.199
294.9079	0.2077
295.1204	0.1962
295.3328	0.1959
295.5453	0.2
295.7577	0.1976
295.9701	0.1978
296.1825	0.1974
296.3949	0.2048
296.6073	0.2053
296.8197	0.2006
297.0321	0.198
297.2444	0.1975
297.4567	0.1971
297.6691	0.1953
297.8814	0.1996
298.0937	0.1997
298.306	0.1973
298.5182	0.2033
298.7305	0.1958
298.9428	0.1977
299.155	0.198
299.3672	0.2029
299.5794	0.1954
299.7916	0.1969
300.0038	0.1954
300.216	0.2018
300.4282	0.1935
300.6403	0.1963
300.8525	0.2001
301.0646	0.1963
301.2767	0.1985
301.4888	0.1957
301.7009	0.1977
301.913	0.2026
302.125	0.2001
302.3371	0.1952
302.5491	0.1986
302.7612	0.1974
302.9732	0.1922
303.1852	0.194
303.3972	0.196
303.6092	0.2004
303.8211	0.1866
304.0331	0.1949
304.245	0.187
304.457	0.1996
304.6689	0.1959
304.8808	0.1938
305.0927	0.1915
305.3046	0.1864
305.5164	0.1824
305.7283	0.191
305.9401	0.1851
306.152	0.1757
306.3638	0.1774
306.5756	0.1863
306.7874	0.1798
306.9992	0.178
307.2109	0.1698
307.4227	0.1715
307.6344	0.1804
307.8462	0.1706
308.0579	0.1697
308.2696	0.1627
308.4813	0.1619
308.693	0.1611
308.9046	0.1576
309.1163	0.1614
309.328	0.1542
309.5396	0.159
309.7512	0.154
309.9628	0.151
310.1744	0.1506
310.386	0.1511
310.5976	0.1445
310.8091	0.1501
311.0207	0.1485
311.2322	0.1466
311.4437	0.1423
311.6552	0.1462
311.8667	0.1349
312.0782	0.1413
312.2897	0.1389
312.5012	0.1414
312.7126	0.1334
312.924	0.13
313.1355	0.133
313.3469	0.1327
313.5583	0.1304
313.7696	0.1278
313.981	0.1286
314.1924	0.1273
314.4037	0.1224
314.6151	0.1257
314.8264	0.1308
315.0377	0.1254
315.249	0.1176
315.4603	0.1236
315.6716	0.1244
315.8828	0.1166
316.0941	0.1222
316.3053	0.1228
316.5165	0.1175
316.7277	0.1244
316.9389	0.1253
317.1501	0.1201
317.3613	0.111
317.5724	0.1208
317.7836	0.1161
317.9947	0.1099
318.2058	0.1163
318.417	0.1226
318.6281	0.112
318.8391	0.1167
319.0502	0.1187
319.2613	0.1157
319.4723	0.1179
319.6834	0.1176
319.8944	0.1206
320.1054	0.1159
320.3164	0.1122
320.5274	0.1141
320.7383	0.1134
320.9493	0.1142
321.1602	0.1127
321.3712	0.1189
321.5821	0.1131
321.793	0.1166
322.0039	0.1203
322.2148	0.117
322.4257	0.1158
322.6365	0.1123
322.8474	0.1162
323.0582	0.1214
323.269	0.1097
323.4798	0.1215
323.6906	0.1172
323.9014	0.1107
324.1122	0.117
324.3229	0.1175
324.5337	0.1197
324.7444	0.1143
324.9551	0.1171
325.1658	0.1158
325.3765	0.1156
325.5872	0.1187
325.7979	0.1233
326.0085	0.12
326.2192	0.1162
326.4298	0.1252
326.6404	0.1173
326.851	0.1223
327.0616	0.1243
327.2722	0.1205
327.4828	0.1135
327.6933	0.1157
327.9039	0.1152
328.1144	0.1173
328.3249	0.1208
328.5354	0.1227
328.7459	0.1258
328.9564	0.1256
329.1669	0.122
329.3773	0.1184
329.5878	0.1227
329.7982	0.1245
330.0086	0.1244
330.219	0.1269
330.4294	0.1254
330.6398	0.1334
330.8502	0.1207
331.0605	0.1218
331.2708	0.1209
331.4812	0.1251
331.6915	0.124
331.9018	0.1225
332.1121	0.1261
332.3224	0.1203
332.5326	0.1308
332.7429	0.1238
332.9531	0.127
333.1633	0.1265
333.3735	0.1255
333.5837	0.129
333.7939	0.1326
334.0041	0.1213
334.2143	0.1267
334.4244	0.1247
334.6346	0.1257
334.8447	0.1311
335.0548	0.1234
335.2649	0.1247
335.475	0.1273
335.685	0.1227
335.8951	0.1301
336.1051	0.1304
336.3152	0.1298
336.5252	0.125
336.7352	0.1172
336.9452	0.1316
337.1552	0.1304
337.3652	0.1306
337.5751	0.1246
337.7851	0.1282
337.995	0.1257
338.2049	0.1338
338.4148	0.1356
338.6247	0.1296
338.8346	0.1249
339.0445	0.1319
339.2543	0.1318
339.4642	0.1377
339.674	0.137
339.8838	0.1311
340.0936	0.1313
340.3034	0.1347
340.5132	0.1283
340.7229	0.1343
340.9327	0.1415
341.1424	0.1378
341.3522	0.1356
341.5619	0.1339
341.7716	0.1332
341.9813	0.1404
342.1909	0.1409
342.4006	0.1387
342.6102	0.1406
342.8199	0.1398
343.0295	0.1401
343.2391	0.137
343.4487	0.1433
343.6583	0.1461
343.8679	0.1472
344.0774	0.1405
344.287	0.1413
344.4965	0.1456
344.706	0.1477
344.9155	0.1477
345.125	0.1482
345.3345	0.1484
345.544	0.1513
345.7534	0.1483
345.9629	0.1514
346.1723	0.1514
346.3817	0.1491
346.5911	0.1553
346.8005	0.1479
347.0099	0.1533
347.2193	0.1494
347.4286	0.148
347.638	0.1546
347.8473	0.154
348.0566	0.1618
348.2659	0.1591
348.4752	0.1517
348.6845	0.1691
348.8937	0.1637
349.103	0.1526
349.3122	0.1577
349.5214	0.1599
349.7306	0.1563
349.9398	0.1621
350.149	0.1664
350.3582	0.1577
350.5674	0.1552
350.7765	0.1676
350.9856	0.1624
351.1948	0.166
351.4039	0.166
351.613	0.1762
351.822	0.1657
352.0311	0.1634
352.2402	0.1714
352.4492	0.1718
352.6582	0.1644
352.8672	0.168
353.0762	0.1726
353.2852	0.1703
353.4942	0.1741
353.7032	0.1674
353.9121	0.1687
354.1211	0.1691
354.33	0.1866
354.5389	0.1847
354.7478	0.1752
354.9567	0.1744
355.1655	0.1759
355.3744	0.1805
355.5833	0.1793
355.7921	0.1804
356.0009	0.176
356.2097	0.1846
356.4185	0.1915
356.6273	0.1804
356.8361	0.1936
357.0448	0.1909
357.2536	0.1902
357.4623	0.1839
357.671	0.1833
357.8797	0.1858
358.0884	0.19
358.2971	0.1959
358.5057	0.1874
358.7144	0.193
358.923	0.1907
359.1316	0.1974
359.3402	0.1992
359.5488	0.202
359.7574	0.1976
359.966	0.2052
360.1746	0.1887
360.3831	0.205
360.5916	0.2085
360.8002	0.2106
361.0087	0.2139
361.2172	0.214
361.4256	0.2049
361.6341	0.2071
361.8426	0.2108
362.051	0.2104
362.2594	0.2206
362.4678	0.2164
362.6762	0.218
362.8846	0.2223
363.093	0.2138
363.3014	0.2198
363.5097	0.2088
363.718	0.2234
363.9264	0.2233
364.1347	0.2304
364.343	0.2341
364.5513	0.2274
364.7595	0.2231
364.9678	0.2285
365.176	0.2297
365.3842	0.2239
365.5925	0.2277
365.8007	0.2296
366.0089	0.2348
366.217	0.2351
366.4252	0.2377
366.6333	0.2382
366.8415	0.2336
367.0496	0.2318
367.2577	0.2402
367.4658	0.2476
367.6739	0.2392
367.882	0.2368
368.09	0.2439
368.2981	0.2418
368.5061	0.2432
368.7141	0.2504
368.9221	0.2439
369.1301	0.2596
369.3381	0.2509
369.5461	0.2547
369.754	0.2525
369.962	0.2524
370.1699	0.2529
370.3778	0.2591
370.5857	0.2487
370.7936	0.2614
371.0015	0.2606
371.2093	0.2608
371.4172	0.2653
371.625	0.2554
371.8328	0.2649
372.0406	0.262
372.2484	0.2593
372.4562	0.2595
372.664	0.2594
372.8717	0.2672
373.0795	0.2687
373.2872	0.2609
373.4949	0.2634
373.7026	0.2739
373.9103	0.2656
374.118	0.2735
374.3256	0.2751
374.5333	0.2797
374.7409	0.2674
374.9485	0.2686
375.1561	0.2745
375.3637	0.2708
375.5713	0.2781
375.7789	0.2721
375.9864	0.2852
376.194	0.2911
376.4015	0.28
376.609	0.2849
376.8165	0.286
377.024	0.2872
377.2315	0.2957
377.4389	0.2765
377.6464	0.2937
377.8538	0.2926
378.0612	0.2809
378.2686	0.298
378.476	0.2849
378.6834	0.2765
378.8908	0.2962
379.0981	0.3022
379.3055	0.3045
379.5128	0.302
379.7201	0.2968
379.9274	0.2929
380.1347	0.3006
380.342	0.3072
380.5492	0.2934
380.7565	0.2945
380.9637	0.2914
381.1709	0.3058
381.3781	0.3132
381.5853	0.2968
381.7925	0.3083
381.9997	0.3101
382.2068	0.3012
382.4139	0.3098
382.6211	0.3114
382.8282	0.3015
383.0353	0.3043
383.2424	0.3068
383.4494	0.3084
383.6565	0.3052
383.8635	0.3129
384.0706	0.313
384.2776	0.3163
384.4846	0.3135
384.6916	0.3107
384.8986	0.3084
385.1055	0.3145
385.3125	0.3092
385.5194	0.3
385.7263	0.3105
385.9333	0.3143
386.1402	0.3132
386.347	0.3183
386.5539	0.3135
386.7608	0.3217
386.9676	0.3203
387.1744	0.3092
387.3813	0.3125
387.5881	0.3213
387.7948	0.3133
388.0016	0.3177
388.2084	0.3127
388.4151	0.3133
388.6219	0.3039
388.8286	0.3011
389.0353	0.3117
389.242	0.3048
389.4487	0.3119
389.6553	0.2874
389.862	0.3036
390.0686	0.3071
390.2753	0.299
390.4819	0.3053
390.6885	0.3037
390.8951	0.3077
391.1016	0.3088
391.3082	0.3023
391.5147	0.2981
391.7213	0.3012
391.9278	0.3001
392.1343	0.3012
392.3408	0.2829
392.5473	0.2901
392.7537	0.2915
392.9602	0.2819
393.1666	0.2825
393.373	0.3019
393.5794	0.2812
393.7858	0.2904
393.9922	0.2936
394.1986	0.2853
394.4049	0.2897
394.6113	0.2785
394.8176	0.2707
395.0239	0.2766
395.2302	0.2691
395.4365	0.2811
395.6428	0.2917
395.8491	0.2749
396.0553	0.267
396.2615	0.2675
396.4678	0.2772
396.674	0.2701
396.8802	0.273
397.0863	0.2662
397.2925	0.2673
397.4987	0.2672
397.7048	0.2784
397.9109	0.277
398.117	0.2737
398.3231	0.2761
398.5292	0.276
398.7353	0.259
398.9413	0.2571
399.1474	0.273
399.3534	0.2648
399.5594	0.2756
399.7654	0.2667
399.9714	0.2647
400.1774	0.2594
400.3833	0.2793
400.5893	0.2597
400.7952	0.2704
401.0011	0.2644
401.207	0.2713
401.4129	0.2665
401.6188	0.2669
401.8247	0.2602
402.0305	0.2666
402.2364	0.2751
402.4422	0.2685
402.648	0.276
402.8538	0.2777
403.0596	0.2672
403.2654	0.2658
403.4711	0.2626
403.6768	0.2573
403.8826	0.2705
404.0883	0.2651
404.294	0.2793
404.4997	0.2662
404.7054	0.25
404.911	0.2622
405.1167	0.2723
405.3223	0.2713
405.5279	0.2601
405.7335	0.2703
405.9391	0.2615
406.1447	0.2669
406.3502	0.2744
406.5558	0.276
406.7613	0.2694
406.9668	0.2682
407.1724	0.2835
407.3778	0.2678
407.5833	0.2597
407.7888	0.2718
407.9942	0.2628
408.1997	0.2696
408.4051	0.2697
408.6105	0.2697
408.8159	0.2701
409.0213	0.2654
409.2267	0.2647
409.432	0.2663
409.6374	0.2691
409.8427	0.2589
410.048	0.2585
410.2533	0.2652
410.4586	0.269
410.6639	0.2674
410.8691	0.2783
411.0744	0.2649
411.2796	0.2689
411.4848	0.2552
411.69	0.2698
411.8952	0.2642
412.1004	0.2625
412.3056	0.2657
412.5107	0.277
412.7158	0.2651
412.921	0.2653
413.1261	0.2666
413.3312	0.2621
413.5362	0.2638
413.7413	0.2697
413.9464	0.2623
414.1514	0.2556
414.3564	0.2569
414.5614	0.256
414.7664	0.2666
414.9714	0.2619
415.1764	0.2636
415.3813	0.2649
415.5863	0.2638
415.7912	0.2656
415.9961	0.2538
416.201	0.2639
416.4059	0.2568
416.6108	0.2524
416.8156	0.2559
417.0205	0.2646
417.2253	0.2603
417.4301	0.2659
417.6349	0.2551
417.8397	0.2663
418.0445	0.2562
418.2492	0.2653
418.454	0.2618
418.6587	0.2568
418.8634	0.2486
419.0681	0.2533
419.2728	0.2575
419.4775	0.2493
419.6822	0.2479
419.8868	0.2633
420.0915	0.2567
420.2961	0.2354
420.5007	0.2488
420.7053	0.2518
420.9099	0.2402
421.1144	0.2379
421.319	0.2451
421.5235	0.239
421.728	0.2378
421.9325	0.2464
422.137	0.2431
422.3415	0.2379
422.546	0.2411
422.7504	0.2459
422.9549	0.2369
423.1593	0.2388
423.3637	0.2466
423.5681	0.2409
423.7725	0.2417
423.9769	0.2431
424.1812	0.2339
424.3856	0.2367
424.5899	0.2448
424.7942	0.2253
424.9985	0.2266
425.2028	0.2261
425.4071	0.2174
425.6113	0.225
425.8156	0.2233
426.0198	0.2247
426.224	0.2291
426.4282	0.2316
426.6324	0.2256
426.8366	0.2212
427.0407	0.2158
427.2449	0.2222
427.449	0.2227
427.6531	0.2069
427.8572	0.2155
428.0613	0.22
428.2654	0.2078
428.4694	0.2031
428.6735	0.2122
428.8775	0.2113
429.0815	0.2061
429.2855	0.1995
429.4895	0.1947
429.6935	0.2016
429.8975	0.2102
430.1014	0.2009
430.3053	0.1905
430.5093	0.1926
430.7132	0.2036
430.9171	0.1786
431.1209	0.1912
431.3248	0.1869
431.5286	0.1798
431.7325	0.1942
431.9363	0.1907
432.1401	0.1808
432.3439	0.1708
432.5477	0.1734
432.7514	0.1733
432.9552	0.1723
433.1589	0.1743
433.3627	0.1721
433.5664	0.1696
433.7701	0.1683
433.9737	0.1709
434.1774	0.1744
434.3811	0.1722
434.5847	0.1656
434.7883	0.1638
434.9919	0.153
435.1955	0.1562
435.3991	0.1469
435.6027	0.1522
435.8062	0.1493
436.0098	0.1558
436.2133	0.1543
436.4168	0.1523
436.6203	0.1392
436.8238	0.1471
437.0272	0.1369
437.2307	0.1377
437.4341	0.1321
437.6375	0.1234
437.841	0.1356
438.0443	0.1388
438.2477	0.1301
438.4511	0.131
438.6545	0.1288
438.8578	0.1299
439.0611	0.1218
439.2644	0.1179
439.4677	0.1208
439.671	0.1089
439.8743	0.122
440.0775	0.1125
440.2808	0.1253
440.484	0.1022
440.6872	0.1038
440.8904	0.1078
441.0936	0.1195
441.2967	0.0967
441.4999	0.1077
441.703	0.1057
441.9062	0.1002
442.1093	0.0937
442.3124	0.0983
442.5155	0.0946
442.7185	0.0793
442.9216	0.0934
443.1246	0.0908
443.3276	0.0847
443.5307	0.09
443.7337	0.0839
443.9366	0.0821
444.1396	0.0755
444.3426	0.087
444.5455	0.0756
444.7484	0.0651
444.9513	0.0757
445.1542	0.0684
445.3571	0.0637
445.56	0.0693
445.7628	0.0712
445.9657	0.0699
446.1685	0.0816
446.3713	0.0687
446.5741	0.0588
446.7769	0.0692
446.9797	0.0605
447.1824	0.0636
447.3852	0.0599
447.5879	0.0623
447.7906	0.0603
447.9933	0.0596
448.196	0.0564
448.3986	0.0551
448.6013	0.0624
448.8039	0.0596
449.0066	0.0586
449.2092	0.0501
449.4118	0.0508
449.6143	0.0494
449.8169	0.0519
450.0195	0.0524
450.222	0.0431
450.4245	0.0517
450.627	0.044
450.8295	0.0375
451.032	0.0459
451.2345	0.0417
451.4369	0.0412
451.6394	0.0423
451.8418	0.0447
452.0442	0.0399
452.2466	0.0407
452.449	0.0346
452.6513	0.0416
452.8537	0.0332
453.056	0.0405
453.2583	0.0388
453.4607	0.0312
453.663	0.032
453.8652	0.0298
454.0675	0.0421
454.2697	0.0277
454.472	0.0261
454.6742	0.0187
454.8764	0.0374
455.0786	0.0227
455.2808	0.0273
455.4829	0.0257
455.6851	0.0199
455.8872	0.0355
456.0893	0.0268
456.2915	0.0168
456.4935	0.0168
456.6956	0.0213
456.8977	0.0254
457.0997	0.024
457.3018	0.0233
457.5038	0.0229
457.7058	0.017
457.9078	0.0289
458.1098	0.0194
458.3117	0.0157
458.5137	0.0307
458.7156	0.0298
458.9175	0.022
459.1194	0.0168
459.3213	0.0097
459.5232	0.0084
459.725	0.0213
459.9269	0.0126
460.1287	0.0107
460.3305	0.0189
460.5323	0.0242
460.7341	0.0076
460.9359	0.0132
461.1376	0.0148
461.3394	0.0139
461.5411	0.0145
461.7428	0.0162
461.9445	0.0106
462.1462	0.0146
462.3479	0.0098
462.5495	0.0173
462.7512	0.0102
462.9528	0.0146
463.1544	0.0104
463.356	0.0127
463.5576	0.0149
463.7592	0.0013
463.9607	0.0036
464.1623	0.0233
464.3638	0.0197
464.5653	0.0141
464.7668	0.0124
464.9683	0.0214
465.1697	0.0109
465.3712	0.0102
465.5726	0.0121
465.7741	0.0124
465.9755	0.0093
466.1769	0.0051
466.3782	0.0094
466.5796	0.0095
466.7809	0.0156
466.9823	0.0072
467.1836	0.0136
467.3849	0.0099
467.5862	-0.0054
467.7875	0.0096
467.9887	0.0082
468.19	0.0112
468.3912	0.0165
468.5924	0.0166
468.7936	0.003
468.9948	0.0082
469.196	0.0088
469.3972	0.0161
469.5983	-0.0051
469.7994	0
470.0006	0.0068
470.2017	0.0047
470.4027	0.001
470.6038	0.0051
470.8049	0.0035
471.0059	0.0073
471.2069	-0.0016
471.408	0.0057
471.6089	0.007
471.8099	0.0041
472.0109	0.0034
472.2119	0.0099
472.4128	0.0084
472.6137	0.0036
472.8146	0.0112
473.0155	-0.0003
473.2164	-0.001
473.4173	0.0106
473.6181	0.0094
473.819	-0.0095
474.0198	0.0152
474.2206	0.0116
474.4214	0.0162
474.6222	0.0071
474.8229	-0.0018
475.0237	0.0052
475.2244	0.0011
475.4251	0.0043
475.6258	0.0079
475.8265	-0.0077
476.0272	0.0062
476.2278	-0.0017
476.4285	-0.0011
476.6291	0.0085
476.8297	0.0026
477.0303	0.0068
477.2309	0.0034
477.4315	0.0104
477.632	0.0057
477.8326	0.0046
478.0331	0.0048
478.2336	0.0059
478.4341	0.0017
478.6346	0.0011
478.8351	0.0058
479.0355	0.002
479.236	0.0069
479.4364	0.0028
479.6368	0.0051
479.8372	0.0057
480.0376	0.0045
480.2379	0.0099
480.4383	0.0002
480.6386	-0.0055
480.8389	0.0064
481.0392	0.0115
481.2395	-0.0003
481.4398	0.0087
481.6401	0.0071
481.8403	-0.0102
482.0405	-0.0011
482.2408	0.0046
482.441	-0.001
482.6411	-0.0012
482.8413	-0.0085
483.0415	0.0025
483.2416	0.0047
483.4417	0.0127
483.6419	0.0012
483.8419	0.0056
484.042	0.001
484.2421	0.0034
484.4422	0.0065
484.6422	0.0084
484.8422	0.003
485.0422	0.0008
485.2422	0.0052
485.4422	0.0012
485.6422	0.0004
485.8421	-0.0023
486.042	0.0032
486.242	-0.0014
486.4419	0.0024
486.6417	0.0004
486.8416	0.0049
487.0415	0.0026
487.2413	0.0021
487.4411	0.0011
487.641	0.0054
487.8408	0.0069
488.0405	0.0051
488.2403	0.0004
488.4401	-0.0081
488.6398	0.006
488.8395	0.0002
489.0392	-0.0016
489.2389	-0.003
489.4386	-0.0028
489.6383	0.0029
489.8379	-0.0031
490.0376	0.0081
490.2372	-0.0045
490.4368	0.0074
490.6364	-0.0015
490.836	-0.0003
491.0355	-0.0012
491.2351	0.0035
491.4346	-0.0032
491.6341	-0.0045
491.8336	-0.0026
492.0331	-0.0005
492.2326	0.0007
492.432	0.0001
492.6315	-0.0071
492.8309	0.0124
493.0303	-0.0084
493.2297	0.002
493.4291	0.0047
493.6284	0.0005
493.8278	0.0037
494.0271	0.007
494.2264	0.001
494.4257	0.0068
494.625	0.0058
494.8243	0.0038
495.0236	-0.0042
495.2228	-0.0101
495.422	0.0094
495.6213	-0.0033
495.8205	0.0083
496.0196	0.0048
496.2188	0.003
496.418	-0.0073
496.6171	0.0049
496.8162	0.006
497.0153	0.0007
497.2144	-0.0007
497.4135	0.0079
497.6126	-0.0102
497.8116	-0.0059
498.0107	0.0003
498.2097	0.0122
498.4087	0.007
498.6077	0.0094
498.8067	0.0083
499.0056	-0.0024
499.2046	-0.0022
499.4035	0.0072
499.6024	-0.0102
499.8013	0.0022
500.0002	0.0011
500.199	0.0074
500.3979	0.0028
500.5967	-0.0102
500.7956	-0.0014
500.9944	0.0026
501.1932	0.004
501.3919	0.0069
501.5907	0.0015
501.7895	-0.0038
501.9882	-0.0006
502.1869	0.0043
502.3856	-0.009
502.5843	-0.0033
502.783	0.0005
502.9816	-0.0046
503.1803	0.0083
503.3789	0.0092
503.5775	0.0027
503.7761	0.0023
503.9747	-0.0043
504.1732	-0.0032
504.3718	0.0009
504.5703	-0.0005
504.7689	-0.0084
504.9674	-0.0059
505.1658	0.0048
505.3643	0.0046
505.5628	0.0086
505.7612	0.0075
505.9597	0.0038
506.1581	-0.0079
506.3565	-0.0056
506.5549	0.0046
506.7532	0.0089
506.9516	0.0032
507.1499	0.0036
507.3482	0.0069
507.5465	-0.0056
507.7448	0.0033
507.9431	-0.005
508.1414	0.0013
508.3396	-0.0002
508.5379	0.0084
508.7361	0.0077
508.9343	0.0005
509.1325	0.0102
509.3306	-0.0127
509.5288	0.0101
509.7269	-0.0059
509.9251	-0.0032
510.1232	-0.0012
510.3213	-0.0055
510.5193	0.0007
510.7174	-0.0102
510.9154	0.0103
511.1135	0.0086
511.3115	-0.0061
511.5095	0.0007
511.7075	-0.0047
511.9055	0.0008
512.1034	0.0102
512.3014	-0.0068
512.4993	0.0028
512.6972	0.0045
512.8951	0.0038
513.093	0.004
513.2908	0.0032
513.4887	-0.0039
513.6865	-0.002
513.8844	-0.0024
514.0822	0.008
514.2799	-0.0006
514.4777	0.0092
514.6755	0.0039
514.8732	0.0035
515.0709	-0.0021
515.2687	-0.0014
515.4664	0.003
515.664	0.0051
515.8617	0.0084
516.0594	0.0034
516.257	0.0044
516.4546	0.0004
516.6522	-0.0039
516.8498	-0.0057
517.0474	0.0028
517.2449	0.0061
517.4425	-0.0116
517.64	0.0159
517.8375	0.0096
518.035	0.0045
518.2325	-0.0083
518.43	-0.0065
518.6274	-0.0047
518.8249	-0.0083
519.0223	-0.0032
519.2197	-0.002
519.4171	-0.0051
519.6145	-0.0003
519.8118	-0.0028
520.0092	-0.0001
520.2065	0.0044
520.4038	-0.0048
520.6011	0.0016
520.7984	0.0052
520.9956	0.0036
521.1929	-0.0019
521.3901	0.0057
521.5874	-0.0017
521.7846	0.0014
521.9818	-0.0035
522.1789	0.0126
522.3761	-0.0014
522.5732	0.0029
522.7704	-0.0076
522.9675	-0.0019
523.1646	0.0123
523.3617	0.001
523.5587	0.0028
523.7558	0.007
523.9528	0.0014
524.1498	-0.0023
524.3468	-0.003
524.5438	0.0039
524.7408	-0.0136
524.9378	0.0018
525.1347	0.0094
525.3316	0.0045
525.5285	0.0025
525.7254	0.0011
525.9223	0.0034
526.1192	-0.0032
526.316	-0.0038
526.5129	-0.0042
526.7097	-0.0073
526.9065	0.0041
527.1033	0.0031
527.3	-0.0024
527.4968	0.002
527.6935	-0.0048
527.8903	0.0036
528.087	-0.0011
528.2837	-0.0038
528.4804	0.0093
528.677	-0.0015
528.8737	-0.007
529.0703	0.0031
529.2669	-0.0078
529.4635	0.0075
529.6601	0.0035
529.8567	-0.0002
530.0532	-0.002
530.2498	-0.0074
530.4463	0.0078
530.6428	0.0023
530.8393	0.0012
531.0358	0.0069
531.2322	-0.0047
531.4287	-0.0102
531.6251	0.0084
531.8215	0.006
532.0179	-0.0114
532.2143	0.0008
532.4107	0.0057
532.607	0.001
532.8034	0.0034
532.9997	-0.0013
533.196	0.0107
533.3923	-0.0018
533.5886	-0.0022
533.7848	-0.0007
533.9811	-0.0013
534.1773	-0.0004
534.3735	0.0088
534.5697	0.0015
534.7659	0.0037
534.9621	0.0142
535.1582	0.0074
535.3544	0.0104
535.5505	0.0061
535.7466	0.0014
535.9427	-0.0091
536.1387	0.0004
536.3348	0.0118
536.5308	0.0055
536.7269	-0.0005
536.9229	-0.0058
537.1189	0.0044
537.3148	-0.0118
537.5108	-0.0057
537.7068	0.0111
537.9027	0.0103
538.0986	-0.0026
538.2945	-0.0032
538.4904	0.0008
538.6863	0.0149
538.8821	-0.0027
539.078	-0.0015
539.2738	-0.0106
539.4696	0.0166
539.6654	-0.0011
539.8611	-0.0008
540.0569	0.0083
540.2526	-0.0051
540.4484	-0.0034
540.6441	-0.0026
540.8398	0.0032
541.0355	-0.0042
541.2311	0.008
541.4268	-0.006
541.6224	0.0015
541.818	-0.0102
542.0136	-0.0084
542.2092	0.0041
542.4048	0.0061
542.6003	0.0069
542.7959	-0.0018
542.9914	0.0033
543.1869	0.0033
543.3824	0.0062
543.5779	0.0045
543.7734	0.0004
543.9688	0.0009
544.1642	0.0125
544.3596	-0.0042
544.555	-0.0076
544.7504	0.0031
544.9458	-0.0098
545.1411	-0.0044
545.3365	0.0103
545.5318	-0.0034
545.7271	0.0032
545.9224	-0.0043
546.1177	0.0051
546.3129	-0.0086
546.5081	-0.0134
546.7034	0.0026
546.8986	0.0032
547.0938	-0.0054
547.289	-0.0027
547.4841	-0.0059
547.6793	-0.0068
547.8744	-0
548.0695	-0.0039
548.2646	-0.0051
548.4597	-0.0035
548.6548	0.0067
548.8498	0.0046
549.0448	0.0092
549.2399	-0.0012
549.4349	0.0099
549.6298	-0.0037
549.8248	-0.014
550.0198	0.0036
550.2147	-0.0064
550.4096	-0.0024
550.6045	-0.0012
550.7994	0.0015
550.9943	-0.0043
551.1892	-0.0066
551.384	0.0069
551.5788	0.0019
551.7737	0.0008
551.9685	0.0099
552.1632	0.002
552.358	0.0033
552.5528	-0.0068
552.7475	-0.0042
552.9422	0.0053
553.1369	0.0056
553.3316	-0.0083
553.5263	0.0025
553.7209	-0.0112
553.9156	0.0007
554.1102	-0.0031
554.3048	0.014
554.4994	-0.0065
554.694	-0.0012
554.8885	-0.0022
555.0831	0.0024
555.2776	-0.0038
555.4721	-0.0218
555.6666	0.0078
555.8611	-0.0114
556.0555	0.0072
556.25	-0.0041
556.4444	-0.002
556.6388	-0.0013
556.8332	0.0031
557.0276	0.0063
557.222	-0.0067
557.4163	0.0029
557.6107	0.0006
557.805	-0.0064
557.9993	0.0007
558.1936	0.0166
558.3879	-0.004
558.5821	-0.0069
558.7764	0.0165
558.9706	-0.0056
559.1648	-0.002
559.359	0.0035
559.5532	-0.0021
559.7473	-0.0017
559.9415	-0.0021
560.1356	0.0076
560.3297	0.005
560.5238	-0.0013
560.7179	-0.001
560.9119	0.0061
561.106	-0.0042
561.3	0.0031
561.494	-0.0013
561.688	0.0062
561.882	-0.0052
562.076	0.0083
562.2699	0.0015
562.4639	0.0039
562.6578	-0.0037
562.8517	0.0002
563.0456	-0.0051
563.2395	0.0016
563.4333	-0.0097
563.6272	0.0087
563.821	0.006
564.0148	-0.008
564.2086	-0.0007
564.4024	-0.006
564.5961	0.0054
564.7899	-0.0027
564.9836	0.0006
565.1773	-0.0049
565.371	0.0059
565.5647	-0.0074
565.7584	0.005
565.952	-0.0019
566.1456	-0.0003
566.3393	0.0088
566.5329	-0.0059
566.7264	0.0084
566.92	0.0026
567.1136	-0.0043
567.3071	-0.0002
567.5006	-0.0028
567.6941	-0.0023
567.8876	0.0006
568.0811	-0.0089
568.2745	-0.01
568.468	0.002
568.6614	0.0011
568.8548	-0.0052
569.0482	0.0052
569.2416	-0.0035
569.4349	-0.0004
569.6283	0.0026
569.8216	-0.0018
570.0149	0.002
570.2082	0.0004
570.4015	-0.0006
570.5947	-0.0018
570.788	0.0011
570.9812	-0.0011
571.1744	-0.0034
571.3676	0.0011
571.5608	-0.002
571.754	-0.0047
571.9471	0.0071
572.1402	-0.001
572.3333	-0.0012
572.5264	0.0031
572.7195	0.0043
572.9126	-0.0029
573.1057	-0.0011
573.2987	0.0027
573.4917	0.0021
573.6847	-0.0001
573.8777	-0.0021
574.0707	-0.0026
574.2636	-0.0014
574.4566	-0.0037
574.6495	0.0021
574.8424	0.0017
575.0353	-0.0049
575.2281	-0.0027
575.421	-0.0024
575.6138	-0.0021
575.8067	0.0007
575.9995	0.0012
576.1923	0.0026
576.385	0.0021
576.5778	0.0001
576.7706	-0.0041
576.9633	0.0002
577.156	0
577.3487	0.004
577.5414	0.0018
577.734	-0.0027
577.9267	-0.0011
578.1193	-0.0009
578.3119	-0.0035
578.5045	0.0039
578.6971	-0.0033
578.8897	-0.0002
579.0822	0.0024
579.2747	-0.0054
579.4673	-0.0033
579.6598	-0.0034
579.8522	0.0021
580.0447	-0.0003
580.2372	0.0028
580.4296	-0.0001
580.622	0.0023
580.8144	0.0028
581.0068	-0.0011
581.1992	0.0038
581.3915	-0.0018
581.5839	0.0037
581.7762	0.0013
581.9685	-0.0034
582.1608	-0.0001
582.353	-0.0004
582.5453	-0.0001
582.7375	0.0006
582.9298	-0.0036
583.122	-0.0042
583.3142	0.0066
583.5063	-0.0017
583.6985	0.0002
583.8906	0.0018
584.0827	0.0011
584.2749	-0.0002
584.4669	-0.0002
584.659	0.0013
584.8511	-0.0012
585.0431	-0.0002
585.2352	-0.0048
585.4272	-0.0033
585.6192	0.0018
585.8111	-0.0089
586.0031	-0.002
586.195	-0.0016
586.387	0.0028
586.5789	0.0052
586.7708	0.0037
586.9627	0.0002
587.1545	0.0012
587.3464	0.0061
587.5382	0.0005
587.73	0.0009
587.9218	-0.0009
588.1136	-0.0079
588.3053	0.0003
588.4971	0.0041
588.6888	-0.0023
588.8805	0.0046
589.0722	0.0049
589.2639	0.0014
589.4556	-0.0029
589.6472	-0.0007
589.8389	-0.0021
590.0305	0.0062
590.2221	0.0032
590.4137	0.0004
590.6052	0.0097
590.7968	-0.0003
590.9883	0.0051
591.1798	-0.0073
591.3713	-0.0028
591.5628	-0.0017
591.7543	0.0021
591.9458	-0.0062
592.1372	-0.0043
592.3286	-0.0048
592.52	-0.0071
592.7114	-0.0018
592.9028	-0.0078
593.0941	-0.0042
593.2855	0.0008
593.4768	0.0022
593.6681	0.0003
593.8594	-0.0035
594.0506	0.005
594.2419	-0.0105
594.4331	-0.0036
594.6244	0.0007
594.8156	0.0012
595.0067	-0.0015
595.1979	-0.006
595.3891	-0.0046
595.5802	-0.0006
595.7713	-0.0047
595.9624	0.0037
596.1535	-0.0017
596.3446	-0.0033
596.5357	-0.0057
596.7267	-0.0035
596.9177	-0.0021
597.1087	-0.0039
597.2997	-0.0088
597.4907	-0.0017
597.6817	-0.0032
597.8726	0.0037
598.0635	0.002
598.2544	-0.0034
598.4453	-0.0038
598.6362	-0.0049
598.827	0.0022
599.0179	0.0035
599.2087	-0.0032
599.3995	0.0012
599.5903	-0.0013
599.7811	-0.002
599.9718	0.0026
600.1626	-0.001
600.3533	-0.0039
600.544	0.0042
600.7347	0.001
600.9254	0.0025
601.116	-0.0014
601.3067	0.0003
601.4973	0.0079
601.6879	-0.0029
601.8785	-0.0026
602.0691	0.0062
602.2596	-0.0016
602.4502	-0.0015
602.6407	0.004
602.8312	0.0029
603.0217	0.0027
603.2122	0.0036
603.4027	-0.0016
603.5931	0.0047
603.7835	-0.0029
603.9739	0.0023
604.1643	0.001
604.3547	0.0029
604.5451	0.0001
604.7354	-0.0066
604.9257	-0.001
605.116	0.0041
605.3063	-0.0039
605.4966	-0
605.6869	0.0022
605.8771	-0.0015
606.0673	-0.0048
606.2575	-0.0021
606.4477	0.0053
606.6379	-0.0018
606.8281	-0.0018
607.0182	-0.0015
607.2083	0.0013
607.3985	-0.001
607.5885	0.0018
607.7786	0.0096
607.9687	-0.0064
608.1587	-0.0002
608.3488	-0.0044
608.5388	0.0008
608.7288	-0.0041
608.9187	0.006
609.1087	-0.0064
609.2986	-0.0032
609.4886	0.0061
609.6785	0.0006
609.8684	-0.008
610.0582	0.002
610.2481	-0.0072
610.4379	0.0027
610.6278	-0.0034
610.8176	-0.002
611.0074	-0.0035
611.1971	0.0027
611.3869	0.0019
611.5766	0.0034
611.7664	0.0045
611.9561	-0.0034
612.1458	-0.002
612.3354	0.0015
612.5251	0.0008
612.7147	0.0011
612.9044	-0.009
613.094	0.0016
613.2836	-0.0011
613.4731	-0.0024
613.6627	0.0053
613.8522	-0.0064
614.0417	0.0025
614.2313	-0.0069
614.4207	0.0022
614.6102	-0.0002
614.7997	-0.0044
614.9891	0.002
615.1785	-0.0029
615.3679	-0.005
615.5573	-0.0049
615.7467	-0.0051
615.9361	-0.0022
616.1254	-0.0032
616.3147	-0.0002
616.504	-0.0042
616.6933	0.0015
616.8826	0.0101
617.0718	-0.0051
617.2611	-0.0009
617.4503	-0.0036
617.6395	-0.0011
617.8287	-0.0038
618.0179	-0.0036
618.207	-0.0026
618.3961	-0.0001
618.5853	-0.0092
618.7744	0.0017
618.9634	-0.0048
619.1525	-0.0034
619.3416	0.0076
619.5306	-0.0015
619.7196	-0.0083
619.9086	0.0003
620.0976	0.0016
620.2866	0.0083
620.4755	0.0067
620.6645	-0.0066
620.8534	-0.009
621.0423	-0.0045
621.2312	-0.0066
621.42	-0.0011
621.6089	0.01
621.7977	-0.0066
621.9865	0.0034
622.1753	-0.0018
622.3641	-0.0184
622.5529	-0.0046
622.7416	-0.0037
622.9303	-0.0008
623.1191	-0.0035
623.3078	-0.0132
623.4964	-0.0088
623.6851	0.0125
623.8737	0.0031
624.0624	0.006
624.251	-0.0018
624.4396	-0.0008
624.6282	0.001
624.8167	0.0074
625.0053	-0.0005
625.1938	0.0048
625.3823	-0.0074
625.5708	-0.0086
625.7593	-0.0087
625.9477	-0.0046
626.1362	-0.0069
626.3246	-0.0039
626.513	0.003
626.7014	-0.0014
626.8898	0.0004
627.0781	-0.0068
627.2665	0.0023
627.4548	-0.0005
627.6431	-0.0084
627.8314	-0.0033
628.0197	0.0065
628.2079	-0.0104
628.3962	-0.003
628.5844	0.0002
628.7726	-0.0122
628.9608	-0.0047
629.1489	-0.0007
629.3371	-0.0072
629.5252	0.0074
629.7134	0.0008
629.9015	-0.0099
630.0895	-0.0044
630.2776	-0.0187
630.4657	0.0012
630.6537	-0.0038
630.8417	-0.0059
631.0297	-0.0064
631.2177	0.003
631.4057	-0.0054
631.5936	-0.0061
631.7815	0.0064
631.9695	0.0128
632.1574	-0.0035
632.3452	-0.0033
632.5331	0.0019
632.7209	-0.0019
632.9088	0.0082
633.0966	0.0083
633.2844	0.0001
633.4722	-0.0049
633.6599	-0.0061
633.8477	0.0015
634.0354	0.01
634.2231	0.018
634.4108	-0.0035
634.5985	-0.0159
634.7861	-0.0172
634.9738	0.0112
635.1614	0.006
635.349	-0.0077
635.5366	-0.0088
635.7242	0.0008
635.9117	0.0095
636.0993	-0.0188
636.2868	-0.0033
636.4743	0.0212
636.6618	-0.0041
636.8492	-0.0143
637.0367	-0.0056
637.2241	-0.0051
637.4115	-0.0043
637.5989	0.0128
637.7863	0.0033
637.9737	0.0112
638.161	0.0058
638.3484	0.0037
638.5357	0.0055
638.723	0.0043
638.9103	0.004
639.0975	0.0119
639.2848	0.0274
639.472	-0.0059
639.6592	0.0097
639.8464	0.0031
640.0336	0.0128
640.2208	-0.0119
640.4079	0.0222
640.595	-0.0209
640.7821	0.0124
640.9692	0.0023
641.1563	0.015
641.3434	0.015
641.5304	-0.0124
641.7174	0.0115
641.9044	-0.0008
642.0914	0.0106
642.2784	0.0213
642.4653	-0.0011
642.6523	-0.0055
642.8392	0.0181
643.0261	-0.0044
643.213	-0.0084
643.3999	-0.0031
643.5867	-0.0023
643.7735	0.0115
643.9604	-0.011
644.1472	-0.0009
644.3339	-0.0144
644.5207	-0.0205
644.7075	0.013
644.8942	0.0233
645.0809	-0.006
645.2676	-0.0031
645.4543	0.0144
645.6409	-0.0074
645.8276	-0.0192
646.0142	0.0111
646.2008	-0.0127
646.3874	0.0163
646.574	-0.0258
646.7605	0.0059
646.9471	0.0193
647.1336	-0.0152
647.3201	-0.0103
647.5066	-0.0054
647.6931	0.012
647.8795	0.0072
648.0659	-0.0234
648.2524	-0.0065
648.4388	-0.01
648.6252	0.0027
648.8115	0.0009
648.9979	-0.0067
649.1842	-0.0065
649.3705	-0.0015
649.5568	-0.021
649.7431	-0.0108
649.9294	-0.0052
650.1156	-0.0226
650.3018	0.0232
650.488	0.0149
650.6742	-0.0155
650.8604	-0.0153
651.0466	0.008
651.2327	-0.0251
651.4188	0.0041
651.6049	0.0003
651.791	0.0169
651.9771	-0.0057
652.1632	-0.0007
652.3492	0.0143
652.5352	0.0086
652.7212	-0.0161
652.9072	0.009
653.0932	-0.0011
653.2791	0.0043
653.465	-0.0172
653.651	0.0254
653.8369	0.0178
654.0227	-0.0073
654.2086	-0.0086
654.3944	-0.0096
654.5803	-0.0009
654.7661	-0.0051
654.9519	-0.003
655.1377	0.0001
655.3234	0.0001
655.5092	0.0001
655.6949	0.0001
655.8806	0.0001
656.0663	0.0001
656.2519	0.0001
656.4376	0.0001
656.6232	0.0001
656.8088	0.0001
656.9945	0.0001
657.18	0.0001
657.3656	0.0001
657.5511	0.0001
657.7367	0.0001
657.9222	0.0001
658.1077	0.0001
658.2932	0.0001
658.4786	0.0001
658.6641	0.0001
658.8495	0.0001
659.0349	0.0001
659.2203	0.0001
659.4057	0.0084
659.591	0.0384
659.7764	-0.0106
659.9617	0.0052
660.147	-0.0159
660.3323	-0.001
660.5176	-0.012
660.7028	0.0053
660.888	0.0129
661.0733	0.0039
661.2585	-0.0137
661.4436	-0.0081
661.6288	0.0062
661.8139	0.0141
661.9991	0.0143
662.1842	0.0188
662.3693	0.0042
662.5544	-0.005
662.7394	0.0239
662.9245	-0.0174
663.1095	0.0037
663.2945	-0.0069
663.4795	-0.0157
663.6644	-0.0031
663.8494	0.0194
664.0343	0.0004
664.2193	-0.0115
664.4042	-0.0164
664.589	-0.0097
664.7739	0.0065
664.9587	-0.0209
665.1436	0.004
665.3284	-0.0009
665.5132	-0.0049
665.698	-0.0025
665.8827	-0.0188
666.0675	-0.0012
666.2522	0.0079
666.4369	-0.0239
666.6216	-0.0181
666.8063	-0.0156
666.9909	-0.0047
667.1756	0.0044
667.3602	-0.0157
667.5448	-0.0135
667.7294	-0.0019
667.9139	0.003
668.0985	-0.0153
668.283	-0.0037
668.4675	0.0008
668.652	-0.0142
668.8365	-0.0108
669.0209	-0.0245
669.2054	0.005
669.3898	-0.0075
669.5742	0.0167
669.7586	0.0089
669.943	-0.0084
670.1273	-0.011
670.3117	0.0061
670.496	-0.0053
670.6803	-0.0143
670.8646	0.0009
671.0488	-0.0004
671.2331	0.0005
671.4173	0.011
671.6015	-0.0031
671.7857	-0.0221
671.9699	-0.0001
672.1541	-0.0022
672.3382	0.0025
672.5223	0.0026
672.7064	-0.0071
672.8905	0.0051
673.0746	0.0001
673.2587	0.011
673.4427	-0.0158
673.6267	-0.0083
673.8107	0.0019
673.9947	-0.0221
674.1787	-0.006
674.3626	0.012
674.5465	-0.0141
674.7304	-0.0405
674.9143	0.0172
675.0982	-0.0074
675.2821	0.0159
675.4659	0.0001
675.6497	0.031
675.8335	0.0084
676.0173	0.0183
676.2011	-0.0198
676.3849	-0.0061
676.5686	0.0093
676.7523	0.0075
676.936	-0.0218
677.1197	0.0028
677.3034	0.0028
677.487	0.0145
677.6706	-0.005
677.8542	-0.0024
678.0378	0.0056
678.2214	-0.0023
678.405	0.0097
678.5885	-0.0122
678.772	-0.002
678.9555	0.0001
679.139	-0.0205
679.3225	-0.0188
679.5059	-0.0129
679.6894	-0.0159
679.8728	-0.0075
680.0562	0.0118
680.2395	-0.0056
680.4229	-0.0191
680.6062	-0.0013
680.7896	0.0022
680.9729	0.0079
681.1562	-0.0009
681.3394	0.0079
681.5227	-0.0266
681.7059	-0.0023
681.8891	-0.0002
682.0723	-0.0126
682.2555	0.0173
682.4387	0.0017
682.6218	-0.0053
682.805	-0.0028
682.9881	-0.0104
683.1712	0.011
683.3542	-0.0284
683.5373	0.0166
683.7203	0.0075
683.9034	0.0184
684.0864	0.0009
684.2694	0.0059
684.4523	0.0032
684.6353	-0.0011
684.8182	0.0033
685.0011	0.0013
685.184	0.0023
685.3669	-0.0013
685.5498	0.0047
685.7326	-0.0022
685.9154	-0.0031
686.0982	-0.0018
686.281	0.0074
686.4638	-0.007
686.6465	0.0144
686.8293	-0.0069
687.012	0.0056
687.1947	0.005
687.3774	-0.0194
687.56	0.0113
687.7427	0.0146
687.9253	0.0035
688.1079	-0.0011
688.2905	-0.0084
688.4731	0.0109
688.6556	-0.0013
688.8382	-0.0037
689.0207	-0.0197
689.2032	-0.0189
689.3857	-0.0077
689.5681	-0.014
689.7506	-0.0029
689.933	-0.0151
690.1154	-0.0029
690.2978	-0.0102
690.4802	-0.0132
690.6626	-0.0072
690.8449	-0.0138
691.0272	-0.0222
691.2095	0.0046
691.3918	-0.011
691.5741	-0.0011
691.7563	0.0121
691.9386	-0.0006
692.1208	0.004
692.303	0.0057
692.4852	0.0102
692.6673	-0.012
692.8495	-0.0125
693.0316	-0.0172
693.2137	0.0228
693.3958	0.0133
693.5778	-0.0271
693.7599	-0.0196
693.9419	0.0267
694.1239	-0.0434
694.3059	-0.0342
694.4879	-0.0374
694.6699	0.0092
694.8518	-0.0007
695.0337	-0.013
695.2157	-0.0249
695.3975	-0.0012
695.5794	-0.0103
695.7613	0.0257
695.9431	-0.0239
696.1249	-0.0152
696.3067	-0.0046
696.4885	-0.005
696.6703	-0.0089
696.852	-0.0177
697.0337	0.0006
697.2154	0.0086
697.3971	-0.0021
697.5788	0.0343
697.7605	-0.0104
697.9421	-0.0076
698.1237	0.007
698.3053	-0.0117
698.4869	0.0056
698.6685	0.0193
698.85	-0.0088
699.0315	-0.0135
699.213	0.0243
699.3945	-0.0006
699.576	0.0082
699.7575	-0.0247
699.9389	0.0057
700.1203	-0.02
700.3017	-0.0007
700.4831	0.0115
700.6645	0.0172
700.8458	-0.0018
701.0271	-0.0105
701.2084	-0.0311
701.3897	0.0044
701.571	-0.0043
701.7523	-0.0201
701.9335	0.0104
702.1147	-0.003
702.2959	0.0096
702.4771	-0.0112
702.6583	-0.0147
702.8394	0.0024
703.0205	-0.0037
703.2016	-0.001
703.3827	0.0099
703.5638	-0.0026
703.7449	0.0034
703.9259	-0.0017
704.1069	-0.0041
704.2879	0.0376
704.4689	-0.0132
704.6499	-0.031
704.8308	-0.0396
705.0117	-0.0255
705.1927	0.011
705.3735	0.0266
705.5544	0.0177
705.7353	-0.006
705.9161	-0.0072
706.0969	0.0028
706.2777	-0.0034
706.4585	0.0057
706.6393	-0.0015
706.82	-0.02
707.0007	0.0043
707.1815	0.0158
707.3621	-0.0031
707.5428	0.0049
707.7235	0.0225
707.9041	-0.0177
708.0847	-0.0114
708.2653	-0.0122
708.4459	-0.0014
708.6265	-0.0236
708.807	-0.0051
708.9875	-0.0083
709.168	-0.0052
709.3485	0.0131
709.529	0.0223
709.7095	-0.016
709.8899	0.0357
710.0703	0.0017
710.2507	-0.0041
710.4311	-0.0134
710.6115	-0.0009
710.7918	-0.0124
710.9721	-0.0053
711.1524	-0.0029
711.3327	-0.0035
711.513	-0.0035
711.6932	-0.0343
711.8735	-0.0222
712.0537	0.0038
712.2339	-0.0105
712.4141	0.0033
712.5942	0.0005
712.7744	-0.005
712.9545	0.0158
713.1346	0.0004
713.3147	0.0153
713.4947	-0.0118
713.6748	-0.0148
713.8548	-0.0204
714.0348	0.0014
714.2148	0.0045
714.3948	0.0081
714.5748	0.0041
714.7547	-0.0169
714.9346	-0.0023
715.1145	0.0173
715.2944	-0.0006
715.4743	-0.0099
715.6541	-0.0112
715.834	-0.0075
716.0138	0.0254
716.1936	0.0091
716.3733	-0.0079
716.5531	0.0094
716.7328	-0.034
716.9126	-0.0281
717.0923	0.0028
717.2719	-0.0036
717.4516	-0.0299
717.6312	-0.022
717.8109	0.0088
717.9905	0.0063
718.1701	-0.0097
718.3496	0.0001
718.5292	-0.0133
718.7087	0.0159
718.8882	0.0039
719.0677	-0.0212
719.2472	-0.0038
719.4267	-0.0077
719.6061	0.004
719.7856	0.0019
719.965	0.0006
720.1443	-0.0026
720.3237	0.0293
720.5031	0.0151
720.6824	-0.0086
720.8617	-0.0062
721.041	0.0185
721.2203	0.0037
721.3995	0.0197
721.5788	0.0138
721.758	-0.0107
721.9372	-0.0179
722.1164	0.0065
722.2956	0.0063
722.4747	0.0205
722.6538	0.0019
722.8329	-0.0268
723.012	0.0027
723.1911	0.0226
723.3702	-0.0218
723.5492	-0.0016
723.7282	-0.0092
723.9072	-0.0133
724.0862	0.0099
724.2652	-0.0277
724.4441	-0.0051
724.623	-0.018
724.8019	0.009
724.9808	-0.0115
725.1597	-0.0037
725.3385	-0.0089
725.5174	0.0271
725.6962	0.0178
725.875	0.0091
726.0538	-0.0101
726.2325	-0.0038
726.4112	0.0041
726.59	0.0124
726.7687	0.0021
726.9474	0.0191
727.126	-0.0212
727.3047	-0.0106
727.4833	0.0228
727.6619	0.0197
727.8405	0.0095
728.0191	-0.0575
728.1976	-0.0328
728.3762	-0.0179
728.5547	0.0019
728.7332	0.0037
728.9116	-0.0583
729.0901	0.0287
729.2686	-0.0147
729.447	0.0024
729.6254	0.0154
729.8038	0.0109
729.9821	-0.0087
730.1605	-0.0174
730.3388	-0.0339
730.5171	-0.025
730.6954	0.0051
730.8737	0.0146
731.0519	0.0001
731.2302	-0.0288
731.4084	-0.0105
731.5866	-0.0306
731.7648	-0.0128
731.9429	-0.0096
732.1211	0.0106
732.2992	-0.0189
732.4773	-0.0093
732.6554	0.0055
732.8335	0.0127
733.0115	0.0004
733.1896	-0.0149
733.3676	-0.0128
733.5456	-0.0054
733.7235	0.007
733.9015	0.0039
734.0794	-0.0089
734.2574	0.0093
734.4353	-0.002
734.6131	0.0091
734.791	0.0104
734.9689	0.0049
735.1467	0.0046
735.3245	0.0191
735.5023	-0.0048
735.68	0.002
735.8578	-0.0151
736.0355	0.0012
736.2132	-0.0036
736.3909	-0.0086
736.5686	0.0001
736.7463	0.0043
736.9239	0.01
737.1015	-0.0187
737.2791	-0.0247
737.4567	-0.0143
737.6343	0.0066
737.8118	0.0042
737.9894	-0.0097
738.1669	-0.0144
738.3444	-0.0127
738.5218	0.0287
738.6993	-0.014
738.8767	0.0069
739.0541	0.0073
739.2315	0.002
739.4089	0.0001
739.5863	-0.0069
739.7636	-0.011
739.9409	-0.009
740.1182	0.0017
740.2955	-0.0083
740.4728	0.0071
740.65	-0.0119
740.8272	-0.0241
741.0044	0.0281
741.1816	0.0135
741.3588	0.0038
741.5359	0.0229
741.7131	0.0057
741.8902	0.0023
742.0673	0.0155
742.2444	-0.0135
742.4214	-0.0043
742.5985	0.0115
742.7755	-0.0379
742.9525	-0.0035
743.1295	-0.0175
743.3064	-0.007
743.4834	-0.0265
743.6603	-0.0289
743.8372	-0.0158
744.0141	-0.005
744.191	0.0217
744.3678	0.0277
744.5446	0.0006
744.7215	0.0039
744.8982	-0.0106
745.075	0.0078
745.2518	0.0069
745.4285	-0.0031
745.6052	0.0209
745.7819	0.0016
745.9586	-0.0075
746.1353	-0.0039
746.3119	-0.037
746.4885	0.0024
746.6651	-0.0423
746.8417	0.0074
747.0183	-0.0201
747.1948	-0.0206
747.3714	0.0054
747.5479	0.0023
747.7244	-0.0287
747.9008	0.0023
748.0773	-0.0004
748.2537	0.0325
748.4301	0.0174
748.6065	-0.0464
748.7829	0.0195
748.9593	-0.0022
749.1356	-0.0016
749.3119	-0.0036
749.4882	0.0001
749.6645	0.0013
749.8408	-0.0104
750.017	-0.0062
750.1933	0.0048
750.3695	0.009
750.5457	-0.0189
750.7218	0.0172
750.898	-0.018
751.0741	0.0039
751.2502	0.0033
751.4263	-0.0079
751.6024	0.0111
751.7784	-0.0359
751.9545	-0.0436
752.1305	0.0028
752.3065	0.027
752.4825	-0.0355
752.6584	-0.0159
752.8344	0.0053
753.0103	0.0001
753.1862	0.0038
753.3621	-0.0036
753.5379	-0.0223
753.7138	-0.0134
753.8896	0.0151
754.0654	0.0031
754.2412	0.0144
754.417	0.0125
754.5927	-0.0187
754.7685	-0.0074
754.9442	-0.0031
755.1199	-0.0074
755.2956	0.0007
755.4712	-0.0057
755.6469	-0.0085
755.8225	0.0029
755.9981	0.0049
756.1736	0.0117
756.3492	-0.0022
756.5248	-0.0058
756.7003	-0.0206
756.8758	-0.0204
757.0513	-0.0179
757.2267	-0.0032
757.4022	-0.0213
757.5776	-0.022
757.753	-0.0225
757.9284	-0.0123
758.1038	-0.0119
758.2791	-0.0118
758.4545	-0.0186
758.6298	-0.0254
758.8051	-0.0161
758.9803	0.0016
759.1556	-0.0336
759.3308	-0.0054
759.506	0.0173
759.6812	-0.0059
759.8564	-0.0172
760.0316	0.0085
760.2067	-0.0166
760.3819	0.0019
760.557	-0.0103
760.732	0.0196
760.9071	0.0074
761.0821	0.0132
761.2572	-0.0002
761.4322	-0.0161
761.6072	-0.0117
761.7821	0.0262
761.9571	-0.0092
762.132	-0.0046
762.3069	0.0043
762.4818	-0.0069
762.6567	-0.0177
762.8316	0.0074
763.0064	-0.0206
763.1812	-0.0261
763.356	-0.0061
763.5308	-0.0061
763.7055	-0.0039
763.8803	-0.0111
764.055	-0.003
764.2297	-0.0274
764.4044	-0.0055
764.579	-0.0023
764.7537	-0.0234
764.9283	-0.0284
765.1029	-0.0048
765.2775	-0.0132
765.4521	-0.0159
765.6266	-0.0151
765.8011	0.0089
765.9756	-0.001
766.1501	-0.0027
766.3246	-0.0388
766.4991	-0.0381
766.6735	-0.0231
766.8479	-0.0236
767.0223	0.0244
767.1967	0.002
767.371	-0.0178
767.5454	0.022
767.7197	0.0109
767.894	-0.0148
768.0683	-0.0275
768.2425	0.0296
768.4168	0.0171
768.591	0.0058
768.7652	0.0078
768.9394	-0.0146
769.1135	0.0063
769.2877	0.022
769.4618	0.0199
769.6359	-0.007
769.81	-0.002
769.984	0.0005
770.1581	0.0182
770.3321	-0.0254
770.5061	0.0072
770.6801	0.0008
770.8541	-0.0256
771.028	0.0023
771.202	-0.0353
771.3759	-0.0007
771.5498	-0.0146
771.7236	0.0168
771.8975	-0.0263
772.0713	0.0002
772.2451	-0.0163
772.4189	-0.0313
772.5927	-0.0079
772.7665	0.0496
772.9402	-0.0057
773.1139	-0.0103
773.2876	0.0091
773.4613	0.0014
773.635	0.0117
773.8086	-0.0263
773.9822	0.0034
774.1558	-0.0017
774.3294	-0.0072
774.503	-0.008
774.6765	0.0247
774.8501	0.0049
775.0236	0.0472
775.1971	-0.0316
775.3705	-0.0085
775.544	-0.0137
775.7174	-0.0033
775.8908	0.0111
776.0642	0.0247
776.2376	-0.0326
776.4109	0.0329
776.5843	-0.0216
776.7576	0.0277
776.9309	-0.0014
777.1041	-0.0042
777.2774	0.0536
777.4506	-0.005
777.6238	0.0321
777.797	-0.0317
777.9702	0.0589
778.1434	0.0092
778.3165	-0.0201
778.4896	-0.0004
778.6627	0.0086
778.8358	-0.0274
779.0089	-0.0171
779.1819	-0.0027
779.3549	-0.0176
779.5279	0.0208
779.7009	-0.0161
779.8739	-0.0281
780.0468	0.0172
780.2197	-0.0525
780.3926	-0.0292
780.5655	0.0096
780.7384	-0.0091
780.9112	0.0166
781.0841	-0.0057
781.2569	-0.0013
781.4297	-0.0016
781.6024	-0.0128
781.7752	-0.012
781.9479	-0.0263
782.1206	-0.0129
782.2933	0.0191
782.466	0.0019
782.6386	0.01
782.8113	0.0002
782.9839	-0.0232
783.1565	-0.027
783.329	0.0118
783.5016	0.002
783.6741	-0.0023
783.8466	-0.0552
784.0191	-0.0005
784.1916	-0.0165
784.3641	-0.0341
784.5365	0.0214
784.7089	-0.0278
784.8813	0.0372
785.0537	-0.0041
785.2261	-0.0194
785.3984	-0.0142
785.5707	0.0288
785.743	-0.0793
785.9153	0.0079
786.0876	-0.0092
786.2598	-0.0048
786.432	-0.0274
786.6042	0.0132
786.7764	-0.0121
786.9486	0.0009
787.1207	0.0218
787.2928	0.009
787.4649	0.0106
787.637	0.039
787.8091	-0.0042
787.9811	0.0271
788.1532	-0.0016
788.3252	-0.0047
788.4972	-0.0321
788.6691	-0.0015
788.8411	-0.0028
789.013	-0.0357
789.1849	0.0139
789.3568	0.0178
789.5287	-0.0382
789.7005	0.0403
789.8723	-0.0475
790.0442	-0.1071
790.2159	0.0546
790.3877	0.004
790.5595	0.0635
790.7312	-0.0173
790.9029	-0.0281
791.0746	0.0247
791.2463	-0.0355
791.4179	-0.0393
791.5896	-0.0233
791.7612	-0.0112
791.9328	-0.0135
792.1044	-0.042
792.2759	0.0562
792.4474	-0.07
792.619	0.0239
792.7905	-0.031
792.9619	0.032
793.1334	-0.0497
793.3048	-0.0333
793.4762	-0.0384
793.6476	-0.0255
793.819	-0.0387
793.9904	0.0266
794.1617	-0.0004
794.333	-0.0306
794.5043	-0.0174
794.6756	0.016
794.8469	-0.0036
795.0181	-0.0179
795.1893	-0.0326
795.3605	-0.0214
795.5317	-0.002
795.7029	-0.0148
795.874	-0.0317
796.0452	-0.0556
796.2163	0.0353
796.3873	0.082
796.5584	0.0459
796.7294	-0.1221
796.9005	-0.057
797.0715	0.002
797.2425	-0.0449
797.4134	0.0119
797.5844	0.0417
797.7553	-0.0399
797.9262	0.0408
798.0971	0.0004
798.2679	0.0101
798.4388	-0.0108
798.6096	-0.0282
798.7804	0.0004
798.9512	0.0224
799.122	0.0349
799.2927	-0.0521
799.4635	0.0428
799.6342	-0.0193
799.8049	-0.0021
799.9755	0.0022
800.1462	-0.0319
800.3168	-0.0025
800.4874	0.0402
800.658	0.0688
800.8286	-0.0277
800.9991	0.0247
801.1696	-0.0285
801.3402	-0.0623
801.5106	-0.0261
801.6811	0.0006
801.8516	-0.0198
802.022	-0.0347
802.1924	-0.1399
802.3628	-0.123
802.5332	-0.075
802.7035	0.0189
802.8739	0.0679
803.0442	0.0203
803.2145	0.0117
803.3847	0.0006
803.555	-0.0153
803.7252	0.095
803.8954	-0.0198
804.0656	0.0637
804.2358	0.0575
804.4059	0.0815
804.5761	0.0606
804.7462	-0.0068
804.9163	-0.0364
805.0864	-0.0196
805.2564	0.01
805.4264	-0.0851
805.5965	0.0344
805.7665	0.0322
805.9364	-0.0619
806.1064	-0.0625
806.2763	0.0262
806.4462	0.0043
806.6161	-0.0201
806.786	0.044
806.9559	0.0479
807.1257	0.0057
807.2955	0.0252
807.4653	-0.0897
807.6351	-0.0009
807.8048	-0.036
807.9746	-0.0145
808.1443	0.0282
808.314	0.0708
808.4837	-0.0235
808.6533	0.0504
808.8229	-0.0947
808.9926	0.0127
809.1622	-0.0241
809.3317	-0.0713
809.5013	0.1021
809.6708	0.064
809.8403	0.0302
810.0098	0.0926
810.1793	0.1169
810.3488	-0.0283
810.5182	-0.0199
810.6876	-0.0349
810.857	-0.0204
811.0264	0.0657
811.1958	0.1732
811.3651	-0.0218
811.5344	-0.0788
811.7037	-0.0261
811.873	0.0218
812.0422	0.035
812.2115	-0.0174
812.3807	0.008
812.5499	0.1442
812.7191	0.0768
812.8882	-0.0141
813.0574	-0.1218
813.2265	0.0994
813.3956	-0.0038
813.5646	0.0996
813.7337	-0.0464
813.9027	-0.0367
814.0718	0.028
814.2407	-0.0862
814.4097	0.0737
814.5787	0.0487
814.7476	0.0485
814.9165	0.0118
815.0854	-0.0267
815.2543	-0.0016
815.4232	-0.0844
815.592	0.0203
815.7608	0.0796
815.9296	-0.09
816.0984	0.1116
816.2671	-0.1928
816.4359	-0.0196
816.6046	0.0266
816.7733	-0.0709
816.942	-0.0128
817.1106	-0.2223
817.2793	-0.0585
817.4479	0.0038
817.6165	0.0248
817.785	-0.0187
817.9536	0.0318
818.1221	0.1141
818.2906	0.0829
818.4591	-0.0413
818.6276	0.1672
818.7961	0.0429
818.9645	0.0392
819.1329	0.2148
819.3013	-0.0248
819.4697	0.1347
819.638	-0.008
819.8064	-0.149
819.9747	-0.1014
820.143	0.0838
820.3113	0.0655
820.4795	-0.0196
820.6477	-0.0206
820.816	-0.0289
820.9842	-0.1263
821.1523	0.1275
821.3205	-0.0499
821.4886	0.0066
821.6567	-0.0316
821.8248	0.0489
821.9929	0.0245
822.1609	0.0377
822.329	-0.0477
822.497	-0.1017
822.665	0.1743
822.833	-0.0288
823.0009	-0.089
823.1688	0.106
823.3367	-0.1536
823.5046	0.0205
823.6725	0.0504
823.8404	-0.1669
824.0082	0.0074
824.176	0.0944
824.3438	0.1736
824.5116	0.065
824.6793	0.0623
824.847	0.0247
825.0147	-0.0217
825.1824	0.3577
825.3501	0.154
825.5177	0.0125
825.6854	0.1068
825.853	-0.0464
826.0206	-0.0059
826.1881	0.1373
826.3557	0.1421
826.5232	0.1077
826.6907	0.2072
826.8582	-0.1153
827.0257	0.0303
827.1931	0.0746
827.3605	0.1306
827.528	0.1206
827.6953	0.1202
827.8627	0.0916
828.03	0.0486
828.1974	-0.0382
828.3647	0.0863
828.532	0.1558
828.6992	-0.0147
828.8665	0.0302
829.0337	-0.0408
829.2009	0.1833
829.3681	-0.0911
829.5352	0.0748
829.7024	0.0284
829.8695	-0.0718
830.0366	0.1543
830.2037	0.0424
830.3707	-0.1276
830.5378	0.1122
830.7048	-0.2866
830.8718	0.2747
831.0388	0.2166
831.2057	0.1161
831.3727	-0.212
831.5396	-0.0049
831.7065	0.0813
831.8734	0.0826
832.0402	0.2234
832.2071	-0
832.3739	0.1606
832.5407	-0
832.7075	0.1095
832.8742	-0.0346
833.041	0.0731
833.2077	0.3148
833.3744	0.1339
833.541	-0.0901
833.7077	-0.0031
833.8743	0.0061
834.0409	-0.0964
834.2075	-0.0118
834.3741	0.2907
834.5407	-0.2398
834.7072	0.2357
834.8737	0.1956
835.0402	-0
835.2067	0.0563
835.3731	-0.007
835.5395	0.0189
835.706	-0.1308
835.8723	-0.1695
836.0387	0.091
836.2051	-0
836.3714	0.3053
836.5377	0.2621
836.704	-0.0035
836.8703	-0.0935
837.0365	0.0671
837.2027	-0.4101
837.3689	0.0097
837.5351	-0.4453
837.7013	0.0918
837.8674	-0.2702
838.0335	0.1401
838.1997	0.3591
838.3657	1.2823
838.5318	0.9542
838.6978	-0
838.8639	-0.0593
839.0299	0.5881
839.1958	-0.0576
839.3618	0.7422
839.5277	-0.3971
839.6937	-0.316
839.8596	0.3119
840.0254	0.1469
840.1913	-0
840.3571	-0.2068
840.523	0.2733
840.6888	-0.0542
840.8545	0.2719
841.0203	0.2676
841.186	-0.0695
841.3517	0.0488
841.5174	0.0897
841.6831	0.0771
841.8488	0.1786
842.0144	-0.0841
842.18	-0.0846
842.3456	0.3835
842.5112	-0
842.6767	-0.3625
842.8422	0.098
843.0077	0.2553
843.1732	-0.2136
843.3387	0.2736
843.5042	-0.1273
843.6696	-0
843.835	0.7228
844.0004	0.3375
844.1657	1.2823
844.3311	-0
844.4964	0.1973
844.6617	-0
844.827	0.8195
844.9923	0.1556
845.1575	0.1206
845.3227	-0.0956
845.4879	0.1797
845.6531	0.0389
845.8183	0.1641
845.9834	-0.7059
846.1485	-0.2541
846.3136	0.4703
846.4787	-0.3962
846.6438	0.4955
846.8088	-0
846.9738	-0
847.1388	0.1446
847.3038	-0.1889
847.4687	-0.3448
847.6337	-0
847.7986	-0
847.9635	-0
848.1284	0.4516
848.2932	-0.3213
848.458	-0.1051
848.6228	-0.084
848.7876	-0.0092
848.9524	0.5676
849.1172	-0.2233
849.2819	-0
849.4466	-0
849.6113	-0.2484
849.7759	-0
849.9406	-0.1548
850.1052	-0.4566
850.2698	-1.6099
850.4344	-0
850.599	1.6204
850.7635	-0.1242
850.928	0.197
851.0925	-0
851.257	-0
851.4215	0.0766
851.5859	0.0548
851.7503	-0
851.9147	-0
852.0791	-0.2845
852.2434	1.3534
852.4078	-0
852.5721	-0
852.7364	0.1855
852.9007	0.0809
853.0649	1.0883
853.2291	-0
853.3934	-0
853.5575	-0.054
853.7217	0.008
853.8859	-0
854.05	-1.0274
854.2141	-0
854.3782	0.4487
854.5423	-0.406
854.7063	0.0215
854.8703	0.8886
855.0343	0.2409
855.1983	0.2446
855.3623	-0.1402
855.5262	-0.8471
855.6901	0.067
855.854	-0.0279
856.0179	-0
856.1818	0.0179
856.3456	1.1907
856.5094	-0
856.6732	-0.762
856.837	0.002
857.0008	-0
857.1645	-0
857.3282	0.0834
857.4919	0.2638
857.6556	0.3353
857.8192	0.9705
857.9828	-0.5498
858.1465	1.3222
858.31	-0
858.4736	-0.1012
858.6372	-0.3775
858.8007	-0.724
858.9642	1.0982
859.1277	-0
859.2911	0.1635
859.4546	0.112
859.618	-0.381
859.7814	0.2745
859.9448	-0.1119
860.1081	-0.4188
860.2715	-0
860.4348	0.4036
860.5981	0.0766
860.7614	-0
860.9246	-0.1162
861.0879	-0.4986
861.2511	0.0671
861.4143	0.3453
861.5774	0.1545
861.7406	-0.1772
861.9037	0.7194
862.0668	0.1444
862.2299	-0
862.393	0.3534
862.556	0.0131
862.7191	0.5489
862.8821	-0.2796
863.0451	0.4586
863.208	-0.048
863.371	0.112
863.5339	0.4461
863.6968	-0.3254
863.8597	-1.0376
864.0225	-0
864.1854	0.4911
864.3482	-0
864.511	0.181
864.6737	-0
864.8365	-0
864.9992	-0.2714
865.1619	0.015
865.3246	0.2134
865.4873	-0
865.65	-0.328
865.8126	-0
865.9752	0.2587
866.1378	-0.762
866.3004	-0
866.4629	0.0306
866.6254	-0.6646
866.7879	-0.2807
866.9504	-0.5184
867.1129	0.0553
867.2753	0.4482
867.4377	0.2659
867.6001	0.5567
867.7625	-0.1327
867.9249	-0
868.0872	0.1744
868.2495	0.3111
868.4118	-0
868.5741	-0
868.7363	0.8218
868.8986	-0.7545
869.0608	0.409
869.223	0.7538
869.3851	-0
869.5473	-1.4031
869.7094	0.4388
869.8715	0.2756
870.0336	0.1862
870.1957	-0
870.3577	0.1564
870.5197	-0.1244
870.6817	-0
870.8437	-0
871.0057	-0
871.1676	-0.0196
871.3295	0.227
871.4914	-0
871.6533	-0.1375
871.8151	0.0144
871.977	0.6965
872.1388	-0
872.3006	-0.0212
872.4623	-0.7814
872.6241	-1.6402
872.7858	-0.0301
872.9475	-0.2115
873.1092	0.3353
873.2709	0.3806
873.4325	-0
873.5941	-0.4383
873.7557	-0.0783
873.9173	-0
874.0789	0.8436
874.2404	-0.4449
874.4019	-0.1158
874.5634	-0.1717
874.7249	1.0889
874.8863	-0.4021
875.0478	0.3943
875.2092	-0
875.3706	-0.4759
875.5319	-0.0619
875.6933	-0.313
875.8546	-0.1772
876.0159	-0
876.1772	-0.2668
876.3385	-0
876.4997	-0.0796
876.6609	-0
876.8221	1.8105
876.9833	0.0142
877.1445	-0.186
877.3056	-0.1989
877.4667	-0.8533
877.6278	-0
877.7889	-0.2133
877.9499	-0.3537
878.111	0.2898
878.272	-0.481
878.433	0.5609
878.5939	0.7365
878.7549	-0.6177
878.9158	-0
879.0767	0.012
879.2376	-0.1321
879.3984	-0.3751
879.5593	-0.0537
879.7201	0.6683
879.8809	0.2404
880.0417	0.3192
880.2024	0.0034
880.3632	0.0236
880.5239	-0.0118
880.6846	0.5013
880.8452	0.7736
881.0059	-0.5173
881.1665	0.4623
881.3271	-0
881.4877	0.1691
881.6483	-0
881.8088	-0
881.9693	0.8864
882.1298	0.8864
882.2903	0.8864
