Data from D4ACN5uM480nmA_Absorbance_12-08-02-020.txt Node
Date: Fri Feb 21 12:08:02 GMT 2025
User: LASERRRRR
Spectrometer: FLMT03099
Trigger mode: 0
Integration Time (sec): 1.500000E-2
Scans to average: 1
Electric dark correction enabled: true
Nonlinearity correction enabled: false
Boxcar width: 0
XAxis mode: Wavelengths
Number of Pixels in Spectrum: 3648
>>>>>Begin Spectral Data<<<<<
179.3399	0.027
179.5586	0.027
179.7771	0.027
179.9957	0.1815
180.2143	-0
180.4329	-0
180.6514	-0
180.8699	-0
181.0885	-0
181.307	0.4748
181.5255	-0.1782
181.744	-0
181.9625	-0.2468
182.181	0.7415
182.3994	-0
182.6179	-0
182.8363	-0
183.0547	-0
183.2732	0.2245
183.4916	0.446
183.71	0.1559
183.9284	0.1113
184.1467	0.8199
184.3651	0.382
184.5835	0.1382
184.8018	0.1491
185.0201	0.339
185.2385	0.1833
185.4568	0.2118
185.6751	0.1376
185.8934	0.2877
186.1117	0.0448
186.3299	0.1484
186.5482	0.0974
186.7664	0.4274
186.9847	0.2538
187.2029	0.0168
187.4211	0.162
187.6393	0.2747
187.8575	0.0726
188.0757	-0
188.2939	0.2576
188.512	0.1529
188.7302	0.0726
188.9483	0.0333
189.1665	0.7538
189.3846	0.291
189.6027	0.0557
189.8208	0.1364
190.0389	0.1879
190.257	0.1612
190.475	0.4101
190.6931	0.1738
190.9111	0.4865
191.1292	0.2899
191.3472	0.3875
191.5652	0.4572
191.7832	0.2851
192.0012	0.383
192.2192	0.1994
192.4371	0.3375
192.6551	0.2314
192.873	0.3301
193.091	0.3943
193.3089	0.0504
193.5268	0.4337
193.7447	0.4108
193.9626	0.6687
194.1805	0.5144
194.3984	0.5454
194.6162	0.3685
194.8341	0.6669
195.0519	0.5499
195.2697	0.5689
195.4875	0.5666
195.7054	0.5159
195.9231	0.4025
196.1409	0.6101
196.3587	0.5999
196.5765	0.4656
196.7942	0.5339
197.012	0.6043
197.2297	0.5092
197.4474	0.8172
197.6651	0.5742
197.8828	0.653
198.1005	0.6347
198.3182	0.6927
198.5358	0.5364
198.7535	0.6439
198.9711	0.5613
199.1888	0.6624
199.4064	0.64
199.624	0.6995
199.8416	0.5983
200.0592	0.5919
200.2767	0.5868
200.4943	0.6167
200.7119	0.5818
200.9294	0.6338
201.1469	0.6239
201.3645	0.7119
201.582	0.5319
201.7995	0.6315
202.017	0.6306
202.2344	0.5299
202.4519	0.5991
202.6694	0.5907
202.8868	0.5982
203.1042	0.5075
203.3217	0.5061
203.5391	0.5427
203.7565	0.5556
203.9739	0.5354
204.1913	0.5021
204.4086	0.5139
204.626	0.5771
204.8433	0.4909
205.0607	0.5451
205.278	0.4886
205.4953	0.4575
205.7126	0.479
205.9299	0.4523
206.1472	0.4764
206.3644	0.4609
206.5817	0.4509
206.7989	0.4804
207.0162	0.4359
207.2334	0.4461
207.4506	0.4415
207.6678	0.4845
207.885	0.438
208.1022	0.4624
208.3194	0.4402
208.5365	0.43
208.7537	0.4502
208.9708	0.4815
209.1879	0.4285
209.405	0.4317
209.6222	0.424
209.8392	0.4119
210.0563	0.4354
210.2734	0.4262
210.4905	0.4144
210.7075	0.4243
210.9245	0.4347
211.1416	0.4031
211.3586	0.4168
211.5756	0.4265
211.7926	0.423
212.0096	0.432
212.2265	0.4093
212.4435	0.4273
212.6604	0.4203
212.8774	0.4221
213.0943	0.4147
213.3112	0.396
213.5281	0.4177
213.745	0.3949
213.9619	0.3966
214.1788	0.4031
214.3956	0.4252
214.6125	0.4037
214.8293	0.4085
215.0461	0.4043
215.2629	0.4023
215.4798	0.3848
215.6965	0.3749
215.9133	0.4026
216.1301	0.3975
216.3469	0.4016
216.5636	0.4161
216.7803	0.4368
216.9971	0.4203
217.2138	0.4056
217.4305	0.435
217.6472	0.4313
217.8639	0.4096
218.0805	0.4073
218.2972	0.4233
218.5138	0.435
218.7305	0.4227
218.9471	0.4095
219.1637	0.421
219.3803	0.4161
219.5969	0.4338
219.8135	0.4236
220.0301	0.4348
220.2466	0.4322
220.4632	0.4243
220.6797	0.4412
220.8962	0.4454
221.1127	0.4124
221.3292	0.4514
221.5457	0.4636
221.7622	0.4197
221.9787	0.4445
222.1951	0.4388
222.4116	0.4351
222.628	0.4572
222.8444	0.437
223.0608	0.4307
223.2772	0.4584
223.4936	0.4344
223.71	0.4474
223.9264	0.4454
224.1427	0.4684
224.3591	0.4651
224.5754	0.4511
224.7917	0.4619
225.008	0.463
225.2243	0.4657
225.4406	0.4712
225.6569	0.4693
225.8732	0.4664
226.0894	0.482
226.3057	0.4603
226.5219	0.4746
226.7381	0.4735
226.9543	0.4752
227.1705	0.4647
227.3867	0.4835
227.6029	0.4832
227.8191	0.4691
228.0352	0.5065
228.2513	0.4947
228.4675	0.4994
228.6836	0.4994
228.8997	0.4946
229.1158	0.4901
229.3319	0.5153
229.548	0.4975
229.764	0.5107
229.9801	0.5199
230.1961	0.5061
230.4121	0.4967
230.6282	0.5245
230.8442	0.4985
231.0602	0.5381
231.2761	0.5093
231.4921	0.5213
231.7081	0.5216
231.924	0.5084
232.14	0.5183
232.3559	0.5391
232.5718	0.531
232.7877	0.5252
233.0036	0.5126
233.2195	0.5268
233.4353	0.5432
233.6512	0.5307
233.867	0.5335
234.0829	0.5407
234.2987	0.5198
234.5145	0.5396
234.7303	0.5437
234.9461	0.5418
235.1619	0.5431
235.3776	0.5341
235.5934	0.5345
235.8091	0.5285
236.0249	0.5335
236.2406	0.5397
236.4563	0.5399
236.672	0.5447
236.8877	0.5313
237.1034	0.5272
237.319	0.5356
237.5347	0.5229
237.7503	0.5361
237.966	0.5505
238.1816	0.523
238.3972	0.5407
238.6128	0.5483
238.8284	0.5291
239.0439	0.5414
239.2595	0.5307
239.475	0.5344
239.6906	0.532
239.9061	0.5227
240.1216	0.539
240.3371	0.5147
240.5526	0.5256
240.7681	0.5304
240.9836	0.5158
241.199	0.5151
241.4145	0.5058
241.6299	0.4981
241.8453	0.4864
242.0607	0.4829
242.2761	0.4797
242.4915	0.4712
242.7069	0.4742
242.9223	0.4624
243.1376	0.4563
243.353	0.4464
243.5683	0.4415
243.7836	0.4195
243.9989	0.4168
244.2142	0.4091
244.4295	0.4118
244.6448	0.3995
244.86	0.3945
245.0753	0.3789
245.2905	0.374
245.5057	0.3683
245.721	0.3606
245.9362	0.3485
246.1514	0.3429
246.3665	0.3435
246.5817	0.3332
246.7969	0.3287
247.012	0.3246
247.2271	0.3121
247.4423	0.3035
247.6574	0.3141
247.8725	0.3019
248.0876	0.2915
248.3026	0.292
248.5177	0.2771
248.7328	0.2809
248.9478	0.2734
249.1628	0.264
249.3779	0.2725
249.5929	0.2616
249.8079	0.2582
250.0228	0.259
250.2378	0.2559
250.4528	0.2507
250.6677	0.2428
250.8827	0.2344
251.0976	0.2419
251.3125	0.2309
251.5274	0.2301
251.7423	0.2258
251.9572	0.2271
252.172	0.2171
252.3869	0.2192
252.6017	0.2135
252.8166	0.2123
253.0314	0.2172
253.2462	0.2182
253.461	0.2111
253.6758	0.2095
253.8906	0.2078
254.1053	0.2082
254.3201	0.2025
254.5348	0.205
254.7496	0.1973
254.9643	0.21
255.179	0.201
255.3937	0.1942
255.6083	0.1992
255.823	0.1998
256.0377	0.2006
256.2523	0.1987
256.467	0.1989
256.6816	0.2047
256.8962	0.191
257.1108	0.1858
257.3254	0.1946
257.54	0.1979
257.7545	0.1944
257.9691	0.1901
258.1836	0.195
258.3981	0.1913
258.6127	0.1876
258.8272	0.1888
259.0417	0.1832
259.2561	0.1884
259.4706	0.1868
259.6851	0.183
259.8995	0.1766
260.114	0.1845
260.3284	0.1855
260.5428	0.1831
260.7572	0.1853
260.9716	0.187
261.186	0.1805
261.4003	0.1857
261.6147	0.1837
261.829	0.1778
262.0433	0.1802
262.2577	0.1871
262.472	0.1868
262.6863	0.1847
262.9005	0.1854
263.1148	0.1788
263.3291	0.1878
263.5433	0.1862
263.7576	0.1839
263.9718	0.1909
264.186	0.1877
264.4002	0.1731
264.6144	0.195
264.8286	0.1889
265.0427	0.1965
265.2569	0.1879
265.471	0.1824
265.6851	0.1767
265.8993	0.1887
266.1134	0.1867
266.3275	0.1868
266.5415	0.1836
266.7556	0.1781
266.9697	0.1858
267.1837	0.1874
267.3978	0.1927
267.6118	0.1854
267.8258	0.1819
268.0398	0.1849
268.2538	0.1901
268.4677	0.1783
268.6817	0.1785
268.8957	0.1877
269.1096	0.1747
269.3235	0.1853
269.5374	0.1773
269.7514	0.1792
269.9652	0.1798
270.1791	0.1819
270.393	0.185
270.6068	0.17
270.8207	0.1783
271.0345	0.1784
271.2483	0.177
271.4622	0.1771
271.676	0.1775
271.8897	0.1664
272.1035	0.1696
272.3173	0.1717
272.531	0.1777
272.7448	0.1723
272.9585	0.1718
273.1722	0.1755
273.3859	0.1738
273.5996	0.1754
273.8133	0.1694
274.0269	0.1767
274.2406	0.1746
274.4542	0.1687
274.6679	0.1725
274.8815	0.1753
275.0951	0.1796
275.3087	0.1766
275.5223	0.1705
275.7358	0.1789
275.9494	0.1741
276.1629	0.1719
276.3765	0.1727
276.59	0.1761
276.8035	0.1788
277.017	0.1726
277.2305	0.1783
277.444	0.1771
277.6574	0.1786
277.8709	0.1763
278.0843	0.177
278.2978	0.1826
278.5112	0.1845
278.7246	0.1792
278.938	0.1753
279.1513	0.1841
279.3647	0.1804
279.5781	0.1814
279.7914	0.1789
280.0047	0.175
280.2181	0.1796
280.4314	0.1776
280.6447	0.182
280.8579	0.181
281.0712	0.182
281.2845	0.1849
281.4977	0.1906
281.711	0.1831
281.9242	0.1855
282.1374	0.1836
282.3506	0.1876
282.5638	0.1853
282.7769	0.1874
282.9901	0.1825
283.2033	0.1878
283.4164	0.1868
283.6295	0.1885
283.8426	0.1888
284.0557	0.1848
284.2688	0.1849
284.4819	0.1858
284.695	0.1902
284.908	0.1848
285.1211	0.187
285.3341	0.1952
285.5471	0.191
285.7601	0.1901
285.9731	0.1894
286.1861	0.1847
286.3991	0.1932
286.612	0.1935
286.825	0.1975
287.0379	0.1985
287.2508	0.196
287.4637	0.1965
287.6766	0.1976
287.8895	0.1908
288.1024	0.1944
288.3152	0.194
288.5281	0.2004
288.7409	0.1962
288.9538	0.1963
289.1666	0.1966
289.3794	0.1954
289.5922	0.1931
289.8049	0.2023
290.0177	0.196
290.2304	0.1998
290.4432	0.2015
290.6559	0.188
290.8686	0.2025
291.0813	0.2042
291.294	0.2063
291.5067	0.1998
291.7194	0.1994
291.932	0.2004
292.1447	0.2022
292.3573	0.1958
292.5699	0.2025
292.7825	0.2005
292.9951	0.2023
293.2077	0.2016
293.4203	0.2008
293.6328	0.2009
293.8454	0.1957
294.0579	0.1976
294.2704	0.2047
294.4829	0.2011
294.6954	0.1997
294.9079	0.2012
295.1204	0.1956
295.3328	0.198
295.5453	0.1991
295.7577	0.1948
295.9701	0.201
296.1825	0.2013
296.3949	0.2094
296.6073	0.2016
296.8197	0.1996
297.0321	0.2004
297.2444	0.2004
297.4567	0.1949
297.6691	0.2011
297.8814	0.1986
298.0937	0.1988
298.306	0.1978
298.5182	0.2056
298.7305	0.197
298.9428	0.1977
299.155	0.1984
299.3672	0.2047
299.5794	0.191
299.7916	0.1994
300.0038	0.1937
300.216	0.1998
300.4282	0.2007
300.6403	0.197
300.8525	0.2049
301.0646	0.1939
301.2767	0.2014
301.4888	0.198
301.7009	0.2019
301.913	0.1974
302.125	0.1941
302.3371	0.197
302.5491	0.196
302.7612	0.1967
302.9732	0.1966
303.1852	0.1942
303.3972	0.1979
303.6092	0.1958
303.8211	0.1891
304.0331	0.1893
304.245	0.1917
304.457	0.1951
304.6689	0.1941
304.8808	0.1913
305.0927	0.1945
305.3046	0.185
305.5164	0.1863
305.7283	0.19
305.9401	0.1796
306.152	0.1793
306.3638	0.183
306.5756	0.1819
306.7874	0.1809
306.9992	0.179
307.2109	0.1732
307.4227	0.1708
307.6344	0.1751
307.8462	0.1714
308.0579	0.1706
308.2696	0.1678
308.4813	0.1618
308.693	0.1654
308.9046	0.1636
309.1163	0.1642
309.328	0.1579
309.5396	0.1639
309.7512	0.1555
309.9628	0.1553
310.1744	0.1553
310.386	0.1456
310.5976	0.1486
310.8091	0.1472
311.0207	0.1438
311.2322	0.1448
311.4437	0.1403
311.6552	0.1414
311.8667	0.1406
312.0782	0.1394
312.2897	0.1408
312.5012	0.1361
312.7126	0.1329
312.924	0.1338
313.1355	0.1305
313.3469	0.1289
313.5583	0.1345
313.7696	0.1265
313.981	0.1247
314.1924	0.1271
314.4037	0.1239
314.6151	0.1278
314.8264	0.1283
315.0377	0.1302
315.249	0.1204
315.4603	0.1257
315.6716	0.1304
315.8828	0.1221
316.0941	0.1254
316.3053	0.1199
316.5165	0.1178
316.7277	0.1233
316.9389	0.1243
317.1501	0.1229
317.3613	0.1171
317.5724	0.1223
317.7836	0.1184
317.9947	0.113
318.2058	0.1217
318.417	0.1217
318.6281	0.1158
318.8391	0.1231
319.0502	0.1221
319.2613	0.1176
319.4723	0.1197
319.6834	0.1203
319.8944	0.122
320.1054	0.1162
320.3164	0.1189
320.5274	0.1159
320.7383	0.1131
320.9493	0.1163
321.1602	0.1164
321.3712	0.1218
321.5821	0.1183
321.793	0.1183
322.0039	0.1199
322.2148	0.1177
322.4257	0.1147
322.6365	0.1136
322.8474	0.1164
323.0582	0.1191
323.269	0.1162
323.4798	0.1168
323.6906	0.1192
323.9014	0.116
324.1122	0.1205
324.3229	0.1205
324.5337	0.1215
324.7444	0.1155
324.9551	0.1213
325.1658	0.1184
325.3765	0.1206
325.5872	0.1149
325.7979	0.1215
326.0085	0.1218
326.2192	0.1187
326.4298	0.1228
326.6404	0.1195
326.851	0.1151
327.0616	0.1259
327.2722	0.1241
327.4828	0.1181
327.6933	0.1276
327.9039	0.1226
328.1144	0.1209
328.3249	0.1232
328.5354	0.1273
328.7459	0.1227
328.9564	0.1254
329.1669	0.1215
329.3773	0.1169
329.5878	0.1237
329.7982	0.1257
330.0086	0.1251
330.219	0.1259
330.4294	0.1219
330.6398	0.1294
330.8502	0.1237
331.0605	0.1242
331.2708	0.1309
331.4812	0.1232
331.6915	0.1214
331.9018	0.1217
332.1121	0.1292
332.3224	0.1329
332.5326	0.1217
332.7429	0.1207
332.9531	0.1239
333.1633	0.1295
333.3735	0.118
333.5837	0.1296
333.7939	0.1225
334.0041	0.1211
334.2143	0.1223
334.4244	0.1227
334.6346	0.1229
334.8447	0.1298
335.0548	0.1245
335.2649	0.1299
335.475	0.1267
335.685	0.1246
335.8951	0.1297
336.1051	0.1312
336.3152	0.1277
336.5252	0.126
336.7352	0.1249
336.9452	0.1349
337.1552	0.126
337.3652	0.1313
337.5751	0.1242
337.7851	0.1293
337.995	0.1291
338.2049	0.1313
338.4148	0.1269
338.6247	0.131
338.8346	0.1295
339.0445	0.1307
339.2543	0.1317
339.4642	0.1409
339.674	0.1376
339.8838	0.1368
340.0936	0.139
340.3034	0.1343
340.5132	0.1363
340.7229	0.1355
340.9327	0.1359
341.1424	0.1392
341.3522	0.1368
341.5619	0.1422
341.7716	0.1387
341.9813	0.1455
342.1909	0.1426
342.4006	0.1466
342.6102	0.1418
342.8199	0.1319
343.0295	0.1411
343.2391	0.1396
343.4487	0.1471
343.6583	0.1467
343.8679	0.1489
344.0774	0.1454
344.287	0.1469
344.4965	0.1425
344.706	0.1511
344.9155	0.1443
345.125	0.1478
345.3345	0.1472
345.544	0.1464
345.7534	0.1514
345.9629	0.15
346.1723	0.1454
346.3817	0.1517
346.5911	0.1497
346.8005	0.152
347.0099	0.1608
347.2193	0.1481
347.4286	0.1534
347.638	0.1526
347.8473	0.162
348.0566	0.1583
348.2659	0.1522
348.4752	0.1559
348.6845	0.1645
348.8937	0.1633
349.103	0.1562
349.3122	0.1648
349.5214	0.1594
349.7306	0.1609
349.9398	0.1627
350.149	0.1655
350.3582	0.1569
350.5674	0.1669
350.7765	0.1625
350.9856	0.1682
351.1948	0.1616
351.4039	0.1671
351.613	0.1784
351.822	0.1714
352.0311	0.1668
352.2402	0.1765
352.4492	0.171
352.6582	0.1722
352.8672	0.1726
353.0762	0.1745
353.2852	0.1745
353.4942	0.1696
353.7032	0.1704
353.9121	0.1801
354.1211	0.1785
354.33	0.1784
354.5389	0.1832
354.7478	0.1843
354.9567	0.1745
355.1655	0.1777
355.3744	0.178
355.5833	0.1872
355.7921	0.1814
356.0009	0.1807
356.2097	0.1919
356.4185	0.1938
356.6273	0.1863
356.8361	0.1906
357.0448	0.1923
357.2536	0.1886
357.4623	0.1852
357.671	0.182
357.8797	0.1994
358.0884	0.1869
358.2971	0.1957
358.5057	0.1899
358.7144	0.1999
358.923	0.194
359.1316	0.1902
359.3402	0.201
359.5488	0.1961
359.7574	0.1982
359.966	0.2006
360.1746	0.1991
360.3831	0.2116
360.5916	0.2067
360.8002	0.21
361.0087	0.2084
361.2172	0.2113
361.4256	0.2063
361.6341	0.2127
361.8426	0.2047
362.051	0.2094
362.2594	0.2089
362.4678	0.2217
362.6762	0.2213
362.8846	0.2226
363.093	0.216
363.3014	0.2259
363.5097	0.2137
363.718	0.2312
363.9264	0.2224
364.1347	0.2308
364.343	0.2334
364.5513	0.2282
364.7595	0.2358
364.9678	0.2318
365.176	0.2283
365.3842	0.23
365.5925	0.2287
365.8007	0.2369
366.0089	0.2384
366.217	0.236
366.4252	0.238
366.6333	0.2332
366.8415	0.237
367.0496	0.2341
367.2577	0.2402
367.4658	0.2427
367.6739	0.2413
367.882	0.2482
368.09	0.2466
368.2981	0.2436
368.5061	0.2501
368.7141	0.2412
368.9221	0.2498
369.1301	0.2476
369.3381	0.2536
369.5461	0.2478
369.754	0.2519
369.962	0.2524
370.1699	0.2593
370.3778	0.2516
370.5857	0.2637
370.7936	0.2613
371.0015	0.2537
371.2093	0.2659
371.4172	0.2615
371.625	0.2612
371.8328	0.2718
372.0406	0.2561
372.2484	0.2582
372.4562	0.2689
372.664	0.2688
372.8717	0.2724
373.0795	0.2736
373.2872	0.2777
373.4949	0.2793
373.7026	0.2798
373.9103	0.2662
374.118	0.2685
374.3256	0.2873
374.5333	0.2689
374.7409	0.2685
374.9485	0.2701
375.1561	0.2837
375.3637	0.2801
375.5713	0.2704
375.7789	0.274
375.9864	0.2841
376.194	0.2863
376.4015	0.2893
376.609	0.2856
376.8165	0.2862
377.024	0.2755
377.2315	0.2909
377.4389	0.2797
377.6464	0.2938
377.8538	0.2924
378.0612	0.2818
378.2686	0.2897
378.476	0.2757
378.6834	0.287
378.8908	0.2977
379.0981	0.2999
379.3055	0.3055
379.5128	0.2931
379.7201	0.2949
379.9274	0.2823
380.1347	0.2938
380.342	0.3086
380.5492	0.301
380.7565	0.295
380.9637	0.2989
381.1709	0.2975
381.3781	0.3081
381.5853	0.303
381.7925	0.3108
381.9997	0.3107
382.2068	0.2983
382.4139	0.3188
382.6211	0.3166
382.8282	0.3044
383.0353	0.3013
383.2424	0.3021
383.4494	0.3097
383.6565	0.3084
383.8635	0.3172
384.0706	0.3157
384.2776	0.3232
384.4846	0.3172
384.6916	0.3152
384.8986	0.3298
385.1055	0.3169
385.3125	0.3137
385.5194	0.3112
385.7263	0.3145
385.9333	0.314
386.1402	0.3156
386.347	0.3106
386.5539	0.3164
386.7608	0.317
386.9676	0.311
387.1744	0.3142
387.3813	0.3103
387.5881	0.3141
387.7948	0.3108
388.0016	0.3141
388.2084	0.3088
388.4151	0.3066
388.6219	0.3084
388.8286	0.3164
389.0353	0.2982
389.242	0.3053
389.4487	0.307
389.6553	0.3081
389.862	0.3088
390.0686	0.309
390.2753	0.3078
390.4819	0.3129
390.6885	0.2997
390.8951	0.3187
391.1016	0.297
391.3082	0.2934
391.5147	0.2996
391.7213	0.2979
391.9278	0.3059
392.1343	0.2983
392.3408	0.291
392.5473	0.2856
392.7537	0.2996
392.9602	0.2938
393.1666	0.2928
393.373	0.2884
393.5794	0.2895
393.7858	0.2959
393.9922	0.2904
394.1986	0.2804
394.4049	0.2926
394.6113	0.2852
394.8176	0.2693
395.0239	0.2787
395.2302	0.2735
395.4365	0.277
395.6428	0.289
395.8491	0.276
396.0553	0.279
396.2615	0.2765
396.4678	0.2706
396.674	0.2714
396.8802	0.2659
397.0863	0.2781
397.2925	0.2798
397.4987	0.2608
397.7048	0.272
397.9109	0.2638
398.117	0.2665
398.3231	0.2776
398.5292	0.2751
398.7353	0.2655
398.9413	0.2683
399.1474	0.2745
399.3534	0.2739
399.5594	0.2732
399.7654	0.2808
399.9714	0.2663
400.1774	0.2665
400.3833	0.2828
400.5893	0.2574
400.7952	0.2669
401.0011	0.2571
401.207	0.2671
401.4129	0.2684
401.6188	0.2559
401.8247	0.2603
402.0305	0.2674
402.2364	0.2708
402.4422	0.2662
402.648	0.2776
402.8538	0.2694
403.0596	0.2654
403.2654	0.2723
403.4711	0.2672
403.6768	0.2739
403.8826	0.2669
404.0883	0.2693
404.294	0.2664
404.4997	0.266
404.7054	0.2673
404.911	0.2596
405.1167	0.2748
405.3223	0.2624
405.5279	0.2747
405.7335	0.2605
405.9391	0.2594
406.1447	0.2628
406.3502	0.2737
406.5558	0.2813
406.7613	0.2732
406.9668	0.2684
407.1724	0.2751
407.3778	0.265
407.5833	0.2759
407.7888	0.2734
407.9942	0.2672
408.1997	0.2691
408.4051	0.278
408.6105	0.2649
408.8159	0.2704
409.0213	0.2722
409.2267	0.2649
409.432	0.2716
409.6374	0.263
409.8427	0.2734
410.048	0.2645
410.2533	0.2687
410.4586	0.2674
410.6639	0.2651
410.8691	0.2712
411.0744	0.265
411.2796	0.2638
411.4848	0.2622
411.69	0.275
411.8952	0.268
412.1004	0.2719
412.3056	0.2653
412.5107	0.2637
412.7158	0.2732
412.921	0.2693
413.1261	0.2621
413.3312	0.2632
413.5362	0.2702
413.7413	0.278
413.9464	0.2657
414.1514	0.2583
414.3564	0.265
414.5614	0.2629
414.7664	0.2619
414.9714	0.2627
415.1764	0.2624
415.3813	0.2595
415.5863	0.2603
415.7912	0.2642
415.9961	0.2558
416.201	0.2601
416.4059	0.2522
416.6108	0.2652
416.8156	0.2479
417.0205	0.2702
417.2253	0.2642
417.4301	0.2634
417.6349	0.2527
417.8397	0.2593
418.0445	0.2688
418.2492	0.2693
418.454	0.2638
418.6587	0.2665
418.8634	0.2565
419.0681	0.2572
419.2728	0.248
419.4775	0.2595
419.6822	0.2458
419.8868	0.2556
420.0915	0.2483
420.2961	0.2459
420.5007	0.2478
420.7053	0.2601
420.9099	0.2395
421.1144	0.2404
421.319	0.2411
421.5235	0.2491
421.728	0.2438
421.9325	0.2497
422.137	0.2483
422.3415	0.2378
422.546	0.2441
422.7504	0.2404
422.9549	0.2346
423.1593	0.2362
423.3637	0.2388
423.5681	0.2359
423.7725	0.2405
423.9769	0.245
424.1812	0.2404
424.3856	0.2313
424.5899	0.2343
424.7942	0.2146
424.9985	0.2283
425.2028	0.2331
425.4071	0.2149
425.6113	0.2263
425.8156	0.2265
426.0198	0.2306
426.224	0.2233
426.4282	0.2291
426.6324	0.2362
426.8366	0.2169
427.0407	0.2294
427.2449	0.22
427.449	0.2122
427.6531	0.2164
427.8572	0.2116
428.0613	0.1997
428.2654	0.2097
428.4694	0.2022
428.6735	0.2099
428.8775	0.2055
429.0815	0.2051
429.2855	0.2008
429.4895	0.1936
429.6935	0.1999
429.8975	0.2118
430.1014	0.1972
430.3053	0.1964
430.5093	0.1996
430.7132	0.1985
430.9171	0.1958
431.1209	0.1951
431.3248	0.1895
431.5286	0.1731
431.7325	0.1917
431.9363	0.1799
432.1401	0.1777
432.3439	0.1794
432.5477	0.1854
432.7514	0.1799
432.9552	0.1747
433.1589	0.1684
433.3627	0.1748
433.5664	0.1666
433.7701	0.1689
433.9737	0.1656
434.1774	0.1699
434.3811	0.1586
434.5847	0.1654
434.7883	0.1615
434.9919	0.1443
435.1955	0.1645
435.3991	0.1515
435.6027	0.1605
435.8062	0.1455
436.0098	0.1455
436.2133	0.162
436.4168	0.1541
436.6203	0.1482
436.8238	0.1419
437.0272	0.1464
437.2307	0.1272
437.4341	0.1361
437.6375	0.1251
437.841	0.1348
438.0443	0.1303
438.2477	0.1269
438.4511	0.1453
438.6545	0.1293
438.8578	0.1313
439.0611	0.1308
439.2644	0.126
439.4677	0.1154
439.671	0.1194
439.8743	0.1134
440.0775	0.1126
440.2808	0.1244
440.484	0.1104
440.6872	0.1033
440.8904	0.1035
441.0936	0.1124
441.2967	0.0966
441.4999	0.1021
441.703	0.1038
441.9062	0.0989
442.1093	0.0999
442.3124	0.103
442.5155	0.0981
442.7185	0.0841
442.9216	0.0891
443.1246	0.096
443.3276	0.0819
443.5307	0.0832
443.7337	0.0913
443.9366	0.0835
444.1396	0.078
444.3426	0.0881
444.5455	0.0806
444.7484	0.0742
444.9513	0.0827
445.1542	0.0803
445.3571	0.0676
445.56	0.0728
445.7628	0.0704
445.9657	0.0751
446.1685	0.0797
446.3713	0.0689
446.5741	0.0613
446.7769	0.0666
446.9797	0.0646
447.1824	0.0678
447.3852	0.0573
447.5879	0.0704
447.7906	0.0581
447.9933	0.0659
448.196	0.0594
448.3986	0.0543
448.6013	0.0606
448.8039	0.0523
449.0066	0.0488
449.2092	0.0491
449.4118	0.0541
449.6143	0.0505
449.8169	0.0525
450.0195	0.0611
450.222	0.0476
450.4245	0.0591
450.627	0.038
450.8295	0.0405
451.032	0.0437
451.2345	0.0383
451.4369	0.0462
451.6394	0.0397
451.8418	0.0356
452.0442	0.0396
452.2466	0.038
452.449	0.0333
452.6513	0.0337
452.8537	0.0363
453.056	0.0442
453.2583	0.0347
453.4607	0.033
453.663	0.0375
453.8652	0.0307
454.0675	0.0306
454.2697	0.0216
454.472	0.0223
454.6742	0.0276
454.8764	0.0346
455.0786	0.0332
455.2808	0.0272
455.4829	0.0258
455.6851	0.0169
455.8872	0.0344
456.0893	0.0259
456.2915	0.0289
456.4935	0.0226
456.6956	0.024
456.8977	0.0274
457.0997	0.0275
457.3018	0.0252
457.5038	0.0154
457.7058	0.0234
457.9078	0.0334
458.1098	0.0197
458.3117	0.0258
458.5137	0.0217
458.7156	0.0271
458.9175	0.0178
459.1194	0.0255
459.3213	0.0153
459.5232	0.0178
459.725	0.0141
459.9269	0.0167
460.1287	0.0018
460.3305	0.0155
460.5323	0.0249
460.7341	0.0172
460.9359	0.018
461.1376	0.0274
461.3394	0.008
461.5411	0.0241
461.7428	0.0196
461.9445	0.0094
462.1462	0.0157
462.3479	0.0241
462.5495	0.0173
462.7512	0.015
462.9528	0.0164
463.1544	0.006
463.356	0.0197
463.5576	0.0067
463.7592	0.0026
463.9607	0.0118
464.1623	0.0117
464.3638	0.0132
464.5653	0.0104
464.7668	0.0079
464.9683	0.0073
465.1697	0.012
465.3712	0.0092
465.5726	0.0076
465.7741	0.012
465.9755	0.0112
466.1769	0.0028
466.3782	0.0064
466.5796	0.0035
466.7809	0.0187
466.9823	0.0079
467.1836	0.0139
467.3849	0.006
467.5862	-0.0006
467.7875	0.0116
467.9887	0.0097
468.19	0.0087
468.3912	0.0111
468.5924	0.0141
468.7936	0.0014
468.9948	0.0193
469.196	-0.0025
469.3972	0.022
469.5983	0.0086
469.7994	0.0028
470.0006	0.0014
470.2017	0.0191
470.4027	-0.0078
470.6038	0.0026
470.8049	-0.0038
471.0059	0.0127
471.2069	0.0178
471.408	-0.0046
471.6089	0.0123
471.8099	0.0042
472.0109	-0.0029
472.2119	0.0181
472.4128	0.0127
472.6137	0.0095
472.8146	0.0029
473.0155	-0.0027
473.2164	0.0012
473.4173	0.0145
473.6181	0.0099
473.819	-0.0025
474.0198	0.0072
474.2206	0.0062
474.4214	0.0155
474.6222	0.0056
474.8229	0.0091
475.0237	0.0049
475.2244	0.0109
475.4251	-0.0005
475.6258	0.0087
475.8265	0.0032
476.0272	0.0039
476.2278	-0.0001
476.4285	-0.0011
476.6291	0.0157
476.8297	0.0062
477.0303	0.0064
477.2309	0.0008
477.4315	0.0125
477.632	0.0032
477.8326	0.0116
478.0331	0.0068
478.2336	0.0074
478.4341	0.0066
478.6346	0.0043
478.8351	0.0093
479.0355	0.0124
479.236	0.0002
479.4364	-0.0039
479.6368	0.0081
479.8372	0.0106
480.0376	0.0003
480.2379	0.0059
480.4383	-0.0003
480.6386	0.0038
480.8389	0.0055
481.0392	0.0078
481.2395	0.006
481.4398	0.0074
481.6401	0.0022
481.8403	-0.0099
482.0405	0.0076
482.2408	0.0014
482.441	0.0002
482.6411	0.0014
482.8413	-0.0045
483.0415	0.0029
483.2416	0.0046
483.4417	0.0071
483.6419	0.0044
483.8419	0.0054
484.042	0
484.2421	-0.0018
484.4422	0.0039
484.6422	0.0046
484.8422	0.0029
485.0422	0.004
485.2422	0.0057
485.4422	-0.0038
485.6422	0.0004
485.8421	-0.0026
486.042	0.0053
486.242	-0.0021
486.4419	0.0008
486.6417	-0.0004
486.8416	-0.0004
487.0415	-0.002
487.2413	0.0044
487.4411	0.0015
487.641	0.0042
487.8408	0.0049
488.0405	0.0018
488.2403	-0.0021
488.4401	-0.0087
488.6398	0.005
488.8395	0.0054
489.0392	0.0056
489.2389	0.0021
489.4386	-0.0053
489.6383	0.003
489.8379	0.0008
490.0376	0.0101
490.2372	0.004
490.4368	0.005
490.6364	0.0047
490.836	0.003
491.0355	0.0012
491.2351	0.0068
491.4346	0.0037
491.6341	-0.0017
491.8336	-0.0009
492.0331	-0.0011
492.2326	-0.0007
492.432	-0.0071
492.6315	-0.0043
492.8309	0.0072
493.0303	-0.003
493.2297	0.0021
493.4291	-0.0046
493.6284	-0.0014
493.8278	0.0019
494.0271	0.003
494.2264	0.0055
494.4257	0.0063
494.625	0.0007
494.8243	0.0081
495.0236	-0.0003
495.2228	-0.0044
495.422	0.0064
495.6213	-0.0068
495.8205	0.0058
496.0196	0.0065
496.2188	0.0048
496.418	-0.0008
496.6171	0.004
496.8162	-0.0048
497.0153	-0.0025
497.2144	-0.0067
497.4135	-0.0035
497.6126	-0.0116
497.8116	0.0059
498.0107	-0.0048
498.2097	0.01
498.4087	0.0114
498.6077	-0.0046
498.8067	0.0078
499.0056	0.0012
499.2046	0.0011
499.4035	0.0055
499.6024	-0.0066
499.8013	0.0003
500.0002	0.0062
500.199	-0.0008
500.3979	-0.0003
500.5967	0.0023
500.7956	0.0028
500.9944	0.0061
501.1932	0.0025
501.3919	0.0048
501.5907	0.0043
501.7895	-0.005
501.9882	-0.001
502.1869	-0.0004
502.3856	0.001
502.5843	-0.0036
502.783	0.0112
502.9816	-0.0011
503.1803	0.0039
503.3789	0.0025
503.5775	0.0037
503.7761	-0.0021
503.9747	-0.0004
504.1732	-0.0019
504.3718	-0.0012
504.5703	-0.0009
504.7689	0.0008
504.9674	0.0002
505.1658	-0.0038
505.3643	0.007
505.5628	0.0121
505.7612	0.008
505.9597	0.0054
506.1581	-0.0047
506.3565	-0.006
506.5549	-0.0028
506.7532	0.0075
506.9516	0
507.1499	0.0006
507.3482	0.0105
507.5465	-0.0034
507.7448	0.01
507.9431	-0.0059
508.1414	-0.0025
508.3396	0.0004
508.5379	-0.0031
508.7361	-0.0002
508.9343	-0.0032
509.1325	0.0067
509.3306	-0.0053
509.5288	0.0068
509.7269	0.0026
509.9251	-0.0017
510.1232	-0.002
510.3213	-0.0016
510.5193	0.0029
510.7174	-0.0024
510.9154	0.0046
511.1135	0.002
511.3115	-0.0029
511.5095	0.0008
511.7075	0.0005
511.9055	0.0049
512.1034	0.0082
512.3014	0.0003
512.4993	-0.0064
512.6972	0.0004
512.8951	0.0033
513.093	0.0093
513.2908	0.0014
513.4887	0.0018
513.6865	-0.0006
513.8844	0.0041
514.0822	0.0041
514.2799	-0.0023
514.4777	0.0127
514.6755	0.0026
514.8732	-0.0037
515.0709	0.0044
515.2687	0.0046
515.4664	0.0023
515.664	0.0098
515.8617	0.0007
516.0594	0.0032
516.257	0.006
516.4546	-0.0061
516.6522	0.0061
516.8498	-0.0042
517.0474	0.0017
517.2449	-0.0042
517.4425	-0.0036
517.64	0.0041
517.8375	0.0095
518.035	-0.0018
518.2325	-0.0019
518.43	-0.0034
518.6274	0.0009
518.8249	0.0004
519.0223	-0.0061
519.2197	-0.0071
519.4171	0.0069
519.6145	-0.0032
519.8118	-0.0088
520.0092	0.0035
520.2065	0.0018
520.4038	0.0046
520.6011	0.0008
520.7984	0.0048
520.9956	0.0017
521.1929	0.0037
521.3901	0.0041
521.5874	0.0002
521.7846	-0.0007
521.9818	0.0011
522.1789	0.0147
522.3761	-0.0018
522.5732	0.0059
522.7704	0.0052
522.9675	-0.0022
523.1646	0.0135
523.3617	-0.0003
523.5587	0.0059
523.7558	-0.0006
523.9528	0.015
524.1498	0.0002
524.3468	0.0028
524.5438	-0.0049
524.7408	-0.0011
524.9378	-0.0035
525.1347	0.0034
525.3316	0.0076
525.5285	-0.0048
525.7254	0.0067
525.9223	-0.0024
526.1192	-0.0011
526.316	-0.0107
526.5129	0.0052
526.7097	-0.0026
526.9065	0.0125
527.1033	-0.001
527.3	-0.0045
527.4968	0.0009
527.6935	-0.0029
527.8903	0.0055
528.087	0.0026
528.2837	0.0121
528.4804	0.0027
528.677	-0.0008
528.8737	-0.0014
529.0703	0.0044
529.2669	0.0013
529.4635	0.0107
529.6601	0.0035
529.8567	0.0091
530.0532	0.0048
530.2498	-0.0042
530.4463	0.0074
530.6428	0.0039
530.8393	0.0034
531.0358	0.0082
531.2322	0.0103
531.4287	0.0005
531.6251	0.0016
531.8215	0.0091
532.0179	-0.0183
532.2143	0.0105
532.4107	0.0055
532.607	0.0021
532.8034	0.0052
532.9997	0.0029
533.196	0.0096
533.3923	-0.0021
533.5886	0.0049
533.7848	-0.0093
533.9811	-0.0091
534.1773	-0.0053
534.3735	0.0031
534.5697	-0.0062
534.7659	-0.0003
534.9621	0.0079
535.1582	0.0055
535.3544	0.0071
535.5505	0.0101
535.7466	0.0025
535.9427	-0.011
536.1387	0.0057
536.3348	0.0158
536.5308	0.0142
536.7269	-0.0019
536.9229	-0.0018
537.1189	0.0034
537.3148	-0.0155
537.5108	0.0084
537.7068	0.005
537.9027	0.0123
538.0986	-0.0015
538.2945	-0.0041
538.4904	-0.0122
538.6863	0.0182
538.8821	0.0011
539.078	-0.0072
539.2738	-0.0037
539.4696	0.0035
539.6654	0.0009
539.8611	0.0049
540.0569	-0.0004
540.2526	0.0012
540.4484	-0.0027
540.6441	0.004
540.8398	0.0041
541.0355	0.0065
541.2311	0.0073
541.4268	0.0081
541.6224	0.0009
541.818	-0.004
542.0136	-0.0052
542.2092	0.0037
542.4048	-0.0021
542.6003	0.0065
542.7959	0.0002
542.9914	0.0044
543.1869	0.0017
543.3824	-0.0009
543.5779	0.0043
543.7734	-0.01
543.9688	-0.0004
544.1642	-0.0015
544.3596	-0.0017
544.555	-0.0003
544.7504	0.0006
544.9458	0.0029
545.1411	0.009
545.3365	0.0047
545.5318	0.0017
545.7271	0.0066
545.9224	-0.0023
546.1177	0.0048
546.3129	-0.0099
546.5081	0.0017
546.7034	-0.0004
546.8986	0.0036
547.0938	0.0003
547.289	0.0056
547.4841	0.0049
547.6793	-0.0071
547.8744	-0.0054
548.0695	0.0085
548.2646	-0.0057
548.4597	-0.013
548.6548	0.0062
548.8498	0.0026
549.0448	0.0043
549.2399	0.004
549.4349	-0.001
549.6298	-0.0062
549.8248	-0.0065
550.0198	0.004
550.2147	-0.0112
550.4096	0.0003
550.6045	0.004
550.7994	0.0113
550.9943	-0.0016
551.1892	-0.0097
551.384	0.0106
551.5788	0.0067
551.7737	0.002
551.9685	0.0009
552.1632	0.002
552.358	0.0088
552.5528	-0.0041
552.7475	-0.007
552.9422	-0.0059
553.1369	0.0043
553.3316	-0.0053
553.5263	-0.0074
553.7209	-0.0054
553.9156	0.005
554.1102	-0.0095
554.3048	-0.0066
554.4994	0.0002
554.694	0.0055
554.8885	0.0074
555.0831	0.0066
555.2776	-0.0017
555.4721	-0.0098
555.6666	0.0036
555.8611	-0.0041
556.0555	0.0046
556.25	-0.0015
556.4444	0.0008
556.6388	0.0021
556.8332	0.0022
557.0276	0.0186
557.222	-0.0023
557.4163	0.005
557.6107	-0.0076
557.805	-0.0061
557.9993	0.0072
558.1936	0.0102
558.3879	-0.0043
558.5821	-0.012
558.7764	0.0114
558.9706	0.0016
559.1648	-0.0067
559.359	0.0094
559.5532	-0.0095
559.7473	0.0043
559.9415	0.0081
560.1356	0.0029
560.3297	0.0028
560.5238	0.001
560.7179	-0.002
560.9119	0.0086
561.106	-0.0087
561.3	-0.0028
561.494	0.0022
561.688	-0.0009
561.882	0.004
562.076	0.0091
562.2699	0.0047
562.4639	0.0046
562.6578	0.0089
562.8517	-0.0003
563.0456	0.0081
563.2395	-0.0003
563.4333	-0.0003
563.6272	0.0138
563.821	0.0111
564.0148	-0.0033
564.2086	0.0062
564.4024	0.0021
564.5961	0.0173
564.7899	0.0115
564.9836	-0.0017
565.1773	0.0077
565.371	0.0019
565.5647	-0.002
565.7584	0.0056
565.952	0.0022
566.1456	0.0035
566.3393	0.0033
566.5329	-0.0046
566.7264	0.0015
566.92	-0.0001
567.1136	0.003
567.3071	-0.0055
567.5006	-0.0081
567.6941	0.0016
567.8876	0.0036
568.0811	-0.0073
568.2745	-0.0067
568.468	0.008
568.6614	0.0007
568.8548	-0.0032
569.0482	0.0082
569.2416	-0.0009
569.4349	0.0013
569.6283	0.006
569.8216	0.0013
570.0149	0.0034
570.2082	0.0013
570.4015	-0.0019
570.5947	-0.0015
570.788	-0.0024
570.9812	-0.0038
571.1744	-0.001
571.3676	-0.0038
571.5608	-0.0051
571.754	-0.0041
571.9471	0.005
572.1402	-0.0003
572.3333	-0.004
572.5264	0.0021
572.7195	0.0057
572.9126	0
573.1057	0.0027
573.2987	0.0019
573.4917	0.0015
573.6847	-0.0005
573.8777	0.0025
574.0707	0.0001
574.2636	-0.0005
574.4566	0.0003
574.6495	0.0052
574.8424	-0.0002
575.0353	-0.0016
575.2281	-0.0029
575.421	-0.002
575.6138	0.0013
575.8067	-0.0009
575.9995	0.0007
576.1923	0.0026
576.385	0.0006
576.5778	-0.0009
576.7706	0.0036
576.9633	0.0056
577.156	0.0005
577.3487	-0.001
577.5414	0.0024
577.734	0.0017
577.9267	-0.0012
578.1193	0.0039
578.3119	-0.0032
578.5045	-0.0011
578.6971	-0.0009
578.8897	-0.0011
579.0822	0.0021
579.2747	0.0007
579.4673	-0.0001
579.6598	0.0003
579.8522	0.0021
580.0447	0.0007
580.2372	0.0035
580.4296	-0.0003
580.622	0.0037
580.8144	-0.0012
581.0068	0.0006
581.1992	-0.0012
581.3915	0.0016
581.5839	0.0039
581.7762	0.0025
581.9685	-0.001
582.1608	0.001
582.353	-0.003
582.5453	-0
582.7375	0.0015
582.9298	-0.0011
583.122	-0.0018
583.3142	0.0053
583.5063	0.0023
583.6985	0.0023
583.8906	-0.0028
584.0827	-0.0028
584.2749	0.0028
584.4669	0.0013
584.659	0.0004
584.8511	0.0008
585.0431	-0.0003
585.2352	-0.0008
585.4272	-0.0033
585.6192	0.0031
585.8111	-0.0058
586.0031	-0.0029
586.195	-0.0005
586.387	0.005
586.5789	0.0006
586.7708	-0.0007
586.9627	0.0037
587.1545	-0.0019
587.3464	0.0014
587.5382	0.0015
587.73	-0.0011
587.9218	-0.0004
588.1136	-0.0035
588.3053	-0.0008
588.4971	0.0062
588.6888	0.0032
588.8805	0.0056
589.0722	0.0049
589.2639	0.0012
589.4556	-0
589.6472	-0.0021
589.8389	-0.0015
590.0305	0.002
590.2221	0.0071
590.4137	-0.0002
590.6052	-0.0004
590.7968	0.0017
590.9883	0.0052
591.1798	-0.0062
591.3713	0.0051
591.5628	-0.0002
591.7543	0.0047
591.9458	-0.0036
592.1372	-0.0041
592.3286	0.0009
592.52	-0.0011
592.7114	-0.0044
592.9028	-0.0021
593.0941	-0.0022
593.2855	0.0048
593.4768	0.0034
593.6681	-0.0014
593.8594	-0.0045
594.0506	0.0059
594.2419	-0.0008
594.4331	-0.0015
594.6244	0.0031
594.8156	-0
595.0067	0.0044
595.1979	-0.0041
595.3891	0.001
595.5802	-0.0028
595.7713	-0.0023
595.9624	0.0031
596.1535	0.0043
596.3446	0.0024
596.5357	0.0055
596.7267	-0.0004
596.9177	-0.0007
597.1087	0.0014
597.2997	0.0048
597.4907	0.0052
597.6817	0.002
597.8726	0.0058
598.0635	0.0006
598.2544	-0.0049
598.4453	-0.0036
598.6362	0.0039
598.827	0.0049
599.0179	0.0017
599.2087	-0.0037
599.3995	-0.0003
599.5903	0.0069
599.7811	0.0032
599.9718	0.0011
600.1626	0.0018
600.3533	0.0044
600.544	0.0013
600.7347	0.0019
600.9254	0.0031
601.116	-0.0036
601.3067	0.0046
601.4973	0.005
601.6879	-0.0064
601.8785	0.0042
602.0691	0.0008
602.2596	0.0004
602.4502	0.0009
602.6407	0.0033
602.8312	0.006
603.0217	0.0026
603.2122	0.0053
603.4027	-0.0017
603.5931	0.0024
603.7835	0.0005
603.9739	-0.0007
604.1643	-0.0008
604.3547	0.0105
604.5451	-0.0006
604.7354	-0.0026
604.9257	-0.0028
605.116	-0.0021
605.3063	-0.0008
605.4966	0.0021
605.6869	0.0019
605.8771	-0.0003
606.0673	-0
606.2575	-0.0054
606.4477	0.0036
606.6379	0.0011
606.8281	-0.002
607.0182	0.001
607.2083	-0.004
607.3985	0.0034
607.5885	0.0017
607.7786	0.0061
607.9687	-0.0036
608.1587	0.001
608.3488	0.0026
608.5388	0.0014
608.7288	-0.0027
608.9187	0.0094
609.1087	0.0061
609.2986	-0.0014
609.4886	0.0058
609.6785	0.0032
609.8684	-0.0022
610.0582	0.0018
610.2481	0.0006
610.4379	0.0016
610.6278	-0.0037
610.8176	-0.0094
611.0074	-0.0017
611.1971	0.0051
611.3869	0.0005
611.5766	0.0011
611.7664	0.0052
611.9561	-0.0055
612.1458	-0.0023
612.3354	0.0097
612.5251	0.0064
612.7147	0.0009
612.9044	-0.0034
613.094	0.0102
613.2836	-0.002
613.4731	-0.0003
613.6627	0.0062
613.8522	-0.0047
614.0417	0.005
614.2313	-0.0105
614.4207	0.003
614.6102	0.0015
614.7997	-0.0016
614.9891	0.0009
615.1785	-0.0025
615.3679	0
615.5573	-0.0062
615.7467	-0.0042
615.9361	-0.0097
616.1254	0.0016
616.3147	0.0065
616.504	-0.004
616.6933	-0.0014
616.8826	0.0095
617.0718	-0.0078
617.2611	0.0004
617.4503	-0.0041
617.6395	0.0012
617.8287	0.0037
618.0179	0.0037
618.207	-0.0006
618.3961	0.0013
618.5853	0.0028
618.7744	0.0028
618.9634	-0.0086
619.1525	0.0028
619.3416	-0.0038
619.5306	0.0086
619.7196	-0.0028
619.9086	0.0072
620.0976	0.0026
620.2866	0.012
620.4755	0.0125
620.6645	-0.007
620.8534	-0.0101
621.0423	-0.002
621.2312	-0.0102
621.42	0.0001
621.6089	0.0002
621.7977	0.0048
621.9865	0.0038
622.1753	0.0057
622.3641	-0.018
622.5529	-0.0184
622.7416	-0.0049
622.9303	0.0038
623.1191	-0.0057
623.3078	0.0029
623.4964	-0.0108
623.6851	0.0135
623.8737	0.0078
624.0624	0.0049
624.251	0.0041
624.4396	0.0042
624.6282	0.0005
624.8167	0.0141
625.0053	-0.0062
625.1938	0.0047
625.3823	0.0092
625.5708	-0.0061
625.7593	0.002
625.9477	-0.0023
626.1362	-0.0149
626.3246	-0.0081
626.513	0.0022
626.7014	0.001
626.8898	0.0086
627.0781	-0.0027
627.2665	0.003
627.4548	0.0081
627.6431	-0.0019
627.8314	0.0102
628.0197	0.0117
628.2079	0.0009
628.3962	-0.0004
628.5844	-0.0003
628.7726	-0.0015
628.9608	0.0021
629.1489	0.0047
629.3371	-0.0054
629.5252	0.0054
629.7134	0.0083
629.9015	-0.0055
630.0895	-0.0028
630.2776	-0.0066
630.4657	0.0036
630.6537	0.0037
630.8417	0.001
631.0297	0.0053
631.2177	-0.0151
631.4057	0.0016
631.5936	-0.0031
631.7815	-0.0067
631.9695	0.0101
632.1574	-0.0093
632.3452	0.0035
632.5331	-0.0078
632.7209	0.0051
632.9088	-0.0112
633.0966	0.0092
633.2844	-0.006
633.4722	-0.0087
633.6599	-0.0137
633.8477	-0.0086
634.0354	0.0048
634.2231	0.0205
634.4108	-0.0047
634.5985	-0.0042
634.7861	0.0005
634.9738	0.014
635.1614	0.0031
635.349	-0.0073
635.5366	0.0169
635.7242	-0.0022
635.9117	0.0066
636.0993	-0.0156
636.2868	-0.0104
636.4743	0.0094
636.6618	-0.003
636.8492	0.006
637.0367	0.0146
637.2241	0.0075
637.4115	0.0045
637.5989	0.0227
637.7863	0.0039
637.9737	0.0072
638.161	-0.0098
638.3484	-0.0042
638.5357	0.0069
638.723	-0.0045
638.9103	0.0018
639.0975	0.0221
639.2848	0.003
639.472	-0.0083
639.6592	0.0025
639.8464	0.0148
640.0336	-0.0028
640.2208	0.0003
640.4079	0.0111
640.595	0.0144
640.7821	0.0076
640.9692	0.008
641.1563	0.0083
641.3434	0.0149
641.5304	0.0053
641.7174	0.0245
641.9044	-0.008
642.0914	-0.0057
642.2784	0.027
642.4653	0.0089
642.6523	0.025
642.8392	0.015
643.0261	0.0118
643.213	0.0106
643.3999	0.0073
643.5867	0.004
643.7735	0.0052
643.9604	0.0053
644.1472	-0.0053
644.3339	-0.0123
644.5207	-0.0105
644.7075	-0.0052
644.8942	0.009
645.0809	0.0016
645.2676	-0.0142
645.4543	0.0029
645.6409	-0.014
645.8276	0.0121
646.0142	0.0134
646.2008	-0.0153
646.3874	0.0131
646.574	-0.02
646.7605	0.0084
646.9471	0.006
647.1336	0.0052
647.3201	-0.0095
647.5066	-0.0118
647.6931	-0.0032
647.8795	0.0012
648.0659	-0.0191
648.2524	-0.007
648.4388	-0.0004
648.6252	-0.0048
648.8115	0.0174
648.9979	0.004
649.1842	-0.0283
649.3705	0.0051
649.5568	-0.004
649.7431	0.0071
649.9294	-0.0104
650.1156	-0.0053
650.3018	-0.0023
650.488	-0.0029
650.6742	0.0019
650.8604	-0.0082
651.0466	-0.0093
651.2327	-0.0128
651.4188	-0.0116
651.6049	0.01
651.791	0.0193
651.9771	0.0079
652.1632	0.0011
652.3492	0.0147
652.5352	0.0077
652.7212	-0.0068
652.9072	0.0215
653.0932	0.0078
653.2791	-0.0061
653.465	-0.0097
653.651	0.0166
653.8369	0.0166
654.0227	-0.0057
654.2086	0.0003
654.3944	-0.0156
654.5803	0.0035
654.7661	-0.0089
654.9519	-0.0001
655.1377	0.0001
655.3234	0.0001
655.5092	0.0001
655.6949	0.0001
655.8806	0.0001
656.0663	0.0001
656.2519	0.0001
656.4376	0.0001
656.6232	0.0001
656.8088	0.0001
656.9945	0.0001
657.18	0.0001
657.3656	0.0001
657.5511	0.0001
657.7367	0.0001
657.9222	0.0001
658.1077	0.0001
658.2932	0.0001
658.4786	0.0001
658.6641	0.0001
658.8495	0.0001
659.0349	0.0001
659.2203	0.0001
659.4057	0.0178
659.591	0.0777
659.7764	0.0084
659.9617	0.0065
660.147	-0.0029
660.3323	-0.0107
660.5176	-0.0067
660.7028	0.0117
660.888	0.0151
661.0733	0.0056
661.2585	-0.003
661.4436	-0.0126
661.6288	0.0231
661.8139	0.0224
661.9991	0.0004
662.1842	0.0197
662.3693	0.0125
662.5544	0.0145
662.7394	0.0176
662.9245	0.0046
663.1095	0.0094
663.2945	0.0024
663.4795	0.0015
663.6644	-0.002
663.8494	0.0132
664.0343	-0.0047
664.2193	-0.0062
664.4042	-0.0107
664.589	-0.0343
664.7739	0.0074
664.9587	-0.013
665.1436	0.0043
665.3284	-0.0011
665.5132	-0.0043
665.698	-0.0097
665.8827	-0.0289
666.0675	-0.0086
666.2522	0.0261
666.4369	0.0143
666.6216	0.0045
666.8063	-0.0023
666.9909	0.0033
667.1756	0.0134
667.3602	0.0036
667.5448	-0.0052
667.7294	-0.013
667.9139	-0.0068
668.0985	-0.0106
668.283	-0.0015
668.4675	-0.022
668.652	-0.0195
668.8365	-0.0097
669.0209	-0.0172
669.2054	0.0044
669.3898	0.0152
669.5742	0.0197
669.7586	0.0011
669.943	-0.0141
670.1273	0.0039
670.3117	0.0126
670.496	0.0086
670.6803	0.0029
670.8646	0.0118
671.0488	0.0067
671.2331	-0.0052
671.4173	0.0138
671.6015	-0.0027
671.7857	-0.0215
671.9699	0.0102
672.1541	0.0073
672.3382	0.0144
672.5223	-0.0036
672.7064	-0.0024
672.8905	-0.0011
673.0746	0.0028
673.2587	0.0133
673.4427	-0.0203
673.6267	-0.0125
673.8107	-0.0055
673.9947	0.0159
674.1787	0.0079
674.3626	0.0051
674.5465	-0.0008
674.7304	-0.0378
674.9143	0.0192
675.0982	0.0072
675.2821	0.0168
675.4659	0.0089
675.6497	-0.001
675.8335	0.0048
676.0173	0.0171
676.2011	-0.0167
676.3849	-0.0076
676.5686	-0.0075
676.7523	0.0079
676.936	-0.0061
677.1197	0.0264
677.3034	0.0213
677.487	0.0035
677.6706	-0.0093
677.8542	-0.0079
678.0378	0.0098
678.2214	-0.0106
678.405	0.0232
678.5885	-0.0105
678.772	-0.0067
678.9555	-0.0093
679.139	-0.0048
679.3225	0.0017
679.5059	0.0048
679.6894	-0.025
679.8728	-0.0005
680.0562	0.0114
680.2395	-0.0082
680.4229	0.0063
680.6062	0.0083
680.7896	0.003
680.9729	0.019
681.1562	-0.0056
681.3394	0.0043
681.5227	-0.0192
681.7059	-0.0071
681.8891	0.0254
682.0723	-0.0074
682.2555	0.044
682.4387	0.0068
682.6218	-0.0118
682.805	-0.0124
682.9881	0.0107
683.1712	0.0127
683.3542	-0.0106
683.5373	0.0131
683.7203	0.0015
683.9034	-0.0042
684.0864	0.0069
684.2694	0.0203
684.4523	0.0096
684.6353	0.0103
684.8182	-0.0003
685.0011	-0.004
685.184	-0.0034
685.3669	0.0105
685.5498	0.0089
685.7326	-0.0134
685.9154	0.0119
686.0982	0.0146
686.281	0.0008
686.4638	0.0097
686.6465	0.0056
686.8293	-0.0015
687.012	-0.0032
687.1947	0.0094
687.3774	-0.0086
687.56	-0.0027
687.7427	-0.0097
687.9253	0.0299
688.1079	0.0288
688.2905	0.0057
688.4731	0.0182
688.6556	-0.0007
688.8382	0.0051
689.0207	-0.0132
689.2032	-0.0147
689.3857	-0.002
689.5681	0.0077
689.7506	0.0053
689.933	-0.0023
690.1154	0.0096
690.2978	-0.0121
690.4802	0.0024
690.6626	-0.0233
690.8449	-0.0204
691.0272	-0.0092
691.2095	-0.0029
691.3918	0.0024
691.5741	0.0031
691.7563	0.0008
691.9386	-0.0122
692.1208	-0.0019
692.303	0.0114
692.4852	0.0103
692.6673	-0.0216
692.8495	-0.0026
693.0316	0.0132
693.2137	0.016
693.3958	0.0086
693.5778	-0.0153
693.7599	-0.0279
693.9419	0.0211
694.1239	-0.0195
694.3059	-0.0271
694.4879	-0.0212
694.6699	0.0174
694.8518	-0.0117
695.0337	-0.0124
695.2157	-0.0272
695.3975	0.0123
695.5794	-0.035
695.7613	0.0245
695.9431	-0.0168
696.1249	-0.0243
696.3067	-0.0045
696.4885	0.0084
696.6703	0.003
696.852	-0.0192
697.0337	0.0091
697.2154	0.0186
697.3971	0.0126
697.5788	0.0244
697.7605	0.0077
697.9421	-0.0078
698.1237	0.0107
698.3053	-0.0009
698.4869	-0.0004
698.6685	-0.0001
698.85	0.0019
699.0315	0.004
699.213	0.0015
699.3945	-0.0071
699.576	-0.0059
699.7575	-0.0301
699.9389	0.0144
700.1203	-0.016
700.3017	-0.0002
700.4831	-0.0104
700.6645	0.0014
700.8458	0.0197
701.0271	0.0052
701.2084	-0.0193
701.3897	0.0041
701.571	0.0036
701.7523	-0.02
701.9335	0.0086
702.1147	-0.0061
702.2959	0.0158
702.4771	0.0102
702.6583	-0.0213
702.8394	0.0065
703.0205	-0.0133
703.2016	-0.021
703.3827	0.0234
703.5638	0.0184
703.7449	-0.0058
703.9259	-0.0123
704.1069	0.0168
704.2879	0.0352
704.4689	0.0113
704.6499	-0.0342
704.8308	-0.0205
705.0117	-0.0173
705.1927	0.0175
705.3735	0.0042
705.5544	0.0097
705.7353	0.0248
705.9161	0.0167
706.0969	0.0086
706.2777	-0.0017
706.4585	-0.0151
706.6393	0.0115
706.82	-0.0074
707.0007	0.0077
707.1815	0.0119
707.3621	0.0013
707.5428	0.0209
707.7235	0.0262
707.9041	0.0018
708.0847	-0.0071
708.2653	0.0043
708.4459	0.0057
708.6265	0.0054
708.807	0.0037
708.9875	0.0002
709.168	0.0052
709.3485	0.031
709.529	0.0277
709.7095	-0.0248
709.8899	0.0095
710.0703	0.0051
710.2507	0.0047
710.4311	0.0018
710.6115	0.0025
710.7918	-0.0047
710.9721	-0.0052
711.1524	-0.0083
711.3327	0.0051
711.513	-0.0018
711.6932	-0.0417
711.8735	0.0207
712.0537	0.0035
712.2339	-0.001
712.4141	0.0256
712.5942	0.0183
712.7744	-0.0043
712.9545	0.0058
713.1346	-0.0219
713.3147	0.0103
713.4947	-0.0131
713.6748	-0.0088
713.8548	0.0181
714.0348	0.0142
714.2148	-0.0094
714.3948	0.007
714.5748	0.0099
714.7547	-0.0068
714.9346	0.0182
715.1145	0.0212
715.2944	0.0142
715.4743	-0.0137
715.6541	-0.0218
715.834	0.0398
716.0138	0.009
716.1936	0.0009
716.3733	0.0085
716.5531	0.009
716.7328	-0.0344
716.9126	-0.0098
717.0923	0.0269
717.2719	0.0036
717.4516	-0.0107
717.6312	-0.0184
717.8109	0.0123
717.9905	-0.0127
718.1701	-0.0235
718.3496	0.0122
718.5292	-0.0244
718.7087	0.021
718.8882	0.031
719.0677	-0.0267
719.2472	0.0158
719.4267	0.0159
719.6061	0.0015
719.7856	0.0068
719.965	0.0395
720.1443	-0.0234
720.3237	-0.0028
720.5031	0.027
720.6824	-0.0123
720.8617	0.0132
721.041	0.0179
721.2203	0.0102
721.3995	-0.0349
721.5788	0.0105
721.758	0.0079
721.9372	0.0073
722.1164	0.0096
722.2956	-0.0071
722.4747	-0.0006
722.6538	0.0158
722.8329	-0.0321
723.012	0.0075
723.1911	0.0223
723.3702	0.0007
723.5492	-0.0185
723.7282	-0.017
723.9072	-0.028
724.0862	0.0167
724.2652	-0.0114
724.4441	0.0085
724.623	-0.0171
724.8019	0.005
724.9808	0.0006
725.1597	0.0034
725.3385	0.0034
725.5174	0.0398
725.6962	0.0271
725.875	0.0233
726.0538	0.0305
726.2325	-0.0027
726.4112	0.0045
726.59	0.0025
726.7687	0.0388
726.9474	0.007
727.126	-0.0116
727.3047	-0.0021
727.4833	0.0101
727.6619	0.0039
727.8405	-0.0019
728.0191	-0.0303
728.1976	-0.0233
728.3762	-0.0246
728.5547	0.0116
728.7332	-0.0069
728.9116	-0.0518
729.0901	0.0183
729.2686	-0.0224
729.447	-0.013
729.6254	0.004
729.8038	0.0028
729.9821	0.0266
730.1605	-0.0051
730.3388	-0.0034
730.5171	-0.0141
730.6954	0.0066
730.8737	0.0115
731.0519	0.0103
731.2302	-0.0169
731.4084	-0.0104
731.5866	-0.0133
731.7648	-0.0039
731.9429	-0.008
732.1211	-0.0142
732.2992	-0.0093
732.4773	-0.0078
732.6554	-0.0139
732.8335	0.0096
733.0115	-0.0051
733.1896	-0.0117
733.3676	0.0198
733.5456	0.0024
733.7235	-0.0016
733.9015	-0.0084
734.0794	0.0053
734.2574	0.0133
734.4353	0.0087
734.6131	-0.0106
734.791	0.0191
734.9689	-0.001
735.1467	0.0038
735.3245	-0.0004
735.5023	0.0285
735.68	0.0072
735.8578	0.0052
736.0355	-0.0031
736.2132	0.0154
736.3909	-0.0035
736.5686	-0.0026
736.7463	-0.0199
736.9239	0.0224
737.1015	-0.0066
737.2791	0.0106
737.4567	-0.0182
737.6343	0.0049
737.8118	-0.0111
737.9894	0.0041
738.1669	0.0205
738.3444	0.0156
738.5218	0.0046
738.6993	-0.0009
738.8767	-0.0083
739.0541	0.0068
739.2315	0.0002
739.4089	0.025
739.5863	0.0142
739.7636	-0.0103
739.9409	0.0043
740.1182	0.0122
740.2955	-0.0266
740.4728	0.0364
740.65	-0.0209
740.8272	-0.0255
741.0044	0.0132
741.1816	0.0104
741.3588	-0.0028
741.5359	-0.0046
741.7131	0.0326
741.8902	-0.0075
742.0673	0.0345
742.2444	0.0064
742.4214	-0.0045
742.5985	-0.0152
742.7755	0.0044
742.9525	0.0363
743.1295	-0.0283
743.3064	-0.0012
743.4834	-0.0022
743.6603	0.0065
743.8372	-0.003
744.0141	0.0088
744.191	0.0092
744.3678	0.0405
744.5446	0.0117
744.7215	0.0106
744.8982	0.0231
745.075	0.0003
745.2518	-0.0082
745.4285	-0.0154
745.6052	0.0423
745.7819	0.0154
745.9586	0.0039
746.1353	0.0111
746.3119	-0.0002
746.4885	-0.0226
746.6651	-0.0339
746.8417	-0.0245
747.0183	-0.0063
747.1948	-0.0126
747.3714	-0.0016
747.5479	-0.0082
747.7244	-0.0149
747.9008	0.0035
748.0773	0.031
748.2537	0.0344
748.4301	0.0421
748.6065	-0.0144
748.7829	0.0023
748.9593	0.0111
749.1356	0.0113
749.3119	-0.017
749.4882	-0.0055
749.6645	0.0168
749.8408	-0.0053
750.017	-0.0127
750.1933	0.0125
750.3695	0.0138
750.5457	-0.0195
750.7218	0.0189
750.898	-0.0215
751.0741	-0.0108
751.2502	0.0328
751.4263	0.0077
751.6024	0.0234
751.7784	-0.0438
751.9545	-0.0164
752.1305	0.0014
752.3065	0.0275
752.4825	-0.0199
752.6584	0.0122
752.8344	0.0154
753.0103	-0.011
753.1862	0.0069
753.3621	-0.0122
753.5379	-0.0301
753.7138	-0.0193
753.8896	0.0455
754.0654	-0.0042
754.2412	0.0349
754.417	-0.0044
754.5927	-0.0016
754.7685	-0.017
754.9442	0.011
755.1199	0.002
755.2956	-0.0037
755.4712	-0.0236
755.6469	-0.0191
755.8225	-0.0088
755.9981	0.0128
756.1736	0.0244
756.3492	-0.0207
756.5248	-0.0055
756.7003	0.0026
756.8758	-0.0119
757.0513	-0.0036
757.2267	-0.0157
757.4022	0.0144
757.5776	-0.0155
757.753	0.0048
757.9284	-0.006
758.1038	0.0089
758.2791	-0.0201
758.4545	-0.0022
758.6298	0.0044
758.8051	-0.0058
758.9803	-0.0122
759.1556	-0.0137
759.3308	0.0036
759.506	0.0052
759.6812	0.0001
759.8564	-0.0118
760.0316	0.0092
760.2067	-0.0127
760.3819	-0.0142
760.557	0.0021
760.732	0.0259
760.9071	0.0067
761.0821	0.0067
761.2572	0.0209
761.4322	-0.0305
761.6072	0.0175
761.7821	0.0181
761.9571	0.001
762.132	0.0062
762.3069	-0.0051
762.4818	0.005
762.6567	0.0024
762.8316	0.0042
763.0064	-0.0346
763.1812	-0.0285
763.356	0.0093
763.5308	-0.0222
763.7055	-0.013
763.8803	-0.018
764.055	-0.0019
764.2297	-0.0115
764.4044	0.0065
764.579	-0.0059
764.7537	0.0026
764.9283	-0.0233
765.1029	0.0004
765.2775	-0.0221
765.4521	-0.0038
765.6266	-0.0264
765.8011	-0.0066
765.9756	0.0121
766.1501	0.0507
766.3246	-0.0049
766.4991	-0.046
766.6735	0.0047
766.8479	-0.0136
767.0223	-0.004
767.1967	-0.0021
767.371	-0.0018
767.5454	0.0216
767.7197	0.0151
767.894	-0.0077
768.0683	0.0037
768.2425	0.0213
768.4168	0.0289
768.591	0.0124
768.7652	0.001
768.9394	-0.0029
769.1135	-0.005
769.2877	-0.0015
769.4618	-0.0019
769.6359	-0.0044
769.81	-0.0264
769.984	0.0121
770.1581	0.0167
770.3321	-0.0282
770.5061	0.0023
770.6801	0.0097
770.8541	-0.0298
771.028	-0.0115
771.202	-0.0303
771.3759	0.001
771.5498	-0.0229
771.7236	-0.0135
771.8975	-0.0094
772.0713	0.0295
772.2451	0.0138
772.4189	0.0177
772.5927	-0.0127
772.7665	0.0282
772.9402	0.0217
773.1139	-0.0069
773.2876	0.0126
773.4613	0.0171
773.635	0.0038
773.8086	-0.0274
773.9822	0.0218
774.1558	-0.0066
774.3294	-0.0229
774.503	-0.0186
774.6765	0.0264
774.8501	0.0098
775.0236	0.0386
775.1971	0.01
775.3705	-0.0231
775.544	0.0338
775.7174	-0.0031
775.8908	0.0138
776.0642	0.009
776.2376	-0.0297
776.4109	0.034
776.5843	0.006
776.7576	0.0039
776.9309	0.0643
777.1041	-0.0298
777.2774	-0.0078
777.4506	-0.0203
777.6238	0.0091
777.797	0.0096
777.9702	0.0363
778.1434	0.0158
778.3165	-0.0117
778.4896	-0.0119
778.6627	0.0298
778.8358	-0.0256
779.0089	0.032
779.1819	0.0162
779.3549	0.045
779.5279	-0.0279
779.7009	-0.0255
779.8739	0.0125
780.0468	0.0298
780.2197	-0.0089
780.3926	-0.0107
780.5655	-0.0064
780.7384	0.0039
780.9112	0.0132
781.0841	0.0078
781.2569	-0.0242
781.4297	0.0606
781.6024	0.0146
781.7752	-0.0119
781.9479	-0.0102
782.1206	0.0084
782.2933	-0.0031
782.466	-0.032
782.6386	0.0084
782.8113	-0.0092
782.9839	0.0431
783.1565	0.0046
783.329	-0.0132
783.5016	-0.0074
783.6741	-0.0407
783.8466	-0.0269
784.0191	0.0144
784.1916	0.0252
784.3641	-0.0421
784.5365	0.0562
784.7089	-0.0075
784.8813	0.0414
785.0537	0.0026
785.2261	0.0138
785.3984	0.0101
785.5707	0.0348
785.743	0.0005
785.9153	0.0447
786.0876	-0.0152
786.2598	0.0182
786.432	0.002
786.6042	0.0246
786.7764	-0.018
786.9486	-0.0141
787.1207	0.0206
787.2928	-0.0173
787.4649	0.0023
787.637	0.0214
787.8091	-0.027
787.9811	0.0115
788.1532	0.0081
788.3252	-0.0535
788.4972	-0.0292
788.6691	0.0386
788.8411	0.007
789.013	0.0233
789.1849	0.0141
789.3568	0.0172
789.5287	-0.0501
789.7005	0.0452
789.8723	-0.0455
790.0442	-0.0253
790.2159	0.0083
790.3877	0.0024
790.5595	-0.0149
790.7312	-0.0445
790.9029	-0.0045
791.0746	0.0483
791.2463	0.0163
791.4179	-0.0269
791.5896	0.0085
791.7612	-0.0614
791.9328	-0.0242
792.1044	-0.0103
792.2759	0.0212
792.4474	-0.0005
792.619	0.0342
792.7905	0.0268
792.9619	0.0063
793.1334	-0.0816
793.3048	0.0076
793.4762	-0.008
793.6476	0.0286
793.819	-0.0107
793.9904	0.011
794.1617	0.0133
794.333	-0.0162
794.5043	0.0004
794.6756	0.0598
794.8469	0.0158
795.0181	0.0044
795.1893	0.0131
795.3605	-0.0078
795.5317	0.0193
795.7029	0.028
795.874	0.0151
796.0452	0.0141
796.2163	0.0629
796.3873	0.009
796.5584	0.0627
796.7294	-0.1189
796.9005	-0.0504
797.0715	0.0455
797.2425	-0.0407
797.4134	0.0075
797.5844	0.0558
797.7553	-0.0016
797.9262	0.0571
798.0971	-0.0281
798.2679	0.0092
798.4388	-0.0631
798.6096	-0.0278
798.7804	-0.0031
798.9512	0.0342
799.122	0.0503
799.2927	-0.0145
799.4635	0.1136
799.6342	0.0403
799.8049	0.1357
799.9755	-0.0023
800.1462	0.0329
800.3168	0.0206
800.4874	0.0484
800.658	0.0252
800.8286	0.001
800.9991	0.0426
801.1696	-0.008
801.3402	-0.0032
801.5106	-0.1012
801.6811	0.0293
801.8516	-0.0193
802.022	-0.0305
802.1924	-0.0943
802.3628	-0.119
802.5332	-0.0616
802.7035	-0.0476
802.8739	0.0237
803.0442	-0.0245
803.2145	-0.0133
803.3847	-0.0368
803.555	0.0296
803.7252	0.0232
803.8954	0.0647
804.0656	-0.0543
804.2358	-0.0665
804.4059	0.0538
804.5761	0.0081
804.7462	-0.0451
804.9163	-0.0667
805.0864	0.0425
805.2564	-0.0206
805.4264	-0.0199
805.5965	0.0068
805.7665	0.0975
805.9364	-0.0645
806.1064	-0.0106
806.2763	0.0045
806.4462	-0.0278
806.6161	-0.0325
806.786	0.0119
806.9559	0.0347
807.1257	-0.0172
807.2955	0.0801
807.4653	0.0008
807.6351	-0.0034
807.8048	-0.0037
807.9746	-0.0453
808.1443	0.061
808.314	-0.022
808.4837	-0.0403
808.6533	-0.0108
808.8229	-0.0156
808.9926	-0.0268
809.1622	-0.003
809.3317	-0.0292
809.5013	0.023
809.6708	0.0489
809.8403	0.0968
810.0098	0.0894
810.1793	0.0087
810.3488	0.0614
810.5182	-0.0234
810.6876	0.0252
810.857	-0.1417
811.0264	-0.115
811.1958	-0.0138
811.3651	0.0366
811.5344	-0.0299
811.7037	-0.0932
811.873	0.015
812.0422	0.0157
812.2115	0.0558
812.3807	0.0235
812.5499	0.0985
812.7191	0.0404
812.8882	-0.028
813.0574	-0.072
813.2265	0.0017
813.3956	0.0711
813.5646	0.0294
813.7337	-0.0009
813.9027	-0.0623
814.0718	0.012
814.2407	-0.074
814.4097	0.0395
814.5787	0.0625
814.7476	0.0037
814.9165	0.0155
815.0854	0.0339
815.2543	0.0673
815.4232	-0.146
815.592	-0.0081
815.7608	0.1372
815.9296	-0.0426
816.0984	0.0582
816.2671	-0.0155
816.4359	0.2446
816.6046	0.0871
816.7733	0.0512
816.942	0.0178
817.1106	-0.0489
817.2793	-0.1385
817.4479	-0.0614
817.6165	-0.0872
817.785	0.1385
817.9536	0.2007
818.1221	0.0444
818.2906	0.0393
818.4591	-0.0271
818.6276	0.0243
818.7961	0.1425
818.9645	-0.0288
819.1329	0.201
819.3013	-0.0128
819.4697	0.0808
819.638	0.0281
819.8064	-0.1047
819.9747	0.1669
820.143	-0.0148
820.3113	0.056
820.4795	0.1013
820.6477	0.0383
820.816	-0.0036
820.9842	0.0179
821.1523	0.0622
821.3205	0.1132
821.4886	0.0316
821.6567	0.0596
821.8248	0.0771
821.9929	0.0477
822.1609	0.0083
822.329	0.1308
822.497	-0.0154
822.665	-0.0127
822.833	-0.1044
823.0009	-0.0652
823.1688	-0.021
823.3367	-0.1526
823.5046	0.1389
823.6725	-0.0353
823.8404	-0.0342
824.0082	-0.0076
824.176	-0.0432
824.3438	0.0662
824.5116	0.0741
824.6793	0.0021
824.847	0.0505
825.0147	0.0813
825.1824	0.161
825.3501	0.0071
825.5177	-0.0287
825.6854	0.0752
825.853	-0.0291
826.0206	-0.064
826.1881	-0.0916
826.3557	0.1094
826.5232	0.0168
826.6907	0.1601
826.8582	-0.0537
827.0257	-0.1166
827.1931	0.1031
827.3605	-0.0665
827.528	0.3742
827.6953	0.0164
827.8627	0.0467
828.03	0.016
828.1974	-0.126
828.3647	0.1565
828.532	0.0618
828.6992	0.0642
828.8665	0.0314
829.0337	0.0397
829.2009	0.1176
829.3681	0.2418
829.5352	0.0241
829.7024	-0.1667
829.8695	-0.0856
830.0366	0.1638
830.2037	0.1619
830.3707	-0.0687
830.5378	-0.0495
830.7048	-0.1895
830.8718	-0.0926
831.0388	0.173
831.2057	-0.0058
831.3727	0.1893
831.5396	0.1455
831.7065	-0.037
831.8734	-0.071
832.0402	0.0063
832.2071	1.3128
832.3739	0.1898
832.5407	-0
832.7075	0.0538
832.8742	0.2718
833.041	-0.0989
833.2077	0.7178
833.3744	0.09
833.541	0.2604
833.7077	0.0122
833.8743	-0.0691
834.0409	0.0153
834.2075	0.1919
834.3741	0.0451
834.5407	-0.0825
834.7072	0.1277
834.8737	0.0747
835.0402	-0.2915
835.2067	0.0684
835.3731	0.0423
835.5395	-0.0083
835.706	0.5062
835.8723	-0.2242
836.0387	-0.0093
836.2051	-0.0236
836.3714	0.0274
836.5377	-0.0158
836.704	0.0301
836.8703	0.0769
837.0365	0.4625
837.2027	-0.3887
837.3689	0.8421
837.5351	-0.2524
837.7013	0.155
837.8674	-1.1325
838.0335	-0.1099
838.1997	0.7057
838.3657	1.7941
838.5318	-0
838.6978	-0
838.8639	-0.0447
839.0299	0.2074
839.1958	0.3278
839.3618	0.235
839.5277	-0.3123
839.6937	-0.2208
839.8596	0.0446
840.0254	0.7239
840.1913	0.5874
840.3571	0.0363
840.523	1.372
840.6888	-0.1332
840.8545	-0.0048
841.0203	0.0705
841.186	-0.0215
841.3517	0.1148
841.5174	0.175
841.6831	0.3053
841.8488	-0.0092
842.0144	0.3806
842.18	-0.1023
842.3456	0.2933
842.5112	-0.303
842.6767	-0.1055
842.8422	0.1735
843.0077	1.0808
843.1732	0.5431
843.3387	-0.2935
843.5042	0.1605
843.6696	-0.2499
843.835	0.273
844.0004	0.0307
844.1657	-0.1035
844.3311	-0
844.4964	0.2385
844.6617	-0
844.827	-0
844.9923	0.0383
845.1575	-0.4815
845.3227	-0.2032
845.4879	1.0913
845.6531	-0.2778
845.8183	-0
845.9834	-0
846.1485	0.0094
846.3136	0.3545
846.4787	-0
846.6438	1.3613
846.8088	-1.0388
846.9738	-0
847.1388	-0.0726
847.3038	-0.0527
847.4687	-0.6517
847.6337	0.3888
847.7986	0.2262
847.9635	0.5042
848.1284	-0.2499
848.2932	-0.2278
848.458	0.9118
848.6228	0.1591
848.7876	-0
848.9524	0.074
849.1172	-0.2554
849.2819	0.4905
849.4466	0.1446
849.6113	-0.2159
849.7759	-0
849.9406	-0.3207
850.1052	1.2983
850.2698	-0.7877
850.4344	0.2233
850.599	0.447
850.7635	0.1733
850.928	0.8018
851.0925	0.4924
851.257	-0.2519
851.4215	-0
851.5859	0.0496
851.7503	-0
851.9147	-0
852.0791	-0.2126
852.2434	0.569
852.4078	0.3485
852.5721	0.3761
852.7364	0.2094
852.9007	-0.2259
853.0649	-0
853.2291	-0
853.3934	0.7613
853.5575	0.4115
853.7217	-0.1961
853.8859	0.6422
854.05	-1.0254
854.2141	-0
854.3782	0.5177
854.5423	-0.3398
854.7063	-0.0212
854.8703	0.1998
855.0343	0.0036
855.1983	-0
855.3623	-0.1502
855.5262	-0
855.6901	0.3886
855.854	-0.2566
856.0179	-0
856.1818	-0.2192
856.3456	0.3403
856.5094	-0
856.6732	-0.6403
856.837	0.4287
857.0008	0.3998
857.1645	-0
857.3282	0.7354
857.4919	0.3356
857.6556	-0
857.8192	0.1416
857.9828	-0.4894
858.1465	0.157
858.31	0.3522
858.4736	0.0651
858.6372	-0.2678
858.8007	-0.895
858.9642	0.3875
859.1277	0.1623
859.2911	0.4952
859.4546	0.6846
859.618	0.3154
859.7814	-0
859.9448	-0.0701
860.1081	-0.042
860.2715	-0.4355
860.4348	-0
860.5981	-0
860.7614	-0
860.9246	-0.3099
861.0879	-0.6954
861.2511	-0
861.4143	1.3253
861.5774	0.517
861.7406	-0
861.9037	-0
862.0668	-0
862.2299	-1.9379
862.393	-0
862.556	-0
862.7191	0.3183
862.8821	-0.3462
863.0451	0.6551
863.208	0.932
863.371	-0
863.5339	-0.2429
863.6968	-0.4992
863.8597	-0.1249
864.0225	-0
864.1854	1.0723
864.3482	-0.285
864.511	0.0644
864.6737	0.1708
864.8365	-0
864.9992	-0.2549
865.1619	0.1216
865.3246	-0.4232
865.4873	-0.4734
865.65	-0
865.8126	-0.1249
865.9752	-0.0844
866.1378	-0.6796
866.3004	0.1037
866.4629	0.0773
866.6254	-0
866.7879	0.1365
866.9504	-0
867.1129	0.244
867.2753	0.1499
867.4377	0.143
867.6001	0.3192
867.7625	-0.2905
867.9249	0.2114
868.0872	1.273
868.2495	-0
868.4118	0.5079
868.5741	0.0925
868.7363	1.7699
868.8986	-0
869.0608	0.447
869.223	-0
869.3851	-0
869.5473	-1.326
869.7094	-0
869.8715	-0
870.0336	0.0991
870.1957	-0
870.3577	0.0694
870.5197	0.1603
870.6817	-0
870.8437	0.457
871.0057	-0.1249
871.1676	-0.1249
871.3295	-0
871.4914	0.0626
871.6533	0.3889
871.8151	-0.6853
871.977	-0
872.1388	-0
872.3006	0.4792
872.4623	-0.1008
872.6241	-0
872.7858	-0
872.9475	-0.9359
873.1092	0.1153
873.2709	0.1252
873.4325	-0
873.5941	-0.9301
873.7557	-0.5569
873.9173	-0.4386
874.0789	-0.0849
874.2404	-0.6594
874.4019	-0.0942
874.5634	0.2336
874.7249	0.1665
874.8863	-0
875.0478	0.6129
875.2092	0.9019
875.3706	-0.2273
875.5319	-0
875.6933	-0.07
875.8546	-0.5581
876.0159	-0.0808
876.1772	-0
876.3385	-0
876.4997	-0
876.6609	-0
876.8221	-0.003
876.9833	-0.5047
877.1445	0.1967
877.3056	0.0102
877.4667	-0
877.6278	-0.556
877.7889	-0.0097
877.9499	-0
878.111	0.1602
878.272	-0
878.433	-0
878.5939	0.4805
878.7549	0.972
878.9158	-0
879.0767	-0
879.2376	-0.153
879.3984	-0.1553
879.5593	-0.1658
879.7201	0.0141
879.8809	-0
880.0417	0.5283
880.2024	1.4141
880.3632	-0.2278
880.5239	0.0694
880.6846	-0.7386
880.8452	-0
881.0059	-0
881.1665	-0.0479
881.3271	0.567
881.4877	0.2674
881.6483	-1.4929
881.8088	0.4095
881.9693	0.4792
882.1298	0.4792
882.2903	0.4792
