Data from D4ACN5uM480nmA_Absorbance_12-08-02-215.txt Node
Date: Fri Feb 21 12:08:02 GMT 2025
User: LASERRRRR
Spectrometer: FLMT03099
Trigger mode: 0
Integration Time (sec): 1.500000E-2
Scans to average: 1
Electric dark correction enabled: true
Nonlinearity correction enabled: false
Boxcar width: 0
XAxis mode: Wavelengths
Number of Pixels in Spectrum: 3648
>>>>>Begin Spectral Data<<<<<
179.3399	0.1866
179.5586	0.1866
179.7771	0.1866
179.9957	0.3163
180.2143	-0
180.4329	-0
180.6514	-0.7237
180.8699	-0.0872
181.0885	-0.1081
181.307	-0
181.5255	0.3722
181.744	-0
181.9625	-0.2119
182.181	1.4601
182.3994	-0
182.6179	-0
182.8363	-0.3435
183.0547	-0
183.2732	0.4419
183.4916	0.2644
183.71	0.14
183.9284	0.4314
184.1467	0.2515
184.3651	0.2644
184.5835	-0.0185
184.8018	0.4523
185.0201	0.2817
185.2385	0.0765
185.4568	0.2201
185.6751	0.3012
185.8934	0.2311
186.1117	0.1747
186.3299	0.0859
186.5482	0.3308
186.7664	0.2781
186.9847	0.5936
187.2029	0.8256
187.4211	0.1336
187.6393	0.4216
187.8575	0.1527
188.0757	0.967
188.2939	0.1594
188.512	0.0336
188.7302	0.3145
188.9483	0.7442
189.1665	0.6055
189.3846	0.2339
189.6027	-0.0437
189.8208	0.3552
190.0389	0.4744
190.257	0.2955
190.475	0.5952
190.6931	0.4012
190.9111	0.69
191.1292	0.3012
191.3472	0.2918
191.5652	0.5065
191.7832	0.3148
192.0012	0.4137
192.2192	0.4903
192.4371	0.3539
192.6551	0.4808
192.873	0.3796
193.091	0.3187
193.3089	0.1707
193.5268	0.8865
193.7447	0.38
193.9626	0.7311
194.1805	0.5123
194.3984	0.4185
194.6162	0.5252
194.8341	0.57
195.0519	0.4592
195.2697	0.5947
195.4875	0.7812
195.7054	0.5209
195.9231	0.5356
196.1409	0.5454
196.3587	0.5806
196.5765	0.5797
196.7942	0.6379
197.012	0.5961
197.2297	0.6012
197.4474	0.6902
197.6651	0.7313
197.8828	0.7832
198.1005	0.7024
198.3182	0.668
198.5358	0.602
198.7535	0.6376
198.9711	0.7111
199.1888	0.5839
199.4064	0.6721
199.624	0.6466
199.8416	0.6913
200.0592	0.6363
200.2767	0.5374
200.4943	0.6896
200.7119	0.5932
200.9294	0.6011
201.1469	0.6062
201.3645	0.624
201.582	0.5453
201.7995	0.6488
202.017	0.5431
202.2344	0.5564
202.4519	0.5902
202.6694	0.5777
202.8868	0.5418
203.1042	0.5537
203.3217	0.5911
203.5391	0.5491
203.7565	0.5294
203.9739	0.5361
204.1913	0.5514
204.4086	0.5214
204.626	0.5135
204.8433	0.5221
205.0607	0.5128
205.278	0.5456
205.4953	0.4774
205.7126	0.5338
205.9299	0.4565
206.1472	0.4987
206.3644	0.4776
206.5817	0.472
206.7989	0.4801
207.0162	0.4451
207.2334	0.4311
207.4506	0.4702
207.6678	0.4695
207.885	0.48
208.1022	0.464
208.3194	0.4394
208.5365	0.4487
208.7537	0.483
208.9708	0.4691
209.1879	0.4374
209.405	0.4659
209.6222	0.4152
209.8392	0.4455
210.0563	0.4208
210.2734	0.4002
210.4905	0.4362
210.7075	0.4457
210.9245	0.4193
211.1416	0.4079
211.3586	0.4382
211.5756	0.43
211.7926	0.4246
212.0096	0.4228
212.2265	0.4427
212.4435	0.4179
212.6604	0.3895
212.8774	0.4128
213.0943	0.4251
213.3112	0.3998
213.5281	0.4264
213.745	0.4262
213.9619	0.3918
214.1788	0.3942
214.3956	0.4219
214.6125	0.4039
214.8293	0.4278
215.0461	0.4087
215.2629	0.3946
215.4798	0.4213
215.6965	0.3866
215.9133	0.389
216.1301	0.3967
216.3469	0.4062
216.5636	0.4039
216.7803	0.4219
216.9971	0.427
217.2138	0.4192
217.4305	0.4302
217.6472	0.4165
217.8639	0.4116
218.0805	0.4118
218.2972	0.4154
218.5138	0.4271
218.7305	0.424
218.9471	0.4475
219.1637	0.4334
219.3803	0.4456
219.5969	0.4237
219.8135	0.4178
220.0301	0.4333
220.2466	0.4353
220.4632	0.4205
220.6797	0.4212
220.8962	0.4251
221.1127	0.43
221.3292	0.4413
221.5457	0.4449
221.7622	0.423
221.9787	0.4477
222.1951	0.4418
222.4116	0.4369
222.628	0.4526
222.8444	0.4402
223.0608	0.4407
223.2772	0.4418
223.4936	0.4506
223.71	0.4471
223.9264	0.4642
224.1427	0.4674
224.3591	0.4483
224.5754	0.4745
224.7917	0.4691
225.008	0.4627
225.2243	0.457
225.4406	0.48
225.6569	0.4653
225.8732	0.473
226.0894	0.4732
226.3057	0.4727
226.5219	0.4682
226.7381	0.4755
226.9543	0.4757
227.1705	0.4682
227.3867	0.4857
227.6029	0.4766
227.8191	0.491
228.0352	0.5009
228.2513	0.4954
228.4675	0.4974
228.6836	0.506
228.8997	0.507
229.1158	0.4841
229.3319	0.5024
229.548	0.4979
229.764	0.508
229.9801	0.5182
230.1961	0.5137
230.4121	0.5058
230.6282	0.5187
230.8442	0.516
231.0602	0.5204
231.2761	0.5196
231.4921	0.5258
231.7081	0.5167
231.924	0.5142
232.14	0.5173
232.3559	0.5228
232.5718	0.5322
232.7877	0.5234
233.0036	0.5213
233.2195	0.5228
233.4353	0.5395
233.6512	0.5413
233.867	0.533
234.0829	0.5374
234.2987	0.5203
234.5145	0.5444
234.7303	0.5418
234.9461	0.5388
235.1619	0.5464
235.3776	0.5391
235.5934	0.5284
235.8091	0.5312
236.0249	0.5247
236.2406	0.5381
236.4563	0.543
236.672	0.5467
236.8877	0.5425
237.1034	0.5377
237.319	0.5465
237.5347	0.5335
237.7503	0.5517
237.966	0.5325
238.1816	0.5324
238.3972	0.5325
238.6128	0.5445
238.8284	0.5414
239.0439	0.5497
239.2595	0.5331
239.475	0.5371
239.6906	0.5331
239.9061	0.5336
240.1216	0.5311
240.3371	0.5263
240.5526	0.5205
240.7681	0.5247
240.9836	0.5268
241.199	0.5028
241.4145	0.5033
241.6299	0.4962
241.8453	0.4997
242.0607	0.4868
242.2761	0.471
242.4915	0.4666
242.7069	0.4788
242.9223	0.4608
243.1376	0.4541
243.353	0.445
243.5683	0.4435
243.7836	0.4238
243.9989	0.425
244.2142	0.409
244.4295	0.4026
244.6448	0.3939
244.86	0.3969
245.0753	0.386
245.2905	0.3784
245.5057	0.3718
245.721	0.362
245.9362	0.349
246.1514	0.3388
246.3665	0.3398
246.5817	0.3363
246.7969	0.3259
247.012	0.32
247.2271	0.312
247.4423	0.3031
247.6574	0.3108
247.8725	0.3036
248.0876	0.2824
248.3026	0.2855
248.5177	0.2808
248.7328	0.2846
248.9478	0.2698
249.1628	0.2689
249.3779	0.2707
249.5929	0.2638
249.8079	0.258
250.0228	0.251
250.2378	0.256
250.4528	0.251
250.6677	0.2356
250.8827	0.2388
251.0976	0.239
251.3125	0.2364
251.5274	0.2338
251.7423	0.2305
251.9572	0.221
252.172	0.2247
252.3869	0.2165
252.6017	0.214
252.8166	0.2177
253.0314	0.2128
253.2462	0.2195
253.461	0.2158
253.6758	0.2077
253.8906	0.2049
254.1053	0.2044
254.3201	0.2106
254.5348	0.2022
254.7496	0.1971
254.9643	0.201
255.179	0.1992
255.3937	0.1956
255.6083	0.1955
255.823	0.1957
256.0377	0.2023
256.2523	0.1982
256.467	0.1926
256.6816	0.1999
256.8962	0.1971
257.1108	0.2016
257.3254	0.1915
257.54	0.2017
257.7545	0.1946
257.9691	0.1903
258.1836	0.1899
258.3981	0.1916
258.6127	0.1864
258.8272	0.1885
259.0417	0.182
259.2561	0.1894
259.4706	0.187
259.6851	0.1855
259.8995	0.1785
260.114	0.183
260.3284	0.1822
260.5428	0.1839
260.7572	0.1874
260.9716	0.1843
261.186	0.1806
261.4003	0.1903
261.6147	0.1834
261.829	0.182
262.0433	0.1808
262.2577	0.188
262.472	0.1858
262.6863	0.1823
262.9005	0.1921
263.1148	0.1805
263.3291	0.188
263.5433	0.1884
263.7576	0.1877
263.9718	0.1899
264.186	0.186
264.4002	0.1844
264.6144	0.195
264.8286	0.1888
265.0427	0.192
265.2569	0.1823
265.471	0.1836
265.6851	0.1816
265.8993	0.184
266.1134	0.1832
266.3275	0.1846
266.5415	0.1814
266.7556	0.177
266.9697	0.1832
267.1837	0.1824
267.3978	0.1909
267.6118	0.1825
267.8258	0.1844
268.0398	0.1819
268.2538	0.1866
268.4677	0.1843
268.6817	0.175
268.8957	0.1906
269.1096	0.1723
269.3235	0.1889
269.5374	0.1808
269.7514	0.1829
269.9652	0.1748
270.1791	0.1802
270.393	0.1843
270.6068	0.1726
270.8207	0.1735
271.0345	0.1785
271.2483	0.1782
271.4622	0.1822
271.676	0.1721
271.8897	0.1754
272.1035	0.1738
272.3173	0.1675
272.531	0.1753
272.7448	0.1717
272.9585	0.1761
273.1722	0.1728
273.3859	0.1713
273.5996	0.1761
273.8133	0.1689
274.0269	0.1796
274.2406	0.1741
274.4542	0.1711
274.6679	0.1709
274.8815	0.1739
275.0951	0.1725
275.3087	0.1757
275.5223	0.1724
275.7358	0.1769
275.9494	0.1747
276.1629	0.1704
276.3765	0.1725
276.59	0.1769
276.8035	0.1764
277.017	0.1793
277.2305	0.1752
277.444	0.1797
277.6574	0.1744
277.8709	0.1737
278.0843	0.1741
278.2978	0.1776
278.5112	0.1792
278.7246	0.1766
278.938	0.1835
279.1513	0.1797
279.3647	0.1804
279.5781	0.1825
279.7914	0.1861
280.0047	0.1756
280.2181	0.1853
280.4314	0.1811
280.6447	0.1798
280.8579	0.1817
281.0712	0.1783
281.2845	0.1856
281.4977	0.1839
281.711	0.1802
281.9242	0.1871
282.1374	0.1842
282.3506	0.1881
282.5638	0.1846
282.7769	0.1821
282.9901	0.1819
283.2033	0.1905
283.4164	0.1861
283.6295	0.1845
283.8426	0.1848
284.0557	0.1919
284.2688	0.1895
284.4819	0.1899
284.695	0.1942
284.908	0.1869
285.1211	0.1898
285.3341	0.1932
285.5471	0.1926
285.7601	0.1918
285.9731	0.1942
286.1861	0.1925
286.3991	0.1949
286.612	0.1891
286.825	0.1923
287.0379	0.1899
287.2508	0.1974
287.4637	0.1963
287.6766	0.1951
287.8895	0.1953
288.1024	0.1948
288.3152	0.1984
288.5281	0.1972
288.7409	0.1964
288.9538	0.1981
289.1666	0.2021
289.3794	0.1939
289.5922	0.1972
289.8049	0.2002
290.0177	0.2007
290.2304	0.2012
290.4432	0.1985
290.6559	0.1882
290.8686	0.1999
291.0813	0.2012
291.294	0.1979
291.5067	0.2061
291.7194	0.1933
291.932	0.2072
292.1447	0.2018
292.3573	0.2018
292.5699	0.2066
292.7825	0.2011
292.9951	0.1987
293.2077	0.2013
293.4203	0.2025
293.6328	0.1999
293.8454	0.2019
294.0579	0.2045
294.2704	0.2093
294.4829	0.2011
294.6954	0.2044
294.9079	0.2067
295.1204	0.2005
295.3328	0.2004
295.5453	0.1974
295.7577	0.1917
295.9701	0.2027
296.1825	0.1962
296.3949	0.2053
296.6073	0.1969
296.8197	0.2012
297.0321	0.2042
297.2444	0.2003
297.4567	0.2007
297.6691	0.2011
297.8814	0.2011
298.0937	0.1934
298.306	0.2049
298.5182	0.2033
298.7305	0.2004
298.9428	0.1983
299.155	0.1995
299.3672	0.2005
299.5794	0.1959
299.7916	0.1991
300.0038	0.2016
300.216	0.2051
300.4282	0.1922
300.6403	0.1991
300.8525	0.2079
301.0646	0.192
301.2767	0.1957
301.4888	0.1972
301.7009	0.1974
301.913	0.2036
302.125	0.1968
302.3371	0.1943
302.5491	0.2012
302.7612	0.1971
302.9732	0.1911
303.1852	0.1974
303.3972	0.1922
303.6092	0.2
303.8211	0.1919
304.0331	0.1875
304.245	0.1953
304.457	0.1966
304.6689	0.1968
304.8808	0.1915
305.0927	0.1921
305.3046	0.1867
305.5164	0.1858
305.7283	0.1846
305.9401	0.1859
306.152	0.1844
306.3638	0.1805
306.5756	0.1833
306.7874	0.1854
306.9992	0.1795
307.2109	0.175
307.4227	0.1711
307.6344	0.1715
307.8462	0.1724
308.0579	0.1732
308.2696	0.1676
308.4813	0.1639
308.693	0.1687
308.9046	0.1601
309.1163	0.1556
309.328	0.1548
309.5396	0.1544
309.7512	0.1598
309.9628	0.158
310.1744	0.1531
310.386	0.1492
310.5976	0.1481
310.8091	0.1469
311.0207	0.1439
311.2322	0.1477
311.4437	0.1424
311.6552	0.1435
311.8667	0.1364
312.0782	0.1388
312.2897	0.1381
312.5012	0.1378
312.7126	0.1357
312.924	0.1341
313.1355	0.135
313.3469	0.1344
313.5583	0.135
313.7696	0.1289
313.981	0.1248
314.1924	0.1291
314.4037	0.1243
314.6151	0.1275
314.8264	0.1259
315.0377	0.1278
315.249	0.1217
315.4603	0.1221
315.6716	0.1291
315.8828	0.1254
316.0941	0.1212
316.3053	0.1145
316.5165	0.1226
316.7277	0.1259
316.9389	0.122
317.1501	0.1241
317.3613	0.12
317.5724	0.1217
317.7836	0.1193
317.9947	0.117
318.2058	0.1192
318.417	0.1132
318.6281	0.1146
318.8391	0.1219
319.0502	0.1167
319.2613	0.1184
319.4723	0.1184
319.6834	0.119
319.8944	0.1178
320.1054	0.1169
320.3164	0.1162
320.5274	0.1125
320.7383	0.1129
320.9493	0.1173
321.1602	0.1205
321.3712	0.122
321.5821	0.1197
321.793	0.1179
322.0039	0.1213
322.2148	0.1113
322.4257	0.1224
322.6365	0.1163
322.8474	0.1128
323.0582	0.1149
323.269	0.1158
323.4798	0.1169
323.6906	0.1168
323.9014	0.1109
324.1122	0.1179
324.3229	0.1234
324.5337	0.1204
324.7444	0.1144
324.9551	0.1211
325.1658	0.118
325.3765	0.1172
325.5872	0.118
325.7979	0.1138
326.0085	0.1173
326.2192	0.1169
326.4298	0.1253
326.6404	0.1209
326.851	0.1232
327.0616	0.126
327.2722	0.1278
327.4828	0.1204
327.6933	0.1205
327.9039	0.1197
328.1144	0.124
328.3249	0.1231
328.5354	0.117
328.7459	0.1213
328.9564	0.1244
329.1669	0.1236
329.3773	0.121
329.5878	0.1282
329.7982	0.1246
330.0086	0.1271
330.219	0.1245
330.4294	0.127
330.6398	0.133
330.8502	0.1315
331.0605	0.1261
331.2708	0.1258
331.4812	0.1188
331.6915	0.1253
331.9018	0.1257
332.1121	0.1297
332.3224	0.1292
332.5326	0.1239
332.7429	0.1185
332.9531	0.1304
333.1633	0.1264
333.3735	0.1221
333.5837	0.1224
333.7939	0.1298
334.0041	0.1234
334.2143	0.1275
334.4244	0.1251
334.6346	0.1284
334.8447	0.1237
335.0548	0.1236
335.2649	0.1319
335.475	0.1257
335.685	0.1221
335.8951	0.1333
336.1051	0.1296
336.3152	0.1288
336.5252	0.1294
336.7352	0.1222
336.9452	0.1365
337.1552	0.1264
337.3652	0.1312
337.5751	0.1244
337.7851	0.1244
337.995	0.1321
338.2049	0.1336
338.4148	0.1239
338.6247	0.1352
338.8346	0.1273
339.0445	0.1341
339.2543	0.1375
339.4642	0.1421
339.674	0.1384
339.8838	0.1341
340.0936	0.1385
340.3034	0.1317
340.5132	0.1319
340.7229	0.129
340.9327	0.1389
341.1424	0.1376
341.3522	0.1348
341.5619	0.1398
341.7716	0.1437
341.9813	0.1384
342.1909	0.1413
342.4006	0.1443
342.6102	0.1375
342.8199	0.143
343.0295	0.142
343.2391	0.1502
343.4487	0.1458
343.6583	0.1507
343.8679	0.1433
344.0774	0.1358
344.287	0.1452
344.4965	0.1457
344.706	0.148
344.9155	0.1467
345.125	0.1482
345.3345	0.1466
345.544	0.1512
345.7534	0.1497
345.9629	0.151
346.1723	0.1527
346.3817	0.1546
346.5911	0.1532
346.8005	0.1504
347.0099	0.154
347.2193	0.1541
347.4286	0.1571
347.638	0.1566
347.8473	0.1542
348.0566	0.1557
348.2659	0.1611
348.4752	0.1566
348.6845	0.1629
348.8937	0.1626
349.103	0.159
349.3122	0.166
349.5214	0.1548
349.7306	0.1607
349.9398	0.1635
350.149	0.1652
350.3582	0.1616
350.5674	0.1672
350.7765	0.1635
350.9856	0.1651
351.1948	0.1609
351.4039	0.1686
351.613	0.1706
351.822	0.1701
352.0311	0.1615
352.2402	0.1751
352.4492	0.1707
352.6582	0.1772
352.8672	0.1669
353.0762	0.1743
353.2852	0.1744
353.4942	0.1765
353.7032	0.1655
353.9121	0.1772
354.1211	0.1697
354.33	0.1795
354.5389	0.1848
354.7478	0.1781
354.9567	0.1782
355.1655	0.18
355.3744	0.1796
355.5833	0.187
355.7921	0.1783
356.0009	0.1806
356.2097	0.1872
356.4185	0.1901
356.6273	0.1822
356.8361	0.1941
357.0448	0.1907
357.2536	0.1868
357.4623	0.1851
357.671	0.1835
357.8797	0.1975
358.0884	0.1926
358.2971	0.1917
358.5057	0.1919
358.7144	0.1962
358.923	0.1903
359.1316	0.1914
359.3402	0.1973
359.5488	0.2012
359.7574	0.1942
359.966	0.2033
360.1746	0.1952
360.3831	0.1999
360.5916	0.2042
360.8002	0.2124
361.0087	0.2148
361.2172	0.216
361.4256	0.2024
361.6341	0.2128
361.8426	0.2106
362.051	0.2095
362.2594	0.2143
362.4678	0.2093
362.6762	0.2267
362.8846	0.2195
363.093	0.216
363.3014	0.2216
363.5097	0.224
363.718	0.2284
363.9264	0.2257
364.1347	0.2254
364.343	0.2314
364.5513	0.2275
364.7595	0.2316
364.9678	0.2313
365.176	0.2361
365.3842	0.2309
365.5925	0.2302
365.8007	0.2384
366.0089	0.2332
366.217	0.2389
366.4252	0.235
366.6333	0.2349
366.8415	0.2352
367.0496	0.2324
367.2577	0.2417
367.4658	0.246
367.6739	0.242
367.882	0.2481
368.09	0.2413
368.2981	0.2536
368.5061	0.2459
368.7141	0.2435
368.9221	0.2453
369.1301	0.2468
369.3381	0.2507
369.5461	0.2566
369.754	0.2455
369.962	0.259
370.1699	0.2547
370.3778	0.2575
370.5857	0.2608
370.7936	0.2602
371.0015	0.2585
371.2093	0.2658
371.4172	0.2593
371.625	0.259
371.8328	0.2689
372.0406	0.2665
372.2484	0.2507
372.4562	0.2714
372.664	0.2747
372.8717	0.27
373.0795	0.2672
373.2872	0.2709
373.4949	0.2761
373.7026	0.2832
373.9103	0.2648
374.118	0.2735
374.3256	0.282
374.5333	0.2794
374.7409	0.2662
374.9485	0.2784
375.1561	0.2931
375.3637	0.273
375.5713	0.2781
375.7789	0.2772
375.9864	0.2786
376.194	0.2815
376.4015	0.2813
376.609	0.2901
376.8165	0.2856
377.024	0.278
377.2315	0.283
377.4389	0.2816
377.6464	0.297
377.8538	0.2931
378.0612	0.2851
378.2686	0.2902
378.476	0.2868
378.6834	0.2869
378.8908	0.2984
379.0981	0.2998
379.3055	0.3006
379.5128	0.2971
379.7201	0.2964
379.9274	0.2928
380.1347	0.2934
380.342	0.3018
380.5492	0.2942
380.7565	0.3031
380.9637	0.2991
381.1709	0.3013
381.3781	0.3062
381.5853	0.3055
381.7925	0.314
381.9997	0.3041
382.2068	0.2972
382.4139	0.3129
382.6211	0.3161
382.8282	0.3062
383.0353	0.307
383.2424	0.3111
383.4494	0.3113
383.6565	0.3077
383.8635	0.3266
384.0706	0.3235
384.2776	0.3189
384.4846	0.3146
384.6916	0.3151
384.8986	0.3262
385.1055	0.3196
385.3125	0.3088
385.5194	0.3044
385.7263	0.313
385.9333	0.3157
386.1402	0.3144
386.347	0.3179
386.5539	0.3168
386.7608	0.317
386.9676	0.3185
387.1744	0.3098
387.3813	0.3086
387.5881	0.3187
387.7948	0.3076
388.0016	0.3107
388.2084	0.3226
388.4151	0.3113
388.6219	0.317
388.8286	0.3076
389.0353	0.3088
389.242	0.3023
389.4487	0.3144
389.6553	0.3049
389.862	0.3076
390.0686	0.3129
390.2753	0.3039
390.4819	0.3075
390.6885	0.3015
390.8951	0.3156
391.1016	0.3066
391.3082	0.3039
391.5147	0.2939
391.7213	0.2983
391.9278	0.2972
392.1343	0.2971
392.3408	0.2927
392.5473	0.2912
392.7537	0.2993
392.9602	0.2806
393.1666	0.2964
393.373	0.2992
393.5794	0.2865
393.7858	0.2916
393.9922	0.2863
394.1986	0.2836
394.4049	0.2864
394.6113	0.2854
394.8176	0.2741
395.0239	0.2784
395.2302	0.2741
395.4365	0.275
395.6428	0.2864
395.8491	0.2698
396.0553	0.2731
396.2615	0.2698
396.4678	0.2718
396.674	0.2656
396.8802	0.2679
397.0863	0.2662
397.2925	0.2681
397.4987	0.2721
397.7048	0.272
397.9109	0.2706
398.117	0.274
398.3231	0.2779
398.5292	0.2751
398.7353	0.2564
398.9413	0.2661
399.1474	0.2732
399.3534	0.2718
399.5594	0.2786
399.7654	0.2681
399.9714	0.2622
400.1774	0.2696
400.3833	0.2786
400.5893	0.2617
400.7952	0.2764
401.0011	0.2652
401.207	0.2741
401.4129	0.2659
401.6188	0.263
401.8247	0.2584
402.0305	0.2722
402.2364	0.27
402.4422	0.271
402.648	0.2701
402.8538	0.2846
403.0596	0.2607
403.2654	0.2706
403.4711	0.2647
403.6768	0.2731
403.8826	0.2652
404.0883	0.2556
404.294	0.2827
404.4997	0.2645
404.7054	0.2663
404.911	0.2688
405.1167	0.2739
405.3223	0.2692
405.5279	0.2682
405.7335	0.2706
405.9391	0.2666
406.1447	0.2698
406.3502	0.2785
406.5558	0.2731
406.7613	0.271
406.9668	0.2678
407.1724	0.2754
407.3778	0.2622
407.5833	0.2677
407.7888	0.273
407.9942	0.2694
408.1997	0.2762
408.4051	0.2716
408.6105	0.2799
408.8159	0.2695
409.0213	0.2749
409.2267	0.27
409.432	0.2806
409.6374	0.2586
409.8427	0.2714
410.048	0.2652
410.2533	0.2606
410.4586	0.2621
410.6639	0.2684
410.8691	0.2735
411.0744	0.2641
411.2796	0.2765
411.4848	0.2667
411.69	0.2712
411.8952	0.2624
412.1004	0.2676
412.3056	0.2677
412.5107	0.2741
412.7158	0.2668
412.921	0.2643
413.1261	0.2696
413.3312	0.2628
413.5362	0.2595
413.7413	0.2602
413.9464	0.263
414.1514	0.2635
414.3564	0.258
414.5614	0.2628
414.7664	0.2668
414.9714	0.2751
415.1764	0.2588
415.3813	0.2563
415.5863	0.2601
415.7912	0.2669
415.9961	0.2675
416.201	0.2665
416.4059	0.2514
416.6108	0.2574
416.8156	0.2511
417.0205	0.2635
417.2253	0.2638
417.4301	0.2678
417.6349	0.2634
417.8397	0.2643
418.0445	0.255
418.2492	0.2553
418.454	0.2552
418.6587	0.2592
418.8634	0.2484
419.0681	0.2564
419.2728	0.2449
419.4775	0.26
419.6822	0.2563
419.8868	0.2643
420.0915	0.2508
420.2961	0.2547
420.5007	0.2496
420.7053	0.2593
420.9099	0.247
421.1144	0.2422
421.319	0.2423
421.5235	0.2477
421.728	0.2395
421.9325	0.2467
422.137	0.2417
422.3415	0.2419
422.546	0.2438
422.7504	0.2457
422.9549	0.2329
423.1593	0.237
423.3637	0.2329
423.5681	0.2397
423.7725	0.2352
423.9769	0.2474
424.1812	0.2372
424.3856	0.2359
424.5899	0.2432
424.7942	0.2277
424.9985	0.2345
425.2028	0.2436
425.4071	0.2245
425.6113	0.2313
425.8156	0.2258
426.0198	0.2201
426.224	0.2254
426.4282	0.2281
426.6324	0.2221
426.8366	0.2229
427.0407	0.2226
427.2449	0.2271
427.449	0.2158
427.6531	0.1994
427.8572	0.2258
428.0613	0.2112
428.2654	0.2113
428.4694	0.1994
428.6735	0.2114
428.8775	0.2106
429.0815	0.2046
429.2855	0.2015
429.4895	0.2044
429.6935	0.1993
429.8975	0.2125
430.1014	0.1945
430.3053	0.197
430.5093	0.1961
430.7132	0.1953
430.9171	0.1892
431.1209	0.2005
431.3248	0.197
431.5286	0.1832
431.7325	0.1935
431.9363	0.1925
432.1401	0.1824
432.3439	0.1758
432.5477	0.1889
432.7514	0.1879
432.9552	0.1742
433.1589	0.1736
433.3627	0.1747
433.5664	0.1746
433.7701	0.188
433.9737	0.1748
434.1774	0.1705
434.3811	0.174
434.5847	0.1563
434.7883	0.1647
434.9919	0.1535
435.1955	0.1507
435.3991	0.1499
435.6027	0.1525
435.8062	0.1499
436.0098	0.154
436.2133	0.1512
436.4168	0.1474
436.6203	0.1416
436.8238	0.144
437.0272	0.1426
437.2307	0.138
437.4341	0.1362
437.6375	0.1308
437.841	0.1348
438.0443	0.1365
438.2477	0.1344
438.4511	0.1351
438.6545	0.128
438.8578	0.1355
439.0611	0.1248
439.2644	0.1153
439.4677	0.1243
439.671	0.1214
439.8743	0.1101
440.0775	0.111
440.2808	0.1185
440.484	0.1058
440.6872	0.1039
440.8904	0.1016
441.0936	0.1151
441.2967	0.1019
441.4999	0.1075
441.703	0.1005
441.9062	0.1058
442.1093	0.0965
442.3124	0.0983
442.5155	0.1012
442.7185	0.0896
442.9216	0.0943
443.1246	0.0878
443.3276	0.0819
443.5307	0.0819
443.7337	0.0869
443.9366	0.0842
444.1396	0.0788
444.3426	0.0835
444.5455	0.0752
444.7484	0.0683
444.9513	0.0853
445.1542	0.0805
445.3571	0.0719
445.56	0.076
445.7628	0.0666
445.9657	0.0709
446.1685	0.0757
446.3713	0.067
446.5741	0.0571
446.7769	0.0695
446.9797	0.0701
447.1824	0.0677
447.3852	0.0576
447.5879	0.0618
447.7906	0.0582
447.9933	0.0623
448.196	0.0603
448.3986	0.0546
448.6013	0.0552
448.8039	0.0572
449.0066	0.061
449.2092	0.0519
449.4118	0.0552
449.6143	0.0501
449.8169	0.0496
450.0195	0.0536
450.222	0.0474
450.4245	0.0488
450.627	0.0473
450.8295	0.0447
451.032	0.0442
451.2345	0.0479
451.4369	0.0398
451.6394	0.0433
451.8418	0.0331
452.0442	0.0495
452.2466	0.0354
452.449	0.0338
452.6513	0.0398
452.8537	0.0415
453.056	0.0429
453.2583	0.036
453.4607	0.0384
453.663	0.0346
453.8652	0.0333
454.0675	0.0323
454.2697	0.0283
454.472	0.029
454.6742	0.0328
454.8764	0.0312
455.0786	0.0336
455.2808	0.0314
455.4829	0.0218
455.6851	0.0229
455.8872	0.0318
456.0893	0.0326
456.2915	0.0281
456.4935	0.0145
456.6956	0.0283
456.8977	0.0261
457.0997	0.0215
457.3018	0.0334
457.5038	0.0305
457.7058	0.0157
457.9078	0.0226
458.1098	0.0305
458.3117	0.0242
458.5137	0.0293
458.7156	0.0289
458.9175	0.011
459.1194	0.024
459.3213	0.014
459.5232	0.0156
459.725	0.0147
459.9269	0.0233
460.1287	0.0178
460.3305	0.0163
460.5323	0.026
460.7341	0.0178
460.9359	0.019
461.1376	0.0244
461.3394	0.0103
461.5411	0.0189
461.7428	0.0182
461.9445	0.0167
462.1462	0.0135
462.3479	0.0102
462.5495	0.0129
462.7512	0.005
462.9528	0.015
463.1544	0.0106
463.356	0.0177
463.5576	0.0047
463.7592	0.0058
463.9607	0.017
464.1623	0.0125
464.3638	0.0121
464.5653	0.0146
464.7668	0.0087
464.9683	0.0128
465.1697	0.0138
465.3712	0.0108
465.5726	0.0116
465.7741	0.0131
465.9755	0.0119
466.1769	0.0124
466.3782	0.0005
466.5796	0.0143
466.7809	0.0184
466.9823	0.0106
467.1836	0.0166
467.3849	0.0113
467.5862	0.0053
467.7875	0.0098
467.9887	0.0154
468.19	0.0085
468.3912	0.0161
468.5924	0.0196
468.7936	0.0015
468.9948	0.0156
469.196	0.0025
469.3972	0.0271
469.5983	0.0152
469.7994	0.0044
470.0006	0.0106
470.2017	0.0124
470.4027	0.0043
470.6038	0.0002
470.8049	0.008
471.0059	0.0094
471.2069	0.012
471.408	0.005
471.6089	0.0116
471.8099	0.0105
472.0109	0.003
472.2119	0.0156
472.4128	0.0213
472.6137	0.0089
472.8146	0.0018
473.0155	-0.0068
473.2164	-0.0082
473.4173	0.0092
473.6181	0.0159
473.819	-0.0086
474.0198	0.0036
474.2206	0.0125
474.4214	0.0132
474.6222	0.0123
474.8229	-0.0018
475.0237	0.0046
475.2244	0.01
475.4251	0.0028
475.6258	0.0081
475.8265	0
476.0272	0.0093
476.2278	0.0051
476.4285	-0.0009
476.6291	0.0147
476.8297	-0.0016
477.0303	0.0035
477.2309	0.0021
477.4315	0.0045
477.632	0.0092
477.8326	-0.0017
478.0331	0.0114
478.2336	0.0128
478.4341	0.0092
478.6346	0.0059
478.8351	0.0128
479.0355	0.0037
479.236	-0.0004
479.4364	0.0012
479.6368	0.0057
479.8372	0.0122
480.0376	0.0041
480.2379	0.0018
480.4383	0.0063
480.6386	0.0056
480.8389	0.014
481.0392	0.0056
481.2395	0.0061
481.4398	0.0054
481.6401	0.0046
481.8403	-0.002
482.0405	0.0025
482.2408	0.0064
482.441	0.004
482.6411	0.0033
482.8413	0.0006
483.0415	0.0059
483.2416	0.0053
483.4417	0.0061
483.6419	0
483.8419	0.0094
484.042	0.0026
484.2421	-0.0014
484.4422	0.009
484.6422	0.0092
484.8422	0.0012
485.0422	0.0021
485.2422	0.0023
485.4422	-0.0004
485.6422	0.0017
485.8421	0.0014
486.042	0.0053
486.242	0.0017
486.4419	0.0036
486.6417	0.0077
486.8416	0.009
487.0415	0.0001
487.2413	0.0057
487.4411	0.0042
487.641	0.0041
487.8408	0.0103
488.0405	0.0082
488.2403	-0.0005
488.4401	0.0004
488.6398	0.0037
488.8395	0.0045
489.0392	0.0044
489.2389	0.0039
489.4386	0.0049
489.6383	0.0056
489.8379	0.0054
490.0376	0.008
490.2372	-0.0071
490.4368	0.0015
490.6364	0.0092
490.836	0.0011
491.0355	0.0006
491.2351	0.0019
491.4346	0.0024
491.6341	0.0018
491.8336	-0.0027
492.0331	-0.0022
492.2326	0.0051
492.432	0.0044
492.6315	-0.0038
492.8309	0.0053
493.0303	-0.0091
493.2297	-0.0032
493.4291	-0.0084
493.6284	0.0012
493.8278	-0.0032
494.0271	0.0008
494.2264	0.0027
494.4257	0.0044
494.625	-0.0047
494.8243	0.0096
495.0236	0.0058
495.2228	-0.0071
495.422	0.0029
495.6213	0.0035
495.8205	0.0033
496.0196	0.0016
496.2188	0.0023
496.418	-0.0072
496.6171	0.0005
496.8162	0.0092
497.0153	0.0045
497.2144	0.0038
497.4135	0.0045
497.6126	-0.0021
497.8116	0.0011
498.0107	0.0021
498.2097	0.0116
498.4087	0.0028
498.6077	0.0059
498.8067	0.0099
499.0056	-0.0071
499.2046	0.0022
499.4035	0.0054
499.6024	-0.0047
499.8013	0.003
500.0002	0.0073
500.199	0.0014
500.3979	0.0109
500.5967	-0.0037
500.7956	0.0064
500.9944	0.009
501.1932	0.0021
501.3919	0.0068
501.5907	0.0094
501.7895	-0.0017
501.9882	0.003
502.1869	0.0072
502.3856	-0.0062
502.5843	0.0035
502.783	0.0005
502.9816	-0.0019
503.1803	0.0134
503.3789	0.0048
503.5775	0.0012
503.7761	0.0076
503.9747	-0.0078
504.1732	0.0017
504.3718	0.002
504.5703	0.0038
504.7689	-0.0046
504.9674	0.0017
505.1658	0.0061
505.3643	0.0034
505.5628	0.0134
505.7612	0.0036
505.9597	0.0097
506.1581	-0.008
506.3565	-0.0115
506.5549	0.0011
506.7532	0.0058
506.9516	0.004
507.1499	0.0019
507.3482	0.0062
507.5465	-0.0058
507.7448	0.0032
507.9431	0.0043
508.1414	-0.0015
508.3396	-0.0014
508.5379	-0.0002
508.7361	0.0172
508.9343	0.0056
509.1325	0.0085
509.3306	0.0013
509.5288	0.0059
509.7269	0.0011
509.9251	-0.0027
510.1232	-0.0049
510.3213	0.0049
510.5193	0.0043
510.7174	-0.0016
510.9154	0.0107
511.1135	-0.0017
511.3115	0.0009
511.5095	0.0113
511.7075	0.0067
511.9055	0.0093
512.1034	0.0125
512.3014	0.0041
512.4993	-0.003
512.6972	0.0026
512.8951	0.0008
513.093	-0.0023
513.2908	0.0061
513.4887	0.0175
513.6865	0.0013
513.8844	0.0035
514.0822	0.0028
514.2799	-0.0001
514.4777	0.0038
514.6755	-0.0012
514.8732	-0.0058
515.0709	0.0059
515.2687	-0.0065
515.4664	-0.0054
515.664	0.0065
515.8617	0.0143
516.0594	0.0128
516.257	0.0046
516.4546	0.0005
516.6522	0.0002
516.8498	-0.0022
517.0474	-0.0006
517.2449	-0.0006
517.4425	-0.0011
517.64	-0.0054
517.8375	0.0075
518.035	0.0042
518.2325	-0.003
518.43	-0.0012
518.6274	0.0017
518.8249	0.0032
519.0223	-0.0017
519.2197	0.0012
519.4171	0.0005
519.6145	-0.0053
519.8118	0.0028
520.0092	0.0054
520.2065	-0.0035
520.4038	-0.0067
520.6011	0.0027
520.7984	-0.0002
520.9956	-0.0136
521.1929	0.0032
521.3901	0.0054
521.5874	0.0037
521.7846	0.002
521.9818	-0.0028
522.1789	0.0152
522.3761	0.0026
522.5732	0.0038
522.7704	0.0073
522.9675	0.0047
523.1646	0.0064
523.3617	0.0057
523.5587	-0.0022
523.7558	0.0027
523.9528	0.0004
524.1498	0.0012
524.3468	-0.0005
524.5438	-0.0119
524.7408	-0.002
524.9378	0.0001
525.1347	0.0049
525.3316	0.0156
525.5285	0.0009
525.7254	-0.0001
525.9223	-0.0012
526.1192	0.0022
526.316	-0.001
526.5129	0.0078
526.7097	-0.0052
526.9065	0.0196
527.1033	0.0042
527.3	-0.0067
527.4968	0.0037
527.6935	0.0073
527.8903	0.007
528.087	0.0002
528.2837	0.0027
528.4804	0.0088
528.677	0.0048
528.8737	0.0014
529.0703	0.0082
529.2669	0.0038
529.4635	0.0137
529.6601	0.0027
529.8567	0.0167
530.0532	0.0076
530.2498	-0.0047
530.4463	-0.0028
530.6428	-0.0004
530.8393	-0.0061
531.0358	0.0022
531.2322	0.0007
531.4287	0
531.6251	-0.0022
531.8215	0.0044
532.0179	-0.0081
532.2143	0.0071
532.4107	0.0026
532.607	0.0059
532.8034	0.0125
532.9997	0.0032
533.196	0.0112
533.3923	0.0079
533.5886	0.0051
533.7848	-0.0029
533.9811	-0.0062
534.1773	0.0009
534.3735	0.0025
534.5697	0.0061
534.7659	-0.0044
534.9621	0.0124
535.1582	0.0066
535.3544	0.0091
535.5505	0.007
535.7466	-0.0056
535.9427	0
536.1387	0.0026
536.3348	0.0139
536.5308	0.0006
536.7269	0.0012
536.9229	0.0073
537.1189	0.0064
537.3148	-0.0056
537.5108	-0.0002
537.7068	0.002
537.9027	0.0017
538.0986	-0.0072
538.2945	0.0003
538.4904	0.0014
538.6863	0.0131
538.8821	0.0011
539.078	0.0064
539.2738	0.0044
539.4696	0.0105
539.6654	0.0031
539.8611	0.008
540.0569	0.0048
540.2526	-0.0017
540.4484	-0.009
540.6441	0.015
540.8398	-0.0044
541.0355	0.0003
541.2311	-0.0016
541.4268	0.0013
541.6224	0.0064
541.818	-0.0031
542.0136	-0.0015
542.2092	0.0069
542.4048	-0.0006
542.6003	0.0046
542.7959	0.004
542.9914	-0.0078
543.1869	0.0013
543.3824	0.0056
543.5779	-0.0025
543.7734	0.0047
543.9688	0.0068
544.1642	0.001
544.3596	-0.0013
544.555	0.0047
544.7504	0.0023
544.9458	0.0052
545.1411	0.0032
545.3365	0.0051
545.5318	-0.0007
545.7271	0.0037
545.9224	0.0011
546.1177	0.0043
546.3129	-0.002
546.5081	-0.0078
546.7034	0.0048
546.8986	0.0059
547.0938	-0.0018
547.289	0.012
547.4841	0.0013
547.6793	0.0014
547.8744	0.0016
548.0695	-0.0079
548.2646	-0.0024
548.4597	-0.0045
548.6548	0.0089
548.8498	0.0019
549.0448	0.0095
549.2399	-0.001
549.4349	0.006
549.6298	-0.0022
549.8248	-0.0047
550.0198	0.007
550.2147	-0.0041
550.4096	-0.0033
550.6045	0.0036
550.7994	0.001
550.9943	0.0044
551.1892	-0.003
551.384	0.0113
551.5788	0.0093
551.7737	-0.0069
551.9685	0.006
552.1632	0.0124
552.358	0.0069
552.5528	0.0004
552.7475	-0.0067
552.9422	0.0089
553.1369	0.0131
553.3316	-0.0047
553.5263	-0.0015
553.7209	-0.0008
553.9156	0.0077
554.1102	0.0018
554.3048	-0.0046
554.4994	0.0053
554.694	0.0036
554.8885	0.0053
555.0831	0.0028
555.2776	0.0003
555.4721	-0.013
555.6666	0.0094
555.8611	0.0043
556.0555	0.0056
556.25	0.0022
556.4444	-0.002
556.6388	0.0003
556.8332	0.0005
557.0276	0.0123
557.222	-0.0022
557.4163	0.0012
557.6107	0.0021
557.805	-0.0105
557.9993	0.0003
558.1936	0.0048
558.3879	0.0059
558.5821	-0.0033
558.7764	0.0049
558.9706	0.001
559.1648	0.0068
559.359	0.0064
559.5532	-0.0052
559.7473	0.0128
559.9415	-0.0043
560.1356	0.0054
560.3297	0.004
560.5238	0.0088
560.7179	-0.0025
560.9119	0.0086
561.106	-0.0025
561.3	-0.0023
561.494	0.0106
561.688	0.0078
561.882	0.0039
562.076	0.0069
562.2699	0.0061
562.4639	0.0047
562.6578	0.0125
562.8517	0.0047
563.0456	-0.0036
563.2395	0.0022
563.4333	0.0017
563.6272	0.0068
563.821	0.0033
564.0148	-0.0001
564.2086	0.0001
564.4024	0.0074
564.5961	0.0095
564.7899	-0.0008
564.9836	-0.0008
565.1773	0.0046
565.371	0.004
565.5647	-0.0057
565.7584	0.005
565.952	0.0028
566.1456	0.0024
566.3393	0.0038
566.5329	-0.0011
566.7264	0.0036
566.92	0.003
567.1136	0.0049
567.3071	0.0038
567.5006	-0.0115
567.6941	0.007
567.8876	0.0031
568.0811	-0.01
568.2745	0.0046
568.468	0.0049
568.6614	0.0024
568.8548	-0.0005
569.0482	0.0049
569.2416	-0.0072
569.4349	0.0014
569.6283	-0.0058
569.8216	0.0002
570.0149	0.0055
570.2082	-0.0051
570.4015	-0.0029
570.5947	-0.0034
570.788	-0.0005
570.9812	0.0038
571.1744	0.0018
571.3676	-0.0037
571.5608	-0.0025
571.754	-0.0015
571.9471	0.0071
572.1402	0.0019
572.3333	-0.0015
572.5264	0.0049
572.7195	0.0061
572.9126	-0.0021
573.1057	-0.0014
573.2987	0.0008
573.4917	0.0015
573.6847	0.0005
573.8777	-0.0001
574.0707	-0.0029
574.2636	0.0041
574.4566	0.0021
574.6495	0.0035
574.8424	0.0034
575.0353	0.0017
575.2281	-0.0028
575.421	-0.0026
575.6138	0.0012
575.8067	0.0011
575.9995	-0.0005
576.1923	0.0038
576.385	0.0018
576.5778	-0.0005
576.7706	-0.0003
576.9633	0.0058
577.156	0.0028
577.3487	-0.0023
577.5414	-0.0039
577.734	0.0027
577.9267	0.001
578.1193	0.003
578.3119	-0.0039
578.5045	-0.0013
578.6971	-0.0025
578.8897	-0.0003
579.0822	0.0009
579.2747	-0.002
579.4673	0.0018
579.6598	-0.0011
579.8522	0.003
580.0447	0.0008
580.2372	0.0056
580.4296	-0.0031
580.622	0.0028
580.8144	0.0008
581.0068	0.0015
581.1992	0.0018
581.3915	-0.0004
581.5839	0.0025
581.7762	0.0027
581.9685	0.0012
582.1608	0.0031
582.353	-0.0044
582.5453	0.0061
582.7375	0.0009
582.9298	-0.0015
583.122	0.0003
583.3142	0.0054
583.5063	-0.0044
583.6985	-0.0008
583.8906	0.0028
584.0827	0.002
584.2749	0.0004
584.4669	0.0018
584.659	0.0004
584.8511	0.0046
585.0431	0
585.2352	-0.005
585.4272	0.0022
585.6192	0.0019
585.8111	-0.0013
586.0031	-0.0003
586.195	0.0015
586.387	0.001
586.5789	0.0018
586.7708	0.0024
586.9627	0.0003
587.1545	-0.0001
587.3464	0.0038
587.5382	-0.0005
587.73	-0.0001
587.9218	-0.0022
588.1136	-0.0065
588.3053	-0.0026
588.4971	-0.0038
588.6888	-0.0014
588.8805	0.0046
589.0722	0.0036
589.2639	-0.0012
589.4556	-0.0075
589.6472	-0.005
589.8389	-0.0044
590.0305	0.0072
590.2221	0.0049
590.4137	-0.0024
590.6052	0.0052
590.7968	0.0039
590.9883	0.0058
591.1798	-0.0053
591.3713	-0.0008
591.5628	0.0014
591.7543	-0.001
591.9458	-0.0024
592.1372	-0.0018
592.3286	0.0002
592.52	-0.0028
592.7114	-0.0045
592.9028	-0.005
593.0941	-0.0056
593.2855	0.0064
593.4768	-0.0024
593.6681	-0
593.8594	-0.0027
594.0506	0.004
594.2419	-0.0056
594.4331	-0.002
594.6244	0.0036
594.8156	-0.0001
595.0067	0.0042
595.1979	-0.0081
595.3891	-0.0037
595.5802	-0.0024
595.7713	-0.0027
595.9624	-0.0012
596.1535	-0.0048
596.3446	0.0013
596.5357	-0.0012
596.7267	0.0031
596.9177	0.0014
597.1087	0.0027
597.2997	-0.0015
597.4907	0.004
597.6817	0.0019
597.8726	0.0043
598.0635	0.0023
598.2544	-0.0066
598.4453	0.0006
598.6362	-0.0006
598.827	0.0008
599.0179	0.0007
599.2087	-0.0003
599.3995	0.0059
599.5903	-0.0012
599.7811	0.004
599.9718	0.0016
600.1626	-0.0027
600.3533	-0.0035
600.544	0.0007
600.7347	-0.001
600.9254	0.0012
601.116	-0.0002
601.3067	0.0042
601.4973	0.0093
601.6879	-0.0016
601.8785	0.0052
602.0691	0.0012
602.2596	0.0002
602.4502	0.0023
602.6407	0.0072
602.8312	0.0021
603.0217	0.0087
603.2122	0.0002
603.4027	-0.005
603.5931	-0.0031
603.7835	-0.0015
603.9739	-0.0003
604.1643	0.0001
604.3547	0.0069
604.5451	0.0016
604.7354	-0.0023
604.9257	-0.0002
605.116	-0.0057
605.3063	-0.0081
605.4966	0.0051
605.6869	0.0051
605.8771	0.0064
606.0673	-0.0017
606.2575	-0.0071
606.4477	0.003
606.6379	-0.0003
606.8281	-0.007
607.0182	0.0016
607.2083	-0.0011
607.3985	0.0008
607.5885	-0.0002
607.7786	0.0088
607.9687	0.0011
608.1587	-0.0004
608.3488	-0.0015
608.5388	0.0025
608.7288	-0.0061
608.9187	0.0065
609.1087	0.0029
609.2986	-0.0076
609.4886	0.0011
609.6785	0.0044
609.8684	-0.0019
610.0582	-0.0015
610.2481	-0.0021
610.4379	0.0025
610.6278	-0.0067
610.8176	0.0039
611.0074	0.001
611.1971	0.0007
611.3869	0.0008
611.5766	-0.0026
611.7664	0.0114
611.9561	-0.006
612.1458	-0.0018
612.3354	0.0001
612.5251	-0.0007
612.7147	0.0091
612.9044	0.0007
613.094	0.003
613.2836	-0.001
613.4731	-0.0024
613.6627	0.0031
613.8522	0.005
614.0417	-0.0019
614.2313	-0.007
614.4207	0.002
614.6102	-0.0053
614.7997	-0.0024
614.9891	-0.0027
615.1785	-0.0005
615.3679	0.0063
615.5573	-0.0021
615.7467	-0.0012
615.9361	-0.0019
616.1254	-0.0025
616.3147	0.0029
616.504	-0.0018
616.6933	-0.0004
616.8826	0.0132
617.0718	-0.006
617.2611	-0.0057
617.4503	0.0004
617.6395	-0.0019
617.8287	0.0044
618.0179	-0.008
618.207	-0.0059
618.3961	0.0063
618.5853	0.0064
618.7744	-0.0009
618.9634	0.0027
619.1525	0.0025
619.3416	-0.0103
619.5306	-0.0079
619.7196	-0.005
619.9086	0.0095
620.0976	0.009
620.2866	0.0113
620.4755	0.0164
620.6645	0.0021
620.8534	-0.0012
621.0423	-0.0014
621.2312	-0.0128
621.42	-0.0003
621.6089	-0.0036
621.7977	-0.0045
621.9865	0.0024
622.1753	0.0076
622.3641	-0.0111
622.5529	-0.0091
622.7416	-0.0057
622.9303	-0.0002
623.1191	-0.0046
623.3078	0.0084
623.4964	-0.0071
623.6851	0.0061
623.8737	0.0052
624.0624	0.0023
624.251	0.0052
624.4396	0.0038
624.6282	0.0051
624.8167	0.0057
625.0053	-0.0016
625.1938	-0.0066
625.3823	-0.0072
625.5708	-0.0007
625.7593	-0.0035
625.9477	-0.0002
626.1362	-0.0095
626.3246	-0.0073
626.513	0.0075
626.7014	-0.001
626.8898	0.0046
627.0781	0.0035
627.2665	0.0194
627.4548	-0.0027
627.6431	-0.0049
627.8314	0.009
628.0197	0.0021
628.2079	0.0005
628.3962	0.01
628.5844	0.0014
628.7726	0.0037
628.9608	-0.0019
629.1489	-0.0005
629.3371	-0.0018
629.5252	0.0142
629.7134	-0.0005
629.9015	0.002
630.0895	0.0041
630.2776	-0.0045
630.4657	-0.0101
630.6537	-0.008
630.8417	-0.0048
631.0297	-0.0084
631.2177	0.0151
631.4057	-0.0117
631.5936	-0.0022
631.7815	-0.0032
631.9695	0.0051
632.1574	-0.0125
632.3452	-0.0008
632.5331	-0.0072
632.7209	0.0191
632.9088	0.0087
633.0966	0.0132
633.2844	-0.0001
633.4722	0.0022
633.6599	-0.0116
633.8477	0.0039
634.0354	-0.0146
634.2231	0.0117
634.4108	0.0006
634.5985	0.0018
634.7861	-0.0025
634.9738	0.0146
635.1614	0.0174
635.349	-0.0181
635.5366	-0.0017
635.7242	-0.0091
635.9117	0.0024
636.0993	-0.0123
636.2868	-0.0076
636.4743	0.0234
636.6618	0.002
636.8492	-0.0052
637.0367	0.003
637.2241	-0.006
637.4115	-0.0021
637.5989	0.022
637.7863	-0.0131
637.9737	0.0145
638.161	0.0022
638.3484	0.0064
638.5357	-0.0022
638.723	-0.0051
638.9103	0.0112
639.0975	0.0073
639.2848	0.0266
639.472	0.0006
639.6592	0.0168
639.8464	0.023
640.0336	0.0202
640.2208	-0.0058
640.4079	0.0167
640.595	0.0075
640.7821	-0.0075
640.9692	0.0065
641.1563	0.0249
641.3434	0.0141
641.5304	0.014
641.7174	0.0147
641.9044	0.0155
642.0914	-0.0054
642.2784	0.0174
642.4653	0.0158
642.6523	0.0132
642.8392	0.0214
643.0261	0.0143
643.213	-0.0033
643.3999	0.0042
643.5867	-0.0068
643.7735	-0.0224
643.9604	-0.0098
644.1472	-0.0007
644.3339	0.0027
644.5207	-0.0009
644.7075	-0.0177
644.8942	0.0208
645.0809	0.0057
645.2676	0.0033
645.4543	0.0025
645.6409	-0.0039
645.8276	0.0016
646.0142	0.0147
646.2008	-0.0014
646.3874	0.0135
646.574	-0.0012
646.7605	0.0074
646.9471	0.0129
647.1336	-0.0071
647.3201	0.0094
647.5066	0.0033
647.6931	0.0137
647.8795	0.0135
648.0659	-0.0151
648.2524	-0.0046
648.4388	-0.0075
648.6252	-0.0132
648.8115	0.0206
648.9979	0.0048
649.1842	-0.0104
649.3705	0.0017
649.5568	-0.011
649.7431	-0.003
649.9294	-0.0002
650.1156	-0.0086
650.3018	0.0242
650.488	0.006
650.6742	0.0136
650.8604	0.0057
651.0466	0.0087
651.2327	-0.0254
651.4188	-0.0061
651.6049	0.0018
651.791	0.0295
651.9771	-0.0106
652.1632	-0.003
652.3492	0.0022
652.5352	0.004
652.7212	0.0029
652.9072	0.0048
653.0932	0.0106
653.2791	-0.0078
653.465	-0.0104
653.651	0.0295
653.8369	0.0086
654.0227	-0.0154
654.2086	-0.0254
654.3944	-0.0056
654.5803	0.0061
654.7661	-0.0014
654.9519	-0.0032
655.1377	0.0002
655.3234	0.0002
655.5092	0.0002
655.6949	0.0002
655.8806	0.0002
656.0663	0.0002
656.2519	0.0002
656.4376	0.0002
656.6232	0.0002
656.8088	0.0002
656.9945	0.0002
657.18	0.0002
657.3656	0.0002
657.5511	0.0002
657.7367	0.0002
657.9222	0.0002
658.1077	0.0002
658.2932	0.0002
658.4786	0.0002
658.6641	0.0002
658.8495	0.0002
659.0349	0.0002
659.2203	0.0002
659.4057	0.0095
659.591	0.064
659.7764	0.0023
659.9617	-0.0013
660.147	-0.0045
660.3323	-0.0081
660.5176	0.0043
660.7028	-0.0049
660.888	-0.0032
661.0733	0.0111
661.2585	0.0234
661.4436	0.0013
661.6288	0.0048
661.8139	0.033
661.9991	0.0063
662.1842	0.0212
662.3693	-0.0022
662.5544	-0.0021
662.7394	0.0351
662.9245	0.0075
663.1095	0.0092
663.2945	-0.0033
663.4795	0.0006
663.6644	-0.0015
663.8494	0.0158
664.0343	-0.0103
664.2193	-0.0131
664.4042	-0.0159
664.589	-0.0176
664.7739	-0.0025
664.9587	0.0085
665.1436	0.0003
665.3284	0.0261
665.5132	0.024
665.698	-0.0143
665.8827	-0.0117
666.0675	-0.01
666.2522	0.0184
666.4369	-0.0106
666.6216	0.0269
666.8063	-0.0038
666.9909	0.0077
667.1756	0.0259
667.3602	-0.0079
667.5448	0.0065
667.7294	-0.0029
667.9139	0.0061
668.0985	-0.0111
668.283	0.0028
668.4675	0.0058
668.652	-0.0183
668.8365	-0.0175
669.0209	-0.0153
669.2054	0.0099
669.3898	-0.007
669.5742	0.0072
669.7586	0.0007
669.943	-0.0196
670.1273	0.0079
670.3117	0.0282
670.496	0.0236
670.6803	0.02
670.8646	0.0117
671.0488	0.0102
671.2331	0.0131
671.4173	0.006
671.6015	0.0113
671.7857	-0.0032
671.9699	0.0074
672.1541	0.0102
672.3382	0.0048
672.5223	0.003
672.7064	0.0025
672.8905	0.0051
673.0746	0.0067
673.2587	0.0055
673.4427	-0.0128
673.6267	-0.0046
673.8107	-0.0187
673.9947	0.0083
674.1787	0.034
674.3626	0.001
674.5465	0.0216
674.7304	-0.0294
674.9143	0.009
675.0982	0.0132
675.2821	0.0061
675.4659	0.0044
675.6497	0.0075
675.8335	-0.003
676.0173	0.0176
676.2011	-0.0134
676.3849	0.0004
676.5686	0.0152
676.7523	0.0139
676.936	-0.0164
677.1197	0.0251
677.3034	0.0281
677.487	-0.0004
677.6706	0.0116
677.8542	0.0147
678.0378	0.0124
678.2214	0.012
678.405	0.0173
678.5885	-0.0093
678.772	-0.0187
678.9555	0.017
679.139	-0.0174
679.3225	-0.0207
679.5059	0.0051
679.6894	-0.0198
679.8728	-0.0136
680.0562	-0.0103
680.2395	0.0068
680.4229	-0.0103
680.6062	0.0072
680.7896	0.0132
680.9729	0.0024
681.1562	-0.0118
681.3394	-0.0174
681.5227	-0.0283
681.7059	0.004
681.8891	0.0146
682.0723	-0.0027
682.2555	0.0034
682.4387	0.0185
682.6218	0.0034
682.805	-0.0052
682.9881	0.0219
683.1712	0.0179
683.3542	-0.0086
683.5373	0.03
683.7203	0.0086
683.9034	0.0143
684.0864	0.0089
684.2694	0.0065
684.4523	0.0103
684.6353	0.0072
684.8182	-0.0018
685.0011	-0.016
685.184	0.0034
685.3669	-0.0123
685.5498	0.0067
685.7326	-0.0021
685.9154	0.0154
686.0982	0.0138
686.281	-0.0138
686.4638	0.0005
686.6465	-0.0085
686.8293	0.0032
687.012	0.0011
687.1947	0.017
687.3774	0.0053
687.56	0.014
687.7427	0.003
687.9253	0.0164
688.1079	0.025
688.2905	0.009
688.4731	0.03
688.6556	-0.0225
688.8382	0.0185
689.0207	-0.0071
689.2032	0.0093
689.3857	0.0028
689.5681	-0.0051
689.7506	-0.0167
689.933	-0.0022
690.1154	-0.0115
690.2978	0.0062
690.4802	-0.0115
690.6626	-0.0002
690.8449	0.0035
691.0272	-0.0233
691.2095	-0.0015
691.3918	-0.0099
691.5741	0.0061
691.7563	0.0261
691.9386	-0.0052
692.1208	-0.0086
692.303	0.0072
692.4852	0.0104
692.6673	-0.0127
692.8495	0.0003
693.0316	-0.0012
693.2137	0.0421
693.3958	-0.0085
693.5778	-0.0218
693.7599	-0.0257
693.9419	0.0065
694.1239	-0.0039
694.3059	-0.0109
694.4879	-0.0201
694.6699	0.0274
694.8518	0.0078
695.0337	0.0012
695.2157	0.0001
695.3975	0.0115
695.5794	0.0089
695.7613	0.0285
695.9431	-0.0212
696.1249	0.0067
696.3067	0.0125
696.4885	0.0088
696.6703	0.0052
696.852	-0.0041
697.0337	0.0059
697.2154	0.0019
697.3971	0.0139
697.5788	0.0086
697.7605	0.0017
697.9421	0.0097
698.1237	0.0041
698.3053	0.0073
698.4869	-0.0035
698.6685	0.0165
698.85	0.0059
699.0315	0.0108
699.213	0.0256
699.3945	0.0085
699.576	0.0048
699.7575	-0.0023
699.9389	0.0005
700.1203	0.0156
700.3017	0.0048
700.4831	0.0127
700.6645	-0.0082
700.8458	0.0079
701.0271	0.0055
701.2084	-0.01
701.3897	-0.003
701.571	0.0106
701.7523	-0.0152
701.9335	0.0184
702.1147	0.0045
702.2959	0.0312
702.4771	-0.0103
702.6583	0.0024
702.8394	0.0131
703.0205	0.0032
703.2016	-0.0003
703.3827	0.0094
703.5638	0.0186
703.7449	-0.0015
703.9259	-0.0022
704.1069	0.0175
704.2879	0.038
704.4689	0.0107
704.6499	-0.015
704.8308	-0.0236
705.0117	-0.0386
705.1927	0.0037
705.3735	0.024
705.5544	0.0109
705.7353	0.016
705.9161	0.0269
706.0969	0.003
706.2777	0.0077
706.4585	-0.0067
706.6393	-0.0138
706.82	-0.0228
707.0007	0.0069
707.1815	0.0144
707.3621	-0.004
707.5428	-0.0018
707.7235	0.0091
707.9041	-0.0084
708.0847	-0.0109
708.2653	-0.0037
708.4459	0.0117
708.6265	0.0007
708.807	0.0178
708.9875	0.0258
709.168	0.0061
709.3485	-0.0087
709.529	0.0268
709.7095	0.0117
709.8899	0.0325
710.0703	0.005
710.2507	-0.0107
710.4311	0.027
710.6115	0.022
710.7918	0.0133
710.9721	-0.0145
711.1524	0.011
711.3327	-0.0043
711.513	-0.0028
711.6932	-0.0327
711.8735	0.0289
712.0537	0.0054
712.2339	-0.0041
712.4141	0.0304
712.5942	-0.0025
712.7744	-0.001
712.9545	0.0007
713.1346	-0.0092
713.3147	0.0096
713.4947	0.0037
713.6748	-0.0065
713.8548	-0.0087
714.0348	0.0298
714.2148	-0.0101
714.3948	-0.0046
714.5748	0.0013
714.7547	-0.0009
714.9346	0.0088
715.1145	0.0055
715.2944	0.0022
715.4743	0.005
715.6541	0.0164
715.834	0.0196
716.0138	0.0167
716.1936	-0.0302
716.3733	0.0145
716.5531	-0.0157
716.7328	-0.0207
716.9126	-0.0058
717.0923	-0.0009
717.2719	-0.0192
717.4516	-0.0235
717.6312	-0.0229
717.8109	0.0016
717.9905	0.0055
718.1701	-0.0152
718.3496	0.0198
718.5292	0.0071
718.7087	0.0244
718.8882	0.0229
719.0677	-0.0213
719.2472	-0.0067
719.4267	0.0057
719.6061	0.0001
719.7856	0.0176
719.965	-0.0041
720.1443	-0.0067
720.3237	0.0492
720.5031	0.0427
720.6824	0.0149
720.8617	-0.0085
721.041	-0.0072
721.2203	0.0092
721.3995	-0.0179
721.5788	0.0171
721.758	-0.014
721.9372	0.0431
722.1164	0.0172
722.2956	0.0165
722.4747	0.0103
722.6538	0.0058
722.8329	-0.0393
723.012	0.013
723.1911	0.0392
723.3702	-0.0172
723.5492	0.0036
723.7282	0.0225
723.9072	-0.0215
724.0862	-0.0004
724.2652	-0.0098
724.4441	-0.0104
724.623	0.0076
724.8019	-0.0075
724.9808	0.0029
725.1597	0.0183
725.3385	0.0025
725.5174	0.0264
725.6962	0.0359
725.875	0.0049
726.0538	0.0112
726.2325	0.0048
726.4112	0.0112
726.59	0.0198
726.7687	0.0253
726.9474	0.0195
727.126	-0.0057
727.3047	0.0087
727.4833	0.034
727.6619	0.0278
727.8405	0.0011
728.0191	-0.0304
728.1976	-0.039
728.3762	-0.0142
728.5547	0.0323
728.7332	0.0026
728.9116	-0.0444
729.0901	0.0178
729.2686	-0.0145
729.447	-0.0061
729.6254	0.0246
729.8038	0.0069
729.9821	0.0175
730.1605	-0.0126
730.3388	-0.0029
730.5171	0.007
730.6954	0.0243
730.8737	0.022
731.0519	0.0079
731.2302	-0.0057
731.4084	0.006
731.5866	-0.0054
731.7648	-0.012
731.9429	0.0154
732.1211	-0.0009
732.2992	0.0043
732.4773	-0.0079
732.6554	-0.0066
732.8335	0.0087
733.0115	-0.0082
733.1896	-0.0256
733.3676	-0.0095
733.5456	0.0218
733.7235	0.0156
733.9015	-0.006
734.0794	-0.0106
734.2574	0.0112
734.4353	0.0059
734.6131	-0.005
734.791	0.0189
734.9689	0.0136
735.1467	0.0157
735.3245	0.011
735.5023	0.016
735.68	0.0107
735.8578	0.0051
736.0355	0.0108
736.2132	0.0057
736.3909	0.0069
736.5686	0.0147
736.7463	-0.0069
736.9239	0.005
737.1015	-0.0148
737.2791	-0.0019
737.4567	0.0036
737.6343	0.0162
737.8118	0.0219
737.9894	-0.0049
738.1669	0.0004
738.3444	-0.0107
738.5218	0.0251
738.6993	0.023
738.8767	0.0071
739.0541	0.0225
739.2315	-0.0016
739.4089	0.0036
739.5863	0.0147
739.7636	0.0094
739.9409	0.0008
740.1182	-0.0112
740.2955	-0.0576
740.4728	0.0192
740.65	-0.0489
740.8272	0.0094
741.0044	0.0062
741.1816	0.0471
741.3588	0.0151
741.5359	0.0166
741.7131	0.0469
741.8902	-0.0102
742.0673	0.0219
742.2444	-0.0044
742.4214	0.009
742.5985	0.0221
742.7755	0.014
742.9525	0.0042
743.1295	-0.0103
743.3064	0.0451
743.4834	-0.014
743.6603	0.012
743.8372	-0.0028
744.0141	0.0076
744.191	-0.0062
744.3678	0.0092
744.5446	0.019
744.7215	0.0043
744.8982	0.0106
745.075	0.019
745.2518	-0.0122
745.4285	-0.0023
745.6052	0.005
745.7819	0.0334
745.9586	0.0194
746.1353	-0.0064
746.3119	0.0171
746.4885	-0.0049
746.6651	-0.0279
746.8417	-0.0196
747.0183	0.0339
747.1948	0.0087
747.3714	0.034
747.5479	0.0345
747.7244	-0.0305
747.9008	0.0543
748.0773	0.016
748.2537	0.0582
748.4301	0.0562
748.6065	-0.0057
748.7829	0.0041
748.9593	0.0165
749.1356	-0.0024
749.3119	-0.0083
749.4882	-0.0105
749.6645	0.0284
749.8408	-0.0148
750.017	0.0013
750.1933	0.0334
750.3695	0.0435
750.5457	-0.0267
750.7218	-0.0015
750.898	0.0063
751.0741	-0.005
751.2502	-0.0043
751.4263	-0.0124
751.6024	0.0263
751.7784	-0.0356
751.9545	-0.0103
752.1305	0.002
752.3065	0.0273
752.4825	0.019
752.6584	0.0133
752.8344	-0.0039
753.0103	0.0116
753.1862	0.0091
753.3621	-0.004
753.5379	0.0142
753.7138	-0.023
753.8896	0.0499
754.0654	0.0135
754.2412	0.0292
754.417	-0.0007
754.5927	-0.0014
754.7685	0.0108
754.9442	-0.0133
755.1199	-0.0057
755.2956	0.0337
755.4712	-0.0012
755.6469	-0.0008
755.8225	0.0129
755.9981	-0.0076
756.1736	0.0184
756.3492	-0.0115
756.5248	-0.0017
756.7003	0.0068
756.8758	0.0003
757.0513	-0.0141
757.2267	0.0031
757.4022	0.0043
757.5776	-0.0188
757.753	-0.0104
757.9284	-0.0019
758.1038	-0.0164
758.2791	-0.0057
758.4545	0.0036
758.6298	-0.0052
758.8051	0.0021
758.9803	-0.0086
759.1556	-0.0004
759.3308	0.0042
759.506	0.0116
759.6812	-0.0166
759.8564	-0.005
760.0316	-0.0107
760.2067	-0.0103
760.3819	0.0075
760.557	0.0026
760.732	0.015
760.9071	-0.0054
761.0821	0.0145
761.2572	0.0069
761.4322	-0.0125
761.6072	-0.0066
761.7821	0.0148
761.9571	-0.007
762.132	0.0187
762.3069	0.0062
762.4818	0.0247
762.6567	-0.0086
762.8316	0.0137
763.0064	-0.0203
763.1812	-0.0096
763.356	0.0004
763.5308	0.002
763.7055	0.0124
763.8803	-0.025
764.055	0.0189
764.2297	-0.0097
764.4044	-0.0033
764.579	-0.0037
764.7537	0.0074
764.9283	-0.0258
765.1029	0.006
765.2775	-0.0236
765.4521	-0.0011
765.6266	-0.0042
765.8011	-0.0146
765.9756	0.0238
766.1501	0.0597
766.3246	0.002
766.4991	-0.0212
766.6735	0.0017
766.8479	0.0023
767.0223	0.0123
767.1967	0.0025
767.371	0.0343
767.5454	-0.0202
767.7197	-0.013
767.894	-0.0194
768.0683	-0.0022
768.2425	0.0117
768.4168	0.0225
768.591	0.0011
768.7652	-0.0156
768.9394	0.0257
769.1135	0.0054
769.2877	0.0188
769.4618	0.0027
769.6359	-0.0037
769.81	0.0005
769.984	-0.0014
770.1581	0.0088
770.3321	-0.0101
770.5061	0.0166
770.6801	0.0349
770.8541	0.0061
771.028	0.004
771.202	-0.035
771.3759	-0.0051
771.5498	0.0117
771.7236	0.0019
771.8975	-0.0196
772.0713	-0.0066
772.2451	0.0193
772.4189	-0.0162
772.5927	-0.0207
772.7665	0.0331
772.9402	0.0328
773.1139	0.0108
773.2876	0.0107
773.4613	0.0066
773.635	0.0296
773.8086	-0.0012
773.9822	0.0014
774.1558	0.017
774.3294	0.0107
774.503	0.0236
774.6765	0.0091
774.8501	0.0368
775.0236	0.0311
775.1971	0.0286
775.3705	-0.0086
775.544	-0.0007
775.7174	0.0111
775.8908	0.045
776.0642	0.0157
776.2376	-0.0426
776.4109	0.0478
776.5843	-0.0226
776.7576	0.0453
776.9309	0.0282
777.1041	0.0101
777.2774	0.0137
777.4506	0.0229
777.6238	0.044
777.797	-0.0353
777.9702	0.0157
778.1434	0.0289
778.3165	0.0259
778.4896	-0.0087
778.6627	0.0443
778.8358	-0.0035
779.0089	0.006
779.1819	0.0118
779.3549	0.0556
779.5279	-0.0044
779.7009	0.0023
779.8739	-0.0022
780.0468	0.1012
780.2197	0.003
780.3926	-0.0129
780.5655	-0.0169
780.7384	0.0318
780.9112	0.0085
781.0841	-0.0221
781.2569	-0.0276
781.4297	0.01
781.6024	0.0134
781.7752	-0.0026
781.9479	-0.0049
782.1206	-0.0156
782.2933	-0.0096
782.466	0.0257
782.6386	0.0387
782.8113	-0.0005
782.9839	0.0415
783.1565	0.0285
783.329	0.0134
783.5016	0.0068
783.6741	-0.0104
783.8466	-0.0685
784.0191	0.0052
784.1916	0.0072
784.3641	-0.0018
784.5365	0.0267
784.7089	0.0009
784.8813	0.0517
785.0537	0.0023
785.2261	-0.0218
785.3984	-0.0093
785.5707	0.0389
785.743	-0.0386
785.9153	0.0383
786.0876	-0.0496
786.2598	0.024
786.432	0.0183
786.6042	0.0236
786.7764	0.0294
786.9486	-0.0006
787.1207	0.0574
787.2928	-0.0414
787.4649	0.0137
787.637	0.0309
787.8091	0.0103
787.9811	0.0142
788.1532	0.0313
788.3252	-0.0227
788.4972	-0.0092
788.6691	0.0232
788.8411	0.035
789.013	-0.0064
789.1849	-0.024
789.3568	0.0713
789.5287	-0.0034
789.7005	0.0884
789.8723	0.015
790.0442	-0.0806
790.2159	0.0534
790.3877	0.0555
790.5595	0.0173
790.7312	-0.0082
790.9029	0.0231
791.0746	0.021
791.2463	0.0321
791.4179	-0.0533
791.5896	-0.0064
791.7612	-0.0193
791.9328	-0.0472
792.1044	0.0444
792.2759	-0.013
792.4474	-0.0213
792.619	0.0281
792.7905	0.0433
792.9619	0.0751
793.1334	0.0459
793.3048	0.0312
793.4762	-0.0233
793.6476	0.0211
793.819	-0.0433
793.9904	0.0315
794.1617	-0.0101
794.333	-0.0177
794.5043	-0.0048
794.6756	0.0312
794.8469	0.0195
795.0181	-0.0025
795.1893	0.0157
795.3605	-0.0241
795.5317	0.0601
795.7029	0.0259
795.874	-0.0221
796.0452	0.0194
796.2163	0.0544
796.3873	0.0947
796.5584	0.0165
796.7294	-0.0316
796.9005	0.0331
797.0715	-0.0281
797.2425	0.0116
797.4134	0.057
797.5844	0.0977
797.7553	-0.0144
797.9262	0.0136
798.0971	-0.0047
798.2679	0.0566
798.4388	-0.0648
798.6096	0.039
798.7804	0.0213
798.9512	0.0298
799.122	0.051
799.2927	-0.0721
799.4635	0.1115
799.6342	0.0302
799.8049	0.0265
799.9755	-0.0471
800.1462	0.0111
800.3168	-0.0214
800.4874	0.0031
800.658	0.1493
800.8286	0.0178
800.9991	0.1027
801.1696	-0.0072
801.3402	0.0308
801.5106	-0.0579
801.6811	-0.0087
801.8516	0.0906
802.022	-0.0058
802.1924	-0.0635
802.3628	0.0027
802.5332	-0.0471
802.7035	0.0023
802.8739	0.0487
803.0442	0.0127
803.2145	0.0868
803.3847	0.0039
803.555	0.0416
803.7252	0.0458
803.8954	0.0309
804.0656	-0.0042
804.2358	0.0268
804.4059	0.1055
804.5761	0.137
804.7462	0.0477
804.9163	-0.0788
805.0864	0.098
805.2564	0.0022
805.4264	-0.0502
805.5965	0.0309
805.7665	0.0571
805.9364	-0.0607
806.1064	-0.0049
806.2763	0.0031
806.4462	0.0161
806.6161	-0.0055
806.786	0.0094
806.9559	0.0477
807.1257	0.0232
807.2955	0.0491
807.4653	-0.0423
807.6351	-0.0081
807.8048	-0.0147
807.9746	0.0016
808.1443	0.0549
808.314	0.0467
808.4837	-0.0614
808.6533	-0.0213
808.8229	-0.0195
808.9926	-0.0385
809.1622	-0.0061
809.3317	-0.0379
809.5013	0.0611
809.6708	0.0516
809.8403	0.0617
810.0098	0.1704
810.1793	0.1165
810.3488	0.0241
810.5182	0.0589
810.6876	0.1055
810.857	-0.1285
811.0264	-0.0739
811.1958	-0.0985
811.3651	0.041
811.5344	0.0156
811.7037	0.0233
811.873	0.1094
812.0422	0.1183
812.2115	0.1354
812.3807	0.1635
812.5499	-0.0135
812.7191	0.0231
812.8882	-0.0461
813.0574	-0.1715
813.2265	0.0246
813.3956	-0.011
813.5646	0.0442
813.7337	-0.1726
813.9027	0.0202
814.0718	-0.009
814.2407	-0.1268
814.4097	0.0035
814.5787	-0.0071
814.7476	0.0594
814.9165	0.0282
815.0854	0.0525
815.2543	0.0494
815.4232	-0.0869
815.592	0.0757
815.7608	0.0533
815.9296	0.078
816.0984	0.0782
816.2671	-0.0431
816.4359	0.0934
816.6046	0.0959
816.7733	0.0114
816.942	0.0438
817.1106	-0.0721
817.2793	-0.0109
817.4479	0.0061
817.6165	-0.0756
817.785	0.1802
817.9536	0.1283
818.1221	0.0679
818.2906	0.1949
818.4591	-0.0504
818.6276	0.05
818.7961	0.0924
818.9645	0.0682
819.1329	0.1478
819.3013	0.0094
819.4697	0.367
819.638	0.1719
819.8064	-0.164
819.9747	-0.0155
820.143	-0.113
820.3113	0.0936
820.4795	0.0473
820.6477	-0.0301
820.816	0.0853
820.9842	-0.0026
821.1523	0.2233
821.3205	0.0628
821.4886	0.0478
821.6567	0.0468
821.8248	0.0684
821.9929	0.0758
822.1609	-0.0332
822.329	0.1141
822.497	0.056
822.665	0.1779
822.833	0.1301
823.0009	0.1929
823.1688	0.0693
823.3367	-0.1283
823.5046	0.1604
823.6725	0.0624
823.8404	0.3015
824.0082	0.116
824.176	0.2054
824.3438	0.2223
824.5116	0.1269
824.6793	-0.0466
824.847	0.2115
825.0147	0.4151
825.1824	0.0707
825.3501	0.358
825.5177	0.1067
825.6854	0.1253
825.853	0.0152
826.0206	0.1231
826.1881	0.0702
826.3557	0.3097
826.5232	0.2281
826.6907	0.0095
826.8582	-0.0389
827.0257	0.0724
827.1931	0.098
827.3605	0.1133
827.528	0.1904
827.6953	0.1158
827.8627	0.0138
828.03	-0.0295
828.1974	-0.0234
828.3647	0.1709
828.532	0.1516
828.6992	0.1813
828.8665	0.0707
829.0337	0.0235
829.2009	0.261
829.3681	0.0416
829.5352	-0.0035
829.7024	0.3119
829.8695	-0.2306
830.0366	0.0879
830.2037	0.1689
830.3707	-0.0432
830.5378	0.0331
830.7048	-0.2106
830.8718	-0.1847
831.0388	0.2582
831.2057	-0.0743
831.3727	0.0833
831.5396	-0.1273
831.7065	0.6803
831.8734	2.3636
832.0402	0.1668
832.2071	0.3021
832.3739	0.0258
832.5407	-0
832.7075	0.0758
832.8742	-0
833.041	-0.006
833.2077	0.6109
833.3744	0.0469
833.541	-0.1238
833.7077	0.1179
833.8743	-0.0215
834.0409	-0.1795
834.2075	0.17
834.3741	0.1666
834.5407	-0.0295
834.7072	0.0656
834.8737	0.1593
835.0402	-0.3791
835.2067	0.27
835.3731	-0.0656
835.5395	0.0561
835.706	0.2086
835.8723	0.1259
836.0387	-0.031
836.2051	0.1142
836.3714	-0.1529
836.5377	-0.0094
836.704	0.0115
836.8703	-0.0551
837.0365	0.8021
837.2027	-0.3079
837.3689	0.1357
837.5351	0.1846
837.7013	0.0068
837.8674	-0.6956
838.0335	0.3765
838.1997	-0.0667
838.3657	0.2059
838.5318	-0.8623
838.6978	-0
838.8639	0.9225
839.0299	0.7374
839.1958	0.0009
839.3618	0.9863
839.5277	-0.0843
839.6937	-0.4266
839.8596	0.2515
840.0254	0.4132
840.1913	0.5973
840.3571	-0.0488
840.523	-0
840.6888	0.2695
840.8545	-0.1286
841.0203	-0.1871
841.186	0.4283
841.3517	0.1613
841.5174	0.6684
841.6831	0.6302
841.8488	0.1869
842.0144	0.1284
842.18	0.6177
842.3456	0.5736
842.5112	-0
842.6767	-0.3849
842.8422	0.2521
843.0077	0.2768
843.1732	-0.0209
843.3387	1.066
843.5042	-0
843.6696	-0.3439
843.835	0.2142
844.0004	0.247
844.1657	-0.3635
844.3311	-0
844.4964	0.2121
844.6617	-0.4515
844.827	0.6359
844.9923	0.6897
845.1575	-0
845.3227	0.1302
845.4879	0.2393
845.6531	0.9463
845.8183	-0
845.9834	-0
846.1485	-0.1219
846.3136	0.5258
846.4787	0.0467
846.6438	0.5439
846.8088	-0.9853
846.9738	-0
847.1388	0.7894
847.3038	-0.079
847.4687	-0.6718
847.6337	0.4575
847.7986	0.6016
847.9635	0.1717
848.1284	-0
848.2932	-0.155
848.458	0.5164
848.6228	0.0312
848.7876	-0
848.9524	0.6159
849.1172	0.2876
849.2819	0.1323
849.4466	0.2177
849.6113	-0
849.7759	-0
849.9406	-0
850.1052	-0
850.2698	-1.1604
850.4344	0.3581
850.599	-0.1662
850.7635	-0
850.928	-0
851.0925	-0.0214
851.257	0.2146
851.4215	0.4274
851.5859	0.3404
851.7503	-0
851.9147	-0
852.0791	-0.1923
852.2434	-0
852.4078	-0
852.5721	-0
852.7364	0.7257
852.9007	-0.4745
853.0649	0.4167
853.2291	0.7759
853.3934	-0
853.5575	0.1145
853.7217	0.0828
853.8859	0.2336
854.05	-1.0048
854.2141	-0
854.3782	-0
854.5423	-0.877
854.7063	-0.1232
854.8703	-0.0999
855.0343	0.0072
855.1983	0.3984
855.3623	0.0615
855.5262	-0.6792
855.6901	-0
855.854	0.0722
856.0179	-0
856.1818	-0
856.3456	0.8054
856.5094	-0
856.6732	-0
856.837	0.1376
857.0008	-0
857.1645	-0
857.3282	0.1266
857.4919	0.01
857.6556	0.1018
857.8192	0.0721
857.9828	-0.4456
858.1465	-0
858.31	-1.5708
858.4736	-0.3302
858.6372	-0
858.8007	-0.6514
858.9642	0.28
859.1277	0.1976
859.2911	0.5098
859.4546	-0
859.618	0.3688
859.7814	-0
859.9448	-0.1914
860.1081	0.2948
860.2715	-0
860.4348	0.0275
860.5981	-0
860.7614	-0
860.9246	0.3343
861.0879	-0.149
861.2511	-0
861.4143	-0
861.5774	-0
861.7406	-0
861.9037	-0
862.0668	-0
862.2299	-0
862.393	0.7641
862.556	0.267
862.7191	0.9083
862.8821	-0
863.0451	0.5793
863.208	0.1091
863.371	1.1234
863.5339	-0.0896
863.6968	-0.1444
863.8597	-1.0775
864.0225	0.7875
864.1854	-0.2639
864.3482	0.145
864.511	0.1054
864.6737	-0
864.8365	-0
864.9992	-0.6755
865.1619	0.5117
865.3246	-0.2833
865.4873	-0
865.65	-0
865.8126	-0
865.9752	-0
866.1378	-0.0473
866.3004	0.309
866.4629	-0.1194
866.6254	-0
866.7879	0.8877
866.9504	-0
867.1129	-0.0327
867.2753	0.1429
867.4377	0.1129
867.6001	0.0072
867.7625	-0.0203
867.9249	0.5889
868.0872	-0.1687
868.2495	-0
868.4118	-0
868.5741	-0
868.7363	-0
868.8986	-0.3094
869.0608	-0
869.223	0.6014
869.3851	-0
869.5473	-1.4119
869.7094	-0
869.8715	-0
870.0336	0.1931
870.1957	-0.789
870.3577	-0.2973
870.5197	0.1961
870.6817	-0
870.8437	-0
871.0057	-0
871.1676	0.1907
871.3295	-0.1796
871.4914	-0
871.6533	-0.2885
871.8151	-0.106
871.977	1.7379
872.1388	-0
872.3006	1.0202
872.4623	-0.5664
872.6241	-0
872.7858	-0.4792
872.9475	-0
873.1092	0.1412
873.2709	1.3824
873.4325	-0
873.5941	-0
873.7557	-0.7608
873.9173	-0.578
874.0789	-0
874.2404	-0.0049
874.4019	0.277
874.5634	0.5731
874.7249	-0.4125
874.8863	-0.6699
875.0478	0.2753
875.2092	-0
875.3706	-0.2475
875.5319	0.017
875.6933	1.3675
875.8546	-0
876.0159	-0.1316
876.1772	-0
876.3385	-0.3875
876.4997	-0
876.6609	0.1394
876.8221	0.192
876.9833	-0.1589
877.1445	-0.0851
877.3056	-0
877.4667	-0.6092
877.6278	-0
877.7889	-0.0028
877.9499	0.4161
878.111	-0
878.272	-0
878.433	0.3697
878.5939	0.2057
878.7549	-0
878.9158	-0.0692
879.0767	-0
879.2376	-1.0484
879.3984	-0.3769
879.5593	0.1
879.7201	-0
879.8809	-0.2269
880.0417	0.2761
880.2024	-0
880.3632	0.0029
880.5239	-0
880.6846	0.9314
880.8452	0.3656
881.0059	-0
881.1665	0.556
881.3271	0.3142
881.4877	0.0501
881.6483	-1.1213
881.8088	0.0445
881.9693	0.1571
882.1298	0.1571
882.2903	0.1571
