Data from D4ACN5uM480nmA_Absorbance_12-08-00-341.txt Node
Date: Fri Feb 21 12:08:00 GMT 2025
User: LASERRRRR
Spectrometer: FLMT03099
Trigger mode: 0
Integration Time (sec): 1.500000E-2
Scans to average: 1
Electric dark correction enabled: true
Nonlinearity correction enabled: false
Boxcar width: 0
XAxis mode: Wavelengths
Number of Pixels in Spectrum: 3648
>>>>>Begin Spectral Data<<<<<
179.3399	0.0606
179.5586	0.0606
179.7771	0.0606
179.9957	0.1584
180.2143	-0.4762
180.4329	0.0241
180.6514	-0
180.8699	-0
181.0885	-0
181.307	-0.057
181.5255	0.2097
181.744	-0
181.9625	0.0406
182.181	-0
182.3994	-0
182.6179	-0
182.8363	0.1078
183.0547	-0
183.2732	0.4632
183.4916	0.9244
183.71	0.0505
183.9284	0.1496
184.1467	0.4604
184.3651	0.1788
184.5835	0.1843
184.8018	0.1483
185.0201	0.5854
185.2385	0.1296
185.4568	0.1222
185.6751	0.1567
185.8934	0.1794
186.1117	0.0779
186.3299	0.1935
186.5482	-0.0439
186.7664	0.4422
186.9847	0.172
187.2029	0.5971
187.4211	0.1857
187.6393	0.2841
187.8575	0.4567
188.0757	0.395
188.2939	0.6993
188.512	0.1941
188.7302	0.3442
188.9483	0.1884
189.1665	0.3462
189.3846	-0.0171
189.6027	0.0124
189.8208	0.3568
190.0389	0.3679
190.257	0.2586
190.475	0.1471
190.6931	0.164
190.9111	0.2149
191.1292	0.1503
191.3472	0.1749
191.5652	0.2132
191.7832	0.4147
192.0012	0.3768
192.2192	0.3435
192.4371	0.1929
192.6551	0.2667
192.873	0.2909
193.091	0.5002
193.3089	0.2511
193.5268	0.2019
193.7447	0.373
193.9626	0.4451
194.1805	0.4071
194.3984	0.2823
194.6162	0.4683
194.8341	0.4732
195.0519	0.5493
195.2697	0.4756
195.4875	0.8325
195.7054	0.509
195.9231	0.4072
196.1409	0.5495
196.3587	0.6029
196.5765	0.4393
196.7942	0.5647
197.012	0.4274
197.2297	0.4653
197.4474	0.6068
197.6651	0.5388
197.8828	0.602
198.1005	0.6252
198.3182	0.5239
198.5358	0.4783
198.7535	0.5533
198.9711	0.6311
199.1888	0.7024
199.4064	0.5412
199.624	0.5733
199.8416	0.5275
200.0592	0.5292
200.2767	0.6087
200.4943	0.6242
200.7119	0.6007
200.9294	0.5269
201.1469	0.7837
201.3645	0.6226
201.582	0.5221
201.7995	0.5519
202.017	0.5106
202.2344	0.5568
202.4519	0.5717
202.6694	0.5601
202.8868	0.4892
203.1042	0.5165
203.3217	0.5797
203.5391	0.5281
203.7565	0.4921
203.9739	0.4823
204.1913	0.5221
204.4086	0.5635
204.626	0.4782
204.8433	0.4813
205.0607	0.4983
205.278	0.5026
205.4953	0.4678
205.7126	0.4612
205.9299	0.4776
206.1472	0.5086
206.3644	0.5327
206.5817	0.4479
206.7989	0.4878
207.0162	0.4439
207.2334	0.4506
207.4506	0.4365
207.6678	0.4509
207.885	0.4592
208.1022	0.4224
208.3194	0.3887
208.5365	0.4501
208.7537	0.4284
208.9708	0.4686
209.1879	0.3965
209.405	0.4235
209.6222	0.4196
209.8392	0.4549
210.0563	0.4137
210.2734	0.4104
210.4905	0.3847
210.7075	0.4306
210.9245	0.417
211.1416	0.3844
211.3586	0.4181
211.5756	0.4088
211.7926	0.4088
212.0096	0.3786
212.2265	0.4039
212.4435	0.4006
212.6604	0.3968
212.8774	0.407
213.0943	0.4218
213.3112	0.4059
213.5281	0.4144
213.745	0.3834
213.9619	0.3989
214.1788	0.4093
214.3956	0.4321
214.6125	0.4011
214.8293	0.4295
215.0461	0.3948
215.2629	0.4012
215.4798	0.376
215.6965	0.3637
215.9133	0.4022
216.1301	0.4091
216.3469	0.386
216.5636	0.3974
216.7803	0.4131
216.9971	0.4072
217.2138	0.4017
217.4305	0.4417
217.6472	0.4067
217.8639	0.4147
218.0805	0.4264
218.2972	0.3941
218.5138	0.4278
218.7305	0.417
218.9471	0.4184
219.1637	0.4263
219.3803	0.4096
219.5969	0.4403
219.8135	0.4198
220.0301	0.4082
220.2466	0.4224
220.4632	0.41
220.6797	0.4437
220.8962	0.4396
221.1127	0.4261
221.3292	0.4292
221.5457	0.4175
221.7622	0.4425
221.9787	0.447
222.1951	0.4241
222.4116	0.4484
222.628	0.4465
222.8444	0.4351
223.0608	0.454
223.2772	0.4457
223.4936	0.4183
223.71	0.4349
223.9264	0.4524
224.1427	0.4474
224.3591	0.4448
224.5754	0.4718
224.7917	0.469
225.008	0.4472
225.2243	0.4644
225.4406	0.4662
225.6569	0.4552
225.8732	0.4641
226.0894	0.4801
226.3057	0.4683
226.5219	0.454
226.7381	0.467
226.9543	0.4578
227.1705	0.4609
227.3867	0.4833
227.6029	0.4702
227.8191	0.4698
228.0352	0.4956
228.2513	0.4689
228.4675	0.4974
228.6836	0.5041
228.8997	0.5102
229.1158	0.4889
229.3319	0.4943
229.548	0.4915
229.764	0.4941
229.9801	0.509
230.1961	0.512
230.4121	0.499
230.6282	0.5019
230.8442	0.5214
231.0602	0.5103
231.2761	0.5235
231.4921	0.5229
231.7081	0.5245
231.924	0.4984
232.14	0.5309
232.3559	0.5381
232.5718	0.525
232.7877	0.5329
233.0036	0.513
233.2195	0.5397
233.4353	0.5363
233.6512	0.5294
233.867	0.5274
234.0829	0.5316
234.2987	0.5214
234.5145	0.5377
234.7303	0.534
234.9461	0.5316
235.1619	0.5316
235.3776	0.5314
235.5934	0.5391
235.8091	0.5199
236.0249	0.5386
236.2406	0.5556
236.4563	0.5488
236.672	0.5261
236.8877	0.5397
237.1034	0.5248
237.319	0.5339
237.5347	0.5234
237.7503	0.5375
237.966	0.5321
238.1816	0.5249
238.3972	0.5316
238.6128	0.5514
238.8284	0.5407
239.0439	0.5397
239.2595	0.5333
239.475	0.5212
239.6906	0.5327
239.9061	0.5317
240.1216	0.5313
240.3371	0.5185
240.5526	0.5067
240.7681	0.5223
240.9836	0.5139
241.199	0.5232
241.4145	0.507
241.6299	0.4907
241.8453	0.4881
242.0607	0.4887
242.2761	0.4788
242.4915	0.4681
242.7069	0.4586
242.9223	0.4644
243.1376	0.4423
243.353	0.4335
243.5683	0.4458
243.7836	0.4294
243.9989	0.4144
244.2142	0.4059
244.4295	0.408
244.6448	0.4059
244.86	0.389
245.0753	0.3801
245.2905	0.3799
245.5057	0.3746
245.721	0.3552
245.9362	0.3564
246.1514	0.335
246.3665	0.3383
246.5817	0.3333
246.7969	0.3241
247.012	0.3264
247.2271	0.314
247.4423	0.3051
247.6574	0.3061
247.8725	0.2996
248.0876	0.2885
248.3026	0.2838
248.5177	0.2776
248.7328	0.2854
248.9478	0.2695
249.1628	0.2676
249.3779	0.2654
249.5929	0.2624
249.8079	0.2528
250.0228	0.2526
250.2378	0.2554
250.4528	0.2517
250.6677	0.2473
250.8827	0.2377
251.0976	0.238
251.3125	0.2347
251.5274	0.2362
251.7423	0.2276
251.9572	0.2174
252.172	0.2167
252.3869	0.2187
252.6017	0.2135
252.8166	0.2195
253.0314	0.2158
253.2462	0.2129
253.461	0.219
253.6758	0.21
253.8906	0.2117
254.1053	0.2059
254.3201	0.2036
254.5348	0.2031
254.7496	0.2009
254.9643	0.2053
255.179	0.2023
255.3937	0.1943
255.6083	0.2064
255.823	0.1975
256.0377	0.1994
256.2523	0.2
256.467	0.196
256.6816	0.2016
256.8962	0.1962
257.1108	0.1964
257.3254	0.1897
257.54	0.1964
257.7545	0.1951
257.9691	0.1959
258.1836	0.1918
258.3981	0.187
258.6127	0.1823
258.8272	0.1872
259.0417	0.1841
259.2561	0.1881
259.4706	0.1905
259.6851	0.1852
259.8995	0.184
260.114	0.1818
260.3284	0.1817
260.5428	0.1815
260.7572	0.1888
260.9716	0.1869
261.186	0.1729
261.4003	0.1909
261.6147	0.1776
261.829	0.1843
262.0433	0.1819
262.2577	0.1833
262.472	0.185
262.6863	0.1844
262.9005	0.1886
263.1148	0.1827
263.3291	0.1873
263.5433	0.1836
263.7576	0.1785
263.9718	0.1861
264.186	0.185
264.4002	0.1913
264.6144	0.189
264.8286	0.1883
265.0427	0.193
265.2569	0.1823
265.471	0.1776
265.6851	0.1763
265.8993	0.1882
266.1134	0.1905
266.3275	0.1857
266.5415	0.1805
266.7556	0.1765
266.9697	0.1777
267.1837	0.1824
267.3978	0.1938
267.6118	0.1765
267.8258	0.1858
268.0398	0.1855
268.2538	0.1872
268.4677	0.1796
268.6817	0.1729
268.8957	0.1852
269.1096	0.1718
269.3235	0.1853
269.5374	0.1796
269.7514	0.177
269.9652	0.1828
270.1791	0.1818
270.393	0.1769
270.6068	0.1768
270.8207	0.1737
271.0345	0.1743
271.2483	0.1733
271.4622	0.1736
271.676	0.1706
271.8897	0.1736
272.1035	0.176
272.3173	0.1741
272.531	0.1765
272.7448	0.172
272.9585	0.1738
273.1722	0.1736
273.3859	0.1709
273.5996	0.1717
273.8133	0.1678
274.0269	0.1765
274.2406	0.1765
274.4542	0.1676
274.6679	0.1677
274.8815	0.1718
275.0951	0.1774
275.3087	0.1779
275.5223	0.1752
275.7358	0.1827
275.9494	0.1718
276.1629	0.1748
276.3765	0.1693
276.59	0.1762
276.8035	0.1829
277.017	0.1786
277.2305	0.1784
277.444	0.1805
277.6574	0.1756
277.8709	0.1763
278.0843	0.1728
278.2978	0.1809
278.5112	0.1846
278.7246	0.1779
278.938	0.1784
279.1513	0.1808
279.3647	0.177
279.5781	0.1804
279.7914	0.1772
280.0047	0.1772
280.2181	0.1821
280.4314	0.1834
280.6447	0.1907
280.8579	0.1843
281.0712	0.1795
281.2845	0.178
281.4977	0.1881
281.711	0.1784
281.9242	0.1811
282.1374	0.1838
282.3506	0.1863
282.5638	0.1826
282.7769	0.1862
282.9901	0.1873
283.2033	0.1884
283.4164	0.1787
283.6295	0.184
283.8426	0.1897
284.0557	0.1856
284.2688	0.192
284.4819	0.1923
284.695	0.1907
284.908	0.1899
285.1211	0.1948
285.3341	0.1957
285.5471	0.1983
285.7601	0.1918
285.9731	0.1899
286.1861	0.1883
286.3991	0.1887
286.612	0.198
286.825	0.1939
287.0379	0.1952
287.2508	0.1995
287.4637	0.1931
287.6766	0.1917
287.8895	0.1953
288.1024	0.1948
288.3152	0.1969
288.5281	0.1972
288.7409	0.1993
288.9538	0.1939
289.1666	0.1947
289.3794	0.2004
289.5922	0.1991
289.8049	0.2049
290.0177	0.1977
290.2304	0.1974
290.4432	0.2033
290.6559	0.1964
290.8686	0.204
291.0813	0.2025
291.294	0.2005
291.5067	0.1982
291.7194	0.1995
291.932	0.2039
292.1447	0.2007
292.3573	0.1951
292.5699	0.2075
292.7825	0.2018
292.9951	0.1975
293.2077	0.1988
293.4203	0.1991
293.6328	0.1936
293.8454	0.2008
294.0579	0.2012
294.2704	0.2018
294.4829	0.199
294.6954	0.1985
294.9079	0.2013
295.1204	0.2012
295.3328	0.2005
295.5453	0.2003
295.7577	0.1897
295.9701	0.2046
296.1825	0.1992
296.3949	0.2057
296.6073	0.2003
296.8197	0.2024
297.0321	0.2
297.2444	0.2005
297.4567	0.2005
297.6691	0.1953
297.8814	0.2002
298.0937	0.1967
298.306	0.2021
298.5182	0.2064
298.7305	0.1974
298.9428	0.1954
299.155	0.1985
299.3672	0.2016
299.5794	0.1993
299.7916	0.1972
300.0038	0.1909
300.216	0.1989
300.4282	0.196
300.6403	0.1973
300.8525	0.1983
301.0646	0.1966
301.2767	0.1996
301.4888	0.2001
301.7009	0.1964
301.913	0.201
302.125	0.2013
302.3371	0.1942
302.5491	0.1967
302.7612	0.1944
302.9732	0.193
303.1852	0.199
303.3972	0.1951
303.6092	0.1914
303.8211	0.1888
304.0331	0.1923
304.245	0.1916
304.457	0.1963
304.6689	0.1948
304.8808	0.1898
305.0927	0.19
305.3046	0.1908
305.5164	0.1877
305.7283	0.1887
305.9401	0.1816
306.152	0.1758
306.3638	0.1797
306.5756	0.1784
306.7874	0.1778
306.9992	0.1772
307.2109	0.1724
307.4227	0.1786
307.6344	0.1781
307.8462	0.1739
308.0579	0.1674
308.2696	0.1662
308.4813	0.1617
308.693	0.154
308.9046	0.1658
309.1163	0.1643
309.328	0.1551
309.5396	0.1558
309.7512	0.1575
309.9628	0.1525
310.1744	0.1558
310.386	0.1473
310.5976	0.1443
310.8091	0.1463
311.0207	0.154
311.2322	0.1498
311.4437	0.1427
311.6552	0.1454
311.8667	0.1347
312.0782	0.1421
312.2897	0.1432
312.5012	0.1374
312.7126	0.1303
312.924	0.1375
313.1355	0.1317
313.3469	0.1279
313.5583	0.1251
313.7696	0.1309
313.981	0.1271
314.1924	0.1294
314.4037	0.1299
314.6151	0.1266
314.8264	0.1248
315.0377	0.1296
315.249	0.1247
315.4603	0.1216
315.6716	0.1238
315.8828	0.1232
316.0941	0.1233
316.3053	0.1211
316.5165	0.1205
316.7277	0.1238
316.9389	0.1256
317.1501	0.1281
317.3613	0.1175
317.5724	0.1163
317.7836	0.117
317.9947	0.1114
318.2058	0.1183
318.417	0.1187
318.6281	0.1142
318.8391	0.1179
319.0502	0.1189
319.2613	0.1158
319.4723	0.1196
319.6834	0.1202
319.8944	0.1165
320.1054	0.119
320.3164	0.1139
320.5274	0.1146
320.7383	0.1135
320.9493	0.1155
321.1602	0.1134
321.3712	0.1224
321.5821	0.1221
321.793	0.1171
322.0039	0.1212
322.2148	0.1204
322.4257	0.1202
322.6365	0.1159
322.8474	0.1134
323.0582	0.1193
323.269	0.1113
323.4798	0.1156
323.6906	0.1205
323.9014	0.114
324.1122	0.1182
324.3229	0.1166
324.5337	0.1234
324.7444	0.1167
324.9551	0.1186
325.1658	0.1186
325.3765	0.1174
325.5872	0.1167
325.7979	0.1182
326.0085	0.1178
326.2192	0.118
326.4298	0.1217
326.6404	0.1173
326.851	0.118
327.0616	0.1203
327.2722	0.1257
327.4828	0.1253
327.6933	0.1187
327.9039	0.1233
328.1144	0.1192
328.3249	0.1287
328.5354	0.1166
328.7459	0.1268
328.9564	0.1221
329.1669	0.1219
329.3773	0.1234
329.5878	0.1253
329.7982	0.1244
330.0086	0.1253
330.219	0.1212
330.4294	0.1327
330.6398	0.1239
330.8502	0.1227
331.0605	0.1158
331.2708	0.1238
331.4812	0.1252
331.6915	0.121
331.9018	0.1193
332.1121	0.1251
332.3224	0.1288
332.5326	0.1271
332.7429	0.1236
332.9531	0.1311
333.1633	0.1253
333.3735	0.1234
333.5837	0.1286
333.7939	0.1236
334.0041	0.1262
334.2143	0.1278
334.4244	0.1251
334.6346	0.1173
334.8447	0.1287
335.0548	0.1239
335.2649	0.1339
335.475	0.1266
335.685	0.1259
335.8951	0.1317
336.1051	0.1297
336.3152	0.1321
336.5252	0.131
336.7352	0.121
336.9452	0.1287
337.1552	0.1337
337.3652	0.1278
337.5751	0.1267
337.7851	0.1251
337.995	0.1312
338.2049	0.138
338.4148	0.1236
338.6247	0.1346
338.8346	0.1303
339.0445	0.1347
339.2543	0.1356
339.4642	0.1345
339.674	0.1317
339.8838	0.1292
340.0936	0.1314
340.3034	0.1352
340.5132	0.1358
340.7229	0.1348
340.9327	0.1433
341.1424	0.1365
341.3522	0.1354
341.5619	0.1369
341.7716	0.1358
341.9813	0.1436
342.1909	0.1433
342.4006	0.1359
342.6102	0.1423
342.8199	0.1404
343.0295	0.1449
343.2391	0.1422
343.4487	0.1471
343.6583	0.1446
343.8679	0.1396
344.0774	0.1415
344.287	0.1466
344.4965	0.1468
344.706	0.1473
344.9155	0.1436
345.125	0.1463
345.3345	0.1415
345.544	0.1533
345.7534	0.1466
345.9629	0.1475
346.1723	0.1503
346.3817	0.1493
346.5911	0.1546
346.8005	0.1492
347.0099	0.1563
347.2193	0.143
347.4286	0.1527
347.638	0.1573
347.8473	0.1627
348.0566	0.1576
348.2659	0.1576
348.4752	0.1559
348.6845	0.1606
348.8937	0.1574
349.103	0.1522
349.3122	0.1624
349.5214	0.1568
349.7306	0.1578
349.9398	0.1609
350.149	0.1689
350.3582	0.151
350.5674	0.1684
350.7765	0.1695
350.9856	0.1626
351.1948	0.1625
351.4039	0.1661
351.613	0.17
351.822	0.1688
352.0311	0.1665
352.2402	0.1746
352.4492	0.168
352.6582	0.1725
352.8672	0.1721
353.0762	0.1763
353.2852	0.1757
353.4942	0.1695
353.7032	0.176
353.9121	0.1775
354.1211	0.1679
354.33	0.1807
354.5389	0.1856
354.7478	0.1778
354.9567	0.1836
355.1655	0.1786
355.3744	0.1787
355.5833	0.1822
355.7921	0.1801
356.0009	0.1801
356.2097	0.1905
356.4185	0.1855
356.6273	0.1818
356.8361	0.1955
357.0448	0.1932
357.2536	0.1877
357.4623	0.1884
357.671	0.1879
357.8797	0.1914
358.0884	0.1882
358.2971	0.1952
358.5057	0.1898
358.7144	0.1988
358.923	0.188
359.1316	0.1945
359.3402	0.2014
359.5488	0.1977
359.7574	0.1996
359.966	0.2071
360.1746	0.1992
360.3831	0.2121
360.5916	0.2029
360.8002	0.2114
361.0087	0.2067
361.2172	0.2147
361.4256	0.2024
361.6341	0.2107
361.8426	0.2065
362.051	0.2094
362.2594	0.2148
362.4678	0.219
362.6762	0.2212
362.8846	0.222
363.093	0.2215
363.3014	0.2242
363.5097	0.2143
363.718	0.2309
363.9264	0.2229
364.1347	0.224
364.343	0.2254
364.5513	0.2343
364.7595	0.2306
364.9678	0.2326
365.176	0.2232
365.3842	0.2333
365.5925	0.2363
365.8007	0.23
366.0089	0.2325
366.217	0.2398
366.4252	0.2327
366.6333	0.2318
366.8415	0.2443
367.0496	0.2357
367.2577	0.2501
367.4658	0.2442
367.6739	0.2379
367.882	0.2448
368.09	0.2485
368.2981	0.2408
368.5061	0.245
368.7141	0.2465
368.9221	0.2523
369.1301	0.2469
369.3381	0.2557
369.5461	0.2519
369.754	0.2569
369.962	0.2557
370.1699	0.2592
370.3778	0.2536
370.5857	0.2571
370.7936	0.2602
371.0015	0.2572
371.2093	0.261
371.4172	0.2578
371.625	0.2616
371.8328	0.2651
372.0406	0.2634
372.2484	0.2673
372.4562	0.2613
372.664	0.267
372.8717	0.2726
373.0795	0.2714
373.2872	0.2679
373.4949	0.2808
373.7026	0.2803
373.9103	0.2654
374.118	0.2716
374.3256	0.2723
374.5333	0.277
374.7409	0.2658
374.9485	0.273
375.1561	0.2831
375.3637	0.274
375.5713	0.2792
375.7789	0.2777
375.9864	0.2867
376.194	0.2845
376.4015	0.2827
376.609	0.2883
376.8165	0.2875
377.024	0.2861
377.2315	0.2922
377.4389	0.2753
377.6464	0.2802
377.8538	0.2933
378.0612	0.2846
378.2686	0.2867
378.476	0.2852
378.6834	0.2885
378.8908	0.2915
379.0981	0.2914
379.3055	0.3045
379.5128	0.2937
379.7201	0.2892
379.9274	0.2881
380.1347	0.2988
380.342	0.3007
380.5492	0.2947
380.7565	0.2989
380.9637	0.2981
381.1709	0.3041
381.3781	0.3093
381.5853	0.3001
381.7925	0.3012
381.9997	0.3093
382.2068	0.297
382.4139	0.3072
382.6211	0.3145
382.8282	0.3129
383.0353	0.3072
383.2424	0.3118
383.4494	0.3128
383.6565	0.3168
383.8635	0.3159
384.0706	0.3063
384.2776	0.3107
384.4846	0.3188
384.6916	0.3124
384.8986	0.3183
385.1055	0.3146
385.3125	0.3101
385.5194	0.3164
385.7263	0.3083
385.9333	0.3091
386.1402	0.3187
386.347	0.3134
386.5539	0.3197
386.7608	0.3123
386.9676	0.3161
387.1744	0.3122
387.3813	0.3093
387.5881	0.3118
387.7948	0.3101
388.0016	0.3147
388.2084	0.3111
388.4151	0.314
388.6219	0.3092
388.8286	0.3149
389.0353	0.3042
389.242	0.3042
389.4487	0.3122
389.6553	0.3095
389.862	0.3083
390.0686	0.3093
390.2753	0.2977
390.4819	0.3042
390.6885	0.2914
390.8951	0.3085
391.1016	0.3066
391.3082	0.3009
391.5147	0.3012
391.7213	0.306
391.9278	0.3029
392.1343	0.3005
392.3408	0.2942
392.5473	0.2899
392.7537	0.3013
392.9602	0.2878
393.1666	0.2856
393.373	0.2909
393.5794	0.2865
393.7858	0.2902
393.9922	0.2942
394.1986	0.2805
394.4049	0.2776
394.6113	0.2864
394.8176	0.2748
395.0239	0.284
395.2302	0.2721
395.4365	0.278
395.6428	0.2771
395.8491	0.2709
396.0553	0.2678
396.2615	0.273
396.4678	0.2738
396.674	0.2642
396.8802	0.2663
397.0863	0.2707
397.2925	0.2656
397.4987	0.2668
397.7048	0.2782
397.9109	0.2756
398.117	0.2686
398.3231	0.2737
398.5292	0.2693
398.7353	0.2683
398.9413	0.2743
399.1474	0.2639
399.3534	0.2741
399.5594	0.2695
399.7654	0.2637
399.9714	0.2653
400.1774	0.2627
400.3833	0.2782
400.5893	0.2683
400.7952	0.2742
401.0011	0.2603
401.207	0.2646
401.4129	0.27
401.6188	0.2705
401.8247	0.2717
402.0305	0.2564
402.2364	0.2691
402.4422	0.2636
402.648	0.273
402.8538	0.2787
403.0596	0.2651
403.2654	0.2584
403.4711	0.2658
403.6768	0.2623
403.8826	0.2651
404.0883	0.2665
404.294	0.2648
404.4997	0.2511
404.7054	0.2658
404.911	0.2625
405.1167	0.2691
405.3223	0.2785
405.5279	0.2611
405.7335	0.2642
405.9391	0.2636
406.1447	0.2673
406.3502	0.2621
406.5558	0.2742
406.7613	0.2689
406.9668	0.2713
407.1724	0.2818
407.3778	0.2637
407.5833	0.2755
407.7888	0.266
407.9942	0.2706
408.1997	0.2645
408.4051	0.2542
408.6105	0.2695
408.8159	0.2712
409.0213	0.2657
409.2267	0.274
409.432	0.2656
409.6374	0.2713
409.8427	0.2699
410.048	0.258
410.2533	0.2667
410.4586	0.2743
410.6639	0.2647
410.8691	0.2794
411.0744	0.2691
411.2796	0.2687
411.4848	0.2571
411.69	0.2734
411.8952	0.275
412.1004	0.2569
412.3056	0.2633
412.5107	0.2712
412.7158	0.2671
412.921	0.2663
413.1261	0.269
413.3312	0.2589
413.5362	0.2658
413.7413	0.2648
413.9464	0.2591
414.1514	0.2654
414.3564	0.2631
414.5614	0.2677
414.7664	0.2657
414.9714	0.2568
415.1764	0.2535
415.3813	0.2555
415.5863	0.262
415.7912	0.2635
415.9961	0.2597
416.201	0.2703
416.4059	0.2645
416.6108	0.2602
416.8156	0.2508
417.0205	0.2579
417.2253	0.2598
417.4301	0.2725
417.6349	0.2529
417.8397	0.2642
418.0445	0.2636
418.2492	0.2576
418.454	0.2546
418.6587	0.2579
418.8634	0.258
419.0681	0.2617
419.2728	0.2502
419.4775	0.257
419.6822	0.2522
419.8868	0.2573
420.0915	0.2572
420.2961	0.2417
420.5007	0.2482
420.7053	0.2569
420.9099	0.2414
421.1144	0.2402
421.319	0.246
421.5235	0.2437
421.728	0.2383
421.9325	0.2442
422.137	0.249
422.3415	0.2482
422.546	0.2427
422.7504	0.2419
422.9549	0.2344
423.1593	0.2314
423.3637	0.2293
423.5681	0.2401
423.7725	0.244
423.9769	0.2345
424.1812	0.2356
424.3856	0.2339
424.5899	0.2412
424.7942	0.2257
424.9985	0.2342
425.2028	0.2343
425.4071	0.2102
425.6113	0.2091
425.8156	0.2289
426.0198	0.2219
426.224	0.2324
426.4282	0.226
426.6324	0.2197
426.8366	0.2287
427.0407	0.2205
427.2449	0.2146
427.449	0.2164
427.6531	0.2112
427.8572	0.2205
428.0613	0.2083
428.2654	0.2187
428.4694	0.203
428.6735	0.207
428.8775	0.2106
429.0815	0.2125
429.2855	0.2068
429.4895	0.1969
429.6935	0.2
429.8975	0.2054
430.1014	0.193
430.3053	0.1993
430.5093	0.201
430.7132	0.1987
430.9171	0.1893
431.1209	0.1917
431.3248	0.1892
431.5286	0.1828
431.7325	0.1837
431.9363	0.1899
432.1401	0.1856
432.3439	0.1811
432.5477	0.1797
432.7514	0.1777
432.9552	0.177
433.1589	0.171
433.3627	0.179
433.5664	0.1677
433.7701	0.1772
433.9737	0.172
434.1774	0.1732
434.3811	0.1625
434.5847	0.1657
434.7883	0.1608
434.9919	0.1487
435.1955	0.1612
435.3991	0.1499
435.6027	0.1616
435.8062	0.1608
436.0098	0.1463
436.2133	0.1521
436.4168	0.1461
436.6203	0.1464
436.8238	0.1445
437.0272	0.1497
437.2307	0.1306
437.4341	0.1381
437.6375	0.1361
437.841	0.1237
438.0443	0.126
438.2477	0.1273
438.4511	0.1301
438.6545	0.1298
438.8578	0.1274
439.0611	0.1362
439.2644	0.1171
439.4677	0.1278
439.671	0.1157
439.8743	0.1144
440.0775	0.1106
440.2808	0.1211
440.484	0.104
440.6872	0.108
440.8904	0.1089
441.0936	0.1127
441.2967	0.1045
441.4999	0.1129
441.703	0.0988
441.9062	0.0988
442.1093	0.0912
442.3124	0.0988
442.5155	0.0958
442.7185	0.081
442.9216	0.0903
443.1246	0.0956
443.3276	0.0804
443.5307	0.0882
443.7337	0.0825
443.9366	0.0829
444.1396	0.0786
444.3426	0.0831
444.5455	0.0751
444.7484	0.0783
444.9513	0.0791
445.1542	0.0783
445.3571	0.0677
445.56	0.0758
445.7628	0.0698
445.9657	0.0781
446.1685	0.0649
446.3713	0.0694
446.5741	0.0592
446.7769	0.0624
446.9797	0.0668
447.1824	0.0704
447.3852	0.0665
447.5879	0.0614
447.7906	0.0606
447.9933	0.0618
448.196	0.058
448.3986	0.0593
448.6013	0.0607
448.8039	0.0503
449.0066	0.0539
449.2092	0.045
449.4118	0.06
449.6143	0.0491
449.8169	0.0476
450.0195	0.0502
450.222	0.047
450.4245	0.0611
450.627	0.0477
450.8295	0.0489
451.032	0.0406
451.2345	0.0458
451.4369	0.0459
451.6394	0.0504
451.8418	0.0425
452.0442	0.0413
452.2466	0.0404
452.449	0.0351
452.6513	0.0381
452.8537	0.0355
453.056	0.0371
453.2583	0.0389
453.4607	0.0342
453.663	0.0313
453.8652	0.029
454.0675	0.0383
454.2697	0.0322
454.472	0.0286
454.6742	0.0236
454.8764	0.0318
455.0786	0.0363
455.2808	0.0325
455.4829	0.0281
455.6851	0.0253
455.8872	0.0355
456.0893	0.0375
456.2915	0.0261
456.4935	0.0189
456.6956	0.0172
456.8977	0.029
457.0997	0.0309
457.3018	0.0227
457.5038	0.0209
457.7058	0.0248
457.9078	0.0318
458.1098	0.0193
458.3117	0.0259
458.5137	0.0314
458.7156	0.0308
458.9175	0.0198
459.1194	0.0263
459.3213	0.0276
459.5232	0.0139
459.725	0.0236
459.9269	0.0178
460.1287	0.0106
460.3305	0.0182
460.5323	0.0156
460.7341	0.0123
460.9359	0.0045
461.1376	0.0237
461.3394	0.016
461.5411	0.0219
461.7428	0.0212
461.9445	0.0079
462.1462	0.016
462.3479	0.0123
462.5495	0.017
462.7512	0.0025
462.9528	0.012
463.1544	0.0163
463.356	0.0151
463.5576	0.0063
463.7592	0.0132
463.9607	0.0077
464.1623	0.024
464.3638	0.0115
464.5653	0.0149
464.7668	0.0074
464.9683	0.0148
465.1697	0.0145
465.3712	0.013
465.5726	0.0053
465.7741	0.015
465.9755	0.011
466.1769	0.01
466.3782	0.0076
466.5796	0.0126
466.7809	0.003
466.9823	0.0131
467.1836	0.0115
467.3849	0.0092
467.5862	-0.0035
467.7875	-0.0004
467.9887	0.0159
468.19	0.0067
468.3912	0.0138
468.5924	0.0174
468.7936	-0.0034
468.9948	0.0063
469.196	0.0047
469.3972	0.0109
469.5983	0.0051
469.7994	-0.0003
470.0006	0.0069
470.2017	0.0082
470.4027	0.006
470.6038	-0.0006
470.8049	0.0033
471.0059	0.0026
471.2069	0.0108
471.408	0.0014
471.6089	0.0097
471.8099	0.0106
472.0109	0.0061
472.2119	0.0183
472.4128	0.0157
472.6137	-0.0047
472.8146	0.0029
473.0155	-0.0028
473.2164	-0.0065
473.4173	0.0095
473.6181	0.0056
473.819	0.0014
474.0198	-0.0003
474.2206	0.0138
474.4214	0.0171
474.6222	0.0021
474.8229	0.0037
475.0237	-0.0009
475.2244	0.0108
475.4251	0.0002
475.6258	0.0068
475.8265	-0.0025
476.0272	0.0033
476.2278	0.0077
476.4285	0.0037
476.6291	0.0117
476.8297	0.0007
477.0303	0.0083
477.2309	0.0008
477.4315	0.0054
477.632	0.0011
477.8326	0.0079
478.0331	0.0057
478.2336	0.0072
478.4341	0.0081
478.6346	0.005
478.8351	0.0143
479.0355	0.0021
479.236	-0.001
479.4364	-0.0021
479.6368	0.0069
479.8372	0.0065
480.0376	0.0062
480.2379	0.0031
480.4383	-0.0043
480.6386	0.0019
480.8389	0.0094
481.0392	0.012
481.2395	0.0082
481.4398	0.0011
481.6401	0.0079
481.8403	-0.0009
482.0405	-0.0022
482.2408	0.008
482.441	0.0033
482.6411	0.0001
482.8413	0.0004
483.0415	0.0043
483.2416	-0.0028
483.4417	0.004
483.6419	-0.0068
483.8419	0.0002
484.042	0.0007
484.2421	0.0049
484.4422	-0.0008
484.6422	0.0096
484.8422	0.0045
485.0422	0.0029
485.2422	0.0028
485.4422	0.002
485.6422	-0.0008
485.8421	-0.0023
486.042	0.0052
486.242	-0.0022
486.4419	0.0017
486.6417	-0.0003
486.8416	0.0046
487.0415	0
487.2413	0.0033
487.4411	0.0064
487.641	0.0093
487.8408	0.0083
488.0405	0.0047
488.2403	-0.0051
488.4401	0.0038
488.6398	0.0065
488.8395	0.0056
489.0392	0.0008
489.2389	0.0088
489.4386	0.0064
489.6383	-0.0016
489.8379	0.0082
490.0376	-0.0002
490.2372	0.0003
490.4368	0.0102
490.6364	0.0153
490.836	-0.0038
491.0355	-0.0012
491.2351	0.0098
491.4346	0.0097
491.6341	0.003
491.8336	0.0036
492.0331	-0.0019
492.2326	0.0032
492.432	0.0042
492.6315	0.0053
492.8309	0.0072
493.0303	-0.0078
493.2297	-0.0076
493.4291	-0.0123
493.6284	-0.0043
493.8278	0.0048
494.0271	0.0063
494.2264	0.0017
494.4257	-0.0038
494.625	0.0041
494.8243	0.0073
495.0236	-0.0031
495.2228	-0.0009
495.422	0.0013
495.6213	-0.0043
495.8205	0.0053
496.0196	-0.0007
496.2188	0.0001
496.418	-0.0071
496.6171	0.0018
496.8162	0.0051
497.0153	0.003
497.2144	0.0029
497.4135	0.0081
497.6126	-0.0093
497.8116	0.004
498.0107	-0.0013
498.2097	0.0092
498.4087	-0.0032
498.6077	0.0069
498.8067	0.0068
499.0056	-0.0015
499.2046	-0.0042
499.4035	0.0016
499.6024	-0.0058
499.8013	0.0003
500.0002	0.0149
500.199	-0.0011
500.3979	0.0141
500.5967	-0.0029
500.7956	0.0015
500.9944	0.0004
501.1932	0.0049
501.3919	0.0038
501.5907	0.003
501.7895	-0.0034
501.9882	-0.0049
502.1869	0.0043
502.3856	-0.0018
502.5843	-0.0016
502.783	0.0095
502.9816	0.0004
503.1803	0.0097
503.3789	0.0039
503.5775	0.0062
503.7761	0.0008
503.9747	-0.0023
504.1732	-0.0006
504.3718	-0.0009
504.5703	-0.0087
504.7689	-0.0041
504.9674	0.0048
505.1658	0.0101
505.3643	0.0005
505.5628	0.0033
505.7612	0.0119
505.9597	-0.0002
506.1581	-0.0075
506.3565	-0.0083
506.5549	-0.0008
506.7532	-0.001
506.9516	0.0052
507.1499	-0.001
507.3482	0.0064
507.5465	-0.0043
507.7448	0.0107
507.9431	-0.002
508.1414	0.0065
508.3396	0.0031
508.5379	0.0005
508.7361	0.0032
508.9343	0.0062
509.1325	0.0028
509.3306	0.0023
509.5288	0.0041
509.7269	-0.0008
509.9251	-0.0039
510.1232	-0.0062
510.3213	0.0008
510.5193	0.0147
510.7174	0.002
510.9154	0.0024
511.1135	-0.0007
511.3115	-0.005
511.5095	0.006
511.7075	0.0026
511.9055	-0.0007
512.1034	0.0028
512.3014	-0.0054
512.4993	-0.0015
512.6972	-0.0042
512.8951	0.0095
513.093	0.0018
513.2908	-0.0061
513.4887	0.0145
513.6865	-0.0115
513.8844	0.0017
514.0822	-0.002
514.2799	0.0066
514.4777	0.0053
514.6755	-0.0002
514.8732	0.0006
515.0709	0.0057
515.2687	0.0001
515.4664	-0.008
515.664	0.0054
515.8617	0.0173
516.0594	0.0002
516.257	0.0054
516.4546	0.0034
516.6522	-0.0079
516.8498	-0.0015
517.0474	0.0079
517.2449	0.0045
517.4425	0.0039
517.64	0.0021
517.8375	0.0078
518.035	-0.0028
518.2325	-0.0056
518.43	-0.0019
518.6274	-0.0093
518.8249	0.0091
519.0223	-0.0011
519.2197	-0.0027
519.4171	0.0049
519.6145	-0.0051
519.8118	0.0016
520.0092	-0.0005
520.2065	-0.0061
520.4038	0.0009
520.6011	0.011
520.7984	0.0065
520.9956	0.0023
521.1929	0.0045
521.3901	0.0027
521.5874	0.0017
521.7846	0.0009
521.9818	-0.0038
522.1789	0.0143
522.3761	0.0102
522.5732	-0.0039
522.7704	0.0077
522.9675	0.0008
523.1646	0.0106
523.3617	0.0056
523.5587	-0.0073
523.7558	0.0024
523.9528	0.0023
524.1498	0.0007
524.3468	-0.0064
524.5438	-0.0033
524.7408	0.0008
524.9378	0.0071
525.1347	0.0062
525.3316	0.0074
525.5285	-0.0014
525.7254	0.0051
525.9223	-0.0014
526.1192	0.0107
526.316	-0.0019
526.5129	-0.001
526.7097	-0.0059
526.9065	0.0007
527.1033	0.0017
527.3	-0.0132
527.4968	-0.0115
527.6935	-0.0019
527.8903	0.0071
528.087	0.0091
528.2837	-0.004
528.4804	0.0014
528.677	0.005
528.8737	-0.0066
529.0703	-0.0024
529.2669	0.0035
529.4635	0.0148
529.6601	-0.0004
529.8567	0.0073
530.0532	0.0009
530.2498	0.0008
530.4463	0.0061
530.6428	-0.0093
530.8393	0.0009
531.0358	0.0021
531.2322	0.0009
531.4287	-0.0037
531.6251	-0.0076
531.8215	0.0043
532.0179	-0.0035
532.2143	0.006
532.4107	0.0054
532.607	0.0063
532.8034	-0.0017
532.9997	0.0007
533.196	0.0083
533.3923	0.0053
533.5886	0.001
533.7848	-0.0127
533.9811	-0.0025
534.1773	-0.0004
534.3735	0.0049
534.5697	0.0026
534.7659	-0.0038
534.9621	0.0014
535.1582	0.0063
535.3544	0.0115
535.5505	-0.001
535.7466	-0.0039
535.9427	-0.0125
536.1387	-0.0002
536.3348	0.008
536.5308	0.0089
536.7269	-0.0008
536.9229	-0.0114
537.1189	0.0025
537.3148	-0.0049
537.5108	0.0036
537.7068	0.0109
537.9027	0.0093
538.0986	-0.0086
538.2945	0.005
538.4904	-0.0064
538.6863	0.0062
538.8821	-0.0117
539.078	0.0024
539.2738	-0.0125
539.4696	0.0075
539.6654	-0.0025
539.8611	-0.0037
540.0569	-0.0076
540.2526	-0.007
540.4484	-0.0081
540.6441	0.0102
540.8398	0.0035
541.0355	0.0097
541.2311	0.0042
541.4268	-0.0031
541.6224	0.0042
541.818	-0
542.0136	-0.0046
542.2092	0.002
542.4048	0.0003
542.6003	0.0079
542.7959	0.0054
542.9914	0.0096
543.1869	-0.0033
543.3824	0.001
543.5779	-0.003
543.7734	-0.0064
543.9688	0.0072
544.1642	0.0065
544.3596	-0.0036
544.555	0.0023
544.7504	0.0062
544.9458	-0.0004
545.1411	-0.0071
545.3365	-0.0021
545.5318	0.0015
545.7271	0.0093
545.9224	-0.0106
546.1177	0.0036
546.3129	-0.0077
546.5081	-0.0096
546.7034	-0.0016
546.8986	0.0061
547.0938	0.0009
547.289	0.0001
547.4841	0.0016
547.6793	-0.0071
547.8744	-0.0071
548.0695	-0.0016
548.2646	-0.0056
548.4597	-0.0051
548.6548	0.0078
548.8498	0.0037
549.0448	0.0099
549.2399	-0.0024
549.4349	0.0048
549.6298	-0.0057
549.8248	-0.003
550.0198	0.0162
550.2147	-0.005
550.4096	0.0025
550.6045	0.0021
550.7994	0.0034
550.9943	-0.001
551.1892	-0.0058
551.384	0.0088
551.5788	0.0062
551.7737	-0.0039
551.9685	0.0042
552.1632	0.0124
552.358	0.0022
552.5528	0.0003
552.7475	0.0006
552.9422	-0.0026
553.1369	0.0031
553.3316	0.0044
553.5263	0.0012
553.7209	-0.0047
553.9156	0.0152
554.1102	-0.0072
554.3048	0.0039
554.4994	0.009
554.694	-0.0044
554.8885	0.0029
555.0831	0.0074
555.2776	-0.0022
555.4721	-0.0175
555.6666	-0.0019
555.8611	-0.0114
556.0555	0.0113
556.25	0.0003
556.4444	-0.0066
556.6388	0.0035
556.8332	0.0026
557.0276	0.013
557.222	-0.0022
557.4163	-0.0075
557.6107	-0.0008
557.805	-0.007
557.9993	-0.0075
558.1936	0.0156
558.3879	-0.0087
558.5821	-0.0157
558.7764	0.0107
558.9706	-0.0051
559.1648	-0.008
559.359	0.0115
559.5532	-0.0101
559.7473	0.0059
559.9415	0.0036
560.1356	0.0053
560.3297	-0.003
560.5238	0.0066
560.7179	-0.0076
560.9119	0.0035
561.106	-0.0069
561.3	-0.0053
561.494	-0.0014
561.688	-0.0047
561.882	0.009
562.076	0.0129
562.2699	0.0098
562.4639	0.0093
562.6578	0.0067
562.8517	-0.0033
563.0456	-0.0037
563.2395	-0.0056
563.4333	-0.0072
563.6272	0.0114
563.821	0.0075
564.0148	-0.0028
564.2086	0.0049
564.4024	-0
564.5961	-0.006
564.7899	-0.0044
564.9836	0.003
565.1773	-0.0014
565.371	0.006
565.5647	-0.0076
565.7584	-0.0028
565.952	-0.0036
566.1456	0.0006
566.3393	0.0218
566.5329	0.0002
566.7264	0.0011
566.92	-0.0031
567.1136	0.0055
567.3071	0.0025
567.5006	-0.0086
567.6941	0.0071
567.8876	-0.003
568.0811	-0.0087
568.2745	-0.0034
568.468	0.0068
568.6614	0.0049
568.8548	-0.0026
569.0482	0.0037
569.2416	-0.0029
569.4349	0.0004
569.6283	-0.0004
569.8216	-0.0017
570.0149	0.0037
570.2082	-0.0005
570.4015	-0.001
570.5947	-0.0012
570.788	-0.0016
570.9812	0.0037
571.1744	-0.005
571.3676	-0.002
571.5608	0.0026
571.754	-0.0042
571.9471	0.0046
572.1402	-0
572.3333	0.0002
572.5264	0.0039
572.7195	0.0027
572.9126	0.0014
573.1057	0.0026
573.2987	0.0012
573.4917	0.0006
573.6847	-0.0008
573.8777	-0.0026
574.0707	0.0017
574.2636	0.002
574.4566	0.0023
574.6495	0.0025
574.8424	-0.0014
575.0353	0.0003
575.2281	0.0029
575.421	-0.0023
575.6138	-0.0037
575.8067	0.0009
575.9995	0.0018
576.1923	0.0082
576.385	-0.0079
576.5778	-0.0052
576.7706	0.0057
576.9633	0.0044
577.156	0.0025
577.3487	-0.0001
577.5414	-0.0002
577.734	-0.003
577.9267	0.0007
578.1193	0.002
578.3119	-0.003
578.5045	-0.0006
578.6971	0.0024
578.8897	-0.0007
579.0822	0.0006
579.2747	-0.0063
579.4673	-0.0021
579.6598	-0.0023
579.8522	0.0025
580.0447	-0.0006
580.2372	0.0061
580.4296	-0.0082
580.622	0.0051
580.8144	-0.0017
581.0068	0.0011
581.1992	0.0038
581.3915	0.0013
581.5839	0.0036
581.7762	0.0003
581.9685	-0.0028
582.1608	0.0018
582.353	-0.0037
582.5453	-0.0007
582.7375	-0.0015
582.9298	-0.0023
583.122	0.0006
583.3142	0.0045
583.5063	-0.0045
583.6985	0.0034
583.8906	0.0015
584.0827	0.0031
584.2749	0.0004
584.4669	0.0008
584.659	0.0022
584.8511	0.001
585.0431	0.0001
585.2352	-0.0043
585.4272	-0.0004
585.6192	0.0021
585.8111	-0.0063
586.0031	0.0032
586.195	0.0022
586.387	0.0048
586.5789	0.0015
586.7708	-0.003
586.9627	0.0031
587.1545	0.0005
587.3464	0.0003
587.5382	-0.0022
587.73	0.005
587.9218	0.0005
588.1136	-0.0042
588.3053	0.0016
588.4971	0.0042
588.6888	0.0075
588.8805	0.0023
589.0722	0.0017
589.2639	-0.0008
589.4556	-0.0042
589.6472	0.0005
589.8389	-0.0027
590.0305	0.0049
590.2221	0.0003
590.4137	-0.0027
590.6052	-0.0023
590.7968	-0.0027
590.9883	-0.002
591.1798	-0.0043
591.3713	0.0002
591.5628	-0.0004
591.7543	0.0023
591.9458	0.0031
592.1372	-0.0049
592.3286	-0.0027
592.52	-0.0034
592.7114	-0.0047
592.9028	-0.0056
593.0941	-0.0022
593.2855	0.0057
593.4768	-0.001
593.6681	0.0002
593.8594	-0.0046
594.0506	0.0052
594.2419	-0.002
594.4331	-0.0015
594.6244	0.0053
594.8156	-0.0003
595.0067	0.0031
595.1979	-0.0016
595.3891	-0.0037
595.5802	-0.0041
595.7713	-0.0012
595.9624	0.0027
596.1535	0.0107
596.3446	-0.0036
596.5357	-0.0066
596.7267	0.004
596.9177	0.0012
597.1087	-0.0029
597.2997	-0.0007
597.4907	-0.0026
597.6817	-0.0038
597.8726	0.0023
598.0635	-0.001
598.2544	-0.0045
598.4453	-0.0064
598.6362	-0.0077
598.827	0.0014
599.0179	-0.0047
599.2087	-0.0015
599.3995	0.0009
599.5903	-0.0016
599.7811	-0.0019
599.9718	0.0033
600.1626	0.0007
600.3533	0.0008
600.544	0.0021
600.7347	-0.0036
600.9254	0.0064
601.116	0.0022
601.3067	0.0004
601.4973	0.0096
601.6879	-0.0031
601.8785	-0.0003
602.0691	0.0068
602.2596	-0.0014
602.4502	0.005
602.6407	0.0027
602.8312	0.0035
603.0217	0.0059
603.2122	0.003
603.4027	-0.0064
603.5931	-0.0002
603.7835	0.0028
603.9739	0.0003
604.1643	0.0026
604.3547	0.0045
604.5451	0.0015
604.7354	-0.0037
604.9257	-0.0041
605.116	-0.0036
605.3063	-0.0022
605.4966	0.0025
605.6869	-0.0004
605.8771	0.0023
606.0673	-0.001
606.2575	-0.0055
606.4477	0.0085
606.6379	-0.0035
606.8281	-0.0061
607.0182	0.004
607.2083	-0.0062
607.3985	0.0038
607.5885	0.0048
607.7786	0.0092
607.9687	-0.0006
608.1587	-0.0008
608.3488	0.0029
608.5388	0.0019
608.7288	-0.0054
608.9187	0.0063
609.1087	0.0061
609.2986	-0.0007
609.4886	0.0078
609.6785	0.0024
609.8684	-0.0034
610.0582	0.0026
610.2481	-0.0036
610.4379	-0.005
610.6278	-0.0048
610.8176	-0.0015
611.0074	-0.0013
611.1971	-0.0046
611.3869	-0.0019
611.5766	0.0021
611.7664	0.0109
611.9561	-0.0065
612.1458	-0.0035
612.3354	-0.0005
612.5251	-0.0041
612.7147	0.0036
612.9044	-0.001
613.094	-0.0014
613.2836	-0.0062
613.4731	0.0023
613.6627	0.0011
613.8522	-0.0043
614.0417	0.0002
614.2313	-0.0064
614.4207	0.0017
614.6102	-0.0023
614.7997	-0.0002
614.9891	-0.0048
615.1785	-0.0015
615.3679	0.0015
615.5573	-0.0061
615.7467	-0.0025
615.9361	-0.0101
616.1254	-0.0055
616.3147	0.0063
616.504	0
616.6933	0.0035
616.8826	0.0031
617.0718	-0.0082
617.2611	0.0006
617.4503	-0.0014
617.6395	0.0012
617.8287	0.0045
618.0179	-0.0063
618.207	0.0013
618.3961	-0.0009
618.5853	0.0018
618.7744	-0.0079
618.9634	0.0091
619.1525	-0.0058
619.3416	-0.0016
619.5306	-0.0018
619.7196	-0.009
619.9086	0.0093
620.0976	0.0007
620.2866	0.0045
620.4755	0.0155
620.6645	-0.011
620.8534	-0.0003
621.0423	-0.0096
621.2312	-0.0087
621.42	0.0034
621.6089	0.0077
621.7977	-0.0001
621.9865	0.0116
622.1753	0.0057
622.3641	-0.009
622.5529	-0.011
622.7416	-0.0001
622.9303	-0.0009
623.1191	-0.0075
623.3078	0.0011
623.4964	-0.0118
623.6851	0.0119
623.8737	0.0009
624.0624	0.008
624.251	0.0076
624.4396	-0.0067
624.6282	0.0017
624.8167	0.0146
625.0053	0.0083
625.1938	-0.0056
625.3823	-0.0019
625.5708	-0.0048
625.7593	0.0057
625.9477	-0.0099
626.1362	-0.0029
626.3246	-0.0012
626.513	0.0016
626.7014	-0.0062
626.8898	-0.0011
627.0781	0.0006
627.2665	0.0159
627.4548	0.011
627.6431	-0.0148
627.8314	0.0017
628.0197	0.0073
628.2079	0.006
628.3962	0.0011
628.5844	-0.0031
628.7726	-0.0069
628.9608	-0.0034
629.1489	-0.0022
629.3371	-0.0084
629.5252	0.0144
629.7134	-0.0001
629.9015	-0.0142
630.0895	-0.0034
630.2776	-0.0033
630.4657	0.0048
630.6537	-0.0066
630.8417	-0.0016
631.0297	0.0011
631.2177	-0.0059
631.4057	0.0016
631.5936	0.002
631.7815	0.0014
631.9695	0.0069
632.1574	-0.0077
632.3452	0.0092
632.5331	-0.0019
632.7209	0.0039
632.9088	-0.011
633.0966	-0.0069
633.2844	-0.0028
633.4722	0.0051
633.6599	-0.0128
633.8477	-0.0135
634.0354	0.0118
634.2231	0.01
634.4108	-0.0067
634.5985	-0.0036
634.7861	-0.0139
634.9738	0.0006
635.1614	0.0056
635.349	-0.018
635.5366	0.0017
635.7242	0.0066
635.9117	-0.0014
636.0993	-0.0159
636.2868	-0.0074
636.4743	0.0232
636.6618	0.0079
636.8492	-0.0063
637.0367	0.0125
637.2241	-0.0079
637.4115	0.0022
637.5989	0.0054
637.7863	-0.0126
637.9737	0.0077
638.161	-0.0052
638.3484	-0.0109
638.5357	0.0055
638.723	0.002
638.9103	0.0107
639.0975	0.0055
639.2848	0.0183
639.472	0.0058
639.6592	-0.0025
639.8464	0.0145
640.0336	0.0032
640.2208	-0.0107
640.4079	0.0128
640.595	0.0049
640.7821	-0.0077
640.9692	0.0135
641.1563	0.0027
641.3434	0.0051
641.5304	-0.0118
641.7174	0.0088
641.9044	0.0089
642.0914	-0.0006
642.2784	0.0134
642.4653	-0.0132
642.6523	-0.009
642.8392	0.0188
643.0261	0.0003
643.213	0.0103
643.3999	-0.0024
643.5867	0.0083
643.7735	-0.0021
643.9604	0.0003
644.1472	0.0013
644.3339	0.0109
644.5207	-0.0344
644.7075	-0.0086
644.8942	0.0087
645.0809	-0.0001
645.2676	-0.006
645.4543	-0.0036
645.6409	-0.011
645.8276	-0.0037
646.0142	0.0012
646.2008	-0.0055
646.3874	0.0091
646.574	-0.0384
646.7605	-0.0036
646.9471	0.0062
647.1336	0.0094
647.3201	0.0049
647.5066	-0.0165
647.6931	0.014
647.8795	0.0127
648.0659	-0.005
648.2524	-0.0035
648.4388	-0.0022
648.6252	-0.0157
648.8115	0.0119
648.9979	0.0094
649.1842	-0.0194
649.3705	0.0195
649.5568	-0.0216
649.7431	-0.0129
649.9294	-0.0047
650.1156	-0.0092
650.3018	0.007
650.488	-0.0078
650.6742	0.0098
650.8604	-0.005
651.0466	0.01
651.2327	-0.007
651.4188	-0.0218
651.6049	-0.0006
651.791	0.0099
651.9771	0.0038
652.1632	-0.0019
652.3492	0.0058
652.5352	0.0106
652.7212	-0.0056
652.9072	-0.0026
653.0932	0.0023
653.2791	0.0152
653.465	-0.0105
653.651	0.0136
653.8369	0.0165
654.0227	-0.0085
654.2086	-0.0016
654.3944	-0.0165
654.5803	0.0098
654.7661	-0.0101
654.9519	-0.0012
655.1377	-0
655.3234	-0
655.5092	-0
655.6949	-0
655.8806	-0
656.0663	-0
656.2519	-0
656.4376	-0
656.6232	-0
656.8088	-0
656.9945	-0
657.18	-0
657.3656	-0
657.5511	-0
657.7367	-0
657.9222	-0
658.1077	-0
658.2932	-0
658.4786	-0
658.6641	-0
658.8495	-0
659.0349	-0
659.2203	-0
659.4057	0.0178
659.591	0.0493
659.7764	-0.0034
659.9617	-0.0096
660.147	-0.0067
660.3323	-0.0127
660.5176	-0.0046
660.7028	-0.0006
660.888	0.0151
661.0733	0.0141
661.2585	0.0166
661.4436	0.0097
661.6288	0.0163
661.8139	0.0103
661.9991	0.0064
662.1842	0.0226
662.3693	0.0136
662.5544	0.0072
662.7394	0.032
662.9245	0.0054
663.1095	0.0141
663.2945	0.0004
663.4795	0.0037
663.6644	-0.0091
663.8494	0.0059
664.0343	-0.0042
664.2193	-0.0086
664.4042	0.0037
664.589	-0.0161
664.7739	-0.0219
664.9587	-0.0092
665.1436	-0.0038
665.3284	0.007
665.5132	0.003
665.698	-0.0039
665.8827	-0.0275
666.0675	-0.0234
666.2522	0.0172
666.4369	-0.0066
666.6216	-0.0235
666.8063	-0.002
666.9909	0.0148
667.1756	-0.0092
667.3602	-0.0154
667.5448	-0.0095
667.7294	0.0062
667.9139	-0.0272
668.0985	-0.0247
668.283	-0.0098
668.4675	0.008
668.652	-0.0122
668.8365	-0.0019
669.0209	-0.0142
669.2054	-0.0088
669.3898	0.0027
669.5742	0.032
669.7586	0.0182
669.943	-0.0202
670.1273	0.0134
670.3117	0.0087
670.496	0.0213
670.6803	0.0107
670.8646	-0.0033
671.0488	-0.0068
671.2331	0.0009
671.4173	-0.0135
671.6015	-0.0003
671.7857	-0.0244
671.9699	0.0018
672.1541	0.0004
672.3382	0.005
672.5223	0.0019
672.7064	-0.014
672.8905	0.0092
673.0746	-0.0044
673.2587	0.0036
673.4427	-0.0119
673.6267	-0.023
673.8107	-0.0146
673.9947	0.0026
674.1787	-0.0014
674.3626	0.0077
674.5465	-0.0012
674.7304	-0.0307
674.9143	0.0004
675.0982	-0.0018
675.2821	0.0094
675.4659	-0.006
675.6497	0.0133
675.8335	0.0185
676.0173	0.0004
676.2011	0.003
676.3849	0.0193
676.5686	0.007
676.7523	-0.0193
676.936	-0.0248
677.1197	0.0277
677.3034	0.0123
677.487	0.0015
677.6706	-0.0125
677.8542	-0.0013
678.0378	0.0182
678.2214	-0.009
678.405	0.0057
678.5885	0.0073
678.772	-0.0044
678.9555	0.0127
679.139	-0.0122
679.3225	-0.0149
679.5059	-0.0053
679.6894	-0.0017
679.8728	-0.0138
680.0562	-0.0003
680.2395	0.0128
680.4229	-0.0092
680.6062	-0.0032
680.7896	0.0078
680.9729	0.0084
681.1562	-0.0309
681.3394	0.0117
681.5227	-0.0073
681.7059	-0.0022
681.8891	-0.0052
682.0723	-0.0229
682.2555	0.0179
682.4387	0.0131
682.6218	-0.0046
682.805	0.0146
682.9881	-0.0038
683.1712	0.0225
683.3542	-0.0078
683.5373	0.0164
683.7203	-0.0087
683.9034	0.0063
684.0864	-0.003
684.2694	0.0085
684.4523	-0.0142
684.6353	0.012
684.8182	0.0043
685.0011	0.0044
685.184	0.0026
685.3669	-0.008
685.5498	0.0037
685.7326	-0.0132
685.9154	0.0064
686.0982	-0.0117
686.281	-0.0071
686.4638	0.0057
686.6465	-0.0127
686.8293	-0.0102
687.012	-0.0108
687.1947	0.0035
687.3774	-0.0152
687.56	0.011
687.7427	-0.0144
687.9253	0.0101
688.1079	-0.0022
688.2905	0.0032
688.4731	0.0098
688.6556	0.0021
688.8382	0.0073
689.0207	-0.0114
689.2032	-0.0176
689.3857	-0.0192
689.5681	-0.0195
689.7506	-0.0005
689.933	-0.0089
690.1154	-0.0032
690.2978	-0.0102
690.4802	-0.0019
690.6626	0.0094
690.8449	-0.008
691.0272	-0.0228
691.2095	-0.0019
691.3918	0.0112
691.5741	0.0057
691.7563	0.0186
691.9386	-0.0025
692.1208	-0.0101
692.303	-0.0029
692.4852	0.0095
692.6673	-0.0062
692.8495	-0.012
693.0316	-0.0064
693.2137	0.0271
693.3958	-0.0116
693.5778	-0.0163
693.7599	-0.0293
693.9419	0.0059
694.1239	0.0118
694.3059	-0.0199
694.4879	-0.0193
694.6699	0.0021
694.8518	0.0155
695.0337	-0.0138
695.2157	-0.0033
695.3975	0.0096
695.5794	-0.0423
695.7613	0.0484
695.9431	-0.0204
696.1249	-0.0158
696.3067	0.003
696.4885	-0.014
696.6703	0.0141
696.852	-0.0108
697.0337	-0.0026
697.2154	0.0067
697.3971	0.0106
697.5788	0.0137
697.7605	-0.0018
697.9421	-0.0116
698.1237	0.0183
698.3053	0.0012
698.4869	-0.0004
698.6685	0.0114
698.85	0.0104
699.0315	0.0048
699.213	0.0127
699.3945	0.0203
699.576	-0.0187
699.7575	-0.016
699.9389	-0.0014
700.1203	-0.0023
700.3017	-0.0379
700.4831	0.0148
700.6645	0.0169
700.8458	0.0056
701.0271	-0.0007
701.2084	-0.0428
701.3897	-0.004
701.571	-0.0127
701.7523	-0.0183
701.9335	0.0266
702.1147	-0.0089
702.2959	0.0179
702.4771	0.0092
702.6583	-0.0226
702.8394	-0.0031
703.0205	-0.0218
703.2016	0.0023
703.3827	0.0249
703.5638	0.0147
703.7449	0.0108
703.9259	-0.0058
704.1069	0.0056
704.2879	0.0189
704.4689	0.0104
704.6499	-0.0352
704.8308	-0.0023
705.0117	-0.019
705.1927	0.0255
705.3735	0.0593
705.5544	0.0153
705.7353	0.0195
705.9161	0.0026
706.0969	-0.0061
706.2777	0.0141
706.4585	-0.0049
706.6393	-0.0081
706.82	-0.0127
707.0007	0.0019
707.1815	0.018
707.3621	-0.0026
707.5428	0.0089
707.7235	0.0182
707.9041	-0.0015
708.0847	-0.0031
708.2653	-0.0016
708.4459	-0.0047
708.6265	-0.0124
708.807	0.0161
708.9875	0.0102
709.168	0.0026
709.3485	0.0109
709.529	0.0242
709.7095	-0.0226
709.8899	0.0264
710.0703	0.0133
710.2507	0.0047
710.4311	0.003
710.6115	0.0098
710.7918	0.008
710.9721	-0.0176
711.1524	0.0017
711.3327	0.0014
711.513	-0.0123
711.6932	-0.0115
711.8735	0.0082
712.0537	0.0114
712.2339	-0.0023
712.4141	0.0092
712.5942	0.0067
712.7744	0.0135
712.9545	0.0101
713.1346	0.0018
713.3147	0.0135
713.4947	-0.0132
713.6748	-0.0024
713.8548	0.0004
714.0348	0.0198
714.2148	-0.0183
714.3948	-0.0069
714.5748	-0.0139
714.7547	0.0127
714.9346	0.0064
715.1145	0.0173
715.2944	0.0087
715.4743	-0.0157
715.6541	-0.0194
715.834	0.0289
716.0138	0.0016
716.1936	-0.0069
716.3733	-0.0133
716.5531	0.0045
716.7328	-0.0015
716.9126	-0.0167
717.0923	0.0044
717.2719	-0.0187
717.4516	-0.0234
717.6312	-0.018
717.8109	0.0138
717.9905	-0.0049
718.1701	0.0107
718.3496	0.0089
718.5292	-0.0045
718.7087	0.0436
718.8882	0.0165
719.0677	-0.029
719.2472	0.0191
719.4267	0.002
719.6061	0.0019
719.7856	-0.0183
719.965	-0.0064
720.1443	-0.0058
720.3237	0.0051
720.5031	0.0078
720.6824	-0.0079
720.8617	0.0062
721.041	0.0148
721.2203	0.0093
721.3995	-0.0238
721.5788	0.0018
721.758	-0.026
721.9372	0.0152
722.1164	0.0253
722.2956	0.0239
722.4747	0.006
722.6538	0.0086
722.8329	-0.0204
723.012	0.0264
723.1911	0.0293
723.3702	-0.0192
723.5492	-0.0034
723.7282	-0.0112
723.9072	-0.0368
724.0862	-0.0026
724.2652	-0.0034
724.4441	-0.0011
724.623	-0.0157
724.8019	0.0165
724.9808	-0.0111
725.1597	-0.0227
725.3385	-0.0071
725.5174	0.0227
725.6962	0.032
725.875	-0.0002
726.0538	-0.0059
726.2325	0.0111
726.4112	0.0258
726.59	-0.0014
726.7687	0.019
726.9474	-0.0023
727.126	-0.0156
727.3047	0.0033
727.4833	0.0521
727.6619	0.0079
727.8405	-0.0005
728.0191	-0.0399
728.1976	-0.0442
728.3762	-0.0084
728.5547	-0.0056
728.7332	-0.0031
728.9116	-0.0252
729.0901	0.0176
729.2686	-0.0032
729.447	-0.0067
729.6254	0.0103
729.8038	-0.0047
729.9821	-0.0065
730.1605	-0.0188
730.3388	-0.018
730.5171	-0.0098
730.6954	0.0307
730.8737	0.008
731.0519	0.0067
731.2302	-0.0154
731.4084	-0.0094
731.5866	-0.0203
731.7648	-0.0221
731.9429	0.0079
732.1211	-0.0201
732.2992	-0.0049
732.4773	0.014
732.6554	-0.0088
732.8335	0.0087
733.0115	-0.0158
733.1896	-0.0206
733.3676	0.0081
733.5456	0.0223
733.7235	0.0177
733.9015	-0.0137
734.0794	-0.0177
734.2574	0.0049
734.4353	-0.0054
734.6131	0.0112
734.791	0.0124
734.9689	-0.0058
735.1467	-0.0112
735.3245	-0.0038
735.5023	0.0192
735.68	0.0071
735.8578	0.0208
736.0355	0.0095
736.2132	0.0146
736.3909	0.0081
736.5686	-0.0039
736.7463	-0.0183
736.9239	0.0242
737.1015	-0.0057
737.2791	0.0021
737.4567	-0.0002
737.6343	0.0056
737.8118	0.005
737.9894	0.0179
738.1669	0.0211
738.3444	-0.0091
738.5218	0.0431
738.6993	-0.0177
738.8767	-0.0037
739.0541	0.0093
739.2315	-0.005
739.4089	0.0209
739.5863	0.0076
739.7636	-0.0036
739.9409	-0.0075
740.1182	-0.0042
740.2955	-0.0246
740.4728	0.0245
740.65	-0.0178
740.8272	-0.0147
741.0044	0.0174
741.1816	0.0087
741.3588	0.0038
741.5359	0.0198
741.7131	0.0176
741.8902	-0.0071
742.0673	-0.0018
742.2444	-0.0111
742.4214	0.0115
742.5985	-0.006
742.7755	-0.029
742.9525	0.0169
743.1295	0.0047
743.3064	-0.0186
743.4834	0.0249
743.6603	-0.0134
743.8372	0.0247
744.0141	0.0073
744.191	0.0197
744.3678	0.0075
744.5446	0.0154
744.7215	-0.0269
744.8982	0.0002
745.075	0.0059
745.2518	-0.0222
745.4285	-0.004
745.6052	-0.01
745.7819	0.0223
745.9586	0.021
746.1353	-0.0113
746.3119	-0.0374
746.4885	0.0052
746.6651	-0.0427
746.8417	-0.0204
747.0183	-0.0372
747.1948	-0.0065
747.3714	0.0166
747.5479	0.0072
747.7244	-0.0407
747.9008	0.0248
748.0773	0.011
748.2537	0.0121
748.4301	-0.0003
748.6065	0.0031
748.7829	-0.0034
748.9593	0.0071
749.1356	-0.0107
749.3119	-0.0039
749.4882	-0.0061
749.6645	0.0062
749.8408	-0.0264
750.017	-0.0072
750.1933	0.0365
750.3695	0.013
750.5457	-0.0216
750.7218	0.0127
750.898	-0.007
751.0741	0.0082
751.2502	0.028
751.4263	-0.0124
751.6024	0.0127
751.7784	-0.0477
751.9545	-0.0373
752.1305	-0.0048
752.3065	0.0415
752.4825	-0.0292
752.6584	-0.0163
752.8344	-0.0042
753.0103	-0.0193
753.1862	0.022
753.3621	-0.0297
753.5379	-0.019
753.7138	-0.0173
753.8896	0.0477
754.0654	-0.0224
754.2412	0.0102
754.417	-0.0164
754.5927	0.0019
754.7685	-0.0275
754.9442	-0.0008
755.1199	-0.0032
755.2956	-0.0014
755.4712	0.0011
755.6469	-0.0079
755.8225	0.0032
755.9981	0.0025
756.1736	0.019
756.3492	0.0021
756.5248	-0.017
756.7003	-0.0052
756.8758	0.0016
757.0513	-0.0142
757.2267	-0.0249
757.4022	0.008
757.5776	-0.0081
757.753	-0.0049
757.9284	0.0011
758.1038	-0.002
758.2791	-0.014
758.4545	-0.0135
758.6298	-0.0117
758.8051	-0.014
758.9803	-0.0239
759.1556	-0.003
759.3308	0.0185
759.506	0.0029
759.6812	0.0003
759.8564	-0.0132
760.0316	-0.0052
760.2067	-0.0284
760.3819	-0.0095
760.557	-0.0044
760.732	0.0139
760.9071	-0.0098
761.0821	0.0061
761.2572	0.0049
761.4322	0.0008
761.6072	-0.0195
761.7821	0.0202
761.9571	-0.0088
762.132	-0.0073
762.3069	0.0002
762.4818	0.0311
762.6567	-0.0121
762.8316	-0.0009
763.0064	-0.0103
763.1812	-0.0091
763.356	0.0203
763.5308	-0.0157
763.7055	-0.002
763.8803	-0.0263
764.055	0.0006
764.2297	-0.0096
764.4044	-0.0119
764.579	-0.009
764.7537	-0.0081
764.9283	-0.0169
765.1029	0.0058
765.2775	-0.0227
765.4521	0.0251
765.6266	-0.0005
765.8011	0.0027
765.9756	0.0286
766.1501	-0.0019
766.3246	0.0083
766.4991	-0.0535
766.6735	-0.0095
766.8479	-0.0402
767.0223	0.0392
767.1967	-0.0251
767.371	-0.0035
767.5454	0.0075
767.7197	0.0201
767.894	-0.0213
768.0683	0.0076
768.2425	0.0144
768.4168	0.0087
768.591	-0.0083
768.7652	-0.0133
768.9394	-0.0069
769.1135	0.0073
769.2877	0.0057
769.4618	0.0015
769.6359	0.0154
769.81	-0.014
769.984	-0.0044
770.1581	0.0182
770.3321	-0.0052
770.5061	0.003
770.6801	0.0089
770.8541	-0.0277
771.028	-0.0077
771.202	-0.0353
771.3759	-0.0093
771.5498	-0.0171
771.7236	-0.0145
771.8975	-0.0234
772.0713	0.006
772.2451	-0.0158
772.4189	0.0358
772.5927	-0.0235
772.7665	0.0198
772.9402	0.0061
773.1139	0.007
773.2876	0.0171
773.4613	0.0244
773.635	0.0042
773.8086	-0.0316
773.9822	0.0034
774.1558	0.0106
774.3294	-0.0265
774.503	0.0143
774.6765	0.0169
774.8501	0.0023
775.0236	0.0251
775.1971	-0.0344
775.3705	-0.0037
775.544	-0.0297
775.7174	-0.031
775.8908	0.0443
776.0642	0.0124
776.2376	-0.0477
776.4109	0.0193
776.5843	-0.0112
776.7576	-0.0098
776.9309	0.0373
777.1041	0.0281
777.2774	0.0105
777.4506	-0.0729
777.6238	-0.0379
777.797	0.0299
777.9702	0.0334
778.1434	-0.0122
778.3165	-0.0058
778.4896	-0.0312
778.6627	0.0199
778.8358	-0.0318
779.0089	-0.005
779.1819	-0.0106
779.3549	0.0241
779.5279	0.0154
779.7009	0.0069
779.8739	-0.0213
780.0468	-0.0114
780.2197	0.0159
780.3926	-0.0402
780.5655	-0.0314
780.7384	0.0049
780.9112	0.0223
781.0841	-0.012
781.2569	0.0328
781.4297	0.0147
781.6024	-0.0249
781.7752	-0.0161
781.9479	-0.0268
782.1206	-0.0056
782.2933	0.0014
782.466	-0.0145
782.6386	0.017
782.8113	-0.0192
782.9839	0.0196
783.1565	-0.015
783.329	0.0518
783.5016	-0.0157
783.6741	0.0091
783.8466	-0.0609
784.0191	-0.016
784.1916	-0.0097
784.3641	-0.0257
784.5365	0.0161
784.7089	0.006
784.8813	0.0445
785.0537	-0.0012
785.2261	-0.0156
785.3984	-0.0302
785.5707	0.0443
785.743	-0.034
785.9153	-0.0032
786.0876	-0.029
786.2598	0.0311
786.432	-0.0458
786.6042	0.0547
786.7764	-0.0121
786.9486	0.0308
787.1207	0.0425
787.2928	-0.0016
787.4649	-0.0016
787.637	0.0268
787.8091	-0.0188
787.9811	0.0108
788.1532	0.0032
788.3252	0.0058
788.4972	0.0128
788.6691	0.0288
788.8411	-0.008
789.013	0.0089
789.1849	-0.0102
789.3568	-0.0173
789.5287	-0.0332
789.7005	0.0269
789.8723	-0.0448
790.0442	-0.0335
790.2159	-0.0157
790.3877	0.0069
790.5595	0.0493
790.7312	-0.0643
790.9029	-0.0056
791.0746	0.0284
791.2463	-0.0168
791.4179	-0.0101
791.5896	-0.0072
791.7612	-0.0626
791.9328	-0.0515
792.1044	-0.0408
792.2759	-0.0276
792.4474	-0.0234
792.619	0.0004
792.7905	0.0066
792.9619	-0.0247
793.1334	-0.0343
793.3048	-0.0065
793.4762	-0.041
793.6476	-0.0094
793.819	-0.0115
793.9904	0.0374
794.1617	-0.0112
794.333	-0.0276
794.5043	-0.001
794.6756	0.0496
794.8469	0.006
795.0181	0.0172
795.1893	0.0073
795.3605	-0.024
795.5317	0.0692
795.7029	-0.0037
795.874	-0.0136
796.0452	-0.0486
796.2163	0.0508
796.3873	0.0223
796.5584	0.13
796.7294	-0.0962
796.9005	-0.1091
797.0715	0.014
797.2425	-0.028
797.4134	-0.0151
797.5844	0.0042
797.7553	-0.0097
797.9262	-0.0006
798.0971	-0.0869
798.2679	0.0127
798.4388	-0.0658
798.6096	-0.0627
798.7804	0.0438
798.9512	0.0366
799.122	0.0192
799.2927	-0.1273
799.4635	0.1015
799.6342	-0.0247
799.8049	0.0201
799.9755	-0.0379
800.1462	0.0006
800.3168	-0.0253
800.4874	0.0134
800.658	0.0229
800.8286	-0.0259
800.9991	0.0622
801.1696	-0.0608
801.3402	-0.112
801.5106	0.0321
801.6811	-0.0665
801.8516	-0.0141
802.022	-0.0231
802.1924	-0.1151
802.3628	-0.0623
802.5332	-0.062
802.7035	-0.0787
802.8739	0.0214
803.0442	0.0528
803.2145	-0.0668
803.3847	-0.0882
803.555	0.014
803.7252	0.0074
803.8954	-0.0096
804.0656	-0.0664
804.2358	-0.046
804.4059	0.1197
804.5761	0.0316
804.7462	-0.0763
804.9163	-0.1213
805.0864	-0.0323
805.2564	0.0294
805.4264	0.0284
805.5965	-0.0168
805.7665	0.0792
805.9364	-0.0765
806.1064	-0.0291
806.2763	0.0605
806.4462	-0.0234
806.6161	0.0014
806.786	-0.0617
806.9559	0.0386
807.1257	-0.0255
807.2955	0.0111
807.4653	-0.0219
807.6351	0.0133
807.8048	-0.0429
807.9746	-0.0211
808.1443	0.0708
808.314	-0.0064
808.4837	-0.0219
808.6533	-0.0124
808.8229	-0.0027
808.9926	-0.0214
809.1622	-0.0276
809.3317	-0.0501
809.5013	0.0669
809.6708	0.1447
809.8403	0.1188
810.0098	0.0731
810.1793	0.0342
810.3488	0.0316
810.5182	-0.0375
810.6876	0.0028
810.857	-0.132
811.0264	-0.099
811.1958	-0.0725
811.3651	-0.1181
811.5344	0.0457
811.7037	-0.1068
811.873	0.0539
812.0422	0.0429
812.2115	-0.0716
812.3807	0.0708
812.5499	0.0751
812.7191	0.0052
812.8882	-0.0371
813.0574	-0.1785
813.2265	-0.0327
813.3956	-0.0149
813.5646	0.103
813.7337	-0.1308
813.9027	-0.0201
814.0718	-0.0383
814.2407	-0.1048
814.4097	-0.0166
814.5787	-0.0334
814.7476	0.0376
814.9165	-0.0103
815.0854	-0.0569
815.2543	0.0447
815.4232	-0.1093
815.592	0.1439
815.7608	0.0636
815.9296	-0.0623
816.0984	-0.0022
816.2671	-0.122
816.4359	0.0942
816.6046	0.118
816.7733	-0.0825
816.942	0.0246
817.1106	-0.2094
817.2793	-0.0269
817.4479	-0.0786
817.6165	-0.0822
817.785	-0.0039
817.9536	0.0485
818.1221	0.0617
818.2906	0.0083
818.4591	-0.0252
818.6276	0.1568
818.7961	0.0308
818.9645	0.2172
819.1329	0.1151
819.3013	-0.0246
819.4697	0.0844
819.638	0.0539
819.8064	-0.1244
819.9747	-0.0564
820.143	-0.0054
820.3113	0.0487
820.4795	0.0281
820.6477	-0.0203
820.816	-0.0765
820.9842	-0.0764
821.1523	0.0797
821.3205	-0.0356
821.4886	-0.0127
821.6567	-0.0236
821.8248	-0.0056
821.9929	-0.0345
822.1609	-0.0235
822.329	0.1379
822.497	0.013
822.665	0.0283
822.833	-0.1483
823.0009	-0.0579
823.1688	-0.0821
823.3367	-0.2375
823.5046	0.0323
823.6725	0.0151
823.8404	-0.0452
824.0082	-0.0607
824.176	-0.0365
824.3438	0.07
824.5116	0.0764
824.6793	-0.0825
824.847	0.0252
825.0147	0.3387
825.1824	0.2656
825.3501	0.4261
825.5177	0.0099
825.6854	0.0782
825.853	0.0509
826.0206	-0.1603
826.1881	-0.0478
826.3557	0.0012
826.5232	0.0648
826.6907	0.0612
826.8582	-0.0293
827.0257	-0.1378
827.1931	-0.01
827.3605	-0.0844
827.528	-0.0613
827.6953	0.0668
827.8627	-0.0051
828.03	-0.0519
828.1974	-0.2078
828.3647	0.0766
828.532	0.0643
828.6992	-0.0082
828.8665	-0.1587
829.0337	-0.2325
829.2009	0.137
829.3681	0.0261
829.5352	-0.0268
829.7024	-0.078
829.8695	-0.0323
830.0366	0.0782
830.2037	0.0529
830.3707	-0.0725
830.5378	0.1722
830.7048	-0.1821
830.8718	0.0146
831.0388	0.2453
831.2057	-0.1757
831.3727	0.5657
831.5396	-0.1977
831.7065	0.1977
831.8734	-0.4625
832.0402	0.1402
832.2071	0.06
832.3739	0.0747
832.5407	-0
832.7075	-0.1012
832.8742	-0.0057
833.041	-0.1276
833.2077	-0.0673
833.3744	0.2055
833.541	-0.0267
833.7077	-0.0253
833.8743	-0.0812
834.0409	-0.0683
834.2075	0.0318
834.3741	0.0818
834.5407	-0.037
834.7072	-0.0294
834.8737	0.2345
835.0402	-0.5596
835.2067	0.4277
835.3731	0.3527
835.5395	0.0014
835.706	-0.1612
835.8723	-0.0545
836.0387	0.0677
836.2051	0.0402
836.3714	-0.0971
836.5377	-0.3029
836.704	-0.0183
836.8703	-0.1933
837.0365	0.1554
837.2027	-0.6011
837.3689	0.3513
837.5351	-0.189
837.7013	0.1878
837.8674	-0.8463
838.0335	-0.1575
838.1997	0.0581
838.3657	-0
838.5318	0.2322
838.6978	0.2497
838.8639	-0.1507
839.0299	0.5152
839.1958	-0.0185
839.3618	0.6576
839.5277	-0.2528
839.6937	-0.4986
839.8596	0.3806
840.0254	0.0602
840.1913	0.3355
840.3571	0.1313
840.523	0.2167
840.6888	0.0234
840.8545	0.0291
841.0203	-0.0044
841.186	-0.111
841.3517	0.1023
841.5174	0.2948
841.6831	0.106
841.8488	0.16
842.0144	0.78
842.18	0.2454
842.3456	0.2506
842.5112	0.0617
842.6767	-0.0869
842.8422	-0.0264
843.0077	0.1923
843.1732	-0.0399
843.3387	-0.044
843.5042	-0.0656
843.6696	-0
843.835	-0.3169
844.0004	-0.0905
844.1657	0.3098
844.3311	-0.4282
844.4964	0.3426
844.6617	-0
844.827	-0
844.9923	-0.0638
845.1575	-0
845.3227	0.2964
845.4879	-0.1066
845.6531	-0.3764
845.8183	-0.1146
845.9834	-0
846.1485	-0.5033
846.3136	0.9012
846.4787	-0.2146
846.6438	0.171
846.8088	-0
846.9738	0.0232
847.1388	0.2231
847.3038	-0.1629
847.4687	-0
847.6337	-0.0058
847.7986	0.3152
847.9635	0.0049
848.1284	-0
848.2932	-0.152
848.458	0.2205
848.6228	0.4217
848.7876	0.4601
848.9524	-0.1001
849.1172	-0.0368
849.2819	-0
849.4466	-0.0935
849.6113	-0.0076
849.7759	0.3095
849.9406	-0.1882
850.1052	0.0139
850.2698	-1.3318
850.4344	1.1631
850.599	-0
850.7635	0.6365
850.928	-0
851.0925	0.2202
851.257	-0
851.4215	-0
851.5859	0.1761
851.7503	-0
851.9147	-0
852.0791	-0.645
852.2434	-0.1186
852.4078	0.0557
852.5721	0.1266
852.7364	0.2916
852.9007	-0.2539
853.0649	0.4612
853.2291	0.5752
853.3934	-0.0602
853.5575	-0.1757
853.7217	-0.4185
853.8859	-0
854.05	-0.986
854.2141	-0
854.3782	0.278
854.5423	-0.8359
854.7063	0.0725
854.8703	0.2842
855.0343	-0.0155
855.1983	0.1019
855.3623	0.3953
855.5262	-0.7962
855.6901	1.231
855.854	0.3298
856.0179	-0
856.1818	-0.5434
856.3456	0.9714
856.5094	-0
856.6732	-0.5168
856.837	0.182
857.0008	0.3383
857.1645	-0
857.3282	0.4184
857.4919	0.1677
857.6556	0.4067
857.8192	-0.0537
857.9828	-0.3232
858.1465	0.3272
858.31	-0
858.4736	-0
858.6372	-0.3574
858.8007	-1.539
858.9642	0.4075
859.1277	0.2695
859.2911	-0.0827
859.4546	0.7426
859.618	-0.3331
859.7814	-0
859.9448	-0.2961
860.1081	-0
860.2715	-0
860.4348	-0.237
860.5981	-0
860.7614	-0
860.9246	-0.2287
861.0879	-0.478
861.2511	0.1677
861.4143	-0
861.5774	0.0982
861.7406	-0.3074
861.9037	0.3081
862.0668	-0.5864
862.2299	-1.743
862.393	-0
862.556	-0
862.7191	0.8578
862.8821	-0.1599
863.0451	0.3132
863.208	-0
863.371	-0.0568
863.5339	-0.0053
863.6968	-0.1631
863.8597	-0
864.0225	-0
864.1854	-0
864.3482	-0.2865
864.511	0.0772
864.6737	-0
864.8365	0.3117
864.9992	-0.5387
865.1619	0.3189
865.3246	-0
865.4873	-1.0301
865.65	-0
865.8126	-0
865.9752	0.1049
866.1378	-0.8943
866.3004	-0.0458
866.4629	0.4616
866.6254	-0
866.7879	-0.0277
866.9504	0.0257
867.1129	0.043
867.2753	-0.3148
867.4377	0.6803
867.6001	0.4462
867.7625	0.0533
867.9249	0.1886
868.0872	-0
868.2495	0.2686
868.4118	-0
868.5741	-0.4607
868.7363	-0
868.8986	-0.6329
869.0608	-0
869.223	0.3379
869.3851	-0
869.5473	-1.2693
869.7094	0.1377
869.8715	-0
870.0336	0.0596
870.1957	-0.6801
870.3577	-0.044
870.5197	0.377
870.6817	-0
870.8437	0.6478
871.0057	-0
871.1676	0.7581
871.3295	0.03
871.4914	-0
871.6533	-0
871.8151	-0
871.977	0.6996
872.1388	-1.2723
872.3006	0.4514
872.4623	0.2819
872.6241	-2.5555
872.7858	0.0915
872.9475	-0.6465
873.1092	0.165
873.2709	0.1119
873.4325	-0
873.5941	-0.8272
873.7557	-0.4753
873.9173	-1.0778
874.0789	0.3063
874.2404	-0.3773
874.4019	0.235
874.5634	-0
874.7249	0.7879
874.8863	-0
875.0478	-0.2597
875.2092	-0
875.3706	0.5055
875.5319	-0.0274
875.6933	0.1761
875.8546	-0.175
876.0159	-0.1204
876.1772	-0.8653
876.3385	-0.4756
876.4997	0.6699
876.6609	-1.0778
876.8221	-0
876.9833	-0
877.1445	-0.0775
877.3056	-0.0724
877.4667	-1.5643
877.6278	0.0875
877.7889	-0.1475
877.9499	-0.0774
878.111	-0.0883
878.272	-0.782
878.433	-0
878.5939	-0.0335
878.7549	-0.6931
878.9158	-0.43
879.0767	-0
879.2376	-0
879.3984	-0.2078
879.5593	-0.4986
879.7201	0.1203
879.8809	-0.3295
880.0417	0.0889
880.2024	0.4951
880.3632	0.0835
880.5239	-0
880.6846	0.2819
880.8452	-0
881.0059	0.1337
881.1665	0.2072
881.3271	-0.167
881.4877	-0.0066
881.6483	-1.037
881.8088	-0
881.9693	0.1843
882.1298	0.1843
882.2903	0.1843
