Data from D4ACN5uM480nmA_Absorbance_12-07-59-754.txt Node
Date: Fri Feb 21 12:07:59 GMT 2025
User: LASERRRRR
Spectrometer: FLMT03099
Trigger mode: 0
Integration Time (sec): 1.500000E-2
Scans to average: 1
Electric dark correction enabled: true
Nonlinearity correction enabled: false
Boxcar width: 0
XAxis mode: Wavelengths
Number of Pixels in Spectrum: 3648
>>>>>Begin Spectral Data<<<<<
179.3399	-0.2251
179.5586	-0.2251
179.7771	-0.2251
179.9957	0.3636
180.2143	-0.5141
180.4329	-0
180.6514	-0.2488
180.8699	-0.2393
181.0885	-0.3214
181.307	-0.0379
181.5255	-0.0493
181.744	-0
181.9625	0.4771
182.181	-0
182.3994	-0
182.6179	-0.6048
182.8363	-0.3265
183.0547	-0
183.2732	0.1699
183.4916	0.2258
183.71	0.131
183.9284	0.1055
184.1467	0.0668
184.3651	0.2167
184.5835	-0.0246
184.8018	0.1046
185.0201	0.1953
185.2385	-0.1231
185.4568	0.1994
185.6751	0.2016
185.8934	0.1934
186.1117	0.0006
186.3299	0.0711
186.5482	0.0101
186.7664	0.1604
186.9847	0.2567
187.2029	-0.0554
187.4211	0.2672
187.6393	0.394
187.8575	0.0702
188.0757	0.1388
188.2939	0.0769
188.512	0.1459
188.7302	-0.0403
188.9483	0.2871
189.1665	0.3694
189.3846	-0.1735
189.6027	0.1437
189.8208	0.3552
190.0389	0.2746
190.257	0.1852
190.475	0.1188
190.6931	0.3299
190.9111	0.2426
191.1292	0.1252
191.3472	0.1498
191.5652	0.1947
191.7832	0.2631
192.0012	0.1875
192.2192	0.2884
192.4371	0.2617
192.6551	0.3356
192.873	0.2791
193.091	0.3148
193.3089	0.1302
193.5268	0.4207
193.7447	0.3096
193.9626	0.6221
194.1805	0.3559
194.3984	0.5097
194.6162	0.6091
194.8341	0.3793
195.0519	0.5966
195.2697	0.5125
195.4875	0.5413
195.7054	0.4869
195.9231	0.4781
196.1409	0.5621
196.3587	0.5505
196.5765	0.4977
196.7942	0.6341
197.012	0.5087
197.2297	0.5289
197.4474	0.552
197.6651	0.5917
197.8828	0.5201
198.1005	0.6748
198.3182	0.5496
198.5358	0.6101
198.7535	0.5636
198.9711	0.5862
199.1888	0.5548
199.4064	0.6801
199.624	0.6004
199.8416	0.4621
200.0592	0.6322
200.2767	0.5518
200.4943	0.6139
200.7119	0.6613
200.9294	0.6121
201.1469	0.6112
201.3645	0.6145
201.582	0.4759
201.7995	0.5636
202.017	0.653
202.2344	0.5883
202.4519	0.5533
202.6694	0.5964
202.8868	0.5103
203.1042	0.5449
203.3217	0.5439
203.5391	0.5182
203.7565	0.5337
203.9739	0.5316
204.1913	0.5027
204.4086	0.5439
204.626	0.5192
204.8433	0.4932
205.0607	0.475
205.278	0.5301
205.4953	0.4749
205.7126	0.4462
205.9299	0.449
206.1472	0.4679
206.3644	0.4938
206.5817	0.4392
206.7989	0.4528
207.0162	0.4422
207.2334	0.4413
207.4506	0.4147
207.6678	0.4507
207.885	0.4402
208.1022	0.4396
208.3194	0.4335
208.5365	0.4304
208.7537	0.4234
208.9708	0.4554
209.1879	0.4016
209.405	0.4085
209.6222	0.3893
209.8392	0.4075
210.0563	0.4162
210.2734	0.379
210.4905	0.3846
210.7075	0.4202
210.9245	0.4031
211.1416	0.4016
211.3586	0.4084
211.5756	0.393
211.7926	0.3854
212.0096	0.3844
212.2265	0.383
212.4435	0.4288
212.6604	0.3899
212.8774	0.3797
213.0943	0.4055
213.3112	0.4066
213.5281	0.4179
213.745	0.4088
213.9619	0.3903
214.1788	0.3939
214.3956	0.4208
214.6125	0.4039
214.8293	0.3922
215.0461	0.3808
215.2629	0.396
215.4798	0.3732
215.6965	0.398
215.9133	0.4024
216.1301	0.3868
216.3469	0.3889
216.5636	0.4085
216.7803	0.4074
216.9971	0.4059
217.2138	0.3912
217.4305	0.4032
217.6472	0.4201
217.8639	0.4131
218.0805	0.4182
218.2972	0.4008
218.5138	0.4274
218.7305	0.4146
218.9471	0.4133
219.1637	0.4194
219.3803	0.4124
219.5969	0.4037
219.8135	0.4208
220.0301	0.413
220.2466	0.4216
220.4632	0.4181
220.6797	0.4087
220.8962	0.4277
221.1127	0.431
221.3292	0.4237
221.5457	0.4375
221.7622	0.4343
221.9787	0.4323
222.1951	0.4551
222.4116	0.4491
222.628	0.4296
222.8444	0.4379
223.0608	0.4369
223.2772	0.442
223.4936	0.4539
223.71	0.4373
223.9264	0.4432
224.1427	0.4426
224.3591	0.4632
224.5754	0.4504
224.7917	0.4493
225.008	0.4663
225.2243	0.4621
225.4406	0.4655
225.6569	0.4733
225.8732	0.4505
226.0894	0.4629
226.3057	0.4628
226.5219	0.461
226.7381	0.4608
226.9543	0.4774
227.1705	0.4706
227.3867	0.4767
227.6029	0.4708
227.8191	0.4884
228.0352	0.4902
228.2513	0.4985
228.4675	0.4952
228.6836	0.4956
228.8997	0.4957
229.1158	0.4856
229.3319	0.5044
229.548	0.4851
229.764	0.4924
229.9801	0.5103
230.1961	0.5098
230.4121	0.4994
230.6282	0.5006
230.8442	0.5074
231.0602	0.5284
231.2761	0.5073
231.4921	0.5125
231.7081	0.5021
231.924	0.5184
232.14	0.5107
232.3559	0.5344
232.5718	0.5206
232.7877	0.5386
233.0036	0.5125
233.2195	0.5403
233.4353	0.5434
233.6512	0.5243
233.867	0.5389
234.0829	0.5291
234.2987	0.5284
234.5145	0.5168
234.7303	0.5362
234.9461	0.5365
235.1619	0.5369
235.3776	0.5307
235.5934	0.5437
235.8091	0.5244
236.0249	0.5266
236.2406	0.5344
236.4563	0.5408
236.672	0.5266
236.8877	0.5305
237.1034	0.5302
237.319	0.5367
237.5347	0.5251
237.7503	0.5331
237.966	0.5442
238.1816	0.5331
238.3972	0.5317
238.6128	0.5427
238.8284	0.5307
239.0439	0.5378
239.2595	0.5326
239.475	0.5278
239.6906	0.5214
239.9061	0.5385
240.1216	0.5258
240.3371	0.5238
240.5526	0.5137
240.7681	0.5282
240.9836	0.5051
241.199	0.5168
241.4145	0.4996
241.6299	0.4829
241.8453	0.5015
242.0607	0.4904
242.2761	0.4799
242.4915	0.4757
242.7069	0.4718
242.9223	0.459
243.1376	0.4589
243.353	0.4435
243.5683	0.4366
243.7836	0.425
243.9989	0.4246
244.2142	0.4107
244.4295	0.404
244.6448	0.3997
244.86	0.3931
245.0753	0.3805
245.2905	0.38
245.5057	0.3691
245.721	0.3543
245.9362	0.3494
246.1514	0.3377
246.3665	0.3408
246.5817	0.3283
246.7969	0.3245
247.012	0.3257
247.2271	0.3076
247.4423	0.3092
247.6574	0.3066
247.8725	0.3044
248.0876	0.2883
248.3026	0.2844
248.5177	0.2795
248.7328	0.2792
248.9478	0.27
249.1628	0.2631
249.3779	0.2707
249.5929	0.2663
249.8079	0.2548
250.0228	0.2484
250.2378	0.2486
250.4528	0.2508
250.6677	0.2423
250.8827	0.2352
251.0976	0.2442
251.3125	0.2357
251.5274	0.2326
251.7423	0.2318
251.9572	0.22
252.172	0.216
252.3869	0.2168
252.6017	0.2184
252.8166	0.2206
253.0314	0.2133
253.2462	0.2135
253.461	0.2115
253.6758	0.2121
253.8906	0.2068
254.1053	0.2026
254.3201	0.2084
254.5348	0.2012
254.7496	0.2044
254.9643	0.2017
255.179	0.2054
255.3937	0.1986
255.6083	0.1996
255.823	0.196
256.0377	0.1991
256.2523	0.1948
256.467	0.1963
256.6816	0.1976
256.8962	0.1948
257.1108	0.1943
257.3254	0.1894
257.54	0.1937
257.7545	0.1988
257.9691	0.1846
258.1836	0.1886
258.3981	0.1865
258.6127	0.1856
258.8272	0.1902
259.0417	0.179
259.2561	0.1876
259.4706	0.1884
259.6851	0.1876
259.8995	0.1862
260.114	0.182
260.3284	0.1869
260.5428	0.1833
260.7572	0.1851
260.9716	0.1827
261.186	0.1787
261.4003	0.1838
261.6147	0.1852
261.829	0.1813
262.0433	0.1849
262.2577	0.1907
262.472	0.1805
262.6863	0.1814
262.9005	0.1848
263.1148	0.1835
263.3291	0.1902
263.5433	0.1822
263.7576	0.1793
263.9718	0.1857
264.186	0.1847
264.4002	0.1841
264.6144	0.1878
264.8286	0.1954
265.0427	0.1899
265.2569	0.1876
265.471	0.1858
265.6851	0.1835
265.8993	0.1875
266.1134	0.1877
266.3275	0.1867
266.5415	0.1906
266.7556	0.1808
266.9697	0.1812
267.1837	0.1816
267.3978	0.1927
267.6118	0.1827
267.8258	0.1848
268.0398	0.1787
268.2538	0.1812
268.4677	0.1774
268.6817	0.1762
268.8957	0.1806
269.1096	0.1774
269.3235	0.1863
269.5374	0.1785
269.7514	0.1791
269.9652	0.1821
270.1791	0.182
270.393	0.1844
270.6068	0.1648
270.8207	0.1773
271.0345	0.1729
271.2483	0.176
271.4622	0.1743
271.676	0.1755
271.8897	0.1709
272.1035	0.1655
272.3173	0.1681
272.531	0.1741
272.7448	0.166
272.9585	0.1766
273.1722	0.1783
273.3859	0.1714
273.5996	0.1717
273.8133	0.1658
274.0269	0.1771
274.2406	0.17
274.4542	0.171
274.6679	0.1668
274.8815	0.1729
275.0951	0.1754
275.3087	0.1777
275.5223	0.1711
275.7358	0.1812
275.9494	0.1717
276.1629	0.1791
276.3765	0.1718
276.59	0.1746
276.8035	0.1754
277.017	0.1783
277.2305	0.1755
277.444	0.1756
277.6574	0.175
277.8709	0.1752
278.0843	0.1787
278.2978	0.174
278.5112	0.1822
278.7246	0.1812
278.938	0.1787
279.1513	0.18
279.3647	0.1819
279.5781	0.1758
279.7914	0.1842
280.0047	0.1821
280.2181	0.1767
280.4314	0.1808
280.6447	0.1857
280.8579	0.1742
281.0712	0.1812
281.2845	0.1825
281.4977	0.1854
281.711	0.1807
281.9242	0.1797
282.1374	0.1831
282.3506	0.1923
282.5638	0.1845
282.7769	0.1855
282.9901	0.181
283.2033	0.1862
283.4164	0.1811
283.6295	0.1832
283.8426	0.1839
284.0557	0.1858
284.2688	0.1887
284.4819	0.1905
284.695	0.1953
284.908	0.1929
285.1211	0.1856
285.3341	0.1926
285.5471	0.1896
285.7601	0.1869
285.9731	0.1883
286.1861	0.1862
286.3991	0.1958
286.612	0.1933
286.825	0.1871
287.0379	0.2006
287.2508	0.1954
287.4637	0.1964
287.6766	0.1961
287.8895	0.1911
288.1024	0.1931
288.3152	0.1958
288.5281	0.1943
288.7409	0.1995
288.9538	0.1966
289.1666	0.1978
289.3794	0.201
289.5922	0.197
289.8049	0.1996
290.0177	0.2012
290.2304	0.203
290.4432	0.2015
290.6559	0.191
290.8686	0.1981
291.0813	0.1976
291.294	0.2018
291.5067	0.2025
291.7194	0.1996
291.932	0.202
292.1447	0.1999
292.3573	0.1968
292.5699	0.2023
292.7825	0.1977
292.9951	0.1967
293.2077	0.2006
293.4203	0.2017
293.6328	0.1946
293.8454	0.2019
294.0579	0.2049
294.2704	0.2026
294.4829	0.1956
294.6954	0.1981
294.9079	0.2055
295.1204	0.2006
295.3328	0.1934
295.5453	0.1986
295.7577	0.1962
295.9701	0.2011
296.1825	0.199
296.3949	0.2062
296.6073	0.2031
296.8197	0.2007
297.0321	0.1983
297.2444	0.1991
297.4567	0.1956
297.6691	0.1992
297.8814	0.1977
298.0937	0.2012
298.306	0.1944
298.5182	0.2042
298.7305	0.1982
298.9428	0.2008
299.155	0.1973
299.3672	0.2013
299.5794	0.1953
299.7916	0.2044
300.0038	0.1894
300.216	0.196
300.4282	0.1971
300.6403	0.1937
300.8525	0.2013
301.0646	0.1954
301.2767	0.2012
301.4888	0.1958
301.7009	0.1931
301.913	0.1973
302.125	0.2011
302.3371	0.1906
302.5491	0.197
302.7612	0.1917
302.9732	0.1932
303.1852	0.1994
303.3972	0.1923
303.6092	0.1894
303.8211	0.192
304.0331	0.192
304.245	0.1909
304.457	0.1978
304.6689	0.1929
304.8808	0.192
305.0927	0.1906
305.3046	0.1869
305.5164	0.1865
305.7283	0.1868
305.9401	0.1809
306.152	0.1816
306.3638	0.1824
306.5756	0.1858
306.7874	0.1803
306.9992	0.1817
307.2109	0.1723
307.4227	0.1728
307.6344	0.1753
307.8462	0.1667
308.0579	0.1633
308.2696	0.1655
308.4813	0.1619
308.693	0.1653
308.9046	0.1607
309.1163	0.1604
309.328	0.1559
309.5396	0.1629
309.7512	0.1514
309.9628	0.1477
310.1744	0.1588
310.386	0.143
310.5976	0.1459
310.8091	0.1473
311.0207	0.1472
311.2322	0.1452
311.4437	0.144
311.6552	0.1431
311.8667	0.1374
312.0782	0.1474
312.2897	0.1383
312.5012	0.1347
312.7126	0.1328
312.924	0.1302
313.1355	0.1327
313.3469	0.1294
313.5583	0.1289
313.7696	0.1289
313.981	0.1228
314.1924	0.1325
314.4037	0.1203
314.6151	0.1249
314.8264	0.1282
315.0377	0.1231
315.249	0.122
315.4603	0.1264
315.6716	0.1269
315.8828	0.1195
316.0941	0.1212
316.3053	0.1224
316.5165	0.123
316.7277	0.1244
316.9389	0.1184
317.1501	0.1184
317.3613	0.1171
317.5724	0.1186
317.7836	0.1215
317.9947	0.1144
318.2058	0.1135
318.417	0.1166
318.6281	0.1135
318.8391	0.1231
319.0502	0.1156
319.2613	0.1108
319.4723	0.1164
319.6834	0.1142
319.8944	0.1197
320.1054	0.1192
320.3164	0.1131
320.5274	0.1133
320.7383	0.1114
320.9493	0.1137
321.1602	0.1121
321.3712	0.1196
321.5821	0.1195
321.793	0.1099
322.0039	0.1129
322.2148	0.114
322.4257	0.1175
322.6365	0.1131
322.8474	0.1143
323.0582	0.1183
323.269	0.1127
323.4798	0.1122
323.6906	0.117
323.9014	0.1138
324.1122	0.1115
324.3229	0.1223
324.5337	0.1198
324.7444	0.1135
324.9551	0.1207
325.1658	0.1208
325.3765	0.1198
325.5872	0.1191
325.7979	0.1167
326.0085	0.1173
326.2192	0.1113
326.4298	0.1187
326.6404	0.1187
326.851	0.1195
327.0616	0.1176
327.2722	0.1242
327.4828	0.1147
327.6933	0.1235
327.9039	0.1124
328.1144	0.112
328.3249	0.1193
328.5354	0.1187
328.7459	0.121
328.9564	0.1247
329.1669	0.1207
329.3773	0.1215
329.5878	0.12
329.7982	0.12
330.0086	0.1248
330.219	0.125
330.4294	0.1258
330.6398	0.1265
330.8502	0.1269
331.0605	0.1203
331.2708	0.1234
331.4812	0.1216
331.6915	0.1146
331.9018	0.1227
332.1121	0.1283
332.3224	0.1285
332.5326	0.1259
332.7429	0.1173
332.9531	0.1206
333.1633	0.1282
333.3735	0.1247
333.5837	0.1249
333.7939	0.1289
334.0041	0.1243
334.2143	0.1287
334.4244	0.1216
334.6346	0.1205
334.8447	0.1253
335.0548	0.1245
335.2649	0.1276
335.475	0.1266
335.685	0.1226
335.8951	0.126
336.1051	0.1277
336.3152	0.1244
336.5252	0.1297
336.7352	0.1196
336.9452	0.1277
337.1552	0.1232
337.3652	0.1296
337.5751	0.119
337.7851	0.1228
337.995	0.1305
338.2049	0.1304
338.4148	0.1225
338.6247	0.1242
338.8346	0.1266
339.0445	0.1329
339.2543	0.1344
339.4642	0.1365
339.674	0.1383
339.8838	0.1368
340.0936	0.1352
340.3034	0.1355
340.5132	0.1297
340.7229	0.1357
340.9327	0.1364
341.1424	0.1372
341.3522	0.1303
341.5619	0.1336
341.7716	0.1425
341.9813	0.1419
342.1909	0.1412
342.4006	0.1401
342.6102	0.1336
342.8199	0.1387
343.0295	0.1372
343.2391	0.1382
343.4487	0.1484
343.6583	0.145
343.8679	0.1478
344.0774	0.1422
344.287	0.1395
344.4965	0.1426
344.706	0.1512
344.9155	0.139
345.125	0.1515
345.3345	0.1402
345.544	0.1481
345.7534	0.1472
345.9629	0.1574
346.1723	0.1495
346.3817	0.1454
346.5911	0.1454
346.8005	0.1526
347.0099	0.1565
347.2193	0.1513
347.4286	0.1519
347.638	0.1574
347.8473	0.1514
348.0566	0.156
348.2659	0.1512
348.4752	0.1551
348.6845	0.1624
348.8937	0.1595
349.103	0.1514
349.3122	0.1599
349.5214	0.1565
349.7306	0.1611
349.9398	0.1628
350.149	0.1655
350.3582	0.1546
350.5674	0.1634
350.7765	0.1686
350.9856	0.1618
351.1948	0.1577
351.4039	0.1574
351.613	0.1729
351.822	0.1754
352.0311	0.1679
352.2402	0.1721
352.4492	0.1694
352.6582	0.1652
352.8672	0.168
353.0762	0.1706
353.2852	0.1799
353.4942	0.17
353.7032	0.1718
353.9121	0.1733
354.1211	0.1749
354.33	0.182
354.5389	0.1801
354.7478	0.1765
354.9567	0.1728
355.1655	0.1784
355.3744	0.1781
355.5833	0.1842
355.7921	0.1761
356.0009	0.1759
356.2097	0.1868
356.4185	0.1857
356.6273	0.1848
356.8361	0.1906
357.0448	0.1882
357.2536	0.1916
357.4623	0.1783
357.671	0.1788
357.8797	0.1877
358.0884	0.1901
358.2971	0.193
358.5057	0.1874
358.7144	0.1939
358.923	0.1964
359.1316	0.1905
359.3402	0.1963
359.5488	0.1943
359.7574	0.1976
359.966	0.2036
360.1746	0.1938
360.3831	0.2064
360.5916	0.2013
360.8002	0.2083
361.0087	0.2175
361.2172	0.2084
361.4256	0.2003
361.6341	0.2103
361.8426	0.209
362.051	0.2185
362.2594	0.219
362.4678	0.2164
362.6762	0.2202
362.8846	0.2255
363.093	0.2139
363.3014	0.2283
363.5097	0.2178
363.718	0.2249
363.9264	0.2152
364.1347	0.2336
364.343	0.2265
364.5513	0.2209
364.7595	0.2308
364.9678	0.2288
365.176	0.235
365.3842	0.2238
365.5925	0.2335
365.8007	0.24
366.0089	0.2367
366.217	0.2372
366.4252	0.2321
366.6333	0.2302
366.8415	0.2359
367.0496	0.242
367.2577	0.2522
367.4658	0.2446
367.6739	0.2419
367.882	0.246
368.09	0.2423
368.2981	0.2453
368.5061	0.2523
368.7141	0.2496
368.9221	0.2497
369.1301	0.2497
369.3381	0.2633
369.5461	0.2596
369.754	0.2509
369.962	0.2573
370.1699	0.2504
370.3778	0.2622
370.5857	0.2537
370.7936	0.2577
371.0015	0.2574
371.2093	0.2536
371.4172	0.2587
371.625	0.2679
371.8328	0.2629
372.0406	0.2599
372.2484	0.2621
372.4562	0.2609
372.664	0.2647
372.8717	0.2693
373.0795	0.2727
373.2872	0.2824
373.4949	0.2786
373.7026	0.2832
373.9103	0.2621
374.118	0.2691
374.3256	0.2729
374.5333	0.2909
374.7409	0.2646
374.9485	0.2643
375.1561	0.2844
375.3637	0.2685
375.5713	0.2725
375.7789	0.2797
375.9864	0.2755
376.194	0.2842
376.4015	0.2816
376.609	0.2903
376.8165	0.2788
377.024	0.2834
377.2315	0.2854
377.4389	0.2799
377.6464	0.2844
377.8538	0.2789
378.0612	0.2865
378.2686	0.2917
378.476	0.2859
378.6834	0.2786
378.8908	0.2973
379.0981	0.2967
379.3055	0.296
379.5128	0.2966
379.7201	0.2954
379.9274	0.286
380.1347	0.3021
380.342	0.3043
380.5492	0.2976
380.7565	0.2962
380.9637	0.2994
381.1709	0.2985
381.3781	0.3013
381.5853	0.299
381.7925	0.3065
381.9997	0.3083
382.2068	0.301
382.4139	0.3119
382.6211	0.3204
382.8282	0.3022
383.0353	0.2957
383.2424	0.3055
383.4494	0.3129
383.6565	0.3151
383.8635	0.3141
384.0706	0.317
384.2776	0.3196
384.4846	0.3198
384.6916	0.3035
384.8986	0.3143
385.1055	0.3165
385.3125	0.3149
385.5194	0.3054
385.7263	0.3159
385.9333	0.3113
386.1402	0.3075
386.347	0.321
386.5539	0.308
386.7608	0.3097
386.9676	0.3075
387.1744	0.3077
387.3813	0.3127
387.5881	0.3175
387.7948	0.3148
388.0016	0.3105
388.2084	0.3147
388.4151	0.3039
388.6219	0.3034
388.8286	0.3159
389.0353	0.2958
389.242	0.3114
389.4487	0.2977
389.6553	0.3047
389.862	0.3071
390.0686	0.306
390.2753	0.2938
390.4819	0.3042
390.6885	0.2977
390.8951	0.3039
391.1016	0.3067
391.3082	0.2879
391.5147	0.2948
391.7213	0.3
391.9278	0.3044
392.1343	0.299
392.3408	0.2952
392.5473	0.2822
392.7537	0.2927
392.9602	0.2844
393.1666	0.2879
393.373	0.2886
393.5794	0.2925
393.7858	0.2864
393.9922	0.2896
394.1986	0.2778
394.4049	0.2833
394.6113	0.2818
394.8176	0.2715
395.0239	0.2748
395.2302	0.2674
395.4365	0.2733
395.6428	0.2789
395.8491	0.2734
396.0553	0.2685
396.2615	0.2775
396.4678	0.2759
396.674	0.2722
396.8802	0.2661
397.0863	0.2636
397.2925	0.2751
397.4987	0.2674
397.7048	0.2662
397.9109	0.2785
398.117	0.2755
398.3231	0.2722
398.5292	0.2696
398.7353	0.262
398.9413	0.2685
399.1474	0.2752
399.3534	0.2688
399.5594	0.2688
399.7654	0.274
399.9714	0.2692
400.1774	0.2678
400.3833	0.2665
400.5893	0.2654
400.7952	0.2671
401.0011	0.2603
401.207	0.2644
401.4129	0.2687
401.6188	0.2644
401.8247	0.2656
402.0305	0.2591
402.2364	0.257
402.4422	0.2719
402.648	0.2714
402.8538	0.2776
403.0596	0.2629
403.2654	0.267
403.4711	0.2696
403.6768	0.2759
403.8826	0.2621
404.0883	0.2558
404.294	0.2699
404.4997	0.2599
404.7054	0.2636
404.911	0.2612
405.1167	0.2738
405.3223	0.267
405.5279	0.2721
405.7335	0.2651
405.9391	0.2671
406.1447	0.2759
406.3502	0.2795
406.5558	0.2754
406.7613	0.2699
406.9668	0.2607
407.1724	0.2698
407.3778	0.2591
407.5833	0.2584
407.7888	0.2768
407.9942	0.2605
408.1997	0.2619
408.4051	0.2665
408.6105	0.269
408.8159	0.2686
409.0213	0.2602
409.2267	0.2665
409.432	0.2686
409.6374	0.2703
409.8427	0.2779
410.048	0.2611
410.2533	0.2528
410.4586	0.2682
410.6639	0.2696
410.8691	0.2659
411.0744	0.2641
411.2796	0.2667
411.4848	0.2595
411.69	0.2652
411.8952	0.2775
412.1004	0.2649
412.3056	0.2576
412.5107	0.2606
412.7158	0.2633
412.921	0.244
413.1261	0.2551
413.3312	0.2572
413.5362	0.2541
413.7413	0.2653
413.9464	0.2659
414.1514	0.2591
414.3564	0.2501
414.5614	0.257
414.7664	0.2636
414.9714	0.2623
415.1764	0.2569
415.3813	0.2565
415.5863	0.2625
415.7912	0.2586
415.9961	0.2612
416.201	0.2671
416.4059	0.2532
416.6108	0.2533
416.8156	0.2562
417.0205	0.2546
417.2253	0.2625
417.4301	0.2642
417.6349	0.2533
417.8397	0.266
418.0445	0.2615
418.2492	0.2538
418.454	0.2552
418.6587	0.2527
418.8634	0.2575
419.0681	0.2549
419.2728	0.2543
419.4775	0.2647
419.6822	0.247
419.8868	0.2517
420.0915	0.252
420.2961	0.2385
420.5007	0.2495
420.7053	0.2549
420.9099	0.251
421.1144	0.2415
421.319	0.2306
421.5235	0.2378
421.728	0.2346
421.9325	0.2451
422.137	0.2445
422.3415	0.2448
422.546	0.2356
422.7504	0.2447
422.9549	0.2318
423.1593	0.2435
423.3637	0.2355
423.5681	0.2387
423.7725	0.2409
423.9769	0.2343
424.1812	0.2276
424.3856	0.2382
424.5899	0.2418
424.7942	0.225
424.9985	0.2225
425.2028	0.2279
425.4071	0.2153
425.6113	0.2298
425.8156	0.2293
426.0198	0.2225
426.224	0.2212
426.4282	0.2253
426.6324	0.219
426.8366	0.2182
427.0407	0.2227
427.2449	0.2171
427.449	0.2145
427.6531	0.2235
427.8572	0.2248
428.0613	0.2062
428.2654	0.2137
428.4694	0.1977
428.6735	0.2032
428.8775	0.2105
429.0815	0.2096
429.2855	0.1986
429.4895	0.1931
429.6935	0.1926
429.8975	0.2025
430.1014	0.1966
430.3053	0.1954
430.5093	0.1933
430.7132	0.1936
430.9171	0.18
431.1209	0.1844
431.3248	0.1991
431.5286	0.1727
431.7325	0.191
431.9363	0.1783
432.1401	0.1806
432.3439	0.1728
432.5477	0.1791
432.7514	0.1713
432.9552	0.1704
433.1589	0.1675
433.3627	0.1766
433.5664	0.1693
433.7701	0.1678
433.9737	0.1643
434.1774	0.1701
434.3811	0.163
434.5847	0.1578
434.7883	0.1622
434.9919	0.1552
435.1955	0.1556
435.3991	0.148
435.6027	0.1584
435.8062	0.1494
436.0098	0.1459
436.2133	0.1523
436.4168	0.1532
436.6203	0.1395
436.8238	0.146
437.0272	0.1439
437.2307	0.136
437.4341	0.1317
437.6375	0.1287
437.841	0.1331
438.0443	0.1425
438.2477	0.1206
438.4511	0.1293
438.6545	0.1348
438.8578	0.1281
439.0611	0.1237
439.2644	0.1109
439.4677	0.1175
439.671	0.1108
439.8743	0.1112
440.0775	0.1134
440.2808	0.1224
440.484	0.1083
440.6872	0.1064
440.8904	0.1068
441.0936	0.1119
441.2967	0.095
441.4999	0.1044
441.703	0.1093
441.9062	0.102
442.1093	0.0938
442.3124	0.0976
442.5155	0.0954
442.7185	0.0832
442.9216	0.0939
443.1246	0.0914
443.3276	0.0843
443.5307	0.0845
443.7337	0.0839
443.9366	0.0872
444.1396	0.0748
444.3426	0.0858
444.5455	0.0745
444.7484	0.075
444.9513	0.0711
445.1542	0.071
445.3571	0.0692
445.56	0.0815
445.7628	0.0661
445.9657	0.0752
446.1685	0.0763
446.3713	0.0728
446.5741	0.061
446.7769	0.0731
446.9797	0.0646
447.1824	0.0689
447.3852	0.0568
447.5879	0.0654
447.7906	0.0613
447.9933	0.065
448.196	0.046
448.3986	0.0541
448.6013	0.0534
448.8039	0.0527
449.0066	0.0522
449.2092	0.0416
449.4118	0.0478
449.6143	0.0471
449.8169	0.0478
450.0195	0.0493
450.222	0.0446
450.4245	0.052
450.627	0.0519
450.8295	0.0379
451.032	0.04
451.2345	0.043
451.4369	0.0407
451.6394	0.0476
451.8418	0.0427
452.0442	0.038
452.2466	0.0384
452.449	0.0379
452.6513	0.0336
452.8537	0.0415
453.056	0.045
453.2583	0.0389
453.4607	0.0288
453.663	0.0339
453.8652	0.0317
454.0675	0.0403
454.2697	0.0257
454.472	0.0301
454.6742	0.0228
454.8764	0.0257
455.0786	0.0358
455.2808	0.0382
455.4829	0.0262
455.6851	0.024
455.8872	0.0294
456.0893	0.0258
456.2915	0.0251
456.4935	0.0205
456.6956	0.0265
456.8977	0.0221
457.0997	0.0228
457.3018	0.021
457.5038	0.0247
457.7058	0.0199
457.9078	0.0272
458.1098	0.0213
458.3117	0.0191
458.5137	0.0261
458.7156	0.0238
458.9175	0.0139
459.1194	0.0254
459.3213	0.0175
459.5232	0.0154
459.725	0.0212
459.9269	0.0189
460.1287	0.0132
460.3305	0.012
460.5323	0.0142
460.7341	0.0152
460.9359	0.0114
461.1376	0.0159
461.3394	0.0045
461.5411	0.0189
461.7428	0.0184
461.9445	0.01
462.1462	0.0147
462.3479	0.0084
462.5495	0.0152
462.7512	0.0116
462.9528	0.0127
463.1544	0.0089
463.356	0.0147
463.5576	0.0083
463.7592	0.0026
463.9607	0.0043
464.1623	0.0169
464.3638	0.0133
464.5653	0.0162
464.7668	0.0042
464.9683	0.0087
465.1697	0.016
465.3712	0.0078
465.5726	0.0104
465.7741	0.0064
465.9755	0.0067
466.1769	0.0077
466.3782	0.0048
466.5796	0.013
466.7809	0.0163
466.9823	0.0099
467.1836	0.0154
467.3849	0.0102
467.5862	0.0053
467.7875	0.0092
467.9887	0.0114
468.19	0.0038
468.3912	0.004
468.5924	0.0175
468.7936	-0.005
468.9948	0.0079
469.196	0.0011
469.3972	0.0222
469.5983	-0.0044
469.7994	0.0047
470.0006	0.0107
470.2017	0.0109
470.4027	-0.0094
470.6038	-0.0131
470.8049	0.0023
471.0059	0.0095
471.2069	0.0039
471.408	-0.0054
471.6089	0.0096
471.8099	0.0147
472.0109	0.0062
472.2119	0.0131
472.4128	0.0058
472.6137	0.0037
472.8146	0.0034
473.0155	-0.0005
473.2164	0.0004
473.4173	0.002
473.6181	0.0127
473.819	-0.0017
474.0198	0.0052
474.2206	0.0073
474.4214	0.0133
474.6222	0.0002
474.8229	0.0042
475.0237	0.0023
475.2244	0.0132
475.4251	-0.0015
475.6258	0.0045
475.8265	0.0021
476.0272	0.0068
476.2278	0.003
476.4285	0.0078
476.6291	0.0111
476.8297	0.0008
477.0303	0.0066
477.2309	-0.0023
477.4315	0.0155
477.632	0.009
477.8326	-0.0002
478.0331	0.0008
478.2336	0.0137
478.4341	0.0022
478.6346	0.0066
478.8351	0.0128
479.0355	0.0086
479.236	0.0033
479.4364	0.0003
479.6368	0.0083
479.8372	0.0052
480.0376	0.0009
480.2379	0.0086
480.4383	-0.0006
480.6386	0.0027
480.8389	0.005
481.0392	0.0047
481.2395	0.0096
481.4398	0.0053
481.6401	-0.0019
481.8403	-0.0055
482.0405	-0.0045
482.2408	-0.0017
482.441	0.0067
482.6411	-0.0072
482.8413	0.0004
483.0415	0.0031
483.2416	-0.0017
483.4417	0.0008
483.6419	0.0007
483.8419	0.0029
484.042	-0.0046
484.2421	-0.0087
484.4422	0.0047
484.6422	0.01
484.8422	0.0017
485.0422	0.0042
485.2422	0.0013
485.4422	-0.0027
485.6422	-0.0024
485.8421	0.0016
486.042	0.0049
486.242	-0.0021
486.4419	0.0061
486.6417	0.0018
486.8416	0.0069
487.0415	-0.0034
487.2413	0.004
487.4411	-0.0013
487.641	0.0048
487.8408	0.0095
488.0405	0.0001
488.2403	0.0033
488.4401	0.0051
488.6398	0.0009
488.8395	-0.001
489.0392	0.0043
489.2389	-0.0025
489.4386	0.0012
489.6383	0.0035
489.8379	-0.0007
490.0376	0.0082
490.2372	-0.0122
490.4368	0.0066
490.6364	0.0027
490.836	0.0009
491.0355	0.0081
491.2351	0.0014
491.4346	0.0096
491.6341	-0.0067
491.8336	-0.0085
492.0331	-0.0027
492.2326	0.0029
492.432	0.0057
492.6315	-0.0096
492.8309	0.0042
493.0303	-0.005
493.2297	-0.0046
493.4291	-0.0038
493.6284	-0.0007
493.8278	0.0024
494.0271	-0.0007
494.2264	0.0012
494.4257	-0.0004
494.625	-0.0029
494.8243	-0.0004
495.0236	0.0029
495.2228	-0.0085
495.422	0.0088
495.6213	-0.0055
495.8205	0.0023
496.0196	-0.0041
496.2188	0.0024
496.418	-0.0046
496.6171	-0.0016
496.8162	0.0005
497.0153	0.0049
497.2144	-0.0009
497.4135	-0.0012
497.6126	-0.0113
497.8116	0.0029
498.0107	-0.0046
498.2097	0.0085
498.4087	0.0023
498.6077	0.001
498.8067	0.0078
499.0056	-0.0057
499.2046	-0.0018
499.4035	0.0039
499.6024	-0.0041
499.8013	0.0046
500.0002	0.0058
500.199	0.0015
500.3979	-0.0029
500.5967	-0.0042
500.7956	-0.0031
500.9944	-0.0016
501.1932	0.0058
501.3919	0.0047
501.5907	0.0013
501.7895	-0.0077
501.9882	-0.004
502.1869	0.0025
502.3856	-0.0079
502.5843	0.0031
502.783	0.008
502.9816	-0.0075
503.1803	0.0087
503.3789	0.0078
503.5775	0.0046
503.7761	-0.0025
503.9747	-0.0103
504.1732	0.0006
504.3718	-0.0006
504.5703	0.0048
504.7689	-0.0026
504.9674	-0.0029
505.1658	0.0074
505.3643	-0.0046
505.5628	0.0044
505.7612	0.0121
505.9597	0.0046
506.1581	-0.0056
506.3565	-0.0044
506.5549	0.0035
506.7532	0.0056
506.9516	-0.0018
507.1499	0.0061
507.3482	0.0147
507.5465	-0.0021
507.7448	0.0028
507.9431	-0.0087
508.1414	-0.0006
508.3396	-0.0002
508.5379	0.0031
508.7361	0.0083
508.9343	0.0002
509.1325	0.0009
509.3306	-0.0089
509.5288	0.0072
509.7269	-0.0013
509.9251	-0.0033
510.1232	-0.0112
510.3213	0.0044
510.5193	0.0006
510.7174	-0.017
510.9154	0.0045
511.1135	0.0056
511.3115	0.0051
511.5095	0.0069
511.7075	0.0046
511.9055	0.0014
512.1034	0.0024
512.3014	-0.007
512.4993	-0.0034
512.6972	0.0007
512.8951	0.0028
513.093	0.0007
513.2908	0.0014
513.4887	-0.0004
513.6865	-0.0002
513.8844	0.0018
514.0822	0.0011
514.2799	0.0009
514.4777	0.0116
514.6755	-0.0005
514.8732	0.0068
515.0709	-0.0073
515.2687	0.0064
515.4664	-0.0064
515.664	0.0091
515.8617	0.0081
516.0594	-0.0053
516.257	0.0058
516.4546	-0.0021
516.6522	-0.0009
516.8498	0.0025
517.0474	-0.0065
517.2449	-0.0036
517.4425	-0.0053
517.64	-0.0008
517.8375	0.0057
518.035	-0.007
518.2325	-0.0084
518.43	-0.0094
518.6274	-0.0134
518.8249	0.0007
519.0223	-0.0074
519.2197	-0.0037
519.4171	0.0006
519.6145	-0.0127
519.8118	-0.0083
520.0092	0.0041
520.2065	0.0022
520.4038	0.0046
520.6011	0.0166
520.7984	-0.0042
520.9956	-0.0005
521.1929	0.0007
521.3901	0.0062
521.5874	-0.0077
521.7846	-0.005
521.9818	-0.0046
522.1789	0.015
522.3761	-0.0006
522.5732	-0.0019
522.7704	0.0061
522.9675	-0.0072
523.1646	0.0096
523.3617	-0.0075
523.5587	-0.0021
523.7558	0.0087
523.9528	-0.0014
524.1498	-0.0039
524.3468	-0.0077
524.5438	-0.0167
524.7408	-0.0052
524.9378	-0.0015
525.1347	0.0072
525.3316	0.0043
525.5285	0.0005
525.7254	-0.0009
525.9223	-0.0053
526.1192	-0.0004
526.316	-0.0088
526.5129	0.0093
526.7097	-0.0081
526.9065	0.0001
527.1033	-0.014
527.3	-0.013
527.4968	-0.0052
527.6935	0.005
527.8903	0.0093
528.087	0.0004
528.2837	0.0084
528.4804	0.0114
528.677	0.0035
528.8737	-0.006
529.0703	0.0031
529.2669	0.0002
529.4635	0.0012
529.6601	0.0011
529.8567	-0.0011
530.0532	0.0057
530.2498	-0.0013
530.4463	0.0078
530.6428	-0.0078
530.8393	-0.0053
531.0358	-0.0085
531.2322	0.0053
531.4287	0
531.6251	-0.0085
531.8215	0.0062
532.0179	-0.0085
532.2143	0.0046
532.4107	-0.0074
532.607	-0.0016
532.8034	0.0067
532.9997	-0.0041
533.196	0.0053
533.3923	-0.0033
533.5886	-0.0038
533.7848	-0.0059
533.9811	-0.0074
534.1773	-0.0047
534.3735	0.002
534.5697	-0.0032
534.7659	0.0025
534.9621	0.0017
535.1582	0.0007
535.3544	-0.002
535.5505	0.0075
535.7466	-0.0045
535.9427	-0.0072
536.1387	0.0062
536.3348	0.0081
536.5308	0.014
536.7269	-0.0037
536.9229	-0.0058
537.1189	-0.001
537.3148	-0.0139
537.5108	-0.0075
537.7068	0.0007
537.9027	0.0138
538.0986	-0.0098
538.2945	0.0033
538.4904	-0.0096
538.6863	0.0055
538.8821	-0.0014
539.078	-0.0002
539.2738	-0.0087
539.4696	0.0042
539.6654	-0.0024
539.8611	-0.0103
540.0569	0.0006
540.2526	-0.0127
540.4484	-0.0086
540.6441	0.0035
540.8398	-0.0028
541.0355	0.0072
541.2311	0.005
541.4268	-0.0025
541.6224	-0.0027
541.818	-0.0091
542.0136	-0.0035
542.2092	-0.0035
542.4048	0.0006
542.6003	0.0003
542.7959	0.0055
542.9914	0.0058
543.1869	0.0008
543.3824	0.0042
543.5779	-0.0061
543.7734	0.0026
543.9688	0.0022
544.1642	0.0064
544.3596	-0.0063
544.555	0.0017
544.7504	0.0001
544.9458	-0.0019
545.1411	-0.0007
545.3365	0.0033
545.5318	-0.0101
545.7271	0.0057
545.9224	-0.0101
546.1177	0.0052
546.3129	-0.0146
546.5081	-0.0012
546.7034	-0.007
546.8986	0.0009
547.0938	-0.0073
547.289	-0.0015
547.4841	-0.0028
547.6793	-0.0108
547.8744	0.0003
548.0695	-0.0067
548.2646	-0.0147
548.4597	-0.0072
548.6548	0.0011
548.8498	-0.0004
549.0448	-0.0006
549.2399	-0.0051
549.4349	0.0135
549.6298	-0.0111
549.8248	-0.0056
550.0198	0.0118
550.2147	-0.0062
550.4096	0.0006
550.6045	-0.0026
550.7994	0.0042
550.9943	0.0038
551.1892	-0.0064
551.384	0.0013
551.5788	-0.0011
551.7737	-0.001
551.9685	0.0122
552.1632	0.0007
552.358	-0.002
552.5528	-0.0069
552.7475	-0.0086
552.9422	-0.0002
553.1369	0.0029
553.3316	-0.0001
553.5263	0.0045
553.7209	0.0013
553.9156	-0.0058
554.1102	-0.0016
554.3048	0.0093
554.4994	-0.0058
554.694	0.0058
554.8885	0.0028
555.0831	0.0013
555.2776	0.0013
555.4721	-0.0011
555.6666	0.0033
555.8611	-0.0011
556.0555	0.0044
556.25	-0.0064
556.4444	0.0021
556.6388	-0.0034
556.8332	-0.0011
557.0276	0.0161
557.222	-0.0046
557.4163	0.0007
557.6107	-0.0091
557.805	-0.0122
557.9993	-0.0048
558.1936	0.0081
558.3879	0.0028
558.5821	-0.0033
558.7764	0.0036
558.9706	-0.0015
559.1648	0.0005
559.359	0.0081
559.5532	-0.0115
559.7473	0.0094
559.9415	0.006
560.1356	0.0024
560.3297	0.0017
560.5238	0.0047
560.7179	-0.0023
560.9119	0.0085
561.106	-0.0057
561.3	-0.0081
561.494	0.0135
561.688	0.0034
561.882	-0.0001
562.076	0.0052
562.2699	0.0049
562.4639	-0.0021
562.6578	0.0084
562.8517	0
563.0456	-0.0034
563.2395	0.002
563.4333	-0.005
563.6272	0.0087
563.821	0.0067
564.0148	-0.0012
564.2086	0.0012
564.4024	-0.0064
564.5961	-0.0061
564.7899	0.0027
564.9836	-0.0042
565.1773	-0.0018
565.371	0.0002
565.5647	-0.0099
565.7584	0.0035
565.952	-0.0066
566.1456	-0.0002
566.3393	0.0067
566.5329	-0.0082
566.7264	-0.0028
566.92	0.0012
567.1136	0.0007
567.3071	-0.0008
567.5006	-0.0032
567.6941	0.0008
567.8876	-0.0018
568.0811	-0.0062
568.2745	-0.0057
568.468	0.0046
568.6614	0.0034
568.8548	-0.0043
569.0482	-0.0011
569.2416	-0.0028
569.4349	-0.0028
569.6283	-0.0008
569.8216	-0.0016
570.0149	0.0007
570.2082	-0.0048
570.4015	0.0012
570.5947	-0.0024
570.788	-0.0046
570.9812	-0.0007
571.1744	-0.0009
571.3676	-0.003
571.5608	-0.0003
571.754	-0.0062
571.9471	0.0044
572.1402	0.0023
572.3333	-0.0033
572.5264	0.0036
572.7195	0.0059
572.9126	0.0042
573.1057	-0.0011
573.2987	0.0009
573.4917	-0.001
573.6847	0.0003
573.8777	0.0008
574.0707	-0.003
574.2636	0.0017
574.4566	0.0024
574.6495	0.0005
574.8424	0.0005
575.0353	-0.0037
575.2281	-0.0029
575.421	-0.0031
575.6138	0.0004
575.8067	0.0041
575.9995	-0.0006
576.1923	-0.0013
576.385	-0.0027
576.5778	0.0017
576.7706	0.0014
576.9633	-0.0013
577.156	0.0014
577.3487	-0.0002
577.5414	-0.0019
577.734	-0.0004
577.9267	0.0017
578.1193	-0.0021
578.3119	-0.0045
578.5045	-0.0001
578.6971	0.0023
578.8897	0.0005
579.0822	-0.0009
579.2747	-0.0026
579.4673	-0.0003
579.6598	0.0007
579.8522	0.0022
580.0447	-0.0037
580.2372	0.0077
580.4296	-0.0035
580.622	0.0021
580.8144	0.0022
581.0068	-0.0005
581.1992	0.0013
581.3915	-0.0012
581.5839	0.0027
581.7762	0.0025
581.9685	-0.0026
582.1608	0.0003
582.353	-0.0001
582.5453	0.0041
582.7375	0.0006
582.9298	-0.0027
583.122	-0.0062
583.3142	-0.0013
583.5063	-0.0024
583.6985	0.001
583.8906	-0.0017
584.0827	-0.0005
584.2749	0.0031
584.4669	0.0008
584.659	-0.001
584.8511	0.0008
585.0431	0.0028
585.2352	-0.0066
585.4272	0.0039
585.6192	0.0028
585.8111	-0.0085
586.0031	-0.0011
586.195	0.0017
586.387	0.002
586.5789	-0.0032
586.7708	-0.0007
586.9627	0.0016
587.1545	-0.0004
587.3464	0.0001
587.5382	0.0009
587.73	0.0003
587.9218	-0.0055
588.1136	-0.0004
588.3053	0.0022
588.4971	0.0027
588.6888	0.0004
588.8805	0.0021
589.0722	0.0025
589.2639	-0.006
589.4556	-0.0056
589.6472	-0.0014
589.8389	-0.001
590.0305	0.0038
590.2221	0.001
590.4137	-0.0023
590.6052	0.0048
590.7968	0.0025
590.9883	0.0037
591.1798	-0.0029
591.3713	-0.003
591.5628	-0.0021
591.7543	0.0033
591.9458	-0.0043
592.1372	-0.0001
592.3286	-0.0049
592.52	-0.0038
592.7114	-0.0015
592.9028	-0.0037
593.0941	-0.001
593.2855	0.0026
593.4768	-0.0002
593.6681	-0.0033
593.8594	-0.0061
594.0506	0.0041
594.2419	-0.0071
594.4331	-0.0027
594.6244	0.0003
594.8156	-0.0022
595.0067	-0.0006
595.1979	-0.006
595.3891	0.0017
595.5802	-0.0041
595.7713	-0.0006
595.9624	0.0044
596.1535	0.0028
596.3446	-0.0033
596.5357	0.0009
596.7267	0.0029
596.9177	0.0011
597.1087	0.0016
597.2997	-0.0004
597.4907	0.0005
597.6817	0.002
597.8726	0.004
598.0635	0.0013
598.2544	-0.0023
598.4453	-0.0015
598.6362	-0.0065
598.827	0.0033
599.0179	0.0031
599.2087	0.0036
599.3995	0.0001
599.5903	-0.0027
599.7811	-0.0006
599.9718	0.0006
600.1626	-0.0032
600.3533	-0.0034
600.544	-0.0016
600.7347	0.0022
600.9254	0.0018
601.116	0.0015
601.3067	0.0057
601.4973	0.011
601.6879	0.0012
601.8785	-0.0017
602.0691	-0.0004
602.2596	0.0009
602.4502	0.0002
602.6407	0.0026
602.8312	-0.0007
603.0217	0.0016
603.2122	0.0052
603.4027	-0.0087
603.5931	-0.0024
603.7835	-0.002
603.9739	0.0011
604.1643	0.0033
604.3547	0.0023
604.5451	0.0023
604.7354	-0.0053
604.9257	-0.0007
605.116	-0.002
605.3063	-0.0045
605.4966	0.0013
605.6869	-0.0023
605.8771	0.0005
606.0673	-0.0072
606.2575	-0.005
606.4477	0.0019
606.6379	-0.0039
606.8281	-0.008
607.0182	-0.0001
607.2083	-0.0024
607.3985	0.0011
607.5885	-0.0006
607.7786	0.0018
607.9687	-0.005
608.1587	0.0036
608.3488	-0.0025
608.5388	-0.0005
608.7288	-0.0053
608.9187	0.0062
609.1087	-0.0027
609.2986	-0.0042
609.4886	0.0006
609.6785	0.0038
609.8684	-0.0059
610.0582	-0.003
610.2481	-0.0059
610.4379	-0.0013
610.6278	-0.0031
610.8176	-0.0065
611.0074	-0.0066
611.1971	0.0018
611.3869	-0.0048
611.5766	-0.0039
611.7664	0.0005
611.9561	-0.0037
612.1458	-0.005
612.3354	0.0018
612.5251	0.001
612.7147	0.0041
612.9044	-0.0027
613.094	0.0042
613.2836	-0.0046
613.4731	-0.0071
613.6627	0.003
613.8522	-0.0036
614.0417	0.0073
614.2313	-0.0114
614.4207	0.0031
614.6102	-0.006
614.7997	-0.0071
614.9891	-0.0014
615.1785	-0.0012
615.3679	0.0053
615.5573	-0.0006
615.7467	-0.0042
615.9361	-0.0066
616.1254	0.0002
616.3147	-0.001
616.504	0.0006
616.6933	-0.0056
616.8826	0.0062
617.0718	-0.0079
617.2611	-0.0025
617.4503	-0.0024
617.6395	-0.0076
617.8287	0.0014
618.0179	-0.005
618.207	0.0021
618.3961	-0.0053
618.5853	-0.0017
618.7744	0.0054
618.9634	0.009
619.1525	-0.0028
619.3416	-0.005
619.5306	-0.0096
619.7196	-0.0013
619.9086	0.0043
620.0976	0.0054
620.2866	0.001
620.4755	0.0091
620.6645	-0.0207
620.8534	-0.0128
621.0423	-0.0158
621.2312	-0.0062
621.42	-0.0068
621.6089	0.0024
621.7977	-0.0042
621.9865	-0.0015
622.1753	0.0008
622.3641	-0.0122
622.5529	-0.0039
622.7416	-0.0133
622.9303	-0.0019
623.1191	-0.0038
623.3078	-0.0046
623.4964	-0.0146
623.6851	0.01
623.8737	0.0013
624.0624	-0.0027
624.251	-0.0016
624.4396	-0.0049
624.6282	-0.0005
624.8167	0.0079
625.0053	-0.0034
625.1938	-0.0073
625.3823	-0.0057
625.5708	0.0076
625.7593	-0.001
625.9477	-0.0163
626.1362	-0.001
626.3246	-0.0072
626.513	0.0004
626.7014	-0.0075
626.8898	-0.0057
627.0781	0.0003
627.2665	0.0043
627.4548	-0.0015
627.6431	-0.0106
627.8314	0.0041
628.0197	0.0026
628.2079	-0.0065
628.3962	-0.0085
628.5844	0.0052
628.7726	-0.0096
628.9608	-0.0108
629.1489	-0.0037
629.3371	-0.0118
629.5252	0.0046
629.7134	0.0121
629.9015	-0.0148
630.0895	-0.0008
630.2776	-0.0091
630.4657	-0.0072
630.6537	0.0015
630.8417	-0.015
631.0297	-0.0036
631.2177	0.0049
631.4057	-0.013
631.5936	-0.01
631.7815	0.0059
631.9695	0.0051
632.1574	-0.009
632.3452	0.0097
632.5331	0.0042
632.7209	0.0032
632.9088	-0.0186
633.0966	0.002
633.2844	0.0003
633.4722	-0.0085
633.6599	-0.0195
633.8477	-0.0137
634.0354	0.0088
634.2231	0.0171
634.4108	-0.0058
634.5985	-0.0089
634.7861	-0.0162
634.9738	-0.0077
635.1614	0.008
635.349	-0.0205
635.5366	-0.0071
635.7242	-0.0021
635.9117	0.0128
636.0993	-0.0151
636.2868	0.0032
636.4743	0.011
636.6618	-0.0011
636.8492	-0.0011
637.0367	0.0015
637.2241	-0.0028
637.4115	0.0057
637.5989	0.0128
637.7863	-0.0027
637.9737	0.0096
638.161	-0.0118
638.3484	0.0062
638.5357	0.0021
638.723	-0.0093
638.9103	0.0038
639.0975	0.0113
639.2848	0.0127
639.472	-0.006
639.6592	0.0099
639.8464	0.0156
640.0336	0.0016
640.2208	-0.0066
640.4079	0.0177
640.595	-0.0158
640.7821	-0.0136
640.9692	-0.0069
641.1563	0.0175
641.3434	0.0088
641.5304	-0.0076
641.7174	0.032
641.9044	-0.0022
642.0914	-0.0103
642.2784	0.0218
642.4653	-0.0115
642.6523	0.0091
642.8392	0.0097
643.0261	-0.0031
643.213	-0.0033
643.3999	-0.0138
643.5867	0.0041
643.7735	0.011
643.9604	-0.016
644.1472	-0.003
644.3339	-0.0117
644.5207	-0.0137
644.7075	-0.0094
644.8942	0.011
645.0809	-0.0242
645.2676	-0.0076
645.4543	-0.0073
645.6409	0.0008
645.8276	-0.0066
646.0142	0.0058
646.2008	-0.0232
646.3874	-0.0005
646.574	-0.0224
646.7605	0.0127
646.9471	0.0149
647.1336	0.0056
647.3201	-0.0045
647.5066	-0.0054
647.6931	-0.0082
647.8795	-0.002
648.0659	-0.018
648.2524	-0.0066
648.4388	0.0021
648.6252	-0.0098
648.8115	0.0113
648.9979	-0.0007
649.1842	-0.0271
649.3705	-0.0013
649.5568	-0.0147
649.7431	-0.0026
649.9294	-0.0091
650.1156	-0.0064
650.3018	0.0142
650.488	0.0081
650.6742	0.0051
650.8604	0.0024
651.0466	-0.0053
651.2327	-0.0061
651.4188	-0.0126
651.6049	-0.0077
651.791	0.0019
651.9771	-0.0089
652.1632	-0.0052
652.3492	0.0012
652.5352	0.0056
652.7212	0.0043
652.9072	-0.0022
653.0932	0.0071
653.2791	-0.0155
653.465	-0.0216
653.651	0.0123
653.8369	0.0215
654.0227	0
654.2086	-0.0144
654.3944	-0.0158
654.5803	-0.0092
654.7661	-0.0041
654.9519	-0.0011
655.1377	-0
655.3234	-0
655.5092	-0
655.6949	-0
655.8806	-0
656.0663	-0
656.2519	-0
656.4376	-0
656.6232	-0
656.8088	-0
656.9945	-0
657.18	-0
657.3656	-0
657.5511	-0
657.7367	-0
657.9222	-0
658.1077	-0
658.2932	-0
658.4786	-0
658.6641	-0
658.8495	-0
659.0349	-0
659.2203	-0
659.4057	0.0087
659.591	0.0297
659.7764	-0.0012
659.9617	-0.0054
660.147	-0.0153
660.3323	-0.0099
660.5176	-0.0127
660.7028	-0.0073
660.888	-0.0023
661.0733	0.007
661.2585	0.0083
661.4436	-0.0211
661.6288	0.001
661.8139	0.007
661.9991	-0.0154
662.1842	0.0093
662.3693	-0.0098
662.5544	-0.0024
662.7394	0.008
662.9245	0.0031
663.1095	0.007
663.2945	-0.0207
663.4795	-0.0081
663.6644	0.0024
663.8494	0.0048
664.0343	-0.0066
664.2193	-0.016
664.4042	-0.0172
664.589	-0.0236
664.7739	-0.019
664.9587	0.0085
665.1436	-0.0053
665.3284	0.0051
665.5132	0.0064
665.698	-0.02
665.8827	-0.0383
666.0675	-0.0158
666.2522	0.0029
666.4369	-0.0217
666.6216	-0.0088
666.8063	-0.0177
666.9909	-0.0017
667.1756	-0.0144
667.3602	-0.0184
667.5448	-0.0106
667.7294	-0.0205
667.9139	-0.0111
668.0985	-0.0057
668.283	-0.0058
668.4675	-0.0163
668.652	-0.0106
668.8365	0.0205
669.0209	0.0053
669.2054	-0.0076
669.3898	-0.0092
669.5742	0.0047
669.7586	-0.0021
669.943	-0.0336
670.1273	0.0271
670.3117	0.0051
670.496	0.0308
670.6803	-0.0074
670.8646	-0.0113
671.0488	0.0044
671.2331	-0.004
671.4173	-0.0034
671.6015	-0.0201
671.7857	-0.0065
671.9699	0.0067
672.1541	-0.0115
672.3382	0.0041
672.5223	0.0044
672.7064	-0.0221
672.8905	0.027
673.0746	-0.0097
673.2587	0.0065
673.4427	-0.0182
673.6267	-0.0389
673.8107	-0.0328
673.9947	-0.0149
674.1787	-0.0139
674.3626	-0.0367
674.5465	0.0254
674.7304	-0.0495
674.9143	0.0214
675.0982	-0.0028
675.2821	-0.0002
675.4659	0.0088
675.6497	0.0215
675.8335	-0.0015
676.0173	0.0151
676.2011	0.0091
676.3849	-0.0138
676.5686	-0.0086
676.7523	-0.0206
676.936	-0.0282
677.1197	0.0093
677.3034	0.0431
677.487	0.0167
677.6706	-0.0057
677.8542	0.0075
678.0378	-0.0185
678.2214	0.0024
678.405	0.0187
678.5885	0.0065
678.772	-0.0141
678.9555	0.0071
679.139	-0.0055
679.3225	-0.0201
679.5059	0.0049
679.6894	-0.011
679.8728	-0.0124
680.0562	0.0077
680.2395	-0.0014
680.4229	-0.0053
680.6062	-0.0133
680.7896	-0.0012
680.9729	0.0138
681.1562	-0.0167
681.3394	-0.0248
681.5227	-0.0152
681.7059	-0.0036
681.8891	-0.0151
682.0723	-0.0094
682.2555	0.0031
682.4387	0.0024
682.6218	-0.0185
682.805	-0.0093
682.9881	-0.0025
683.1712	0.0031
683.3542	-0.0262
683.5373	0.0049
683.7203	0.0067
683.9034	0.0076
684.0864	-0.0085
684.2694	-0.0114
684.4523	-0.0009
684.6353	0.0093
684.8182	0.0159
685.0011	-0.0078
685.184	0.0074
685.3669	-0.0041
685.5498	0.0081
685.7326	-0.0163
685.9154	-0.0028
686.0982	0.0033
686.281	-0.0006
686.4638	-0.0015
686.6465	-0.0079
686.8293	0.0007
687.012	-0.0139
687.1947	0.0071
687.3774	-0.0056
687.56	0.0027
687.7427	-0.021
687.9253	-0.0042
688.1079	0.008
688.2905	-0.0126
688.4731	0.0082
688.6556	-0.006
688.8382	-0.0046
689.0207	-0.0115
689.2032	-0.0284
689.3857	-0.0077
689.5681	0.0146
689.7506	-0.0306
689.933	-0.0059
690.1154	0.0061
690.2978	-0.022
690.4802	0.0137
690.6626	-0.0155
690.8449	-0.0215
691.0272	-0.0327
691.2095	0.0101
691.3918	-0.0115
691.5741	-0.0129
691.7563	0.0066
691.9386	-0.0059
692.1208	-0.0353
692.303	-0.0007
692.4852	0.0097
692.6673	-0.0113
692.8495	-0.0084
693.0316	-0.0223
693.2137	0.0176
693.3958	-0.004
693.5778	-0.0175
693.7599	-0.0366
693.9419	0.0302
694.1239	-0.0131
694.3059	-0.0298
694.4879	-0.0156
694.6699	0.0063
694.8518	-0.0086
695.0337	-0.0232
695.2157	-0.0182
695.3975	-0.0142
695.5794	-0.0281
695.7613	0.0084
695.9431	-0.027
696.1249	-0.0285
696.3067	-0.0057
696.4885	-0.0097
696.6703	-0.0111
696.852	-0.023
697.0337	-0.0053
697.2154	0.0086
697.3971	0.0061
697.5788	0.0061
697.7605	-0.0019
697.9421	-0.0194
698.1237	0.0065
698.3053	-0.0094
698.4869	0.0011
698.6685	0
698.85	-0.0091
699.0315	-0.0083
699.213	0.0212
699.3945	-0.0046
699.576	-0.0247
699.7575	-0.0411
699.9389	-0.0198
700.1203	-0.0126
700.3017	-0.0325
700.4831	-0.0079
700.6645	-0.0114
700.8458	-0.008
701.0271	0.0097
701.2084	-0.0355
701.3897	0.0273
701.571	-0.0037
701.7523	-0.0116
701.9335	0.0145
702.1147	-0.0015
702.2959	0.0057
702.4771	-0.0018
702.6583	-0.0167
702.8394	-0.012
703.0205	-0.0055
703.2016	-0.0177
703.3827	0.0049
703.5638	-0.0262
703.7449	-0.0189
703.9259	-0.021
704.1069	0.0159
704.2879	0.0131
704.4689	-0.0103
704.6499	-0.065
704.8308	-0.0333
705.0117	-0.0458
705.1927	-0.0045
705.3735	0.0035
705.5544	0.0001
705.7353	-0.0032
705.9161	0.0079
706.0969	-0.0082
706.2777	-0.0148
706.4585	-0.0121
706.6393	-0.0031
706.82	-0.0147
707.0007	-0.0037
707.1815	0.0124
707.3621	-0.0065
707.5428	0.02
707.7235	0.0067
707.9041	-0.0225
708.0847	-0.0188
708.2653	-0.0097
708.4459	-0.0192
708.6265	-0.0034
708.807	0.0171
708.9875	-0.0062
709.168	-0.001
709.3485	-0.018
709.529	-0.0031
709.7095	-0.023
709.8899	0.0104
710.0703	-0.0061
710.2507	-0.0054
710.4311	0.0123
710.6115	-0.0009
710.7918	-0.0179
710.9721	-0.0046
711.1524	0.0061
711.3327	-0.0238
711.513	-0.0164
711.6932	-0.0199
711.8735	0.0127
712.0537	-0.0124
712.2339	-0.0032
712.4141	0.0072
712.5942	0.0254
712.7744	0.0195
712.9545	0.0017
713.1346	0.0079
713.3147	-0.0037
713.4947	-0.0008
713.6748	0.0039
713.8548	-0.0147
714.0348	0.0186
714.2148	-0.007
714.3948	-0.0002
714.5748	-0.0341
714.7547	-0.0234
714.9346	-0.0041
715.1145	0.0021
715.2944	-0.0063
715.4743	-0.0247
715.6541	-0.0035
715.834	0.0019
716.0138	0.0233
716.1936	-0.0214
716.3733	0.0067
716.5531	0.0334
716.7328	0.0036
716.9126	-0.0179
717.0923	-0.0035
717.2719	-0.0161
717.4516	-0.0354
717.6312	-0.0109
717.8109	-0.0025
717.9905	-0.0146
718.1701	-0.0267
718.3496	0.0084
718.5292	-0.0216
718.7087	0.0064
718.8882	0.0104
719.0677	-0.0316
719.2472	0.0105
719.4267	-0.0169
719.6061	0.0152
719.7856	-0.018
719.965	0.0272
720.1443	-0.0144
720.3237	0.0284
720.5031	-0.0029
720.6824	-0.0206
720.8617	-0.0022
721.041	-0.0029
721.2203	0.0048
721.3995	-0.0343
721.5788	-0.0264
721.758	-0.0128
721.9372	-0.0273
722.1164	0.0013
722.2956	0.0075
722.4747	0.0076
722.6538	-0.0324
722.8329	-0.0332
723.012	-0.0016
723.1911	0.0056
723.3702	-0.0533
723.5492	-0.0165
723.7282	-0.0147
723.9072	-0.0429
724.0862	-0.0262
724.2652	-0.0256
724.4441	-0.0245
724.623	-0.0112
724.8019	0.0026
724.9808	-0.0333
725.1597	-0.0329
725.3385	0.0103
725.5174	0.0206
725.6962	0.0034
725.875	-0.0186
726.0538	0.0157
726.2325	-0.0138
726.4112	0.0201
726.59	0.0004
726.7687	0.009
726.9474	-0.0173
727.126	-0.0133
727.3047	0.0001
727.4833	0.0289
727.6619	-0.0036
727.8405	0.0141
728.0191	-0.0454
728.1976	-0.0365
728.3762	-0.0386
728.5547	-0.0075
728.7332	0.019
728.9116	-0.0332
729.0901	0.0038
729.2686	-0.0212
729.447	-0.0185
729.6254	0.0105
729.8038	0.0079
729.9821	0.0137
730.1605	-0.0202
730.3388	-0.0222
730.5171	-0.0106
730.6954	0.0053
730.8737	0.0141
731.0519	0.0008
731.2302	-0.0154
731.4084	-0.01
731.5866	-0.025
731.7648	-0.0058
731.9429	-0.0186
732.1211	-0.0155
732.2992	-0.0112
732.4773	-0.0376
732.6554	-0.0036
732.8335	-0.0054
733.0115	-0.0228
733.1896	-0.0196
733.3676	0.0083
733.5456	0.0112
733.7235	0.0049
733.9015	0.0012
734.0794	-0.0004
734.2574	-0.0012
734.4353	-0.0185
734.6131	-0.0096
734.791	0.0081
734.9689	0.0003
735.1467	0.0012
735.3245	-0.0101
735.5023	-0.0073
735.68	0.0053
735.8578	-0.014
736.0355	0.0017
736.2132	0.0148
736.3909	-0.0114
736.5686	-0.008
736.7463	-0.0404
736.9239	-0.0122
737.1015	-0.0085
737.2791	-0.0169
737.4567	-0.0246
737.6343	-0.0074
737.8118	-0.0197
737.9894	-0.0059
738.1669	0.0034
738.3444	-0.0006
738.5218	0.0107
738.6993	0.0049
738.8767	0.0037
739.0541	0.001
739.2315	-0.0214
739.4089	-0.0114
739.5863	-0.0019
739.7636	0.0108
739.9409	0.0219
740.1182	-0.023
740.2955	-0.0396
740.4728	-0.0092
740.65	-0.022
740.8272	-0.0418
741.0044	0.0412
741.1816	0.0384
741.3588	-0.0085
741.5359	-0.0077
741.7131	0.0347
741.8902	-0.003
742.0673	0.0215
742.2444	0.0033
742.4214	-0.0031
742.5985	-0.0049
742.7755	-0.0397
742.9525	-0.0234
743.1295	-0.0451
743.3064	0.0118
743.4834	-0.0184
743.6603	-0.0135
743.8372	0.0117
744.0141	0.0119
744.191	0.0065
744.3678	0.0101
744.5446	-0.0198
744.7215	-0.0335
744.8982	0.0082
745.075	-0.0051
745.2518	-0.0126
745.4285	-0.0064
745.6052	0.0096
745.7819	-0.008
745.9586	0.0199
746.1353	-0.0044
746.3119	-0.0125
746.4885	0.0005
746.6651	-0.0617
746.8417	-0.0335
747.0183	-0.0282
747.1948	-0.0363
747.3714	0.0063
747.5479	0.0294
747.7244	-0.0704
747.9008	0.0213
748.0773	0.0029
748.2537	0.0235
748.4301	0.0057
748.6065	-0.0554
748.7829	-0.0063
748.9593	-0.0019
749.1356	-0.0024
749.3119	-0.0248
749.4882	-0.0034
749.6645	0.0034
749.8408	-0.0025
750.017	-0.0104
750.1933	0.0051
750.3695	0.0023
750.5457	-0.0293
750.7218	-0.0015
750.898	-0.0174
751.0741	0.0055
751.2502	0.0187
751.4263	-0.0227
751.6024	-0.005
751.7784	-0.0576
751.9545	-0.0381
752.1305	-0.0057
752.3065	0.0273
752.4825	-0.0209
752.6584	-0.0024
752.8344	-0.0054
753.0103	-0.0335
753.1862	-0.0095
753.3621	-0.0342
753.5379	-0.026
753.7138	-0.0148
753.8896	0.025
754.0654	0.0015
754.2412	0.0169
754.417	0.0001
754.5927	-0.0167
754.7685	-0.0161
754.9442	0.0059
755.1199	-0.0184
755.2956	0.0124
755.4712	-0.0049
755.6469	-0.0249
755.8225	0.0074
755.9981	-0.0089
756.1736	0.0207
756.3492	-0.0117
756.5248	-0.0106
756.7003	-0.0042
756.8758	-0.0033
757.0513	0.003
757.2267	-0.0106
757.4022	-0.0221
757.5776	-0.0131
757.753	-0.0088
757.9284	0.009
758.1038	-0.0149
758.2791	0.0093
758.4545	-0.0292
758.6298	-0.0225
758.8051	-0.0064
758.9803	-0.0173
759.1556	-0.0113
759.3308	-0.011
759.506	-0.0015
759.6812	-0.0118
759.8564	-0.0221
760.0316	-0.0113
760.2067	-0.03
760.3819	0.006
760.557	-0.0061
760.732	0.002
760.9071	-0.012
761.0821	-0.0115
761.2572	0.0077
761.4322	-0.0192
761.6072	-0.0059
761.7821	0.0034
761.9571	-0.0014
762.132	-0.0047
762.3069	-0.0294
762.4818	0.0064
762.6567	-0.005
762.8316	0.0167
763.0064	-0.0072
763.1812	-0.0158
763.356	-0.0132
763.5308	-0.0343
763.7055	-0.0003
763.8803	-0.0356
764.055	-0.01
764.2297	-0.0055
764.4044	-0.0115
764.579	-0.0023
764.7537	-0.0257
764.9283	-0.0229
765.1029	-0.0183
765.2775	-0.0241
765.4521	0.0084
765.6266	-0.0013
765.8011	-0.0146
765.9756	-0.0158
766.1501	0.0095
766.3246	-0.0107
766.4991	-0.0266
766.6735	-0.0117
766.8479	-0.0319
767.0223	-0.0118
767.1967	-0.0366
767.371	0.0256
767.5454	0.0194
767.7197	-0.0043
767.894	0.003
768.0683	-0.0049
768.2425	0.0143
768.4168	0.014
768.591	-0.0003
768.7652	-0.0257
768.9394	0.0032
769.1135	-0.0154
769.2877	-0.0012
769.4618	0.0203
769.6359	-0.0042
769.81	-0.0077
769.984	-0.0184
770.1581	-0.0033
770.3321	-0.0157
770.5061	0.0015
770.6801	0.0078
770.8541	-0.0189
771.028	-0.0217
771.202	-0.0488
771.3759	-0.021
771.5498	-0.006
771.7236	-0.0288
771.8975	-0.0445
772.0713	-0.0141
772.2451	-0.0116
772.4189	-0.0133
772.5927	-0.0226
772.7665	0.0305
772.9402	0.0022
773.1139	-0.001
773.2876	-0.0271
773.4613	0.0126
773.635	-0.0056
773.8086	-0.0018
773.9822	0.0262
774.1558	-0.0031
774.3294	-0.0419
774.503	0.012
774.6765	0.0529
774.8501	0.0184
775.0236	-0.0042
775.1971	-0.0206
775.3705	-0.0211
775.544	-0.0266
775.7174	-0.0494
775.8908	0.0298
776.0642	-0.0157
776.2376	-0.0575
776.4109	0.0541
776.5843	-0.0192
776.7576	-0.0067
776.9309	0.023
777.1041	-0.0007
777.2774	0.0018
777.4506	-0.038
777.6238	-0.0058
777.797	-0.0387
777.9702	0.0144
778.1434	-0.0167
778.3165	0.0038
778.4896	-0.0258
778.6627	0.0409
778.8358	-0.0116
779.0089	0.0007
779.1819	-0.0096
779.3549	0.0162
779.5279	-0.0226
779.7009	-0.0092
779.8739	-0.0267
780.0468	0.0244
780.2197	-0.0246
780.3926	-0.0268
780.5655	-0.0287
780.7384	0.0027
780.9112	-0.0028
781.0841	-0.015
781.2569	0.0044
781.4297	0.035
781.6024	-0.0148
781.7752	-0.024
781.9479	-0.0104
782.1206	-0.0283
782.2933	0.0239
782.466	-0.0295
782.6386	-0.0215
782.8113	-0.01
782.9839	-0.0039
783.1565	0.0055
783.329	-0.0308
783.5016	-0.025
783.6741	-0.0277
783.8466	-0.0585
784.0191	-0.0259
784.1916	-0.0181
784.3641	-0.0871
784.5365	-0.0079
784.7089	-0.0195
784.8813	-0.0242
785.0537	-0.0384
785.2261	-0.0412
785.3984	-0.0136
785.5707	0.0209
785.743	-0.0653
785.9153	-0.0047
786.0876	-0.0388
786.2598	-0.0232
786.432	-0.0173
786.6042	0.0351
786.7764	-0.0161
786.9486	0.0116
787.1207	0.004
787.2928	-0.0116
787.4649	0.0333
787.637	0.0224
787.8091	-0.0104
787.9811	-0.0197
788.1532	0.0042
788.3252	-0.0314
788.4972	-0.0424
788.6691	-0.0022
788.8411	-0.0134
789.013	-0.0077
789.1849	0.0294
789.3568	-0.0373
789.5287	-0.0358
789.7005	-0.0403
789.8723	-0.0579
790.0442	-0.0512
790.2159	0.0168
790.3877	0.0191
790.5595	0.0184
790.7312	-0.0468
790.9029	0.0242
791.0746	0.0174
791.2463	-0.0213
791.4179	-0.024
791.5896	-0.051
791.7612	-0.0768
791.9328	-0.046
792.1044	-0.0365
792.2759	0.0398
792.4474	-0.0757
792.619	0.0568
792.7905	-0.0357
792.9619	0.0174
793.1334	-0.0256
793.3048	-0.0334
793.4762	-0.104
793.6476	-0.0228
793.819	-0.0662
793.9904	-0.0086
794.1617	0.0044
794.333	-0.0236
794.5043	-0.0067
794.6756	0.0136
794.8469	-0.013
795.0181	-0.0379
795.1893	-0.0183
795.3605	-0.044
795.5317	0.0165
795.7029	-0.0265
795.874	-0.0336
796.0452	-0.0307
796.2163	0.0014
796.3873	0.0232
796.5584	0.0731
796.7294	-0.0861
796.9005	0.0565
797.0715	0.1001
797.2425	-0.0296
797.4134	-0.0043
797.5844	0.0152
797.7553	-0.0021
797.9262	-0.0009
798.0971	-0.0332
798.2679	-0.0266
798.4388	-0.0636
798.6096	-0.0407
798.7804	-0.0074
798.9512	-0.0045
799.122	-0.001
799.2927	-0.0269
799.4635	0.1251
799.6342	0.0225
799.8049	-0.0061
799.9755	0.0068
800.1462	0.0237
800.3168	-0.0339
800.4874	0.0446
800.658	0.0225
800.8286	-0.0575
800.9991	0.0198
801.1696	-0.0572
801.3402	-0.0626
801.5106	-0.0619
801.6811	0.0503
801.8516	-0.0744
802.022	-0.0078
802.1924	-0.0573
802.3628	-0.0846
802.5332	-0.0816
802.7035	-0.0537
802.8739	-0.0465
803.0442	-0.057
803.2145	-0.0158
803.3847	-0.0391
803.555	-0.0198
803.7252	0.0019
803.8954	-0.0353
804.0656	-0.0087
804.2358	-0.0638
804.4059	0.0219
804.5761	-0.0015
804.7462	-0.0875
804.9163	-0.0259
805.0864	0.0232
805.2564	-0.0088
805.4264	-0.072
805.5965	-0.0027
805.7665	0.0277
805.9364	-0.0592
806.1064	-0.0341
806.2763	0.0503
806.4462	-0.0018
806.6161	-0.0185
806.786	0.0063
806.9559	-0.0209
807.1257	-0.0277
807.2955	-0.004
807.4653	-0.0567
807.6351	-0.0486
807.8048	-0.1154
807.9746	-0.0458
808.1443	-0.0071
808.314	0.0216
808.4837	0.0631
808.6533	-0.0185
808.8229	-0.1083
808.9926	-0.0426
809.1622	-0.0349
809.3317	-0.0818
809.5013	-0.0028
809.6708	0.0448
809.8403	0.0051
810.0098	0.064
810.1793	0.044
810.3488	0.0664
810.5182	-0.0038
810.6876	0.0326
810.857	-0.0746
811.0264	-0.1037
811.1958	-0.0021
811.3651	-0.0507
811.5344	-0.0557
811.7037	-0.1008
811.873	-0.0264
812.0422	0.0051
812.2115	-0.031
812.3807	-0.0228
812.5499	-0.0846
812.7191	-0.1279
812.8882	-0.0434
813.0574	-0.1689
813.2265	-0.0082
813.3956	-0.0132
813.5646	-0.0234
813.7337	-0.0685
813.9027	-0.0528
814.0718	-0.0315
814.2407	-0.2293
814.4097	-0.0439
814.5787	-0.0199
814.7476	0.1021
814.9165	-0.0214
815.0854	-0.0169
815.2543	-0.0994
815.4232	-0.1078
815.592	0.0004
815.7608	-0.0341
815.9296	0.0287
816.0984	0.0873
816.2671	-0.1433
816.4359	-0.0048
816.6046	-0.0211
816.7733	-0.0434
816.942	0.0168
817.1106	-0.2177
817.2793	-0.0906
817.4479	-0.0347
817.6165	-0.0324
817.785	-0.0378
817.9536	-0.034
818.1221	0.0611
818.2906	0.0738
818.4591	-0.1372
818.6276	0.0004
818.7961	0.0209
818.9645	-0.1198
819.1329	0.2243
819.3013	0.1945
819.4697	0.0303
819.638	0.2257
819.8064	-0.0686
819.9747	-0.1364
820.143	-0.0096
820.3113	-0.0054
820.4795	-0.0274
820.6477	-0.0531
820.816	0.003
820.9842	-0.0925
821.1523	0.1348
821.3205	-0.0107
821.4886	-0.015
821.6567	0.0515
821.8248	0.0272
821.9929	0.0027
822.1609	0.1087
822.329	0.0239
822.497	-0.0639
822.665	-0.0222
822.833	0.053
823.0009	-0.0859
823.1688	-0.0454
823.3367	-0.2314
823.5046	-0.0209
823.6725	0.0468
823.8404	0.0479
824.0082	0.0653
824.176	0.0047
824.3438	0.1845
824.5116	0.1269
824.6793	-0.0168
824.847	-0.1482
825.0147	0.0153
825.1824	0.2032
825.3501	-0.1383
825.5177	0.0121
825.6854	-0.0334
825.853	-0.0404
826.0206	0.0495
826.1881	-0.0151
826.3557	0.358
826.5232	0.1721
826.6907	-0.0129
826.8582	-0.0714
827.0257	-0.1505
827.1931	-0.0161
827.3605	-0.035
827.528	-0.034
827.6953	0.0243
827.8627	-0.0488
828.03	-0.0838
828.1974	-0.1334
828.3647	0.0564
828.532	0.0577
828.6992	-0.0423
828.8665	0.1046
829.0337	-0.1219
829.2009	0.1535
829.3681	-0.0258
829.5352	0.0944
829.7024	-0.0748
829.8695	-0.0533
830.0366	0.162
830.2037	0.0255
830.3707	-0.1663
830.5378	0.1114
830.7048	-0.254
830.8718	-0.0701
831.0388	0.1409
831.2057	-0
831.3727	-0.1436
831.5396	-0.1796
831.7065	0.1591
831.8734	0.6734
832.0402	0.042
832.2071	0.254
832.3739	-0.0167
832.5407	-0
832.7075	0.1364
832.8742	0.3653
833.041	0.4359
833.2077	0.2072
833.3744	-0.0207
833.541	-0.0392
833.7077	0.1909
833.8743	-0.0629
834.0409	-0.0728
834.2075	0.0637
834.3741	0.013
834.5407	-0.3912
834.7072	0.1827
834.8737	0.0373
835.0402	-0.3598
835.2067	-0.0435
835.3731	0.1938
835.5395	0.0111
835.706	0.0102
835.8723	-0.0377
836.0387	0.0505
836.2051	0.7049
836.3714	-0.232
836.5377	0.1832
836.704	-0.1518
836.8703	-0.3646
837.0365	0.6275
837.2027	-0.3628
837.3689	-0.02
837.5351	0.0449
837.7013	0.0835
837.8674	-0.6744
838.0335	-0.0758
838.1997	0.4286
838.3657	-0
838.5318	-0.4829
838.6978	-0.0973
838.8639	-0.1362
839.0299	-0.0116
839.1958	-0.1383
839.3618	0.6477
839.5277	-0.4223
839.6937	-0.1861
839.8596	-0.1669
840.0254	0.4261
840.1913	0.6939
840.3571	-0.2325
840.523	-0.0091
840.6888	0.4705
840.8545	-0.1538
841.0203	-0.0816
841.186	-0.0866
841.3517	0.1009
841.5174	-0.025
841.6831	0.1105
841.8488	-0.0658
842.0144	0.3563
842.18	0.2148
842.3456	0.055
842.5112	0.303
842.6767	-0.2653
842.8422	-0.2543
843.0077	0.1998
843.1732	0.026
843.3387	-0.1078
843.5042	0.6271
843.6696	0.5306
843.835	-0.1494
844.0004	-0.0649
844.1657	-0
844.3311	-0.1925
844.4964	-0.0405
844.6617	-0.6147
844.827	-0
844.9923	-0.0221
845.1575	-0
845.3227	-0
845.4879	0.0864
845.6531	-0.3912
845.8183	0.0403
845.9834	-0.6527
846.1485	0.6512
846.3136	0.4292
846.4787	-0.2756
846.6438	0.1541
846.8088	-1.227
846.9738	0.229
847.1388	-0.0802
847.3038	-0.1382
847.4687	-0.7042
847.6337	0.9298
847.7986	-0.0404
847.9635	-0.3214
848.1284	0.0089
848.2932	-0.2114
848.458	0.2324
848.6228	0.3164
848.7876	0.2623
848.9524	0.2088
849.1172	0.0025
849.2819	-0
849.4466	0.0224
849.6113	-0.2347
849.7759	-0
849.9406	-0.0104
850.1052	-0.0265
850.2698	-0.9853
850.4344	0.2521
850.599	-0.2929
850.7635	-0.1662
850.928	-0
851.0925	-0.3806
851.257	-0.3262
851.4215	-0.6643
851.5859	0.1926
851.7503	-0
851.9147	-0
852.0791	-0.5305
852.2434	-0.157
852.4078	-0
852.5721	-0.0318
852.7364	0.0669
852.9007	0.0386
853.0649	0.8217
853.2291	-0.0074
853.3934	0.2132
853.5575	-0.2859
853.7217	-0.5966
853.8859	0.5079
854.05	-0.9339
854.2141	-0
854.3782	0.1849
854.5423	-1.0679
854.7063	-0.1024
854.8703	0.1951
855.0343	-0.1889
855.1983	-0.247
855.3623	0.5018
855.5262	-0.7125
855.6901	0.6082
855.854	0.7545
856.0179	-0
856.1818	0.4274
856.3456	0.2072
856.5094	-0
856.6732	0.2493
856.837	0.1978
857.0008	0.6734
857.1645	-0
857.3282	-0.1738
857.4919	0.0754
857.6556	0.287
857.8192	-0.3361
857.9828	-0.3067
858.1465	0.5545
858.31	-0
858.4736	-0.1877
858.6372	0.0272
858.8007	-1.3561
858.9642	0.3624
859.1277	-0.364
859.2911	0.3983
859.4546	-0.0366
859.618	-0.231
859.7814	-0
859.9448	-0
860.1081	-0
860.2715	-0.031
860.4348	0.1654
860.5981	-0.7564
860.7614	-0
860.9246	-0
861.0879	-0.4703
861.2511	0.3103
861.4143	0.1654
861.5774	0.0262
861.7406	-0.1552
861.9037	-0
862.0668	-0
862.2299	-1.8084
862.393	-0
862.556	-0.2728
862.7191	0.2597
862.8821	-0.2218
863.0451	0.4338
863.208	1.1191
863.371	1.6996
863.5339	-0.2399
863.6968	-0.2936
863.8597	-0
864.0225	-0
864.1854	-0.2327
864.3482	0.0994
864.511	-0.3048
864.6737	-0
864.8365	-0.1352
864.9992	-0
865.1619	0.291
865.3246	0.2992
865.4873	-0
865.65	-1.1018
865.8126	-0
865.9752	-0.3227
866.1378	-0.503
866.3004	0.0907
866.4629	-0.1736
866.6254	-0
866.7879	0.5492
866.9504	-0
867.1129	-0.0214
867.2753	-0.4323
867.4377	-0
867.6001	-0
867.7625	-0.4347
867.9249	0.0987
868.0872	0.4502
868.2495	-0
868.4118	-0.2171
868.5741	-0
868.7363	-0
868.8986	0.4385
869.0608	0.302
869.223	0.1694
869.3851	-0
869.5473	-1.3561
869.7094	0.0324
869.8715	-0
870.0336	0.2015
870.1957	-0
870.3577	-0.0317
870.5197	0.0109
870.6817	-0
870.8437	0.2547
871.0057	0.2276
871.1676	0.0352
871.3295	-0
871.4914	-0
871.6533	0.3671
871.8151	0.0525
871.977	0.9225
872.1388	-0
872.3006	-0.1067
872.4623	0.4771
872.6241	-0
872.7858	0.4588
872.9475	-0.0778
873.1092	0.5327
873.2709	-0.119
873.4325	-0
873.5941	-1.0077
873.7557	-0.4475
873.9173	-0.5501
874.0789	-0.1095
874.2404	-0.1304
874.4019	-0.0618
874.5634	0.2482
874.7249	-0.4551
874.8863	-0.72
875.0478	0.5272
875.2092	-0.0912
875.3706	0.0187
875.5319	0.2613
875.6933	-0.0761
875.8546	-0.4272
876.0159	-0.1972
876.1772	-0.0256
876.3385	-0.5407
876.4997	-0
876.6609	-0.8912
876.8221	0.0012
876.9833	-0
877.1445	0.2035
877.3056	0.6181
877.4667	-0
877.6278	-0.5019
877.7889	-0
877.9499	-0.6027
878.111	-0.0657
878.272	-0.5674
878.433	-0.4491
878.5939	-0.0835
878.7549	0.3069
878.9158	-0
879.0767	0.0059
879.2376	-0
879.3984	-0.3439
879.5593	-0.2509
879.7201	-0.1872
879.8809	-0
880.0417	0.5571
880.2024	-0
880.3632	-0.1428
880.5239	-0.0147
880.6846	0.0079
880.8452	0.7797
881.0059	0.0388
881.1665	-0.0761
881.3271	-0
881.4877	0.4659
881.6483	-0.9648
881.8088	-0.1011
881.9693	-0
882.1298	-0
882.2903	-0
