Data from D4ACN5uM480nmA_Absorbance_12-08-01-076.txt Node
Date: Fri Feb 21 12:08:01 GMT 2025
User: LASERRRRR
Spectrometer: FLMT03099
Trigger mode: 0
Integration Time (sec): 1.500000E-2
Scans to average: 1
Electric dark correction enabled: true
Nonlinearity correction enabled: false
Boxcar width: 0
XAxis mode: Wavelengths
Number of Pixels in Spectrum: 3648
>>>>>Begin Spectral Data<<<<<
179.3399	0.331
179.5586	0.331
179.7771	0.331
179.9957	0.0965
180.2143	0.1493
180.4329	-0
180.6514	-0.3579
180.8699	-0
181.0885	-0.0552
181.307	0.0835
181.5255	-0.1376
181.744	-0.2293
181.9625	0.1437
182.181	-0
182.3994	-0
182.6179	-0
182.8363	0
183.0547	-0
183.2732	0.2807
183.4916	0.5342
183.71	0.1485
183.9284	0.2546
184.1467	-0.0568
184.3651	0.2205
184.5835	0.0777
184.8018	0.2695
185.0201	0.0884
185.2385	0.1112
185.4568	0.2088
185.6751	0.1454
185.8934	0.1579
186.1117	0.3075
186.3299	0.2318
186.5482	0.261
186.7664	0.1188
186.9847	0.1275
187.2029	0.0808
187.4211	0.3314
187.6393	0.2241
187.8575	0.1586
188.0757	0.7173
188.2939	0.0441
188.512	0.2201
188.7302	-0.0085
188.9483	0.2243
189.1665	0.1234
189.3846	-0.0633
189.6027	0.1003
189.8208	0.1498
190.0389	0.3171
190.257	0.1004
190.475	0.6199
190.6931	0.3096
190.9111	0.4645
191.1292	0.1814
191.3472	0.2596
191.5652	0.1994
191.7832	0.348
192.0012	0.3348
192.2192	0.1771
192.4371	0.2687
192.6551	0.2897
192.873	0.2857
193.091	0.2417
193.3089	0.0683
193.5268	0.37
193.7447	0.4349
193.9626	0.4209
194.1805	0.5166
194.3984	0.3332
194.6162	0.2936
194.8341	0.8255
195.0519	0.6088
195.2697	0.5531
195.4875	0.5484
195.7054	0.5469
195.9231	0.4404
196.1409	0.5859
196.3587	0.5942
196.5765	0.5897
196.7942	0.645
197.012	0.4593
197.2297	0.4485
197.4474	0.6597
197.6651	0.6369
197.8828	0.6478
198.1005	0.6122
198.3182	0.5323
198.5358	0.6897
198.7535	0.5357
198.9711	0.6848
199.1888	0.5667
199.4064	0.6011
199.624	0.5935
199.8416	0.6094
200.0592	0.5909
200.2767	0.5371
200.4943	0.5966
200.7119	0.637
200.9294	0.6269
201.1469	0.6944
201.3645	0.594
201.582	0.5836
201.7995	0.6713
202.017	0.5468
202.2344	0.5534
202.4519	0.6125
202.6694	0.5325
202.8868	0.5576
203.1042	0.5808
203.3217	0.5264
203.5391	0.5137
203.7565	0.5121
203.9739	0.5033
204.1913	0.4988
204.4086	0.5609
204.626	0.5407
204.8433	0.5164
205.0607	0.5083
205.278	0.4872
205.4953	0.4831
205.7126	0.4425
205.9299	0.4209
206.1472	0.5115
206.3644	0.462
206.5817	0.4937
206.7989	0.4719
207.0162	0.422
207.2334	0.4386
207.4506	0.4405
207.6678	0.4519
207.885	0.418
208.1022	0.4221
208.3194	0.4369
208.5365	0.4858
208.7537	0.4505
208.9708	0.4275
209.1879	0.4074
209.405	0.4173
209.6222	0.4135
209.8392	0.4282
210.0563	0.389
210.2734	0.4006
210.4905	0.4265
210.7075	0.4374
210.9245	0.4187
211.1416	0.4088
211.3586	0.417
211.5756	0.4033
211.7926	0.4104
212.0096	0.3835
212.2265	0.398
212.4435	0.4118
212.6604	0.3882
212.8774	0.4119
213.0943	0.4276
213.3112	0.4127
213.5281	0.3982
213.745	0.3923
213.9619	0.396
214.1788	0.3849
214.3956	0.4335
214.6125	0.3818
214.8293	0.4028
215.0461	0.3975
215.2629	0.4151
215.4798	0.3949
215.6965	0.3955
215.9133	0.3906
216.1301	0.3997
216.3469	0.3843
216.5636	0.398
216.7803	0.4093
216.9971	0.4172
217.2138	0.4054
217.4305	0.4135
217.6472	0.4486
217.8639	0.4006
218.0805	0.4232
218.2972	0.4087
218.5138	0.4255
218.7305	0.4119
218.9471	0.4111
219.1637	0.4312
219.3803	0.4109
219.5969	0.4139
219.8135	0.4243
220.0301	0.4251
220.2466	0.4348
220.4632	0.4194
220.6797	0.4295
220.8962	0.4231
221.1127	0.4529
221.3292	0.4299
221.5457	0.4365
221.7622	0.4424
221.9787	0.4538
222.1951	0.4299
222.4116	0.4515
222.628	0.4452
222.8444	0.4526
223.0608	0.4271
223.2772	0.442
223.4936	0.4567
223.71	0.4626
223.9264	0.4642
224.1427	0.4528
224.3591	0.4551
224.5754	0.4504
224.7917	0.4602
225.008	0.451
225.2243	0.4668
225.4406	0.474
225.6569	0.4566
225.8732	0.4505
226.0894	0.4703
226.3057	0.4558
226.5219	0.4644
226.7381	0.4667
226.9543	0.4646
227.1705	0.4782
227.3867	0.4733
227.6029	0.477
227.8191	0.472
228.0352	0.4866
228.2513	0.4856
228.4675	0.4791
228.6836	0.4938
228.8997	0.4943
229.1158	0.4935
229.3319	0.4997
229.548	0.4811
229.764	0.5178
229.9801	0.5159
230.1961	0.5043
230.4121	0.5054
230.6282	0.5013
230.8442	0.5157
231.0602	0.5096
231.2761	0.5183
231.4921	0.5171
231.7081	0.5113
231.924	0.5208
232.14	0.5237
232.3559	0.5355
232.5718	0.5306
232.7877	0.53
233.0036	0.5231
233.2195	0.5407
233.4353	0.53
233.6512	0.5392
233.867	0.5415
234.0829	0.5298
234.2987	0.5299
234.5145	0.5276
234.7303	0.5337
234.9461	0.5389
235.1619	0.5272
235.3776	0.5297
235.5934	0.5321
235.8091	0.5251
236.0249	0.5334
236.2406	0.5462
236.4563	0.5338
236.672	0.5492
236.8877	0.5463
237.1034	0.5343
237.319	0.5527
237.5347	0.5223
237.7503	0.5345
237.966	0.5246
238.1816	0.537
238.3972	0.5444
238.6128	0.5425
238.8284	0.5329
239.0439	0.5366
239.2595	0.5243
239.475	0.5293
239.6906	0.5297
239.9061	0.5339
240.1216	0.5255
240.3371	0.5192
240.5526	0.5221
240.7681	0.5301
240.9836	0.5188
241.199	0.499
241.4145	0.4994
241.6299	0.4915
241.8453	0.4971
242.0607	0.4842
242.2761	0.4806
242.4915	0.4763
242.7069	0.4626
242.9223	0.4556
243.1376	0.4553
243.353	0.4464
243.5683	0.4399
243.7836	0.4213
243.9989	0.4241
244.2142	0.4197
244.4295	0.4107
244.6448	0.3969
244.86	0.3901
245.0753	0.39
245.2905	0.3744
245.5057	0.3664
245.721	0.3545
245.9362	0.3547
246.1514	0.3439
246.3665	0.3446
246.5817	0.3286
246.7969	0.3224
247.012	0.3289
247.2271	0.3113
247.4423	0.3041
247.6574	0.3076
247.8725	0.3058
248.0876	0.29
248.3026	0.2854
248.5177	0.2829
248.7328	0.2804
248.9478	0.2676
249.1628	0.2715
249.3779	0.2681
249.5929	0.2623
249.8079	0.2599
250.0228	0.2522
250.2378	0.253
250.4528	0.256
250.6677	0.2402
250.8827	0.2412
251.0976	0.2389
251.3125	0.2346
251.5274	0.2306
251.7423	0.2323
251.9572	0.2247
252.172	0.2179
252.3869	0.2222
252.6017	0.2128
252.8166	0.2146
253.0314	0.2231
253.2462	0.2157
253.461	0.2147
253.6758	0.2072
253.8906	0.199
254.1053	0.2036
254.3201	0.2046
254.5348	0.2021
254.7496	0.2046
254.9643	0.2056
255.179	0.2019
255.3937	0.2015
255.6083	0.2
255.823	0.1942
256.0377	0.1987
256.2523	0.198
256.467	0.2005
256.6816	0.1938
256.8962	0.1934
257.1108	0.1964
257.3254	0.1921
257.54	0.1869
257.7545	0.1883
257.9691	0.1893
258.1836	0.1923
258.3981	0.1884
258.6127	0.1828
258.8272	0.1895
259.0417	0.1835
259.2561	0.184
259.4706	0.1957
259.6851	0.1889
259.8995	0.1842
260.114	0.183
260.3284	0.1838
260.5428	0.1789
260.7572	0.1869
260.9716	0.1832
261.186	0.1867
261.4003	0.1831
261.6147	0.19
261.829	0.1845
262.0433	0.1795
262.2577	0.188
262.472	0.1892
262.6863	0.1905
262.9005	0.1901
263.1148	0.1778
263.3291	0.1886
263.5433	0.1874
263.7576	0.1835
263.9718	0.1901
264.186	0.19
264.4002	0.1827
264.6144	0.1897
264.8286	0.1899
265.0427	0.1904
265.2569	0.1871
265.471	0.1901
265.6851	0.1888
265.8993	0.1821
266.1134	0.1877
266.3275	0.1773
266.5415	0.1865
266.7556	0.1834
266.9697	0.1886
267.1837	0.1809
267.3978	0.1903
267.6118	0.1822
267.8258	0.1838
268.0398	0.1891
268.2538	0.1907
268.4677	0.1871
268.6817	0.1772
268.8957	0.1822
269.1096	0.1751
269.3235	0.1831
269.5374	0.1782
269.7514	0.1815
269.9652	0.1821
270.1791	0.1753
270.393	0.1795
270.6068	0.1741
270.8207	0.1739
271.0345	0.1741
271.2483	0.181
271.4622	0.1763
271.676	0.1761
271.8897	0.1735
272.1035	0.1666
272.3173	0.169
272.531	0.1764
272.7448	0.1744
272.9585	0.1694
273.1722	0.1768
273.3859	0.1661
273.5996	0.1694
273.8133	0.1661
274.0269	0.1755
274.2406	0.1743
274.4542	0.1665
274.6679	0.1722
274.8815	0.1743
275.0951	0.1702
275.3087	0.1739
275.5223	0.1694
275.7358	0.1821
275.9494	0.1801
276.1629	0.1724
276.3765	0.171
276.59	0.1767
276.8035	0.1788
277.017	0.1792
277.2305	0.1753
277.444	0.1767
277.6574	0.1815
277.8709	0.1818
278.0843	0.179
278.2978	0.1819
278.5112	0.1861
278.7246	0.1787
278.938	0.1796
279.1513	0.18
279.3647	0.1781
279.5781	0.1792
279.7914	0.1827
280.0047	0.1792
280.2181	0.1853
280.4314	0.1801
280.6447	0.1825
280.8579	0.1766
281.0712	0.1814
281.2845	0.1856
281.4977	0.1853
281.711	0.1808
281.9242	0.1821
282.1374	0.1788
282.3506	0.1855
282.5638	0.184
282.7769	0.1866
282.9901	0.1837
283.2033	0.1848
283.4164	0.1909
283.6295	0.1841
283.8426	0.1868
284.0557	0.1814
284.2688	0.1929
284.4819	0.1911
284.695	0.1851
284.908	0.1864
285.1211	0.1916
285.3341	0.1886
285.5471	0.1997
285.7601	0.1952
285.9731	0.1887
286.1861	0.1968
286.3991	0.1947
286.612	0.1906
286.825	0.1938
287.0379	0.2
287.2508	0.194
287.4637	0.1928
287.6766	0.1916
287.8895	0.1852
288.1024	0.1942
288.3152	0.196
288.5281	0.1964
288.7409	0.1939
288.9538	0.1938
289.1666	0.1979
289.3794	0.2007
289.5922	0.2019
289.8049	0.1993
290.0177	0.1994
290.2304	0.2038
290.4432	0.2031
290.6559	0.1913
290.8686	0.1998
291.0813	0.2011
291.294	0.2011
291.5067	0.1997
291.7194	0.1962
291.932	0.1977
292.1447	0.1995
292.3573	0.1983
292.5699	0.2064
292.7825	0.201
292.9951	0.2055
293.2077	0.2008
293.4203	0.1984
293.6328	0.197
293.8454	0.1948
294.0579	0.206
294.2704	0.2011
294.4829	0.2009
294.6954	0.2013
294.9079	0.2043
295.1204	0.2038
295.3328	0.1951
295.5453	0.1966
295.7577	0.1975
295.9701	0.203
296.1825	0.1951
296.3949	0.2039
296.6073	0.2017
296.8197	0.1999
297.0321	0.2022
297.2444	0.199
297.4567	0.1976
297.6691	0.1989
297.8814	0.1964
298.0937	0.2004
298.306	0.1949
298.5182	0.2022
298.7305	0.1977
298.9428	0.1936
299.155	0.197
299.3672	0.2012
299.5794	0.1949
299.7916	0.1974
300.0038	0.1977
300.216	0.2026
300.4282	0.193
300.6403	0.1966
300.8525	0.2027
301.0646	0.1937
301.2767	0.1961
301.4888	0.1936
301.7009	0.1962
301.913	0.1988
302.125	0.1945
302.3371	0.1954
302.5491	0.1974
302.7612	0.1946
302.9732	0.1963
303.1852	0.1971
303.3972	0.1908
303.6092	0.1944
303.8211	0.19
304.0331	0.1938
304.245	0.1965
304.457	0.2026
304.6689	0.194
304.8808	0.1901
305.0927	0.1922
305.3046	0.1836
305.5164	0.1913
305.7283	0.1861
305.9401	0.1827
306.152	0.1754
306.3638	0.1766
306.5756	0.1833
306.7874	0.176
306.9992	0.1792
307.2109	0.1699
307.4227	0.1721
307.6344	0.1783
307.8462	0.17
308.0579	0.171
308.2696	0.1676
308.4813	0.1623
308.693	0.1672
308.9046	0.1554
309.1163	0.1613
309.328	0.1539
309.5396	0.1602
309.7512	0.1574
309.9628	0.1576
310.1744	0.1553
310.386	0.1486
310.5976	0.147
310.8091	0.1496
311.0207	0.1479
311.2322	0.1463
311.4437	0.1438
311.6552	0.1475
311.8667	0.1373
312.0782	0.1439
312.2897	0.1415
312.5012	0.1421
312.7126	0.1316
312.924	0.1354
313.1355	0.1261
313.3469	0.1258
313.5583	0.1263
313.7696	0.1254
313.981	0.1287
314.1924	0.1293
314.4037	0.1285
314.6151	0.1308
314.8264	0.1264
315.0377	0.1311
315.249	0.1208
315.4603	0.1229
315.6716	0.1259
315.8828	0.1197
316.0941	0.1224
316.3053	0.1179
316.5165	0.1166
316.7277	0.1264
316.9389	0.1209
317.1501	0.1202
317.3613	0.118
317.5724	0.1212
317.7836	0.1174
317.9947	0.1141
318.2058	0.1163
318.417	0.1114
318.6281	0.1157
318.8391	0.1146
319.0502	0.1188
319.2613	0.1164
319.4723	0.1151
319.6834	0.1173
319.8944	0.1188
320.1054	0.1216
320.3164	0.1178
320.5274	0.1101
320.7383	0.1165
320.9493	0.1172
321.1602	0.1169
321.3712	0.1209
321.5821	0.1226
321.793	0.1167
322.0039	0.1184
322.2148	0.1213
322.4257	0.1191
322.6365	0.1179
322.8474	0.1178
323.0582	0.1144
323.269	0.1078
323.4798	0.1146
323.6906	0.115
323.9014	0.1143
324.1122	0.1162
324.3229	0.1181
324.5337	0.1203
324.7444	0.1159
324.9551	0.1241
325.1658	0.1164
325.3765	0.1219
325.5872	0.1144
325.7979	0.12
326.0085	0.1221
326.2192	0.1179
326.4298	0.122
326.6404	0.1186
326.851	0.1155
327.0616	0.1245
327.2722	0.1281
327.4828	0.1151
327.6933	0.1205
327.9039	0.1183
328.1144	0.1204
328.3249	0.1287
328.5354	0.1195
328.7459	0.1191
328.9564	0.1302
329.1669	0.1202
329.3773	0.119
329.5878	0.1257
329.7982	0.1215
330.0086	0.1265
330.219	0.1288
330.4294	0.1249
330.6398	0.1293
330.8502	0.126
331.0605	0.1222
331.2708	0.1266
331.4812	0.1225
331.6915	0.1239
331.9018	0.1216
332.1121	0.1258
332.3224	0.131
332.5326	0.1279
332.7429	0.1187
332.9531	0.1227
333.1633	0.1272
333.3735	0.1214
333.5837	0.1289
333.7939	0.1256
334.0041	0.1206
334.2143	0.1247
334.4244	0.1254
334.6346	0.1211
334.8447	0.1273
335.0548	0.1251
335.2649	0.1299
335.475	0.1241
335.685	0.126
335.8951	0.1288
336.1051	0.128
336.3152	0.1264
336.5252	0.1295
336.7352	0.12
336.9452	0.1327
337.1552	0.1283
337.3652	0.1261
337.5751	0.1211
337.7851	0.1279
337.995	0.1313
338.2049	0.1289
338.4148	0.1281
338.6247	0.1321
338.8346	0.1251
339.0445	0.1322
339.2543	0.1335
339.4642	0.1438
339.674	0.1358
339.8838	0.1309
340.0936	0.1413
340.3034	0.139
340.5132	0.1259
340.7229	0.1358
340.9327	0.1325
341.1424	0.136
341.3522	0.1364
341.5619	0.1381
341.7716	0.1399
341.9813	0.1412
342.1909	0.142
342.4006	0.1434
342.6102	0.1362
342.8199	0.1397
343.0295	0.1414
343.2391	0.1422
343.4487	0.1444
343.6583	0.1487
343.8679	0.1444
344.0774	0.141
344.287	0.1427
344.4965	0.1414
344.706	0.1487
344.9155	0.1434
345.125	0.1481
345.3345	0.1426
345.544	0.1498
345.7534	0.1505
345.9629	0.1502
346.1723	0.151
346.3817	0.1447
346.5911	0.1502
346.8005	0.1511
347.0099	0.1548
347.2193	0.1489
347.4286	0.1571
347.638	0.1543
347.8473	0.1551
348.0566	0.1636
348.2659	0.1587
348.4752	0.1495
348.6845	0.1603
348.8937	0.1599
349.103	0.1498
349.3122	0.1691
349.5214	0.1605
349.7306	0.1612
349.9398	0.1598
350.149	0.1699
350.3582	0.1572
350.5674	0.1646
350.7765	0.1618
350.9856	0.163
351.1948	0.1603
351.4039	0.1618
351.613	0.1768
351.822	0.1683
352.0311	0.1689
352.2402	0.1691
352.4492	0.1757
352.6582	0.1702
352.8672	0.1722
353.0762	0.1701
353.2852	0.1674
353.4942	0.1738
353.7032	0.1679
353.9121	0.179
354.1211	0.1768
354.33	0.1815
354.5389	0.1794
354.7478	0.178
354.9567	0.1759
355.1655	0.1774
355.3744	0.1806
355.5833	0.1832
355.7921	0.1794
356.0009	0.1788
356.2097	0.1878
356.4185	0.1878
356.6273	0.1833
356.8361	0.1952
357.0448	0.1946
357.2536	0.1867
357.4623	0.1811
357.671	0.1927
357.8797	0.188
358.0884	0.1904
358.2971	0.1833
358.5057	0.1918
358.7144	0.2001
358.923	0.1914
359.1316	0.1912
359.3402	0.2004
359.5488	0.2006
359.7574	0.2039
359.966	0.2004
360.1746	0.2007
360.3831	0.2079
360.5916	0.2071
360.8002	0.2162
361.0087	0.2098
361.2172	0.214
361.4256	0.1994
361.6341	0.2166
361.8426	0.2136
362.051	0.2092
362.2594	0.2182
362.4678	0.218
362.6762	0.217
362.8846	0.2153
363.093	0.2081
363.3014	0.2196
363.5097	0.2238
363.718	0.2335
363.9264	0.2197
364.1347	0.2313
364.343	0.2304
364.5513	0.2303
364.7595	0.2335
364.9678	0.2302
365.176	0.2409
365.3842	0.2322
365.5925	0.228
365.8007	0.2315
366.0089	0.2334
366.217	0.2388
366.4252	0.2345
366.6333	0.2303
366.8415	0.2359
367.0496	0.2372
367.2577	0.2489
367.4658	0.2444
367.6739	0.2418
367.882	0.2432
368.09	0.2386
368.2981	0.2462
368.5061	0.2408
368.7141	0.2519
368.9221	0.253
369.1301	0.2495
369.3381	0.2598
369.5461	0.2532
369.754	0.2536
369.962	0.2512
370.1699	0.2609
370.3778	0.2565
370.5857	0.2515
370.7936	0.2627
371.0015	0.2549
371.2093	0.2614
371.4172	0.2633
371.625	0.2664
371.8328	0.2661
372.0406	0.2756
372.2484	0.2562
372.4562	0.2617
372.664	0.2742
372.8717	0.2665
373.0795	0.2724
373.2872	0.2718
373.4949	0.2761
373.7026	0.2832
373.9103	0.2715
374.118	0.2687
374.3256	0.2823
374.5333	0.285
374.7409	0.2711
374.9485	0.2734
375.1561	0.288
375.3637	0.2807
375.5713	0.2724
375.7789	0.2764
375.9864	0.2807
376.194	0.2854
376.4015	0.2869
376.609	0.2812
376.8165	0.2975
377.024	0.278
377.2315	0.2934
377.4389	0.2796
377.6464	0.2846
377.8538	0.2886
378.0612	0.2863
378.2686	0.2849
378.476	0.2953
378.6834	0.2913
378.8908	0.2948
379.0981	0.2986
379.3055	0.3007
379.5128	0.2924
379.7201	0.291
379.9274	0.2871
380.1347	0.3058
380.342	0.3102
380.5492	0.3024
380.7565	0.304
380.9637	0.303
381.1709	0.295
381.3781	0.3126
381.5853	0.306
381.7925	0.3121
381.9997	0.3086
382.2068	0.2948
382.4139	0.311
382.6211	0.3071
382.8282	0.3027
383.0353	0.3055
383.2424	0.3071
383.4494	0.3067
383.6565	0.3092
383.8635	0.3167
384.0706	0.311
384.2776	0.3248
384.4846	0.315
384.6916	0.3101
384.8986	0.3151
385.1055	0.3096
385.3125	0.3131
385.5194	0.3127
385.7263	0.3063
385.9333	0.3107
386.1402	0.3226
386.347	0.3207
386.5539	0.3263
386.7608	0.3133
386.9676	0.325
387.1744	0.3166
387.3813	0.299
387.5881	0.3135
387.7948	0.321
388.0016	0.3177
388.2084	0.3203
388.4151	0.3081
388.6219	0.3097
388.8286	0.314
389.0353	0.3077
389.242	0.3085
389.4487	0.3143
389.6553	0.3062
389.862	0.3036
390.0686	0.3071
390.2753	0.3177
390.4819	0.3081
390.6885	0.2994
390.8951	0.3119
391.1016	0.3092
391.3082	0.2953
391.5147	0.2939
391.7213	0.3041
391.9278	0.3008
392.1343	0.2915
392.3408	0.2933
392.5473	0.2947
392.7537	0.2951
392.9602	0.2925
393.1666	0.2988
393.373	0.2846
393.5794	0.291
393.7858	0.2871
393.9922	0.2934
394.1986	0.2834
394.4049	0.2884
394.6113	0.2837
394.8176	0.2738
395.0239	0.2736
395.2302	0.2725
395.4365	0.2767
395.6428	0.2868
395.8491	0.2761
396.0553	0.2766
396.2615	0.2778
396.4678	0.2792
396.674	0.2793
396.8802	0.264
397.0863	0.2728
397.2925	0.2753
397.4987	0.2637
397.7048	0.2768
397.9109	0.2742
398.117	0.2775
398.3231	0.2745
398.5292	0.2687
398.7353	0.2622
398.9413	0.266
399.1474	0.2821
399.3534	0.2681
399.5594	0.27
399.7654	0.2669
399.9714	0.2575
400.1774	0.2661
400.3833	0.2723
400.5893	0.2665
400.7952	0.2661
401.0011	0.2581
401.207	0.2691
401.4129	0.2658
401.6188	0.2638
401.8247	0.2677
402.0305	0.2588
402.2364	0.2709
402.4422	0.2775
402.648	0.2686
402.8538	0.2718
403.0596	0.2655
403.2654	0.2673
403.4711	0.2708
403.6768	0.27
403.8826	0.2586
404.0883	0.2704
404.294	0.2653
404.4997	0.2633
404.7054	0.272
404.911	0.2628
405.1167	0.2627
405.3223	0.2768
405.5279	0.2738
405.7335	0.2565
405.9391	0.2652
406.1447	0.2713
406.3502	0.2714
406.5558	0.2837
406.7613	0.2707
406.9668	0.2715
407.1724	0.2707
407.3778	0.2487
407.5833	0.2632
407.7888	0.2754
407.9942	0.2689
408.1997	0.2677
408.4051	0.2732
408.6105	0.268
408.8159	0.2671
409.0213	0.2722
409.2267	0.2655
409.432	0.266
409.6374	0.2715
409.8427	0.2692
410.048	0.257
410.2533	0.2668
410.4586	0.2732
410.6639	0.268
410.8691	0.2878
411.0744	0.2677
411.2796	0.2728
411.4848	0.2658
411.69	0.2624
411.8952	0.2527
412.1004	0.2641
412.3056	0.2601
412.5107	0.2778
412.7158	0.2766
412.921	0.2623
413.1261	0.2718
413.3312	0.2645
413.5362	0.2619
413.7413	0.2654
413.9464	0.2615
414.1514	0.2632
414.3564	0.258
414.5614	0.2604
414.7664	0.259
414.9714	0.261
415.1764	0.2546
415.3813	0.2628
415.5863	0.2713
415.7912	0.2566
415.9961	0.2613
416.201	0.2704
416.4059	0.2588
416.6108	0.2557
416.8156	0.2444
417.0205	0.2661
417.2253	0.2643
417.4301	0.2615
417.6349	0.2568
417.8397	0.2672
418.0445	0.2659
418.2492	0.2513
418.454	0.251
418.6587	0.2647
418.8634	0.257
419.0681	0.2507
419.2728	0.2438
419.4775	0.2644
419.6822	0.2492
419.8868	0.2498
420.0915	0.2543
420.2961	0.2502
420.5007	0.2453
420.7053	0.2502
420.9099	0.2428
421.1144	0.2387
421.319	0.2569
421.5235	0.2382
421.728	0.2363
421.9325	0.249
422.137	0.2329
422.3415	0.2498
422.546	0.2447
422.7504	0.2355
422.9549	0.2371
423.1593	0.2342
423.3637	0.23
423.5681	0.2336
423.7725	0.2365
423.9769	0.2393
424.1812	0.2431
424.3856	0.2294
424.5899	0.2394
424.7942	0.2261
424.9985	0.2309
425.2028	0.2287
425.4071	0.2243
425.6113	0.2377
425.8156	0.2219
426.0198	0.2205
426.224	0.2361
426.4282	0.2261
426.6324	0.2227
426.8366	0.2291
427.0407	0.2246
427.2449	0.2197
427.449	0.2133
427.6531	0.22
427.8572	0.2144
428.0613	0.2117
428.2654	0.2106
428.4694	0.2021
428.6735	0.2078
428.8775	0.2074
429.0815	0.2094
429.2855	0.1987
429.4895	0.1917
429.6935	0.2012
429.8975	0.2021
430.1014	0.2034
430.3053	0.1935
430.5093	0.201
430.7132	0.199
430.9171	0.1875
431.1209	0.1896
431.3248	0.1783
431.5286	0.175
431.7325	0.183
431.9363	0.1976
432.1401	0.1704
432.3439	0.1755
432.5477	0.1885
432.7514	0.1723
432.9552	0.1703
433.1589	0.1662
433.3627	0.1728
433.5664	0.1626
433.7701	0.1676
433.9737	0.1629
434.1774	0.1742
434.3811	0.1721
434.5847	0.1664
434.7883	0.1601
434.9919	0.1542
435.1955	0.1645
435.3991	0.1547
435.6027	0.1602
435.8062	0.1544
436.0098	0.1536
436.2133	0.1591
436.4168	0.1548
436.6203	0.1404
436.8238	0.142
437.0272	0.1444
437.2307	0.1423
437.4341	0.1325
437.6375	0.1351
437.841	0.1322
438.0443	0.1298
438.2477	0.1296
438.4511	0.1229
438.6545	0.1262
438.8578	0.1308
439.0611	0.1291
439.2644	0.1175
439.4677	0.1156
439.671	0.1079
439.8743	0.1157
440.0775	0.1133
440.2808	0.1171
440.484	0.1102
440.6872	0.104
440.8904	0.1018
441.0936	0.115
441.2967	0.0997
441.4999	0.1104
441.703	0.096
441.9062	0.1019
442.1093	0.0989
442.3124	0.0947
442.5155	0.0959
442.7185	0.0853
442.9216	0.0902
443.1246	0.0933
443.3276	0.0778
443.5307	0.0864
443.7337	0.0807
443.9366	0.0846
444.1396	0.0767
444.3426	0.0802
444.5455	0.0736
444.7484	0.0805
444.9513	0.087
445.1542	0.0803
445.3571	0.0679
445.56	0.0662
445.7628	0.0713
445.9657	0.0774
446.1685	0.0769
446.3713	0.0626
446.5741	0.0612
446.7769	0.0666
446.9797	0.0639
447.1824	0.0664
447.3852	0.059
447.5879	0.0594
447.7906	0.0541
447.9933	0.0638
448.196	0.0604
448.3986	0.0537
448.6013	0.0547
448.8039	0.0542
449.0066	0.0629
449.2092	0.0493
449.4118	0.053
449.6143	0.0532
449.8169	0.05
450.0195	0.051
450.222	0.047
450.4245	0.0564
450.627	0.0499
450.8295	0.0485
451.032	0.0432
451.2345	0.0396
451.4369	0.05
451.6394	0.0414
451.8418	0.0416
452.0442	0.0423
452.2466	0.0368
452.449	0.037
452.6513	0.0406
452.8537	0.0385
453.056	0.0402
453.2583	0.0396
453.4607	0.0353
453.663	0.0364
453.8652	0.0338
454.0675	0.0319
454.2697	0.0257
454.472	0.0359
454.6742	0.0286
454.8764	0.034
455.0786	0.0322
455.2808	0.0316
455.4829	0.0161
455.6851	0.0218
455.8872	0.0324
456.0893	0.0246
456.2915	0.0169
456.4935	0.0265
456.6956	0.0303
456.8977	0.0245
457.0997	0.0289
457.3018	0.0318
457.5038	0.0187
457.7058	0.0248
457.9078	0.0315
458.1098	0.0243
458.3117	0.0203
458.5137	0.0414
458.7156	0.0267
458.9175	0.0102
459.1194	0.0274
459.3213	0.0145
459.5232	0.0097
459.725	0.0184
459.9269	0.0188
460.1287	0.0062
460.3305	0.0095
460.5323	0.0191
460.7341	0.0113
460.9359	0.0208
461.1376	0.0197
461.3394	0.0102
461.5411	0.0167
461.7428	0.0145
461.9445	0.0236
462.1462	0.0187
462.3479	0.0148
462.5495	0.0143
462.7512	0.004
462.9528	0.0173
463.1544	0.0117
463.356	0.0127
463.5576	0.0046
463.7592	0.0043
463.9607	0.0141
464.1623	0.0214
464.3638	0.0073
464.5653	0.0101
464.7668	0.0078
464.9683	0.0143
465.1697	0.0096
465.3712	0.0084
465.5726	0.0102
465.7741	0.0052
465.9755	0.0168
466.1769	0.0077
466.3782	0.0102
466.5796	0.0103
466.7809	0.0135
466.9823	0.0092
467.1836	0.012
467.3849	-0.0046
467.5862	-0.003
467.7875	0.005
467.9887	0.0094
468.19	0.0034
468.3912	0.0097
468.5924	0.0211
468.7936	0.0043
468.9948	0.0182
469.196	0.0149
469.3972	0.0186
469.5983	-0.0007
469.7994	0.0005
470.0006	0.0049
470.2017	0.0058
470.4027	-0.0024
470.6038	-0.0071
470.8049	-0.0019
471.0059	0.0068
471.2069	0.0122
471.408	0.0051
471.6089	0.0065
471.8099	0.0032
472.0109	-0.0002
472.2119	0.0141
472.4128	0.0048
472.6137	0.0014
472.8146	-0.0013
473.0155	0.0024
473.2164	-0.0061
473.4173	0.0097
473.6181	0.0082
473.819	-0.0073
474.0198	0.0065
474.2206	0.0055
474.4214	0.0079
474.6222	0.0078
474.8229	0.0085
475.0237	-0.0037
475.2244	0.0112
475.4251	0.0036
475.6258	0.0098
475.8265	-0.005
476.0272	0.0043
476.2278	-0.002
476.4285	0.0045
476.6291	0.0093
476.8297	0.0038
477.0303	0.0078
477.2309	0.0037
477.4315	0.0098
477.632	0.0085
477.8326	-0.0002
478.0331	-0.0008
478.2336	0.0089
478.4341	-0.0033
478.6346	0.0017
478.8351	0.0096
479.0355	0.0088
479.236	0.0008
479.4364	-0.0094
479.6368	0.004
479.8372	0.0077
480.0376	0.0001
480.2379	0.0091
480.4383	-0.0041
480.6386	0.0027
480.8389	0.0103
481.0392	0.0079
481.2395	0.0094
481.4398	0.0046
481.6401	-0.0029
481.8403	-0.0011
482.0405	0.0076
482.2408	0.0012
482.441	-0.0035
482.6411	0.0008
482.8413	-0.0035
483.0415	0.0024
483.2416	0.0082
483.4417	-0.0015
483.6419	0.0058
483.8419	-0.0011
484.042	0.0062
484.2421	-0.0081
484.4422	0.0034
484.6422	0.0001
484.8422	0.0012
485.0422	0.001
485.2422	0.0004
485.4422	0.0025
485.6422	-0.0004
485.8421	-0.0004
486.042	0.0078
486.242	0.0025
486.4419	0.0007
486.6417	0.0039
486.8416	0.0041
487.0415	-0.0019
487.2413	-0.001
487.4411	0.006
487.641	0.0098
487.8408	0.0072
488.0405	0.0045
488.2403	0.0006
488.4401	-0.0091
488.6398	0.004
488.8395	-0.0041
489.0392	0.003
489.2389	-0.0045
489.4386	-0.0019
489.6383	0.0023
489.8379	-0.0009
490.0376	0.006
490.2372	-0.003
490.4368	0.0133
490.6364	0.0095
490.836	0.0021
491.0355	0.0072
491.2351	0.0007
491.4346	0.007
491.6341	-0.0035
491.8336	-0.002
492.0331	-0.0065
492.2326	-0.0016
492.432	0.002
492.6315	0.005
492.8309	0.0116
493.0303	-0.0082
493.2297	-0.0064
493.4291	-0.0123
493.6284	-0.0005
493.8278	0.0031
494.0271	0.001
494.2264	-0.0005
494.4257	-0.0044
494.625	-0.0036
494.8243	0.0074
495.0236	0.0052
495.2228	-0.0039
495.422	0.0086
495.6213	-0.0011
495.8205	0.0047
496.0196	0.0025
496.2188	0.0023
496.418	-0.0071
496.6171	0.0038
496.8162	-0.0027
497.0153	0.0028
497.2144	-0.0078
497.4135	0.0024
497.6126	0.001
497.8116	-0.0058
498.0107	-0.0019
498.2097	0.0137
498.4087	-0.0024
498.6077	0.0017
498.8067	0.0078
499.0056	0.0004
499.2046	0.0074
499.4035	0.0028
499.6024	-0.0083
499.8013	0.007
500.0002	0.0003
500.199	0.0047
500.3979	0.007
500.5967	-0.0038
500.7956	-0.0039
500.9944	0.0034
501.1932	0.0037
501.3919	0.0082
501.5907	0.0091
501.7895	0.0045
501.9882	0.001
502.1869	0.0092
502.3856	-0.0004
502.5843	-0.0009
502.783	0.0045
502.9816	-0.0015
503.1803	0.014
503.3789	0.0061
503.5775	0.0061
503.7761	0.0049
503.9747	0.0014
504.1732	0.0084
504.3718	0.0078
504.5703	-0.0009
504.7689	-0.0051
504.9674	-0.0017
505.1658	0.0045
505.3643	0.0027
505.5628	0.0149
505.7612	0.0033
505.9597	0.0022
506.1581	0.0007
506.3565	-0.0043
506.5549	0.0018
506.7532	0.0005
506.9516	0.0057
507.1499	-0.0019
507.3482	0.0109
507.5465	0.0016
507.7448	0.0043
507.9431	-0.0018
508.1414	-0.0006
508.3396	0.0021
508.5379	0.0085
508.7361	0.0085
508.9343	0.0001
509.1325	0.004
509.3306	-0.0045
509.5288	0.0068
509.7269	0.002
509.9251	-0.0072
510.1232	-0.0075
510.3213	-0.0099
510.5193	0.0057
510.7174	-0.0006
510.9154	0.0093
511.1135	0.004
511.3115	0.0124
511.5095	0.0077
511.7075	0.0046
511.9055	0.0055
512.1034	0.0069
512.3014	-0.0013
512.4993	0.0019
512.6972	-0.009
512.8951	0.0013
513.093	0.0046
513.2908	0.0038
513.4887	0.0062
513.6865	-0.0092
513.8844	0.0004
514.0822	0.0077
514.2799	-0.0005
514.4777	0.003
514.6755	0.0034
514.8732	0.0048
515.0709	0.0025
515.2687	0.0002
515.4664	-0.0139
515.664	0.0088
515.8617	0.0035
516.0594	0.0059
516.257	0.012
516.4546	-0.0029
516.6522	0.0031
516.8498	-0.0043
517.0474	0.0013
517.2449	-0.0059
517.4425	-0.0086
517.64	0.0025
517.8375	-0.0001
518.035	-0.001
518.2325	-0.0024
518.43	-0.0056
518.6274	-0.0095
518.8249	0.0057
519.0223	-0.003
519.2197	0.0026
519.4171	-0.009
519.6145	-0.0066
519.8118	-0.0001
520.0092	0.0013
520.2065	0.0002
520.4038	0.0012
520.6011	-0.0035
520.7984	-0.0036
520.9956	-0
521.1929	0.0051
521.3901	0.0012
521.5874	-0.0019
521.7846	-0.0013
521.9818	-0.0054
522.1789	0.012
522.3761	-0.0008
522.5732	-0.0038
522.7704	0.0046
522.9675	-0.0025
523.1646	0.0094
523.3617	-0.002
523.5587	-0.0053
523.7558	0.0024
523.9528	0.004
524.1498	-0.0057
524.3468	-0.0108
524.5438	-0.0039
524.7408	-0.0046
524.9378	0.0066
525.1347	0.0024
525.3316	0.0037
525.5285	0.005
525.7254	-0.0027
525.9223	0.0056
526.1192	0.0073
526.316	-0.0012
526.5129	0.0104
526.7097	-0.0041
526.9065	-0.0041
527.1033	0.0094
527.3	-0.0102
527.4968	-0.0008
527.6935	0.0057
527.8903	0.0082
528.087	0.0084
528.2837	0.0003
528.4804	0.0141
528.677	0.0115
528.8737	-0.0047
529.0703	0.0101
529.2669	0.0072
529.4635	0.0017
529.6601	0.0138
529.8567	0.0045
530.0532	-0.0008
530.2498	-0.0076
530.4463	0.007
530.6428	-0.0031
530.8393	0.001
531.0358	0.0016
531.2322	0.0028
531.4287	-0.0023
531.6251	-0.0051
531.8215	0.0068
532.0179	-0.0043
532.2143	0.008
532.4107	0.0112
532.607	0.0013
532.8034	0.0064
532.9997	-0.0055
533.196	0.0098
533.3923	-0.0002
533.5886	-0.0057
533.7848	-0.0113
533.9811	-0.0066
534.1773	-0.0022
534.3735	0.011
534.5697	-0.0052
534.7659	0.0073
534.9621	0.0053
535.1582	0.0059
535.3544	0.0071
535.5505	0.0103
535.7466	-0.0044
535.9427	-0.0025
536.1387	0.0008
536.3348	0.0109
536.5308	0.0023
536.7269	-0.0057
536.9229	-0.0073
537.1189	-0.0068
537.3148	-0.0061
537.5108	0.0021
537.7068	0.0063
537.9027	-0.0013
538.0986	0.0003
538.2945	0.0009
538.4904	-0.0097
538.6863	0.0062
538.8821	-0.0033
539.078	-0
539.2738	-0.0035
539.4696	0.0109
539.6654	0.0024
539.8611	0.0003
540.0569	0.0005
540.2526	-0.0003
540.4484	-0.0039
540.6441	0.0044
540.8398	-0.0011
541.0355	0.0015
541.2311	0.0058
541.4268	0.0059
541.6224	0.0021
541.818	-0.0046
542.0136	-0.0085
542.2092	0.0037
542.4048	0.0012
542.6003	-0.0005
542.7959	0.0031
542.9914	0.0093
543.1869	-0.0017
543.3824	0.0054
543.5779	-0.0004
543.7734	-0.0057
543.9688	0.0016
544.1642	0.012
544.3596	0.0037
544.555	0.0061
544.7504	0.0033
544.9458	-0.0035
545.1411	-0.0024
545.3365	-0.0016
545.5318	0.0032
545.7271	0.0039
545.9224	-0.0051
546.1177	0.0067
546.3129	-0.0071
546.5081	-0.0054
546.7034	-0.0051
546.8986	0.0007
547.0938	-0.004
547.289	-0.0005
547.4841	0.0002
547.6793	-0.0077
547.8744	-0.0063
548.0695	0.0056
548.2646	-0.0092
548.4597	-0.0054
548.6548	0.0042
548.8498	0.0036
549.0448	0.0007
549.2399	-0.0063
549.4349	0.0115
549.6298	-0.0067
549.8248	-0.0087
550.0198	0.0113
550.2147	-0.0043
550.4096	0.0055
550.6045	-0.0041
550.7994	-0.0008
550.9943	-0.0029
551.1892	-0.0103
551.384	0.0003
551.5788	0.0089
551.7737	-0.0044
551.9685	0.0068
552.1632	0.0006
552.358	-0.0055
552.5528	-0.0071
552.7475	-0.0064
552.9422	0.0001
553.1369	-0.0044
553.3316	-0.0047
553.5263	-0.0048
553.7209	-0.0075
553.9156	0.0064
554.1102	-0.0032
554.3048	0.0079
554.4994	-0.0007
554.694	-0.0001
554.8885	0.0001
555.0831	0.0028
555.2776	-0.0024
555.4721	-0.003
555.6666	0.0122
555.8611	-0.0016
556.0555	0.0151
556.25	0.0038
556.4444	-0.0064
556.6388	-0.0081
556.8332	0.0044
557.0276	0.0141
557.222	-0.0084
557.4163	0.0055
557.6107	0.0091
557.805	-0.0113
557.9993	0.0042
558.1936	0.0026
558.3879	-0.0015
558.5821	-0.0094
558.7764	0.004
558.9706	-0.0003
559.1648	-0.0064
559.359	0.0117
559.5532	-0.0126
559.7473	0.0018
559.9415	0.0086
560.1356	0.0057
560.3297	-0.0054
560.5238	0.0049
560.7179	-0.0085
560.9119	0.0068
561.106	-0.006
561.3	-0.0081
561.494	0.0059
561.688	0.0133
561.882	-0.0037
562.076	0.0012
562.2699	-0.0036
562.4639	0.0024
562.6578	0.0033
562.8517	-0.002
563.0456	-0.0026
563.2395	0.0037
563.4333	-0.006
563.6272	0.0076
563.821	0.0112
564.0148	-0.0028
564.2086	-0.0012
564.4024	0.0036
564.5961	0.0043
564.7899	-0.0044
564.9836	0.0083
565.1773	0.0085
565.371	-0.002
565.5647	0.0019
565.7584	0.0032
565.952	0.0089
566.1456	0.006
566.3393	0.0042
566.5329	-0.0098
566.7264	0.0018
566.92	-0.001
567.1136	-0.0043
567.3071	-0.0035
567.5006	-0.0113
567.6941	0.003
567.8876	-0.0091
568.0811	-0.0075
568.2745	-0.0062
568.468	0.0002
568.6614	0.0015
568.8548	0.0046
569.0482	0.0064
569.2416	-0.0003
569.4349	-0.0004
569.6283	-0.0009
569.8216	0.001
570.0149	0.0032
570.2082	0.0026
570.4015	0.0033
570.5947	-0.0033
570.788	0.0022
570.9812	-0.0037
571.1744	-0.0014
571.3676	-0.0018
571.5608	-0.0008
571.754	-0.0026
571.9471	0.0103
572.1402	-0.0006
572.3333	0.0002
572.5264	0.0044
572.7195	0.0031
572.9126	-0.0016
573.1057	0.0022
573.2987	-0.0033
573.4917	0.0017
573.6847	-0
573.8777	0.0024
574.0707	0.0015
574.2636	-0.0019
574.4566	-0.0003
574.6495	0.0012
574.8424	-0.0028
575.0353	0.0015
575.2281	0.0051
575.421	0.0009
575.6138	0.0011
575.8067	0.0001
575.9995	0.0028
576.1923	-0.0019
576.385	-0.006
576.5778	-0.0041
576.7706	0.0036
576.9633	0.003
577.156	0.003
577.3487	0.0021
577.5414	-0.0027
577.734	-0.001
577.9267	0.0015
578.1193	-0.0021
578.3119	-0.0074
578.5045	-0.0011
578.6971	-0.0026
578.8897	0.0005
579.0822	0.0024
579.2747	-0.0067
579.4673	0.0014
579.6598	0.0002
579.8522	0.0021
580.0447	-0.0008
580.2372	-0.0014
580.4296	0.0003
580.622	0.0017
580.8144	0.0015
581.0068	-0.0011
581.1992	0.0007
581.3915	-0.0006
581.5839	0.0023
581.7762	0.001
581.9685	-0.0043
582.1608	0.0009
582.353	-0.0008
582.5453	0.0016
582.7375	0.0038
582.9298	-0.0019
583.122	-0.0005
583.3142	0.0029
583.5063	-0.0025
583.6985	0.0032
583.8906	-0.0023
584.0827	0.0018
584.2749	0.0024
584.4669	-0.0008
584.659	-0.0011
584.8511	0.0025
585.0431	-0.0007
585.2352	-0.0065
585.4272	-0.0009
585.6192	-0.0019
585.8111	-0.0104
586.0031	0.0004
586.195	-0.0017
586.387	0.0029
586.5789	-0.0029
586.7708	-0.0025
586.9627	0.0027
587.1545	0.0005
587.3464	0.0006
587.5382	0.0031
587.73	0.001
587.9218	0.0008
588.1136	-0.0044
588.3053	-0.0004
588.4971	0.0029
588.6888	0.0059
588.8805	0.002
589.0722	0.0063
589.2639	0.0002
589.4556	-0.0048
589.6472	0.0005
589.8389	-0.0005
590.0305	-0.002
590.2221	0.0048
590.4137	-0.0064
590.6052	0.0019
590.7968	0.0033
590.9883	0.0085
591.1798	-0.0039
591.3713	-0.0006
591.5628	-0.0008
591.7543	0.0007
591.9458	0.0015
592.1372	-0.0053
592.3286	0.0004
592.52	-0.002
592.7114	-0.0046
592.9028	0.0001
593.0941	-0.0024
593.2855	0.0041
593.4768	0.0033
593.6681	0.0038
593.8594	-0.0009
594.0506	0.0012
594.2419	-0.0055
594.4331	0.0003
594.6244	-0.0012
594.8156	-0.0019
595.0067	0.0025
595.1979	-0.0056
595.3891	-0.0082
595.5802	0.0019
595.7713	0.0002
595.9624	0.0025
596.1535	-0.0053
596.3446	0.0027
596.5357	0.0031
596.7267	0.0021
596.9177	0.0023
597.1087	-0.0002
597.2997	-0.0006
597.4907	0.0034
597.6817	0.0026
597.8726	0.0086
598.0635	0.0026
598.2544	-0.005
598.4453	-0.0014
598.6362	-0.0046
598.827	0.0046
599.0179	0.0044
599.2087	0.0012
599.3995	0.0011
599.5903	0.001
599.7811	0.0018
599.9718	-0.0001
600.1626	0.0039
600.3533	0.0036
600.544	0
600.7347	0.0041
600.9254	0.0075
601.116	-0.0001
601.3067	0.004
601.4973	0.0112
601.6879	-0.0005
601.8785	-0.0046
602.0691	0.0034
602.2596	-0.0053
602.4502	0.0012
602.6407	0.0016
602.8312	0.0015
603.0217	0.0031
603.2122	0.0027
603.4027	-0.005
603.5931	0.002
603.7835	-0.0035
603.9739	0.0035
604.1643	-0.002
604.3547	0.0026
604.5451	-0.0008
604.7354	-0.0092
604.9257	-0.0042
605.116	-0.0009
605.3063	-0.0058
605.4966	-0.0013
605.6869	-0.0007
605.8771	0.0033
606.0673	-0.0028
606.2575	-0.0015
606.4477	0.0034
606.6379	-0.0018
606.8281	-0.0123
607.0182	-0.0008
607.2083	-0.0023
607.3985	0.0028
607.5885	0.0026
607.7786	0.0069
607.9687	-0.005
608.1587	-0.0003
608.3488	0.0017
608.5388	0.0023
608.7288	-0.0013
608.9187	0.0144
609.1087	-0.0031
609.2986	0.0005
609.4886	0.0028
609.6785	0.0041
609.8684	-0.0047
610.0582	0.001
610.2481	-0.0084
610.4379	0.0012
610.6278	-0.0091
610.8176	-0.0023
611.0074	-0.0006
611.1971	0.0056
611.3869	-0.0007
611.5766	0.0003
611.7664	0.0042
611.9561	-0.0038
612.1458	-0.0065
612.3354	-0.0001
612.5251	-0.0016
612.7147	0.0064
612.9044	-0.0042
613.094	0.0067
613.2836	-0.003
613.4731	0.0007
613.6627	0.0025
613.8522	-0.0013
614.0417	-0.0021
614.2313	-0.0092
614.4207	0.0013
614.6102	-0.0021
614.7997	0.0003
614.9891	0.0011
615.1785	0.0004
615.3679	0.0017
615.5573	-0.0013
615.7467	-0.0048
615.9361	-0.0083
616.1254	-0.0049
616.3147	-0.0002
616.504	0.0005
616.6933	-0.0054
616.8826	0.0103
617.0718	-0.0039
617.2611	-0.0077
617.4503	-0.0039
617.6395	0.0058
617.8287	0.004
618.0179	-0.0038
618.207	0.0002
618.3961	0.0015
618.5853	-0.0051
618.7744	0.0046
618.9634	0.0045
619.1525	-0.0041
619.3416	-0.0024
619.5306	0.0063
619.7196	-0.0153
619.9086	0.0037
620.0976	0.0016
620.2866	0.0121
620.4755	0.0143
620.6645	-0.0091
620.8534	-0.0081
621.0423	-0.0102
621.2312	-0.0037
621.42	-0.0009
621.6089	0.0113
621.7977	-0.0007
621.9865	-0.0019
622.1753	0.0062
622.3641	-0.0169
622.5529	-0.0096
622.7416	-0.0023
622.9303	-0.0014
623.1191	-0.0047
623.3078	-0.006
623.4964	-0.0057
623.6851	0.0116
623.8737	0.0095
624.0624	-0.0014
624.251	-0.0033
624.4396	-0.0062
624.6282	0.0032
624.8167	0.0107
625.0053	-0.0008
625.1938	-0.0033
625.3823	0.0032
625.5708	0.003
625.7593	0.0058
625.9477	-0.0071
626.1362	-0.0096
626.3246	-0.0117
626.513	-0.0005
626.7014	-0.0074
626.8898	0.001
627.0781	-0.0029
627.2665	0.0122
627.4548	0.005
627.6431	-0.0051
627.8314	0.0081
628.0197	0.005
628.2079	-0.0072
628.3962	0.007
628.5844	0.0051
628.7726	-0.0141
628.9608	0.0039
629.1489	-0.0048
629.3371	-0.0154
629.5252	0.0018
629.7134	0.001
629.9015	-0.015
630.0895	0.0039
630.2776	-0.0075
630.4657	0.0083
630.6537	-0.0098
630.8417	0.0016
631.0297	0.0062
631.2177	0.0042
631.4057	-0.0171
631.5936	-0.0057
631.7815	-0.0064
631.9695	0.0029
632.1574	-0.0123
632.3452	-0.0047
632.5331	-0.0066
632.7209	0.0083
632.9088	-0.0132
633.0966	-0.0035
633.2844	-0.015
633.4722	-0.0062
633.6599	-0.0168
633.8477	-0.0071
634.0354	0.011
634.2231	0.0071
634.4108	0.0105
634.5985	-0.016
634.7861	-0.0018
634.9738	-0.0053
635.1614	0.0087
635.349	-0.0056
635.5366	-0.0011
635.7242	-0.0026
635.9117	0.0058
636.0993	-0.0097
636.2868	-0.0068
636.4743	0.0049
636.6618	-0.002
636.8492	0.0026
637.0367	0.0075
637.2241	-0.0058
637.4115	0.0005
637.5989	0.0248
637.7863	-0.0146
637.9737	-0.0107
638.161	0.0002
638.3484	0.0007
638.5357	-0.0037
638.723	0.0052
638.9103	0.0026
639.0975	-0
639.2848	0.0033
639.472	0.0006
639.6592	0.0017
639.8464	0.0063
640.0336	0.0114
640.2208	-0.0117
640.4079	0.0008
640.595	0.0062
640.7821	-0.0172
640.9692	0.006
641.1563	0.009
641.3434	0.0046
641.5304	0.0155
641.7174	0.004
641.9044	0.0016
642.0914	-0.0117
642.2784	0.0224
642.4653	-0.0227
642.6523	0.007
642.8392	-0.0004
643.0261	0.008
643.213	0.0077
643.3999	-0.0139
643.5867	0.0005
643.7735	-0.0069
643.9604	-0.0099
644.1472	-0.0138
644.3339	-0.0028
644.5207	-0.0032
644.7075	0.002
644.8942	0.0232
645.0809	-0.0146
645.2676	-0.0054
645.4543	-0.009
645.6409	-0.0229
645.8276	0.0049
646.0142	0.0019
646.2008	-0.0031
646.3874	0.0093
646.574	-0.0158
646.7605	-0.0123
646.9471	0.0042
647.1336	-0.0014
647.3201	-0.0042
647.5066	-0.0057
647.6931	0.009
647.8795	0.0036
648.0659	-0.0164
648.2524	-0.0013
648.4388	-0.003
648.6252	-0.0052
648.8115	0.0161
648.9979	-0.001
649.1842	-0.0173
649.3705	0.0034
649.5568	-0.0072
649.7431	-0.0084
649.9294	-0.0066
650.1156	-0.0074
650.3018	0.0157
650.488	-0.0033
650.6742	0.0133
650.8604	0.0135
651.0466	0.0017
651.2327	-0.0054
651.4188	-0.0186
651.6049	-0.0187
651.791	0.0249
651.9771	0.0026
652.1632	0.0055
652.3492	-0.0016
652.5352	-0.002
652.7212	0.0037
652.9072	0.0046
653.0932	0.0067
653.2791	-0.0021
653.465	-0.0212
653.651	0.0277
653.8369	0.0188
654.0227	-0.011
654.2086	-0.0182
654.3944	-0.0191
654.5803	-0.0016
654.7661	-0.0017
654.9519	-0.0052
655.1377	-0.0001
655.3234	-0.0001
655.5092	-0.0001
655.6949	-0.0001
655.8806	-0.0001
656.0663	-0.0001
656.2519	-0.0001
656.4376	-0.0001
656.6232	-0.0001
656.8088	-0.0001
656.9945	-0.0001
657.18	-0.0001
657.3656	-0.0001
657.5511	-0.0001
657.7367	-0.0001
657.9222	-0.0001
658.1077	-0.0001
658.2932	-0.0001
658.4786	-0.0001
658.6641	-0.0001
658.8495	-0.0001
659.0349	-0.0001
659.2203	-0.0001
659.4057	0.008
659.591	0.0711
659.7764	-0.0014
659.9617	0.0014
660.147	-0.0135
660.3323	-0.0037
660.5176	-0.004
660.7028	0.0004
660.888	0.0155
661.0733	0.0053
661.2585	0.009
661.4436	-0.0022
661.6288	0.0028
661.8139	0.0087
661.9991	0.0043
662.1842	0.0238
662.3693	-0.0056
662.5544	-0.0196
662.7394	0.0218
662.9245	-0.0036
663.1095	-0.013
663.2945	-0.0131
663.4795	-0.0148
663.6644	-0.0063
663.8494	0.0082
664.0343	-0.0021
664.2193	0.0067
664.4042	-0.009
664.589	-0.0098
664.7739	-0.0196
664.9587	-0.0098
665.1436	0.001
665.3284	0.0079
665.5132	0.005
665.698	0.0072
665.8827	-0.0024
666.0675	-0.018
666.2522	0.0062
666.4369	-0.0097
666.6216	-0.0116
666.8063	-0.0167
666.9909	-0.0017
667.1756	0.0099
667.3602	0.002
667.5448	-0.0013
667.7294	-0
667.9139	-0.0118
668.0985	-0.0293
668.283	-0.001
668.4675	-0.0091
668.652	-0.017
668.8365	-0.0072
669.0209	-0.0045
669.2054	-0.0071
669.3898	0.0147
669.5742	-0.004
669.7586	-0.0009
669.943	-0.0178
670.1273	0.0234
670.3117	0.013
670.496	0.0228
670.6803	0.0063
670.8646	-0.0032
671.0488	-0.0057
671.2331	0.0102
671.4173	0.0027
671.6015	-0.0019
671.7857	-0.0184
671.9699	0.0116
672.1541	-0.0043
672.3382	0.0083
672.5223	0.0016
672.7064	-0.0145
672.8905	0.0056
673.0746	-0.0118
673.2587	-0.0021
673.4427	0.008
673.6267	-0.025
673.8107	-0.0027
673.9947	-0.0078
674.1787	-0.0018
674.3626	0.0026
674.5465	-0.0039
674.7304	-0.0334
674.9143	0.0035
675.0982	-0.0047
675.2821	0.0187
675.4659	0.0132
675.6497	0.0123
675.8335	0.004
676.0173	0.0151
676.2011	0.0202
676.3849	0.0137
676.5686	0.0137
676.7523	0.006
676.936	-0.0159
677.1197	0.0035
677.3034	0.0219
677.487	0.0043
677.6706	-0.0194
677.8542	0.0034
678.0378	-0.0071
678.2214	-0.0061
678.405	0.0072
678.5885	-0.0078
678.772	-0.0117
678.9555	0.0049
679.139	-0.0071
679.3225	-0.0098
679.5059	-0.0086
679.6894	-0.0097
679.8728	-0.0145
680.0562	-0
680.2395	-0.0116
680.4229	-0.0086
680.6062	-0.0014
680.7896	-0.0095
680.9729	0.0123
681.1562	-0.0231
681.3394	0.0137
681.5227	-0.0203
681.7059	-0
681.8891	0.0165
682.0723	-0.0049
682.2555	-0.0118
682.4387	0.0093
682.6218	-0.0287
682.805	0.015
682.9881	-0.0072
683.1712	0.0267
683.3542	-0.0058
683.5373	0.0088
683.7203	0.0011
683.9034	0.0037
684.0864	-0.0027
684.2694	0.0202
684.4523	0.0109
684.6353	-0.0048
684.8182	-0.0027
685.0011	-0.001
685.184	0.0015
685.3669	-0.0162
685.5498	0.0016
685.7326	-0.0146
685.9154	-0.0113
686.0982	0.0056
686.281	-0.0081
686.4638	0.0166
686.6465	0.0042
686.8293	-0.0129
687.012	0.0021
687.1947	0.0101
687.3774	0.0009
687.56	-0.0057
687.7427	-0.0143
687.9253	0.0059
688.1079	0.0225
688.2905	-0.0115
688.4731	0.0117
688.6556	-0.0072
688.8382	-0.0151
689.0207	-0.0055
689.2032	-0.0146
689.3857	-0.0138
689.5681	-0.002
689.7506	-0.0006
689.933	-0.0087
690.1154	-0.0256
690.2978	-0.0097
690.4802	0.0139
690.6626	-0.0142
690.8449	-0.0261
691.0272	-0.0202
691.2095	-0.0011
691.3918	0.0086
691.5741	-0.0014
691.7563	-0.0121
691.9386	-0.0149
692.1208	-0.0124
692.303	0.0102
692.4852	0.0113
692.6673	-0.0106
692.8495	-0.0123
693.0316	-0.0117
693.2137	0.0348
693.3958	0.0066
693.5778	-0.0215
693.7599	-0.0211
693.9419	0.0068
694.1239	-0.0061
694.3059	-0.0243
694.4879	0.007
694.6699	0.0105
694.8518	0.0156
695.0337	-0.0003
695.2157	-0.0128
695.3975	0.0048
695.5794	-0.003
695.7613	0.0103
695.9431	-0.0159
696.1249	0.001
696.3067	0.0024
696.4885	-0.0009
696.6703	0.0006
696.852	-0.0059
697.0337	0.0054
697.2154	0.0172
697.3971	0.0127
697.5788	0.0124
697.7605	0.0022
697.9421	-0.0222
698.1237	0.0023
698.3053	-0.0164
698.4869	-0.0003
698.6685	-0.0053
698.85	-0.0137
699.0315	-0.0044
699.213	0.0029
699.3945	0.0057
699.576	0.0099
699.7575	-0.0318
699.9389	-0.0083
700.1203	0.0062
700.3017	-0.0194
700.4831	0.0081
700.6645	-0.0008
700.8458	0.009
701.0271	-0.0304
701.2084	0.0004
701.3897	0.0093
701.571	-0.0215
701.7523	-0.0004
701.9335	0.0081
702.1147	-0.0093
702.2959	0.0018
702.4771	-0.0028
702.6583	0.005
702.8394	0.0043
703.0205	0.0074
703.2016	0.0055
703.3827	0.0109
703.5638	0.0178
703.7449	0.0004
703.9259	-0.0015
704.1069	-0.0092
704.2879	0.0099
704.4689	-0.0048
704.6499	-0.0225
704.8308	0.0141
705.0117	-0.0111
705.1927	-0.0253
705.3735	0.0317
705.5544	-0.0051
705.7353	0.0298
705.9161	-0.0145
706.0969	-0.0143
706.2777	-0.0035
706.4585	-0.0131
706.6393	-0.0016
706.82	-0.0086
707.0007	0.004
707.1815	0.0251
707.3621	-0.0072
707.5428	0.0032
707.7235	0.0184
707.9041	-0.0036
708.0847	-0.0094
708.2653	-0.0205
708.4459	-0.0003
708.6265	-0.0282
708.807	0.0024
708.9875	-0.0163
709.168	0.0043
709.3485	0.0118
709.529	0.0229
709.7095	-0.0221
709.8899	0.0349
710.0703	0.002
710.2507	0.0042
710.4311	-0.0104
710.6115	-0.0026
710.7918	-0.0111
710.9721	0.0128
711.1524	-0.01
711.3327	-0.0076
711.513	-0.0049
711.6932	-0.0108
711.8735	-0.007
712.0537	-0.0045
712.2339	0.0042
712.4141	0.0079
712.5942	-0.0086
712.7744	-0.0153
712.9545	-0.0291
713.1346	0.0055
713.3147	0.0069
713.4947	-0.0056
713.6748	0.0069
713.8548	0.0063
714.0348	0.0146
714.2148	-0.0053
714.3948	-0.0018
714.5748	-0.0116
714.7547	0.0105
714.9346	0.0042
715.1145	-0.0057
715.2944	-0.0004
715.4743	0.0069
715.6541	-0.0092
715.834	-0.0009
716.0138	0.0151
716.1936	-0.0204
716.3733	0.0181
716.5531	-0.0048
716.7328	-0.0514
716.9126	0.011
717.0923	0.0057
717.2719	0.0237
717.4516	-0.0068
717.6312	-0.0372
717.8109	0.0022
717.9905	0.0047
718.1701	-0.0114
718.3496	0.0177
718.5292	-0.0209
718.7087	0.0154
718.8882	0.0232
719.0677	-0.0335
719.2472	0.0007
719.4267	-0.0041
719.6061	0.0103
719.7856	-0.0148
719.965	0.0093
720.1443	-0.013
720.3237	-0.0146
720.5031	0.02
720.6824	0.0035
720.8617	0.0212
721.041	0.0082
721.2203	-0.0055
721.3995	-0.0322
721.5788	-0.0287
721.758	0.0081
721.9372	0.0087
722.1164	-0.0104
722.2956	0.0151
722.4747	0.0208
722.6538	-0.0095
722.8329	-0.0123
723.012	0.02
723.1911	0.0124
723.3702	-0.0407
723.5492	-0.0092
723.7282	0.0039
723.9072	-0.0134
724.0862	-0.0023
724.2652	-0.0045
724.4441	-0.0276
724.623	-0.007
724.8019	-0.0065
724.9808	-0.0175
725.1597	0.0018
725.3385	0.0182
725.5174	0.0263
725.6962	0.0188
725.875	0.0142
726.0538	-0.0014
726.2325	-0.0159
726.4112	-0.0011
726.59	0.0158
726.7687	-0.0016
726.9474	-0.005
727.126	-0.015
727.3047	-0.0019
727.4833	0.0511
727.6619	0.0285
727.8405	0.0256
728.0191	-0.0309
728.1976	-0.0253
728.3762	-0.0166
728.5547	0.0018
728.7332	0.0058
728.9116	-0.0296
729.0901	0.011
729.2686	-0.0219
729.447	-0.0144
729.6254	0.0319
729.8038	-0.0006
729.9821	0.0184
730.1605	0.0136
730.3388	-0.0123
730.5171	-0.0081
730.6954	0.0093
730.8737	0.0212
731.0519	0.0159
731.2302	-0.026
731.4084	-0.0092
731.5866	-0.0075
731.7648	-0.0281
731.9429	-0.0094
732.1211	-0.0211
732.2992	-0.0056
732.4773	-0.0021
732.6554	0.0077
732.8335	0.003
733.0115	-0.0281
733.1896	-0.011
733.3676	-0.0153
733.5456	0.0049
733.7235	0.0096
733.9015	-0.0041
734.0794	0.0005
734.2574	0.0019
734.4353	-0.0125
734.6131	0.002
734.791	0.012
734.9689	-0.0025
735.1467	-0.0143
735.3245	0.0033
735.5023	0.0025
735.68	0.0011
735.8578	-0.0078
736.0355	0.0094
736.2132	0.0076
736.3909	-0.0045
736.5686	0.0049
736.7463	-0.0251
736.9239	0.0055
737.1015	-0.008
737.2791	0.0239
737.4567	0.0081
737.6343	-0.0078
737.8118	0.0169
737.9894	0.0215
738.1669	0.0181
738.3444	0.0056
738.5218	0.0184
738.6993	-0.0028
738.8767	0.0118
739.0541	0.0178
739.2315	-0.0078
739.4089	-0.0047
739.5863	0.0013
739.7636	0.021
739.9409	-0.0076
740.1182	-0.0063
740.2955	-0.049
740.4728	0.0066
740.65	-0.0112
740.8272	-0.0419
741.0044	0.0082
741.1816	0.016
741.3588	-0.0286
741.5359	0.0059
741.7131	0.0314
741.8902	-0.0128
742.0673	0.013
742.2444	-0.0132
742.4214	-0.0119
742.5985	0.0075
742.7755	-0.0148
742.9525	0.0064
743.1295	-0.0177
743.3064	-0.0193
743.4834	-0.0165
743.6603	0.0067
743.8372	0.0062
744.0141	0.0152
744.191	-0.0247
744.3678	0.0142
744.5446	0.0166
744.7215	-0.0249
744.8982	0.0213
745.075	0.0145
745.2518	-0.0246
745.4285	-0.0037
745.6052	-0.018
745.7819	-0.0019
745.9586	0.0265
746.1353	-0
746.3119	-0.0116
746.4885	0.017
746.6651	-0.039
746.8417	-0.0361
747.0183	-0.0387
747.1948	-0.0288
747.3714	0.012
747.5479	0.0147
747.7244	-0.0614
747.9008	-0.0079
748.0773	-0.0061
748.2537	0.0135
748.4301	-0.0061
748.6065	-0.0504
748.7829	0.002
748.9593	0.0117
749.1356	0.005
749.3119	0.0041
749.4882	-0.0016
749.6645	0.0021
749.8408	-0.0167
750.017	-0.0092
750.1933	0.0101
750.3695	0.002
750.5457	-0.0173
750.7218	0.0062
750.898	-0.0031
751.0741	0.0051
751.2502	0.0092
751.4263	0.0029
751.6024	0.0222
751.7784	-0.0303
751.9545	-0.0266
752.1305	0.0055
752.3065	0.0388
752.4825	-0.0174
752.6584	0.0029
752.8344	0.0066
753.0103	-0.0204
753.1862	-0.001
753.3621	-0.0143
753.5379	-0.0024
753.7138	-0.0345
753.8896	0.0289
754.0654	0.0184
754.2412	0.015
754.417	0.0098
754.5927	-0.0084
754.7685	-0.0309
754.9442	-0.0096
755.1199	0.0021
755.2956	0.003
755.4712	-0.0012
755.6469	-0.0068
755.8225	0.0042
755.9981	0.0069
756.1736	0.0042
756.3492	-0.0085
756.5248	-0.0203
756.7003	0.0016
756.8758	0.0033
757.0513	-0.0123
757.2267	-0.0099
757.4022	-0.0068
757.5776	-0.0275
757.753	-0.0116
757.9284	-0.0073
758.1038	-0.0059
758.2791	0.0043
758.4545	-0.0159
758.6298	-0.0186
758.8051	-0.0023
758.9803	-0.014
759.1556	-0.0111
759.3308	-0.0156
759.506	0.0048
759.6812	-0.0138
759.8564	-0.0152
760.0316	0.0062
760.2067	0.0071
760.3819	-0.0096
760.557	-0.0152
760.732	0.02
760.9071	-0.0007
761.0821	0.0158
761.2572	-0.0064
761.4322	-0.0229
761.6072	-0.0014
761.7821	0.0096
761.9571	0.003
762.132	-0.0008
762.3069	0.005
762.4818	0.0201
762.6567	0.0044
762.8316	0.0073
763.0064	-0.014
763.1812	-0.0301
763.356	-0.001
763.5308	0.004
763.7055	0.0101
763.8803	-0.0137
764.055	-0.0103
764.2297	-0.0093
764.4044	-0.0102
764.579	-0.0273
764.7537	-0.0024
764.9283	-0.0192
765.1029	0.0093
765.2775	-0.0152
765.4521	0.0011
765.6266	-0.037
765.8011	-0.0178
765.9756	0.0096
766.1501	-0.0004
766.3246	0.0067
766.4991	-0.0272
766.6735	0.0105
766.8479	-0.0059
767.0223	0.0139
767.1967	-0.0173
767.371	0.0071
767.5454	-0.0043
767.7197	0.0139
767.894	-0.015
768.0683	-0.0065
768.2425	0.0095
768.4168	0.0283
768.591	-0.0095
768.7652	0.0084
768.9394	-0.0063
769.1135	-0.0151
769.2877	-0.0017
769.4618	0.0117
769.6359	0.0082
769.81	0.0133
769.984	0.0099
770.1581	0.0153
770.3321	-0.0135
770.5061	0.0247
770.6801	0.0202
770.8541	-0.0136
771.028	-0.0197
771.202	-0.0503
771.3759	-0
771.5498	-0.0139
771.7236	0.0099
771.8975	-0.0061
772.0713	0.0131
772.2451	-0.0174
772.4189	-0.0109
772.5927	-0.008
772.7665	0.037
772.9402	0.0032
773.1139	0.0011
773.2876	-0.0027
773.4613	0.0192
773.635	-0.0168
773.8086	-0.0301
773.9822	0.0148
774.1558	-0.0187
774.3294	-0.0303
774.503	0.0077
774.6765	0.0259
774.8501	0.0274
775.0236	-0.0007
775.1971	-0.0147
775.3705	-0.0158
775.544	0.0154
775.7174	-0.028
775.8908	0.0227
776.0642	-0.0092
776.2376	-0.0097
776.4109	0.0467
776.5843	-0.0107
776.7576	-0
776.9309	0.0289
777.1041	-0.0352
777.2774	0.0153
777.4506	-0.0406
777.6238	-0.0248
777.797	-0.0082
777.9702	0.0345
778.1434	-0.0082
778.3165	-0.0462
778.4896	-0.0225
778.6627	0.0402
778.8358	-0.0082
779.0089	0.0071
779.1819	-0
779.3549	0.0161
779.5279	-0.0258
779.7009	-0.0149
779.8739	-0.0261
780.0468	0.0301
780.2197	0.0059
780.3926	-0.0046
780.5655	-0.0206
780.7384	0.0251
780.9112	0.0094
781.0841	-0.0259
781.2569	-0.0085
781.4297	0.033
781.6024	-0.0101
781.7752	-0.0085
781.9479	-0.0006
782.1206	-0.0142
782.2933	0.0064
782.466	-0.0052
782.6386	0.0057
782.8113	-0.0159
782.9839	0.0296
783.1565	-0.0036
783.329	-0.0163
783.5016	-0.0194
783.6741	0.0063
783.8466	-0.0698
784.0191	-0.042
784.1916	-0.0205
784.3641	-0.0233
784.5365	0.0491
784.7089	0.0164
784.8813	0.0566
785.0537	0.0126
785.2261	0.0016
785.3984	-0.0373
785.5707	0.0264
785.743	-0.0675
785.9153	0.0606
786.0876	-0.0461
786.2598	-0.0058
786.432	0.007
786.6042	0.0192
786.7764	-0.0252
786.9486	-0.026
787.1207	0.0223
787.2928	-0.0201
787.4649	0.0103
787.637	0.032
787.8091	-0.0361
787.9811	0.0064
788.1532	0.0363
788.3252	-0.0204
788.4972	-0.043
788.6691	0.0426
788.8411	-0.0012
789.013	-0.0013
789.1849	0.0346
789.3568	0.0119
789.5287	-0.0226
789.7005	0.0539
789.8723	-0.0538
790.0442	-0.0289
790.2159	0.0393
790.3877	0.0009
790.5595	-0.0093
790.7312	0.0118
790.9029	0.0448
791.0746	-0.0284
791.2463	-0.0379
791.4179	-0.0186
791.5896	-0.0351
791.7612	-0.062
791.9328	-0.0404
792.1044	-0.0664
792.2759	-0.0022
792.4474	-0.0547
792.619	0.0347
792.7905	-0.0223
792.9619	-0.01
793.1334	-0.0533
793.3048	-0.0454
793.4762	-0.0244
793.6476	-0.0207
793.819	-0.0516
793.9904	0.0154
794.1617	-0.0012
794.333	-0.0105
794.5043	-0.0134
794.6756	0.0257
794.8469	0.0174
795.0181	0.0169
795.1893	-0.0014
795.3605	-0.0089
795.5317	0.0261
795.7029	0.0275
795.874	-0.0009
796.0452	0.0078
796.2163	0.0464
796.3873	0.0421
796.5584	0.028
796.7294	-0.0353
796.9005	-0.0289
797.0715	0.0478
797.2425	-0.0312
797.4134	0.0126
797.5844	0.0227
797.7553	0.0139
797.9262	0.0157
798.0971	-0.0569
798.2679	0.035
798.4388	-0.0525
798.6096	-0.0734
798.7804	-0.0286
798.9512	0.06
799.122	0.0612
799.2927	-0.0968
799.4635	0.0741
799.6342	-0.017
799.8049	-0.0025
799.9755	-0.0473
800.1462	0.0589
800.3168	-0.0503
800.4874	-0.0083
800.658	-0.0054
800.8286	-0.0168
800.9991	0.0449
801.1696	-0.0059
801.3402	-0.1231
801.5106	-0.0069
801.6811	0.0167
801.8516	0.0501
802.022	-0.0081
802.1924	-0.0555
802.3628	-0.0868
802.5332	-0.0585
802.7035	-0.0379
802.8739	0.0545
803.0442	-0.032
803.2145	-0.0917
803.3847	-0.0176
803.555	-0.0228
803.7252	0.0067
803.8954	0.0654
804.0656	0.0477
804.2358	-0.0212
804.4059	0.0378
804.5761	0.0559
804.7462	-0.1042
804.9163	-0.0949
805.0864	-0.0652
805.2564	0.055
805.4264	-0.1221
805.5965	-0.003
805.7665	0.0866
805.9364	-0.0579
806.1064	-0.0296
806.2763	0.0128
806.4462	-0.0182
806.6161	0.0067
806.786	-0.0293
806.9559	0.0392
807.1257	-0.0503
807.2955	-0.0215
807.4653	-0.051
807.6351	-0.0097
807.8048	-0.0489
807.9746	-0.0282
808.1443	0.0012
808.314	0.0596
808.4837	-0.076
808.6533	0.0718
808.8229	-0.1032
808.9926	-0.022
809.1622	0.0314
809.3317	-0.0659
809.5013	0.1014
809.6708	0.0297
809.8403	0.065
810.0098	0.0603
810.1793	0.1087
810.3488	0.0017
810.5182	-0.0645
810.6876	0.0302
810.857	-0.0134
811.0264	-0.0999
811.1958	-0.0842
811.3651	-0.0905
811.5344	-0.0171
811.7037	-0.0692
811.873	0.0322
812.0422	-0.0228
812.2115	-0.0377
812.3807	0.0956
812.5499	-0.0466
812.7191	0.0501
812.8882	-0.021
813.0574	-0
813.2265	-0.0058
813.3956	-0.0023
813.5646	-0.0616
813.7337	-0.0802
813.9027	-0.0846
814.0718	-0.0375
814.2407	-0.1476
814.4097	-0.0064
814.5787	-0.0087
814.7476	0.0641
814.9165	-0.0495
815.0854	-0.0272
815.2543	0.0303
815.4232	-0.0743
815.592	0.0986
815.7608	0.0818
815.9296	-0.0264
816.0984	-0.0625
816.2671	-0.0641
816.4359	0.0739
816.6046	0.0752
816.7733	-0.1361
816.942	-0.0289
817.1106	-0.3248
817.2793	-0.0619
817.4479	-0.1112
817.6165	-0.0577
817.785	0.005
817.9536	0.0153
818.1221	-0.0302
818.2906	-0.0072
818.4591	-0.0307
818.6276	0.0386
818.7961	-0.0485
818.9645	0.0864
819.1329	0.4015
819.3013	-0.1335
819.4697	-0.0036
819.638	-0.1222
819.8064	-0.0123
819.9747	-0.0542
820.143	0.0282
820.3113	0.0541
820.4795	-0.0254
820.6477	-0.1184
820.816	-0.0598
820.9842	-0.0419
821.1523	0.0787
821.3205	0.0022
821.4886	-0.032
821.6567	0.0063
821.8248	-0.0107
821.9929	-0.0856
822.1609	-0.1142
822.329	0.0579
822.497	-0.0413
822.665	0.0796
822.833	-0.159
823.0009	-0.2037
823.1688	0.0049
823.3367	-0.12
823.5046	0.0167
823.6725	0.0028
823.8404	-0.2377
824.0082	0.0467
824.176	0.033
824.3438	0.427
824.5116	0.1664
824.6793	0.0449
824.847	0.0531
825.0147	0.1592
825.1824	0.0032
825.3501	-0.0985
825.5177	0.1815
825.6854	0.1208
825.853	-0.0784
826.0206	-0.014
826.1881	-0.1125
826.3557	0.3031
826.5232	-0.0116
826.6907	0.0091
826.8582	-0.052
827.0257	-0.0516
827.1931	0.0261
827.3605	-0.1632
827.528	-0.1247
827.6953	-0.0334
827.8627	-0.0344
828.03	-0.0579
828.1974	-0.0892
828.3647	0.1129
828.532	0.1657
828.6992	0.0197
828.8665	-0.0798
829.0337	-0.1356
829.2009	0.1672
829.3681	0.0827
829.5352	0.1317
829.7024	0.2075
829.8695	-0.1224
830.0366	0.1967
830.2037	0.038
830.3707	0.0156
830.5378	0.2592
830.7048	-0.2614
830.8718	-0.0287
831.0388	0.0343
831.2057	0.2581
831.3727	-0.0074
831.5396	-0.1226
831.7065	0.233
831.8734	-0.3516
832.0402	0.1117
832.2071	-0.2306
832.3739	-0.0563
832.5407	-0
832.7075	0.197
832.8742	0.0633
833.041	-0
833.2077	0.5675
833.3744	-0.0172
833.541	-0.1796
833.7077	0.0239
833.8743	0.1512
834.0409	0.0537
834.2075	-0.1615
834.3741	0.0607
834.5407	-0.2357
834.7072	0.0248
834.8737	0.1259
835.0402	0.1012
835.2067	0.1618
835.3731	0.1374
835.5395	-0.0429
835.706	-0.1455
835.8723	-0.0388
836.0387	0.0419
836.2051	0.0608
836.3714	-0.1541
836.5377	0.3214
836.704	0.0052
836.8703	0.0493
837.0365	0.0943
837.2027	-0.5398
837.3689	-0.0142
837.5351	-0.3503
837.7013	0.2939
837.8674	-0.2319
838.0335	-0.0286
838.1997	-0.098
838.3657	-0
838.5318	-0.5643
838.6978	-0
838.8639	0.1679
839.0299	0.184
839.1958	0.0161
839.3618	-0
839.5277	-0.3448
839.6937	-0.06
839.8596	-0.152
840.0254	0.2622
840.1913	0.1563
840.3571	-0.3192
840.523	2.1959
840.6888	-0.0382
840.8545	-0.1552
841.0203	-0.0075
841.186	-0.0371
841.3517	0.1
841.5174	0.1778
841.6831	0.1664
841.8488	0.1954
842.0144	0.0546
842.18	0.1518
842.3456	0.134
842.5112	-0
842.6767	-0.2994
842.8422	0.1493
843.0077	0.2515
843.1732	-0.2016
843.3387	-0.0344
843.5042	0.8145
843.6696	0.3765
843.835	0.0141
844.0004	0.0336
844.1657	-0
844.3311	-0.4712
844.4964	0.0345
844.6617	-0
844.827	0.8016
844.9923	0.1086
845.1575	-0
845.3227	-0.0421
845.4879	0.1895
845.6531	-0.3923
845.8183	0.4589
845.9834	-0.767
846.1485	-0.2006
846.3136	0.3695
846.4787	0.0906
846.6438	0.1993
846.8088	-0
846.9738	-0.1801
847.1388	0.0195
847.3038	-0.2595
847.4687	-1.1813
847.6337	-0.0737
847.7986	0.3333
847.9635	-0.263
848.1284	1.5185
848.2932	0.4858
848.458	0.0393
848.6228	-0.2851
848.7876	-0
848.9524	-0.0557
849.1172	-0.3485
849.2819	-0
849.4466	0.4003
849.6113	-0.1338
849.7759	-0
849.9406	-0.2306
850.1052	-0.5334
850.2698	-0.8195
850.4344	-0.0943
850.599	0.6662
850.7635	-0.0432
850.928	0.2653
851.0925	0.0645
851.257	0.3263
851.4215	-0.3203
851.5859	0.0125
851.7503	-0
851.9147	-0.5643
852.0791	-0.1237
852.2434	0.6253
852.4078	-0
852.5721	0.1689
852.7364	-0.0198
852.9007	-0.1213
853.0649	1.4278
853.2291	1.0551
853.3934	0.2612
853.5575	-0.3835
853.7217	-0.4399
853.8859	0.8377
854.05	-0.9895
854.2141	-0
854.3782	0.6034
854.5423	-0.8089
854.7063	0.1886
854.8703	-0.0836
855.0343	0.0728
855.1983	-0.4643
855.3623	0.0788
855.5262	-0
855.6901	0.3955
855.854	-0.3051
856.0179	-0
856.1818	-0.3203
856.3456	-0.1022
856.5094	-0
856.6732	-0.9268
856.837	0.5043
857.0008	0.2333
857.1645	-0
857.3282	-0.0455
857.4919	0.0839
857.6556	0.418
857.8192	0.4692
857.9828	-0.627
858.1465	0.1717
858.31	-0
858.4736	0.1261
858.6372	-0.4809
858.8007	-1.2736
858.9642	0.2544
859.1277	-0
859.2911	0.4579
859.4546	0.7126
859.618	-0.2141
859.7814	-0
859.9448	-0
860.1081	-0
860.2715	-0
860.4348	2.1492
860.5981	0.8195
860.7614	-0
860.9246	-0.0438
861.0879	-0
861.2511	-0
861.4143	-0
861.5774	0.3721
861.7406	-0.1321
861.9037	-0
862.0668	-0.39
862.2299	-1.8865
862.393	-0
862.556	-0
862.7191	0.0666
862.8821	-0.4168
863.0451	-0
863.208	-0.1935
863.371	0.0885
863.5339	0.0918
863.6968	-0.2183
863.8597	-0
864.0225	-0
864.1854	-0.1597
864.3482	-0.1063
864.511	-0.0493
864.6737	0.1526
864.8365	0.6313
864.9992	-0.3794
865.1619	0.099
865.3246	-0.4507
865.4873	-0.9966
865.65	-0.5763
865.8126	0.6064
865.9752	-0.2337
866.1378	-0.575
866.3004	0.4453
866.4629	-0.4159
866.6254	-0
866.7879	0.1747
866.9504	0.7634
867.1129	0.5082
867.2753	-0.2486
867.4377	0.5368
867.6001	0.1061
867.7625	0.0878
867.9249	1.0353
868.0872	0.2104
868.2495	-0
868.4118	-0.3326
868.5741	-0
868.7363	-0.0618
868.8986	1.1563
869.0608	-0
869.223	0.5669
869.3851	-0
869.5473	-1.3741
869.7094	0.0276
869.8715	1.3222
870.0336	-0.0259
870.1957	0.5643
870.3577	-0
870.5197	0.4635
870.6817	-0
870.8437	0.6881
871.0057	-0
871.1676	0.2066
871.3295	-0.0179
871.4914	-0.0629
871.6533	-0.0446
871.8151	-0
871.977	-0.098
872.1388	-0.7945
872.3006	0.2753
872.4623	-0.3812
872.6241	-1.4624
872.7858	-0.2795
872.9475	-0.807
873.1092	0.363
873.2709	0.6904
873.4325	-0
873.5941	-0
873.7557	-0.5815
873.9173	-0.8523
874.0789	0.2325
874.2404	-0.1687
874.4019	-0.1049
874.5634	0.096
874.7249	-0.2962
874.8863	-0
875.0478	0.1428
875.2092	0.047
875.3706	-0.0215
875.5319	-0
875.6933	-0.1689
875.8546	0.0404
876.0159	-0.0233
876.1772	-0
876.3385	-0.6876
876.4997	0.0711
876.6609	1.2304
876.8221	2.3747
876.9833	0.0678
877.1445	0.1268
877.3056	0.6064
877.4667	-0
877.6278	-0
877.7889	1.1677
877.9499	-0
878.111	0.0456
878.272	-0.7388
878.433	0.0657
878.5939	-0
878.7549	-0.7868
878.9158	-0
879.0767	-0
879.2376	-0
879.3984	-0.5503
879.5593	-0.0409
879.7201	0.0504
879.8809	-0
880.0417	-0
880.2024	-0.0903
880.3632	0.3141
880.5239	-0.0175
880.6846	-0
880.8452	0.2148
881.0059	-0
881.1665	-0
881.3271	-0
881.4877	0.3214
881.6483	-0
881.8088	-0.4993
881.9693	0.0519
882.1298	0.0519
882.2903	0.0519
