Data from D4ACN5uM480nmA_Absorbance_12-08-00-880.txt Node
Date: Fri Feb 21 12:08:00 GMT 2025
User: LASERRRRR
Spectrometer: FLMT03099
Trigger mode: 0
Integration Time (sec): 1.500000E-2
Scans to average: 1
Electric dark correction enabled: true
Nonlinearity correction enabled: false
Boxcar width: 0
XAxis mode: Wavelengths
Number of Pixels in Spectrum: 3648
>>>>>Begin Spectral Data<<<<<
179.3399	0.5115
179.5586	0.5115
179.7771	0.5115
179.9957	0.3163
180.2143	-0.2218
180.4329	-0
180.6514	-0.3528
180.8699	-0
181.0885	-0
181.307	0.2639
181.5255	0.3722
181.744	-0.4422
181.9625	-0
182.181	0.1709
182.3994	-0
182.6179	-0
182.8363	-0.1036
183.0547	-0
183.2732	0.1748
183.4916	0.2851
183.71	0.1539
183.9284	0.4144
184.1467	-0.021
184.3651	0.2167
184.5835	0.0137
184.8018	0.1383
185.0201	0.5456
185.2385	0.0131
185.4568	0.0887
185.6751	0.2785
185.8934	0.2725
186.1117	0.0681
186.3299	0.1827
186.5482	0.1078
186.7664	0.1394
186.9847	0.2324
187.2029	0.2028
187.4211	0.1262
187.6393	0.2433
187.8575	-0.0632
188.0757	0.3122
188.2939	0.3378
188.512	0.2642
188.7302	0.0094
188.9483	0.3933
189.1665	0.4056
189.3846	0.2339
189.6027	0.079
189.8208	0.2384
190.0389	0.1947
190.257	0.1765
190.475	0.1367
190.6931	0.4771
190.9111	0.5584
191.1292	0.2924
191.3472	0.1431
191.5652	0.7633
191.7832	0.1122
192.0012	0.462
192.2192	0.2274
192.4371	0.281
192.6551	0.3049
192.873	0.2685
193.091	0.3031
193.3089	0.1926
193.5268	0.1886
193.7447	0.4543
193.9626	0.361
194.1805	0.394
194.3984	0.4222
194.6162	0.3738
194.8341	0.6252
195.0519	0.5225
195.2697	0.5046
195.4875	0.64
195.7054	0.481
195.9231	0.4722
196.1409	0.6278
196.3587	0.6646
196.5765	0.5431
196.7942	0.6953
197.012	0.5226
197.2297	0.4534
197.4474	0.6289
197.6651	0.692
197.8828	0.6828
198.1005	0.5384
198.3182	0.5856
198.5358	0.6498
198.7535	0.6197
198.9711	0.6404
199.1888	0.6639
199.4064	0.5068
199.624	0.596
199.8416	0.5702
200.0592	0.5589
200.2767	0.5464
200.4943	0.6501
200.7119	0.5845
200.9294	0.5834
201.1469	0.5147
201.3645	0.6034
201.582	0.5495
201.7995	0.6168
202.017	0.5366
202.2344	0.5606
202.4519	0.5888
202.6694	0.5731
202.8868	0.6142
203.1042	0.5116
203.3217	0.5323
203.5391	0.5235
203.7565	0.5272
203.9739	0.5372
204.1913	0.5046
204.4086	0.5214
204.626	0.5429
204.8433	0.4752
205.0607	0.5155
205.278	0.478
205.4953	0.4725
205.7126	0.4779
205.9299	0.487
206.1472	0.4939
206.3644	0.4769
206.5817	0.5209
206.7989	0.4684
207.0162	0.4407
207.2334	0.4217
207.4506	0.4456
207.6678	0.4681
207.885	0.4246
208.1022	0.3988
208.3194	0.4063
208.5365	0.4431
208.7537	0.443
208.9708	0.4168
209.1879	0.3927
209.405	0.4116
209.6222	0.3893
209.8392	0.4294
210.0563	0.4167
210.2734	0.4132
210.4905	0.4027
210.7075	0.44
210.9245	0.4041
211.1416	0.4325
211.3586	0.4066
211.5756	0.4091
211.7926	0.4278
212.0096	0.3974
212.2265	0.4011
212.4435	0.4338
212.6604	0.3942
212.8774	0.4048
213.0943	0.415
213.3112	0.3799
213.5281	0.4143
213.745	0.3815
213.9619	0.3984
214.1788	0.3965
214.3956	0.3989
214.6125	0.384
214.8293	0.4065
215.0461	0.4151
215.2629	0.3864
215.4798	0.3806
215.6965	0.3842
215.9133	0.3943
216.1301	0.3991
216.3469	0.3961
216.5636	0.3951
216.7803	0.4151
216.9971	0.4179
217.2138	0.4045
217.4305	0.4079
217.6472	0.4132
217.8639	0.4043
218.0805	0.4305
218.2972	0.3996
218.5138	0.4253
218.7305	0.4175
218.9471	0.4142
219.1637	0.4322
219.3803	0.4099
219.5969	0.4177
219.8135	0.4263
220.0301	0.4149
220.2466	0.4155
220.4632	0.4253
220.6797	0.4492
220.8962	0.4272
221.1127	0.4383
221.3292	0.4351
221.5457	0.4399
221.7622	0.4282
221.9787	0.4518
222.1951	0.4325
222.4116	0.4496
222.628	0.4549
222.8444	0.4443
223.0608	0.4185
223.2772	0.4377
223.4936	0.4567
223.71	0.4473
223.9264	0.4408
224.1427	0.4535
224.3591	0.4681
224.5754	0.4582
224.7917	0.4449
225.008	0.4472
225.2243	0.4584
225.4406	0.4618
225.6569	0.4558
225.8732	0.4712
226.0894	0.4679
226.3057	0.458
226.5219	0.473
226.7381	0.4698
226.9543	0.4535
227.1705	0.451
227.3867	0.4916
227.6029	0.4781
227.8191	0.4781
228.0352	0.4849
228.2513	0.4894
228.4675	0.4812
228.6836	0.5003
228.8997	0.4851
229.1158	0.4837
229.3319	0.4994
229.548	0.4858
229.764	0.4925
229.9801	0.5053
230.1961	0.5146
230.4121	0.5033
230.6282	0.5092
230.8442	0.5051
231.0602	0.5176
231.2761	0.5123
231.4921	0.5165
231.7081	0.5159
231.924	0.5204
232.14	0.5274
232.3559	0.5326
232.5718	0.5377
232.7877	0.5292
233.0036	0.5254
233.2195	0.5355
233.4353	0.522
233.6512	0.5237
233.867	0.5288
234.0829	0.5299
234.2987	0.5287
234.5145	0.5277
234.7303	0.5359
234.9461	0.5287
235.1619	0.5218
235.3776	0.5257
235.5934	0.5278
235.8091	0.5254
236.0249	0.5376
236.2406	0.5265
236.4563	0.5376
236.672	0.5347
236.8877	0.5349
237.1034	0.525
237.319	0.5356
237.5347	0.5176
237.7503	0.5374
237.966	0.5388
238.1816	0.5355
238.3972	0.543
238.6128	0.5399
238.8284	0.5417
239.0439	0.5391
239.2595	0.5344
239.475	0.5229
239.6906	0.5348
239.9061	0.5284
240.1216	0.5264
240.3371	0.5205
240.5526	0.5134
240.7681	0.5245
240.9836	0.5179
241.199	0.5124
241.4145	0.507
241.6299	0.5043
241.8453	0.4831
242.0607	0.4827
242.2761	0.4794
242.4915	0.4702
242.7069	0.4669
242.9223	0.4583
243.1376	0.4465
243.353	0.4437
243.5683	0.444
243.7836	0.4252
243.9989	0.4169
244.2142	0.4186
244.4295	0.4097
244.6448	0.4032
244.86	0.3862
245.0753	0.3822
245.2905	0.3772
245.5057	0.3586
245.721	0.358
245.9362	0.3427
246.1514	0.3321
246.3665	0.3422
246.5817	0.3264
246.7969	0.3212
247.012	0.3237
247.2271	0.3068
247.4423	0.3072
247.6574	0.3125
247.8725	0.2953
248.0876	0.2905
248.3026	0.2863
248.5177	0.2783
248.7328	0.2738
248.9478	0.2661
249.1628	0.267
249.3779	0.2712
249.5929	0.2625
249.8079	0.2553
250.0228	0.2443
250.2378	0.248
250.4528	0.2507
250.6677	0.2414
250.8827	0.235
251.0976	0.2373
251.3125	0.2342
251.5274	0.2324
251.7423	0.2316
251.9572	0.2211
252.172	0.2205
252.3869	0.2172
252.6017	0.2112
252.8166	0.2194
253.0314	0.222
253.2462	0.209
253.461	0.2137
253.6758	0.2059
253.8906	0.2054
254.1053	0.2087
254.3201	0.2095
254.5348	0.2002
254.7496	0.203
254.9643	0.2081
255.179	0.1999
255.3937	0.1946
255.6083	0.2003
255.823	0.1984
256.0377	0.1998
256.2523	0.1949
256.467	0.198
256.6816	0.1996
256.8962	0.1989
257.1108	0.1906
257.3254	0.1896
257.54	0.1977
257.7545	0.1933
257.9691	0.1872
258.1836	0.1861
258.3981	0.181
258.6127	0.1885
258.8272	0.1904
259.0417	0.1824
259.2561	0.1849
259.4706	0.1899
259.6851	0.1819
259.8995	0.1831
260.114	0.1873
260.3284	0.1843
260.5428	0.1803
260.7572	0.1806
260.9716	0.1857
261.186	0.1771
261.4003	0.189
261.6147	0.181
261.829	0.1771
262.0433	0.1796
262.2577	0.192
262.472	0.1818
262.6863	0.1799
262.9005	0.1876
263.1148	0.1827
263.3291	0.1846
263.5433	0.1826
263.7576	0.1808
263.9718	0.1901
264.186	0.1855
264.4002	0.1823
264.6144	0.1888
264.8286	0.1878
265.0427	0.194
265.2569	0.1845
265.471	0.1805
265.6851	0.1787
265.8993	0.1818
266.1134	0.1912
266.3275	0.1813
266.5415	0.1863
266.7556	0.1791
266.9697	0.1836
267.1837	0.1857
267.3978	0.1931
267.6118	0.1822
267.8258	0.1832
268.0398	0.1807
268.2538	0.1852
268.4677	0.1809
268.6817	0.1756
268.8957	0.182
269.1096	0.1757
269.3235	0.1885
269.5374	0.1801
269.7514	0.1826
269.9652	0.1804
270.1791	0.1797
270.393	0.1811
270.6068	0.1741
270.8207	0.1748
271.0345	0.1789
271.2483	0.172
271.4622	0.1724
271.676	0.177
271.8897	0.1717
272.1035	0.1743
272.3173	0.1733
272.531	0.1734
272.7448	0.1709
272.9585	0.1743
273.1722	0.1764
273.3859	0.1666
273.5996	0.1676
273.8133	0.1708
274.0269	0.1817
274.2406	0.1715
274.4542	0.1633
274.6679	0.1681
274.8815	0.1732
275.0951	0.1804
275.3087	0.1792
275.5223	0.1706
275.7358	0.177
275.9494	0.1719
276.1629	0.179
276.3765	0.1704
276.59	0.1738
276.8035	0.1782
277.017	0.1783
277.2305	0.177
277.444	0.1708
277.6574	0.175
277.8709	0.1711
278.0843	0.1815
278.2978	0.1775
278.5112	0.1811
278.7246	0.1809
278.938	0.1791
279.1513	0.1777
279.3647	0.1773
279.5781	0.1794
279.7914	0.1835
280.0047	0.1789
280.2181	0.1814
280.4314	0.1811
280.6447	0.1864
280.8579	0.1815
281.0712	0.1768
281.2845	0.1864
281.4977	0.1829
281.711	0.1842
281.9242	0.186
282.1374	0.1754
282.3506	0.1886
282.5638	0.1859
282.7769	0.182
282.9901	0.186
283.2033	0.1816
283.4164	0.1823
283.6295	0.1825
283.8426	0.1866
284.0557	0.1843
284.2688	0.1867
284.4819	0.1898
284.695	0.1913
284.908	0.1931
285.1211	0.1893
285.3341	0.1907
285.5471	0.19
285.7601	0.1916
285.9731	0.1927
286.1861	0.1875
286.3991	0.195
286.612	0.1927
286.825	0.1935
287.0379	0.1954
287.2508	0.1978
287.4637	0.1951
287.6766	0.1966
287.8895	0.1865
288.1024	0.199
288.3152	0.1928
288.5281	0.1954
288.7409	0.1953
288.9538	0.1906
289.1666	0.2004
289.3794	0.198
289.5922	0.1951
289.8049	0.2012
290.0177	0.1956
290.2304	0.203
290.4432	0.2014
290.6559	0.1958
290.8686	0.2019
291.0813	0.2037
291.294	0.2077
291.5067	0.2006
291.7194	0.1947
291.932	0.2003
292.1447	0.1978
292.3573	0.2014
292.5699	0.2068
292.7825	0.1994
292.9951	0.1994
293.2077	0.2004
293.4203	0.2043
293.6328	0.1924
293.8454	0.1997
294.0579	0.1985
294.2704	0.2019
294.4829	0.2013
294.6954	0.1939
294.9079	0.2035
295.1204	0.2034
295.3328	0.2044
295.5453	0.2046
295.7577	0.1967
295.9701	0.2021
296.1825	0.1971
296.3949	0.2018
296.6073	0.1964
296.8197	0.202
297.0321	0.201
297.2444	0.1997
297.4567	0.1972
297.6691	0.2016
297.8814	0.2011
298.0937	0.1977
298.306	0.1967
298.5182	0.2
298.7305	0.2008
298.9428	0.2014
299.155	0.1978
299.3672	0.1958
299.5794	0.1949
299.7916	0.1942
300.0038	0.197
300.216	0.1987
300.4282	0.1999
300.6403	0.1992
300.8525	0.2025
301.0646	0.1892
301.2767	0.1967
301.4888	0.2009
301.7009	0.1997
301.913	0.204
302.125	0.1962
302.3371	0.1992
302.5491	0.1982
302.7612	0.196
302.9732	0.1938
303.1852	0.1954
303.3972	0.1921
303.6092	0.1944
303.8211	0.1887
304.0331	0.1891
304.245	0.1965
304.457	0.203
304.6689	0.1948
304.8808	0.1946
305.0927	0.1935
305.3046	0.1914
305.5164	0.1863
305.7283	0.1893
305.9401	0.1852
306.152	0.1774
306.3638	0.1781
306.5756	0.1829
306.7874	0.1813
306.9992	0.1755
307.2109	0.1755
307.4227	0.171
307.6344	0.1793
307.8462	0.1665
308.0579	0.1642
308.2696	0.1632
308.4813	0.1616
308.693	0.166
308.9046	0.1636
309.1163	0.1644
309.328	0.1542
309.5396	0.1577
309.7512	0.1535
309.9628	0.1524
310.1744	0.1576
310.386	0.1494
310.5976	0.1487
310.8091	0.1477
311.0207	0.1486
311.2322	0.1473
311.4437	0.1418
311.6552	0.1408
311.8667	0.1376
312.0782	0.14
312.2897	0.1399
312.5012	0.1387
312.7126	0.1309
312.924	0.1306
313.1355	0.1331
313.3469	0.1278
313.5583	0.1291
313.7696	0.1302
313.981	0.1291
314.1924	0.133
314.4037	0.1201
314.6151	0.1253
314.8264	0.1279
315.0377	0.1292
315.249	0.1253
315.4603	0.1194
315.6716	0.1217
315.8828	0.1217
316.0941	0.1229
316.3053	0.1177
316.5165	0.1176
316.7277	0.1245
316.9389	0.1236
317.1501	0.1184
317.3613	0.1142
317.5724	0.1184
317.7836	0.1166
317.9947	0.1114
318.2058	0.1195
318.417	0.1165
318.6281	0.1175
318.8391	0.1194
319.0502	0.114
319.2613	0.114
319.4723	0.1147
319.6834	0.1183
319.8944	0.1177
320.1054	0.1168
320.3164	0.1196
320.5274	0.111
320.7383	0.1074
320.9493	0.1178
321.1602	0.1151
321.3712	0.1176
321.5821	0.1208
321.793	0.1179
322.0039	0.1169
322.2148	0.1182
322.4257	0.119
322.6365	0.1126
322.8474	0.1097
323.0582	0.1134
323.269	0.109
323.4798	0.118
323.6906	0.1179
323.9014	0.1092
324.1122	0.1142
324.3229	0.1207
324.5337	0.1229
324.7444	0.1171
324.9551	0.1139
325.1658	0.1156
325.3765	0.1166
325.5872	0.1124
325.7979	0.1155
326.0085	0.1162
326.2192	0.116
326.4298	0.1216
326.6404	0.1184
326.851	0.1202
327.0616	0.1223
327.2722	0.1267
327.4828	0.1156
327.6933	0.1197
327.9039	0.1286
328.1144	0.1214
328.3249	0.1247
328.5354	0.1221
328.7459	0.121
328.9564	0.1251
329.1669	0.1152
329.3773	0.1161
329.5878	0.118
329.7982	0.1217
330.0086	0.1266
330.219	0.1249
330.4294	0.1254
330.6398	0.1293
330.8502	0.127
331.0605	0.1238
331.2708	0.1238
331.4812	0.1183
331.6915	0.1216
331.9018	0.1193
332.1121	0.1254
332.3224	0.1284
332.5326	0.1292
332.7429	0.1179
332.9531	0.1236
333.1633	0.125
333.3735	0.1184
333.5837	0.127
333.7939	0.1288
334.0041	0.1264
334.2143	0.123
334.4244	0.1227
334.6346	0.1205
334.8447	0.1284
335.0548	0.1205
335.2649	0.1269
335.475	0.1225
335.685	0.1249
335.8951	0.1284
336.1051	0.1294
336.3152	0.1278
336.5252	0.1266
336.7352	0.1201
336.9452	0.1251
337.1552	0.1368
337.3652	0.1231
337.5751	0.1309
337.7851	0.1191
337.995	0.1325
338.2049	0.1301
338.4148	0.1306
338.6247	0.1289
338.8346	0.129
339.0445	0.1279
339.2543	0.135
339.4642	0.1314
339.674	0.1346
339.8838	0.1351
340.0936	0.1366
340.3034	0.1336
340.5132	0.1346
340.7229	0.1344
340.9327	0.132
341.1424	0.1344
341.3522	0.1392
341.5619	0.1386
341.7716	0.1398
341.9813	0.1439
342.1909	0.1391
342.4006	0.1421
342.6102	0.1419
342.8199	0.1384
343.0295	0.1416
343.2391	0.1401
343.4487	0.1398
343.6583	0.1446
343.8679	0.1426
344.0774	0.1474
344.287	0.1411
344.4965	0.1433
344.706	0.1491
344.9155	0.1462
345.125	0.1457
345.3345	0.1405
345.544	0.1524
345.7534	0.1453
345.9629	0.1482
346.1723	0.149
346.3817	0.1414
346.5911	0.1553
346.8005	0.1526
347.0099	0.1541
347.2193	0.1499
347.4286	0.1501
347.638	0.1528
347.8473	0.1552
348.0566	0.1513
348.2659	0.1545
348.4752	0.1545
348.6845	0.1619
348.8937	0.1528
349.103	0.1549
349.3122	0.1673
349.5214	0.1599
349.7306	0.1621
349.9398	0.1609
350.149	0.164
350.3582	0.1624
350.5674	0.169
350.7765	0.1637
350.9856	0.1662
351.1948	0.162
351.4039	0.1622
351.613	0.1751
351.822	0.169
352.0311	0.169
352.2402	0.1743
352.4492	0.1691
352.6582	0.1563
352.8672	0.1664
353.0762	0.1717
353.2852	0.1656
353.4942	0.1709
353.7032	0.1719
353.9121	0.1668
354.1211	0.1764
354.33	0.1736
354.5389	0.181
354.7478	0.1822
354.9567	0.1745
355.1655	0.1771
355.3744	0.1802
355.5833	0.1796
355.7921	0.1834
356.0009	0.1849
356.2097	0.185
356.4185	0.188
356.6273	0.1749
356.8361	0.1896
357.0448	0.1933
357.2536	0.191
357.4623	0.1819
357.671	0.1917
357.8797	0.1977
358.0884	0.1863
358.2971	0.1958
358.5057	0.1892
358.7144	0.1999
358.923	0.1971
359.1316	0.192
359.3402	0.2018
359.5488	0.1967
359.7574	0.1997
359.966	0.1986
360.1746	0.1968
360.3831	0.2038
360.5916	0.2003
360.8002	0.2115
361.0087	0.215
361.2172	0.2108
361.4256	0.1968
361.6341	0.2112
361.8426	0.2033
362.051	0.209
362.2594	0.2171
362.4678	0.2085
362.6762	0.2164
362.8846	0.2191
363.093	0.2103
363.3014	0.2229
363.5097	0.2155
363.718	0.2228
363.9264	0.2197
364.1347	0.229
364.343	0.2264
364.5513	0.2305
364.7595	0.233
364.9678	0.2262
365.176	0.2325
365.3842	0.2264
365.5925	0.2357
365.8007	0.2404
366.0089	0.2325
366.217	0.2312
366.4252	0.23
366.6333	0.2314
366.8415	0.2376
367.0496	0.2286
367.2577	0.2418
367.4658	0.2417
367.6739	0.2385
367.882	0.2449
368.09	0.2344
368.2981	0.2321
368.5061	0.2528
368.7141	0.25
368.9221	0.2454
369.1301	0.2411
369.3381	0.2567
369.5461	0.2487
369.754	0.2453
369.962	0.262
370.1699	0.2529
370.3778	0.2501
370.5857	0.2617
370.7936	0.2606
371.0015	0.2572
371.2093	0.2541
371.4172	0.2625
371.625	0.2562
371.8328	0.2678
372.0406	0.2622
372.2484	0.2616
372.4562	0.257
372.664	0.265
372.8717	0.2759
373.0795	0.2704
373.2872	0.2664
373.4949	0.2789
373.7026	0.2827
373.9103	0.2582
374.118	0.2683
374.3256	0.2763
374.5333	0.2759
374.7409	0.2701
374.9485	0.2702
375.1561	0.2879
375.3637	0.2762
375.5713	0.2694
375.7789	0.2743
375.9864	0.2762
376.194	0.2824
376.4015	0.2811
376.609	0.28
376.8165	0.2895
377.024	0.2774
377.2315	0.294
377.4389	0.2804
377.6464	0.2905
377.8538	0.2858
378.0612	0.2891
378.2686	0.2954
378.476	0.2842
378.6834	0.291
378.8908	0.2881
379.0981	0.2943
379.3055	0.2994
379.5128	0.2946
379.7201	0.2954
379.9274	0.2844
380.1347	0.3041
380.342	0.3038
380.5492	0.2871
380.7565	0.3028
380.9637	0.3007
381.1709	0.2995
381.3781	0.3041
381.5853	0.3073
381.7925	0.3085
381.9997	0.305
382.2068	0.3028
382.4139	0.3045
382.6211	0.3201
382.8282	0.3087
383.0353	0.305
383.2424	0.3018
383.4494	0.325
383.6565	0.3089
383.8635	0.3186
384.0706	0.3206
384.2776	0.3143
384.4846	0.316
384.6916	0.3194
384.8986	0.3224
385.1055	0.3164
385.3125	0.3036
385.5194	0.3106
385.7263	0.3084
385.9333	0.3089
386.1402	0.322
386.347	0.3081
386.5539	0.3159
386.7608	0.3202
386.9676	0.3055
387.1744	0.319
387.3813	0.3162
387.5881	0.3092
387.7948	0.3165
388.0016	0.3018
388.2084	0.3069
388.4151	0.3109
388.6219	0.3074
388.8286	0.3044
389.0353	0.3124
389.242	0.3116
389.4487	0.308
389.6553	0.3047
389.862	0.3073
390.0686	0.3135
390.2753	0.3091
390.4819	0.3068
390.6885	0.3076
390.8951	0.3075
391.1016	0.3023
391.3082	0.2962
391.5147	0.2931
391.7213	0.2976
391.9278	0.2915
392.1343	0.29
392.3408	0.2907
392.5473	0.2869
392.7537	0.2865
392.9602	0.2894
393.1666	0.2899
393.373	0.2929
393.5794	0.2862
393.7858	0.2928
393.9922	0.2823
394.1986	0.2769
394.4049	0.2823
394.6113	0.2835
394.8176	0.2693
395.0239	0.2872
395.2302	0.2715
395.4365	0.2741
395.6428	0.2818
395.8491	0.2756
396.0553	0.2713
396.2615	0.274
396.4678	0.2819
396.674	0.2562
396.8802	0.2663
397.0863	0.2719
397.2925	0.2683
397.4987	0.2688
397.7048	0.2736
397.9109	0.2796
398.117	0.2655
398.3231	0.2789
398.5292	0.2648
398.7353	0.2653
398.9413	0.2695
399.1474	0.2739
399.3534	0.267
399.5594	0.2705
399.7654	0.2753
399.9714	0.2565
400.1774	0.2681
400.3833	0.2777
400.5893	0.2631
400.7952	0.2638
401.0011	0.2517
401.207	0.2589
401.4129	0.2681
401.6188	0.2748
401.8247	0.2745
402.0305	0.2577
402.2364	0.2705
402.4422	0.2674
402.648	0.2732
402.8538	0.2791
403.0596	0.2544
403.2654	0.2638
403.4711	0.2705
403.6768	0.2796
403.8826	0.2671
404.0883	0.2566
404.294	0.2638
404.4997	0.2618
404.7054	0.2588
404.911	0.2701
405.1167	0.2707
405.3223	0.2728
405.5279	0.2701
405.7335	0.2658
405.9391	0.2643
406.1447	0.2665
406.3502	0.2759
406.5558	0.2715
406.7613	0.2735
406.9668	0.2627
407.1724	0.2726
407.3778	0.2724
407.5833	0.2659
407.7888	0.2692
407.9942	0.2741
408.1997	0.2668
408.4051	0.2638
408.6105	0.2673
408.8159	0.2567
409.0213	0.2727
409.2267	0.2591
409.432	0.2705
409.6374	0.2653
409.8427	0.2616
410.048	0.2606
410.2533	0.2628
410.4586	0.2624
410.6639	0.2614
410.8691	0.2824
411.0744	0.2618
411.2796	0.2585
411.4848	0.2516
411.69	0.2613
411.8952	0.2649
412.1004	0.2555
412.3056	0.2628
412.5107	0.2737
412.7158	0.2701
412.921	0.2591
413.1261	0.2606
413.3312	0.2609
413.5362	0.2674
413.7413	0.2658
413.9464	0.2537
414.1514	0.2613
414.3564	0.2646
414.5614	0.2621
414.7664	0.26
414.9714	0.2667
415.1764	0.2612
415.3813	0.2562
415.5863	0.2675
415.7912	0.2658
415.9961	0.2398
416.201	0.2645
416.4059	0.2542
416.6108	0.2456
416.8156	0.2421
417.0205	0.2674
417.2253	0.2564
417.4301	0.2726
417.6349	0.2611
417.8397	0.2604
418.0445	0.2589
418.2492	0.2607
418.454	0.2522
418.6587	0.26
418.8634	0.2592
419.0681	0.257
419.2728	0.2504
419.4775	0.2557
419.6822	0.2446
419.8868	0.2562
420.0915	0.2553
420.2961	0.2506
420.5007	0.2412
420.7053	0.2503
420.9099	0.239
421.1144	0.239
421.319	0.2454
421.5235	0.2372
421.728	0.2381
421.9325	0.2482
422.137	0.244
422.3415	0.2337
422.546	0.2432
422.7504	0.2377
422.9549	0.2415
423.1593	0.2438
423.3637	0.2324
423.5681	0.2433
423.7725	0.2403
423.9769	0.2364
424.1812	0.2327
424.3856	0.2297
424.5899	0.2309
424.7942	0.2297
424.9985	0.2295
425.2028	0.2279
425.4071	0.2184
425.6113	0.2354
425.8156	0.2268
426.0198	0.2183
426.224	0.2197
426.4282	0.2223
426.6324	0.2273
426.8366	0.2145
427.0407	0.213
427.2449	0.2122
427.449	0.2177
427.6531	0.216
427.8572	0.2235
428.0613	0.2104
428.2654	0.2127
428.4694	0.2058
428.6735	0.1971
428.8775	0.2084
429.0815	0.2189
429.2855	0.2059
429.4895	0.1918
429.6935	0.1932
429.8975	0.2017
430.1014	0.1979
430.3053	0.1927
430.5093	0.1883
430.7132	0.1907
430.9171	0.1874
431.1209	0.1866
431.3248	0.186
431.5286	0.183
431.7325	0.1827
431.9363	0.1781
432.1401	0.1775
432.3439	0.1771
432.5477	0.1919
432.7514	0.1691
432.9552	0.1698
433.1589	0.1699
433.3627	0.1709
433.5664	0.1729
433.7701	0.174
433.9737	0.1607
434.1774	0.1698
434.3811	0.1783
434.5847	0.1635
434.7883	0.163
434.9919	0.1589
435.1955	0.162
435.3991	0.1513
435.6027	0.1501
435.8062	0.1558
436.0098	0.1532
436.2133	0.1496
436.4168	0.1423
436.6203	0.1447
436.8238	0.1471
437.0272	0.1416
437.2307	0.134
437.4341	0.1416
437.6375	0.1351
437.841	0.1294
438.0443	0.1256
438.2477	0.1247
438.4511	0.1307
438.6545	0.1229
438.8578	0.1302
439.0611	0.124
439.2644	0.1219
439.4677	0.1242
439.671	0.1207
439.8743	0.1053
440.0775	0.1156
440.2808	0.1274
440.484	0.1064
440.6872	0.0977
440.8904	0.1032
441.0936	0.1076
441.2967	0.0994
441.4999	0.105
441.703	0.109
441.9062	0.0942
442.1093	0.0993
442.3124	0.0935
442.5155	0.101
442.7185	0.0864
442.9216	0.09
443.1246	0.0894
443.3276	0.0862
443.5307	0.085
443.7337	0.0922
443.9366	0.0903
444.1396	0.0793
444.3426	0.0799
444.5455	0.0749
444.7484	0.0725
444.9513	0.0767
445.1542	0.0743
445.3571	0.0709
445.56	0.0755
445.7628	0.0718
445.9657	0.0692
446.1685	0.0662
446.3713	0.069
446.5741	0.061
446.7769	0.0673
446.9797	0.0631
447.1824	0.0679
447.3852	0.0546
447.5879	0.0654
447.7906	0.0559
447.9933	0.0663
448.196	0.0538
448.3986	0.0593
448.6013	0.0591
448.8039	0.0578
449.0066	0.0589
449.2092	0.0465
449.4118	0.0537
449.6143	0.0446
449.8169	0.042
450.0195	0.0399
450.222	0.0496
450.4245	0.0603
450.627	0.0463
450.8295	0.0366
451.032	0.043
451.2345	0.0448
451.4369	0.0389
451.6394	0.0443
451.8418	0.0421
452.0442	0.0368
452.2466	0.0417
452.449	0.0364
452.6513	0.0293
452.8537	0.043
453.056	0.0438
453.2583	0.0442
453.4607	0.0288
453.663	0.0365
453.8652	0.0321
454.0675	0.0286
454.2697	0.0244
454.472	0.0291
454.6742	0.0212
454.8764	0.0266
455.0786	0.0276
455.2808	0.0259
455.4829	0.0218
455.6851	0.0193
455.8872	0.0342
456.0893	0.0262
456.2915	0.0197
456.4935	0.0195
456.6956	0.0164
456.8977	0.0199
457.0997	0.0211
457.3018	0.0274
457.5038	0.0183
457.7058	0.0226
457.9078	0.0267
458.1098	0.0226
458.3117	0.032
458.5137	0.0291
458.7156	0.0318
458.9175	0.0232
459.1194	0.0232
459.3213	0.0144
459.5232	0.0128
459.725	0.0224
459.9269	0.016
460.1287	0.0097
460.3305	0.0101
460.5323	0.0181
460.7341	0.0126
460.9359	0.016
461.1376	0.0119
461.3394	0.0138
461.5411	0.0222
461.7428	0.0184
461.9445	0.0128
462.1462	0.01
462.3479	0.0128
462.5495	0.0202
462.7512	0.0111
462.9528	0.0098
463.1544	0.0164
463.356	0.0147
463.5576	0.0051
463.7592	0.0075
463.9607	0.0087
464.1623	0.0153
464.3638	0.0156
464.5653	0.0085
464.7668	0.0066
464.9683	0.017
465.1697	0.0064
465.3712	0.011
465.5726	0.0166
465.7741	0.0079
465.9755	0.0113
466.1769	0.0078
466.3782	0.0053
466.5796	0.014
466.7809	0.02
466.9823	0.0099
467.1836	0.0135
467.3849	0.0079
467.5862	-0.0009
467.7875	0.0097
467.9887	0.0116
468.19	0.0048
468.3912	0.0112
468.5924	0.0214
468.7936	0.0019
468.9948	0.0113
469.196	0.003
469.3972	0.0237
469.5983	-0.0025
469.7994	0.0007
470.0006	0.0027
470.2017	0.0077
470.4027	-0.002
470.6038	-0.0002
470.8049	-0.006
471.0059	0.0139
471.2069	0.0137
471.408	-0.0046
471.6089	0.0087
471.8099	0.0071
472.0109	0.0055
472.2119	0.0214
472.4128	0.0101
472.6137	0.0027
472.8146	0.0007
473.0155	0.0055
473.2164	-0.0087
473.4173	0.0056
473.6181	-0.0004
473.819	0.0041
474.0198	0.0067
474.2206	0.0029
474.4214	0.0168
474.6222	0.0044
474.8229	0.0052
475.0237	0.0057
475.2244	0.0093
475.4251	-0.0037
475.6258	0.0026
475.8265	0.0093
476.0272	0.0044
476.2278	0.0085
476.4285	-0.0071
476.6291	0.0097
476.8297	-0.0049
477.0303	0.0064
477.2309	0.002
477.4315	0.0085
477.632	-0.0059
477.8326	-0.0011
478.0331	-0.0023
478.2336	0.0135
478.4341	0.0062
478.6346	0.0003
478.8351	0.0091
479.0355	0.0004
479.236	-0.0029
479.4364	-0.0033
479.6368	-0.0056
479.8372	0.0055
480.0376	-0.0072
480.2379	0.0004
480.4383	-0.0019
480.6386	-0.0023
480.8389	0.0023
481.0392	0.0072
481.2395	0.0065
481.4398	0.0023
481.6401	0.005
481.8403	-0.006
482.0405	-0.0053
482.2408	0
482.441	0.0025
482.6411	0.0017
482.8413	-0.0098
483.0415	0.0049
483.2416	0.0014
483.4417	0.0042
483.6419	0.0038
483.8419	0.0022
484.042	-0.0004
484.2421	-0.005
484.4422	0.0098
484.6422	0.0079
484.8422	-0.0018
485.0422	-0.0039
485.2422	0.0004
485.4422	-0.0008
485.6422	0.0008
485.8421	-0.0009
486.042	0.0035
486.242	-0.0015
486.4419	0.0061
486.6417	-0.0003
486.8416	0.0035
487.0415	-0.0001
487.2413	0.0035
487.4411	0.0001
487.641	0.0043
487.8408	0.0071
488.0405	0.0032
488.2403	-0.0036
488.4401	-0.0033
488.6398	0.0078
488.8395	0.0049
489.0392	0.003
489.2389	0.0067
489.4386	-0.0006
489.6383	0.0004
489.8379	0.0039
490.0376	0.0088
490.2372	0.002
490.4368	0.0027
490.6364	0.0097
490.836	0
491.0355	0.0006
491.2351	0.0013
491.4346	0.0029
491.6341	-0.0038
491.8336	-0.0051
492.0331	0.0019
492.2326	-0.0079
492.432	0.0038
492.6315	-0.002
492.8309	0.0012
493.0303	-0.0078
493.2297	0.0027
493.4291	-0.0124
493.6284	0.008
493.8278	0.0024
494.0271	0.0027
494.2264	0.0046
494.4257	-0.0046
494.625	-0.0004
494.8243	0.0106
495.0236	-0.0033
495.2228	-0.0051
495.422	0.0057
495.6213	-0.0015
495.8205	0.0071
496.0196	0.0042
496.2188	0.0068
496.418	-0.0084
496.6171	0.0026
496.8162	-0.003
497.0153	-0.0056
497.2144	0.0003
497.4135	0.004
497.6126	-0.0038
497.8116	0.0012
498.0107	0.0026
498.2097	0.0068
498.4087	0.0057
498.6077	0.0038
498.8067	0.0067
499.0056	-0.0067
499.2046	0.003
499.4035	0
499.6024	-0.013
499.8013	0.0038
500.0002	0.0053
500.199	0.002
500.3979	0.0059
500.5967	-0.0035
500.7956	-0.0054
500.9944	0.001
501.1932	0.0027
501.3919	0.0026
501.5907	0.0017
501.7895	0.0031
501.9882	-0.0032
502.1869	0.0072
502.3856	-0.0056
502.5843	0.0041
502.783	0.0052
502.9816	-0.0021
503.1803	0.0113
503.3789	0.0063
503.5775	0.005
503.7761	-0.0008
503.9747	-0.0029
504.1732	0.006
504.3718	-0.0012
504.5703	-0.0034
504.7689	-0.0041
504.9674	-0.0009
505.1658	0.0052
505.3643	0.0042
505.5628	0.0123
505.7612	0.0025
505.9597	0.0017
506.1581	-0.013
506.3565	-0.0112
506.5549	-0.0014
506.7532	0.0006
506.9516	0.0008
507.1499	0.0014
507.3482	0.0081
507.5465	-0.0044
507.7448	0.0009
507.9431	-0.0018
508.1414	0.0006
508.3396	-0.0058
508.5379	-0.001
508.7361	0.0077
508.9343	0.0115
509.1325	-0.0011
509.3306	0.0025
509.5288	0.0064
509.7269	0.0029
509.9251	-0.004
510.1232	-0.0014
510.3213	-0.0046
510.5193	0.0066
510.7174	-0.0072
510.9154	-0.0009
511.1135	-0.0044
511.3115	0.0015
511.5095	-0.0005
511.7075	-0.0012
511.9055	-0.0024
512.1034	-0.0017
512.3014	-0.0114
512.4993	-0.0061
512.6972	-0.0033
512.8951	-0.0003
513.093	-0.0046
513.2908	-0.0063
513.4887	0.0117
513.6865	0.0001
513.8844	0.0035
514.0822	0.0039
514.2799	-0.0027
514.4777	0.0117
514.6755	-0.0004
514.8732	-0.001
515.0709	0.0044
515.2687	-0.0035
515.4664	-0.0053
515.664	0.0077
515.8617	0.007
516.0594	0.0073
516.257	0.0109
516.4546	0.0034
516.6522	0.0021
516.8498	0.0014
517.0474	0.0088
517.2449	0.0006
517.4425	0.0064
517.64	-0.0017
517.8375	0.0112
518.035	-0.0083
518.2325	-0.0014
518.43	-0.006
518.6274	0.0025
518.8249	0.0006
519.0223	0.0003
519.2197	-0.0011
519.4171	0.0056
519.6145	-0.003
519.8118	-0.0008
520.0092	-0.0003
520.2065	0.0052
520.4038	-0.0021
520.6011	0
520.7984	-0.0027
520.9956	-0.0047
521.1929	-0.0053
521.3901	0.0003
521.5874	0.0083
521.7846	0.0018
521.9818	0.0014
522.1789	0.0143
522.3761	-0.0018
522.5732	-0.0043
522.7704	0.0057
522.9675	-0.0021
523.1646	0.0151
523.3617	-0.0012
523.5587	-0.0003
523.7558	-0.0051
523.9528	0.0076
524.1498	-0.0034
524.3468	-0.0012
524.5438	-0.007
524.7408	-0.0144
524.9378	0.0078
525.1347	0.0071
525.3316	0.0091
525.5285	-0.0037
525.7254	-0.0008
525.9223	-0.0057
526.1192	-0.0021
526.316	-0.0114
526.5129	0.0075
526.7097	-0.0101
526.9065	0.0014
527.1033	-0.0018
527.3	-0.0095
527.4968	-0.0029
527.6935	0.0006
527.8903	0.0021
528.087	0.0077
528.2837	0.0005
528.4804	0.0096
528.677	0.0122
528.8737	-0.0064
529.0703	0.0113
529.2669	0.0005
529.4635	0.0156
529.6601	0.0043
529.8567	-0.0003
530.0532	0.0011
530.2498	-0.0079
530.4463	0.0097
530.6428	-0.0081
530.8393	-0.0005
531.0358	-0.0043
531.2322	0.0014
531.4287	-0.0111
531.6251	0.0008
531.8215	0.0029
532.0179	-0.0133
532.2143	0.0121
532.4107	0.0018
532.607	0.0007
532.8034	0.0045
532.9997	0.0015
533.196	0.0046
533.3923	-0.0011
533.5886	0.0069
533.7848	-0.0126
533.9811	0.0005
534.1773	-0.0031
534.3735	0.0074
534.5697	-0.0053
534.7659	0.0147
534.9621	0.0096
535.1582	0.0088
535.3544	0.0103
535.5505	-0.0033
535.7466	-0.0069
535.9427	-0.0045
536.1387	0
536.3348	0.0076
536.5308	0.0098
536.7269	-0.0018
536.9229	0.0024
537.1189	-0.0055
537.3148	-0.0091
537.5108	-0.0005
537.7068	0.0034
537.9027	0.0066
538.0986	-0.0051
538.2945	0.007
538.4904	-0.008
538.6863	0.0078
538.8821	-0.0048
539.078	-0.006
539.2738	-0.0081
539.4696	0.0084
539.6654	-0.005
539.8611	-0.0107
540.0569	0.0003
540.2526	0.0022
540.4484	-0.0118
540.6441	0.0076
540.8398	-0.0013
541.0355	0.0082
541.2311	0.005
541.4268	0.0012
541.6224	0.0007
541.818	-0.0037
542.0136	-0.011
542.2092	0.0067
542.4048	-0.003
542.6003	0.0017
542.7959	0.0005
542.9914	0.0046
543.1869	-0.0015
543.3824	0.0038
543.5779	-0.0043
543.7734	-0.0036
543.9688	-0.0039
544.1642	0.0034
544.3596	-0.0056
544.555	0.0017
544.7504	-0.0071
544.9458	-0.0053
545.1411	-0.0065
545.3365	0.0004
545.5318	-0.0052
545.7271	0.0115
545.9224	-0.0101
546.1177	0.0063
546.3129	-0.006
546.5081	-0.0104
546.7034	-0.0121
546.8986	-0.0002
547.0938	0.0011
547.289	0.0045
547.4841	-0.001
547.6793	-0.007
547.8744	-0.0043
548.0695	0.0035
548.2646	-0.0096
548.4597	-0.0012
548.6548	0.0065
548.8498	-0.006
549.0448	0.0074
549.2399	0.0018
549.4349	0.0011
549.6298	-0.0059
549.8248	-0.0075
550.0198	0.0051
550.2147	-0.0011
550.4096	0.0043
550.6045	0.0034
550.7994	0.0039
550.9943	-0.0081
551.1892	0.0006
551.384	0.0104
551.5788	-0.0006
551.7737	-0.0039
551.9685	-0.0002
552.1632	0.0063
552.358	-0.0042
552.5528	-0.0027
552.7475	-0.0036
552.9422	-0.0027
553.1369	0.0035
553.3316	-0.0083
553.5263	-0.0085
553.7209	-0.0071
553.9156	0.0071
554.1102	-0.0051
554.3048	0.0056
554.4994	-0.0004
554.694	0.0071
554.8885	0.0027
555.0831	-0.0031
555.2776	-0.0151
555.4721	-0.012
555.6666	0.0044
555.8611	-0.0097
556.0555	0.0012
556.25	0.0028
556.4444	-0.0004
556.6388	0.0001
556.8332	-0.0014
557.0276	0.0089
557.222	-0.0063
557.4163	-0.0037
557.6107	-0.0016
557.805	-0.0066
557.9993	-0.0055
558.1936	0.0037
558.3879	0.0011
558.5821	-0.0047
558.7764	0.0142
558.9706	-0.0089
559.1648	-0.0014
559.359	0.0115
559.5532	-0.0199
559.7473	-0.0029
559.9415	0.0068
560.1356	0.0046
560.3297	-0.0062
560.5238	-0.0031
560.7179	-0.0052
560.9119	0.006
561.106	-0.0018
561.3	-0.008
561.494	0.008
561.688	-0.0001
561.882	0.0023
562.076	0.013
562.2699	0.001
562.4639	0.0077
562.6578	-0.0032
562.8517	-0.0019
563.0456	0.0023
563.2395	-0.0049
563.4333	-0.0043
563.6272	0.0023
563.821	0.0065
564.0148	-0.006
564.2086	0.0013
564.4024	-0.0076
564.5961	-0.0079
564.7899	0.0026
564.9836	0.0051
565.1773	-0.0049
565.371	0.0005
565.5647	-0.0005
565.7584	-0.0022
565.952	-0.0121
566.1456	0.005
566.3393	0.0036
566.5329	-0.0007
566.7264	0.0045
566.92	0.0041
567.1136	0.0028
567.3071	0.006
567.5006	-0.0073
567.6941	0.0071
567.8876	-0.0097
568.0811	-0.0077
568.2745	-0.0013
568.468	0.0023
568.6614	-0.0028
568.8548	-0.0044
569.0482	-0.0016
569.2416	-0.0061
569.4349	0.0041
569.6283	-0.0005
569.8216	-0.0033
570.0149	-0.001
570.2082	-0.0016
570.4015	0.0024
570.5947	-0.0024
570.788	-0.0041
570.9812	0.0032
571.1744	-0.0036
571.3676	-0.0015
571.5608	-0.0025
571.754	-0.0068
571.9471	0.0022
572.1402	-0.003
572.3333	-0.0033
572.5264	0.0038
572.7195	0.0047
572.9126	0.0023
573.1057	-0.0006
573.2987	0.0023
573.4917	-0.003
573.6847	-0.0014
573.8777	-0.0001
574.0707	-0.0046
574.2636	0.0011
574.4566	0.0003
574.6495	0.0072
574.8424	0.0033
575.0353	0.0001
575.2281	-0.0025
575.421	0.0006
575.6138	-0.0002
575.8067	0.0007
575.9995	0.0038
576.1923	0.0044
576.385	-0.0043
576.5778	0.0015
576.7706	0.0026
576.9633	0.0014
577.156	0.0041
577.3487	-0.0022
577.5414	0.0007
577.734	-0.0018
577.9267	-0.0018
578.1193	0.0025
578.3119	-0.0045
578.5045	-0.0018
578.6971	0.0017
578.8897	-0.0013
579.0822	0.0035
579.2747	-0.0046
579.4673	-0.0023
579.6598	0.0011
579.8522	-0.0006
580.0447	0.0011
580.2372	0.003
580.4296	-0.0022
580.622	0.001
580.8144	-0.0023
581.0068	0.0003
581.1992	0.0031
581.3915	-0.002
581.5839	0.0031
581.7762	-0.0004
581.9685	-0.0017
582.1608	0.0026
582.353	-0.0041
582.5453	0.0023
582.7375	0.0032
582.9298	-0.002
583.122	-0.0004
583.3142	0.0052
583.5063	0.001
583.6985	-0.002
583.8906	-0.0005
584.0827	0.0008
584.2749	-0.0007
584.4669	0.0013
584.659	0.0015
584.8511	0.0003
585.0431	-0.0039
585.2352	-0.0055
585.4272	0.0023
585.6192	0.0003
585.8111	-0.0065
586.0031	0.0012
586.195	0.0024
586.387	0.0011
586.5789	0.0035
586.7708	-0.0023
586.9627	-0.0018
587.1545	0.0017
587.3464	-0.0003
587.5382	-0.0015
587.73	-0.001
587.9218	-0.0031
588.1136	-0.0054
588.3053	-0.0039
588.4971	-0.0039
588.6888	0.0025
588.8805	0.0039
589.0722	0.0056
589.2639	-0.0028
589.4556	-0.0054
589.6472	-0.0037
589.8389	-0.0004
590.0305	0.0019
590.2221	0.0041
590.4137	-0.0025
590.6052	0.0023
590.7968	-0.0005
590.9883	-0.0033
591.1798	-0.0094
591.3713	-0.004
591.5628	0.0023
591.7543	-0.0034
591.9458	0.0027
592.1372	0.0012
592.3286	-0.0049
592.52	-0.0016
592.7114	-0.0036
592.9028	-0.0044
593.0941	-0.0026
593.2855	0.0024
593.4768	0.003
593.6681	-0.0018
593.8594	-0.0089
594.0506	0.0024
594.2419	-0.0106
594.4331	0.0024
594.6244	-0.0029
594.8156	-0.006
595.0067	0.0014
595.1979	0.0013
595.3891	-0.004
595.5802	-0.0026
595.7713	-0.0008
595.9624	0.0016
596.1535	-0.0035
596.3446	-0.0016
596.5357	0.0006
596.7267	-0.0025
596.9177	-0.0017
597.1087	0.0021
597.2997	-0.0003
597.4907	0.0051
597.6817	-0.003
597.8726	0.0048
598.0635	-0.0017
598.2544	-0.0067
598.4453	0.001
598.6362	0.0009
598.827	0.001
599.0179	-0.0019
599.2087	-0.007
599.3995	-0.0018
599.5903	0.0024
599.7811	-0.0047
599.9718	-0.0029
600.1626	-0.0023
600.3533	-0.001
600.544	0.0024
600.7347	0.0002
600.9254	0.0048
601.116	0.0061
601.3067	0.0044
601.4973	0.0103
601.6879	-0.0026
601.8785	0.0002
602.0691	0.0021
602.2596	-0.0057
602.4502	-0.0026
602.6407	-0.0001
602.8312	0.0011
603.0217	0.0035
603.2122	0.0037
603.4027	-0.0028
603.5931	-0.0023
603.7835	0
603.9739	0.0019
604.1643	-0.0021
604.3547	0.0006
604.5451	0.0024
604.7354	-0.0046
604.9257	-0.0046
605.116	0
605.3063	-0.0061
605.4966	0.0054
605.6869	0.0052
605.8771	0.0009
606.0673	-0.0064
606.2575	-0.0053
606.4477	0.0024
606.6379	-0.0043
606.8281	-0.0031
607.0182	-0.0015
607.2083	-0.0075
607.3985	0.0014
607.5885	0.0004
607.7786	0.0105
607.9687	-0.0023
608.1587	0.0023
608.3488	-0.0038
608.5388	0.0038
608.7288	-0.0103
608.9187	0.0099
609.1087	-0.0001
609.2986	-0.0034
609.4886	0.0064
609.6785	0.0073
609.8684	-0.0067
610.0582	0.0032
610.2481	-0.0041
610.4379	-0.0048
610.6278	-0.0108
610.8176	-0.0047
611.0074	-0.0008
611.1971	0.0003
611.3869	0.0004
611.5766	0.0002
611.7664	0.002
611.9561	-0.0023
612.1458	-0.0033
612.3354	0.0073
612.5251	-0.0013
612.7147	0.0015
612.9044	-0
613.094	0.0034
613.2836	-0.0052
613.4731	-0.0082
613.6627	0.0046
613.8522	-0.0027
614.0417	-0.0086
614.2313	-0.0035
614.4207	0.0035
614.6102	-0.007
614.7997	-0.003
614.9891	-0.0018
615.1785	-0.0056
615.3679	-0.0002
615.5573	-0.0044
615.7467	-0.0081
615.9361	-0.0024
616.1254	-0.0068
616.3147	-0.0022
616.504	-0.0016
616.6933	-0.0001
616.8826	0.0094
617.0718	-0.0066
617.2611	-0.0016
617.4503	-0.0072
617.6395	0.0008
617.8287	0.0022
618.0179	-0.0018
618.207	0.0001
618.3961	-0.0091
618.5853	0.0037
618.7744	0.0117
618.9634	-0.0053
619.1525	-0.0028
619.3416	0.0012
619.5306	0.0023
619.7196	-0.0036
619.9086	0.0161
620.0976	0.0043
620.2866	0.0055
620.4755	0.0161
620.6645	-0.0049
620.8534	-0.0141
621.0423	-0.0047
621.2312	-0.0105
621.42	-0.0069
621.6089	0.0024
621.7977	-0.0007
621.9865	0.0105
622.1753	0.0002
622.3641	-0.0131
622.5529	-0.0147
622.7416	-0.0036
622.9303	-0.0015
623.1191	-0.0081
623.3078	-0.003
623.4964	-0.0157
623.6851	0.0032
623.8737	0.009
624.0624	-0.0077
624.251	0.0085
624.4396	0.0006
624.6282	0.0127
624.8167	-0.0002
625.0053	-0.0083
625.1938	0.0012
625.3823	-0.0052
625.5708	-0.0043
625.7593	-0.0012
625.9477	-0.0173
626.1362	-0.007
626.3246	-0.0171
626.513	-0.0023
626.7014	-0.0163
626.8898	0.0029
627.0781	0.0046
627.2665	0.0115
627.4548	0.0085
627.6431	-0.0109
627.8314	-0.0007
628.0197	0.001
628.2079	-0.0057
628.3962	-0.0012
628.5844	-0.007
628.7726	-0.0053
628.9608	-0.0026
629.1489	-0.0074
629.3371	-0.0001
629.5252	0.0025
629.7134	0.0064
629.9015	-0.0069
630.0895	0.0028
630.2776	-0.0101
630.4657	-0.0014
630.6537	-0.0148
630.8417	-0.0112
631.0297	0.0042
631.2177	0
631.4057	-0.0047
631.5936	-0.0022
631.7815	-0.0075
631.9695	0.0177
632.1574	-0.0107
632.3452	0.0008
632.5331	0.0027
632.7209	-0.001
632.9088	-0.0094
633.0966	0
633.2844	-0.0107
633.4722	0.0057
633.6599	-0.0193
633.8477	-0.0068
634.0354	-0.0026
634.2231	0.0182
634.4108	0.0116
634.5985	0.0084
634.7861	-0.0083
634.9738	0.0015
635.1614	0.004
635.349	-0.0218
635.5366	0.0003
635.7242	0.0026
635.9117	0.0017
636.0993	-0.0083
636.2868	-0.0181
636.4743	0.013
636.6618	0.0016
636.8492	0.0076
637.0367	0.0067
637.2241	-0.0154
637.4115	-0.0031
637.5989	0.0157
637.7863	-0.0052
637.9737	0.0059
638.161	-0.0026
638.3484	0.0009
638.5357	0.0051
638.723	-0.0119
638.9103	0.004
639.0975	0.0008
639.2848	0.017
639.472	-0.002
639.6592	0.0195
639.8464	0.0083
640.0336	0.0118
640.2208	-0.0131
640.4079	0.0083
640.595	-0.0116
640.7821	-0.0037
640.9692	0.0029
641.1563	0.0143
641.3434	-0.0029
641.5304	-0.0008
641.7174	0.0036
641.9044	-0.0142
642.0914	-0.0167
642.2784	-0.0029
642.4653	-0.0018
642.6523	-0.0009
642.8392	-0.0034
643.0261	0.0078
643.213	0.0254
643.3999	-0.0027
643.5867	0.0068
643.7735	0.0112
643.9604	-0.0155
644.1472	-0.0016
644.3339	-0.0131
644.5207	-0.0248
644.7075	0.0077
644.8942	-0.0036
645.0809	-0.034
645.2676	-0.0165
645.4543	0.001
645.6409	-0.0169
645.8276	-0.0101
646.0142	-0.0013
646.2008	-0.0033
646.3874	0.0132
646.574	-0.014
646.7605	-0.0159
646.9471	0.0036
647.1336	0.0096
647.3201	0.0076
647.5066	0.0074
647.6931	-0.0029
647.8795	0.0114
648.0659	-0.0155
648.2524	0.0042
648.4388	-0.0052
648.6252	-0.0172
648.8115	0.0077
648.9979	0.0014
649.1842	-0.0175
649.3705	-0.0081
649.5568	-0.0163
649.7431	0.0011
649.9294	-0.0136
650.1156	0.0033
650.3018	-0.0072
650.488	0.0073
650.6742	-0.0015
650.8604	0.0136
651.0466	0.0177
651.2327	-0.0124
651.4188	-0.0171
651.6049	-0.0134
651.791	0.0049
651.9771	-0.0021
652.1632	0.0169
652.3492	0.0142
652.5352	0.0028
652.7212	-0.0088
652.9072	-0.0096
653.0932	-0.0052
653.2791	0.0089
653.465	-0.0149
653.651	0.0185
653.8369	0.0156
654.0227	-0.0071
654.2086	-0.021
654.3944	-0.0239
654.5803	-0.0059
654.7661	-0.0091
654.9519	-0.0034
655.1377	0
655.3234	0
655.5092	0
655.6949	0
655.8806	0
656.0663	0
656.2519	0
656.4376	0
656.6232	0
656.8088	0
656.9945	0
657.18	0
657.3656	0
657.5511	0
657.7367	0
657.9222	0
658.1077	0
658.2932	0
658.4786	0
658.6641	0
658.8495	0
659.0349	0
659.2203	0
659.4057	0.0058
659.591	0.0335
659.7764	-0.0062
659.9617	-0.0003
660.147	-0.0057
660.3323	-0.0008
660.5176	-0.0145
660.7028	0.0064
660.888	0.0176
661.0733	0.0012
661.2585	-0.0048
661.4436	0.0084
661.6288	0.0066
661.8139	0.0085
661.9991	0.0127
662.1842	0.0062
662.3693	-0.0033
662.5544	-0.0178
662.7394	-0.0116
662.9245	0.0059
663.1095	-0.0098
663.2945	-0.0144
663.4795	-0.0259
663.6644	-0.0071
663.8494	0.0075
664.0343	-0.008
664.2193	-0.0203
664.4042	-0.0326
664.589	-0.0103
664.7739	-0.0086
664.9587	-0.0046
665.1436	0.0018
665.3284	-0.001
665.5132	0.0006
665.698	-0.0065
665.8827	-0.015
666.0675	-0.0207
666.2522	0.0057
666.4369	-0.0259
666.6216	-0.0246
666.8063	0.0061
666.9909	0.0042
667.1756	-0.008
667.3602	-0.0089
667.5448	-0.0036
667.7294	-0.0003
667.9139	-0.0313
668.0985	-0.0115
668.283	0.0011
668.4675	-0.0059
668.652	-0.0156
668.8365	-0.0095
669.0209	-0.0295
669.2054	-0.0029
669.3898	-0.0044
669.5742	0.001
669.7586	0.0114
669.943	-0.0149
670.1273	0.0098
670.3117	0.0035
670.496	0.0056
670.6803	-0.0029
670.8646	-0.0097
671.0488	0.0095
671.2331	-0.0029
671.4173	-0.0053
671.6015	-0.0079
671.7857	-0.0214
671.9699	-0.0125
672.1541	-0.0001
672.3382	0.0176
672.5223	-0.0017
672.7064	-0.013
672.8905	0.0028
673.0746	-0.0065
673.2587	0.0057
673.4427	-0.0215
673.6267	-0.0468
673.8107	-0.0115
673.9947	-0.0095
674.1787	-0.0133
674.3626	-0.02
674.5465	0.0077
674.7304	-0.0473
674.9143	0.0064
675.0982	-0.0118
675.2821	0.0224
675.4659	-0.0015
675.6497	0.0132
675.8335	0.0068
676.0173	0.0185
676.2011	-0.0137
676.3849	0.0007
676.5686	-0.0294
676.7523	0.0037
676.936	-0.0127
677.1197	0.0143
677.3034	0.0193
677.487	0.0113
677.6706	-0.0178
677.8542	0.0032
678.0378	-0.0145
678.2214	-0.0123
678.405	0.0293
678.5885	0.0012
678.772	-0.0189
678.9555	-0.004
679.139	-0.0237
679.3225	-0.0076
679.5059	-0.0071
679.6894	-0.021
679.8728	-0.013
680.0562	-0.0047
680.2395	-0.0123
680.4229	-0.0189
680.6062	0.0036
680.7896	0.0204
680.9729	-0.003
681.1562	-0.009
681.3394	-0.0059
681.5227	-0.0234
681.7059	-0.0077
681.8891	-0.0103
682.0723	-0.0328
682.2555	0.0084
682.4387	0.0001
682.6218	-0.0252
682.805	0.0042
682.9881	-0.0129
683.1712	0.0184
683.3542	-0.0257
683.5373	0.0187
683.7203	-0.0101
683.9034	0.002
684.0864	-0.0138
684.2694	0.0012
684.4523	-0.0112
684.6353	0.0055
684.8182	0.0013
685.0011	-0.0086
685.184	-0.0072
685.3669	-0.0175
685.5498	0.0092
685.7326	-0.0159
685.9154	-0.0097
686.0982	0.017
686.281	0.0042
686.4638	-0.0049
686.6465	-0.0087
686.8293	0.0116
687.012	-0.0131
687.1947	0.0076
687.3774	-0.0031
687.56	-0.0125
687.7427	0.0009
687.9253	0.0066
688.1079	0.0176
688.2905	-0.0153
688.4731	0.0235
688.6556	-0.0125
688.8382	-0.0019
689.0207	-0.0138
689.2032	-0.021
689.3857	-0.0174
689.5681	-0.0068
689.7506	-0.0121
689.933	-0.0209
690.1154	-0.0023
690.2978	-0.0043
690.4802	-0.0132
690.6626	-0.0095
690.8449	-0.0392
691.0272	-0.0243
691.2095	0.002
691.3918	-0.0016
691.5741	0.0047
691.7563	0.0118
691.9386	-0.0036
692.1208	-0.0259
692.303	0
692.4852	0.0053
692.6673	-0.0041
692.8495	-0.0152
693.0316	-0.0129
693.2137	0.0253
693.3958	0.013
693.5778	-0.0313
693.7599	-0.0484
693.9419	0.0116
694.1239	-0.0085
694.3059	-0.0216
694.4879	-0.0124
694.6699	-0.0064
694.8518	0.0036
695.0337	-0.0078
695.2157	-0.017
695.3975	-0.0185
695.5794	-0.0199
695.7613	0.0052
695.9431	-0.0371
696.1249	-0.0156
696.3067	-0.0088
696.4885	-0.0136
696.6703	-0.0067
696.852	-0.0143
697.0337	0.0027
697.2154	0.004
697.3971	0.0077
697.5788	0.0259
697.7605	-0.0059
697.9421	-0.0124
698.1237	-0.0007
698.3053	-0.006
698.4869	0.0213
698.6685	0.0015
698.85	-0.0002
699.0315	-0.0177
699.213	0.0152
699.3945	-0.0137
699.576	-0.0079
699.7575	-0.0096
699.9389	0.0053
700.1203	-0.0138
700.3017	-0.0298
700.4831	0.0086
700.6645	-0.0121
700.8458	0.0063
701.0271	0.0005
701.2084	-0.0183
701.3897	0.0035
701.571	0.0049
701.7523	0.0001
701.9335	0.0088
702.1147	-0.0099
702.2959	0.012
702.4771	-0.0232
702.6583	-0.0065
702.8394	-0.0078
703.0205	-0.0239
703.2016	-0.017
703.3827	0.0027
703.5638	0.0063
703.7449	-0.0007
703.9259	-0.0142
704.1069	0.0175
704.2879	-0.013
704.4689	-0.0344
704.6499	-0.0624
704.8308	-0.0063
705.0117	-0.025
705.1927	0.0047
705.3735	-0.0014
705.5544	-0.0172
705.7353	-0.0065
705.9161	0.0147
706.0969	0.0039
706.2777	-0.001
706.4585	-0.0031
706.6393	0.0027
706.82	-0.0243
707.0007	-0.0032
707.1815	0.0069
707.3621	-0.0141
707.5428	0.0222
707.7235	0.0164
707.9041	-0.0188
708.0847	-0.0053
708.2653	-0.0137
708.4459	0.0077
708.6265	-0.0439
708.807	-0.0233
708.9875	-0.0173
709.168	0.0348
709.3485	0.0174
709.529	0.016
709.7095	-0.0147
709.8899	0.0156
710.0703	-0.0086
710.2507	0.0105
710.4311	0.0163
710.6115	-0.01
710.7918	-0.0124
710.9721	0.0066
711.1524	-0.0203
711.3327	-0.0091
711.513	-0.0417
711.6932	-0.039
711.8735	-0.0135
712.0537	-0.0136
712.2339	0.0026
712.4141	0.0044
712.5942	0.0011
712.7744	0.0025
712.9545	-0.0087
713.1346	0.0056
713.3147	0.012
713.4947	-0.0066
713.6748	0.0014
713.8548	-0.0145
714.0348	0.0014
714.2148	0.0045
714.3948	-0.0121
714.5748	-0.0234
714.7547	0.0027
714.9346	0.0001
715.1145	0.0038
715.2944	-0.0142
715.4743	0.0062
715.6541	-0.0249
715.834	-0.0062
716.0138	0.0294
716.1936	-0.0255
716.3733	0.0187
716.5531	-0.012
716.7328	-0.0451
716.9126	-0.0053
717.0923	0.0032
717.2719	-0.0018
717.4516	-0.0195
717.6312	-0.031
717.8109	0.0133
717.9905	-0.0153
718.1701	-0.033
718.3496	0.0088
718.5292	-0.0369
718.7087	-0.0003
718.8882	0.0049
719.0677	-0.0246
719.2472	-0.0003
719.4267	-0.0121
719.6061	0.0039
719.7856	-0.0358
719.965	-0.0049
720.1443	-0.0224
720.3237	0.0024
720.5031	-0.0067
720.6824	-0.0003
720.8617	-0.0007
721.041	-0.0032
721.2203	-0.0003
721.3995	-0.0175
721.5788	0.0083
721.758	-0.0112
721.9372	-0.0128
722.1164	-0.0016
722.2956	0.0049
722.4747	0.0117
722.6538	-0.0167
722.8329	-0.0278
723.012	0.0095
723.1911	0.0043
723.3702	-0.0399
723.5492	-0.0325
723.7282	-0.0008
723.9072	-0.0242
724.0862	-0.0122
724.2652	-0.02
724.4441	-0.004
724.623	0.0076
724.8019	0.0074
724.9808	-0.0123
725.1597	0.0057
725.3385	0.0089
725.5174	0.0271
725.6962	0.0157
725.875	-0.003
726.0538	-0.0126
726.2325	-0.0299
726.4112	-0.0007
726.59	-0.0122
726.7687	-0.0059
726.9474	-0.0083
727.126	-0.022
727.3047	0.0107
727.4833	0.0231
727.6619	0.0123
727.8405	0.0063
728.0191	-0.04
728.1976	-0.0481
728.3762	-0.018
728.5547	0.0088
728.7332	0.0262
728.9116	-0.0371
729.0901	0.006
729.2686	-0.0307
729.447	-0.0019
729.6254	0.0173
729.8038	-0.0083
729.9821	0.0102
730.1605	-0.0033
730.3388	-0.0056
730.5171	-0.0168
730.6954	-0.003
730.8737	0.0151
731.0519	0.0077
731.2302	-0.0231
731.4084	0.0029
731.5866	-0.0215
731.7648	-0.0275
731.9429	0.0084
732.1211	-0.017
732.2992	-0.0074
732.4773	-0.016
732.6554	-0.0116
732.8335	0.0129
733.0115	-0.0041
733.1896	-0.0191
733.3676	-0.0195
733.5456	0.0021
733.7235	-0.0011
733.9015	-0.0096
734.0794	-0.0106
734.2574	0.0149
734.4353	-0.0124
734.6131	-0.0025
734.791	0.0014
734.9689	0.0026
735.1467	-0.0074
735.3245	0.0068
735.5023	0.007
735.68	0.0065
735.8578	-0.0097
736.0355	0
736.2132	-0.0063
736.3909	-0.0268
736.5686	0.0047
736.7463	-0.014
736.9239	-0.0011
737.1015	-0.0067
737.2791	-0.0062
737.4567	-0.0048
737.6343	0.0004
737.8118	-0.0187
737.9894	-0.0073
738.1669	0.0014
738.3444	-0.0088
738.5218	0.0207
738.6993	-0.0111
738.8767	-0.0184
739.0541	0.0218
739.2315	-0.0136
739.4089	-0.0088
739.5863	-0.0194
739.7636	-0.0023
739.9409	-0.004
740.1182	0.0117
740.2955	-0.0162
740.4728	0.0121
740.65	-0.0097
740.8272	-0.0323
741.0044	-0.0055
741.1816	0.0161
741.3588	0.0329
741.5359	-0.0072
741.7131	0.0278
741.8902	-0.024
742.0673	0.0268
742.2444	-0.014
742.4214	-0.0055
742.5985	0.0034
742.7755	-0.0231
742.9525	-0.0022
743.1295	-0.021
743.3064	0.0093
743.4834	-0.0295
743.6603	-0.0333
743.8372	0.0102
744.0141	0.0168
744.191	-0.0009
744.3678	0.0019
744.5446	-0.0071
744.7215	-0.0068
744.8982	-0.0157
745.075	-0.0098
745.2518	-0.0112
745.4285	-0.0156
745.6052	0.0069
745.7819	-0.0191
745.9586	0.0176
746.1353	0.0052
746.3119	-0.0186
746.4885	0.0134
746.6651	-0.058
746.8417	-0.0306
747.0183	-0.0004
747.1948	-0.0146
747.3714	0.0053
747.5479	-0.0078
747.7244	-0.0548
747.9008	0.0147
748.0773	0.0125
748.2537	0.0426
748.4301	-0.0075
748.6065	-0.0355
748.7829	-0.0119
748.9593	-0.0072
749.1356	-0.017
749.3119	0.0055
749.4882	-0.0191
749.6645	0.0163
749.8408	-0.0063
750.017	-0.0022
750.1933	0.0324
750.3695	0.017
750.5457	-0.0303
750.7218	0.0044
750.898	-0.0366
751.0741	-0.0006
751.2502	-0.0031
751.4263	0.0001
751.6024	0.0172
751.7784	-0.0415
751.9545	-0.0344
752.1305	-0.008
752.3065	0.0188
752.4825	-0.0209
752.6584	-0.0076
752.8344	0.0045
753.0103	-0.0359
753.1862	0.0007
753.3621	-0.0169
753.5379	-0.0373
753.7138	-0.0145
753.8896	0.0301
754.0654	0.0026
754.2412	0.0172
754.417	-0.0056
754.5927	0.0051
754.7685	-0.0171
754.9442	-0.0223
755.1199	0.0001
755.2956	0.0036
755.4712	0.001
755.6469	-0.0129
755.8225	-0.0008
755.9981	0.0092
756.1736	0.0164
756.3492	-0.027
756.5248	0
756.7003	0.0018
756.8758	-0.0094
757.0513	-0.0006
757.2267	-0.0251
757.4022	-0.0161
757.5776	-0.0211
757.753	-0.0153
757.9284	-0.0255
758.1038	-0.0077
758.2791	-0.0037
758.4545	-0.0259
758.6298	-0.0196
758.8051	-0.0226
758.9803	-0.0093
759.1556	-0.0092
759.3308	0.0014
759.506	0.0179
759.6812	-0.0181
759.8564	-0.0068
760.0316	0.0046
760.2067	-0.0185
760.3819	-0.0093
760.557	0.0013
760.732	-0.0037
760.9071	-0.0159
761.0821	0.005
761.2572	0.0043
761.4322	-0.0249
761.6072	-0.0107
761.7821	0.0205
761.9571	0.0096
762.132	0.0077
762.3069	-0.0022
762.4818	0.0189
762.6567	-0.0014
762.8316	-0.011
763.0064	-0.0196
763.1812	-0.0158
763.356	-0.0195
763.5308	-0.0065
763.7055	-0.0137
763.8803	-0.0028
764.055	-0.0117
764.2297	-0.0102
764.4044	0.0036
764.579	-0.0246
764.7537	-0.0089
764.9283	-0.0292
765.1029	0.0104
765.2775	-0.0116
765.4521	0
765.6266	-0.0432
765.8011	-0.026
765.9756	0.0015
766.1501	0.0095
766.3246	-0.0176
766.4991	-0.0344
766.6735	-0.0015
766.8479	-0.0085
767.0223	0.0118
767.1967	-0.0113
767.371	0.005
767.5454	0.0138
767.7197	-0.024
767.894	-0.019
768.0683	-0.0121
768.2425	-0.0092
768.4168	0.0046
768.591	-0.0125
768.7652	-0.0138
768.9394	0.0113
769.1135	-0.0175
769.2877	-0.0029
769.4618	0.0114
769.6359	-0.0215
769.81	-0.0253
769.984	-0.0181
770.1581	0.0107
770.3321	-0.019
770.5061	0.005
770.6801	0.0034
770.8541	-0.0197
771.028	-0.0169
771.202	-0.0395
771.3759	0.0013
771.5498	-0.0134
771.7236	-0.0114
771.8975	-0.0181
772.0713	-0.0028
772.2451	-0.0192
772.4189	-0.0234
772.5927	-0.0202
772.7665	0.0341
772.9402	-0.0079
773.1139	-0.0087
773.2876	-0.001
773.4613	-0.0063
773.635	0.0007
773.8086	0.002
773.9822	0.0104
774.1558	-0.0143
774.3294	-0.0281
774.503	0.0185
774.6765	0.0189
774.8501	0.0346
775.0236	0.0296
775.1971	-0.0146
775.3705	-0.0149
775.544	-0.019
775.7174	-0.0253
775.8908	0.0246
776.0642	0.0027
776.2376	-0.0373
776.4109	-0.0287
776.5843	-0.0394
776.7576	-0.0125
776.9309	0.011
777.1041	-0.007
777.2774	-0.029
777.4506	-0.0112
777.6238	0.0274
777.797	-0.024
777.9702	0.0144
778.1434	-0.0197
778.3165	-0.006
778.4896	-0.0286
778.6627	0.0058
778.8358	-0.0168
779.0089	-0.0149
779.1819	-0.0229
779.3549	0.0324
779.5279	-0.0214
779.7009	-0.0319
779.8739	-0.0222
780.0468	0.0164
780.2197	0.0134
780.3926	-0.0149
780.5655	-0.0234
780.7384	-0.0091
780.9112	-0.0163
781.0841	-0.0188
781.2569	-0.039
781.4297	0.0077
781.6024	-0.0377
781.7752	-0.0453
781.9479	-0.0378
782.1206	0.0028
782.2933	-0.0022
782.466	-0.0577
782.6386	-0.0061
782.8113	-0.0346
782.9839	0.0059
783.1565	-0.0209
783.329	0.0047
783.5016	-0.0216
783.6741	-0.0194
783.8466	-0.0352
784.0191	-0.0386
784.1916	-0.0151
784.3641	-0.0434
784.5365	0.0435
784.7089	0.0107
784.8813	-0.0086
785.0537	0.0242
785.2261	-0.0291
785.3984	0.0031
785.5707	0.0202
785.743	-0.0305
785.9153	0.0361
786.0876	-0.0388
786.2598	-0.0225
786.432	-0.0508
786.6042	0.025
786.7764	0.0041
786.9486	0.0144
787.1207	0.0157
787.2928	-0.0152
787.4649	0.0237
787.637	0.0339
787.8091	-0.0468
787.9811	0.0024
788.1532	-0.0301
788.3252	-0.0048
788.4972	-0.0052
788.6691	0.0127
788.8411	-0.0344
789.013	-0.0179
789.1849	-0.0138
789.3568	0.0041
789.5287	-0.0591
789.7005	0.0052
789.8723	-0.028
790.0442	-0.0207
790.2159	0.0199
790.3877	-0.0045
790.5595	0.0184
790.7312	-0.0154
790.9029	-0.0235
791.0746	-0.0175
791.2463	-0.0447
791.4179	-0.0307
791.5896	-0.0712
791.7612	-0.0608
791.9328	-0.0223
792.1044	-0.0609
792.2759	0.0058
792.4474	-0.0746
792.619	0.0129
792.7905	-0.0334
792.9619	0.0354
793.1334	-0.0267
793.3048	-0.0334
793.4762	-0.0279
793.6476	-0.0051
793.819	-0.0158
793.9904	0.0107
794.1617	-0.0149
794.333	-0.0307
794.5043	0.0095
794.6756	0.0526
794.8469	-0.0227
795.0181	-0.0268
795.1893	-0.0088
795.3605	-0.0332
795.5317	0.0278
795.7029	0.0157
795.874	-0.0102
796.0452	0.0035
796.2163	-0.001
796.3873	0.0568
796.5584	0.1252
796.7294	-0.1024
796.9005	-0.0416
797.0715	0.0497
797.2425	-0.0217
797.4134	0.0307
797.5844	0.058
797.7553	-0.0177
797.9262	0.0068
798.0971	-0.0332
798.2679	0.0112
798.4388	-0.0561
798.6096	-0.0952
798.7804	0.0041
798.9512	0.0402
799.122	0.0371
799.2927	-0.0539
799.4635	0.1011
799.6342	0.0017
799.8049	0.0487
799.9755	-0.0248
800.1462	0.0485
800.3168	0.0017
800.4874	-0.0109
800.658	0.0878
800.8286	-0.0751
800.9991	0.0618
801.1696	-0.0624
801.3402	-0.0665
801.5106	-0.0757
801.6811	0.0151
801.8516	-0.0565
802.022	-0.0138
802.1924	-0.0854
802.3628	-0.0526
802.5332	-0.0192
802.7035	-0.0484
802.8739	0.0171
803.0442	-0.0301
803.2145	-0.0313
803.3847	-0.0472
803.555	-0.007
803.7252	-0.047
803.8954	-0.027
804.0656	-0.0549
804.2358	0.0003
804.4059	0.0904
804.5761	0.0163
804.7462	-0.0475
804.9163	-0.0946
805.0864	-0.0065
805.2564	0.0096
805.4264	-0.0581
805.5965	-0.0339
805.7665	0.0207
805.9364	-0.0577
806.1064	-0.0481
806.2763	0.0569
806.4462	0.0609
806.6161	-0.0157
806.786	-0.0177
806.9559	0.0353
807.1257	-0.0715
807.2955	0.0386
807.4653	-0.0361
807.6351	-0.0067
807.8048	-0.0432
807.9746	-0.0188
808.1443	0.0399
808.314	-0.0044
808.4837	-0.1046
808.6533	0.0618
808.8229	-0.0014
808.9926	0.0187
809.1622	-0.0195
809.3317	-0.115
809.5013	0.0223
809.6708	0.0707
809.8403	0.0472
810.0098	0.0374
810.1793	0.0041
810.3488	-0.0112
810.5182	-0.0142
810.6876	0.0369
810.857	-0.1464
811.0264	-0.1392
811.1958	-0.0665
811.3651	-0.0247
811.5344	0.045
811.7037	0.0796
811.873	0.0794
812.0422	0.0245
812.2115	0.0627
812.3807	-0.0858
812.5499	0.1404
812.7191	-0.0173
812.8882	-0.1197
813.0574	-0.1448
813.2265	-0.0387
813.3956	0.0781
813.5646	-0.0093
813.7337	-0.1476
813.9027	-0.0131
814.0718	-0.0458
814.2407	-0.0505
814.4097	0.0067
814.5787	-0.0041
814.7476	0.0236
814.9165	-0.0154
815.0854	0.0812
815.2543	0.0004
815.4232	-0.0048
815.592	0.03
815.7608	0.0692
815.9296	-0.0077
816.0984	-0.0213
816.2671	-0.0304
816.4359	0.2204
816.6046	0.032
816.7733	-0.1634
816.942	0.0313
817.1106	-0.1345
817.2793	-0.0762
817.4479	-0.1086
817.6165	0.0222
817.785	0.045
817.9536	0.0629
818.1221	0.089
818.2906	0.0004
818.4591	0.0128
818.6276	-0.0236
818.7961	0.1369
818.9645	-0.0299
819.1329	0.1657
819.3013	-0.1266
819.4697	0.1102
819.638	0.2686
819.8064	-0.1093
819.9747	-0.0388
820.143	-0.0162
820.3113	0.0615
820.4795	0.0358
820.6477	-0.1414
820.816	-0.0317
820.9842	-0.0925
821.1523	0.0953
821.3205	0.0004
821.4886	0.0456
821.6567	-0.0416
821.8248	0.0735
821.9929	0.0415
822.1609	-0.0303
822.329	0.1779
822.497	-0.0513
822.665	-0.0194
822.833	-0.1162
823.0009	-0.1354
823.1688	0.0364
823.3367	-0.1283
823.5046	0.0229
823.6725	0.0624
823.8404	-0.1155
824.0082	-0.0388
824.176	-0.0188
824.3438	0.1611
824.5116	-0.0183
824.6793	-0.0065
824.847	-0.1403
825.0147	0.1401
825.1824	0.1232
825.3501	0.0998
825.5177	0.0033
825.6854	0.1839
825.853	-0.0984
826.0206	0.0455
826.1881	0.0255
826.3557	0.1115
826.5232	0.0606
826.6907	-0.0041
826.8582	0.0294
827.0257	-0.1947
827.1931	0.1667
827.3605	-0.0234
827.528	0.0053
827.6953	0.0593
827.8627	-0.0983
828.03	0.1235
828.1974	-0.0644
828.3647	0.0032
828.532	0.0909
828.6992	0.1395
828.8665	-0.1016
829.0337	0.1593
829.2009	0.1396
829.3681	-0.0286
829.5352	0.2651
829.7024	-0.205
829.8695	-0.1383
830.0366	0.1293
830.2037	0.0223
830.3707	-0.1076
830.5378	0.6299
830.7048	-0.3297
830.8718	-0.0387
831.0388	0.0724
831.2057	-0.369
831.3727	-0.1044
831.5396	-0.3354
831.7065	0.1679
831.8734	-0.5911
832.0402	-0.0617
832.2071	-0.182
832.3739	0.2781
832.5407	-0
832.7075	0.1984
832.8742	0.2132
833.041	-0.1396
833.2077	-0.1645
833.3744	0.1042
833.541	-0.1544
833.7077	-0.013
833.8743	-0.0427
834.0409	0.1808
834.2075	-0.0851
834.3741	0.1269
834.5407	-0.1035
834.7072	0.2078
834.8737	0.0592
835.0402	-0.3976
835.2067	0.4005
835.3731	0.0049
835.5395	0.0444
835.706	0.0283
835.8723	0.022
836.0387	-0
836.2051	0.0383
836.3714	0.0451
836.5377	0.0375
836.704	0.2037
836.8703	0.0358
837.0365	0.0368
837.2027	0.0549
837.3689	-0.0531
837.5351	-0.3553
837.7013	-0.0733
837.8674	-0.7533
838.0335	-0.1445
838.1997	0.1187
838.3657	-0
838.5318	-0.5162
838.6978	0.1059
838.8639	0.1486
839.0299	-0.0504
839.1958	-0.0147
839.3618	0.5437
839.5277	-0.2484
839.6937	0.1577
839.8596	-0.1403
840.0254	0.0476
840.1913	0.3332
840.3571	-0.2555
840.523	2.673
840.6888	0.0815
840.8545	0.2271
841.0203	-0.0063
841.186	0.0789
841.3517	0.1744
841.5174	0.1722
841.6831	0.3713
841.8488	-0.0244
842.0144	0.309
842.18	-0.1112
842.3456	0.0469
842.5112	-0
842.6767	0.1529
842.8422	-0.1176
843.0077	0.1706
843.1732	0.6635
843.3387	0.2062
843.5042	0.5764
843.6696	-0.3439
843.835	-0.2048
844.0004	0.0011
844.1657	-0.2731
844.3311	-0.0606
844.4964	0.3366
844.6617	-0
844.827	1.1071
844.9923	-0.0791
845.1575	0.1568
845.3227	0.4451
845.4879	-0.1009
845.6531	-0.3506
845.8183	0.208
845.9834	-0
846.1485	-0.1219
846.3136	0.2923
846.4787	0.5432
846.6438	0.433
846.8088	-1.1604
846.9738	-0
847.1388	0.3705
847.3038	-0.2142
847.4687	-0.5988
847.6337	0.2919
847.7986	0.1634
847.9635	-0.3638
848.1284	-0.6286
848.2932	-0.306
848.458	0.3623
848.6228	-0.1188
848.7876	-0.0625
848.9524	-0
849.1172	0.682
849.2819	-0
849.4466	-0.1399
849.6113	-0.0233
849.7759	0.1174
849.9406	-0.165
850.1052	-0.6708
850.2698	-0
850.4344	0.167
850.599	0.1832
850.7635	0.2798
850.928	0.5807
851.0925	0.302
851.257	-0.5507
851.4215	0.2103
851.5859	0.2123
851.7503	-0.0961
851.9147	-1.3268
852.0791	-0.4215
852.2434	-0.0971
852.4078	-0
852.5721	-0
852.7364	0.4839
852.9007	-0.407
853.0649	0.9958
853.2291	-0.0248
853.3934	-0
853.5575	0.3408
853.7217	-0.4952
853.8859	-0
854.05	-0.8828
854.2141	-0
854.3782	0.8652
854.5423	-0
854.7063	-0.0074
854.8703	-0
855.0343	-0.185
855.1983	-0.0295
855.3623	0.0347
855.5262	-0.3966
855.6901	0.4513
855.854	-0.3147
856.0179	-0
856.1818	-0.6865
856.3456	-0.2639
856.5094	-0
856.6732	-0
856.837	0.6134
857.0008	-0
857.1645	-0
857.3282	0.0268
857.4919	0.2314
857.6556	-0.1273
857.8192	-0.2813
857.9828	0.0234
858.1465	0.4843
858.31	-1.5385
858.4736	-0.1965
858.6372	-0
858.8007	-1.4934
858.9642	0.6334
859.1277	-0.5243
859.2911	0.2939
859.4546	-0.1824
859.618	-0.0553
859.7814	-0
859.9448	-0.6502
860.1081	-0.4686
860.2715	-0
860.4348	-0.1438
860.5981	-0.3642
860.7614	-0
860.9246	0.3023
861.0879	-0.5371
861.2511	-0
861.4143	-0
861.5774	0.6202
861.7406	-0
861.9037	0.002
862.0668	-0
862.2299	-0
862.393	0.1037
862.556	-0.1814
862.7191	0.293
862.8821	-0.4626
863.0451	0.0411
863.208	-0.2279
863.371	-0
863.5339	-0.0506
863.6968	0.5991
863.8597	-0
864.0225	-0
864.1854	-0
864.3482	1.0835
864.511	0.2892
864.6737	-0
864.8365	0.1149
864.9992	-0.2678
865.1619	0.3366
865.3246	0.0423
865.4873	-0
865.65	0.1931
865.8126	0.2238
865.9752	-0.3466
866.1378	-0.346
866.3004	0.1697
866.4629	-0.2142
866.6254	-0.8681
866.7879	-0.0198
866.9504	-0.539
867.1129	-0
867.2753	-0.1817
867.4377	0.0011
867.6001	-0
867.7625	-0.1888
867.9249	-0
868.0872	-0.2048
868.2495	-0
868.4118	-0
868.5741	-0.2003
868.7363	-0
868.8986	0.2593
869.0608	0.1342
869.223	-0.0139
869.3851	-0
869.5473	-1.4809
869.7094	-0.1709
869.8715	0.9301
870.0336	-0.0251
870.1957	-0
870.3577	0.1521
870.5197	-0.0666
870.6817	-0
870.8437	0.7503
871.0057	-0
871.1676	0.4065
871.3295	-0
871.4914	-0
871.6533	-0.1356
871.8151	0.976
871.977	0.1187
872.1388	-0
872.3006	0.3823
872.4623	-0.2911
872.6241	-1.7188
872.7858	0.3628
872.9475	-0.8353
873.1092	-0
873.2709	0.0569
873.4325	-0
873.5941	-0.6945
873.7557	-0
873.9173	0.0174
874.0789	0.1639
874.2404	-0
874.4019	-0.1658
874.5634	-0.0256
874.7249	0.0065
874.8863	-0.5039
875.0478	0.2049
875.2092	-0.1682
875.3706	0.0187
875.5319	-0
875.6933	-0.2114
875.8546	-0.4125
876.0159	0.0397
876.1772	-0
876.3385	-0
876.4997	0.4161
876.6609	-0.6042
876.8221	-0
876.9833	1.3548
877.1445	0.4699
877.3056	-0
877.4667	-1.3195
877.6278	-0.2411
877.7889	0.07
877.9499	-0
878.111	0.1456
878.272	-0
878.433	-0.2456
878.5939	0.1645
878.7549	0.1849
878.9158	-0
879.0767	-0
879.2376	-0
879.3984	0.6258
879.5593	-0
879.7201	-0.4297
879.8809	0.1201
880.0417	0.0873
880.2024	-0.0549
880.3632	-0.104
880.5239	0.003
880.6846	-0.2124
880.8452	0.3656
881.0059	-0.2393
881.1665	0.3952
881.3271	0.3767
881.4877	1.5479
881.6483	-1.2685
881.8088	-0
881.9693	0.5776
882.1298	0.5776
882.2903	0.5776
