Data from D4ACN5uM480nmA_Absorbance_12-08-00-731.txt Node
Date: Fri Feb 21 12:08:00 GMT 2025
User: LASERRRRR
Spectrometer: FLMT03099
Trigger mode: 0
Integration Time (sec): 1.500000E-2
Scans to average: 1
Electric dark correction enabled: true
Nonlinearity correction enabled: false
Boxcar width: 0
XAxis mode: Wavelengths
Number of Pixels in Spectrum: 3648
>>>>>Begin Spectral Data<<<<<
179.3399	-0
179.5586	-0
179.7771	-0
179.9957	0.9615
180.2143	-0.2123
180.4329	-0
180.6514	-0.4492
180.8699	-0.0685
181.0885	-0.1194
181.307	0.1496
181.5255	0.1968
181.744	-0
181.9625	-0.2339
182.181	1.2953
182.3994	-0
182.6179	0.746
182.8363	-0
183.0547	-0
183.2732	0.26
183.4916	0.3267
183.71	0.2397
183.9284	0.2585
184.1467	-0.0456
184.3651	0.3385
184.5835	0.1254
184.8018	0.2981
185.0201	0.1773
185.2385	0.2369
185.4568	0.5368
185.6751	0.3917
185.8934	0.3578
186.1117	-0.0012
186.3299	0.3436
186.5482	0.0746
186.7664	0.2589
186.9847	0.4142
187.2029	0.2878
187.4211	0.28
187.6393	0.2226
187.8575	1.1988
188.0757	-0
188.2939	0.1049
188.512	0.3783
188.7302	0.2159
188.9483	0.6587
189.1665	0.3917
189.3846	0.0898
189.6027	0.0684
189.8208	0.4355
190.0389	0.2471
190.257	0.1964
190.475	0.2032
190.6931	0.2026
190.9111	0.5238
191.1292	0.1836
191.3472	0.2015
191.5652	0.2264
191.7832	0.2704
192.0012	0.3056
192.2192	0.6484
192.4371	0.3289
192.6551	0.3416
192.873	0.3031
193.091	0.3671
193.3089	0.2226
193.5268	0.4987
193.7447	0.3045
193.9626	0.3943
194.1805	0.3842
194.3984	0.374
194.6162	0.4143
194.8341	0.5933
195.0519	0.4278
195.2697	0.556
195.4875	0.5549
195.7054	0.4568
195.9231	0.3903
196.1409	0.5604
196.3587	0.593
196.5765	0.5447
196.7942	0.7295
197.012	0.524
197.2297	0.4871
197.4474	0.6173
197.6651	0.6041
197.8828	0.6273
198.1005	0.7337
198.3182	0.6729
198.5358	0.6114
198.7535	0.5539
198.9711	0.5065
199.1888	0.5828
199.4064	0.5496
199.624	0.5497
199.8416	0.5581
200.0592	0.5774
200.2767	0.5969
200.4943	0.6306
200.7119	0.5619
200.9294	0.5808
201.1469	0.6276
201.3645	0.6231
201.582	0.5027
201.7995	0.6687
202.017	0.5968
202.2344	0.5757
202.4519	0.6178
202.6694	0.5361
202.8868	0.6043
203.1042	0.5568
203.3217	0.5171
203.5391	0.544
203.7565	0.4974
203.9739	0.4688
204.1913	0.5243
204.4086	0.5091
204.626	0.5187
204.8433	0.5079
205.0607	0.5267
205.278	0.5664
205.4953	0.487
205.7126	0.5117
205.9299	0.4576
206.1472	0.4967
206.3644	0.4757
206.5817	0.5014
206.7989	0.5081
207.0162	0.4281
207.2334	0.4403
207.4506	0.4168
207.6678	0.423
207.885	0.448
208.1022	0.426
208.3194	0.428
208.5365	0.4721
208.7537	0.4365
208.9708	0.4575
209.1879	0.3987
209.405	0.439
209.6222	0.4252
209.8392	0.396
210.0563	0.4285
210.2734	0.4091
210.4905	0.4164
210.7075	0.4297
210.9245	0.4219
211.1416	0.4036
211.3586	0.438
211.5756	0.4183
211.7926	0.4395
212.0096	0.4065
212.2265	0.4328
212.4435	0.4317
212.6604	0.4039
212.8774	0.4101
213.0943	0.4241
213.3112	0.425
213.5281	0.4133
213.745	0.3892
213.9619	0.4053
214.1788	0.4113
214.3956	0.4161
214.6125	0.4181
214.8293	0.4122
215.0461	0.4092
215.2629	0.4116
215.4798	0.3938
215.6965	0.3779
215.9133	0.4226
216.1301	0.4016
216.3469	0.4071
216.5636	0.4024
216.7803	0.4311
216.9971	0.422
217.2138	0.4154
217.4305	0.4147
217.6472	0.4242
217.8639	0.4023
218.0805	0.4116
218.2972	0.4112
218.5138	0.4329
218.7305	0.4147
218.9471	0.4221
219.1637	0.4207
219.3803	0.4241
219.5969	0.4323
219.8135	0.4391
220.0301	0.425
220.2466	0.4225
220.4632	0.4159
220.6797	0.4204
220.8962	0.4345
221.1127	0.4395
221.3292	0.4353
221.5457	0.4538
221.7622	0.4408
221.9787	0.4473
222.1951	0.45
222.4116	0.4384
222.628	0.4371
222.8444	0.4475
223.0608	0.4492
223.2772	0.4297
223.4936	0.4392
223.71	0.4453
223.9264	0.4541
224.1427	0.4512
224.3591	0.4605
224.5754	0.4759
224.7917	0.4703
225.008	0.4524
225.2243	0.4747
225.4406	0.4664
225.6569	0.454
225.8732	0.4711
226.0894	0.4766
226.3057	0.4687
226.5219	0.4654
226.7381	0.4729
226.9543	0.4858
227.1705	0.4638
227.3867	0.4983
227.6029	0.4737
227.8191	0.4805
228.0352	0.4914
228.2513	0.4968
228.4675	0.4867
228.6836	0.496
228.8997	0.4956
229.1158	0.5157
229.3319	0.4942
229.548	0.4781
229.764	0.4972
229.9801	0.4989
230.1961	0.503
230.4121	0.5049
230.6282	0.5076
230.8442	0.5171
231.0602	0.5126
231.2761	0.5191
231.4921	0.5231
231.7081	0.5223
231.924	0.5159
232.14	0.5243
232.3559	0.5301
232.5718	0.528
232.7877	0.523
233.0036	0.5244
233.2195	0.5142
233.4353	0.5224
233.6512	0.5407
233.867	0.5343
234.0829	0.5406
234.2987	0.5365
234.5145	0.5388
234.7303	0.5381
234.9461	0.5235
235.1619	0.5231
235.3776	0.5295
235.5934	0.5347
235.8091	0.5398
236.0249	0.5257
236.2406	0.5392
236.4563	0.5399
236.672	0.5386
236.8877	0.5348
237.1034	0.5355
237.319	0.5387
237.5347	0.53
237.7503	0.538
237.966	0.5256
238.1816	0.5351
238.3972	0.5412
238.6128	0.5433
238.8284	0.5343
239.0439	0.5384
239.2595	0.5377
239.475	0.5335
239.6906	0.5275
239.9061	0.521
240.1216	0.5337
240.3371	0.5277
240.5526	0.5268
240.7681	0.5371
240.9836	0.5137
241.199	0.5087
241.4145	0.5045
241.6299	0.4993
241.8453	0.4884
242.0607	0.4931
242.2761	0.4796
242.4915	0.473
242.7069	0.4653
242.9223	0.4637
243.1376	0.4441
243.353	0.4518
243.5683	0.4354
243.7836	0.4225
243.9989	0.4224
244.2142	0.4194
244.4295	0.4033
244.6448	0.3973
244.86	0.3997
245.0753	0.3799
245.2905	0.3776
245.5057	0.3725
245.721	0.3586
245.9362	0.3534
246.1514	0.3441
246.3665	0.341
246.5817	0.3342
246.7969	0.3271
247.012	0.3174
247.2271	0.3097
247.4423	0.3092
247.6574	0.3078
247.8725	0.3001
248.0876	0.2925
248.3026	0.2878
248.5177	0.2807
248.7328	0.2837
248.9478	0.2716
249.1628	0.2687
249.3779	0.263
249.5929	0.2543
249.8079	0.2532
250.0228	0.2493
250.2378	0.246
250.4528	0.2505
250.6677	0.243
250.8827	0.2387
251.0976	0.2418
251.3125	0.2381
251.5274	0.2309
251.7423	0.2262
251.9572	0.2269
252.172	0.2207
252.3869	0.2152
252.6017	0.2178
252.8166	0.2159
253.0314	0.2206
253.2462	0.225
253.461	0.2155
253.6758	0.2125
253.8906	0.2053
254.1053	0.2015
254.3201	0.2047
254.5348	0.2028
254.7496	0.2077
254.9643	0.2042
255.179	0.1998
255.3937	0.1974
255.6083	0.1978
255.823	0.1974
256.0377	0.1953
256.2523	0.1988
256.467	0.1937
256.6816	0.196
256.8962	0.1955
257.1108	0.1843
257.3254	0.191
257.54	0.1897
257.7545	0.1889
257.9691	0.1806
258.1836	0.1897
258.3981	0.1864
258.6127	0.1832
258.8272	0.1886
259.0417	0.1781
259.2561	0.1854
259.4706	0.1932
259.6851	0.1849
259.8995	0.1816
260.114	0.1805
260.3284	0.1882
260.5428	0.1843
260.7572	0.1857
260.9716	0.1859
261.186	0.1808
261.4003	0.1831
261.6147	0.1827
261.829	0.181
262.0433	0.1775
262.2577	0.1931
262.472	0.1868
262.6863	0.1815
262.9005	0.1843
263.1148	0.1836
263.3291	0.1864
263.5433	0.1891
263.7576	0.1844
263.9718	0.1892
264.186	0.1846
264.4002	0.1816
264.6144	0.1871
264.8286	0.1824
265.0427	0.1859
265.2569	0.1885
265.471	0.1846
265.6851	0.1847
265.8993	0.1883
266.1134	0.1842
266.3275	0.1893
266.5415	0.1785
266.7556	0.1771
266.9697	0.1853
267.1837	0.1888
267.3978	0.1942
267.6118	0.1856
267.8258	0.1819
268.0398	0.1816
268.2538	0.1818
268.4677	0.1835
268.6817	0.1778
268.8957	0.1794
269.1096	0.1756
269.3235	0.1922
269.5374	0.1746
269.7514	0.1776
269.9652	0.1851
270.1791	0.18
270.393	0.1814
270.6068	0.1703
270.8207	0.1774
271.0345	0.1785
271.2483	0.1704
271.4622	0.1731
271.676	0.1708
271.8897	0.1695
272.1035	0.1762
272.3173	0.1744
272.531	0.1736
272.7448	0.1707
272.9585	0.1762
273.1722	0.1749
273.3859	0.1659
273.5996	0.1731
273.8133	0.1695
274.0269	0.1716
274.2406	0.175
274.4542	0.1633
274.6679	0.163
274.8815	0.1743
275.0951	0.1749
275.3087	0.1772
275.5223	0.1681
275.7358	0.1743
275.9494	0.1658
276.1629	0.1736
276.3765	0.1711
276.59	0.1687
276.8035	0.1772
277.017	0.1759
277.2305	0.1776
277.444	0.1775
277.6574	0.1753
277.8709	0.1761
278.0843	0.1775
278.2978	0.1741
278.5112	0.1812
278.7246	0.1821
278.938	0.1801
279.1513	0.1811
279.3647	0.1812
279.5781	0.1798
279.7914	0.1865
280.0047	0.1774
280.2181	0.1847
280.4314	0.1732
280.6447	0.185
280.8579	0.1782
281.0712	0.1839
281.2845	0.1844
281.4977	0.1812
281.711	0.181
281.9242	0.185
282.1374	0.1836
282.3506	0.1928
282.5638	0.1811
282.7769	0.1881
282.9901	0.1814
283.2033	0.1867
283.4164	0.184
283.6295	0.185
283.8426	0.1917
284.0557	0.1842
284.2688	0.1928
284.4819	0.193
284.695	0.1908
284.908	0.1967
285.1211	0.1916
285.3341	0.196
285.5471	0.1957
285.7601	0.1919
285.9731	0.194
286.1861	0.1876
286.3991	0.1931
286.612	0.1912
286.825	0.193
287.0379	0.1954
287.2508	0.1922
287.4637	0.1939
287.6766	0.1972
287.8895	0.191
288.1024	0.2006
288.3152	0.194
288.5281	0.1966
288.7409	0.1967
288.9538	0.1972
289.1666	0.1992
289.3794	0.2015
289.5922	0.1998
289.8049	0.1989
290.0177	0.1983
290.2304	0.2015
290.4432	0.2041
290.6559	0.1942
290.8686	0.2041
291.0813	0.2021
291.294	0.2054
291.5067	0.2034
291.7194	0.1939
291.932	0.2023
292.1447	0.204
292.3573	0.1995
292.5699	0.2001
292.7825	0.2011
292.9951	0.1962
293.2077	0.1968
293.4203	0.2009
293.6328	0.1941
293.8454	0.2048
294.0579	0.2076
294.2704	0.2028
294.4829	0.1955
294.6954	0.1969
294.9079	0.201
295.1204	0.1988
295.3328	0.2004
295.5453	0.1975
295.7577	0.1975
295.9701	0.1967
296.1825	0.2009
296.3949	0.204
296.6073	0.2019
296.8197	0.2023
297.0321	0.201
297.2444	0.1989
297.4567	0.2017
297.6691	0.2043
297.8814	0.2058
298.0937	0.1977
298.306	0.1948
298.5182	0.1978
298.7305	0.1953
298.9428	0.1919
299.155	0.1983
299.3672	0.2001
299.5794	0.1969
299.7916	0.1986
300.0038	0.1927
300.216	0.1986
300.4282	0.1894
300.6403	0.1973
300.8525	0.203
301.0646	0.1949
301.2767	0.1949
301.4888	0.199
301.7009	0.1995
301.913	0.2057
302.125	0.1979
302.3371	0.1977
302.5491	0.1977
302.7612	0.1951
302.9732	0.1975
303.1852	0.1976
303.3972	0.1917
303.6092	0.1957
303.8211	0.1927
304.0331	0.1935
304.245	0.1941
304.457	0.197
304.6689	0.2
304.8808	0.1904
305.0927	0.1938
305.3046	0.1943
305.5164	0.1901
305.7283	0.1864
305.9401	0.1817
306.152	0.1864
306.3638	0.1765
306.5756	0.184
306.7874	0.1807
306.9992	0.1812
307.2109	0.1735
307.4227	0.1713
307.6344	0.1759
307.8462	0.1725
308.0579	0.1688
308.2696	0.1629
308.4813	0.1635
308.693	0.1625
308.9046	0.1649
309.1163	0.164
309.328	0.1604
309.5396	0.1578
309.7512	0.1517
309.9628	0.1555
310.1744	0.154
310.386	0.15
310.5976	0.1488
310.8091	0.1465
311.0207	0.1515
311.2322	0.1475
311.4437	0.1483
311.6552	0.1438
311.8667	0.1401
312.0782	0.1451
312.2897	0.1405
312.5012	0.1409
312.7126	0.1361
312.924	0.1372
313.1355	0.1267
313.3469	0.1305
313.5583	0.1288
313.7696	0.1276
313.981	0.1284
314.1924	0.1313
314.4037	0.1246
314.6151	0.1298
314.8264	0.1268
315.0377	0.1292
315.249	0.1212
315.4603	0.1229
315.6716	0.1269
315.8828	0.1267
316.0941	0.1253
316.3053	0.1197
316.5165	0.1171
316.7277	0.1197
316.9389	0.1237
317.1501	0.122
317.3613	0.1146
317.5724	0.1255
317.7836	0.1194
317.9947	0.1117
318.2058	0.1145
318.417	0.1136
318.6281	0.1203
318.8391	0.1168
319.0502	0.1101
319.2613	0.1165
319.4723	0.1151
319.6834	0.1201
319.8944	0.1171
320.1054	0.1161
320.3164	0.1192
320.5274	0.1129
320.7383	0.1163
320.9493	0.116
321.1602	0.1092
321.3712	0.1167
321.5821	0.1191
321.793	0.1144
322.0039	0.1139
322.2148	0.1156
322.4257	0.1208
322.6365	0.1203
322.8474	0.1157
323.0582	0.1127
323.269	0.113
323.4798	0.1155
323.6906	0.1196
323.9014	0.1126
324.1122	0.1173
324.3229	0.1162
324.5337	0.1172
324.7444	0.1119
324.9551	0.1232
325.1658	0.1224
325.3765	0.117
325.5872	0.1139
325.7979	0.1129
326.0085	0.1222
326.2192	0.1192
326.4298	0.1242
326.6404	0.1212
326.851	0.1179
327.0616	0.1266
327.2722	0.1258
327.4828	0.1158
327.6933	0.1179
327.9039	0.1188
328.1144	0.1195
328.3249	0.1232
328.5354	0.1251
328.7459	0.1186
328.9564	0.1254
329.1669	0.1222
329.3773	0.1198
329.5878	0.1206
329.7982	0.1236
330.0086	0.1186
330.219	0.1267
330.4294	0.1284
330.6398	0.1283
330.8502	0.1258
331.0605	0.1206
331.2708	0.1212
331.4812	0.1162
331.6915	0.1234
331.9018	0.1206
332.1121	0.129
332.3224	0.1236
332.5326	0.1255
332.7429	0.1232
332.9531	0.1269
333.1633	0.1275
333.3735	0.129
333.5837	0.128
333.7939	0.1272
334.0041	0.13
334.2143	0.1268
334.4244	0.1251
334.6346	0.1293
334.8447	0.1298
335.0548	0.1289
335.2649	0.1247
335.475	0.1273
335.685	0.1252
335.8951	0.1317
336.1051	0.1328
336.3152	0.1306
336.5252	0.1259
336.7352	0.1236
336.9452	0.1269
337.1552	0.1286
337.3652	0.1291
337.5751	0.1277
337.7851	0.1237
337.995	0.1276
338.2049	0.1336
338.4148	0.1285
338.6247	0.1315
338.8346	0.1271
339.0445	0.135
339.2543	0.1379
339.4642	0.1429
339.674	0.1363
339.8838	0.1281
340.0936	0.1347
340.3034	0.1348
340.5132	0.1382
340.7229	0.1337
340.9327	0.1392
341.1424	0.1358
341.3522	0.142
341.5619	0.1417
341.7716	0.1395
341.9813	0.1487
342.1909	0.1478
342.4006	0.1391
342.6102	0.1387
342.8199	0.1357
343.0295	0.1437
343.2391	0.1449
343.4487	0.1479
343.6583	0.1485
343.8679	0.146
344.0774	0.1418
344.287	0.147
344.4965	0.1482
344.706	0.148
344.9155	0.1441
345.125	0.1491
345.3345	0.1478
345.544	0.1481
345.7534	0.1534
345.9629	0.1501
346.1723	0.146
346.3817	0.1487
346.5911	0.1487
346.8005	0.1502
347.0099	0.1543
347.2193	0.1437
347.4286	0.1505
347.638	0.1501
347.8473	0.1603
348.0566	0.1608
348.2659	0.161
348.4752	0.1572
348.6845	0.1551
348.8937	0.163
349.103	0.1565
349.3122	0.1673
349.5214	0.1602
349.7306	0.1621
349.9398	0.1622
350.149	0.1712
350.3582	0.1592
350.5674	0.1729
350.7765	0.1654
350.9856	0.1636
351.1948	0.1608
351.4039	0.1663
351.613	0.1768
351.822	0.1707
352.0311	0.1679
352.2402	0.1715
352.4492	0.1699
352.6582	0.1642
352.8672	0.1752
353.0762	0.1759
353.2852	0.1711
353.4942	0.1718
353.7032	0.1675
353.9121	0.1713
354.1211	0.1718
354.33	0.1799
354.5389	0.1835
354.7478	0.1808
354.9567	0.1768
355.1655	0.1833
355.3744	0.1776
355.5833	0.1885
355.7921	0.1805
356.0009	0.1763
356.2097	0.1878
356.4185	0.1932
356.6273	0.1782
356.8361	0.1877
357.0448	0.1925
357.2536	0.192
357.4623	0.1925
357.671	0.1839
357.8797	0.1904
358.0884	0.1864
358.2971	0.1933
358.5057	0.1933
358.7144	0.2004
358.923	0.1893
359.1316	0.1932
359.3402	0.2058
359.5488	0.2025
359.7574	0.2046
359.966	0.2072
360.1746	0.1958
360.3831	0.2032
360.5916	0.2066
360.8002	0.2125
361.0087	0.2099
361.2172	0.2089
361.4256	0.1991
361.6341	0.2174
361.8426	0.2097
362.051	0.2156
362.2594	0.2075
362.4678	0.2157
362.6762	0.2241
362.8846	0.2178
363.093	0.2074
363.3014	0.2256
363.5097	0.216
363.718	0.234
363.9264	0.2175
364.1347	0.2301
364.343	0.2367
364.5513	0.2172
364.7595	0.2375
364.9678	0.235
365.176	0.2289
365.3842	0.2301
365.5925	0.2349
365.8007	0.2382
366.0089	0.2365
366.217	0.2472
366.4252	0.2412
366.6333	0.235
366.8415	0.2421
367.0496	0.2413
367.2577	0.2414
367.4658	0.2465
367.6739	0.2404
367.882	0.2482
368.09	0.2433
368.2981	0.2409
368.5061	0.2532
368.7141	0.2474
368.9221	0.2432
369.1301	0.2434
369.3381	0.2641
369.5461	0.2546
369.754	0.2503
369.962	0.2578
370.1699	0.2544
370.3778	0.261
370.5857	0.2664
370.7936	0.2605
371.0015	0.2576
371.2093	0.2657
371.4172	0.2657
371.625	0.2648
371.8328	0.2749
372.0406	0.2565
372.2484	0.2548
372.4562	0.2641
372.664	0.2759
372.8717	0.2721
373.0795	0.2808
373.2872	0.271
373.4949	0.2807
373.7026	0.2832
373.9103	0.2692
374.118	0.2661
374.3256	0.279
374.5333	0.2745
374.7409	0.2734
374.9485	0.271
375.1561	0.2743
375.3637	0.2694
375.5713	0.2821
375.7789	0.2794
375.9864	0.2772
376.194	0.2889
376.4015	0.2912
376.609	0.2895
376.8165	0.2794
377.024	0.2865
377.2315	0.2979
377.4389	0.2786
377.6464	0.2859
377.8538	0.2849
378.0612	0.2843
378.2686	0.2867
378.476	0.288
378.6834	0.2922
378.8908	0.2955
379.0981	0.2958
379.3055	0.2996
379.5128	0.2955
379.7201	0.2897
379.9274	0.2859
380.1347	0.2938
380.342	0.3058
380.5492	0.2981
380.7565	0.3083
380.9637	0.3013
381.1709	0.2935
381.3781	0.3072
381.5853	0.3089
381.7925	0.3063
381.9997	0.3046
382.2068	0.3051
382.4139	0.3074
382.6211	0.3101
382.8282	0.308
383.0353	0.3055
383.2424	0.3112
383.4494	0.3103
383.6565	0.3105
383.8635	0.3174
384.0706	0.3118
384.2776	0.3224
384.4846	0.3138
384.6916	0.3198
384.8986	0.3231
385.1055	0.3225
385.3125	0.3017
385.5194	0.3049
385.7263	0.3109
385.9333	0.3198
386.1402	0.3142
386.347	0.314
386.5539	0.3193
386.7608	0.3205
386.9676	0.3102
387.1744	0.3116
387.3813	0.3129
387.5881	0.3185
387.7948	0.3122
388.0016	0.3061
388.2084	0.3215
388.4151	0.3118
388.6219	0.3108
388.8286	0.3062
389.0353	0.3054
389.242	0.3058
389.4487	0.3119
389.6553	0.3198
389.862	0.31
390.0686	0.3154
390.2753	0.3083
390.4819	0.3088
390.6885	0.3047
390.8951	0.3104
391.1016	0.3049
391.3082	0.2986
391.5147	0.3007
391.7213	0.3009
391.9278	0.2947
392.1343	0.2999
392.3408	0.294
392.5473	0.2836
392.7537	0.299
392.9602	0.2878
393.1666	0.2934
393.373	0.2972
393.5794	0.2895
393.7858	0.2929
393.9922	0.292
394.1986	0.2864
394.4049	0.2822
394.6113	0.2868
394.8176	0.2724
395.0239	0.2767
395.2302	0.2757
395.4365	0.2737
395.6428	0.2828
395.8491	0.2836
396.0553	0.2822
396.2615	0.2773
396.4678	0.2718
396.674	0.2702
396.8802	0.2633
397.0863	0.2692
397.2925	0.2792
397.4987	0.2686
397.7048	0.2721
397.9109	0.2805
398.117	0.2637
398.3231	0.2717
398.5292	0.2814
398.7353	0.2607
398.9413	0.2719
399.1474	0.2751
399.3534	0.2681
399.5594	0.271
399.7654	0.262
399.9714	0.2684
400.1774	0.2637
400.3833	0.2757
400.5893	0.2763
400.7952	0.2748
401.0011	0.2663
401.207	0.2757
401.4129	0.263
401.6188	0.2638
401.8247	0.2711
402.0305	0.2609
402.2364	0.2759
402.4422	0.2681
402.648	0.2748
402.8538	0.2676
403.0596	0.2643
403.2654	0.2637
403.4711	0.2715
403.6768	0.2709
403.8826	0.2675
404.0883	0.2575
404.294	0.2732
404.4997	0.2706
404.7054	0.2687
404.911	0.2601
405.1167	0.2756
405.3223	0.2746
405.5279	0.2673
405.7335	0.2619
405.9391	0.2686
406.1447	0.2757
406.3502	0.2646
406.5558	0.2729
406.7613	0.2707
406.9668	0.2686
407.1724	0.28
407.3778	0.2625
407.5833	0.2664
407.7888	0.2736
407.9942	0.2713
408.1997	0.2655
408.4051	0.2587
408.6105	0.2741
408.8159	0.2691
409.0213	0.27
409.2267	0.2649
409.432	0.2668
409.6374	0.2702
409.8427	0.2693
410.048	0.2692
410.2533	0.2557
410.4586	0.2748
410.6639	0.264
410.8691	0.2762
411.0744	0.2716
411.2796	0.2717
411.4848	0.2655
411.69	0.2715
411.8952	0.2732
412.1004	0.2616
412.3056	0.2618
412.5107	0.269
412.7158	0.2654
412.921	0.2528
413.1261	0.2651
413.3312	0.2676
413.5362	0.2657
413.7413	0.2713
413.9464	0.2628
414.1514	0.2628
414.3564	0.2674
414.5614	0.2651
414.7664	0.2749
414.9714	0.2563
415.1764	0.2581
415.3813	0.2503
415.5863	0.2579
415.7912	0.2613
415.9961	0.2569
416.201	0.2712
416.4059	0.2487
416.6108	0.2653
416.8156	0.2483
417.0205	0.2615
417.2253	0.2665
417.4301	0.2603
417.6349	0.2596
417.8397	0.267
418.0445	0.2647
418.2492	0.2571
418.454	0.2503
418.6587	0.2642
418.8634	0.2541
419.0681	0.2494
419.2728	0.2513
419.4775	0.2604
419.6822	0.2498
419.8868	0.2539
420.0915	0.2524
420.2961	0.2501
420.5007	0.2517
420.7053	0.252
420.9099	0.2396
421.1144	0.2425
421.319	0.2363
421.5235	0.2424
421.728	0.25
421.9325	0.2487
422.137	0.254
422.3415	0.2378
422.546	0.2409
422.7504	0.2494
422.9549	0.236
423.1593	0.2481
423.3637	0.2262
423.5681	0.2458
423.7725	0.2445
423.9769	0.2385
424.1812	0.2384
424.3856	0.2378
424.5899	0.2368
424.7942	0.2255
424.9985	0.2399
425.2028	0.2267
425.4071	0.2173
425.6113	0.2282
425.8156	0.2245
426.0198	0.227
426.224	0.2304
426.4282	0.2238
426.6324	0.2258
426.8366	0.2315
427.0407	0.2177
427.2449	0.2149
427.449	0.2133
427.6531	0.2139
427.8572	0.2138
428.0613	0.2106
428.2654	0.2076
428.4694	0.2032
428.6735	0.211
428.8775	0.2104
429.0815	0.2073
429.2855	0.2037
429.4895	0.2025
429.6935	0.1938
429.8975	0.1963
430.1014	0.1963
430.3053	0.2031
430.5093	0.1978
430.7132	0.1928
430.9171	0.1851
431.1209	0.1873
431.3248	0.1916
431.5286	0.1846
431.7325	0.1846
431.9363	0.1913
432.1401	0.1835
432.3439	0.1876
432.5477	0.1827
432.7514	0.1713
432.9552	0.1704
433.1589	0.1729
433.3627	0.1768
433.5664	0.1707
433.7701	0.174
433.9737	0.169
434.1774	0.1675
434.3811	0.1664
434.5847	0.1681
434.7883	0.167
434.9919	0.1549
435.1955	0.1584
435.3991	0.1547
435.6027	0.1532
435.8062	0.1451
436.0098	0.1517
436.2133	0.1542
436.4168	0.1471
436.6203	0.1458
436.8238	0.1467
437.0272	0.1455
437.2307	0.1359
437.4341	0.1347
437.6375	0.1374
437.841	0.1348
438.0443	0.1374
438.2477	0.1331
438.4511	0.1451
438.6545	0.1294
438.8578	0.1276
439.0611	0.1325
439.2644	0.116
439.4677	0.119
439.671	0.1166
439.8743	0.1093
440.0775	0.1107
440.2808	0.1265
440.484	0.1045
440.6872	0.1038
440.8904	0.1086
441.0936	0.1191
441.2967	0.0974
441.4999	0.1097
441.703	0.1033
441.9062	0.1053
442.1093	0.0954
442.3124	0.0966
442.5155	0.0975
442.7185	0.0821
442.9216	0.0894
443.1246	0.0978
443.3276	0.0802
443.5307	0.0934
443.7337	0.0879
443.9366	0.083
444.1396	0.0824
444.3426	0.0847
444.5455	0.0779
444.7484	0.0732
444.9513	0.0713
445.1542	0.0779
445.3571	0.0684
445.56	0.0672
445.7628	0.0736
445.9657	0.0816
446.1685	0.0751
446.3713	0.067
446.5741	0.0542
446.7769	0.074
446.9797	0.0711
447.1824	0.0726
447.3852	0.0544
447.5879	0.0616
447.7906	0.0595
447.9933	0.0668
448.196	0.0581
448.3986	0.0527
448.6013	0.0527
448.8039	0.0493
449.0066	0.0612
449.2092	0.0446
449.4118	0.0539
449.6143	0.0505
449.8169	0.0521
450.0195	0.0468
450.222	0.0455
450.4245	0.0487
450.627	0.0435
450.8295	0.0474
451.032	0.0433
451.2345	0.0427
451.4369	0.0505
451.6394	0.0503
451.8418	0.0427
452.0442	0.0443
452.2466	0.0399
452.449	0.037
452.6513	0.0324
452.8537	0.0346
453.056	0.0393
453.2583	0.0382
453.4607	0.0284
453.663	0.0326
453.8652	0.0263
454.0675	0.0424
454.2697	0.0316
454.472	0.0325
454.6742	0.0267
454.8764	0.0388
455.0786	0.0321
455.2808	0.0294
455.4829	0.0279
455.6851	0.0164
455.8872	0.0311
456.0893	0.026
456.2915	0.0244
456.4935	0.0161
456.6956	0.0263
456.8977	0.0239
457.0997	0.0234
457.3018	0.0349
457.5038	0.0227
457.7058	0.0239
457.9078	0.0344
458.1098	0.022
458.3117	0.0321
458.5137	0.0279
458.7156	0.0249
458.9175	0.0201
459.1194	0.025
459.3213	0.0206
459.5232	0.0115
459.725	0.0192
459.9269	0.0149
460.1287	0.0174
460.3305	0.0101
460.5323	0.0166
460.7341	0.0104
460.9359	0.0212
461.1376	0.0233
461.3394	0.016
461.5411	0.0155
461.7428	0.0181
461.9445	0.0155
462.1462	0.0115
462.3479	0.0124
462.5495	0.0218
462.7512	0.0055
462.9528	0.0208
463.1544	0.0067
463.356	0.014
463.5576	0.0081
463.7592	0.005
463.9607	0.0194
464.1623	0.0117
464.3638	0.0122
464.5653	0.0068
464.7668	0.012
464.9683	0.0128
465.1697	0.0056
465.3712	0.0147
465.5726	0.0076
465.7741	0.0065
465.9755	0.0059
466.1769	0.0057
466.3782	0.0064
466.5796	0.0182
466.7809	0.0109
466.9823	0.0123
467.1836	0.0164
467.3849	0.0129
467.5862	-0.0011
467.7875	0.0176
467.9887	0.0056
468.19	0.009
468.3912	0.0111
468.5924	0.01
468.7936	-0.0033
468.9948	0.0251
469.196	0.0111
469.3972	0.0125
469.5983	0.0035
469.7994	0.0068
470.0006	0.0049
470.2017	0.0176
470.4027	-0.0072
470.6038	-0.0028
470.8049	-0.0001
471.0059	0.0058
471.2069	0.0057
471.408	0.0062
471.6089	0.0075
471.8099	0.0086
472.0109	0.0009
472.2119	0.0149
472.4128	0.0239
472.6137	0.0056
472.8146	0.0011
473.0155	0.0035
473.2164	-0.0057
473.4173	0.006
473.6181	0.0092
473.819	0.005
474.0198	0.0072
474.2206	0.005
474.4214	0.0104
474.6222	0.0115
474.8229	0.0089
475.0237	0.0008
475.2244	0.0113
475.4251	-0.0016
475.6258	0.0039
475.8265	0.0067
476.0272	0.0073
476.2278	0.0079
476.4285	0.0037
476.6291	0.0187
476.8297	-0.0005
477.0303	0.0122
477.2309	-0.0055
477.4315	0.0134
477.632	0.0021
477.8326	-0.0031
478.0331	-0.0014
478.2336	0.0115
478.4341	-0.003
478.6346	0.0066
478.8351	0.0031
479.0355	-0.003
479.236	-0.0009
479.4364	-0.0043
479.6368	-0.0002
479.8372	0.0082
480.0376	0.0004
480.2379	0.0081
480.4383	0.0061
480.6386	0.0047
480.8389	0.0035
481.0392	-0
481.2395	0.0103
481.4398	0.0038
481.6401	0.0047
481.8403	-0.0059
482.0405	-0.0066
482.2408	-0.0026
482.441	0.0068
482.6411	-0.0003
482.8413	-0.0096
483.0415	-0.0031
483.2416	0.0039
483.4417	0.0013
483.6419	0.008
483.8419	-0.0009
484.042	0.0032
484.2421	-0.0073
484.4422	0.003
484.6422	0.0062
484.8422	0.0015
485.0422	0.0046
485.2422	0.0022
485.4422	-0.0006
485.6422	0.0011
485.8421	-0.0004
486.042	0.0074
486.242	-0.0018
486.4419	0.0062
486.6417	0.0028
486.8416	0.0008
487.0415	0
487.2413	0.009
487.4411	0.0032
487.641	0.0071
487.8408	0.0043
488.0405	0.0019
488.2403	-0.0069
488.4401	0.0017
488.6398	0.0059
488.8395	0.0068
489.0392	0.0068
489.2389	-0.0004
489.4386	0.0003
489.6383	-0.0053
489.8379	0.0011
490.0376	0.0138
490.2372	-0.0058
490.4368	0.0112
490.6364	0.0111
490.836	-0.0011
491.0355	-0.0046
491.2351	0.0095
491.4346	0.0018
491.6341	0.0015
491.8336	-0
492.0331	-0.0001
492.2326	0.0012
492.432	0.0005
492.6315	0.0052
492.8309	0.0032
493.0303	-0.0096
493.2297	0.0027
493.4291	-0.0049
493.6284	0.0043
493.8278	0.0062
494.0271	0.0039
494.2264	0.0027
494.4257	0.0027
494.625	-0.0025
494.8243	0.0016
495.0236	0.0023
495.2228	0.0019
495.422	0.0102
495.6213	0.0066
495.8205	0.006
496.0196	0.0045
496.2188	0.0028
496.418	-0.0048
496.6171	0.0024
496.8162	-0.0003
497.0153	0.0019
497.2144	0.0035
497.4135	0.0136
497.6126	-0.0047
497.8116	0.0029
498.0107	0.0059
498.2097	0.0083
498.4087	0.0079
498.6077	0.0056
498.8067	0.0102
499.0056	0.0009
499.2046	0.0023
499.4035	0.004
499.6024	-0.0022
499.8013	-0.0069
500.0002	0.0119
500.199	0.005
500.3979	0.0064
500.5967	0.0016
500.7956	-0.0024
500.9944	0.0048
501.1932	0.0043
501.3919	0.0072
501.5907	0.0062
501.7895	-0.0072
501.9882	-0.0079
502.1869	0.003
502.3856	0.0028
502.5843	0.0015
502.783	-0.0038
502.9816	-0.0036
503.1803	0.012
503.3789	0.0065
503.5775	0.0056
503.7761	0.0006
503.9747	0.0007
504.1732	-0.0006
504.3718	-0.0064
504.5703	-0.0029
504.7689	-0.0053
504.9674	0.0015
505.1658	0.0015
505.3643	-0.0017
505.5628	0.007
505.7612	0.0002
505.9597	0.0018
506.1581	-0.0054
506.3565	-0.0097
506.5549	0.0022
506.7532	0.0061
506.9516	-0.0013
507.1499	0.0068
507.3482	0.0065
507.5465	-0.0057
507.7448	0.0059
507.9431	0.0006
508.1414	-0.0013
508.3396	0.0015
508.5379	0.0007
508.7361	0.005
508.9343	0.0032
509.1325	0.0053
509.3306	-0.002
509.5288	0.0116
509.7269	0.0023
509.9251	-0.0092
510.1232	-0.0052
510.3213	-0.01
510.5193	0.0069
510.7174	-0.0063
510.9154	0.0035
511.1135	-0.0013
511.3115	-0.0018
511.5095	0.0068
511.7075	0.0006
511.9055	0.0133
512.1034	0.0024
512.3014	0.0042
512.4993	0.0014
512.6972	-0.0041
512.8951	-0.0013
513.093	0.0022
513.2908	-0.0058
513.4887	0.006
513.6865	-0.0067
513.8844	0.0079
514.0822	0.0056
514.2799	-0.0034
514.4777	0.012
514.6755	0.0063
514.8732	0.0008
515.0709	0.0057
515.2687	-0.0023
515.4664	-0.0102
515.664	0.002
515.8617	0.0103
516.0594	0.0025
516.257	0.007
516.4546	-0.0056
516.6522	-0.0026
516.8498	0.0005
517.0474	-0.0059
517.2449	-0.0008
517.4425	-0.0048
517.64	0.0085
517.8375	0.0129
518.035	-0.0016
518.2325	-0.0038
518.43	-0.0041
518.6274	-0.0017
518.8249	-0.002
519.0223	-0.0025
519.2197	-0.0018
519.4171	-0.0013
519.6145	-0.009
519.8118	0.007
520.0092	-0.0014
520.2065	-0.0026
520.4038	-0.0057
520.6011	0.003
520.7984	0.0068
520.9956	0.0034
521.1929	0.0035
521.3901	0.0004
521.5874	0.0023
521.7846	0.002
521.9818	-0.0001
522.1789	0.0184
522.3761	0.0024
522.5732	0.0097
522.7704	0.0103
522.9675	0.0069
523.1646	0.014
523.3617	0.0043
523.5587	-0.0041
523.7558	-0
523.9528	0.0042
524.1498	0.0015
524.3468	-0.0061
524.5438	0.0025
524.7408	-0.0087
524.9378	0.0043
525.1347	0.0126
525.3316	0.0189
525.5285	0.0027
525.7254	-0.0009
525.9223	0.0031
526.1192	-0.0076
526.316	-0.0057
526.5129	0.0108
526.7097	-0.0023
526.9065	-0.001
527.1033	0.0012
527.3	-0.0006
527.4968	-0.0118
527.6935	-0.0034
527.8903	0.0101
528.087	-0.0006
528.2837	0.0016
528.4804	0.0093
528.677	0.0124
528.8737	-0.0041
529.0703	0.0127
529.2669	-0.0005
529.4635	0.0151
529.6601	0.0069
529.8567	0.0019
530.0532	-0.0071
530.2498	0.0053
530.4463	0.0046
530.6428	-0.0047
530.8393	0.003
531.0358	-0.0004
531.2322	0.0061
531.4287	0.0064
531.6251	-0.0119
531.8215	0.0059
532.0179	-0.0019
532.2143	0.0064
532.4107	-0.0045
532.607	-0.0012
532.8034	0.0036
532.9997	-0.0002
533.196	0.019
533.3923	0.0075
533.5886	0.0059
533.7848	-0.0211
533.9811	-0.0014
534.1773	0.0013
534.3735	0.0122
534.5697	0.0051
534.7659	0.0071
534.9621	0.0081
535.1582	-0.0034
535.3544	0.0019
535.5505	0.0045
535.7466	0.0009
535.9427	-0.0012
536.1387	0.0021
536.3348	0.0118
536.5308	0.0128
536.7269	-0.0046
536.9229	0.0057
537.1189	0.0002
537.3148	-0.0046
537.5108	0.0057
537.7068	-0.0006
537.9027	-0.0006
538.0986	-0.0026
538.2945	-0.0005
538.4904	-0.0018
538.6863	0.0117
538.8821	-0.0001
539.078	-0.0016
539.2738	-0.0097
539.4696	0.006
539.6654	-0.0099
539.8611	0.0021
540.0569	0.0036
540.2526	0.0007
540.4484	-0.007
540.6441	-0.0042
540.8398	0.0031
541.0355	0.0044
541.2311	0.0005
541.4268	-0.0029
541.6224	0.007
541.818	-0.0023
542.0136	-0.0016
542.2092	0.0017
542.4048	0.0031
542.6003	-0.0013
542.7959	0.0061
542.9914	0.001
543.1869	-0.0001
543.3824	-0.0038
543.5779	0.0172
543.7734	-0.0005
543.9688	-0.003
544.1642	-0.0052
544.3596	-0.0055
544.555	0.0059
544.7504	0.0056
544.9458	0.0012
545.1411	0.0012
545.3365	-0.0013
545.5318	-0.0031
545.7271	0.018
545.9224	-0.0007
546.1177	0.007
546.3129	-0.0171
546.5081	-0.0067
546.7034	-0.0018
546.8986	-0.0004
547.0938	-0.0063
547.289	0.0042
547.4841	-0.002
547.6793	-0.0069
547.8744	-0.0012
548.0695	-0.0026
548.2646	-0.0088
548.4597	-0.0064
548.6548	0.0085
548.8498	0.0063
549.0448	0.0109
549.2399	-0.0035
549.4349	0.0168
549.6298	-0.0028
549.8248	-0.0084
550.0198	0.004
550.2147	0.0001
550.4096	0.0011
550.6045	-0.0057
550.7994	0.0032
550.9943	-0.002
551.1892	0.0017
551.384	0.0044
551.5788	0.0057
551.7737	-0.0128
551.9685	0.005
552.1632	0.002
552.358	-0.0008
552.5528	-0.0033
552.7475	-0.0066
552.9422	-0.0012
553.1369	0.002
553.3316	-0.0136
553.5263	-0.0034
553.7209	-0.0081
553.9156	0.0112
554.1102	0.0051
554.3048	0.0071
554.4994	0.0032
554.694	0.0058
554.8885	0.0013
555.0831	0.0046
555.2776	-0.008
555.4721	-0.0114
555.6666	0.007
555.8611	-0.0007
556.0555	0.0066
556.25	0.0034
556.4444	-0.0036
556.6388	0.0095
556.8332	-0.001
557.0276	0.0151
557.222	-0.0097
557.4163	0.0035
557.6107	-0.0013
557.805	-0.0119
557.9993	0.002
558.1936	0.016
558.3879	-0.0039
558.5821	-0.0102
558.7764	0.009
558.9706	-0.0014
559.1648	0.0052
559.359	0.011
559.5532	-0.0101
559.7473	0.0122
559.9415	-0.0018
560.1356	0.0032
560.3297	0.0046
560.5238	-0.0029
560.7179	-0.0026
560.9119	0.0118
561.106	0.0006
561.3	-0.0001
561.494	0.0046
561.688	-0.0021
561.882	-0.0108
562.076	0.0084
562.2699	0.0036
562.4639	0.006
562.6578	0.0067
562.8517	-0.0063
563.0456	-0.0037
563.2395	-0.005
563.4333	0.0021
563.6272	0.0029
563.821	0.0048
564.0148	0.0027
564.2086	0.008
564.4024	0.0006
564.5961	0.0096
564.7899	-0.0036
564.9836	0.003
565.1773	0.0031
565.371	-0.0006
565.5647	-0.0071
565.7584	-0.0012
565.952	-0.0075
566.1456	0.0087
566.3393	0.0147
566.5329	-0.0007
566.7264	-0.0008
566.92	0.0035
567.1136	0.0036
567.3071	0.0038
567.5006	-0.0084
567.6941	0.0092
567.8876	-0.0001
568.0811	0.0017
568.2745	-0.0072
568.468	0.0026
568.6614	0.004
568.8548	0.0015
569.0482	0.0015
569.2416	-0.0062
569.4349	0.0004
569.6283	0.0013
569.8216	0.0033
570.0149	0.0035
570.2082	0.001
570.4015	0.0056
570.5947	0.0015
570.788	-0.0044
570.9812	0.0006
571.1744	0.0015
571.3676	0.0009
571.5608	-0.0022
571.754	-0.0014
571.9471	0.0047
572.1402	0.0016
572.3333	0.0024
572.5264	0.0057
572.7195	0.007
572.9126	-0.0006
573.1057	0.0001
573.2987	0.0016
573.4917	0.0015
573.6847	0.0011
573.8777	0.0001
574.0707	-0.0003
574.2636	-0.0017
574.4566	-0.0004
574.6495	0.0077
574.8424	0.0006
575.0353	0.0022
575.2281	-0.0041
575.421	-0.0019
575.6138	-0.0061
575.8067	-0.001
575.9995	-0.001
576.1923	0.0016
576.385	-0.0016
576.5778	-0.0036
576.7706	0.0024
576.9633	0.0048
577.156	0.0017
577.3487	0.0012
577.5414	-0.0003
577.734	-0
577.9267	-0.0008
578.1193	-0.0011
578.3119	-0.0077
578.5045	-0.0023
578.6971	0.001
578.8897	-0.0033
579.0822	0.0023
579.2747	-0.0059
579.4673	-0.0019
579.6598	-0.001
579.8522	0.0032
580.0447	0.0017
580.2372	0.0021
580.4296	-0.0056
580.622	0.0024
580.8144	0.0015
581.0068	-0.0002
581.1992	0.001
581.3915	-0.0023
581.5839	0.0031
581.7762	0.0017
581.9685	0.0008
582.1608	0.003
582.353	-0.0016
582.5453	0.0008
582.7375	-0.0018
582.9298	0.0019
583.122	-0.0077
583.3142	0.0024
583.5063	-0.004
583.6985	0.0044
583.8906	0.0014
584.0827	0.0028
584.2749	-0.0018
584.4669	0.0014
584.659	0.0025
584.8511	0.0001
585.0431	0.0017
585.2352	-0.0013
585.4272	0.0011
585.6192	0.0013
585.8111	0.001
586.0031	-0.0021
586.195	-0.0009
586.387	0.0015
586.5789	0.0004
586.7708	-0.0013
586.9627	-0.0007
587.1545	0.0013
587.3464	0.0039
587.5382	-0.0015
587.73	0.0012
587.9218	0.0013
588.1136	-0.0011
588.3053	-0.0027
588.4971	0.0029
588.6888	-0.0021
588.8805	0.0081
589.0722	0.0009
589.2639	-0.005
589.4556	-0.0008
589.6472	0.0005
589.8389	0.0043
590.0305	0.0021
590.2221	0.0024
590.4137	-0.0024
590.6052	0.0051
590.7968	-0.0021
590.9883	0.0056
591.1798	-0.0065
591.3713	-0.0068
591.5628	-0.0033
591.7543	-0.0016
591.9458	0.0057
592.1372	-0.0056
592.3286	-0.0041
592.52	-0.0018
592.7114	-0.0029
592.9028	0.0011
593.0941	-0.0024
593.2855	0.0051
593.4768	0.0018
593.6681	-0.0008
593.8594	-0.0037
594.0506	0.0047
594.2419	-0.0047
594.4331	-0.0026
594.6244	0.0034
594.8156	0.0044
595.0067	0
595.1979	-0.0075
595.3891	-0.0041
595.5802	0.0005
595.7713	-0.0047
595.9624	0.003
596.1535	-0.0003
596.3446	0.0018
596.5357	-0.0052
596.7267	0.0043
596.9177	-0.0004
597.1087	-0.0018
597.2997	0.0049
597.4907	0.0027
597.6817	0.0041
597.8726	0.0039
598.0635	0.0007
598.2544	-0.0091
598.4453	-0.0014
598.6362	-0.0021
598.827	0.0042
599.0179	-0.0012
599.2087	-0.0023
599.3995	0.0054
599.5903	0.0024
599.7811	0.0003
599.9718	0.0001
600.1626	0.0012
600.3533	0.0013
600.544	0.0046
600.7347	-0.0015
600.9254	0.007
601.116	-0.0046
601.3067	0.0049
601.4973	0.009
601.6879	-0.0038
601.8785	-0.0015
602.0691	0.0059
602.2596	-0.0008
602.4502	-0.0012
602.6407	-0.0014
602.8312	0.0024
603.0217	0.005
603.2122	0.0042
603.4027	-0.0035
603.5931	-0.0004
603.7835	0.0014
603.9739	0.0003
604.1643	-0.0015
604.3547	0.0056
604.5451	0.0038
604.7354	-0.0062
604.9257	-0.0012
605.116	0.0017
605.3063	-0.0022
605.4966	0.0037
605.6869	-0.0004
605.8771	0.0049
606.0673	-0.0049
606.2575	-0.0016
606.4477	0.0072
606.6379	0.0016
606.8281	-0.0029
607.0182	0.0042
607.2083	-0.0009
607.3985	0.0048
607.5885	0.0049
607.7786	0.0093
607.9687	-0.0013
608.1587	-0.0013
608.3488	-0.0006
608.5388	0.0049
608.7288	-0.0082
608.9187	0.0077
609.1087	0.0005
609.2986	-0.0023
609.4886	0.0011
609.6785	0
609.8684	-0.0066
610.0582	0.0001
610.2481	-0.0002
610.4379	0.0067
610.6278	-0.0038
610.8176	-0.0065
611.0074	-0.003
611.1971	0.0039
611.3869	0.0034
611.5766	0.0011
611.7664	0.0033
611.9561	-0.005
612.1458	0.0062
612.3354	0.0005
612.5251	-0.0046
612.7147	0.0049
612.9044	-0.0065
613.094	-0.0002
613.2836	0
613.4731	-0.0002
613.6627	-0.0014
613.8522	-0.0051
614.0417	-0.0006
614.2313	-0.013
614.4207	0.0052
614.6102	0.0001
614.7997	-0.0002
614.9891	0.0007
615.1785	0.0017
615.3679	0.002
615.5573	-0.0045
615.7467	-0.0063
615.9361	0.0042
616.1254	-0.0026
616.3147	0.0036
616.504	0.0012
616.6933	-0.0064
616.8826	0.0077
617.0718	-0.0079
617.2611	-0.0092
617.4503	-0.0058
617.6395	0.0061
617.8287	0.0026
618.0179	-0.0053
618.207	-0.0087
618.3961	0.0028
618.5853	0.0028
618.7744	0.0016
618.9634	0.0034
619.1525	0.0001
619.3416	-0.0016
619.5306	-0.0038
619.7196	-0.0079
619.9086	0.0069
620.0976	0.0068
620.2866	0.005
620.4755	0.0087
620.6645	0.0027
620.8534	0.0023
621.0423	-0.0005
621.2312	-0.0062
621.42	-0.0037
621.6089	0.0043
621.7977	-0.0023
621.9865	0.0046
622.1753	0.0092
622.3641	-0.0074
622.5529	-0.0128
622.7416	-0.0062
622.9303	0.0013
623.1191	-0.0038
623.3078	-0.0038
623.4964	-0.0043
623.6851	0.0004
623.8737	0.0089
624.0624	0.0068
624.251	0.0123
624.4396	0.0017
624.6282	0.0089
624.8167	0.0087
625.0053	0.0052
625.1938	0.0067
625.3823	-0.0044
625.5708	-0.0081
625.7593	-0.0044
625.9477	-0.0085
626.1362	0.0008
626.3246	-0.0118
626.513	0.0017
626.7014	-0.0027
626.8898	0.0045
627.0781	-0.0022
627.2665	0.0159
627.4548	0.0013
627.6431	-0.0088
627.8314	0.0048
628.0197	0.0063
628.2079	0.0009
628.3962	0.0078
628.5844	-0.0045
628.7726	-0.0016
628.9608	0.0015
629.1489	-0.0026
629.3371	-0.0048
629.5252	0.0092
629.7134	0.0231
629.9015	-0.014
630.0895	0.014
630.2776	-0.006
630.4657	0.0121
630.6537	0.0022
630.8417	-0.0062
631.0297	0.0047
631.2177	0.01
631.4057	-0.0061
631.5936	-0.0096
631.7815	0.0051
631.9695	0.0054
632.1574	0.0043
632.3452	0.0045
632.5331	-0.004
632.7209	-0.0024
632.9088	-0.0057
633.0966	0.0154
633.2844	-0.0124
633.4722	0.011
633.6599	-0.0093
633.8477	0.0014
634.0354	0.0133
634.2231	0.0322
634.4108	-0.0006
634.5985	-0.0021
634.7861	0.0028
634.9738	0.0076
635.1614	0.0125
635.349	-0.0094
635.5366	-0.0105
635.7242	-0.0073
635.9117	0.0082
636.0993	-0.0048
636.2868	0.0008
636.4743	0.0153
636.6618	-0.0044
636.8492	-0.0005
637.0367	-0.0037
637.2241	0.0077
637.4115	-0.0001
637.5989	0.0021
637.7863	-0.016
637.9737	0.0133
638.161	0.0035
638.3484	0.0192
638.5357	0.0081
638.723	-0.0006
638.9103	-0.0009
639.0975	0.0094
639.2848	0.0118
639.472	0.0185
639.6592	0.0126
639.8464	0.0183
640.0336	0.0113
640.2208	-0.0005
640.4079	0.0088
640.595	0.0018
640.7821	0.0032
640.9692	0.0034
641.1563	-0.0115
641.3434	-0.0007
641.5304	0.0101
641.7174	0.0088
641.9044	0.0042
642.0914	-0.0041
642.2784	0.0128
642.4653	0.0064
642.6523	0.0074
642.8392	0.032
643.0261	0.0075
643.213	0.0117
643.3999	0.0126
643.5867	-0.0102
643.7735	-0.0103
643.9604	0.0048
644.1472	-0.0006
644.3339	-0.012
644.5207	-0.0139
644.7075	-0.0032
644.8942	0.005
645.0809	-0.019
645.2676	-0.0137
645.4543	-0.0057
645.6409	-0.0048
645.8276	0.0033
646.0142	-0.0092
646.2008	0.0154
646.3874	0.0201
646.574	-0.0165
646.7605	0.0105
646.9471	-0.008
647.1336	0.0063
647.3201	0.0244
647.5066	-0.0154
647.6931	0.0087
647.8795	0.018
648.0659	-0.0161
648.2524	0.0023
648.4388	0.0052
648.6252	-0.004
648.8115	0.0147
648.9979	0.0125
649.1842	-0.0192
649.3705	0.0032
649.5568	-0.015
649.7431	0.0041
649.9294	0.0025
650.1156	-0.0111
650.3018	0.0159
650.488	-0.0047
650.6742	0.0213
650.8604	-0.0026
651.0466	-0.0011
651.2327	-0.0166
651.4188	-0.0111
651.6049	0.0006
651.791	0.0112
651.9771	0.0016
652.1632	0.0053
652.3492	0.0089
652.5352	0.0037
652.7212	-0.0139
652.9072	0.0012
653.0932	0.003
653.2791	-0.0019
653.465	-0.0101
653.651	0.0154
653.8369	0.031
654.0227	-0.0078
654.2086	-0.0135
654.3944	-0.0154
654.5803	0.0026
654.7661	-0.0022
654.9519	-0.0031
655.1377	0.0001
655.3234	0.0001
655.5092	0.0001
655.6949	0.0001
655.8806	0.0001
656.0663	0.0001
656.2519	0.0001
656.4376	0.0001
656.6232	0.0001
656.8088	0.0001
656.9945	0.0001
657.18	0.0001
657.3656	0.0001
657.5511	0.0001
657.7367	0.0001
657.9222	0.0001
658.1077	0.0001
658.2932	0.0001
658.4786	0.0001
658.6641	0.0001
658.8495	0.0001
659.0349	0.0001
659.2203	0.0001
659.4057	0.0136
659.591	0.0869
659.7764	0.0022
659.9617	-0.0035
660.147	-0.008
660.3323	-0.0094
660.5176	0.0078
660.7028	0.0076
660.888	0.0013
661.0733	0.0137
661.2585	-0.0042
661.4436	-0.0028
661.6288	0.0027
661.8139	-0.0003
661.9991	-0.0021
662.1842	0.0149
662.3693	0.0058
662.5544	0.007
662.7394	0.0141
662.9245	-0.0034
663.1095	0.0102
663.2945	0.0016
663.4795	-0.0095
663.6644	0.0189
663.8494	0.0138
664.0343	-0.0052
664.2193	0.0045
664.4042	-0.0155
664.589	-0.0188
664.7739	-0.0011
664.9587	-0.0079
665.1436	-0.0207
665.3284	-0.0019
665.5132	0.0076
665.698	-0.0024
665.8827	-0.014
666.0675	-0.0092
666.2522	0.016
666.4369	-0.0115
666.6216	-0.0037
666.8063	-0.0137
666.9909	0.0051
667.1756	-0.0004
667.3602	0.0139
667.5448	-0.0065
667.7294	-0.0031
667.9139	0.0006
668.0985	-0.0166
668.283	0.0122
668.4675	-0.0096
668.652	-0.0158
668.8365	0.0016
669.0209	-0.0114
669.2054	0.0201
669.3898	-0.0049
669.5742	-0.0059
669.7586	0.008
669.943	-0.0267
670.1273	0.0043
670.3117	-0.0023
670.496	0.017
670.6803	0.0142
670.8646	0.0151
671.0488	-0.0098
671.2331	-0.002
671.4173	0.0132
671.6015	0.0075
671.7857	-0.0174
671.9699	0.0093
672.1541	0.0036
672.3382	0.0146
672.5223	-0.0042
672.7064	-0.0019
672.8905	0.0024
673.0746	0.0117
673.2587	0.0061
673.4427	0.0085
673.6267	-0.0134
673.8107	-0.0162
673.9947	-0.0043
674.1787	-0.0077
674.3626	-0.0024
674.5465	0.0055
674.7304	-0.0219
674.9143	0.0047
675.0982	-0.0214
675.2821	-0.0052
675.4659	0.0024
675.6497	0.0134
675.8335	0.0033
676.0173	0.0104
676.2011	-0.0276
676.3849	0.0019
676.5686	0.0122
676.7523	0.0269
676.936	-0.0187
677.1197	0.0156
677.3034	0.0081
677.487	-0.0122
677.6706	-0.0116
677.8542	0.0136
678.0378	-0.0001
678.2214	-0.0082
678.405	0.0088
678.5885	0.0011
678.772	-0.0109
678.9555	0.002
679.139	-0.0005
679.3225	-0.0109
679.5059	0.008
679.6894	-0.0149
679.8728	0.0075
680.0562	0.0063
680.2395	-0.011
680.4229	-0.0003
680.6062	-0.0097
680.7896	0.0312
680.9729	0.0156
681.1562	-0.0131
681.3394	-0.0033
681.5227	-0.0225
681.7059	-0.005
681.8891	-0.0025
682.0723	-0.011
682.2555	0.0152
682.4387	0.0389
682.6218	0.0084
682.805	0.014
682.9881	0.0124
683.1712	0.0111
683.3542	-0.0149
683.5373	-0.003
683.7203	0.0054
683.9034	-0.0027
684.0864	-0.0071
684.2694	0.0055
684.4523	0.0134
684.6353	0.0067
684.8182	0.0021
685.0011	-0.0127
685.184	-0.0001
685.3669	-0.0184
685.5498	0.0061
685.7326	0.0065
685.9154	-0.0125
686.0982	-0.0042
686.281	-0.0088
686.4638	0.0141
686.6465	0.0073
686.8293	-0.0054
687.012	-0.0005
687.1947	-0.0073
687.3774	-0.016
687.56	0.0031
687.7427	-0.0099
687.9253	0.0162
688.1079	0.0114
688.2905	-0.0133
688.4731	0.0311
688.6556	0.0028
688.8382	-0.0109
689.0207	0.0099
689.2032	-0.0222
689.3857	-0.0294
689.5681	-0.0083
689.7506	0.0201
689.933	-0.0017
690.1154	-0.016
690.2978	-0.021
690.4802	0.0049
690.6626	-0.0008
690.8449	-0.0236
691.0272	-0.0154
691.2095	0.0045
691.3918	-0.0042
691.5741	-0.009
691.7563	0.0114
691.9386	0.0011
692.1208	-0.0087
692.303	0.0058
692.4852	0.0103
692.6673	0.0021
692.8495	-0.0001
693.0316	-0.0083
693.2137	0.0388
693.3958	0.0165
693.5778	-0.0131
693.7599	-0.0161
693.9419	0.0104
694.1239	0.0053
694.3059	0.0027
694.4879	-0.0237
694.6699	0.0281
694.8518	-0.0023
695.0337	0.0071
695.2157	-0.0129
695.3975	-0.0065
695.5794	-0.0165
695.7613	0.0233
695.9431	-0.0085
696.1249	-0.0031
696.3067	0.0089
696.4885	-0.0075
696.6703	0.0105
696.852	-0.0046
697.0337	-0.0058
697.2154	0.003
697.3971	0.0104
697.5788	0.0174
697.7605	-0.001
697.9421	0.0054
698.1237	0.0126
698.3053	0.0058
698.4869	-0.0087
698.6685	0.0148
698.85	0.0034
699.0315	-0.0238
699.213	0.0197
699.3945	0.0121
699.576	0.0106
699.7575	-0.017
699.9389	0.0124
700.1203	0.0095
700.3017	-0.0264
700.4831	0.0051
700.6645	-0.0041
700.8458	0.0026
701.0271	-0.0043
701.2084	-0.0329
701.3897	0.0159
701.571	0.0108
701.7523	-0.0249
701.9335	0.0377
702.1147	0.0012
702.2959	0.0285
702.4771	-0.012
702.6583	-0.0184
702.8394	-0.0124
703.0205	0.0034
703.2016	0.001
703.3827	0.0227
703.5638	-0.0067
703.7449	-0.0093
703.9259	-0.0042
704.1069	0.0038
704.2879	0.0141
704.4689	0.0069
704.6499	-0.0187
704.8308	-0.0431
705.0117	-0.003
705.1927	0.0133
705.3735	0.0479
705.5544	0.0069
705.7353	0.0111
705.9161	0.0396
706.0969	-0.0045
706.2777	0.0128
706.4585	-0.0001
706.6393	-0.0039
706.82	-0.0124
707.0007	-0.0003
707.1815	0.009
707.3621	0.0115
707.5428	0.0151
707.7235	0.0063
707.9041	-0.0187
708.0847	0.0013
708.2653	0.0066
708.4459	-0.0076
708.6265	-0.0238
708.807	0.0122
708.9875	0.0032
709.168	0.0154
709.3485	-0.0033
709.529	0.0128
709.7095	-0.0087
709.8899	0.0201
710.0703	0.0058
710.2507	0.0018
710.4311	-0.0102
710.6115	-0.004
710.7918	-0.0143
710.9721	-0.0119
711.1524	-0.0049
711.3327	-0.0167
711.513	-0.0001
711.6932	-0.03
711.8735	-0.0224
712.0537	-0.0256
712.2339	-0.0112
712.4141	0.0077
712.5942	0.0035
712.7744	-0.0015
712.9545	-0.0034
713.1346	-0.0116
713.3147	0.0074
713.4947	-0.0109
713.6748	-0.0034
713.8548	0.0013
714.0348	0.0103
714.2148	-0.0131
714.3948	-0.0053
714.5748	-0.0165
714.7547	0.009
714.9346	0.0179
715.1145	-0.0117
715.2944	0.019
715.4743	-0.0046
715.6541	-0.0289
715.834	0.0198
716.0138	0.0235
716.1936	0.0149
716.3733	0.0085
716.5531	0.0074
716.7328	-0.0433
716.9126	-0.0182
717.0923	0.0242
717.2719	0.024
717.4516	-0.0221
717.6312	-0.0289
717.8109	0.0063
717.9905	0.001
718.1701	-0.0116
718.3496	0.009
718.5292	0.0093
718.7087	-0.0045
718.8882	0.0198
719.0677	-0.0181
719.2472	0.01
719.4267	-0.0178
719.6061	-0.0018
719.7856	0.0016
719.965	0.0182
720.1443	0.0095
720.3237	0.013
720.5031	0.0113
720.6824	-0.0047
720.8617	0.0025
721.041	-0.0016
721.2203	0.0347
721.3995	-0.0045
721.5788	0.0241
721.758	0.0122
721.9372	-0.005
722.1164	0.0281
722.2956	-0.0105
722.4747	0.0165
722.6538	-0.0075
722.8329	0.0037
723.012	0.0256
723.1911	0.017
723.3702	-0.0245
723.5492	-0.0188
723.7282	0.0016
723.9072	-0.0072
724.0862	-0.0092
724.2652	-0.0136
724.4441	-0.003
724.623	-0.011
724.8019	0.0106
724.9808	-0.0065
725.1597	-0.0074
725.3385	0.0119
725.5174	0.047
725.6962	0.0332
725.875	0.0057
726.0538	-0.004
726.2325	-0.0019
726.4112	0.0132
726.59	0.0121
726.7687	0.0162
726.9474	0.0015
727.126	-0.0079
727.3047	-0.0059
727.4833	0.0346
727.6619	0.0334
727.8405	-0.0036
728.0191	-0.0402
728.1976	-0.0251
728.3762	-0.0178
728.5547	0.0013
728.7332	0.0045
728.9116	-0.0379
729.0901	0.0252
729.2686	-0.011
729.447	-0.0167
729.6254	0.0162
729.8038	-0.0017
729.9821	-0.0101
730.1605	-0.019
730.3388	-0.0006
730.5171	-0.0118
730.6954	0.033
730.8737	0.0181
731.0519	-0.0122
731.2302	-0.0172
731.4084	0.0067
731.5866	-0.0004
731.7648	-0.0163
731.9429	-0.0167
732.1211	-0.0267
732.2992	-0.0072
732.4773	-0.0162
732.6554	-0.0032
732.8335	-0.0009
733.0115	-0.0205
733.1896	-0.0087
733.3676	-0.0043
733.5456	-0.0001
733.7235	0.0044
733.9015	-0.0017
734.0794	0.0037
734.2574	0.0183
734.4353	-0.0201
734.6131	0.0055
734.791	0.0223
734.9689	0.0179
735.1467	-0.0062
735.3245	-0.0015
735.5023	0.0167
735.68	-0.0006
735.8578	-0.0109
736.0355	0.0157
736.2132	0.0045
736.3909	-0.0012
736.5686	0.0051
736.7463	-0.0026
736.9239	0.0022
737.1015	-0.0041
737.2791	0.0019
737.4567	-0.0175
737.6343	-0.0058
737.8118	0.0073
737.9894	0.0056
738.1669	0.0049
738.3444	0.0166
738.5218	0.0333
738.6993	-0.0062
738.8767	-0.0073
739.0541	0.0104
739.2315	-0.0017
739.4089	-0.0007
739.5863	-0.0027
739.7636	0.0026
739.9409	-0.0012
740.1182	0.0058
740.2955	-0.0423
740.4728	0.0173
740.65	-0.0011
740.8272	-0.0356
741.0044	0.0112
741.1816	0.0218
741.3588	0.0149
741.5359	0.0309
741.7131	0.0182
741.8902	0.0073
742.0673	0.0391
742.2444	-0.0243
742.4214	-0.0033
742.5985	0.0129
742.7755	-0.0349
742.9525	0.01
743.1295	0.0029
743.3064	0.0027
743.4834	0.0009
743.6603	-0.0172
743.8372	0.0061
744.0141	0.0364
744.191	-0.0309
744.3678	0.0197
744.5446	0.0188
744.7215	0.0174
744.8982	0.0036
745.075	0.0227
745.2518	-0.0147
745.4285	-0.0252
745.6052	0.0262
745.7819	-0.0002
745.9586	0.0071
746.1353	-0.0448
746.3119	-0.017
746.4885	0.0035
746.6651	0.0017
746.8417	-0.0321
747.0183	0.0032
747.1948	0.0113
747.3714	0.0075
747.5479	-0.0331
747.7244	-0.0599
747.9008	0.0335
748.0773	0.0525
748.2537	0.0369
748.4301	0.024
748.6065	-0.0388
748.7829	0.0134
748.9593	-0.007
749.1356	-0.0141
749.3119	-0.0045
749.4882	-0.0125
749.6645	0.0327
749.8408	-0.0162
750.017	-0.0071
750.1933	0.0435
750.3695	0.0213
750.5457	-0.0082
750.7218	0.0199
750.898	-0.0198
751.0741	0.0099
751.2502	0.0005
751.4263	-0.0189
751.6024	0.0121
751.7784	-0.0393
751.9545	-0.0037
752.1305	0.0026
752.3065	0.0103
752.4825	-0.0138
752.6584	0.0027
752.8344	0.0087
753.0103	-0.023
753.1862	-0.0284
753.3621	-0.0008
753.5379	-0.0294
753.7138	-0.037
753.8896	0.0317
754.0654	0.0148
754.2412	0.0149
754.417	-0.0005
754.5927	-0.0202
754.7685	-0.0046
754.9442	-0.0128
755.1199	0.0039
755.2956	0.0132
755.4712	0.0046
755.6469	-0.0087
755.8225	0.0248
755.9981	-0.0271
756.1736	0.0193
756.3492	-0.019
756.5248	-0.0272
756.7003	0.0087
756.8758	-0.006
757.0513	-0.0114
757.2267	-0.0093
757.4022	-0.0003
757.5776	-0.0175
757.753	-0.0028
757.9284	0.0091
758.1038	-0.0009
758.2791	-0.0106
758.4545	-0.0247
758.6298	0.0044
758.8051	0.0012
758.9803	-0.0013
759.1556	-0.0069
759.3308	0.0047
759.506	0.0048
759.6812	-0.0171
759.8564	-0.0135
760.0316	0.0051
760.2067	-0.0172
760.3819	0.008
760.557	-0.0033
760.732	0.0081
760.9071	0.0042
761.0821	-0.0086
761.2572	0.0027
761.4322	-0.0086
761.6072	-0.0036
761.7821	0.0164
761.9571	-0.0072
762.132	-0.0207
762.3069	0.001
762.4818	-0.0029
762.6567	-0.0008
762.8316	0.0002
763.0064	-0.0449
763.1812	-0.0046
763.356	-0.012
763.5308	-0.014
763.7055	0.0015
763.8803	-0.0004
764.055	0.0041
764.2297	-0.0013
764.4044	0.0008
764.579	-0.004
764.7537	-0.0049
764.9283	-0.0123
765.1029	-0.0014
765.2775	-0.0129
765.4521	0.0112
765.6266	-0.0099
765.8011	0.0013
765.9756	0.0099
766.1501	0.0359
766.3246	-0.0132
766.4991	-0.0317
766.6735	0.0164
766.8479	-0.0088
767.0223	0.0166
767.1967	-0.0215
767.371	-0.0077
767.5454	0.0062
767.7197	0.0415
767.894	-0.0179
768.0683	-0.0123
768.2425	-0.016
768.4168	0.0335
768.591	0.0088
768.7652	-0.0001
768.9394	0.016
769.1135	-0.0114
769.2877	0.0003
769.4618	-0.0107
769.6359	-0.001
769.81	-0.0036
769.984	0.0063
770.1581	0.0215
770.3321	-0.0047
770.5061	0.0024
770.6801	0.0026
770.8541	0.0025
771.028	-0.0232
771.202	-0.0279
771.3759	-0.0069
771.5498	0.0043
771.7236	-0.0188
771.8975	-0.0286
772.0713	-0.0035
772.2451	-0.0031
772.4189	0.022
772.5927	-0.0117
772.7665	0.0384
772.9402	0.049
773.1139	-0.0007
773.2876	0.0288
773.4613	-0.0072
773.635	0.0262
773.8086	-0.009
773.9822	-0.0065
774.1558	-0.0103
774.3294	-0.012
774.503	0.011
774.6765	0.02
774.8501	0.0336
775.0236	-0.0216
775.1971	0.0273
775.3705	-0.0098
775.544	-0.0152
775.7174	0.0052
775.8908	0.0814
776.0642	-0.0062
776.2376	-0.0305
776.4109	0.0638
776.5843	-0.0306
776.7576	0.0084
776.9309	0.0448
777.1041	0.0312
777.2774	-0.0126
777.4506	-0.0176
777.6238	0.0109
777.797	-0.0077
777.9702	0.0476
778.1434	0.0036
778.3165	-0.0204
778.4896	-0.0305
778.6627	0.0498
778.8358	0.0058
779.0089	-0.0378
779.1819	0.0192
779.3549	0.0072
779.5279	-0.0054
779.7009	-0.0207
779.8739	-0.0096
780.0468	0.0359
780.2197	-0.001
780.3926	-0.0209
780.5655	-0.0348
780.7384	-0.0074
780.9112	-0.03
781.0841	0.0043
781.2569	0.0056
781.4297	0.013
781.6024	-0.0045
781.7752	0.0069
781.9479	-0.0063
782.1206	0.0041
782.2933	0.0103
782.466	-0.0211
782.6386	0.0207
782.8113	-0.0179
782.9839	0.0233
783.1565	0.0076
783.329	0.0312
783.5016	-0.0213
783.6741	0.017
783.8466	-0.0607
784.0191	-0.0159
784.1916	-0.0064
784.3641	-0.0456
784.5365	0.0439
784.7089	-0.0122
784.8813	0.0279
785.0537	-0.0299
785.2261	0.0013
785.3984	-0.0032
785.5707	0.0284
785.743	-0.0483
785.9153	0.0517
786.0876	-0.0478
786.2598	0.0439
786.432	-0.0243
786.6042	0.0602
786.7764	-0.0057
786.9486	0.0154
787.1207	0.0227
787.2928	-0.0052
787.4649	0.0036
787.637	0.0336
787.8091	-0.0234
787.9811	-0.0133
788.1532	0.0203
788.3252	-0.0305
788.4972	-0.0008
788.6691	0.0188
788.8411	0.0016
789.013	0.0004
789.1849	0.0105
789.3568	0.0052
789.5287	0.0051
789.7005	-0.0061
789.8723	-0.0023
790.0442	0.0018
790.2159	0.0672
790.3877	0.0215
790.5595	0.0334
790.7312	-0.0319
790.9029	0.0258
791.0746	0.0287
791.2463	-0.008
791.4179	-0.0367
791.5896	-0.0864
791.7612	-0.0624
791.9328	-0.0043
792.1044	-0.0016
792.2759	0.0225
792.4474	-0.0528
792.619	0.0343
792.7905	0.002
792.9619	0.018
793.1334	-0.0504
793.3048	0.0296
793.4762	-0.0136
793.6476	0.0051
793.819	-0.0379
793.9904	0.0337
794.1617	-0.0104
794.333	-0.0402
794.5043	0.0035
794.6756	0.0273
794.8469	-0.0114
795.0181	-0.0015
795.1893	-0.0092
795.3605	-0.0198
795.5317	0.0299
795.7029	0.0022
795.874	0.0122
796.0452	-0.0333
796.2163	0.067
796.3873	0.0301
796.5584	0.0797
796.7294	-0.0573
796.9005	0.0065
797.0715	-0.0134
797.2425	0.008
797.4134	-0.0362
797.5844	0.0184
797.7553	0.0352
797.9262	0.056
798.0971	-0.0484
798.2679	-0.0169
798.4388	-0.0427
798.6096	-0.0573
798.7804	0.026
798.9512	-0.0133
799.122	0.0491
799.2927	-0.0831
799.4635	0.1122
799.6342	0.0325
799.8049	0.0522
799.9755	-0.062
800.1462	0.0244
800.3168	0.0254
800.4874	-0.0129
800.658	0.035
800.8286	-0.0223
800.9991	0.0962
801.1696	-0.028
801.3402	-0.0558
801.5106	0.0377
801.6811	-0.0166
801.8516	-0.0573
802.022	-0.0824
802.1924	-0.0436
802.3628	-0.0146
802.5332	-0.0437
802.7035	0.0033
802.8739	0.0258
803.0442	0.0513
803.2145	-0.0339
803.3847	-0.0367
803.555	0.0251
803.7252	0.0322
803.8954	0.0842
804.0656	-0.0239
804.2358	-0.1143
804.4059	0.0767
804.5761	0.0283
804.7462	-0.0631
804.9163	-0.0844
805.0864	-0.083
805.2564	-0.0343
805.4264	-0.0215
805.5965	0.0735
805.7665	0.0749
805.9364	-0.0462
806.1064	0.0341
806.2763	0.0338
806.4462	-0.0332
806.6161	0.0312
806.786	-0.0024
806.9559	0.0318
807.1257	-0.0161
807.2955	0.0071
807.4653	-0.0793
807.6351	-0.103
807.8048	-0.0744
807.9746	-0.0181
808.1443	0.0473
808.314	0.0699
808.4837	-0.0215
808.6533	0.001
808.8229	0.0011
808.9926	0.0071
809.1622	-0.0201
809.3317	-0.0481
809.5013	0.0396
809.6708	0.0507
809.8403	0.0059
810.0098	0.2034
810.1793	0.0535
810.3488	0.0303
810.5182	-0.009
810.6876	0.1143
810.857	-0.0349
811.0264	-0.0187
811.1958	-0.0034
811.3651	-0.0541
811.5344	-0.0389
811.7037	-0.0304
811.873	0.0466
812.0422	-0.0213
812.2115	0.0157
812.3807	-0.0709
812.5499	0.0843
812.7191	0.1006
812.8882	-0.0335
813.0574	-0.1904
813.2265	-0.0125
813.3956	0.0276
813.5646	0.0066
813.7337	-0.1403
813.9027	0.0052
814.0718	-0.0336
814.2407	-0.126
814.4097	-0.0208
814.5787	0.0129
814.7476	-0.0047
814.9165	0.0589
815.0854	-0.0023
815.2543	-0.0703
815.4232	-0.0009
815.592	0.0946
815.7608	0.0942
815.9296	0.0895
816.0984	0.0543
816.2671	-0.0924
816.4359	0.0488
816.6046	0.2693
816.7733	-0.032
816.942	-0.0076
817.1106	-0.2164
817.2793	-0.0526
817.4479	-0.0462
817.6165	0.0416
817.785	0.0118
817.9536	-0.0208
818.1221	0.0234
818.2906	-0.0127
818.4591	-0.0494
818.6276	0.1107
818.7961	0.0224
818.9645	0.0791
819.1329	0.2951
819.3013	-0.0267
819.4697	-0.0221
819.638	-0.0112
819.8064	-0.1236
819.9747	0.0197
820.143	-0.0275
820.3113	-0.0214
820.4795	0.1972
820.6477	0.0784
820.816	0.0775
820.9842	-0.0541
821.1523	0.2093
821.3205	-0.0432
821.4886	0.0489
821.6567	0.0296
821.8248	0.0522
821.9929	0.0039
822.1609	-0.0434
822.329	0.1468
822.497	-0.1189
822.665	0.0449
822.833	-0.0316
823.0009	-0.1872
823.1688	-0.097
823.3367	-0.0836
823.5046	0.0667
823.6725	0.1676
823.8404	0.0573
824.0082	0.0421
824.176	-0.0169
824.3438	0.2974
824.5116	0.2371
824.6793	0.1864
824.847	0.3185
825.0147	0.0178
825.1824	-0.02
825.3501	0.065
825.5177	0.1049
825.6854	0.1772
825.853	0.0284
826.0206	0.0555
826.1881	-0.0504
826.3557	-0.0092
826.5232	-0.0211
826.6907	0.0831
826.8582	-0.0961
827.0257	-0.0334
827.1931	0.1069
827.3605	0.0197
827.528	0.1286
827.6953	0.0478
827.8627	-0.0414
828.03	-0.0255
828.1974	-0.1584
828.3647	0.0425
828.532	0.1021
828.6992	-0.1059
828.8665	0.3155
829.0337	0.0211
829.2009	-0.0225
829.3681	0.0112
829.5352	0.0815
829.7024	-0.077
829.8695	-0.063
830.0366	0.1234
830.2037	0.0113
830.3707	0.0602
830.5378	-0.0013
830.7048	-0.1769
830.8718	-0.002
831.0388	0.2619
831.2057	0.0094
831.3727	-0.0709
831.5396	-0.1821
831.7065	0.138
831.8734	-0.505
832.0402	0.1255
832.2071	-0.1241
832.3739	-0
832.5407	-0
832.7075	0.3176
832.8742	0.4821
833.041	0.035
833.2077	-0.0652
833.3744	0.229
833.541	-0.1729
833.7077	0.0424
833.8743	-0.0529
834.0409	0.0157
834.2075	0.1221
834.3741	0.1242
834.5407	-0.2251
834.7072	0.2817
834.8737	0.3014
835.0402	-0.505
835.2067	0.1398
835.3731	0.029
835.5395	-0.0771
835.706	1.9352
835.8723	0.0184
836.0387	0.2062
836.2051	-0.0677
836.3714	-0.2468
836.5377	0.2907
836.704	0.2712
836.8703	-0.1658
837.0365	0.2242
837.2027	-0.3471
837.3689	0.0759
837.5351	-0.3923
837.7013	0.19
837.8674	-0
838.0335	0.1563
838.1997	0.2597
838.3657	-0
838.5318	-0.0651
838.6978	-0
838.8639	0.0774
839.0299	0.3227
839.1958	-0.0514
839.3618	0.9455
839.5277	-0.1295
839.6937	-0.3889
839.8596	0.1828
840.0254	0.2008
840.1913	0.6241
840.3571	0.4447
840.523	0.0188
840.6888	-0.1376
840.8545	-0.1659
841.0203	-0.109
841.186	0.4936
841.3517	0.1645
841.5174	0.3631
841.6831	0.1919
841.8488	0.0841
842.0144	0.3481
842.18	-0.1825
842.3456	-0.0687
842.5112	-0.1113
842.6767	-0.0517
842.8422	-0
843.0077	0.3486
843.1732	0.4073
843.3387	-0
843.5042	-0.3607
843.6696	-0.4497
843.835	0.1411
844.0004	-0.0676
844.1657	-0
844.3311	-0.368
844.4964	-0
844.6617	-0.0846
844.827	0.1317
844.9923	0.148
845.1575	-0
845.3227	-0.0836
845.4879	0.4918
845.6531	-0.151
845.8183	0.202
845.9834	-0
846.1485	-0.368
846.3136	0.2065
846.4787	0.3027
846.6438	-0
846.8088	-0.9277
846.9738	-0
847.1388	0.0107
847.3038	-0.1518
847.4687	-0.4858
847.6337	0.2114
847.7986	0.6848
847.9635	0.9099
848.1284	0.7169
848.2932	0.2384
848.458	-0.0214
848.6228	-0
848.7876	0.3618
848.9524	-0
849.1172	-0.4065
849.2819	-0
849.4466	0.2334
849.6113	0.0363
849.7759	-0
849.9406	0.4349
850.1052	-0
850.2698	-0.3153
850.4344	0.1908
850.599	-0.2207
850.7635	0.2907
850.928	0.0344
851.0925	0.3955
851.257	0.0976
851.4215	-0.569
851.5859	0.474
851.7503	-0.152
851.9147	-0
852.0791	-0.3019
852.2434	0.1505
852.4078	-0
852.5721	-0
852.7364	0.1304
852.9007	-0
853.0649	0.6802
853.2291	-0.2334
853.3934	-0
853.5575	-0.2827
853.7217	0.0974
853.8859	0.9118
854.05	-1.2071
854.2141	-0
854.3782	-0
854.5423	-0.6602
854.7063	0.4908
854.8703	0.453
855.0343	2.0869
855.1983	0.7249
855.3623	0.1594
855.5262	-0
855.6901	0.8331
855.854	-0.3276
856.0179	-0
856.1818	-0.1474
856.3456	0.4105
856.5094	-0
856.6732	-0.2035
856.837	0.8892
857.0008	-0
857.1645	0.022
857.3282	0.3955
857.4919	-0.0506
857.6556	0.214
857.8192	-0.3541
857.9828	-0.3567
858.1465	0.4333
858.31	-1.3659
858.4736	-0.0222
858.6372	0.0153
858.8007	-1.2111
858.9642	-0
859.1277	-0.6838
859.2911	0.3177
859.4546	-0.2879
859.618	-0
859.7814	-0
859.9448	1.0175
860.1081	0.2261
860.2715	0.39
860.4348	1.135
860.5981	0.1696
860.7614	-0.0909
860.9246	-0.2264
861.0879	0.09
861.2511	0.2851
861.4143	-0
861.5774	0.3267
861.7406	-0.1939
861.9037	-0
862.0668	-0.4373
862.2299	-1.4205
862.393	-0
862.556	-0.6171
862.7191	0.6678
862.8821	-0.3562
863.0451	0.5939
863.208	-0.1381
863.371	-0
863.5339	-0.149
863.6968	-0.4113
863.8597	-0
864.0225	-0
864.1854	-0.0679
864.3482	-0
864.511	-0.2816
864.6737	0.488
864.8365	0.5949
864.9992	-0.5643
865.1619	0.0306
865.3246	-0.2657
865.4873	-0
865.65	-0.368
865.8126	0.1572
865.9752	0.1572
866.1378	-0.1643
866.3004	0.7481
866.4629	-0.0946
866.6254	0.0918
866.7879	-0.1015
866.9504	-0.4088
867.1129	0.5347
867.2753	0.0463
867.4377	0.8875
867.6001	0.3003
867.7625	-0.2275
867.9249	0.5225
868.0872	-0
868.2495	-0
868.4118	-0.3879
868.5741	-0.1474
868.7363	-0
868.8986	-0.1839
869.0608	0.192
869.223	0.416
869.3851	-0
869.5473	-1.5146
869.7094	-0
869.8715	0.3553
870.0336	0.2145
870.1957	-1.2179
870.3577	0.8304
870.5197	0.856
870.6817	-0
870.8437	1.1521
871.0057	-0
871.1676	0.4744
871.3295	0.4018
871.4914	-0.2789
871.6533	-0.118
871.8151	-0
871.977	0.2094
872.1388	-0.8016
872.3006	0.0489
872.4623	-0.7629
872.6241	-2.0427
872.7858	0.0323
872.9475	-0.7796
873.1092	0.6323
873.2709	-0
873.4325	-0
873.5941	-0.8419
873.7557	-0
873.9173	-0
874.0789	-0.2386
874.2404	-0
874.4019	0.3191
874.5634	1.7148
874.7249	-0.1127
874.8863	-0
875.0478	0.7833
875.2092	0.0255
875.3706	-0.311
875.5319	0.2098
875.6933	-0
875.8546	-0
876.0159	-0
876.1772	-0.4858
876.3385	-0.2987
876.4997	0.1886
876.6609	-0.5913
876.8221	0.4001
876.9833	-0.1801
877.1445	-0.0698
877.3056	-0
877.4667	-0
877.6278	-0
877.7889	0.393
877.9499	0.1886
878.111	0.161
878.272	-0.6896
878.433	0.9542
878.5939	-0
878.7549	-0
878.9158	-0.6947
879.0767	-0
879.2376	0.0404
879.3984	-0
879.5593	-0.1342
879.7201	0.4428
879.8809	-0.3265
880.0417	0.042
880.2024	0.1099
880.3632	-0.1239
880.5239	0.0309
880.6846	-0.4745
880.8452	1.1221
881.0059	-0
881.1665	0.4027
881.3271	-0
881.4877	0.7028
881.6483	-0
881.8088	-0.0253
881.9693	-0
882.1298	-0
882.2903	-0
