Data from D4ACN5uM480nmA_Absorbance_12-08-01-631.txt Node
Date: Fri Feb 21 12:08:01 GMT 2025
User: LASERRRRR
Spectrometer: FLMT03099
Trigger mode: 0
Integration Time (sec): 1.500000E-2
Scans to average: 1
Electric dark correction enabled: true
Nonlinearity correction enabled: false
Boxcar width: 0
XAxis mode: Wavelengths
Number of Pixels in Spectrum: 3648
>>>>>Begin Spectral Data<<<<<
179.3399	-0
179.5586	-0
179.7771	-0
179.9957	0.188
180.2143	-0.5422
180.4329	-0
180.6514	0.4771
180.8699	-0
181.0885	-0
181.307	0.2468
181.5255	0.1264
181.744	-0
181.9625	0.1057
182.181	-0
182.3994	-0
182.6179	-0
182.8363	-0.0411
183.0547	-0
183.2732	0.1901
183.4916	0.2798
183.71	0.4452
183.9284	0.2064
184.1467	0.3584
184.3651	0.0987
184.5835	0.0707
184.8018	0.0658
185.0201	0.081
185.2385	0.2264
185.4568	0.0733
185.6751	0.2486
185.8934	0.1355
186.1117	0.4698
186.3299	0.2831
186.5482	0.3174
186.7664	0.8623
186.9847	0.304
187.2029	0.0707
187.4211	0.1119
187.6393	0.186
187.8575	0.0644
188.0757	0.2571
188.2939	0.1696
188.512	0.3741
188.7302	0.1986
188.9483	0.105
189.1665	0.6364
189.3846	0.1866
189.6027	0.3506
189.8208	0.3185
190.0389	0.3013
190.257	0.1942
190.475	0.1748
190.6931	0.4771
190.9111	0.5285
191.1292	0.4231
191.3472	0.1464
191.5652	0.5299
191.7832	0.3735
192.0012	0.3601
192.2192	0.4235
192.4371	0.4138
192.6551	0.356
192.873	0.4925
193.091	0.335
193.3089	0.3219
193.5268	1.0543
193.7447	0.4048
193.9626	0.5239
194.1805	0.4228
194.3984	0.4037
194.6162	0.5349
194.8341	0.7426
195.0519	0.441
195.2697	0.5327
195.4875	0.5374
195.7054	0.484
195.9231	0.4841
196.1409	0.6239
196.3587	0.5346
196.5765	0.5661
196.7942	0.6418
197.012	0.5254
197.2297	0.5316
197.4474	0.5996
197.6651	0.524
197.8828	0.6792
198.1005	0.6953
198.3182	0.5423
198.5358	0.5614
198.7535	0.6123
198.9711	0.6113
199.1888	0.6105
199.4064	0.5253
199.624	0.6346
199.8416	0.6266
200.0592	0.6322
200.2767	0.5762
200.4943	0.6805
200.7119	0.5932
200.9294	0.5235
201.1469	0.6197
201.3645	0.6771
201.582	0.5438
201.7995	0.6049
202.017	0.5457
202.2344	0.5413
202.4519	0.5458
202.6694	0.5838
202.8868	0.6066
203.1042	0.5562
203.3217	0.5807
203.5391	0.5654
203.7565	0.5071
203.9739	0.5206
204.1913	0.5288
204.4086	0.5047
204.626	0.5309
204.8433	0.5203
205.0607	0.4872
205.278	0.532
205.4953	0.4774
205.7126	0.4914
205.9299	0.452
206.1472	0.4861
206.3644	0.5055
206.5817	0.4946
206.7989	0.4846
207.0162	0.4407
207.2334	0.4406
207.4506	0.4597
207.6678	0.441
207.885	0.4402
208.1022	0.4576
208.3194	0.4243
208.5365	0.4493
208.7537	0.4512
208.9708	0.4316
209.1879	0.4032
209.405	0.4438
209.6222	0.4036
209.8392	0.4091
210.0563	0.466
210.2734	0.4078
210.4905	0.4191
210.7075	0.4246
210.9245	0.4183
211.1416	0.3944
211.3586	0.4245
211.5756	0.4172
211.7926	0.4009
212.0096	0.4081
212.2265	0.4109
212.4435	0.4227
212.6604	0.4107
212.8774	0.4146
213.0943	0.4221
213.3112	0.4123
213.5281	0.4119
213.745	0.4204
213.9619	0.3831
214.1788	0.3853
214.3956	0.4136
214.6125	0.4058
214.8293	0.421
215.0461	0.4132
215.2629	0.4178
215.4798	0.4017
215.6965	0.4019
215.9133	0.4271
216.1301	0.4163
216.3469	0.4186
216.5636	0.4006
216.7803	0.425
216.9971	0.416
217.2138	0.4109
217.4305	0.422
217.6472	0.4244
217.8639	0.3977
218.0805	0.4161
218.2972	0.4303
218.5138	0.4213
218.7305	0.4093
218.9471	0.433
219.1637	0.4364
219.3803	0.4308
219.5969	0.4343
219.8135	0.42
220.0301	0.4249
220.2466	0.4403
220.4632	0.4362
220.6797	0.4351
220.8962	0.4488
221.1127	0.4231
221.3292	0.4302
221.5457	0.4222
221.7622	0.4277
221.9787	0.4469
222.1951	0.4467
222.4116	0.4336
222.628	0.444
222.8444	0.4443
223.0608	0.4383
223.2772	0.4489
223.4936	0.4455
223.71	0.4681
223.9264	0.4533
224.1427	0.4517
224.3591	0.4509
224.5754	0.4481
224.7917	0.4507
225.008	0.4619
225.2243	0.4795
225.4406	0.4512
225.6569	0.4479
225.8732	0.4677
226.0894	0.4645
226.3057	0.4628
226.5219	0.4644
226.7381	0.4644
226.9543	0.4761
227.1705	0.4704
227.3867	0.5007
227.6029	0.4681
227.8191	0.484
228.0352	0.5101
228.2513	0.5037
228.4675	0.4898
228.6836	0.4895
228.8997	0.4924
229.1158	0.4965
229.3319	0.4892
229.548	0.4962
229.764	0.4925
229.9801	0.5109
230.1961	0.5013
230.4121	0.5149
230.6282	0.5054
230.8442	0.5124
231.0602	0.508
231.2761	0.525
231.4921	0.5119
231.7081	0.5259
231.924	0.5158
232.14	0.5153
232.3559	0.5261
232.5718	0.5278
232.7877	0.5268
233.0036	0.5183
233.2195	0.5255
233.4353	0.5318
233.6512	0.5258
233.867	0.5521
234.0829	0.5432
234.2987	0.5178
234.5145	0.5346
234.7303	0.5342
234.9461	0.5403
235.1619	0.5367
235.3776	0.5197
235.5934	0.5288
235.8091	0.5352
236.0249	0.5343
236.2406	0.554
236.4563	0.5393
236.672	0.5323
236.8877	0.5357
237.1034	0.5375
237.319	0.5397
237.5347	0.5321
237.7503	0.5421
237.966	0.535
238.1816	0.5199
238.3972	0.5376
238.6128	0.5395
238.8284	0.5335
239.0439	0.5402
239.2595	0.5366
239.475	0.5277
239.6906	0.5296
239.9061	0.5293
240.1216	0.5312
240.3371	0.5329
240.5526	0.5097
240.7681	0.5256
240.9836	0.518
241.199	0.5229
241.4145	0.5033
241.6299	0.4894
241.8453	0.4895
242.0607	0.4858
242.2761	0.4815
242.4915	0.4745
242.7069	0.4687
242.9223	0.4618
243.1376	0.4559
243.353	0.4365
243.5683	0.4494
243.7836	0.4348
243.9989	0.414
244.2142	0.4162
244.4295	0.4071
244.6448	0.395
244.86	0.3917
245.0753	0.3835
245.2905	0.3703
245.5057	0.3701
245.721	0.3555
245.9362	0.3493
246.1514	0.3341
246.3665	0.3475
246.5817	0.3369
246.7969	0.3288
247.012	0.325
247.2271	0.3209
247.4423	0.3068
247.6574	0.3105
247.8725	0.3056
248.0876	0.29
248.3026	0.2824
248.5177	0.2852
248.7328	0.2825
248.9478	0.2689
249.1628	0.2693
249.3779	0.265
249.5929	0.256
249.8079	0.2501
250.0228	0.2498
250.2378	0.2511
250.4528	0.2518
250.6677	0.2382
250.8827	0.2418
251.0976	0.2381
251.3125	0.2359
251.5274	0.2272
251.7423	0.2341
251.9572	0.2232
252.172	0.2192
252.3869	0.2188
252.6017	0.2147
252.8166	0.2215
253.0314	0.2167
253.2462	0.2149
253.461	0.2148
253.6758	0.2074
253.8906	0.2134
254.1053	0.2152
254.3201	0.1989
254.5348	0.2011
254.7496	0.2017
254.9643	0.21
255.179	0.2047
255.3937	0.1971
255.6083	0.2015
255.823	0.1985
256.0377	0.1985
256.2523	0.2016
256.467	0.2014
256.6816	0.1954
256.8962	0.1977
257.1108	0.1922
257.3254	0.1989
257.54	0.1907
257.7545	0.1897
257.9691	0.1927
258.1836	0.1954
258.3981	0.1892
258.6127	0.1795
258.8272	0.1864
259.0417	0.1807
259.2561	0.1859
259.4706	0.1863
259.6851	0.186
259.8995	0.1836
260.114	0.1802
260.3284	0.188
260.5428	0.182
260.7572	0.1855
260.9716	0.1859
261.186	0.1818
261.4003	0.1882
261.6147	0.1802
261.829	0.1849
262.0433	0.1825
262.2577	0.1884
262.472	0.1854
262.6863	0.1906
262.9005	0.1902
263.1148	0.1814
263.3291	0.1851
263.5433	0.1874
263.7576	0.1793
263.9718	0.1832
264.186	0.1855
264.4002	0.1815
264.6144	0.1869
264.8286	0.1878
265.0427	0.1862
265.2569	0.1885
265.471	0.1864
265.6851	0.1797
265.8993	0.1898
266.1134	0.1844
266.3275	0.1885
266.5415	0.187
266.7556	0.1814
266.9697	0.1846
267.1837	0.187
267.3978	0.1954
267.6118	0.1826
267.8258	0.1849
268.0398	0.1802
268.2538	0.1848
268.4677	0.1808
268.6817	0.1733
268.8957	0.1857
269.1096	0.1809
269.3235	0.1886
269.5374	0.1793
269.7514	0.1815
269.9652	0.1814
270.1791	0.1766
270.393	0.1817
270.6068	0.1713
270.8207	0.173
271.0345	0.1735
271.2483	0.1741
271.4622	0.1776
271.676	0.175
271.8897	0.1718
272.1035	0.1733
272.3173	0.1737
272.531	0.1734
272.7448	0.1671
272.9585	0.1807
273.1722	0.1741
273.3859	0.1728
273.5996	0.1726
273.8133	0.1697
274.0269	0.1806
274.2406	0.1701
274.4542	0.1653
274.6679	0.1714
274.8815	0.1726
275.0951	0.172
275.3087	0.1707
275.5223	0.1671
275.7358	0.1838
275.9494	0.1771
276.1629	0.1731
276.3765	0.1716
276.59	0.176
276.8035	0.1738
277.017	0.1713
277.2305	0.1757
277.444	0.1753
277.6574	0.1775
277.8709	0.1755
278.0843	0.1739
278.2978	0.1794
278.5112	0.1822
278.7246	0.1787
278.938	0.1782
279.1513	0.1826
279.3647	0.1781
279.5781	0.1825
279.7914	0.1823
280.0047	0.1808
280.2181	0.1829
280.4314	0.1837
280.6447	0.1826
280.8579	0.1755
281.0712	0.1836
281.2845	0.1845
281.4977	0.1912
281.711	0.181
281.9242	0.1867
282.1374	0.1855
282.3506	0.1896
282.5638	0.1865
282.7769	0.1828
282.9901	0.1831
283.2033	0.1817
283.4164	0.1878
283.6295	0.1821
283.8426	0.1892
284.0557	0.1849
284.2688	0.1933
284.4819	0.1925
284.695	0.1963
284.908	0.1916
285.1211	0.1933
285.3341	0.1962
285.5471	0.1927
285.7601	0.191
285.9731	0.189
286.1861	0.192
286.3991	0.1913
286.612	0.1926
286.825	0.1961
287.0379	0.1946
287.2508	0.1894
287.4637	0.1935
287.6766	0.1961
287.8895	0.2003
288.1024	0.198
288.3152	0.1956
288.5281	0.1965
288.7409	0.1971
288.9538	0.1991
289.1666	0.2021
289.3794	0.1986
289.5922	0.1907
289.8049	0.204
290.0177	0.1963
290.2304	0.1986
290.4432	0.1978
290.6559	0.1942
290.8686	0.2024
291.0813	0.1972
291.294	0.2055
291.5067	0.2039
291.7194	0.1896
291.932	0.1971
292.1447	0.199
292.3573	0.1982
292.5699	0.204
292.7825	0.199
292.9951	0.2017
293.2077	0.2005
293.4203	0.1969
293.6328	0.1961
293.8454	0.1994
294.0579	0.2049
294.2704	0.1999
294.4829	0.1986
294.6954	0.1977
294.9079	0.2074
295.1204	0.194
295.3328	0.2007
295.5453	0.198
295.7577	0.1929
295.9701	0.1994
296.1825	0.1957
296.3949	0.2055
296.6073	0.1971
296.8197	0.2034
297.0321	0.2036
297.2444	0.2019
297.4567	0.1971
297.6691	0.2014
297.8814	0.196
298.0937	0.2002
298.306	0.1958
298.5182	0.2013
298.7305	0.1973
298.9428	0.1967
299.155	0.1956
299.3672	0.2038
299.5794	0.1931
299.7916	0.1984
300.0038	0.1932
300.216	0.2014
300.4282	0.1975
300.6403	0.1938
300.8525	0.2033
301.0646	0.1958
301.2767	0.194
301.4888	0.1943
301.7009	0.199
301.913	0.2015
302.125	0.1975
302.3371	0.2001
302.5491	0.2021
302.7612	0.1974
302.9732	0.1978
303.1852	0.1946
303.3972	0.2008
303.6092	0.191
303.8211	0.1848
304.0331	0.1944
304.245	0.1926
304.457	0.1993
304.6689	0.1928
304.8808	0.191
305.0927	0.1925
305.3046	0.1865
305.5164	0.1847
305.7283	0.185
305.9401	0.1796
306.152	0.1826
306.3638	0.1798
306.5756	0.1839
306.7874	0.1836
306.9992	0.1762
307.2109	0.1703
307.4227	0.1741
307.6344	0.1725
307.8462	0.1698
308.0579	0.1638
308.2696	0.1667
308.4813	0.1661
308.693	0.1717
308.9046	0.1631
309.1163	0.1633
309.328	0.153
309.5396	0.1572
309.7512	0.1576
309.9628	0.1547
310.1744	0.154
310.386	0.1452
310.5976	0.1454
310.8091	0.1436
311.0207	0.1475
311.2322	0.1479
311.4437	0.1481
311.6552	0.1402
311.8667	0.1346
312.0782	0.1393
312.2897	0.1393
312.5012	0.1407
312.7126	0.1345
312.924	0.1369
313.1355	0.1298
313.3469	0.1274
313.5583	0.1282
313.7696	0.1279
313.981	0.1299
314.1924	0.128
314.4037	0.1201
314.6151	0.1313
314.8264	0.1265
315.0377	0.1263
315.249	0.1221
315.4603	0.1242
315.6716	0.1232
315.8828	0.12
316.0941	0.1237
316.3053	0.1218
316.5165	0.121
316.7277	0.1209
316.9389	0.1199
317.1501	0.1146
317.3613	0.1182
317.5724	0.1186
317.7836	0.1203
317.9947	0.1146
318.2058	0.1189
318.417	0.1157
318.6281	0.1156
318.8391	0.1214
319.0502	0.118
319.2613	0.1165
319.4723	0.1194
319.6834	0.1223
319.8944	0.1201
320.1054	0.1155
320.3164	0.1156
320.5274	0.1119
320.7383	0.1098
320.9493	0.1148
321.1602	0.1168
321.3712	0.1175
321.5821	0.1248
321.793	0.1119
322.0039	0.1179
322.2148	0.1161
322.4257	0.1188
322.6365	0.119
322.8474	0.11
323.0582	0.1204
323.269	0.1088
323.4798	0.1186
323.6906	0.1175
323.9014	0.1139
324.1122	0.1137
324.3229	0.1189
324.5337	0.1211
324.7444	0.114
324.9551	0.1241
325.1658	0.1207
325.3765	0.1195
325.5872	0.1145
325.7979	0.1186
326.0085	0.1166
326.2192	0.1109
326.4298	0.1224
326.6404	0.1216
326.851	0.1207
327.0616	0.1228
327.2722	0.1266
327.4828	0.1176
327.6933	0.123
327.9039	0.1209
328.1144	0.1237
328.3249	0.1195
328.5354	0.1259
328.7459	0.126
328.9564	0.1281
329.1669	0.1237
329.3773	0.1208
329.5878	0.1234
329.7982	0.1221
330.0086	0.1225
330.219	0.1229
330.4294	0.1249
330.6398	0.131
330.8502	0.1238
331.0605	0.1199
331.2708	0.1206
331.4812	0.1278
331.6915	0.1195
331.9018	0.1226
332.1121	0.1263
332.3224	0.1309
332.5326	0.1263
332.7429	0.1226
332.9531	0.128
333.1633	0.1296
333.3735	0.1263
333.5837	0.1323
333.7939	0.1187
334.0041	0.1267
334.2143	0.1274
334.4244	0.1285
334.6346	0.1282
334.8447	0.1268
335.0548	0.1273
335.2649	0.1295
335.475	0.1295
335.685	0.1269
335.8951	0.1298
336.1051	0.1312
336.3152	0.1231
336.5252	0.13
336.7352	0.1216
336.9452	0.133
337.1552	0.1295
337.3652	0.1284
337.5751	0.1254
337.7851	0.1312
337.995	0.1311
338.2049	0.1324
338.4148	0.1262
338.6247	0.1386
338.8346	0.1339
339.0445	0.1303
339.2543	0.135
339.4642	0.1362
339.674	0.1376
339.8838	0.1305
340.0936	0.1383
340.3034	0.1322
340.5132	0.1294
340.7229	0.1293
340.9327	0.1391
341.1424	0.1385
341.3522	0.1404
341.5619	0.1408
341.7716	0.1344
341.9813	0.1444
342.1909	0.145
342.4006	0.1396
342.6102	0.1415
342.8199	0.1347
343.0295	0.142
343.2391	0.1419
343.4487	0.1475
343.6583	0.148
343.8679	0.143
344.0774	0.1416
344.287	0.1469
344.4965	0.1434
344.706	0.1442
344.9155	0.1415
345.125	0.1505
345.3345	0.1412
345.544	0.1504
345.7534	0.1473
345.9629	0.1534
346.1723	0.1512
346.3817	0.1427
346.5911	0.1528
346.8005	0.1451
347.0099	0.1512
347.2193	0.1494
347.4286	0.154
347.638	0.1589
347.8473	0.1555
348.0566	0.1592
348.2659	0.1585
348.4752	0.1538
348.6845	0.1625
348.8937	0.1546
349.103	0.1592
349.3122	0.1619
349.5214	0.1568
349.7306	0.1544
349.9398	0.1575
350.149	0.1591
350.3582	0.1587
350.5674	0.1656
350.7765	0.1642
350.9856	0.1697
351.1948	0.1629
351.4039	0.1654
351.613	0.1807
351.822	0.1704
352.0311	0.1619
352.2402	0.1704
352.4492	0.1677
352.6582	0.1717
352.8672	0.1697
353.0762	0.1739
353.2852	0.174
353.4942	0.1725
353.7032	0.1747
353.9121	0.1729
354.1211	0.1703
354.33	0.1827
354.5389	0.1894
354.7478	0.1857
354.9567	0.1726
355.1655	0.1772
355.3744	0.1774
355.5833	0.1859
355.7921	0.1804
356.0009	0.1813
356.2097	0.1897
356.4185	0.1841
356.6273	0.1886
356.8361	0.1908
357.0448	0.1865
357.2536	0.1904
357.4623	0.1885
357.671	0.1829
357.8797	0.2017
358.0884	0.1889
358.2971	0.186
358.5057	0.1977
358.7144	0.2022
358.923	0.1946
359.1316	0.1962
359.3402	0.1992
359.5488	0.1996
359.7574	0.2008
359.966	0.2025
360.1746	0.199
360.3831	0.2098
360.5916	0.2036
360.8002	0.2118
361.0087	0.2127
361.2172	0.2193
361.4256	0.194
361.6341	0.2099
361.8426	0.211
362.051	0.2175
362.2594	0.2168
362.4678	0.2147
362.6762	0.216
362.8846	0.2231
363.093	0.2184
363.3014	0.2191
363.5097	0.2165
363.718	0.2294
363.9264	0.2176
364.1347	0.2318
364.343	0.2241
364.5513	0.2289
364.7595	0.2293
364.9678	0.2347
365.176	0.2323
365.3842	0.2346
365.5925	0.2271
365.8007	0.2346
366.0089	0.2343
366.217	0.2448
366.4252	0.2389
366.6333	0.2412
366.8415	0.2353
367.0496	0.2365
367.2577	0.2487
367.4658	0.2528
367.6739	0.2398
367.882	0.2488
368.09	0.247
368.2981	0.2388
368.5061	0.2408
368.7141	0.2468
368.9221	0.2538
369.1301	0.2465
369.3381	0.2561
369.5461	0.2546
369.754	0.2545
369.962	0.2508
370.1699	0.2606
370.3778	0.2553
370.5857	0.2521
370.7936	0.259
371.0015	0.251
371.2093	0.2678
371.4172	0.2623
371.625	0.2641
371.8328	0.2636
372.0406	0.2627
372.2484	0.2549
372.4562	0.2733
372.664	0.2646
372.8717	0.2672
373.0795	0.2779
373.2872	0.269
373.4949	0.2729
373.7026	0.2769
373.9103	0.2611
374.118	0.2693
374.3256	0.2882
374.5333	0.2779
374.7409	0.273
374.9485	0.2831
375.1561	0.2807
375.3637	0.2797
375.5713	0.2781
375.7789	0.28
375.9864	0.2819
376.194	0.2827
376.4015	0.2909
376.609	0.2896
376.8165	0.3073
377.024	0.28
377.2315	0.297
377.4389	0.2751
377.6464	0.2833
377.8538	0.2873
378.0612	0.2853
378.2686	0.2863
378.476	0.2872
378.6834	0.2854
378.8908	0.2853
379.0981	0.3033
379.3055	0.3026
379.5128	0.2908
379.7201	0.2969
379.9274	0.2913
380.1347	0.2983
380.342	0.3062
380.5492	0.2937
380.7565	0.3002
380.9637	0.2968
381.1709	0.2999
381.3781	0.3077
381.5853	0.303
381.7925	0.308
381.9997	0.3067
382.2068	0.311
382.4139	0.3101
382.6211	0.3229
382.8282	0.3107
383.0353	0.3103
383.2424	0.3071
383.4494	0.3067
383.6565	0.3087
383.8635	0.3239
384.0706	0.3057
384.2776	0.3102
384.4846	0.3206
384.6916	0.3075
384.8986	0.3261
385.1055	0.3156
385.3125	0.3125
385.5194	0.3127
385.7263	0.3119
385.9333	0.313
386.1402	0.3189
386.347	0.3163
386.5539	0.3194
386.7608	0.3194
386.9676	0.3144
387.1744	0.3196
387.3813	0.3142
387.5881	0.3121
387.7948	0.3146
388.0016	0.3201
388.2084	0.3184
388.4151	0.3082
388.6219	0.3154
388.8286	0.3193
389.0353	0.3062
389.242	0.307
389.4487	0.3155
389.6553	0.3046
389.862	0.3133
390.0686	0.3116
390.2753	0.2931
390.4819	0.3183
390.6885	0.3043
390.8951	0.3193
391.1016	0.3117
391.3082	0.2867
391.5147	0.2991
391.7213	0.2976
391.9278	0.3089
392.1343	0.2959
392.3408	0.2979
392.5473	0.2983
392.7537	0.3006
392.9602	0.2839
393.1666	0.2933
393.373	0.2937
393.5794	0.2888
393.7858	0.2912
393.9922	0.2882
394.1986	0.2838
394.4049	0.2802
394.6113	0.2885
394.8176	0.2805
395.0239	0.2802
395.2302	0.277
395.4365	0.2745
395.6428	0.2734
395.8491	0.2738
396.0553	0.2685
396.2615	0.2729
396.4678	0.2727
396.674	0.2714
396.8802	0.2705
397.0863	0.2709
397.2925	0.2639
397.4987	0.2739
397.7048	0.2777
397.9109	0.2729
398.117	0.266
398.3231	0.2767
398.5292	0.2754
398.7353	0.2666
398.9413	0.2781
399.1474	0.2715
399.3534	0.2651
399.5594	0.2762
399.7654	0.2674
399.9714	0.2606
400.1774	0.263
400.3833	0.2739
400.5893	0.2618
400.7952	0.2709
401.0011	0.2674
401.207	0.2726
401.4129	0.2784
401.6188	0.2608
401.8247	0.2661
402.0305	0.2636
402.2364	0.2636
402.4422	0.2735
402.648	0.2692
402.8538	0.276
403.0596	0.2601
403.2654	0.2679
403.4711	0.2658
403.6768	0.2683
403.8826	0.2673
404.0883	0.2635
404.294	0.2651
404.4997	0.2683
404.7054	0.2711
404.911	0.2595
405.1167	0.2623
405.3223	0.2748
405.5279	0.2638
405.7335	0.2711
405.9391	0.2625
406.1447	0.273
406.3502	0.2726
406.5558	0.2761
406.7613	0.2705
406.9668	0.2675
407.1724	0.2722
407.3778	0.2689
407.5833	0.2666
407.7888	0.2695
407.9942	0.2618
408.1997	0.2692
408.4051	0.2671
408.6105	0.2702
408.8159	0.2693
409.0213	0.265
409.2267	0.2649
409.432	0.2598
409.6374	0.2693
409.8427	0.28
410.048	0.2649
410.2533	0.2535
410.4586	0.2702
410.6639	0.2678
410.8691	0.2845
411.0744	0.2655
411.2796	0.2669
411.4848	0.259
411.69	0.2646
411.8952	0.2603
412.1004	0.2614
412.3056	0.2604
412.5107	0.2753
412.7158	0.2651
412.921	0.2628
413.1261	0.2735
413.3312	0.2617
413.5362	0.2595
413.7413	0.27
413.9464	0.2553
414.1514	0.2602
414.3564	0.2586
414.5614	0.2629
414.7664	0.2552
414.9714	0.2634
415.1764	0.2579
415.3813	0.2535
415.5863	0.2629
415.7912	0.2665
415.9961	0.2654
416.201	0.2664
416.4059	0.2532
416.6108	0.2668
416.8156	0.2523
417.0205	0.2581
417.2253	0.2572
417.4301	0.2781
417.6349	0.2584
417.8397	0.2612
418.0445	0.2626
418.2492	0.2628
418.454	0.2563
418.6587	0.2646
418.8634	0.2618
419.0681	0.2602
419.2728	0.2549
419.4775	0.2529
419.6822	0.2417
419.8868	0.2474
420.0915	0.2537
420.2961	0.2478
420.5007	0.2458
420.7053	0.2451
420.9099	0.2266
421.1144	0.2495
421.319	0.2463
421.5235	0.2421
421.728	0.2472
421.9325	0.2424
422.137	0.2458
422.3415	0.2377
422.546	0.239
422.7504	0.2416
422.9549	0.2453
423.1593	0.2401
423.3637	0.2319
423.5681	0.249
423.7725	0.2367
423.9769	0.2378
424.1812	0.2465
424.3856	0.2367
424.5899	0.2397
424.7942	0.2289
424.9985	0.2345
425.2028	0.226
425.4071	0.2224
425.6113	0.2374
425.8156	0.2326
426.0198	0.2202
426.224	0.2213
426.4282	0.2304
426.6324	0.2173
426.8366	0.2204
427.0407	0.2207
427.2449	0.2089
427.449	0.2132
427.6531	0.2217
427.8572	0.2237
428.0613	0.2155
428.2654	0.214
428.4694	0.2068
428.6735	0.2079
428.8775	0.2137
429.0815	0.2075
429.2855	0.2086
429.4895	0.2018
429.6935	0.1901
429.8975	0.2047
430.1014	0.1985
430.3053	0.2038
430.5093	0.1996
430.7132	0.1939
430.9171	0.1901
431.1209	0.198
431.3248	0.1855
431.5286	0.1765
431.7325	0.1924
431.9363	0.1874
432.1401	0.1799
432.3439	0.1773
432.5477	0.1859
432.7514	0.1737
432.9552	0.1737
433.1589	0.1747
433.3627	0.1727
433.5664	0.1713
433.7701	0.174
433.9737	0.1608
434.1774	0.1765
434.3811	0.1578
434.5847	0.1756
434.7883	0.1653
434.9919	0.1474
435.1955	0.1638
435.3991	0.1551
435.6027	0.1476
435.8062	0.1541
436.0098	0.1577
436.2133	0.1553
436.4168	0.1515
436.6203	0.143
436.8238	0.1402
437.0272	0.1342
437.2307	0.1259
437.4341	0.1395
437.6375	0.1305
437.841	0.1301
438.0443	0.1295
438.2477	0.1282
438.4511	0.137
438.6545	0.1193
438.8578	0.1394
439.0611	0.1265
439.2644	0.1205
439.4677	0.1156
439.671	0.1197
439.8743	0.1215
440.0775	0.1179
440.2808	0.1239
440.484	0.1083
440.6872	0.1067
440.8904	0.1097
441.0936	0.1132
441.2967	0.0989
441.4999	0.1047
441.703	0.1089
441.9062	0.102
442.1093	0.096
442.3124	0.1009
442.5155	0.092
442.7185	0.0807
442.9216	0.0909
443.1246	0.0894
443.3276	0.0869
443.5307	0.0805
443.7337	0.0887
443.9366	0.0852
444.1396	0.0812
444.3426	0.0894
444.5455	0.077
444.7484	0.0726
444.9513	0.0775
445.1542	0.0805
445.3571	0.0699
445.56	0.0758
445.7628	0.0742
445.9657	0.0822
446.1685	0.0799
446.3713	0.062
446.5741	0.0581
446.7769	0.069
446.9797	0.0623
447.1824	0.0619
447.3852	0.0626
447.5879	0.0585
447.7906	0.0631
447.9933	0.0673
448.196	0.0501
448.3986	0.0539
448.6013	0.0583
448.8039	0.0574
449.0066	0.0567
449.2092	0.0456
449.4118	0.0613
449.6143	0.0517
449.8169	0.0504
450.0195	0.0484
450.222	0.0473
450.4245	0.05
450.627	0.0426
450.8295	0.0374
451.032	0.0459
451.2345	0.0426
451.4369	0.0396
451.6394	0.0424
451.8418	0.0392
452.0442	0.0422
452.2466	0.0371
452.449	0.0375
452.6513	0.0319
452.8537	0.0394
453.056	0.0527
453.2583	0.0344
453.4607	0.0348
453.663	0.0344
453.8652	0.0207
454.0675	0.0438
454.2697	0.0312
454.472	0.0353
454.6742	0.0182
454.8764	0.0264
455.0786	0.0211
455.2808	0.0341
455.4829	0.0278
455.6851	0.0225
455.8872	0.0334
456.0893	0.0314
456.2915	0.02
456.4935	0.0184
456.6956	0.0148
456.8977	0.0189
457.0997	0.0306
457.3018	0.0302
457.5038	0.0227
457.7058	0.0246
457.9078	0.0331
458.1098	0.0188
458.3117	0.0237
458.5137	0.0295
458.7156	0.0336
458.9175	0.021
459.1194	0.023
459.3213	0.0212
459.5232	0.0096
459.725	0.0285
459.9269	0.0169
460.1287	0.0116
460.3305	0.0144
460.5323	0.0172
460.7341	0.019
460.9359	0.0116
461.1376	0.021
461.3394	0.0156
461.5411	0.0214
461.7428	0.0251
461.9445	0.0082
462.1462	0.009
462.3479	0.0115
462.5495	0.0195
462.7512	0.0151
462.9528	0.012
463.1544	0.0109
463.356	0.0176
463.5576	0.0123
463.7592	0.0037
463.9607	0.0175
464.1623	0.0163
464.3638	0.0154
464.5653	0.0119
464.7668	0.0112
464.9683	0.0178
465.1697	0.0126
465.3712	0.0078
465.5726	0.015
465.7741	0.0076
465.9755	0.0133
466.1769	0.0121
466.3782	0.0051
466.5796	0.0056
466.7809	0.0227
466.9823	0.0109
467.1836	0.014
467.3849	0.0082
467.5862	-0.0011
467.7875	0.0081
467.9887	0.0101
468.19	0.0066
468.3912	0.0094
468.5924	0.0198
468.7936	0.0013
468.9948	0.0121
469.196	0.0071
469.3972	0.016
469.5983	0.0021
469.7994	0.0031
470.0006	0.0082
470.2017	0.0132
470.4027	0.005
470.6038	0.0058
470.8049	0.0019
471.0059	0.0114
471.2069	0.0127
471.408	-0.0018
471.6089	0.0141
471.8099	0.001
472.0109	0.0042
472.2119	0.0205
472.4128	0.0058
472.6137	0.0115
472.8146	0.0024
473.0155	0.0022
473.2164	0.0037
473.4173	0.0085
473.6181	0.0111
473.819	0.0016
474.0198	0.0071
474.2206	0.0114
474.4214	0.0172
474.6222	0.0098
474.8229	0.0091
475.0237	0.0024
475.2244	0.0102
475.4251	-0.0014
475.6258	0.0083
475.8265	-0.0004
476.0272	0.0028
476.2278	0.0048
476.4285	-0.0011
476.6291	0.0132
476.8297	-0.0034
477.0303	-0.0001
477.2309	-0.0008
477.4315	0.0151
477.632	0.0009
477.8326	0.0061
478.0331	0.0006
478.2336	0.0103
478.4341	-0.0026
478.6346	0.0028
478.8351	0.008
479.0355	0.003
479.236	0.0069
479.4364	0.0022
479.6368	-0.002
479.8372	0.0077
480.0376	-0.0011
480.2379	0.0024
480.4383	-0.0067
480.6386	0.0007
480.8389	0.0046
481.0392	0.0071
481.2395	0.0071
481.4398	0.0117
481.6401	0.0083
481.8403	-0
482.0405	0.0007
482.2408	0.0113
482.441	-0.0051
482.6411	0.0006
482.8413	-0.0023
483.0415	0.0128
483.2416	0.0043
483.4417	0.002
483.6419	0.0038
483.8419	0.001
484.042	0.0057
484.2421	-0.0017
484.4422	0.0046
484.6422	0.01
484.8422	0.0004
485.0422	0.0035
485.2422	0.0035
485.4422	-0.002
485.6422	0.002
485.8421	-0.0008
486.042	0.0029
486.242	0.0015
486.4419	-0.002
486.6417	0.0026
486.8416	0.0014
487.0415	0.0013
487.2413	0.0033
487.4411	0.0004
487.641	0.0044
487.8408	0.0016
488.0405	0.0036
488.2403	-0.0095
488.4401	0.0022
488.6398	0.0024
488.8395	0.0021
489.0392	0.0021
489.2389	0.0031
489.4386	0.0009
489.6383	-0.0011
489.8379	0.004
490.0376	0.0079
490.2372	-0.0039
490.4368	0.0132
490.6364	0.014
490.836	0.0004
491.0355	0.0024
491.2351	0.0088
491.4346	0.0071
491.6341	-0.0026
491.8336	0.0011
492.0331	0.0007
492.2326	0.0054
492.432	0.0026
492.6315	-0.0032
492.8309	0.0055
493.0303	-0.0041
493.2297	-0.0029
493.4291	-0.0063
493.6284	0.0064
493.8278	0.0094
494.0271	0.0005
494.2264	0.0053
494.4257	0.002
494.625	-0.0015
494.8243	0.0064
495.0236	0.0073
495.2228	-0.0014
495.422	0.0018
495.6213	-0.0003
495.8205	0.0081
496.0196	0.0013
496.2188	0.0022
496.418	-0.0066
496.6171	0.0037
496.8162	0.0057
497.0153	-0.0107
497.2144	0.005
497.4135	0.0005
497.6126	-0.0148
497.8116	0.0047
498.0107	0.0019
498.2097	0.0094
498.4087	0.0037
498.6077	0.0116
498.8067	0.0099
499.0056	-0.0022
499.2046	0.0059
499.4035	0.0113
499.6024	-0.0076
499.8013	0.0033
500.0002	-0.003
500.199	0.0115
500.3979	0.0087
500.5967	-0.0017
500.7956	-0.0016
500.9944	0.0038
501.1932	0.0122
501.3919	0.0038
501.5907	0.0026
501.7895	-0.0053
501.9882	-0.0014
502.1869	0.0029
502.3856	-0.0035
502.5843	-0.0063
502.783	0.0125
502.9816	0.0019
503.1803	0.0076
503.3789	0.005
503.5775	0.0022
503.7761	0
503.9747	-0.002
504.1732	0.0005
504.3718	0.0068
504.5703	-0.0016
504.7689	-0.0015
504.9674	0.0072
505.1658	0.0023
505.3643	0.0008
505.5628	-0.0049
505.7612	0.0018
505.9597	0.0048
506.1581	-0.0073
506.3565	-0.0108
506.5549	0.0032
506.7532	0.0072
506.9516	0.0005
507.1499	-0.0023
507.3482	0.0145
507.5465	-0.0065
507.7448	0
507.9431	0.0009
508.1414	-0.0058
508.3396	0.0091
508.5379	0.0032
508.7361	0.0075
508.9343	0.0057
509.1325	0.0065
509.3306	-0.0002
509.5288	0.0136
509.7269	0.0006
509.9251	-0.0017
510.1232	-0.0045
510.3213	-0.0068
510.5193	0.0033
510.7174	-0.009
510.9154	0.0076
511.1135	0.0006
511.3115	0.0049
511.5095	0.0049
511.7075	-0.0004
511.9055	0.0134
512.1034	0.0055
512.3014	-0.0055
512.4993	0.0016
512.6972	-0.0155
512.8951	0.004
513.093	0.0013
513.2908	0.0122
513.4887	0.0131
513.6865	-0.0055
513.8844	0.011
514.0822	0.0046
514.2799	-0.0033
514.4777	0.0086
514.6755	0.0026
514.8732	0.0017
515.0709	0.0026
515.2687	-0.0035
515.4664	-0.0111
515.664	0.0024
515.8617	0.0138
516.0594	0.0043
516.257	0.0049
516.4546	0.0006
516.6522	0.0017
516.8498	-0.0087
517.0474	0.0064
517.2449	0.0014
517.4425	0.0005
517.64	-0.0007
517.8375	0.009
518.035	0.0032
518.2325	-0.009
518.43	-0.0025
518.6274	-0.0062
518.8249	-0.0018
519.0223	-0.0013
519.2197	-0.0002
519.4171	-0.0041
519.6145	-0.0116
519.8118	-0.0027
520.0092	-0.0029
520.2065	0.0038
520.4038	0.0014
520.6011	0.0136
520.7984	0.0082
520.9956	-0.0036
521.1929	0.0096
521.3901	0.0019
521.5874	0.0046
521.7846	0.0023
521.9818	0.0023
522.1789	0.0209
522.3761	-0.002
522.5732	0.003
522.7704	0.0053
522.9675	0.0093
523.1646	0.0128
523.3617	-0.0049
523.5587	-0.0008
523.7558	0.0029
523.9528	0.0063
524.1498	-0.0059
524.3468	-0.0004
524.5438	-0.0088
524.7408	-0.0037
524.9378	0.0028
525.1347	0.0161
525.3316	0.007
525.5285	-0.0012
525.7254	-0.0012
525.9223	-0.0103
526.1192	-0.0034
526.316	-0.0113
526.5129	0.001
526.7097	0.0037
526.9065	0.0051
527.1033	0.0001
527.3	-0.0046
527.4968	0.0001
527.6935	0.0038
527.8903	0.0088
528.087	-0.0059
528.2837	-0.0064
528.4804	0.01
528.677	0.0032
528.8737	-0.0097
529.0703	0.0034
529.2669	0.0005
529.4635	0.0165
529.6601	0.0009
529.8567	0.0005
530.0532	0.0109
530.2498	-0.0005
530.4463	0.0044
530.6428	-0.0055
530.8393	0.0005
531.0358	0.005
531.2322	0.0026
531.4287	-0.0054
531.6251	-0.0014
531.8215	0.0093
532.0179	-0.0083
532.2143	0.0115
532.4107	0.0011
532.607	-0.0065
532.8034	0.0064
532.9997	-0.0026
533.196	0.0102
533.3923	0.0007
533.5886	-0.0084
533.7848	-0.0033
533.9811	-0.0067
534.1773	-0.0038
534.3735	0.0066
534.5697	0.0114
534.7659	0.0016
534.9621	0.0083
535.1582	-0.0004
535.3544	0.0078
535.5505	0.0065
535.7466	0.002
535.9427	0.0061
536.1387	0.0022
536.3348	0.007
536.5308	0.0098
536.7269	-0.0022
536.9229	0.005
537.1189	-0.0046
537.3148	-0.0103
537.5108	0.0061
537.7068	0.0113
537.9027	0.0107
538.0986	-0.0065
538.2945	0.0044
538.4904	-0.0023
538.6863	0.0122
538.8821	-0.0081
539.078	0.0031
539.2738	-0.0037
539.4696	-0.0043
539.6654	0.0015
539.8611	0.0028
540.0569	-0.0032
540.2526	-0.008
540.4484	-0.0017
540.6441	-0.0014
540.8398	0.006
541.0355	0.0047
541.2311	0.0007
541.4268	0.0067
541.6224	0.0041
541.818	-0.0048
542.0136	-0.002
542.2092	0.0127
542.4048	0.0024
542.6003	0.0027
542.7959	0.0097
542.9914	0.0046
543.1869	-0.0006
543.3824	0.0035
543.5779	0.0007
543.7734	0.0022
543.9688	0.0042
544.1642	0.0013
544.3596	-0.0007
544.555	0.0058
544.7504	0.0015
544.9458	-0.0007
545.1411	-0.0016
545.3365	-0.0003
545.5318	-0.0025
545.7271	0.0187
545.9224	-0.0084
546.1177	0.0055
546.3129	-0.0084
546.5081	0.0037
546.7034	-0.0039
546.8986	0.0126
547.0938	-0.0026
547.289	0.0083
547.4841	-0.0004
547.6793	0.0006
547.8744	-0.0098
548.0695	0.0002
548.2646	-0.0036
548.4597	-0.0018
548.6548	0.0085
548.8498	0.0005
549.0448	0.0012
549.2399	-0.0022
549.4349	0.0144
549.6298	-0.0109
549.8248	-0.0054
550.0198	0.015
550.2147	0.0112
550.4096	0.008
550.6045	0.0069
550.7994	0.0015
550.9943	0.0069
551.1892	0.0046
551.384	0.0078
551.5788	0.0052
551.7737	0.0004
551.9685	0.0097
552.1632	0.0009
552.358	0.0016
552.5528	0.0035
552.7475	0.0015
552.9422	-0.007
553.1369	0.0082
553.3316	-0.0064
553.5263	-0.003
553.7209	-0.0012
553.9156	0.002
554.1102	0.0025
554.3048	0.002
554.4994	-0.0004
554.694	0.0029
554.8885	0.0014
555.0831	0.0084
555.2776	-0.0033
555.4721	-0.0079
555.6666	0.0113
555.8611	-0.0098
556.0555	0.0144
556.25	0.004
556.4444	-0.0004
556.6388	0.0093
556.8332	-0.0015
557.0276	0.0199
557.222	0.0012
557.4163	-0.0015
557.6107	-0.0038
557.805	-0.0082
557.9993	-0.0002
558.1936	0.0167
558.3879	-0.0091
558.5821	-0.0092
558.7764	0.0107
558.9706	0.0057
559.1648	-0.0048
559.359	0.0103
559.5532	-0.0118
559.7473	0.0147
559.9415	0.0011
560.1356	0.0067
560.3297	0.0029
560.5238	0.0089
560.7179	0.0024
560.9119	0.0134
561.106	-0.0043
561.3	-0.0028
561.494	0.0059
561.688	-0.0008
561.882	0.0007
562.076	0.0142
562.2699	0.0045
562.4639	0.0081
562.6578	0.0059
562.8517	0.0029
563.0456	-0.0053
563.2395	0.004
563.4333	-0.0028
563.6272	0.0057
563.821	0.0137
564.0148	-0.0055
564.2086	0.0065
564.4024	0.0032
564.5961	-0.0039
564.7899	0.0033
564.9836	0.0036
565.1773	0.0015
565.371	0.0027
565.5647	-0.0019
565.7584	-0.0021
565.952	-0.0067
566.1456	0.006
566.3393	0.0123
566.5329	-0.0042
566.7264	0.0064
566.92	0.0049
567.1136	-0.0007
567.3071	0.0068
567.5006	-0.008
567.6941	0.0025
567.8876	-0.0053
568.0811	-0.0033
568.2745	0.0011
568.468	0.0093
568.6614	0.005
568.8548	0.0011
569.0482	0.0012
569.2416	-0
569.4349	0.0029
569.6283	0.0026
569.8216	0.0048
570.0149	0.0043
570.2082	-0.0012
570.4015	0.0035
570.5947	-0.0013
570.788	-0.0009
570.9812	-0.0016
571.1744	0.0003
571.3676	-0.0005
571.5608	0.0009
571.754	-0.002
571.9471	0.0084
572.1402	0.0029
572.3333	0.0006
572.5264	0.0037
572.7195	0.0044
572.9126	-0.0005
573.1057	-0.0012
573.2987	0.0017
573.4917	0.0037
573.6847	0.0029
573.8777	0.0017
574.0707	-0.001
574.2636	-0.0009
574.4566	0.0021
574.6495	0.0057
574.8424	0.002
575.0353	-0.0039
575.2281	0
575.421	0.0035
575.6138	0.0007
575.8067	-0.0035
575.9995	0.0019
576.1923	0.0063
576.385	-0.0002
576.5778	-0.004
576.7706	0.004
576.9633	0.0038
577.156	-0.0005
577.3487	0.0006
577.5414	0.0004
577.734	0.0003
577.9267	-0.0031
578.1193	-0.0006
578.3119	-0.0062
578.5045	0.0002
578.6971	-0.001
578.8897	0.0011
579.0822	0.0045
579.2747	-0.0072
579.4673	0
579.6598	0.0002
579.8522	0.0022
580.0447	0.003
580.2372	0.007
580.4296	-0.0004
580.622	0.003
580.8144	0.0006
581.0068	-0.0005
581.1992	0.0011
581.3915	0.0009
581.5839	0.0016
581.7762	0.0038
581.9685	-0.0022
582.1608	0.0002
582.353	-0.0009
582.5453	0.0018
582.7375	0.0047
582.9298	-0.0016
583.122	-0.0047
583.3142	0.0029
583.5063	-0.003
583.6985	0.0023
583.8906	-0.0024
584.0827	0.0033
584.2749	0.0033
584.4669	0.0038
584.659	-0.0028
584.8511	0.001
585.0431	0.0022
585.2352	-0.0031
585.4272	0.0024
585.6192	0.0019
585.8111	-0.005
586.0031	0.0014
586.195	0.0018
586.387	0.003
586.5789	0.004
586.7708	-0.0004
586.9627	0.0067
587.1545	-0.0021
587.3464	0.0069
587.5382	0.0021
587.73	-0.0026
587.9218	0.0043
588.1136	-0.0069
588.3053	-0.0047
588.4971	0.0024
588.6888	-0.0046
588.8805	0.0039
589.0722	0.004
589.2639	0.006
589.4556	-0.0032
589.6472	-0.0034
589.8389	0.0006
590.0305	0.0062
590.2221	0.0051
590.4137	-0.0038
590.6052	0.0001
590.7968	0.0009
590.9883	0.0046
591.1798	-0.0044
591.3713	0
591.5628	-0.0002
591.7543	0.0026
591.9458	0.001
592.1372	-0.0035
592.3286	-0.0067
592.52	0.0004
592.7114	-0.0028
592.9028	-0.0035
593.0941	-0.0007
593.2855	0.0006
593.4768	0.0026
593.6681	0.0033
593.8594	-0.0012
594.0506	0.0047
594.2419	-0.003
594.4331	-0.0045
594.6244	0.0018
594.8156	-0.0013
595.0067	0.0049
595.1979	-0.001
595.3891	0.0014
595.5802	0.0034
595.7713	0.0005
595.9624	0.0022
596.1535	0.0032
596.3446	-0.0003
596.5357	-0.0018
596.7267	-0.0035
596.9177	-0.0064
597.1087	-0.0001
597.2997	0.0058
597.4907	0.0022
597.6817	0.0029
597.8726	0.0054
598.0635	0.002
598.2544	-0.0034
598.4453	-0.0001
598.6362	0.0004
598.827	0.0019
599.0179	-0.0018
599.2087	-0.0048
599.3995	0.0025
599.5903	-0.0025
599.7811	-0.0023
599.9718	0.002
600.1626	0.0016
600.3533	-0.0043
600.544	-0.0011
600.7347	-0.0023
600.9254	0.0089
601.116	-0.0019
601.3067	0.0057
601.4973	0.0069
601.6879	-0.005
601.8785	-0.009
602.0691	0.0049
602.2596	-0.0017
602.4502	0.0006
602.6407	0.0067
602.8312	0.005
603.0217	0.0036
603.2122	0.0089
603.4027	-0.0055
603.5931	-0.0009
603.7835	0.0012
603.9739	0.0032
604.1643	-0.0002
604.3547	0.0031
604.5451	0.0032
604.7354	-0.0046
604.9257	0.0042
605.116	0.002
605.3063	-0.0064
605.4966	0.0022
605.6869	-0.0016
605.8771	0.0028
606.0673	0.0007
606.2575	-0.0004
606.4477	0.0013
606.6379	-0.0032
606.8281	-0.0095
607.0182	0.0016
607.2083	0.0015
607.3985	-0.0026
607.5885	0.0063
607.7786	0.008
607.9687	0.0002
608.1587	-0.0001
608.3488	-0.0026
608.5388	0.0003
608.7288	-0.0049
608.9187	0.0127
609.1087	-0.0013
609.2986	-0.0047
609.4886	0.0042
609.6785	0.0028
609.8684	-0.0019
610.0582	0.0022
610.2481	-0.0073
610.4379	0.0061
610.6278	-0.005
610.8176	-0.0033
611.0074	-0.0068
611.1971	0.0098
611.3869	0.0067
611.5766	0.0067
611.7664	0.0045
611.9561	0.001
612.1458	-0.0022
612.3354	0.0017
612.5251	-0.0049
612.7147	0.0042
612.9044	0.0007
613.094	0.0034
613.2836	0.0038
613.4731	0.0022
613.6627	0.0106
613.8522	-0.0089
614.0417	-0.0045
614.2313	-0.0066
614.4207	0.0051
614.6102	-0.0051
614.7997	-0.0083
614.9891	-0.0002
615.1785	-0.0036
615.3679	-0.0058
615.5573	-0.0079
615.7467	-0.0062
615.9361	0.0004
616.1254	0.0015
616.3147	-0.0009
616.504	0.0021
616.6933	-0.0031
616.8826	0.0085
617.0718	-0.0035
617.2611	0.0053
617.4503	-0.005
617.6395	0.0054
617.8287	-0.0039
618.0179	-0.0066
618.207	0.0006
618.3961	-0.0053
618.5853	0.0012
618.7744	0.0034
618.9634	-0.0008
619.1525	-0.0001
619.3416	0.0011
619.5306	0.0025
619.7196	-0.0118
619.9086	0.0054
620.0976	0.0054
620.2866	0.0123
620.4755	0.0077
620.6645	-0.0025
620.8534	-0.0076
621.0423	-0.0033
621.2312	-0.0054
621.42	-0.0046
621.6089	0.0003
621.7977	0.0013
621.9865	0.001
622.1753	0.0047
622.3641	-0.0024
622.5529	-0.011
622.7416	-0.0022
622.9303	-0.0009
623.1191	0.0014
623.3078	-0.0042
623.4964	-0.009
623.6851	0.0075
623.8737	0.0113
624.0624	0.0035
624.251	0.0046
624.4396	0.0016
624.6282	-0.0028
624.8167	0.0042
625.0053	0.0031
625.1938	0.002
625.3823	0.0043
625.5708	-0.0063
625.7593	-0.0043
625.9477	-0.0069
626.1362	-0.0076
626.3246	-0.0116
626.513	0.0112
626.7014	0.002
626.8898	0.0033
627.0781	0.008
627.2665	0.0166
627.4548	-0.0001
627.6431	-0.0066
627.8314	0.003
628.0197	-0.001
628.2079	-0.0048
628.3962	0.0012
628.5844	0.0076
628.7726	-0.0014
628.9608	0.0064
629.1489	-0.0097
629.3371	-0.014
629.5252	0.0142
629.7134	0.0023
629.9015	-0.0006
630.0895	-0.0005
630.2776	-0.0093
630.4657	0.0082
630.6537	-0.0111
630.8417	-0.0057
631.0297	0.0069
631.2177	0.0017
631.4057	-0.0035
631.5936	-0.0137
631.7815	0.0024
631.9695	0.0261
632.1574	0.007
632.3452	0.0072
632.5331	0.0034
632.7209	0.0156
632.9088	-0.0114
633.0966	0.0064
633.2844	0.0015
633.4722	0.0184
633.6599	-0.0184
633.8477	-0.0047
634.0354	0.001
634.2231	0.0226
634.4108	0.0004
634.5985	-0.0113
634.7861	0.0061
634.9738	0.0104
635.1614	0.0077
635.349	-0.0169
635.5366	0.0036
635.7242	-0.0042
635.9117	0.0049
636.0993	0
636.2868	-0.006
636.4743	0.008
636.6618	0.0033
636.8492	0.0027
637.0367	0.013
637.2241	0.0108
637.4115	0.0144
637.5989	0.0007
637.7863	0.0031
637.9737	0.0052
638.161	-0.0204
638.3484	-0.0001
638.5357	-0.0122
638.723	-0.0046
638.9103	0.0137
639.0975	-0.0025
639.2848	0.0196
639.472	-0.0086
639.6592	0.0156
639.8464	0.0069
640.0336	0.0051
640.2208	-0.0296
640.4079	0.0219
640.595	0.0029
640.7821	0.0196
640.9692	0.0017
641.1563	0.0064
641.3434	0.0073
641.5304	-0.0072
641.7174	0.0104
641.9044	-0.002
642.0914	-0.0075
642.2784	0.0129
642.4653	-0.0004
642.6523	0.0111
642.8392	0.009
643.0261	0.0016
643.213	0.0066
643.3999	-0.0149
643.5867	0.0131
643.7735	0.0152
643.9604	-0.0038
644.1472	-0.0117
644.3339	0.001
644.5207	-0.0187
644.7075	-0.0053
644.8942	0.0205
645.0809	0.0045
645.2676	-0.0076
645.4543	0.0025
645.6409	-0.0123
645.8276	0
646.0142	-0.0027
646.2008	0.0103
646.3874	0.0228
646.574	-0.0267
646.7605	-0.0071
646.9471	0.0124
647.1336	0.0093
647.3201	0.0046
647.5066	-0.0083
647.6931	0.0163
647.8795	0.0127
648.0659	-0.0045
648.2524	-0.0025
648.4388	-0.0063
648.6252	-0.0144
648.8115	0.0229
648.9979	0.0094
649.1842	-0.0084
649.3705	-0.0024
649.5568	-0.0121
649.7431	-0.0111
649.9294	-0.012
650.1156	-0.0064
650.3018	0.0155
650.488	-0.005
650.6742	0.0126
650.8604	-0.0002
651.0466	-0.0172
651.2327	-0.0174
651.4188	-0.0058
651.6049	-0.0041
651.791	0.0237
651.9771	-0.0019
652.1632	-0.007
652.3492	-0.0029
652.5352	0.0054
652.7212	-0.014
652.9072	-0.002
653.0932	0.0035
653.2791	-0.0008
653.465	-0.0208
653.651	0.0075
653.8369	0.0143
654.0227	0.008
654.2086	-0.0086
654.3944	-0.0081
654.5803	0.0054
654.7661	-0.0089
654.9519	0.0002
655.1377	0.0001
655.3234	0.0001
655.5092	0.0001
655.6949	0.0001
655.8806	0.0001
656.0663	0.0001
656.2519	0.0001
656.4376	0.0001
656.6232	0.0001
656.8088	0.0001
656.9945	0.0001
657.18	0.0001
657.3656	0.0001
657.5511	0.0001
657.7367	0.0001
657.9222	0.0001
658.1077	0.0001
658.2932	0.0001
658.4786	0.0001
658.6641	0.0001
658.8495	0.0001
659.0349	0.0001
659.2203	0.0001
659.4057	-0.0042
659.591	0.0566
659.7764	0.0151
659.9617	0.0016
660.147	-0.0116
660.3323	-0.0087
660.5176	0.013
660.7028	0.0041
660.888	0.0026
661.0733	0.0131
661.2585	-0.0052
661.4436	-0.0096
661.6288	0.0138
661.8139	0.0108
661.9991	0.0194
662.1842	0.0306
662.3693	-0.0035
662.5544	0.0094
662.7394	0.0368
662.9245	0.0212
663.1095	0.0042
663.2945	-0.0134
663.4795	-0.0081
663.6644	-0.011
663.8494	-0.0057
664.0343	0.003
664.2193	-0.0029
664.4042	-0.006
664.589	-0.0159
664.7739	-0.0086
664.9587	0.0192
665.1436	0.0023
665.3284	0.0245
665.5132	0.0032
665.698	-0.0017
665.8827	-0.0188
666.0675	-0.0219
666.2522	0.0243
666.4369	-0.0169
666.6216	-0.007
666.8063	-0.0153
666.9909	-0.021
667.1756	0.0023
667.3602	-0.0093
667.5448	0.0127
667.7294	0.0037
667.9139	0.0001
668.0985	-0.0139
668.283	0.0188
668.4675	0.0036
668.652	-0.0058
668.8365	-0.0198
669.0209	-0.0163
669.2054	0.0216
669.3898	0.0007
669.5742	0.0182
669.7586	0.006
669.943	-0.0145
670.1273	0.0035
670.3117	0.0013
670.496	0.0059
670.6803	0.0076
670.8646	0.0092
671.0488	-0.0071
671.2331	-0.0019
671.4173	-0.0019
671.6015	-0.0046
671.7857	-0.006
671.9699	0.0058
672.1541	0.0004
672.3382	0.0205
672.5223	0.0128
672.7064	0.0023
672.8905	0.0056
673.0746	-0.0227
673.2587	0.0044
673.4427	0.0009
673.6267	-0.0069
673.8107	-0.0053
673.9947	0.0065
674.1787	0.0059
674.3626	0.0023
674.5465	0.0171
674.7304	-0.0241
674.9143	0.0155
675.0982	-0.0043
675.2821	0.0064
675.4659	0.0032
675.6497	0.003
675.8335	-0.0003
676.0173	0.0263
676.2011	0.0045
676.3849	-0.0071
676.5686	0.0223
676.7523	0.0007
676.936	0.0007
677.1197	0.0217
677.3034	0.0232
677.487	0.0017
677.6706	-0.0032
677.8542	0.0055
678.0378	0.0117
678.2214	0.0041
678.405	0.0154
678.5885	0.0117
678.772	-0.0079
678.9555	0.0105
679.139	0.0031
679.3225	-0.0121
679.5059	0.0095
679.6894	-0.0108
679.8728	-0.0157
680.0562	-0.0004
680.2395	-0.0033
680.4229	0.0003
680.6062	-0.0112
680.7896	0.0142
680.9729	0.0024
681.1562	-0.0141
681.3394	0.0093
681.5227	-0.0086
681.7059	-0.0057
681.8891	0.0137
682.0723	0.0004
682.2555	0.0147
682.4387	0.0219
682.6218	-0.035
682.805	-0.0116
682.9881	0.0184
683.1712	0.0235
683.3542	-0.0194
683.5373	0.0247
683.7203	0.0053
683.9034	0.0011
684.0864	-0.0074
684.2694	0.0126
684.4523	-0.0011
684.6353	-0.0044
684.8182	0.0122
685.0011	-0.0012
685.184	0.0113
685.3669	0.0021
685.5498	0.0096
685.7326	0.0008
685.9154	-0.0048
686.0982	0
686.281	0.0101
686.4638	0.0046
686.6465	0.0096
686.8293	0.0048
687.012	0.0002
687.1947	0.0002
687.3774	-0.0033
687.56	-0.024
687.7427	0.0082
687.9253	0.0285
688.1079	0.0256
688.2905	0.0314
688.4731	0.0353
688.6556	-0.0017
688.8382	-0.0059
689.0207	-0.0029
689.2032	-0.0085
689.3857	0.0011
689.5681	-0.0045
689.7506	0.0061
689.933	-0.0056
690.1154	0.0064
690.2978	-0.0134
690.4802	0.0068
690.6626	-0.0044
690.8449	-0.0213
691.0272	-0.018
691.2095	0.0022
691.3918	-0.0072
691.5741	-0.0118
691.7563	0.0111
691.9386	-0.0026
692.1208	0.0006
692.303	0.0013
692.4852	0.0248
692.6673	0.0003
692.8495	-0.0086
693.0316	-0.0094
693.2137	0.0183
693.3958	0.0211
693.5778	-0.0121
693.7599	-0.0146
693.9419	0.0206
694.1239	-0.0081
694.3059	-0.0031
694.4879	-0.0088
694.6699	-0.0083
694.8518	-0.0035
695.0337	0.0009
695.2157	0.0041
695.3975	0.0124
695.5794	-0.0141
695.7613	0.0256
695.9431	-0.0315
696.1249	0.026
696.3067	0.0064
696.4885	-0.0307
696.6703	-0.003
696.852	-0.0136
697.0337	-0.0021
697.2154	0.0183
697.3971	0.0081
697.5788	0.0185
697.7605	0.0128
697.9421	-0.0066
698.1237	0.0057
698.3053	0.0051
698.4869	0.0136
698.6685	0.0003
698.85	0.0209
699.0315	-0.0098
699.213	0.0225
699.3945	0.0092
699.576	0.016
699.7575	0.0112
699.9389	-0.0205
700.1203	-0.0065
700.3017	0.0005
700.4831	0.0077
700.6645	-0.0059
700.8458	0.0079
701.0271	0.0038
701.2084	-0.028
701.3897	-0.0161
701.571	0.0215
701.7523	-0.0212
701.9335	0.0041
702.1147	-0.0046
702.2959	0.0197
702.4771	-0.0046
702.6583	-0.0009
702.8394	-0.0094
703.0205	-0.01
703.2016	0.0059
703.3827	0.0163
703.5638	0.002
703.7449	-0.0019
703.9259	0.0246
704.1069	0.0075
704.2879	0.0371
704.4689	0.0403
704.6499	-0.0234
704.8308	0.0096
705.0117	-0.0335
705.1927	0.0078
705.3735	0.0174
705.5544	0.0274
705.7353	0.003
705.9161	0.0008
706.0969	-0.0044
706.2777	-0.0074
706.4585	-0.0033
706.6393	0.0104
706.82	-0.0053
707.0007	-0.0017
707.1815	0.0003
707.3621	-0.0004
707.5428	0.0117
707.7235	0.0126
707.9041	-0.0154
708.0847	-0.0027
708.2653	0.0018
708.4459	-0.0206
708.6265	-0.0027
708.807	0.0135
708.9875	-0.0014
709.168	0.0167
709.3485	0.0115
709.529	0.0321
709.7095	0.0071
709.8899	0.0088
710.0703	0.0193
710.2507	-0.0041
710.4311	-0.0006
710.6115	0.0138
710.7918	-0.0076
710.9721	0.0015
711.1524	-0.0055
711.3327	0.0049
711.513	-0.0064
711.6932	-0.0116
711.8735	0.0184
712.0537	-0.0072
712.2339	0.0217
712.4141	0.0237
712.5942	0.003
712.7744	0.0191
712.9545	0.0216
713.1346	0.0132
713.3147	0.0224
713.4947	-0.0064
713.6748	0.0078
713.8548	-0.0002
714.0348	0.0277
714.2148	-0.0026
714.3948	-0.0049
714.5748	-0.0106
714.7547	-0.0036
714.9346	0.007
715.1145	0.0007
715.2944	0.0101
715.4743	-0.0024
715.6541	0.0014
715.834	0.0249
716.0138	0.032
716.1936	0.0028
716.3733	0.0198
716.5531	0.0357
716.7328	-0.0028
716.9126	-0.0266
717.0923	0.0053
717.2719	0.0077
717.4516	-0.017
717.6312	-0.0279
717.8109	0.0057
717.9905	0.0178
718.1701	-0.0168
718.3496	0.0048
718.5292	0.0071
718.7087	0.0212
718.8882	-0.0023
719.0677	-0.0283
719.2472	0.0284
719.4267	0.0092
719.6061	0.0082
719.7856	-0.0063
719.965	0.0384
720.1443	-0.0314
720.3237	0.005
720.5031	0.0177
720.6824	0.0024
720.8617	0.022
721.041	0.003
721.2203	0.029
721.3995	-0.0031
721.5788	-0.0198
721.758	0.0013
721.9372	0.0104
722.1164	0.0292
722.2956	0.0229
722.4747	0.0255
722.6538	0.012
722.8329	-0.0164
723.012	0.0241
723.1911	0.0221
723.3702	0.0023
723.5492	-0.0113
723.7282	0.0275
723.9072	-0.0317
724.0862	-0.0175
724.2652	-0.023
724.4441	-0.0159
724.623	-0.007
724.8019	0.0067
724.9808	-0.0181
725.1597	-0.0174
725.3385	0.0154
725.5174	0.0309
725.6962	0.0443
725.875	0.0107
726.0538	-0.0232
726.2325	-0.019
726.4112	0.0134
726.59	-0.0044
726.7687	-0.0047
726.9474	-0.0103
727.126	-0.0129
727.3047	0.0119
727.4833	0.0431
727.6619	0.0218
727.8405	0.0039
728.0191	-0.0237
728.1976	-0.04
728.3762	-0.0184
728.5547	0.0211
728.7332	0.0342
728.9116	-0.0346
729.0901	0.03
729.2686	-0.0174
729.447	0.0007
729.6254	0.0183
729.8038	-0.0183
729.9821	-0.0039
730.1605	-0.0137
730.3388	-0.0258
730.5171	-0.0132
730.6954	0.0106
730.8737	0.0347
731.0519	0.0036
731.2302	-0.0054
731.4084	-0.0022
731.5866	-0.0027
731.7648	-0.0027
731.9429	-0.0006
732.1211	-0.0063
732.2992	-0.0155
732.4773	-0.0064
732.6554	-0.0094
732.8335	0.018
733.0115	-0.011
733.1896	-0.0131
733.3676	0.0208
733.5456	0.0108
733.7235	0.0025
733.9015	-0.0034
734.0794	0.0031
734.2574	0.0182
734.4353	0.0059
734.6131	0.0034
734.791	0.0216
734.9689	0.0084
735.1467	0.0142
735.3245	0.0073
735.5023	0.0154
735.68	-0.0139
735.8578	-0.0044
736.0355	0.0276
736.2132	0.0044
736.3909	-0.0128
736.5686	0.0009
736.7463	0.006
736.9239	-0.0091
737.1015	-0.0255
737.2791	0.0014
737.4567	-0.0027
737.6343	0.0015
737.8118	0.0094
737.9894	0.0076
738.1669	-0.0036
738.3444	0.0072
738.5218	0.0053
738.6993	-0.0297
738.8767	-0.0124
739.0541	0.0296
739.2315	0.0044
739.4089	0.0054
739.5863	0.0082
739.7636	0.0042
739.9409	-0.0061
740.1182	0.002
740.2955	-0.0276
740.4728	0.0265
740.65	-0.0106
740.8272	-0.0021
741.0044	0.0042
741.1816	0.0344
741.3588	-0.003
741.5359	-0.0024
741.7131	0.0278
741.8902	-0.0081
742.0673	0.0211
742.2444	-0.0056
742.4214	-0.0094
742.5985	0.0431
742.7755	-0.0222
742.9525	0.0042
743.1295	-0.0224
743.3064	-0.0108
743.4834	-0.0045
743.6603	0.0157
743.8372	0.0102
744.0141	0.0271
744.191	-0.0274
744.3678	0.0064
744.5446	0.0111
744.7215	-0.0313
744.8982	-0.0207
745.075	0.0087
745.2518	0.002
745.4285	-0.0328
745.6052	0.0251
745.7819	-0.0173
745.9586	0.0261
746.1353	-0.0192
746.3119	0.0035
746.4885	0.0101
746.6651	-0.0406
746.8417	-0.0314
747.0183	-0.0269
747.1948	-0.0013
747.3714	-0.0018
747.5479	0.0012
747.7244	-0.0548
747.9008	0.0395
748.0773	0.051
748.2537	0.0282
748.4301	-0.013
748.6065	-0.027
748.7829	0.0111
748.9593	-0.0106
749.1356	0.0101
749.3119	-0.0099
749.4882	-0.0056
749.6645	0.0095
749.8408	-0.0173
750.017	-0.0022
750.1933	-0.0024
750.3695	0.0146
750.5457	-0.0059
750.7218	0.0114
750.898	-0.003
751.0741	0.0193
751.2502	0.008
751.4263	-0.0093
751.6024	0.0146
751.7784	-0.0377
751.9545	-0.0227
752.1305	0.0211
752.3065	0.0169
752.4825	-0.0058
752.6584	-0.0032
752.8344	0.0164
753.0103	-0.02
753.1862	-0.0069
753.3621	-0.0107
753.5379	-0.0253
753.7138	-0.0055
753.8896	0.0308
754.0654	-0.0218
754.2412	0.0332
754.417	-0.0021
754.5927	-0.0007
754.7685	-0.0282
754.9442	0.0092
755.1199	-0.0105
755.2956	0.0152
755.4712	0.0032
755.6469	-0.0023
755.8225	0.0283
755.9981	-0.0015
756.1736	0.0159
756.3492	-0.0203
756.5248	-0.0031
756.7003	0.0038
756.8758	-0.0147
757.0513	0.0019
757.2267	-0.01
757.4022	0.0083
757.5776	-0.0117
757.753	0.0054
757.9284	0.0015
758.1038	0.0044
758.2791	0.0015
758.4545	-0.0095
758.6298	0.0102
758.8051	0.0064
758.9803	0.0063
759.1556	-0.0323
759.3308	0
759.506	0.0003
759.6812	-0.0068
759.8564	-0.0143
760.0316	-0.0069
760.2067	-0.0115
760.3819	-0.0043
760.557	-0.0162
760.732	0.0098
760.9071	-0.0108
761.0821	-0.0074
761.2572	-0.0002
761.4322	-0.0078
761.6072	-0.001
761.7821	0.0247
761.9571	-0.0125
762.132	-0.0031
762.3069	-0.0041
762.4818	0.0268
762.6567	0.0345
762.8316	0.0022
763.0064	-0.014
763.1812	-0.011
763.356	0.0056
763.5308	-0.0291
763.7055	0.0013
763.8803	0.008
764.055	0.0006
764.2297	0.0041
764.4044	-0.0015
764.579	-0.0049
764.7537	-0.0046
764.9283	-0.0172
765.1029	0.0149
765.2775	0.0095
765.4521	0.0052
765.6266	-0.0206
765.8011	-0.0054
765.9756	0.0161
766.1501	0.0322
766.3246	0.0048
766.4991	-0.0137
766.6735	-0.0278
766.8479	-0.0112
767.0223	0.0385
767.1967	-0.0166
767.371	0.0039
767.5454	0.0079
767.7197	-0.0039
767.894	-0.005
768.0683	-0.0206
768.2425	0.011
768.4168	0.0211
768.591	0.0101
768.7652	0.005
768.9394	0.0113
769.1135	-0.0043
769.2877	-0.0248
769.4618	0.018
769.6359	0.0001
769.81	0.0093
769.984	0.0039
770.1581	0.0317
770.3321	0.0054
770.5061	0.0018
770.6801	0.0203
770.8541	-0.0232
771.028	-0.0053
771.202	-0.0301
771.3759	0.0176
771.5498	-0.0134
771.7236	0.0157
771.8975	-0.0312
772.0713	-0.0089
772.2451	-0.0034
772.4189	-0.0074
772.5927	0.0078
772.7665	0.05
772.9402	0.0001
773.1139	-0.0158
773.2876	0.0107
773.4613	-0.0069
773.635	0.0018
773.8086	-0.0531
773.9822	0.0033
774.1558	0.0231
774.3294	-0.0795
774.503	-0.004
774.6765	0.0253
774.8501	-0.0117
775.0236	0.0172
775.1971	-0.0176
775.3705	-0.0294
775.544	0.0082
775.7174	-0.0088
775.8908	0.045
776.0642	0.0227
776.2376	-0.0391
776.4109	0.0354
776.5843	-0.0226
776.7576	0.0406
776.9309	0.0678
777.1041	-0.0087
777.2774	0.0052
777.4506	-0.024
777.6238	0.014
777.797	0.0387
777.9702	0.043
778.1434	0.0289
778.3165	-0.0054
778.4896	0.0115
778.6627	0.0409
778.8358	-0.0064
779.0089	-0.0063
779.1819	0.0153
779.3549	0.0198
779.5279	-0.0082
779.7009	-0.0056
779.8739	0.0338
780.0468	0.0015
780.2197	-0.0388
780.3926	-0.0116
780.5655	0.0007
780.7384	0.0235
780.9112	0.013
781.0841	0.0006
781.2569	-0.0121
781.4297	0.0335
781.6024	-0.0052
781.7752	-0.0031
781.9479	0.008
782.1206	0.0044
782.2933	-0.0028
782.466	-0.0208
782.6386	0.0175
782.8113	-0.0141
782.9839	0.0255
783.1565	-0.0076
783.329	0.0333
783.5016	-0.0141
783.6741	-0.0152
783.8466	-0.0585
784.0191	0.0016
784.1916	0.0366
784.3641	-0.024
784.5365	0.0419
784.7089	0.0284
784.8813	0.0386
785.0537	-0.0143
785.2261	-0.0181
785.3984	-0.0086
785.5707	0.0441
785.743	-0.0335
785.9153	0.0429
786.0876	-0.0373
786.2598	0.0484
786.432	0.0191
786.6042	0.0402
786.7764	0.0065
786.9486	-0.0045
787.1207	0.0588
787.2928	-0.0079
787.4649	-0.0037
787.637	0.0377
787.8091	-0.0123
787.9811	0.0083
788.1532	0.0133
788.3252	0.0063
788.4972	0.009
788.6691	0.0347
788.8411	0.0098
789.013	0.0162
789.1849	0.003
789.3568	0.0259
789.5287	-0.0292
789.7005	0.0026
789.8723	-0.0123
790.0442	-0.0661
790.2159	0.0311
790.3877	0.0389
790.5595	0.034
790.7312	-0.0072
790.9029	-0.0029
791.0746	0.0943
791.2463	0.0147
791.4179	-0.001
791.5896	-0.041
791.7612	-0.0464
791.9328	-0.0137
792.1044	-0.0047
792.2759	0.0337
792.4474	-0.0138
792.619	0.0486
792.7905	0.0162
792.9619	0.0128
793.1334	-0.0301
793.3048	-0.0269
793.4762	-0.0341
793.6476	-0.0313
793.819	0.0108
793.9904	0.0228
794.1617	0.0007
794.333	-0.0036
794.5043	0.0013
794.6756	0.0563
794.8469	0.0169
795.0181	-0.0078
795.1893	-0.0295
795.3605	0.0015
795.5317	0.015
795.7029	0.0116
795.874	-0.0102
796.0452	0.008
796.2163	0.0389
796.3873	-0.0022
796.5584	0.17
796.7294	-0.1373
796.9005	-0.0135
797.0715	0.0136
797.2425	0.0293
797.4134	0.0013
797.5844	0.0089
797.7553	0.0129
797.9262	0.0159
798.0971	0.0065
798.2679	0.0174
798.4388	-0.0586
798.6096	-0.0831
798.7804	0.0267
798.9512	0.0575
799.122	0.0409
799.2927	-0.0539
799.4635	0.1041
799.6342	0.0165
799.8049	0.0346
799.9755	0.0408
800.1462	0.0717
800.3168	0.0231
800.4874	0.0836
800.658	0.0791
800.8286	-0.0312
800.9991	0.0669
801.1696	0.0017
801.3402	-0.0548
801.5106	0.0074
801.6811	-0.0896
801.8516	-0.0696
802.022	0.1039
802.1924	-0.0614
802.3628	-0.0546
802.5332	0.0771
802.7035	-0.0172
802.8739	0.0346
803.0442	0.1047
803.2145	-0.0656
803.3847	0.0319
803.555	0.0352
803.7252	0.0458
803.8954	0.0153
804.0656	-0.0303
804.2358	-0.0075
804.4059	0.0812
804.5761	0.0725
804.7462	0.0354
804.9163	-0.0946
805.0864	0.0196
805.2564	0.0491
805.4264	-0.0406
805.5965	0.0923
805.7665	0.0056
805.9364	-0.0882
806.1064	0.0015
806.2763	0.025
806.4462	0.0554
806.6161	-0.0372
806.786	0.0262
806.9559	0.0583
807.1257	0.0143
807.2955	0.0538
807.4653	-0.0423
807.6351	0.0397
807.8048	-0.032
807.9746	-0.052
808.1443	0.0733
808.314	0.0612
808.4837	-0.0237
808.6533	0.0704
808.8229	-0.1263
808.9926	0.0018
809.1622	0.0169
809.3317	0.0126
809.5013	0.0941
809.6708	0.1157
809.8403	0.0709
810.0098	0.0905
810.1793	0.1744
810.3488	0.0963
810.5182	0.0309
810.6876	0.0142
810.857	-0.0881
811.0264	0.0302
811.1958	-0.0271
811.3651	-0.053
811.5344	-0.0894
811.7037	-0.0782
811.873	0.0753
812.0422	0.0634
812.2115	0.099
812.3807	0.0815
812.5499	0.1002
812.7191	0.1218
812.8882	0.1004
813.0574	-0.1421
813.2265	0.0005
813.3956	-0.0263
813.5646	-0.0461
813.7337	-0.078
813.9027	-0.0206
814.0718	0.0244
814.2407	-0.109
814.4097	0.064
814.5787	0.0276
814.7476	0.0794
814.9165	-0.0184
815.0854	0.1211
815.2543	-0.0523
815.4232	-0.1703
815.592	0.01
815.7608	0.0959
815.9296	0.0316
816.0984	0.1156
816.2671	-0.1088
816.4359	0.1449
816.6046	0.1356
816.7733	-0.0653
816.942	-0.0019
817.1106	-0.21
817.2793	-0.1156
817.4479	-0.0215
817.6165	-0.0573
817.785	0.0235
817.9536	0.0215
818.1221	0.0203
818.2906	0.1318
818.4591	0.047
818.6276	0.0845
818.7961	0.0239
818.9645	-0.0299
819.1329	0.8199
819.3013	-0.039
819.4697	0.0965
819.638	0.058
819.8064	-0.0116
819.9747	-0.075
820.143	-0.0195
820.3113	0.0826
820.4795	0.0775
820.6477	0.0005
820.816	-0.0365
820.9842	-0.11
821.1523	0.156
821.3205	0.0281
821.4886	-0.0207
821.6567	-0.0529
821.8248	0.0633
821.9929	0.0492
822.1609	0.0513
822.329	0.0209
822.497	0.0212
822.665	0.0005
822.833	0.0632
823.0009	0.0194
823.1688	0.0311
823.3367	-0.0811
823.5046	0.1525
823.6725	0.0288
823.8404	-0.0846
824.0082	0.0266
824.176	0.2317
824.3438	0.3093
824.5116	0.2965
824.6793	-0.0862
824.847	0.2395
825.0147	0.1673
825.1824	0.0982
825.3501	0.0007
825.5177	0.3432
825.6854	0.446
825.853	-0.0272
826.0206	-0.0833
826.1881	0.1589
826.3557	0.2561
826.5232	0.1465
826.6907	0.0818
826.8582	-0.1903
827.0257	0.0991
827.1931	0.1051
827.3605	0.1956
827.528	-0.0888
827.6953	0.0212
827.8627	-0.0339
828.03	0.1585
828.1974	-0.1273
828.3647	0.079
828.532	0.2096
828.6992	0.0169
828.8665	-0.0514
829.0337	0.0235
829.2009	0.2477
829.3681	0.0449
829.5352	0.084
829.7024	-0.1429
829.8695	0.0097
830.0366	0.034
830.2037	0.1183
830.3707	-0.1135
830.5378	0.3296
830.7048	-0.3059
830.8718	0.2956
831.0388	0.0924
831.2057	-0.2134
831.3727	0.3168
831.5396	0.0088
831.7065	0.2245
831.8734	-0.3185
832.0402	0.2859
832.2071	0.9236
832.3739	0.2668
832.5407	-0
832.7075	0.3122
832.8742	-0
833.041	-0.0779
833.2077	0.1773
833.3744	0.1766
833.541	-0.0109
833.7077	0.0055
833.8743	-0.0933
834.0409	0.084
834.2075	0.2729
834.3741	0.1323
834.5407	-0.202
834.7072	0.1363
834.8737	0.0965
835.0402	0.2398
835.2067	0.0771
835.3731	0.0892
835.5395	0.0183
835.706	0.0569
835.8723	-0.161
836.0387	0.1606
836.2051	0.163
836.3714	-0.1529
836.5377	-0.1961
836.704	0.1069
836.8703	0.4705
837.0365	0.665
837.2027	-0.1551
837.3689	-0
837.5351	-0.2082
837.7013	0.0371
837.8674	-0.5501
838.0335	0.0476
838.1997	-0.0791
838.3657	-0
838.5318	-0.4653
838.6978	-0
838.8639	0.1807
839.0299	0.1787
839.1958	-0.063
839.3618	1.3736
839.5277	0.216
839.6937	-0.093
839.8596	0.3414
840.0254	0.2728
840.1913	1.5077
840.3571	-0.4961
840.523	0.8097
840.6888	0.3509
840.8545	0.3386
841.0203	-0.0753
841.186	0.2585
841.3517	0.3339
841.5174	0.5596
841.6831	0.4547
841.8488	0.0011
842.0144	0.5942
842.18	-0.0221
842.3456	0.3982
842.5112	0.411
842.6767	-0.0573
842.8422	0.2337
843.0077	0.4708
843.1732	-0.1929
843.3387	0.0406
843.5042	-0
843.6696	0.6258
843.835	-0.0625
844.0004	0.0712
844.1657	-0
844.3311	-0.1691
844.4964	0.0876
844.6617	-0
844.827	1.1071
844.9923	0.0901
845.1575	-0
845.3227	0.291
845.4879	0.2923
845.6531	-0.3714
845.8183	0.8577
845.9834	-0.0872
846.1485	0.1325
846.3136	0.5579
846.4787	0.0245
846.6438	3.0048
846.8088	-0
846.9738	-0
847.1388	-0.0414
847.3038	0.0021
847.4687	-0
847.6337	0.0668
847.7986	0.6238
847.9635	0.1548
848.1284	-0
848.2932	-0.3977
848.458	0.041
848.6228	0.5873
848.7876	0.5366
848.9524	-0.2827
849.1172	-0.079
849.2819	-0.1282
849.4466	-0
849.6113	-0.1865
849.7759	-0
849.9406	-0.2583
850.1052	-0.2218
850.2698	-0
850.4344	1.5807
850.599	0.4339
850.7635	-0
850.928	0.5545
851.0925	-0
851.257	-0.5598
851.4215	-0
851.5859	0.3404
851.7503	-0
851.9147	-0
852.0791	0.0245
852.2434	0.1164
852.4078	-0
852.5721	0.787
852.7364	-0.0677
852.9007	-0.1929
853.0649	0.0311
853.2291	0.151
853.3934	0.0116
853.5575	-0.1164
853.7217	-0.2313
853.8859	0.1633
854.05	-0.8718
854.2141	-0
854.3782	0.8652
854.5423	-0.2863
854.7063	0.0594
854.8703	0.2179
855.0343	0.0072
855.1983	0.1563
855.3623	-0.0723
855.5262	-0.6038
855.6901	0.3661
855.854	0.0852
856.0179	-0
856.1818	-0.4276
856.3456	-0
856.5094	-0
856.6732	-0
856.837	0.3256
857.0008	-0
857.1645	-0
857.3282	0.0668
857.4919	0.3464
857.6556	-0.0985
857.8192	-0.2375
857.9828	-0.2447
858.1465	0.0788
858.31	-0
858.4736	-0.2458
858.6372	-0.1939
858.8007	-0
858.9642	0.2885
859.1277	-0.6537
859.2911	0.2939
859.4546	-0
859.618	0.2725
859.7814	-0
859.9448	0.4771
860.1081	-0
860.2715	-0
860.4348	0.0835
860.5981	-0.3161
860.7614	-0
860.9246	0.0693
861.0879	-0.4703
861.2511	-0
861.4143	0.2031
861.5774	0.1361
861.7406	-0.3652
861.9037	-0
862.0668	-0
862.2299	-2.1472
862.393	0.4584
862.556	0.0929
862.7191	0.4598
862.8821	-0.1619
863.0451	0.0411
863.208	-0.2279
863.371	0.9503
863.5339	0.0301
863.6968	1.0534
863.8597	-1.1705
864.0225	-0
864.1854	-0.4551
864.3482	-0
864.511	-0.1322
864.6737	-0
864.8365	-0
864.9992	-0.3094
865.1619	0.0131
865.3246	0.8307
865.4873	0.0229
865.65	-0.8121
865.8126	-0
865.9752	-0.0304
866.1378	-0.0473
866.3004	0.6905
866.4629	-0
866.6254	-0
866.7879	0.4153
866.9504	-0
867.1129	-0
867.2753	-0.3162
867.4377	0.2639
867.6001	0.2295
867.7625	0.0501
867.9249	-0
868.0872	0.3164
868.2495	0.4771
868.4118	-0
868.5741	-0.0418
868.7363	1.5591
868.8986	0.7489
869.0608	0.7324
869.223	0.2576
869.3851	0.1471
869.5473	-0.9919
869.7094	-0
869.8715	-0.1729
870.0336	-0.059
870.1957	-0
870.3577	-0.1845
870.5197	-0.0896
870.6817	-0
870.8437	0.4207
871.0057	0.3255
871.1676	0.5549
871.3295	-0
871.4914	-0
871.6533	-0.2281
871.8151	-0
871.977	-0
872.1388	1.5911
872.3006	-0.0872
872.4623	-0.4666
872.6241	-0
872.7858	1.0477
872.9475	-0.6744
873.1092	0.2728
873.2709	-0
873.4325	-0
873.5941	-0
873.7557	-0
873.9173	-0
874.0789	0.1143
874.2404	-0.4738
874.4019	0.0188
874.5634	1.162
874.7249	-0
874.8863	-0.7977
875.0478	0.1838
875.2092	-0
875.3706	-0.0249
875.5319	-0.4328
875.6933	-0.0903
875.8546	-0.2295
876.0159	-0.1227
876.1772	0.1568
876.3385	-0
876.4997	-0
876.6609	-0.8912
876.8221	0.1284
876.9833	-0.0431
877.1445	-0.097
877.3056	0.0582
877.4667	-0
877.6278	-0
877.7889	0.3346
877.9499	-0
878.111	0.4167
878.272	-0.6368
878.433	2.233
878.5939	-0.1735
878.7549	-0
878.9158	-0
879.0767	0.382
879.2376	-1.0048
879.3984	0.918
879.5593	-0.1572
879.7201	0.7722
879.8809	-0
880.0417	0.1069
880.2024	-0.0549
880.3632	-0.4244
880.5239	0.3025
880.6846	-0.2124
880.8452	0.2334
881.0059	-0
881.1665	0.1953
881.3271	-0.4038
881.4877	0.4339
881.6483	-0
881.8088	0.0667
881.9693	0.5478
882.1298	0.5478
882.2903	0.5478
