Data from D4ACN5uM480nmA_Absorbance_12-07-59-802.txt Node
Date: Fri Feb 21 12:07:59 GMT 2025
User: LASERRRRR
Spectrometer: FLMT03099
Trigger mode: 0
Integration Time (sec): 1.500000E-2
Scans to average: 1
Electric dark correction enabled: true
Nonlinearity correction enabled: false
Boxcar width: 0
XAxis mode: Wavelengths
Number of Pixels in Spectrum: 3648
>>>>>Begin Spectral Data<<<<<
179.3399	-0
179.5586	-0
179.7771	-0
179.9957	0.3893
180.2143	-0.5189
180.4329	-0
180.6514	-0
180.8699	-0
181.0885	-0
181.307	-0.0155
181.5255	-0.163
181.744	-0.368
181.9625	-0
182.181	0.6764
182.3994	-0
182.6179	-0
182.8363	0.0125
183.0547	-0
183.2732	0.2194
183.4916	0.4242
183.71	0.2397
183.9284	0.1418
184.1467	0.1285
184.3651	0.304
184.5835	0.0726
184.8018	0.0986
185.0201	0.0519
185.2385	-0.0251
185.4568	0.0677
185.6751	0.1379
185.8934	0.4593
186.1117	0.1254
186.3299	0.3866
186.5482	0.6381
186.7664	0.208
186.9847	0.5284
187.2029	0.2968
187.4211	0.143
187.6393	0.205
187.8575	0.4896
188.0757	0.2475
188.2939	0.1619
188.512	0.1337
188.7302	0.7135
188.9483	0.3531
189.1665	0.3738
189.3846	0.0553
189.6027	0.3628
189.8208	0.1646
190.0389	0.5405
190.257	0.0744
190.475	0.121
190.6931	0.1606
190.9111	0.4148
191.1292	0.2044
191.3472	0.3232
191.5652	0.4381
191.7832	0.1976
192.0012	0.2925
192.2192	0.637
192.4371	0.3202
192.6551	0.3105
192.873	0.3597
193.091	0.2179
193.3089	0.1282
193.5268	0.6575
193.7447	0.5296
193.9626	0.6617
194.1805	0.2996
194.3984	0.4203
194.6162	0.3962
194.8341	0.6363
195.0519	0.4964
195.2697	0.7374
195.4875	0.528
195.7054	0.4095
195.9231	0.3506
196.1409	0.5247
196.3587	0.6421
196.5765	0.5138
196.7942	0.7248
197.012	0.4939
197.2297	0.5438
197.4474	0.778
197.6651	0.5299
197.8828	0.6467
198.1005	0.6699
198.3182	0.7177
198.5358	0.5143
198.7535	0.5736
198.9711	0.5851
199.1888	0.681
199.4064	0.5742
199.624	0.5616
199.8416	0.5637
200.0592	0.5756
200.2767	0.5601
200.4943	0.5923
200.7119	0.5941
200.9294	0.5948
201.1469	0.6699
201.3645	0.6289
201.582	0.5575
201.7995	0.6142
202.017	0.5909
202.2344	0.6122
202.4519	0.5923
202.6694	0.5708
202.8868	0.5653
203.1042	0.511
203.3217	0.5105
203.5391	0.5361
203.7565	0.5118
203.9739	0.4856
204.1913	0.5313
204.4086	0.5259
204.626	0.5206
204.8433	0.4945
205.0607	0.5368
205.278	0.5073
205.4953	0.5132
205.7126	0.5091
205.9299	0.4754
206.1472	0.4967
206.3644	0.4788
206.5817	0.4724
206.7989	0.4254
207.0162	0.4545
207.2334	0.4403
207.4506	0.4385
207.6678	0.4299
207.885	0.448
208.1022	0.4249
208.3194	0.42
208.5365	0.4592
208.7537	0.4827
208.9708	0.4588
209.1879	0.4088
209.405	0.4061
209.6222	0.4208
209.8392	0.4231
210.0563	0.4509
210.2734	0.4134
210.4905	0.4253
210.7075	0.4459
210.9245	0.391
211.1416	0.3995
211.3586	0.4294
211.5756	0.4206
211.7926	0.4037
212.0096	0.3946
212.2265	0.3961
212.4435	0.4295
212.6604	0.4004
212.8774	0.4126
213.0943	0.4036
213.3112	0.4183
213.5281	0.4169
213.745	0.3937
213.9619	0.3971
214.1788	0.4129
214.3956	0.4198
214.6125	0.3931
214.8293	0.4013
215.0461	0.4103
215.2629	0.4094
215.4798	0.3791
215.6965	0.3837
215.9133	0.3951
216.1301	0.4023
216.3469	0.3887
216.5636	0.3924
216.7803	0.4245
216.9971	0.4054
217.2138	0.4014
217.4305	0.4106
217.6472	0.4227
217.8639	0.4139
218.0805	0.4104
218.2972	0.4138
218.5138	0.4208
218.7305	0.3928
218.9471	0.3842
219.1637	0.4167
219.3803	0.4161
219.5969	0.4178
219.8135	0.4166
220.0301	0.4143
220.2466	0.4298
220.4632	0.4206
220.6797	0.4378
220.8962	0.4185
221.1127	0.4183
221.3292	0.4487
221.5457	0.4299
221.7622	0.4366
221.9787	0.4228
222.1951	0.4388
222.4116	0.4444
222.628	0.455
222.8444	0.4298
223.0608	0.4224
223.2772	0.4326
223.4936	0.4422
223.71	0.4532
223.9264	0.4411
224.1427	0.441
224.3591	0.4568
224.5754	0.4505
224.7917	0.4649
225.008	0.4436
225.2243	0.4674
225.4406	0.4627
225.6569	0.4573
225.8732	0.4538
226.0894	0.476
226.3057	0.4643
226.5219	0.4768
226.7381	0.4609
226.9543	0.4856
227.1705	0.452
227.3867	0.4816
227.6029	0.4826
227.8191	0.4782
228.0352	0.4896
228.2513	0.4946
228.4675	0.4735
228.6836	0.4919
228.8997	0.5006
229.1158	0.4811
229.3319	0.4938
229.548	0.4937
229.764	0.5086
229.9801	0.5064
230.1961	0.5124
230.4121	0.5095
230.6282	0.5012
230.8442	0.5166
231.0602	0.5208
231.2761	0.5206
231.4921	0.511
231.7081	0.5087
231.924	0.5167
232.14	0.5145
232.3559	0.5276
232.5718	0.5314
232.7877	0.5118
233.0036	0.5176
233.2195	0.5161
233.4353	0.5269
233.6512	0.5358
233.867	0.5309
234.0829	0.5409
234.2987	0.5282
234.5145	0.5242
234.7303	0.5214
234.9461	0.5354
235.1619	0.5484
235.3776	0.5406
235.5934	0.5273
235.8091	0.5282
236.0249	0.5336
236.2406	0.536
236.4563	0.5331
236.672	0.5442
236.8877	0.529
237.1034	0.5291
237.319	0.5489
237.5347	0.529
237.7503	0.5415
237.966	0.529
238.1816	0.536
238.3972	0.5461
238.6128	0.5485
238.8284	0.5329
239.0439	0.5372
239.2595	0.5313
239.475	0.5244
239.6906	0.526
239.9061	0.532
240.1216	0.5287
240.3371	0.5123
240.5526	0.5127
240.7681	0.5305
240.9836	0.5216
241.199	0.5161
241.4145	0.4954
241.6299	0.4876
241.8453	0.5004
242.0607	0.4867
242.2761	0.4826
242.4915	0.4709
242.7069	0.464
242.9223	0.4625
243.1376	0.4469
243.353	0.4492
243.5683	0.4392
243.7836	0.421
243.9989	0.4178
244.2142	0.4168
244.4295	0.4054
244.6448	0.4021
244.86	0.3879
245.0753	0.3781
245.2905	0.3753
245.5057	0.376
245.721	0.3616
245.9362	0.3537
246.1514	0.3377
246.3665	0.3432
246.5817	0.3366
246.7969	0.3266
247.012	0.3267
247.2271	0.3025
247.4423	0.3007
247.6574	0.3075
247.8725	0.3007
248.0876	0.2958
248.3026	0.2786
248.5177	0.2773
248.7328	0.2746
248.9478	0.2692
249.1628	0.271
249.3779	0.2645
249.5929	0.2537
249.8079	0.2529
250.0228	0.2525
250.2378	0.2517
250.4528	0.2488
250.6677	0.2394
250.8827	0.2386
251.0976	0.2475
251.3125	0.2352
251.5274	0.2323
251.7423	0.2264
251.9572	0.2216
252.172	0.2212
252.3869	0.2172
252.6017	0.215
252.8166	0.2217
253.0314	0.213
253.2462	0.2085
253.461	0.2141
253.6758	0.21
253.8906	0.2076
254.1053	0.2023
254.3201	0.2063
254.5348	0.2027
254.7496	0.214
254.9643	0.2044
255.179	0.2045
255.3937	0.1951
255.6083	0.2013
255.823	0.2009
256.0377	0.1995
256.2523	0.2001
256.467	0.1967
256.6816	0.1972
256.8962	0.1999
257.1108	0.195
257.3254	0.1904
257.54	0.1928
257.7545	0.1915
257.9691	0.1916
258.1836	0.1914
258.3981	0.1809
258.6127	0.1842
258.8272	0.1851
259.0417	0.1822
259.2561	0.1886
259.4706	0.1904
259.6851	0.1837
259.8995	0.1788
260.114	0.176
260.3284	0.1846
260.5428	0.1823
260.7572	0.1905
260.9716	0.18
261.186	0.1782
261.4003	0.1906
261.6147	0.1805
261.829	0.1794
262.0433	0.1789
262.2577	0.1917
262.472	0.1849
262.6863	0.1839
262.9005	0.1896
263.1148	0.1837
263.3291	0.1882
263.5433	0.1801
263.7576	0.186
263.9718	0.1873
264.186	0.1868
264.4002	0.1808
264.6144	0.1868
264.8286	0.1908
265.0427	0.1928
265.2569	0.185
265.471	0.19
265.6851	0.1801
265.8993	0.1854
266.1134	0.1889
266.3275	0.1779
266.5415	0.1869
266.7556	0.1782
266.9697	0.1837
267.1837	0.178
267.3978	0.1917
267.6118	0.1831
267.8258	0.1905
268.0398	0.179
268.2538	0.184
268.4677	0.1833
268.6817	0.178
268.8957	0.186
269.1096	0.1771
269.3235	0.1824
269.5374	0.1747
269.7514	0.182
269.9652	0.1815
270.1791	0.1822
270.393	0.1795
270.6068	0.167
270.8207	0.171
271.0345	0.178
271.2483	0.181
271.4622	0.1748
271.676	0.1752
271.8897	0.175
272.1035	0.1753
272.3173	0.1721
272.531	0.1747
272.7448	0.1714
272.9585	0.1768
273.1722	0.1773
273.3859	0.168
273.5996	0.1683
273.8133	0.1731
274.0269	0.1739
274.2406	0.1744
274.4542	0.1697
274.6679	0.172
274.8815	0.1731
275.0951	0.1717
275.3087	0.1725
275.5223	0.1662
275.7358	0.1774
275.9494	0.1747
276.1629	0.1743
276.3765	0.1748
276.59	0.1745
276.8035	0.1777
277.017	0.1757
277.2305	0.1724
277.444	0.1827
277.6574	0.1718
277.8709	0.1761
278.0843	0.1761
278.2978	0.1732
278.5112	0.1843
278.7246	0.1806
278.938	0.1791
279.1513	0.1791
279.3647	0.179
279.5781	0.175
279.7914	0.1774
280.0047	0.1733
280.2181	0.181
280.4314	0.1791
280.6447	0.1855
280.8579	0.179
281.0712	0.1793
281.2845	0.1885
281.4977	0.1877
281.711	0.1911
281.9242	0.1846
282.1374	0.1849
282.3506	0.1875
282.5638	0.1866
282.7769	0.1835
282.9901	0.1839
283.2033	0.1822
283.4164	0.1819
283.6295	0.1872
283.8426	0.1887
284.0557	0.1865
284.2688	0.1899
284.4819	0.1913
284.695	0.1906
284.908	0.1979
285.1211	0.1886
285.3341	0.1929
285.5471	0.1949
285.7601	0.1926
285.9731	0.187
286.1861	0.187
286.3991	0.1923
286.612	0.1947
286.825	0.1947
287.0379	0.1962
287.2508	0.1963
287.4637	0.1934
287.6766	0.1935
287.8895	0.1918
288.1024	0.1966
288.3152	0.1949
288.5281	0.1915
288.7409	0.1986
288.9538	0.1936
289.1666	0.1938
289.3794	0.2029
289.5922	0.1975
289.8049	0.2039
290.0177	0.2046
290.2304	0.2029
290.4432	0.1991
290.6559	0.1908
290.8686	0.1988
291.0813	0.2054
291.294	0.2009
291.5067	0.1986
291.7194	0.1949
291.932	0.1991
292.1447	0.1973
292.3573	0.1985
292.5699	0.2041
292.7825	0.1969
292.9951	0.2053
293.2077	0.2009
293.4203	0.2007
293.6328	0.2009
293.8454	0.1968
294.0579	0.2079
294.2704	0.2022
294.4829	0.1991
294.6954	0.1967
294.9079	0.2034
295.1204	0.1985
295.3328	0.2001
295.5453	0.1982
295.7577	0.2024
295.9701	0.2026
296.1825	0.1982
296.3949	0.2051
296.6073	0.2046
296.8197	0.2042
297.0321	0.1995
297.2444	0.2002
297.4567	0.1974
297.6691	0.198
297.8814	0.2007
298.0937	0.2029
298.306	0.197
298.5182	0.2027
298.7305	0.1956
298.9428	0.1969
299.155	0.1961
299.3672	0.2006
299.5794	0.1933
299.7916	0.1968
300.0038	0.1945
300.216	0.1993
300.4282	0.1896
300.6403	0.1925
300.8525	0.1991
301.0646	0.1941
301.2767	0.1976
301.4888	0.1962
301.7009	0.195
301.913	0.2036
302.125	0.1991
302.3371	0.1956
302.5491	0.1993
302.7612	0.1976
302.9732	0.1924
303.1852	0.1968
303.3972	0.1928
303.6092	0.1953
303.8211	0.1943
304.0331	0.1917
304.245	0.1889
304.457	0.1932
304.6689	0.1919
304.8808	0.1901
305.0927	0.1912
305.3046	0.1889
305.5164	0.1862
305.7283	0.1911
305.9401	0.1801
306.152	0.1795
306.3638	0.1773
306.5756	0.1849
306.7874	0.1827
306.9992	0.1779
307.2109	0.1753
307.4227	0.1706
307.6344	0.1804
307.8462	0.1733
308.0579	0.1663
308.2696	0.1589
308.4813	0.1647
308.693	0.157
308.9046	0.1608
309.1163	0.1658
309.328	0.1559
309.5396	0.1592
309.7512	0.1544
309.9628	0.1503
310.1744	0.1585
310.386	0.1501
310.5976	0.1449
310.8091	0.1493
311.0207	0.1456
311.2322	0.1497
311.4437	0.1459
311.6552	0.141
311.8667	0.1405
312.0782	0.1384
312.2897	0.1484
312.5012	0.1417
312.7126	0.1358
312.924	0.14
313.1355	0.1304
313.3469	0.1274
313.5583	0.126
313.7696	0.1305
313.981	0.1283
314.1924	0.1264
314.4037	0.1212
314.6151	0.1278
314.8264	0.1252
315.0377	0.1322
315.249	0.1222
315.4603	0.1271
315.6716	0.128
315.8828	0.1222
316.0941	0.1232
316.3053	0.1172
316.5165	0.1235
316.7277	0.1208
316.9389	0.1169
317.1501	0.12
317.3613	0.1165
317.5724	0.1143
317.7836	0.122
317.9947	0.1103
318.2058	0.1159
318.417	0.1175
318.6281	0.1185
318.8391	0.1153
319.0502	0.118
319.2613	0.1148
319.4723	0.1147
319.6834	0.1158
319.8944	0.1155
320.1054	0.1186
320.3164	0.1161
320.5274	0.1146
320.7383	0.1134
320.9493	0.1106
321.1602	0.112
321.3712	0.113
321.5821	0.1175
321.793	0.111
322.0039	0.1189
322.2148	0.1204
322.4257	0.1169
322.6365	0.1165
322.8474	0.117
323.0582	0.1171
323.269	0.1143
323.4798	0.1135
323.6906	0.1167
323.9014	0.1131
324.1122	0.1145
324.3229	0.1141
324.5337	0.1228
324.7444	0.1107
324.9551	0.1156
325.1658	0.1139
325.3765	0.1158
325.5872	0.1178
325.7979	0.116
326.0085	0.1195
326.2192	0.1173
326.4298	0.1234
326.6404	0.126
326.851	0.1225
327.0616	0.1234
327.2722	0.1249
327.4828	0.1128
327.6933	0.1195
327.9039	0.1186
328.1144	0.1165
328.3249	0.1201
328.5354	0.1241
328.7459	0.1211
328.9564	0.1193
329.1669	0.1214
329.3773	0.1204
329.5878	0.1234
329.7982	0.1237
330.0086	0.1233
330.219	0.1247
330.4294	0.1237
330.6398	0.1211
330.8502	0.1248
331.0605	0.1234
331.2708	0.1251
331.4812	0.1236
331.6915	0.1213
331.9018	0.1168
332.1121	0.1256
332.3224	0.1281
332.5326	0.1282
332.7429	0.1228
332.9531	0.1206
333.1633	0.1265
333.3735	0.1303
333.5837	0.1293
333.7939	0.1252
334.0041	0.1196
334.2143	0.1246
334.4244	0.1241
334.6346	0.1271
334.8447	0.1265
335.0548	0.1234
335.2649	0.1286
335.475	0.1302
335.685	0.1217
335.8951	0.1372
336.1051	0.1274
336.3152	0.1264
336.5252	0.1251
336.7352	0.1211
336.9452	0.1327
337.1552	0.1272
337.3652	0.1283
337.5751	0.1324
337.7851	0.1279
337.995	0.1277
338.2049	0.1303
338.4148	0.1282
338.6247	0.1324
338.8346	0.1236
339.0445	0.1309
339.2543	0.1341
339.4642	0.1359
339.674	0.1376
339.8838	0.1323
340.0936	0.1317
340.3034	0.1332
340.5132	0.14
340.7229	0.1388
340.9327	0.1358
341.1424	0.1367
341.3522	0.1399
341.5619	0.1383
341.7716	0.1344
341.9813	0.1411
342.1909	0.1415
342.4006	0.1399
342.6102	0.1369
342.8199	0.1346
343.0295	0.1376
343.2391	0.1424
343.4487	0.1426
343.6583	0.1475
343.8679	0.1435
344.0774	0.1425
344.287	0.1432
344.4965	0.1437
344.706	0.1476
344.9155	0.1445
345.125	0.149
345.3345	0.1371
345.544	0.1512
345.7534	0.1493
345.9629	0.1561
346.1723	0.1518
346.3817	0.1497
346.5911	0.1507
346.8005	0.1553
347.0099	0.1514
347.2193	0.1493
347.4286	0.1543
347.638	0.1497
347.8473	0.16
348.0566	0.1546
348.2659	0.1596
348.4752	0.1531
348.6845	0.1638
348.8937	0.1573
349.103	0.1488
349.3122	0.1597
349.5214	0.1587
349.7306	0.1582
349.9398	0.155
350.149	0.167
350.3582	0.1584
350.5674	0.1648
350.7765	0.1574
350.9856	0.1612
351.1948	0.1641
351.4039	0.1646
351.613	0.1725
351.822	0.1659
352.0311	0.1638
352.2402	0.1746
352.4492	0.1696
352.6582	0.1685
352.8672	0.1709
353.0762	0.1761
353.2852	0.1746
353.4942	0.1724
353.7032	0.1734
353.9121	0.1694
354.1211	0.1794
354.33	0.1757
354.5389	0.1758
354.7478	0.1762
354.9567	0.1805
355.1655	0.1755
355.3744	0.1787
355.5833	0.1827
355.7921	0.1826
356.0009	0.1849
356.2097	0.1876
356.4185	0.1931
356.6273	0.1817
356.8361	0.1988
357.0448	0.1845
357.2536	0.1912
357.4623	0.1889
357.671	0.1799
357.8797	0.1983
358.0884	0.1888
358.2971	0.1895
358.5057	0.1913
358.7144	0.1914
358.923	0.1912
359.1316	0.2017
359.3402	0.2012
359.5488	0.1992
359.7574	0.1948
359.966	0.1968
360.1746	0.2029
360.3831	0.2078
360.5916	0.1989
360.8002	0.2141
361.0087	0.2053
361.2172	0.2086
361.4256	0.197
361.6341	0.2202
361.8426	0.2122
362.051	0.2071
362.2594	0.2139
362.4678	0.216
362.6762	0.2239
362.8846	0.2287
363.093	0.2107
363.3014	0.2252
363.5097	0.2156
363.718	0.2249
363.9264	0.2288
364.1347	0.2309
364.343	0.2254
364.5513	0.2272
364.7595	0.2281
364.9678	0.2418
365.176	0.2257
365.3842	0.2294
365.5925	0.2277
365.8007	0.2303
366.0089	0.2382
366.217	0.2374
366.4252	0.2331
366.6333	0.2392
366.8415	0.2314
367.0496	0.236
367.2577	0.2366
367.4658	0.2469
367.6739	0.2403
367.882	0.2449
368.09	0.2432
368.2981	0.2443
368.5061	0.2527
368.7141	0.2565
368.9221	0.2502
369.1301	0.2602
369.3381	0.2567
369.5461	0.2536
369.754	0.252
369.962	0.2549
370.1699	0.2614
370.3778	0.2666
370.5857	0.2597
370.7936	0.2633
371.0015	0.2554
371.2093	0.2683
371.4172	0.2586
371.625	0.2691
371.8328	0.2668
372.0406	0.2623
372.2484	0.2631
372.4562	0.253
372.664	0.2715
372.8717	0.2662
373.0795	0.274
373.2872	0.2665
373.4949	0.2735
373.7026	0.2767
373.9103	0.2578
374.118	0.2747
374.3256	0.2793
374.5333	0.2751
374.7409	0.2694
374.9485	0.2762
375.1561	0.2883
375.3637	0.262
375.5713	0.2755
375.7789	0.2804
375.9864	0.2803
376.194	0.2927
376.4015	0.2922
376.609	0.286
376.8165	0.2912
377.024	0.2801
377.2315	0.2896
377.4389	0.2802
377.6464	0.2893
377.8538	0.2915
378.0612	0.2851
378.2686	0.2934
378.476	0.2897
378.6834	0.2872
378.8908	0.2936
379.0981	0.2983
379.3055	0.2979
379.5128	0.302
379.7201	0.2954
379.9274	0.2938
380.1347	0.3007
380.342	0.3071
380.5492	0.3016
380.7565	0.3035
380.9637	0.2923
381.1709	0.2991
381.3781	0.2967
381.5853	0.311
381.7925	0.3148
381.9997	0.3075
382.2068	0.2993
382.4139	0.2959
382.6211	0.3103
382.8282	0.3075
383.0353	0.2992
383.2424	0.3089
383.4494	0.3116
383.6565	0.3088
383.8635	0.3219
384.0706	0.3094
384.2776	0.3231
384.4846	0.3151
384.6916	0.3077
384.8986	0.3253
385.1055	0.3161
385.3125	0.3083
385.5194	0.302
385.7263	0.3071
385.9333	0.3113
386.1402	0.323
386.347	0.3118
386.5539	0.3257
386.7608	0.3175
386.9676	0.3157
387.1744	0.317
387.3813	0.3183
387.5881	0.3242
387.7948	0.311
388.0016	0.3139
388.2084	0.3124
388.4151	0.3166
388.6219	0.307
388.8286	0.3134
389.0353	0.2981
389.242	0.3061
389.4487	0.3142
389.6553	0.3108
389.862	0.3088
390.0686	0.3142
390.2753	0.3061
390.4819	0.3042
390.6885	0.3016
390.8951	0.3087
391.1016	0.3016
391.3082	0.289
391.5147	0.2997
391.7213	0.2948
391.9278	0.2996
392.1343	0.2961
392.3408	0.2943
392.5473	0.2898
392.7537	0.2971
392.9602	0.2872
393.1666	0.2936
393.373	0.2864
393.5794	0.2852
393.7858	0.283
393.9922	0.2886
394.1986	0.2777
394.4049	0.2887
394.6113	0.2778
394.8176	0.2731
395.0239	0.276
395.2302	0.2726
395.4365	0.2767
395.6428	0.2826
395.8491	0.2756
396.0553	0.2785
396.2615	0.2742
396.4678	0.2701
396.674	0.2576
396.8802	0.2731
397.0863	0.2655
397.2925	0.2708
397.4987	0.2638
397.7048	0.275
397.9109	0.2831
398.117	0.2663
398.3231	0.2756
398.5292	0.2717
398.7353	0.263
398.9413	0.2648
399.1474	0.2736
399.3534	0.2738
399.5594	0.2758
399.7654	0.268
399.9714	0.2722
400.1774	0.2674
400.3833	0.2674
400.5893	0.2667
400.7952	0.2643
401.0011	0.2628
401.207	0.2701
401.4129	0.2653
401.6188	0.2609
401.8247	0.2594
402.0305	0.252
402.2364	0.273
402.4422	0.2774
402.648	0.2719
402.8538	0.278
403.0596	0.2596
403.2654	0.2693
403.4711	0.2619
403.6768	0.265
403.8826	0.2696
404.0883	0.2595
404.294	0.2739
404.4997	0.2655
404.7054	0.2652
404.911	0.2741
405.1167	0.2676
405.3223	0.2729
405.5279	0.2618
405.7335	0.2594
405.9391	0.2677
406.1447	0.2701
406.3502	0.2705
406.5558	0.2733
406.7613	0.2679
406.9668	0.2622
407.1724	0.2657
407.3778	0.2649
407.5833	0.2622
407.7888	0.2709
407.9942	0.2659
408.1997	0.2713
408.4051	0.2671
408.6105	0.2748
408.8159	0.2634
409.0213	0.2642
409.2267	0.258
409.432	0.277
409.6374	0.2655
409.8427	0.2666
410.048	0.2585
410.2533	0.2684
410.4586	0.2687
410.6639	0.2665
410.8691	0.2776
411.0744	0.2599
411.2796	0.2695
411.4848	0.2596
411.69	0.2655
411.8952	0.2708
412.1004	0.2729
412.3056	0.2627
412.5107	0.2733
412.7158	0.2689
412.921	0.2632
413.1261	0.2644
413.3312	0.2561
413.5362	0.2609
413.7413	0.2638
413.9464	0.2556
414.1514	0.2561
414.3564	0.256
414.5614	0.2635
414.7664	0.2572
414.9714	0.2641
415.1764	0.2592
415.3813	0.253
415.5863	0.2626
415.7912	0.2695
415.9961	0.2639
416.201	0.2694
416.4059	0.2667
416.6108	0.2615
416.8156	0.2552
417.0205	0.2579
417.2253	0.2637
417.4301	0.2655
417.6349	0.253
417.8397	0.2588
418.0445	0.2715
418.2492	0.2515
418.454	0.2585
418.6587	0.2614
418.8634	0.2526
419.0681	0.2488
419.2728	0.2656
419.4775	0.2518
419.6822	0.2483
419.8868	0.2664
420.0915	0.2563
420.2961	0.2399
420.5007	0.2488
420.7053	0.2478
420.9099	0.2428
421.1144	0.2397
421.319	0.2574
421.5235	0.2455
421.728	0.238
421.9325	0.2437
422.137	0.2449
422.3415	0.2437
422.546	0.2368
422.7504	0.2413
422.9549	0.2436
423.1593	0.2295
423.3637	0.2303
423.5681	0.2377
423.7725	0.2413
423.9769	0.2413
424.1812	0.2389
424.3856	0.2351
424.5899	0.2306
424.7942	0.219
424.9985	0.2282
425.2028	0.232
425.4071	0.2115
425.6113	0.2312
425.8156	0.2259
426.0198	0.2272
426.224	0.232
426.4282	0.2251
426.6324	0.2191
426.8366	0.2232
427.0407	0.2192
427.2449	0.2229
427.449	0.2119
427.6531	0.2187
427.8572	0.2119
428.0613	0.2111
428.2654	0.2159
428.4694	0.1986
428.6735	0.2086
428.8775	0.2107
429.0815	0.2073
429.2855	0.1968
429.4895	0.2017
429.6935	0.192
429.8975	0.1978
430.1014	0.2019
430.3053	0.203
430.5093	0.1956
430.7132	0.1911
430.9171	0.1872
431.1209	0.1952
431.3248	0.1861
431.5286	0.1795
431.7325	0.1851
431.9363	0.1851
432.1401	0.1782
432.3439	0.1716
432.5477	0.1829
432.7514	0.175
432.9552	0.172
433.1589	0.1727
433.3627	0.1722
433.5664	0.1768
433.7701	0.1742
433.9737	0.1647
434.1774	0.1666
434.3811	0.1642
434.5847	0.1708
434.7883	0.1578
434.9919	0.1495
435.1955	0.1641
435.3991	0.1514
435.6027	0.1587
435.8062	0.1545
436.0098	0.1433
436.2133	0.1398
436.4168	0.141
436.6203	0.1367
436.8238	0.1554
437.0272	0.1307
437.2307	0.1275
437.4341	0.1358
437.6375	0.1227
437.841	0.1432
438.0443	0.1316
438.2477	0.1317
438.4511	0.1255
438.6545	0.1375
438.8578	0.1388
439.0611	0.1239
439.2644	0.1194
439.4677	0.1252
439.671	0.1226
439.8743	0.114
440.0775	0.1202
440.2808	0.1213
440.484	0.1033
440.6872	0.1101
440.8904	0.105
441.0936	0.1148
441.2967	0.099
441.4999	0.1098
441.703	0.1015
441.9062	0.098
442.1093	0.0985
442.3124	0.1048
442.5155	0.0942
442.7185	0.0858
442.9216	0.0968
443.1246	0.1007
443.3276	0.0901
443.5307	0.0945
443.7337	0.0842
443.9366	0.0854
444.1396	0.0836
444.3426	0.0886
444.5455	0.0702
444.7484	0.0742
444.9513	0.084
445.1542	0.0763
445.3571	0.0773
445.56	0.069
445.7628	0.0793
445.9657	0.0701
446.1685	0.0711
446.3713	0.0635
446.5741	0.0557
446.7769	0.0772
446.9797	0.0688
447.1824	0.0708
447.3852	0.0557
447.5879	0.0641
447.7906	0.0562
447.9933	0.0671
448.196	0.0507
448.3986	0.0499
448.6013	0.0523
448.8039	0.0536
449.0066	0.0523
449.2092	0.0526
449.4118	0.0488
449.6143	0.0457
449.8169	0.0473
450.0195	0.0499
450.222	0.0488
450.4245	0.0546
450.627	0.0455
450.8295	0.0437
451.032	0.0419
451.2345	0.0443
451.4369	0.0439
451.6394	0.0403
451.8418	0.0454
452.0442	0.0409
452.2466	0.0351
452.449	0.0351
452.6513	0.0375
452.8537	0.044
453.056	0.0398
453.2583	0.0288
453.4607	0.0321
453.663	0.0343
453.8652	0.0337
454.0675	0.0312
454.2697	0.032
454.472	0.0355
454.6742	0.027
454.8764	0.0298
455.0786	0.0274
455.2808	0.0303
455.4829	0.0237
455.6851	0.0226
455.8872	0.0301
456.0893	0.0309
456.2915	0.0145
456.4935	0.0214
456.6956	0.0238
456.8977	0.0198
457.0997	0.0276
457.3018	0.0273
457.5038	0.0167
457.7058	0.0224
457.9078	0.0225
458.1098	0.0246
458.3117	0.0242
458.5137	0.0328
458.7156	0.0327
458.9175	0.0203
459.1194	0.0247
459.3213	0.0158
459.5232	0.0165
459.725	0.0148
459.9269	0.0115
460.1287	0.0122
460.3305	0.0111
460.5323	0.0134
460.7341	0.0181
460.9359	0.0177
461.1376	0.0155
461.3394	0.0117
461.5411	0.0087
461.7428	0.0123
461.9445	0.0101
462.1462	0.0144
462.3479	0.0114
462.5495	0.0121
462.7512	0.011
462.9528	0.0109
463.1544	0.01
463.356	0.0178
463.5576	0.0054
463.7592	0.0101
463.9607	0.0062
464.1623	0.0134
464.3638	0.0086
464.5653	0.0101
464.7668	0.0075
464.9683	0.0161
465.1697	0.0114
465.3712	0.0148
465.5726	0.0104
465.7741	0.0043
465.9755	0.0118
466.1769	0.001
466.3782	0.007
466.5796	0.0115
466.7809	0.0167
466.9823	0.0051
467.1836	0.0153
467.3849	0.0033
467.5862	-0.0014
467.7875	0.0146
467.9887	0.0079
468.19	0.0003
468.3912	0.0122
468.5924	0.0152
468.7936	-0.0022
468.9948	0.0088
469.196	0.0061
469.3972	0.0169
469.5983	0.0047
469.7994	0.0006
470.0006	0.0023
470.2017	0.0088
470.4027	0.0063
470.6038	0.0043
470.8049	0.0005
471.0059	0.0031
471.2069	0.0138
471.408	0.0043
471.6089	0.0068
471.8099	0.0052
472.0109	0.002
472.2119	0.0193
472.4128	0.0079
472.6137	-0.0011
472.8146	0.002
473.0155	-0.0038
473.2164	-0.0047
473.4173	0.0069
473.6181	0.0105
473.819	-0
474.0198	0.0025
474.2206	0.004
474.4214	0.0081
474.6222	0.0047
474.8229	0.0078
475.0237	0.0091
475.2244	0.0124
475.4251	0.0045
475.6258	0.0067
475.8265	-0.0017
476.0272	0.008
476.2278	0.0009
476.4285	0.0044
476.6291	0.0183
476.8297	-0.0049
477.0303	0.0073
477.2309	0.0023
477.4315	0.0122
477.632	-0.0002
477.8326	0.0009
478.0331	0.002
478.2336	0.0083
478.4341	0.006
478.6346	0.002
478.8351	0.0094
479.0355	0.0048
479.236	0.0027
479.4364	-0.0008
479.6368	0.0052
479.8372	0.0093
480.0376	0.0049
480.2379	0.0077
480.4383	-0.0039
480.6386	-0.0004
480.8389	0.0062
481.0392	0.0021
481.2395	0.0077
481.4398	0.0031
481.6401	0.0064
481.8403	-0.004
482.0405	0.0034
482.2408	0.0066
482.441	0.0009
482.6411	0.002
482.8413	-0.0017
483.0415	-0.0018
483.2416	0
483.4417	0.0013
483.6419	0.0114
483.8419	0.0023
484.042	0.001
484.2421	-0.001
484.4422	0.0002
484.6422	0.0087
484.8422	0.0033
485.0422	0.007
485.2422	-0.0018
485.4422	-0.002
485.6422	-0.0016
485.8421	-0.0015
486.042	0.0016
486.242	-0.0039
486.4419	0.0111
486.6417	0.0023
486.8416	0.0061
487.0415	-0.002
487.2413	0.0065
487.4411	0.0072
487.641	0.0014
487.8408	0.0072
488.0405	-0.0025
488.2403	-0.0002
488.4401	-0.0079
488.6398	0.0061
488.8395	0.0004
489.0392	0.0033
489.2389	0.0003
489.4386	0.0028
489.6383	0.0043
489.8379	0.0066
490.0376	0.0036
490.2372	0.0005
490.4368	0.0042
490.6364	0.0031
490.836	0.0018
491.0355	0.0051
491.2351	0.0016
491.4346	0.0042
491.6341	0.0011
491.8336	-0.0076
492.0331	-0.0012
492.2326	-0.0061
492.432	0.005
492.6315	-0.0019
492.8309	0.0111
493.0303	-0.0062
493.2297	-0.0046
493.4291	-0.004
493.6284	-0.0007
493.8278	0.0079
494.0271	0.0032
494.2264	0.0018
494.4257	-0.0001
494.625	-0.0001
494.8243	0.0055
495.0236	0.0002
495.2228	-0.0084
495.422	0.0059
495.6213	-0.0001
495.8205	-0.0014
496.0196	-0.0028
496.2188	0.0058
496.418	-0.0042
496.6171	0.0011
496.8162	-0.0071
497.0153	0.0067
497.2144	0.004
497.4135	-0.0015
497.6126	-0.0051
497.8116	-0.0008
498.0107	0.0064
498.2097	0.0101
498.4087	0.0063
498.6077	-0.0001
498.8067	0.0127
499.0056	-0.0008
499.2046	-0.0009
499.4035	-0.0031
499.6024	-0.0084
499.8013	-0.0014
500.0002	-0.0013
500.199	0.0041
500.3979	0.0124
500.5967	-0.0057
500.7956	0.0082
500.9944	0.002
501.1932	0.0053
501.3919	0.0081
501.5907	0.0026
501.7895	-0.0057
501.9882	-0.0031
502.1869	0.0055
502.3856	-0.0059
502.5843	-0.0029
502.783	0.0065
502.9816	-0.0032
503.1803	0.0104
503.3789	0.0046
503.5775	0.0045
503.7761	-0.0011
503.9747	-0.004
504.1732	0.0036
504.3718	-0.0014
504.5703	-0.0024
504.7689	-0.0061
504.9674	0.0004
505.1658	0.0062
505.3643	0.0029
505.5628	0.0073
505.7612	0.0011
505.9597	0.0045
506.1581	-0.0059
506.3565	-0.0091
506.5549	0.0019
506.7532	0.0065
506.9516	0.0029
507.1499	0.0002
507.3482	0.0083
507.5465	-0.0066
507.7448	0.0073
507.9431	-0.0022
508.1414	-0.0015
508.3396	-0.0003
508.5379	0.0079
508.7361	0.0019
508.9343	0.0063
509.1325	0.0095
509.3306	-0.0063
509.5288	0.0033
509.7269	-0.003
509.9251	0.0008
510.1232	-0.0056
510.3213	0.0008
510.5193	0.0022
510.7174	-0.0113
510.9154	0.008
511.1135	-0.0074
511.3115	0.0057
511.5095	-0.0044
511.7075	-0.0012
511.9055	0.0138
512.1034	0.0038
512.3014	-0.0066
512.4993	-0.012
512.6972	-0.0116
512.8951	0.0008
513.093	0.0014
513.2908	0.0013
513.4887	0.0031
513.6865	0.0014
513.8844	-0.0018
514.0822	0.0073
514.2799	-0.0004
514.4777	0.0099
514.6755	0.0054
514.8732	0.0003
515.0709	0.0047
515.2687	-0.0061
515.4664	-0.0087
515.664	0.0001
515.8617	0.0057
516.0594	0.0003
516.257	-0.0015
516.4546	-0.0097
516.6522	-0.0049
516.8498	0.0045
517.0474	-0.0041
517.2449	-0.0023
517.4425	0.0017
517.64	0.0101
517.8375	0.0104
518.035	-0.0078
518.2325	-0.0029
518.43	-0.0007
518.6274	-0.0057
518.8249	0.0067
519.0223	-0.0069
519.2197	0.0045
519.4171	0.0102
519.6145	0.0006
519.8118	0.0027
520.0092	-0.0014
520.2065	-0.0014
520.4038	-0.0027
520.6011	0.0027
520.7984	0.0003
520.9956	0.0047
521.1929	0.0041
521.3901	0.0117
521.5874	-0.004
521.7846	-0.0032
521.9818	-0.0091
522.1789	0.0077
522.3761	0.0029
522.5732	0.0002
522.7704	-0.0007
522.9675	-0.0056
523.1646	0.0006
523.3617	0.0084
523.5587	-0.0025
523.7558	0.0069
523.9528	0.0013
524.1498	0.0062
524.3468	-0.0064
524.5438	0.0032
524.7408	-0.0011
524.9378	0.0011
525.1347	0.0028
525.3316	0.0106
525.5285	0.0002
525.7254	-0.007
525.9223	-0.0037
526.1192	-0.0053
526.316	-0.011
526.5129	0.0024
526.7097	0.0009
526.9065	0.0078
527.1033	-0.006
527.3	-0.0113
527.4968	0.009
527.6935	0.0047
527.8903	0.0027
528.087	0.0093
528.2837	0.0072
528.4804	-0.0014
528.677	0.0016
528.8737	-0.0087
529.0703	0.0084
529.2669	0.0027
529.4635	0.0032
529.6601	-0.0042
529.8567	0.0036
530.0532	-0.0033
530.2498	-0.0044
530.4463	0.0071
530.6428	-0.0115
530.8393	-0.0006
531.0358	0.0013
531.2322	0.0168
531.4287	-0.0039
531.6251	-0.0001
531.8215	0.0027
532.0179	-0.0045
532.2143	0.0022
532.4107	0.0008
532.607	-0.0026
532.8034	0.0083
532.9997	-0
533.196	0.0156
533.3923	0.0028
533.5886	-0.0025
533.7848	-0.0123
533.9811	0.0001
534.1773	-0.0025
534.3735	0.002
534.5697	0.0019
534.7659	0.0009
534.9621	0.0062
535.1582	-0.0008
535.3544	0.0068
535.5505	-0.0023
535.7466	0.002
535.9427	-0.0104
536.1387	0.004
536.3348	0.0085
536.5308	0.0068
536.7269	0.0003
536.9229	-0.0067
537.1189	0.0029
537.3148	-0.0103
537.5108	-0.0056
537.7068	0.0074
537.9027	0.0146
538.0986	-0.005
538.2945	0.0014
538.4904	-0.0046
538.6863	0.0076
538.8821	-0.0045
539.078	-0.0069
539.2738	-0.0105
539.4696	0.0087
539.6654	0.0019
539.8611	-0.0052
540.0569	-0.0026
540.2526	-0.0024
540.4484	-0.0084
540.6441	-0.0029
540.8398	0.0002
541.0355	0.0056
541.2311	0.0063
541.4268	-0.0043
541.6224	-0.0008
541.818	-0.0088
542.0136	-0.005
542.2092	-0.0022
542.4048	0.0061
542.6003	0.0084
542.7959	-0.0027
542.9914	0.0031
543.1869	-0.0014
543.3824	-0.002
543.5779	0.0018
543.7734	-0.0107
543.9688	-0.0017
544.1642	-0.0011
544.3596	-0.0035
544.555	0.0053
544.7504	0.002
544.9458	0.0034
545.1411	-0.0001
545.3365	0.0091
545.5318	-0.0012
545.7271	0.0002
545.9224	-0.0016
546.1177	0.0053
546.3129	-0.0117
546.5081	-0.0095
546.7034	-0.0057
546.8986	0.0073
547.0938	-0.0015
547.289	0.0024
547.4841	-0.0014
547.6793	-0.0048
547.8744	-0.0024
548.0695	-0.0057
548.2646	-0.0068
548.4597	0.0001
548.6548	-0.001
548.8498	-0.0014
549.0448	0.0028
549.2399	-0.0059
549.4349	0.0076
549.6298	-0.0069
549.8248	-0.0038
550.0198	0.0022
550.2147	-0.001
550.4096	0.0068
550.6045	-0.0011
550.7994	0.0057
550.9943	-0.0002
551.1892	-0.006
551.384	0.0055
551.5788	0.0059
551.7737	-0.0097
551.9685	0.0043
552.1632	0.0092
552.358	0.0017
552.5528	-0.0086
552.7475	-0.0075
552.9422	-0.0053
553.1369	0.0022
553.3316	0.0056
553.5263	-0.01
553.7209	0.0014
553.9156	0.0041
554.1102	-0.0039
554.3048	-0.0019
554.4994	0.003
554.694	-0.0051
554.8885	0.005
555.0831	-0.0051
555.2776	-0.0034
555.4721	-0.0104
555.6666	-0.0004
555.8611	-0.008
556.0555	0.0071
556.25	0.0028
556.4444	-0.0002
556.6388	-0.0006
556.8332	-0.0004
557.0276	0.0124
557.222	-0.0105
557.4163	0.0074
557.6107	-0.0107
557.805	-0.0177
557.9993	-0.0002
558.1936	0.016
558.3879	-0.0032
558.5821	-0.0047
558.7764	0.0201
558.9706	0.0029
559.1648	0.0009
559.359	0.0056
559.5532	-0.0134
559.7473	0.0075
559.9415	0.0035
560.1356	0.003
560.3297	-0.0021
560.5238	-0.0032
560.7179	-0.0062
560.9119	0.0084
561.106	-0.0128
561.3	-0.0012
561.494	0.0016
561.688	0.0138
561.882	-0.0079
562.076	0.0042
562.2699	0.0076
562.4639	0.0005
562.6578	0.0066
562.8517	-0.0039
563.0456	-0.0013
563.2395	0.002
563.4333	-0.0019
563.6272	0.0063
563.821	0.0115
564.0148	-0.0057
564.2086	0.0103
564.4024	-0.0036
564.5961	-0.0054
564.7899	0.0008
564.9836	0.0023
565.1773	0.0011
565.371	-0.0015
565.5647	-0.0131
565.7584	0.0021
565.952	-0.0052
566.1456	0.0058
566.3393	0.0135
566.5329	0.0035
566.7264	0.0017
566.92	0.0015
567.1136	0.0069
567.3071	-0.0012
567.5006	-0.006
567.6941	0.0019
567.8876	0.0049
568.0811	-0.0075
568.2745	-0.0023
568.468	0.0017
568.6614	-0.0014
568.8548	-0.004
569.0482	0.0047
569.2416	-0.0041
569.4349	-0.0013
569.6283	0.0022
569.8216	-0.0001
570.0149	0.002
570.2082	-0.0034
570.4015	-0.0036
570.5947	-0.0005
570.788	-0.0028
570.9812	-0.004
571.1744	-0.0022
571.3676	-0.0026
571.5608	-0.0054
571.754	-0.0049
571.9471	0.0009
572.1402	-0.0013
572.3333	-0.0034
572.5264	0.003
572.7195	0.0093
572.9126	-0.0025
573.1057	-0.0008
573.2987	0.0024
573.4917	-0.0025
573.6847	-0.0018
573.8777	0.0007
574.0707	-0.0002
574.2636	-0.0031
574.4566	0.0021
574.6495	0.0042
574.8424	-0.0007
575.0353	-0.0003
575.2281	-0.0036
575.421	-0.0031
575.6138	-0.0019
575.8067	0.0039
575.9995	-0.001
576.1923	0.0007
576.385	0.0008
576.5778	-0.003
576.7706	0.0048
576.9633	0.0039
577.156	0.0023
577.3487	0.0018
577.5414	0.0001
577.734	0.0027
577.9267	-0.0007
578.1193	0.0022
578.3119	-0.005
578.5045	-0.0057
578.6971	-0.0015
578.8897	0.0013
579.0822	0.0041
579.2747	-0.0024
579.4673	0
579.6598	-0.0005
579.8522	0.0028
580.0447	-0.0003
580.2372	0.0071
580.4296	0
580.622	-0.0002
580.8144	-0.0005
581.0068	0.0011
581.1992	0.0025
581.3915	-0.0002
581.5839	0.0027
581.7762	0.0045
581.9685	-0.0028
582.1608	0.0024
582.353	0.0011
582.5453	-0.0025
582.7375	0.0003
582.9298	0.0017
583.122	-0.0024
583.3142	0.0033
583.5063	-0.0041
583.6985	-0.0006
583.8906	0.0002
584.0827	-0.0006
584.2749	0.0011
584.4669	-0.0004
584.659	-0.0015
584.8511	-0.0011
585.0431	0.0008
585.2352	-0.0079
585.4272	0.002
585.6192	0.0036
585.8111	-0.0083
586.0031	-0.0033
586.195	0.0041
586.387	0.0008
586.5789	0.0042
586.7708	-0.0018
586.9627	0.0005
587.1545	-0.0026
587.3464	-0.002
587.5382	-0.0009
587.73	0.0013
587.9218	-0.0022
588.1136	-0.0049
588.3053	-0.0039
588.4971	-0.0019
588.6888	-0.0004
588.8805	0.007
589.0722	0.0046
589.2639	-0.0012
589.4556	-0.0028
589.6472	0.0005
589.8389	0.0015
590.0305	0.0029
590.2221	0.0016
590.4137	-0.0033
590.6052	0.0028
590.7968	0.0002
590.9883	0.0021
591.1798	-0.0072
591.3713	0.0028
591.5628	-0.0065
591.7543	0.0021
591.9458	-0.0003
592.1372	-0.0008
592.3286	-0.0019
592.52	0.001
592.7114	-0.0068
592.9028	-0.0029
593.0941	-0.0042
593.2855	0.0029
593.4768	-0.0002
593.6681	0.0027
593.8594	-0.0007
594.0506	-0.0009
594.2419	-0.0045
594.4331	-0.007
594.6244	0.0028
594.8156	-0.0029
595.0067	0.0032
595.1979	-0.0094
595.3891	-0.0055
595.5802	-0.0005
595.7713	-0.0079
595.9624	0.0034
596.1535	0.0003
596.3446	0.0002
596.5357	0.0009
596.7267	0.003
596.9177	0.0056
597.1087	0.0038
597.2997	0.0011
597.4907	-0.0031
597.6817	-0.0033
597.8726	0.005
598.0635	-0.0032
598.2544	-0.0058
598.4453	-0.0036
598.6362	-0.003
598.827	0.0023
599.0179	0.0059
599.2087	-0.0043
599.3995	0.004
599.5903	0.003
599.7811	0.0005
599.9718	0.0045
600.1626	-0.0039
600.3533	-0.0051
600.544	-0.001
600.7347	-0.0004
600.9254	0.002
601.116	0.0022
601.3067	0.0058
601.4973	0.0067
601.6879	-0.0059
601.8785	-0.0026
602.0691	0.0011
602.2596	0.0024
602.4502	-0.0017
602.6407	-0.001
602.8312	0.0001
603.0217	0.002
603.2122	0.0041
603.4027	-0.0069
603.5931	-0.0006
603.7835	0.0022
603.9739	0.0038
604.1643	-0.0007
604.3547	0.0035
604.5451	0.0007
604.7354	-0.0053
604.9257	-0.0086
605.116	-0.0026
605.3063	-0.0011
605.4966	0.0037
605.6869	-0.0022
605.8771	0.0011
606.0673	-0.0041
606.2575	-0.0017
606.4477	0.0016
606.6379	0.002
606.8281	-0.0085
607.0182	0.0049
607.2083	-0.005
607.3985	0.006
607.5885	0.0026
607.7786	0.0049
607.9687	-0.0037
608.1587	-0.0006
608.3488	-0.0019
608.5388	0.0024
608.7288	0.0015
608.9187	0.0043
609.1087	0.0009
609.2986	-0.0039
609.4886	0.0006
609.6785	0.0001
609.8684	-0.0016
610.0582	-0.0019
610.2481	-0.0045
610.4379	0.0086
610.6278	-0.0036
610.8176	-0.0056
611.0074	-0.007
611.1971	0.0036
611.3869	-0.0017
611.5766	-0.0039
611.7664	0.0014
611.9561	0.0001
612.1458	-0.0032
612.3354	0.0095
612.5251	-0.0053
612.7147	0.0035
612.9044	-0.0046
613.094	-0.0008
613.2836	-0.0038
613.4731	-0.003
613.6627	-0.0024
613.8522	-0.0043
614.0417	-0.0025
614.2313	-0.0083
614.4207	0.0042
614.6102	-0.0067
614.7997	-0.004
614.9891	-0.0005
615.1785	-0.0019
615.3679	0.0028
615.5573	-0.0075
615.7467	-0.0037
615.9361	-0.0087
616.1254	-0.0056
616.3147	-0.0081
616.504	-0.003
616.6933	-0.0013
616.8826	0.0077
617.0718	-0.0041
617.2611	-0.0025
617.4503	-0.0037
617.6395	-0.0075
617.8287	0.004
618.0179	-0.0045
618.207	0.0013
618.3961	-0.01
618.5853	-0.0022
618.7744	0.0046
618.9634	0.0016
619.1525	-0.002
619.3416	-0.0074
619.5306	0.0018
619.7196	0.0018
619.9086	0.013
620.0976	0.0024
620.2866	0.0014
620.4755	0.0113
620.6645	-0.0085
620.8534	0.0002
621.0423	-0.0127
621.2312	-0.0117
621.42	0.0008
621.6089	-0.0031
621.7977	-0.0065
621.9865	0.0089
622.1753	-0.0021
622.3641	-0.0054
622.5529	-0.0134
622.7416	-0.0017
622.9303	-0.0041
623.1191	-0.0165
623.3078	-0.0038
623.4964	-0.0076
623.6851	0.0005
623.8737	0.0073
624.0624	-0.0008
624.251	0.002
624.4396	-0.0028
624.6282	-0.0006
624.8167	0.004
625.0053	0.0051
625.1938	-0.0038
625.3823	0.006
625.5708	-0.0125
625.7593	-0.0104
625.9477	-0.0125
626.1362	-0.0015
626.3246	-0.0106
626.513	0.0144
626.7014	-0.0162
626.8898	-0.0031
627.0781	0.0018
627.2665	0.0059
627.4548	-0.0155
627.6431	-0.0092
627.8314	-0.0007
628.0197	0.001
628.2079	-0.0028
628.3962	0.0057
628.5844	0.0094
628.7726	0.0008
628.9608	0.0089
629.1489	0.0037
629.3371	-0.009
629.5252	0.0084
629.7134	0.0029
629.9015	-0.0029
630.0895	0.0013
630.2776	-0.0028
630.4657	0.0028
630.6537	-0.0091
630.8417	-0.0031
631.0297	0.0017
631.2177	-0.0006
631.4057	-0.0035
631.5936	0.0005
631.7815	-0.0077
631.9695	0.0215
632.1574	-0.0067
632.3452	-0.0009
632.5331	-0.0017
632.7209	0.0113
632.9088	-0.0017
633.0966	0.0051
633.2844	0.0066
633.4722	0.0061
633.6599	-0.0129
633.8477	-0.0047
634.0354	-0.0045
634.2231	0.0152
634.4108	-0.0063
634.5985	-0.0097
634.7861	-0.0194
634.9738	-0.0032
635.1614	0.01
635.349	-0.0034
635.5366	-0.0108
635.7242	-0.0062
635.9117	0.0075
636.0993	-0.0167
636.2868	-0.0084
636.4743	0.0213
636.6618	-0.0091
636.8492	-0.0095
637.0367	-0.0029
637.2241	-0.0006
637.4115	-0.0069
637.5989	-0.0009
637.7863	-0.0238
637.9737	-0.0122
638.161	-0.009
638.3484	0.0008
638.5357	-0.0183
638.723	-0.008
638.9103	-0.0052
639.0975	0.0089
639.2848	0.0237
639.472	-0.0096
639.6592	0.0026
639.8464	0.0047
640.0336	0.0056
640.2208	-0.0147
640.4079	0.0145
640.595	-0.0153
640.7821	0.0093
640.9692	0.0108
641.1563	0.0063
641.3434	0.0104
641.5304	0.004
641.7174	0.005
641.9044	-0.0102
642.0914	-0.0234
642.2784	0.0067
642.4653	-0.014
642.6523	0.004
642.8392	-0.0025
643.0261	-0.0066
643.213	0.0051
643.3999	0.0025
643.5867	-0.0003
643.7735	0.0026
643.9604	-0.0235
644.1472	-0.0137
644.3339	-0.0067
644.5207	-0.0112
644.7075	0.0033
644.8942	0.0185
645.0809	-0.0143
645.2676	-0.0204
645.4543	-0.0134
645.6409	0.0023
645.8276	-0.0204
646.0142	0.0043
646.2008	-0.0073
646.3874	0.0111
646.574	-0.0395
646.7605	-0.0141
646.9471	-0.0012
647.1336	0.0007
647.3201	0.0057
647.5066	-0.0122
647.6931	-0.0021
647.8795	-0.006
648.0659	-0.0154
648.2524	-0.0031
648.4388	-0.0051
648.6252	-0.0133
648.8115	0.0141
648.9979	-0.0037
649.1842	-0.0274
649.3705	-0.0004
649.5568	-0.014
649.7431	0.006
649.9294	-0.0026
650.1156	-0.0135
650.3018	0.0091
650.488	0.0082
650.6742	-0.0031
650.8604	0.0132
651.0466	0.0011
651.2327	-0.0196
651.4188	-0.0218
651.6049	-0.0125
651.791	0.0137
651.9771	-0.0138
652.1632	0.009
652.3492	0.0053
652.5352	0.0109
652.7212	-0.0007
652.9072	-0.0133
653.0932	0.0077
653.2791	0.0113
653.465	-0.0261
653.651	0.0186
653.8369	0.0279
654.0227	-0.0123
654.2086	-0.0096
654.3944	-0.0324
654.5803	0.0004
654.7661	0.0006
654.9519	-0.0004
655.1377	0.0001
655.3234	0.0001
655.5092	0.0001
655.6949	0.0001
655.8806	0.0001
656.0663	0.0001
656.2519	0.0001
656.4376	0.0001
656.6232	0.0001
656.8088	0.0001
656.9945	0.0001
657.18	0.0001
657.3656	0.0001
657.5511	0.0001
657.7367	0.0001
657.9222	0.0001
658.1077	0.0001
658.2932	0.0001
658.4786	0.0001
658.6641	0.0001
658.8495	0.0001
659.0349	0.0001
659.2203	0.0001
659.4057	0.0117
659.591	0.0648
659.7764	0.0089
659.9617	-0.005
660.147	-0.0001
660.3323	0.0001
660.5176	0.0017
660.7028	0.0006
660.888	0.0034
661.0733	0.0047
661.2585	0.0055
661.4436	-0.0006
661.6288	0.0022
661.8139	0.0064
661.9991	0.01
662.1842	0.0139
662.3693	-0.0054
662.5544	-0.0095
662.7394	0.0065
662.9245	-0.0077
663.1095	0.0102
663.2945	0.012
663.4795	-0.0198
663.6644	-0.0048
663.8494	0.01
664.0343	-0.0157
664.2193	-0.0268
664.4042	-0.002
664.589	-0.0238
664.7739	-0.0174
664.9587	0.0034
665.1436	-0.005
665.3284	-0.0066
665.5132	0.007
665.698	-0.0264
665.8827	-0.0095
666.0675	-0.0181
666.2522	0.0271
666.4369	-0.0196
666.6216	-0.0241
666.8063	-0.0082
666.9909	-0.0032
667.1756	-0.0136
667.3602	-0.0284
667.5448	-0.0075
667.7294	0.0036
667.9139	-0.0057
668.0985	-0.007
668.283	-0.0141
668.4675	-0.0192
668.652	-0.0277
668.8365	0.0089
669.0209	-0.0234
669.2054	-0.0069
669.3898	0.01
669.5742	0.0139
669.7586	0.0065
669.943	-0.0279
670.1273	0.0103
670.3117	0.012
670.496	0.0025
670.6803	-0.001
670.8646	-0.0153
671.0488	-0.0006
671.2331	-0.0054
671.4173	-0.0008
671.6015	-0.0094
671.7857	-0.0156
671.9699	0.0131
672.1541	-0.0109
672.3382	-0.0032
672.5223	0.0073
672.7064	0.0024
672.8905	-0.0137
673.0746	-0.0228
673.2587	-0.0083
673.4427	-0.0154
673.6267	0.0028
673.8107	-0.0188
673.9947	-0.0121
674.1787	0.0188
674.3626	-0.0101
674.5465	-0.0024
674.7304	-0.0229
674.9143	0.0075
675.0982	0.0082
675.2821	0.021
675.4659	-0.0007
675.6497	0.0085
675.8335	-0.0086
676.0173	-0.0022
676.2011	-0.0108
676.3849	0.0088
676.5686	0.015
676.7523	-0.0001
676.936	-0.0208
677.1197	-0.0068
677.3034	0.0029
677.487	0.0023
677.6706	-0.0267
677.8542	-0.0021
678.0378	0.0093
678.2214	0.0004
678.405	-0.0049
678.5885	-0.0031
678.772	-0.0271
678.9555	-0.0107
679.139	-0.0108
679.3225	-0.0099
679.5059	-0.0074
679.6894	-0.0162
679.8728	-0.0184
680.0562	-0.0007
680.2395	-0.0237
680.4229	-0.0134
680.6062	-0.0036
680.7896	-0.0072
680.9729	0.0166
681.1562	-0.0145
681.3394	-0.0091
681.5227	-0.0204
681.7059	-0.0024
681.8891	-0.0126
682.0723	-0.0113
682.2555	0.0199
682.4387	0.0159
682.6218	-0.0231
682.805	-0.0036
682.9881	-0.0034
683.1712	0.014
683.3542	-0.0218
683.5373	-0.008
683.7203	0.0139
683.9034	-0.0126
684.0864	0.0035
684.2694	-0.004
684.4523	-0.0076
684.6353	0.0117
684.8182	0.0123
685.0011	-0.0127
685.184	-0.0107
685.3669	-0.014
685.5498	0.0143
685.7326	-0.0156
685.9154	-0.0007
686.0982	0.0074
686.281	-0.0188
686.4638	0.0097
686.6465	0.0108
686.8293	-0.0083
687.012	-0.0051
687.1947	-0.006
687.3774	-0.0143
687.56	0.0026
687.7427	-0.0017
687.9253	0.0016
688.1079	0.0046
688.2905	0.0023
688.4731	0.0014
688.6556	-0.0212
688.8382	-0.0026
689.0207	-0.008
689.2032	-0.0165
689.3857	0.0073
689.5681	-0.018
689.7506	-0.0055
689.933	0.0104
690.1154	0.0026
690.2978	-0.0101
690.4802	0.011
690.6626	-0.0064
690.8449	-0.0229
691.0272	-0.015
691.2095	-0.0164
691.3918	0.0018
691.5741	0.0142
691.7563	0.0145
691.9386	-0.0138
692.1208	0.0048
692.303	0.0128
692.4852	-0.0116
692.6673	-0.0124
692.8495	-0.0092
693.0316	-0.0186
693.2137	0.035
693.3958	0.0026
693.5778	-0.0144
693.7599	-0.0235
693.9419	0.0053
694.1239	-0.0104
694.3059	-0.0141
694.4879	-0.0011
694.6699	-0.0012
694.8518	0.0071
695.0337	0.003
695.2157	-0.0254
695.3975	-0.0049
695.5794	-0.0128
695.7613	0.0042
695.9431	0.0023
696.1249	-0.0119
696.3067	-0.0043
696.4885	-0.0082
696.6703	0.0036
696.852	-0.0195
697.0337	-0.007
697.2154	0.0036
697.3971	0.0093
697.5788	0.0133
697.7605	0.0035
697.9421	-0.0047
698.1237	0.0136
698.3053	0.0137
698.4869	0.0018
698.6685	-0.0039
698.85	-0.0152
699.0315	-0.0118
699.213	0.0037
699.3945	0.0152
699.576	-0.0113
699.7575	-0.0227
699.9389	-0.0161
700.1203	-0.0091
700.3017	-0.0155
700.4831	0.0059
700.6645	-0.0073
700.8458	0.0026
701.0271	-0.0087
701.2084	-0.0361
701.3897	0.0076
701.571	-0.0072
701.7523	-0.0171
701.9335	0.0027
702.1147	-0.0143
702.2959	0.0017
702.4771	-0.0096
702.6583	-0.0047
702.8394	-0.0099
703.0205	-0.0095
703.2016	-0.0154
703.3827	0.0073
703.5638	-0.0082
703.7449	0.0011
703.9259	-0.0031
704.1069	0.0003
704.2879	0.0077
704.4689	-0.0028
704.6499	-0.028
704.8308	-0.0167
705.0117	-0.0253
705.1927	-0.0132
705.3735	0.0052
705.5544	-0.0112
705.7353	0.017
705.9161	-0.0026
706.0969	-0.0212
706.2777	-0.0052
706.4585	-0.019
706.6393	0.0008
706.82	-0.008
707.0007	0.0035
707.1815	-0.0028
707.3621	0.0115
707.5428	0.0206
707.7235	0.0093
707.9041	-0.0077
708.0847	-0.0129
708.2653	-0.0056
708.4459	-0.0067
708.6265	-0.012
708.807	-0.0077
708.9875	-0.0016
709.168	-0.0216
709.3485	0.0052
709.529	0.027
709.7095	0.0087
709.8899	0.0215
710.0703	-0.0139
710.2507	-0.002
710.4311	0.0002
710.6115	-0.0004
710.7918	-0.0109
710.9721	0.0086
711.1524	-0.0152
711.3327	-0.0025
711.513	-0.0162
711.6932	-0.021
711.8735	0.0194
712.0537	0.0165
712.2339	0.0095
712.4141	-0.0009
712.5942	0.0187
712.7744	-0.0087
712.9545	0.0166
713.1346	-0.01
713.3147	-0.02
713.4947	-0.0073
713.6748	0.0057
713.8548	-0.0099
714.0348	0.0162
714.2148	-0.0068
714.3948	-0.0004
714.5748	-0.0194
714.7547	-0.0051
714.9346	-0.0161
715.1145	-0.0224
715.2944	-0.0116
715.4743	0.0048
715.6541	-0.0384
715.834	0.028
716.0138	0.0018
716.1936	0.002
716.3733	-0.0122
716.5531	-0.0092
716.7328	-0.0226
716.9126	-0.0355
717.0923	-0.0174
717.2719	-0.0076
717.4516	-0.0407
717.6312	-0.0266
717.8109	0.0197
717.9905	-0.0098
718.1701	-0.0143
718.3496	0.0014
718.5292	-0.0136
718.7087	0.0164
718.8882	0.0187
719.0677	-0.02
719.2472	-0.0086
719.4267	0.0055
719.6061	-0.0077
719.7856	0.0116
719.965	0.0203
720.1443	-0.0196
720.3237	0.0364
720.5031	0.0063
720.6824	-0.0001
720.8617	0.0059
721.041	0.0092
721.2203	-0.0033
721.3995	-0.0096
721.5788	-0.0208
721.758	-0.0199
721.9372	0.0069
722.1164	0.0161
722.2956	0.0016
722.4747	0.0206
722.6538	0.0051
722.8329	-0.0499
723.012	0.0347
723.1911	-0.0018
723.3702	-0.0433
723.5492	-0.0115
723.7282	-0.0099
723.9072	-0.0172
724.0862	-0.0056
724.2652	-0.0149
724.4441	-0.0094
724.623	-0.0102
724.8019	0.0102
724.9808	0.0006
725.1597	0.0098
725.3385	-0.0015
725.5174	0.0345
725.6962	0.0449
725.875	-0.0065
726.0538	-0.0023
726.2325	-0.003
726.4112	0.0147
726.59	-0.0098
726.7687	0.0137
726.9474	-0.0072
727.126	-0.0257
727.3047	0.0129
727.4833	0.0295
727.6619	0.036
727.8405	0.009
728.0191	-0.0463
728.1976	-0.0184
728.3762	-0.0201
728.5547	0.005
728.7332	0.001
728.9116	-0.0612
729.0901	-0.0106
729.2686	-0.0094
729.447	-0.0282
729.6254	0.049
729.8038	-0.0249
729.9821	-0.0047
730.1605	-0.0133
730.3388	-0.0229
730.5171	-0.0105
730.6954	0.0099
730.8737	0.0081
731.0519	-0.0056
731.2302	-0.0113
731.4084	-0.0001
731.5866	-0.0188
731.7648	-0.0199
731.9429	-0.0143
732.1211	-0.0118
732.2992	-0.0066
732.4773	-0.0142
732.6554	-0.0142
732.8335	0.0063
733.0115	-0.0089
733.1896	-0.01
733.3676	0.0104
733.5456	-0.0024
733.7235	0.0137
733.9015	-0.0001
734.0794	-0.0047
734.2574	-0.0037
734.4353	-0.0066
734.6131	0.0061
734.791	0.0179
734.9689	0.005
735.1467	-0.013
735.3245	0.0027
735.5023	0.0096
735.68	-0.0121
735.8578	-0.0076
736.0355	-0.0001
736.2132	0.0061
736.3909	-0.0082
736.5686	-0.0055
736.7463	-0.0048
736.9239	-0.0081
737.1015	-0.0147
737.2791	-0.023
737.4567	-0.005
737.6343	-0.0058
737.8118	0.0036
737.9894	-0.0008
738.1669	-0.0048
738.3444	-0.0096
738.5218	-0.0029
738.6993	-0.0044
738.8767	-0.0045
739.0541	0.0086
739.2315	0.0048
739.4089	0.0032
739.5863	0.0159
739.7636	0.0023
739.9409	-0.0078
740.1182	0.0026
740.2955	-0.0378
740.4728	-0.013
740.65	-0.002
740.8272	-0.0556
741.0044	-0.0042
741.1816	0.0019
741.3588	0.0154
741.5359	0.0138
741.7131	0.0249
741.8902	-0.0155
742.0673	-0.004
742.2444	0.0019
742.4214	-0.0049
742.5985	-0.0231
742.7755	-0.0259
742.9525	0.0076
743.1295	-0.0334
743.3064	0.0027
743.4834	0.0009
743.6603	0.0014
743.8372	-0.0068
744.0141	0.0093
744.191	-0.0151
744.3678	-0.006
744.5446	-0.0131
744.7215	-0.0071
744.8982	0.0312
745.075	0.0313
745.2518	0.0013
745.4285	-0.0149
745.6052	0.0272
745.7819	0.0184
745.9586	0.023
746.1353	-0.0219
746.3119	0.0199
746.4885	0.0131
746.6651	-0.0299
746.8417	-0.0155
747.0183	0.0113
747.1948	-0.0055
747.3714	0.0227
747.5479	-0.018
747.7244	-0.0648
747.9008	0.0117
748.0773	-0.0035
748.2537	0.0267
748.4301	-0.0157
748.6065	-0.0449
748.7829	-0.0061
748.9593	0.0003
749.1356	-0.0008
749.3119	-0.0147
749.4882	-0.0122
749.6645	0.0162
749.8408	-0.0294
750.017	-0.0167
750.1933	0.0276
750.3695	0.0101
750.5457	-0.0144
750.7218	0.0134
750.898	-0.0198
751.0741	-0.0221
751.2502	0.0225
751.4263	-0.0008
751.6024	0.0247
751.7784	-0.04
751.9545	-0.0574
752.1305	-0.0142
752.3065	0.0111
752.4825	-0.0295
752.6584	0.004
752.8344	-0.0059
753.0103	-0.0313
753.1862	0.0069
753.3621	-0.0035
753.5379	-0.0155
753.7138	-0.0111
753.8896	0.0414
754.0654	0.0017
754.2412	0.0235
754.417	-0.0093
754.5927	-0.0089
754.7685	-0.0326
754.9442	-0.0078
755.1199	0.01
755.2956	0.0002
755.4712	0.0096
755.6469	-0.0185
755.8225	0.0039
755.9981	-0.0019
756.1736	0.0234
756.3492	0.0102
756.5248	-0.02
756.7003	-0.0025
756.8758	-0.0225
757.0513	-0.0182
757.2267	-0.0258
757.4022	-0.0055
757.5776	-0.0197
757.753	-0.0123
757.9284	-0.0174
758.1038	-0.0173
758.2791	-0.0098
758.4545	-0.01
758.6298	0.0035
758.8051	-0.0109
758.9803	-0.0215
759.1556	-0.0041
759.3308	-0.0106
759.506	0.0115
759.6812	-0.0117
759.8564	-0.0079
760.0316	0.0055
760.2067	-0.0172
760.3819	-0.0094
760.557	-0.0045
760.732	0.0178
760.9071	-0.022
761.0821	-0.008
761.2572	0.0104
761.4322	-0.0138
761.6072	-0.0274
761.7821	0.0036
761.9571	0.0059
762.132	-0.0001
762.3069	0.0068
762.4818	0.0342
762.6567	-0.013
762.8316	-0.0037
763.0064	-0.0081
763.1812	-0.0123
763.356	-0.0042
763.5308	0.0159
763.7055	0.0046
763.8803	-0.0295
764.055	-0.0131
764.2297	-0.0129
764.4044	0.0035
764.579	-0.0135
764.7537	0.0009
764.9283	-0.0183
765.1029	0.0064
765.2775	-0.0205
765.4521	0.0088
765.6266	-0.0368
765.8011	-0.0172
765.9756	0.0194
766.1501	0.0077
766.3246	0.0192
766.4991	-0.0185
766.6735	-0.0235
766.8479	0.0164
767.0223	0.0015
767.1967	-0.0385
767.371	0.0163
767.5454	0.033
767.7197	0.0129
767.894	-0.0244
768.0683	-0.0149
768.2425	-0.0188
768.4168	0.0307
768.591	0.0049
768.7652	-0.0223
768.9394	-0.0114
769.1135	-0.0379
769.2877	0.0054
769.4618	0.0241
769.6359	-0.0274
769.81	-0.03
769.984	0.0094
770.1581	0.0183
770.3321	-0.021
770.5061	0.0066
770.6801	0.006
770.8541	-0.0308
771.028	0.0006
771.202	-0.0378
771.3759	0.0157
771.5498	-0.0279
771.7236	-0.0062
771.8975	-0.0058
772.0713	0.0037
772.2451	-0.0204
772.4189	-0.0193
772.5927	-0.0175
772.7665	0.0209
772.9402	0.024
773.1139	-0.0007
773.2876	0.0031
773.4613	0.0365
773.635	-0.0267
773.8086	-0.0115
773.9822	0.0299
774.1558	-0.0109
774.3294	-0.0178
774.503	-0.0205
774.6765	-0.005
774.8501	0.0571
775.0236	-0.0216
775.1971	-0.0436
775.3705	-0.009
775.544	0.0078
775.7174	-0.011
775.8908	-0.0187
776.0642	0.0006
776.2376	-0.0587
776.4109	0.0323
776.5843	-0.0162
776.7576	-0.0011
776.9309	0.0199
777.1041	-0.0363
777.2774	0.0345
777.4506	-0.0352
777.6238	0.0206
777.797	0.0073
777.9702	0.0392
778.1434	0.0036
778.3165	-0.0122
778.4896	-0.0311
778.6627	0.036
778.8358	-0.0366
779.0089	0.0004
779.1819	-0.0002
779.3549	0.0154
779.5279	-0.0066
779.7009	0.01
779.8739	-0.041
780.0468	0.011
780.2197	-0.0431
780.3926	-0.0388
780.5655	-0.0342
780.7384	-0.0199
780.9112	-0.0002
781.0841	-0.0026
781.2569	-0.0035
781.4297	0.019
781.6024	-0.0257
781.7752	-0.0489
781.9479	-0.0079
782.1206	0.0117
782.2933	0.0267
782.466	0.0086
782.6386	0.0136
782.8113	-0.0079
782.9839	0.0108
783.1565	-0.0114
783.329	0.0015
783.5016	0.001
783.6741	-0.0131
783.8466	-0.0706
784.0191	0.0235
784.1916	0.0345
784.3641	-0.0033
784.5365	-0.0039
784.7089	-0.0275
784.8813	0.0303
785.0537	-0.0061
785.2261	-0.0079
785.3984	-0.0334
785.5707	0.0582
785.743	-0.0567
785.9153	0.0195
786.0876	-0.0213
786.2598	0.0093
786.432	0.0044
786.6042	0.0421
786.7764	-0.0261
786.9486	0.0045
787.1207	0.018
787.2928	0.0118
787.4649	-0.0214
787.637	0.0131
787.8091	-0.0138
787.9811	0.0424
788.1532	-0.0226
788.3252	-0.0212
788.4972	-0.0352
788.6691	0.0026
788.8411	-0.0032
789.013	-0.0251
789.1849	-0.0135
789.3568	-0.0088
789.5287	-0.033
789.7005	0.0245
789.8723	-0.0463
790.0442	-0.0401
790.2159	0.0594
790.3877	0.01
790.5595	-0.0278
790.7312	-0.0492
790.9029	-0.0163
791.0746	0.0122
791.2463	-0.0207
791.4179	-0.0507
791.5896	0.0143
791.7612	-0.0573
791.9328	-0.003
792.1044	-0.0823
792.2759	0.0416
792.4474	-0.0697
792.619	0.0622
792.7905	0.083
792.9619	-0.0115
793.1334	-0.0395
793.3048	-0.0112
793.4762	-0.0713
793.6476	-0.0288
793.819	-0.0188
793.9904	-0.0088
794.1617	0.0016
794.333	-0.0162
794.5043	-0.041
794.6756	0.0351
794.8469	-0.0188
795.0181	-0.0259
795.1893	-0.0239
795.3605	-0.003
795.5317	0.0051
795.7029	-0.0306
795.874	-0.0003
796.0452	-0.0219
796.2163	0.0283
796.3873	0.0562
796.5584	0.0207
796.7294	-0.1046
796.9005	-0.0376
797.0715	0.0622
797.2425	-0.075
797.4134	-0.0015
797.5844	0.0687
797.7553	0.0242
797.9262	-0.0155
798.0971	0.0008
798.2679	-0.0146
798.4388	-0.0466
798.6096	-0.0122
798.7804	-0.0043
798.9512	0.0637
799.122	0.0403
799.2927	-0.039
799.4635	0.0668
799.6342	-0.0338
799.8049	-0.0117
799.9755	0.0109
800.1462	0.0553
800.3168	-0.0333
800.4874	-0.0224
800.658	0.0978
800.8286	0.0116
800.9991	0.08
801.1696	-0.0418
801.3402	0.0469
801.5106	0.0828
801.6811	-0.0404
801.8516	0.0013
802.022	0.0311
802.1924	-0.0371
802.3628	-0.0213
802.5332	-0.0593
802.7035	0.0073
802.8739	0.0839
803.0442	0.0321
803.2145	0.0295
803.3847	-0.0317
803.555	-0.0005
803.7252	0.0322
803.8954	-0.002
804.0656	0.0117
804.2358	0.0606
804.4059	0.0539
804.5761	0.0674
804.7462	-0.0599
804.9163	-0.1437
805.0864	0.0011
805.2564	-0.0608
805.4264	-0.0282
805.5965	0.0223
805.7665	0.0298
805.9364	-0.0688
806.1064	0.0481
806.2763	0.0575
806.4462	0.0156
806.6161	0.0201
806.786	-0.0472
806.9559	0.0188
807.1257	-0.0332
807.2955	0.0278
807.4653	-0.0526
807.6351	-0.0542
807.8048	-0.0466
807.9746	-0.0299
808.1443	0.0365
808.314	0.0284
808.4837	0.0431
808.6533	-0.0092
808.8229	-0.0155
808.9926	-0.0309
809.1622	-0.0153
809.3317	-0.0679
809.5013	0.1165
809.6708	-0.0197
809.8403	0.0775
810.0098	0.0951
810.1793	0.0128
810.3488	0.0393
810.5182	-0.0272
810.6876	0.04
810.857	-0.1002
811.0264	-0.1006
811.1958	-0.0742
811.3651	-0.1077
811.5344	-0.0343
811.7037	-0.0304
811.873	0.0995
812.0422	0.0594
812.2115	0.1307
812.3807	-0.0351
812.5499	0.1017
812.7191	0.0529
812.8882	0.0052
813.0574	-0.2026
813.2265	-0.1483
813.3956	-0.0464
813.5646	0.0594
813.7337	-0.1237
813.9027	-0.0851
814.0718	0.0707
814.2407	-0.0679
814.4097	0.0594
814.5787	0.0114
814.7476	0.0081
814.9165	0.0075
815.0854	0.036
815.2543	-0.0577
815.4232	0.0151
815.592	0.0262
815.7608	0.0518
815.9296	-0.0009
816.0984	0.0586
816.2671	-0.1315
816.4359	0.1082
816.6046	0.1771
816.7733	0.0678
816.942	0.0228
817.1106	-0.1683
817.2793	-0.0894
817.4479	0.0133
817.6165	-0.0431
817.785	0.0663
817.9536	-0.0296
818.1221	0.0296
818.2906	0.1269
818.4591	-0.1142
818.6276	0.0142
818.7961	0.216
818.9645	0.0124
819.1329	0.1161
819.3013	0.0796
819.4697	0.1564
819.638	0.2732
819.8064	-0.0843
819.9747	-0.0444
820.143	-0.0731
820.3113	0.0429
820.4795	-0.0187
820.6477	0.0021
820.816	-0.016
820.9842	-0.0371
821.1523	0.0941
821.3205	0.0129
821.4886	-0.0103
821.6567	-0.0151
821.8248	-0.0177
821.9929	-0.0297
822.1609	0.0495
822.329	0.0768
822.497	-0.0894
822.665	0.2518
822.833	-0.0059
823.0009	-0.1166
823.1688	-0.188
823.3367	0.0555
823.5046	-0.0196
823.6725	0.097
823.8404	-0.2054
824.0082	0.025
824.176	0.1487
824.3438	0.1361
824.5116	0.1317
824.6793	-0.0253
824.847	0.0208
825.0147	-0.0874
825.1824	0.0962
825.3501	0.1315
825.5177	0.0285
825.6854	0.0485
825.853	-0.0355
826.0206	0.0637
826.1881	0.0822
826.3557	-0.0092
826.5232	0.0623
826.6907	0.0441
826.8582	-0.1349
827.0257	-0.2332
827.1931	0.1216
827.3605	-0.0014
827.528	-0.0277
827.6953	0.1139
827.8627	0.0257
828.03	0.0625
828.1974	0.07
828.3647	-0.0404
828.532	0.1356
828.6992	0.4537
828.8665	-0.1349
829.0337	0.065
829.2009	0.0926
829.3681	-0.0703
829.5352	-0.0337
829.7024	0.1504
829.8695	0.012
830.0366	0.1313
830.2037	0.0082
830.3707	0.2115
830.5378	-0.035
830.7048	-0.3074
830.8718	0.0825
831.0388	-0.0254
831.2057	-0.0801
831.3727	-0
831.5396	-0.1516
831.7065	-0.1215
831.8734	-0.4196
832.0402	-0.0702
832.2071	0.2896
832.3739	0.4027
832.5407	-0
832.7075	0.0198
832.8742	0.1604
833.041	0.0048
833.2077	-0.1477
833.3744	0.2144
833.541	0.0355
833.7077	-0.0498
833.8743	0.0077
834.0409	0.1076
834.2075	-0.0617
834.3741	0.3812
834.5407	-0.1704
834.7072	0.2593
834.8737	0.2038
835.0402	-0.4281
835.2067	0.0912
835.3731	0.0665
835.5395	0.0502
835.706	-0.0592
835.8723	0.0255
836.0387	0.0322
836.2051	0.1896
836.3714	-0.2858
836.5377	-0.1039
836.704	0.2616
836.8703	-0.1472
837.0365	0.776
837.2027	-0.6711
837.3689	0.1212
837.5351	-0.3213
837.7013	0.1557
837.8674	-0.2515
838.0335	0.1159
838.1997	0.2466
838.3657	-0
838.5318	-0.7229
838.6978	-0
838.8639	-0.0097
839.0299	0.3788
839.1958	-0.1363
839.3618	0.4233
839.5277	-0.2799
839.6937	-0.5484
839.8596	-0.0387
840.0254	0.3482
840.1913	-0
840.3571	-0.3977
840.523	0.0808
840.6888	0.0468
840.8545	0.1465
841.0203	-0.0784
841.186	-0.0021
841.3517	0.1984
841.5174	0.4793
841.6831	0.3879
841.8488	-0.1112
842.0144	0.2466
842.18	0.0304
842.3456	0.1212
842.5112	-0
842.6767	-0.314
842.8422	-0.0337
843.0077	-0.05
843.1732	-0.0264
843.3387	-0.1665
843.5042	0.51
843.6696	-0.0551
843.835	-0.2803
844.0004	-0.1388
844.1657	-0.2198
844.3311	-0
844.4964	-0
844.6617	-0
844.827	0.0788
844.9923	0.0391
845.1575	-0
845.3227	-0.0455
845.4879	-0.0484
845.6531	-0.4431
845.8183	0.4115
845.9834	0.2553
846.1485	-0.1621
846.3136	0.4888
846.4787	0.1944
846.6438	0.6564
846.8088	-1.5006
846.9738	-0
847.1388	-0.0932
847.3038	0.0492
847.4687	-0.8488
847.6337	0.4163
847.7986	0.1221
847.9635	-0.1738
848.1284	-0
848.2932	-0.4875
848.458	0.0258
848.6228	-0.2501
848.7876	-0
848.9524	0.3023
849.1172	-0.3233
849.2819	-0
849.4466	-0.133
849.6113	-0.2606
849.7759	-0
849.9406	-0.2618
850.1052	-0.3488
850.2698	-1.4543
850.4344	0.7356
850.599	0.158
850.7635	-0.1039
850.928	0.1097
851.0925	0.3666
851.257	-0.4167
851.4215	-0.1833
851.5859	-0.1515
851.7503	-0
851.9147	-0
852.0791	-0.1288
852.2434	-0.2538
852.4078	-0
852.5721	0.1985
852.7364	0.4944
852.9007	0.0199
853.0649	0.3393
853.2291	0.9366
853.3934	0.0484
853.5575	-0.228
853.7217	-0.5282
853.8859	-0
854.05	-0.9192
854.2141	-0
854.3782	0.7768
854.5423	-0.0226
854.7063	0.0646
854.8703	0.5674
855.0343	0.0103
855.1983	-0.0992
855.3623	0.0136
855.5262	-0.8988
855.6901	0.442
855.854	0.0073
856.0179	-0
856.1818	0.0366
856.3456	0.463
856.5094	-0
856.6732	-0
856.837	0.3712
857.0008	-0
857.1645	-0
857.3282	-0.1934
857.4919	-0.0868
857.6556	0.2523
857.8192	-0.2138
857.9828	-0.261
858.1465	0.7233
858.31	-0.8587
858.4736	0.0186
858.6372	0.1514
858.8007	-1.1739
858.9642	0.4579
859.1277	0.1556
859.2911	0.2429
859.4546	-0.089
859.618	-0
859.7814	-0
859.9448	-0
860.1081	-0
860.2715	-0
860.4348	-0.0821
860.5981	-0
860.7614	0.2234
860.9246	0.2584
861.0879	-0.2
861.2511	1.9438
861.4143	1.135
861.5774	0.2895
861.7406	-0.4483
861.9037	-0
862.0668	-0
862.2299	-1.2632
862.393	-0
862.556	-0.283
862.7191	0.1174
862.8821	-0.0372
863.0451	0.1603
863.208	0.274
863.371	-0
863.5339	-0.306
863.6968	-0.3525
863.8597	-0.6821
864.0225	-0
864.1854	0.1397
864.3482	0.2096
864.511	-0.0295
864.6737	-0
864.8365	0.0937
864.9992	-0.3192
865.1619	-0.0926
865.3246	-0.0144
865.4873	-0
865.65	-0
865.8126	0.1572
865.9752	0.1104
866.1378	-0.7888
866.3004	0.58
866.4629	-0.1944
866.6254	-1.2809
866.7879	0.0306
866.9504	-0
867.1129	0.7409
867.2753	0.3396
867.4377	1.0027
867.6001	0.0579
867.7625	0.1116
867.9249	-0
868.0872	-0.0046
868.2495	0.6001
868.4118	0.3814
868.5741	-0
868.7363	-0
868.8986	-0.2786
869.0608	0.142
869.223	-0.0797
869.3851	-0
869.5473	-1.4081
869.7094	-0
869.8715	-0
870.0336	-0.1642
870.1957	-0
870.3577	0.0506
870.5197	-0.1864
870.6817	-0
870.8437	1.0806
871.0057	-0
871.1676	0.1239
871.3295	-0
871.4914	0.1206
871.6533	-0
871.8151	-0.5643
871.977	-0
872.1388	-1.3779
872.3006	0.4572
872.4623	0.1477
872.6241	-1.9362
872.7858	-0.2729
872.9475	-0
873.1092	0.0444
873.2709	-0.0359
873.4325	-0
873.5941	-0.9876
873.7557	1.2095
873.9173	-0.5643
874.0789	-0.0692
874.2404	-0.6051
874.4019	-0.0654
874.5634	1.2812
874.7249	-0
874.8863	-0
875.0478	0.3368
875.2092	-0
875.3706	-0.173
875.5319	-0.1161
875.6933	0.4207
875.8546	-0
876.0159	-0.1181
876.1772	-0
876.3385	-0.2047
876.4997	-0.4528
876.6609	-0
876.8221	0.4808
876.9833	0.0518
877.1445	0.1139
877.3056	0.848
877.4667	-0
877.6278	-0
877.7889	-0.2168
877.9499	-0
878.111	0.2287
878.272	-0
878.433	-0.2708
878.5939	0.2889
878.7549	-0
878.9158	0.1842
879.0767	-0
879.2376	-0.3999
879.3984	-0.422
879.5593	-0.1791
879.7201	-0.3577
879.8809	-0.3925
880.0417	0.1833
880.2024	0.5722
880.3632	0.5838
880.5239	0.2209
880.6846	-0
880.8452	-0.033
881.0059	0.0151
881.1665	0.2724
881.3271	-0
881.4877	1.0283
881.6483	-0
881.8088	0.3227
881.9693	-0
882.1298	-0
882.2903	-0
