Data from D4ACN5uM480nmA_Absorbance_12-08-00-896.txt Node
Date: Fri Feb 21 12:08:00 GMT 2025
User: LASERRRRR
Spectrometer: FLMT03099
Trigger mode: 0
Integration Time (sec): 1.500000E-2
Scans to average: 1
Electric dark correction enabled: true
Nonlinearity correction enabled: false
Boxcar width: 0
XAxis mode: Wavelengths
Number of Pixels in Spectrum: 3648
>>>>>Begin Spectral Data<<<<<
179.3399	0.3136
179.5586	0.3136
179.7771	0.3136
179.9957	0.0745
180.2143	1.7404
180.4329	-0
180.6514	-0
180.8699	0.0229
181.0885	0.2027
181.307	0.3991
181.5255	0.0896
181.744	-0
181.9625	-0.3101
182.181	0.2708
182.3994	-0
182.6179	-0.8051
182.8363	0.4416
183.0547	-0.3424
183.2732	0.1522
183.4916	0.2228
183.71	0.2218
183.9284	0.15
184.1467	0.5605
184.3651	0.2463
184.5835	0.0424
184.8018	0.167
185.0201	0.613
185.2385	0.1246
185.4568	0.1862
185.6751	0.1603
185.8934	0.1192
186.1117	0.2293
186.3299	0.1568
186.5482	0.0778
186.7664	0.2744
186.9847	0.406
187.2029	0.5156
187.4211	0.1202
187.6393	0.3702
187.8575	0.2073
188.0757	0.3147
188.2939	0.05
188.512	0.2057
188.7302	0.3264
188.9483	0.2452
189.1665	0.3993
189.3846	0.0599
189.6027	0.098
189.8208	0.8508
190.0389	0.4087
190.257	0.0913
190.475	0.2185
190.6931	0.509
190.9111	0.3207
191.1292	0.2331
191.3472	0.2661
191.5652	0.5855
191.7832	0.3335
192.0012	0.4156
192.2192	0.2468
192.4371	0.3946
192.6551	0.341
192.873	0.2987
193.091	0.4133
193.3089	0.3752
193.5268	0.5105
193.7447	0.5579
193.9626	0.4145
194.1805	0.3463
194.3984	0.4197
194.6162	0.4814
194.8341	0.4534
195.0519	0.5535
195.2697	0.5021
195.4875	0.6046
195.7054	0.5031
195.9231	0.5838
196.1409	0.7022
196.3587	0.72
196.5765	0.5809
196.7942	0.7057
197.012	0.5263
197.2297	0.6384
197.4474	0.7074
197.6651	0.5202
197.8828	0.6494
198.1005	0.5966
198.3182	0.5785
198.5358	0.611
198.7535	0.5557
198.9711	0.6725
199.1888	0.589
199.4064	0.5802
199.624	0.6377
199.8416	0.5765
200.0592	0.5647
200.2767	0.5906
200.4943	0.6404
200.7119	0.5096
200.9294	0.5521
201.1469	0.6525
201.3645	0.6423
201.582	0.5661
201.7995	0.5491
202.017	0.5475
202.2344	0.5654
202.4519	0.564
202.6694	0.5318
202.8868	0.5319
203.1042	0.5272
203.3217	0.549
203.5391	0.5326
203.7565	0.5179
203.9739	0.5514
204.1913	0.5058
204.4086	0.568
204.626	0.5848
204.8433	0.5234
205.0607	0.5184
205.278	0.508
205.4953	0.4869
205.7126	0.4766
205.9299	0.5055
206.1472	0.4711
206.3644	0.4867
206.5817	0.448
206.7989	0.4848
207.0162	0.4237
207.2334	0.45
207.4506	0.4402
207.6678	0.4405
207.885	0.4392
208.1022	0.4747
208.3194	0.4486
208.5365	0.4794
208.7537	0.4358
208.9708	0.4477
209.1879	0.437
209.405	0.4208
209.6222	0.4159
209.8392	0.4257
210.0563	0.4163
210.2734	0.3864
210.4905	0.4148
210.7075	0.4578
210.9245	0.4238
211.1416	0.4063
211.3586	0.3936
211.5756	0.4358
211.7926	0.4216
212.0096	0.4011
212.2265	0.4253
212.4435	0.4393
212.6604	0.3935
212.8774	0.3902
213.0943	0.4197
213.3112	0.3995
213.5281	0.4085
213.745	0.4263
213.9619	0.371
214.1788	0.4046
214.3956	0.4137
214.6125	0.4112
214.8293	0.4038
215.0461	0.4362
215.2629	0.4023
215.4798	0.3763
215.6965	0.3905
215.9133	0.4084
216.1301	0.4381
216.3469	0.4013
216.5636	0.3926
216.7803	0.4125
216.9971	0.4203
217.2138	0.4203
217.4305	0.4221
217.6472	0.4238
217.8639	0.394
218.0805	0.439
218.2972	0.4144
218.5138	0.419
218.7305	0.4384
218.9471	0.4356
219.1637	0.4299
219.3803	0.4086
219.5969	0.4326
219.8135	0.3985
220.0301	0.434
220.2466	0.4319
220.4632	0.4111
220.6797	0.4339
220.8962	0.4347
221.1127	0.4073
221.3292	0.4318
221.5457	0.4389
221.7622	0.4202
221.9787	0.4324
222.1951	0.4475
222.4116	0.4325
222.628	0.4453
222.8444	0.4434
223.0608	0.4422
223.2772	0.4414
223.4936	0.4454
223.71	0.4381
223.9264	0.4501
224.1427	0.4418
224.3591	0.46
224.5754	0.4578
224.7917	0.4565
225.008	0.4634
225.2243	0.4642
225.4406	0.4695
225.6569	0.4658
225.8732	0.4645
226.0894	0.4757
226.3057	0.4627
226.5219	0.4694
226.7381	0.457
226.9543	0.4847
227.1705	0.4803
227.3867	0.4786
227.6029	0.4714
227.8191	0.4861
228.0352	0.5027
228.2513	0.4966
228.4675	0.5003
228.6836	0.4891
228.8997	0.4965
229.1158	0.4781
229.3319	0.4982
229.548	0.4907
229.764	0.4928
229.9801	0.5116
230.1961	0.5007
230.4121	0.5054
230.6282	0.5022
230.8442	0.5267
231.0602	0.5281
231.2761	0.5234
231.4921	0.5222
231.7081	0.5165
231.924	0.5232
232.14	0.5118
232.3559	0.533
232.5718	0.5216
232.7877	0.5232
233.0036	0.5292
233.2195	0.5215
233.4353	0.5447
233.6512	0.5298
233.867	0.5345
234.0829	0.5317
234.2987	0.5321
234.5145	0.5522
234.7303	0.5315
234.9461	0.5463
235.1619	0.5245
235.3776	0.5245
235.5934	0.5269
235.8091	0.5322
236.0249	0.5182
236.2406	0.5429
236.4563	0.5526
236.672	0.5356
236.8877	0.5399
237.1034	0.5314
237.319	0.5435
237.5347	0.5346
237.7503	0.5374
237.966	0.5347
238.1816	0.5368
238.3972	0.5285
238.6128	0.5336
238.8284	0.5275
239.0439	0.5417
239.2595	0.5356
239.475	0.521
239.6906	0.5247
239.9061	0.5275
240.1216	0.5264
240.3371	0.5294
240.5526	0.5148
240.7681	0.5246
240.9836	0.5176
241.199	0.5204
241.4145	0.4961
241.6299	0.4902
241.8453	0.4977
242.0607	0.4829
242.2761	0.4804
242.4915	0.4697
242.7069	0.4615
242.9223	0.4718
243.1376	0.4528
243.353	0.4502
243.5683	0.4361
243.7836	0.427
243.9989	0.4218
244.2142	0.4229
244.4295	0.4053
244.6448	0.4032
244.86	0.3924
245.0753	0.3835
245.2905	0.3768
245.5057	0.3725
245.721	0.3511
245.9362	0.3487
246.1514	0.3379
246.3665	0.3411
246.5817	0.3325
246.7969	0.3242
247.012	0.3175
247.2271	0.3088
247.4423	0.3083
247.6574	0.3049
247.8725	0.3027
248.0876	0.2966
248.3026	0.2848
248.5177	0.2796
248.7328	0.2763
248.9478	0.2722
249.1628	0.2756
249.3779	0.2663
249.5929	0.2575
249.8079	0.257
250.0228	0.2495
250.2378	0.2583
250.4528	0.253
250.6677	0.2463
250.8827	0.2409
251.0976	0.2346
251.3125	0.2435
251.5274	0.2287
251.7423	0.2286
251.9572	0.2216
252.172	0.215
252.3869	0.2145
252.6017	0.2166
252.8166	0.2193
253.0314	0.2231
253.2462	0.2135
253.461	0.2201
253.6758	0.2049
253.8906	0.2047
254.1053	0.2043
254.3201	0.21
254.5348	0.2022
254.7496	0.2046
254.9643	0.2095
255.179	0.2012
255.3937	0.195
255.6083	0.1958
255.823	0.1969
256.0377	0.1979
256.2523	0.1989
256.467	0.1962
256.6816	0.1957
256.8962	0.1953
257.1108	0.1954
257.3254	0.1959
257.54	0.1919
257.7545	0.1924
257.9691	0.1917
258.1836	0.1945
258.3981	0.1904
258.6127	0.1835
258.8272	0.184
259.0417	0.1794
259.2561	0.1845
259.4706	0.188
259.6851	0.1806
259.8995	0.1785
260.114	0.185
260.3284	0.1819
260.5428	0.1824
260.7572	0.1943
260.9716	0.1808
261.186	0.1854
261.4003	0.1846
261.6147	0.1776
261.829	0.1905
262.0433	0.1823
262.2577	0.1906
262.472	0.1832
262.6863	0.1862
262.9005	0.1876
263.1148	0.1843
263.3291	0.1923
263.5433	0.1882
263.7576	0.1813
263.9718	0.1841
264.186	0.1857
264.4002	0.1863
264.6144	0.1913
264.8286	0.1903
265.0427	0.1903
265.2569	0.1928
265.471	0.1885
265.6851	0.1808
265.8993	0.185
266.1134	0.1886
266.3275	0.1863
266.5415	0.1815
266.7556	0.1789
266.9697	0.1849
267.1837	0.1828
267.3978	0.195
267.6118	0.1815
267.8258	0.1845
268.0398	0.1855
268.2538	0.1862
268.4677	0.1818
268.6817	0.1778
268.8957	0.1824
269.1096	0.1791
269.3235	0.1838
269.5374	0.1817
269.7514	0.1829
269.9652	0.1831
270.1791	0.1805
270.393	0.1823
270.6068	0.1771
270.8207	0.1786
271.0345	0.1771
271.2483	0.1736
271.4622	0.1752
271.676	0.1735
271.8897	0.1759
272.1035	0.1731
272.3173	0.1757
272.531	0.1729
272.7448	0.17
272.9585	0.1743
273.1722	0.1752
273.3859	0.1686
273.5996	0.1723
273.8133	0.1666
274.0269	0.1753
274.2406	0.1744
274.4542	0.1686
274.6679	0.169
274.8815	0.1724
275.0951	0.1727
275.3087	0.1785
275.5223	0.1741
275.7358	0.1752
275.9494	0.1707
276.1629	0.1807
276.3765	0.1746
276.59	0.1753
276.8035	0.1813
277.017	0.18
277.2305	0.1767
277.444	0.172
277.6574	0.1818
277.8709	0.1773
278.0843	0.1789
278.2978	0.1858
278.5112	0.18
278.7246	0.1796
278.938	0.1768
279.1513	0.1837
279.3647	0.1791
279.5781	0.1767
279.7914	0.187
280.0047	0.1845
280.2181	0.1831
280.4314	0.1805
280.6447	0.1853
280.8579	0.1792
281.0712	0.1823
281.2845	0.187
281.4977	0.1856
281.711	0.1844
281.9242	0.1896
282.1374	0.184
282.3506	0.1889
282.5638	0.1875
282.7769	0.1821
282.9901	0.1835
283.2033	0.1814
283.4164	0.1858
283.6295	0.1894
283.8426	0.1828
284.0557	0.1789
284.2688	0.1892
284.4819	0.1912
284.695	0.1966
284.908	0.1912
285.1211	0.1934
285.3341	0.1936
285.5471	0.2017
285.7601	0.19
285.9731	0.1888
286.1861	0.1948
286.3991	0.1947
286.612	0.1907
286.825	0.1961
287.0379	0.1962
287.2508	0.1959
287.4637	0.1983
287.6766	0.1978
287.8895	0.1943
288.1024	0.1964
288.3152	0.199
288.5281	0.1955
288.7409	0.2007
288.9538	0.1954
289.1666	0.198
289.3794	0.1974
289.5922	0.196
289.8049	0.2024
290.0177	0.1961
290.2304	0.2064
290.4432	0.2009
290.6559	0.1896
290.8686	0.2025
291.0813	0.2009
291.294	0.2025
291.5067	0.2012
291.7194	0.1985
291.932	0.1998
292.1447	0.2013
292.3573	0.2013
292.5699	0.2063
292.7825	0.201
292.9951	0.1993
293.2077	0.1959
293.4203	0.2014
293.6328	0.1964
293.8454	0.196
294.0579	0.203
294.2704	0.2013
294.4829	0.1991
294.6954	0.1947
294.9079	0.2035
295.1204	0.1996
295.3328	0.2063
295.5453	0.1998
295.7577	0.1951
295.9701	0.1939
296.1825	0.1964
296.3949	0.206
296.6073	0.2049
296.8197	0.2024
297.0321	0.2087
297.2444	0.2009
297.4567	0.1958
297.6691	0.1991
297.8814	0.1971
298.0937	0.1967
298.306	0.1989
298.5182	0.2059
298.7305	0.2004
298.9428	0.1951
299.155	0.2011
299.3672	0.1959
299.5794	0.198
299.7916	0.2004
300.0038	0.1979
300.216	0.1978
300.4282	0.1966
300.6403	0.1983
300.8525	0.2007
301.0646	0.1943
301.2767	0.1988
301.4888	0.1964
301.7009	0.2009
301.913	0.2004
302.125	0.1991
302.3371	0.1957
302.5491	0.2007
302.7612	0.1951
302.9732	0.1975
303.1852	0.1991
303.3972	0.1931
303.6092	0.1938
303.8211	0.1882
304.0331	0.195
304.245	0.1934
304.457	0.196
304.6689	0.1922
304.8808	0.1904
305.0927	0.1958
305.3046	0.1878
305.5164	0.1859
305.7283	0.188
305.9401	0.1885
306.152	0.18
306.3638	0.1791
306.5756	0.1789
306.7874	0.1814
306.9992	0.1791
307.2109	0.1773
307.4227	0.1777
307.6344	0.1745
307.8462	0.1717
308.0579	0.168
308.2696	0.1712
308.4813	0.1683
308.693	0.1677
308.9046	0.1642
309.1163	0.1587
309.328	0.1545
309.5396	0.1603
309.7512	0.1559
309.9628	0.1573
310.1744	0.152
310.386	0.1497
310.5976	0.1465
310.8091	0.144
311.0207	0.1496
311.2322	0.1495
311.4437	0.1395
311.6552	0.1379
311.8667	0.1432
312.0782	0.1405
312.2897	0.1425
312.5012	0.1378
312.7126	0.1367
312.924	0.1376
313.1355	0.1356
313.3469	0.1319
313.5583	0.128
313.7696	0.1261
313.981	0.1262
314.1924	0.1281
314.4037	0.1238
314.6151	0.1306
314.8264	0.1309
315.0377	0.1296
315.249	0.1214
315.4603	0.1183
315.6716	0.1228
315.8828	0.1242
316.0941	0.124
316.3053	0.1186
316.5165	0.1216
316.7277	0.1251
316.9389	0.1244
317.1501	0.1183
317.3613	0.1103
317.5724	0.1168
317.7836	0.1217
317.9947	0.113
318.2058	0.123
318.417	0.1166
318.6281	0.1174
318.8391	0.1204
319.0502	0.1217
319.2613	0.1165
319.4723	0.1166
319.6834	0.1217
319.8944	0.1196
320.1054	0.1175
320.3164	0.1166
320.5274	0.1138
320.7383	0.1095
320.9493	0.1175
321.1602	0.1149
321.3712	0.1185
321.5821	0.116
321.793	0.1177
322.0039	0.1228
322.2148	0.1171
322.4257	0.1177
322.6365	0.1149
322.8474	0.1157
323.0582	0.1186
323.269	0.1158
323.4798	0.117
323.6906	0.1213
323.9014	0.1153
324.1122	0.1126
324.3229	0.118
324.5337	0.1114
324.7444	0.116
324.9551	0.1223
325.1658	0.1215
325.3765	0.121
325.5872	0.1139
325.7979	0.1221
326.0085	0.1213
326.2192	0.1154
326.4298	0.1225
326.6404	0.1215
326.851	0.1211
327.0616	0.1251
327.2722	0.129
327.4828	0.1192
327.6933	0.1172
327.9039	0.1218
328.1144	0.1213
328.3249	0.128
328.5354	0.1218
328.7459	0.1215
328.9564	0.1254
329.1669	0.1238
329.3773	0.1233
329.5878	0.1228
329.7982	0.1254
330.0086	0.1229
330.219	0.1252
330.4294	0.1249
330.6398	0.1237
330.8502	0.1308
331.0605	0.128
331.2708	0.1248
331.4812	0.1191
331.6915	0.12
331.9018	0.1186
332.1121	0.1301
332.3224	0.123
332.5326	0.1291
332.7429	0.1194
332.9531	0.1233
333.1633	0.1257
333.3735	0.124
333.5837	0.1265
333.7939	0.1277
334.0041	0.1258
334.2143	0.1269
334.4244	0.1193
334.6346	0.1246
334.8447	0.1321
335.0548	0.126
335.2649	0.1309
335.475	0.1252
335.685	0.1282
335.8951	0.127
336.1051	0.1268
336.3152	0.1286
336.5252	0.1326
336.7352	0.1267
336.9452	0.1329
337.1552	0.1317
337.3652	0.1257
337.5751	0.1255
337.7851	0.1287
337.995	0.1295
338.2049	0.1322
338.4148	0.1303
338.6247	0.1339
338.8346	0.129
339.0445	0.1347
339.2543	0.1334
339.4642	0.1414
339.674	0.1326
339.8838	0.1407
340.0936	0.1357
340.3034	0.1369
340.5132	0.1258
340.7229	0.1321
340.9327	0.1427
341.1424	0.1355
341.3522	0.1368
341.5619	0.1378
341.7716	0.1377
341.9813	0.1394
342.1909	0.1422
342.4006	0.1397
342.6102	0.1342
342.8199	0.1393
343.0295	0.1448
343.2391	0.1414
343.4487	0.1436
343.6583	0.1487
343.8679	0.1459
344.0774	0.1452
344.287	0.1451
344.4965	0.1488
344.706	0.1427
344.9155	0.1407
345.125	0.1443
345.3345	0.1417
345.544	0.1535
345.7534	0.1499
345.9629	0.1526
346.1723	0.1523
346.3817	0.1527
346.5911	0.1507
346.8005	0.1507
347.0099	0.1599
347.2193	0.1487
347.4286	0.1545
347.638	0.1553
347.8473	0.1563
348.0566	0.1602
348.2659	0.1543
348.4752	0.157
348.6845	0.1608
348.8937	0.1539
349.103	0.1526
349.3122	0.1617
349.5214	0.1569
349.7306	0.1609
349.9398	0.1587
350.149	0.1615
350.3582	0.1552
350.5674	0.1655
350.7765	0.169
350.9856	0.1667
351.1948	0.1622
351.4039	0.1619
351.613	0.1681
351.822	0.1685
352.0311	0.1682
352.2402	0.1759
352.4492	0.1717
352.6582	0.1644
352.8672	0.1699
353.0762	0.1648
353.2852	0.1768
353.4942	0.1693
353.7032	0.1685
353.9121	0.171
354.1211	0.1767
354.33	0.1757
354.5389	0.1812
354.7478	0.1822
354.9567	0.173
355.1655	0.1803
355.3744	0.176
355.5833	0.182
355.7921	0.1803
356.0009	0.1764
356.2097	0.1896
356.4185	0.1863
356.6273	0.1856
356.8361	0.1908
357.0448	0.1869
357.2536	0.1855
357.4623	0.1871
357.671	0.1835
357.8797	0.1928
358.0884	0.1918
358.2971	0.196
358.5057	0.1936
358.7144	0.2018
358.923	0.1961
359.1316	0.1941
359.3402	0.1973
359.5488	0.2005
359.7574	0.2008
359.966	0.2013
360.1746	0.1923
360.3831	0.2102
360.5916	0.1995
360.8002	0.2164
361.0087	0.2082
361.2172	0.2147
361.4256	0.2061
361.6341	0.2243
361.8426	0.2097
362.051	0.2099
362.2594	0.2135
362.4678	0.2126
362.6762	0.2208
362.8846	0.2272
363.093	0.222
363.3014	0.2279
363.5097	0.2175
363.718	0.2316
363.9264	0.224
364.1347	0.2293
364.343	0.2325
364.5513	0.2266
364.7595	0.2313
364.9678	0.227
365.176	0.2285
365.3842	0.2404
365.5925	0.231
365.8007	0.2312
366.0089	0.2335
366.217	0.2366
366.4252	0.2314
366.6333	0.2309
366.8415	0.2319
367.0496	0.237
367.2577	0.2477
367.4658	0.2531
367.6739	0.2391
367.882	0.2474
368.09	0.2478
368.2981	0.2486
368.5061	0.2466
368.7141	0.2566
368.9221	0.2497
369.1301	0.2455
369.3381	0.2569
369.5461	0.2613
369.754	0.2483
369.962	0.2589
370.1699	0.2601
370.3778	0.2555
370.5857	0.2592
370.7936	0.2597
371.0015	0.2589
371.2093	0.265
371.4172	0.2681
371.625	0.2625
371.8328	0.2702
372.0406	0.2585
372.2484	0.2608
372.4562	0.266
372.664	0.2726
372.8717	0.2693
373.0795	0.2665
373.2872	0.2786
373.4949	0.2723
373.7026	0.2767
373.9103	0.2713
374.118	0.2681
374.3256	0.2826
374.5333	0.2821
374.7409	0.2704
374.9485	0.274
375.1561	0.2842
375.3637	0.2698
375.5713	0.2768
375.7789	0.279
375.9864	0.2766
376.194	0.2872
376.4015	0.2778
376.609	0.2878
376.8165	0.2944
377.024	0.2804
377.2315	0.2865
377.4389	0.2743
377.6464	0.2935
377.8538	0.2861
378.0612	0.2836
378.2686	0.2955
378.476	0.2943
378.6834	0.2873
378.8908	0.2927
379.0981	0.2947
379.3055	0.3019
379.5128	0.2917
379.7201	0.2906
379.9274	0.29
380.1347	0.3008
380.342	0.311
380.5492	0.308
380.7565	0.3023
380.9637	0.2904
381.1709	0.3002
381.3781	0.3011
381.5853	0.2956
381.7925	0.3105
381.9997	0.3091
382.2068	0.304
382.4139	0.3059
382.6211	0.3124
382.8282	0.3089
383.0353	0.3054
383.2424	0.314
383.4494	0.3109
383.6565	0.314
383.8635	0.3253
384.0706	0.3252
384.2776	0.3233
384.4846	0.3141
384.6916	0.3162
384.8986	0.3137
385.1055	0.3202
385.3125	0.3144
385.5194	0.3063
385.7263	0.3044
385.9333	0.3207
386.1402	0.3216
386.347	0.3178
386.5539	0.3212
386.7608	0.317
386.9676	0.3164
387.1744	0.3158
387.3813	0.3217
387.5881	0.3176
387.7948	0.3108
388.0016	0.3155
388.2084	0.3169
388.4151	0.313
388.6219	0.3055
388.8286	0.3271
389.0353	0.3106
389.242	0.3115
389.4487	0.3142
389.6553	0.3063
389.862	0.3043
390.0686	0.3154
390.2753	0.307
390.4819	0.3151
390.6885	0.2999
390.8951	0.3149
391.1016	0.3096
391.3082	0.2962
391.5147	0.3051
391.7213	0.3079
391.9278	0.3021
392.1343	0.2936
392.3408	0.295
392.5473	0.2871
392.7537	0.2955
392.9602	0.2922
393.1666	0.291
393.373	0.2975
393.5794	0.2887
393.7858	0.2981
393.9922	0.29
394.1986	0.2851
394.4049	0.2887
394.6113	0.2947
394.8176	0.2708
395.0239	0.2917
395.2302	0.265
395.4365	0.2785
395.6428	0.2909
395.8491	0.2728
396.0553	0.2725
396.2615	0.2843
396.4678	0.2743
396.674	0.2635
396.8802	0.275
397.0863	0.2738
397.2925	0.2632
397.4987	0.2645
397.7048	0.2788
397.9109	0.2781
398.117	0.2673
398.3231	0.2774
398.5292	0.2688
398.7353	0.2652
398.9413	0.2614
399.1474	0.2676
399.3534	0.272
399.5594	0.2786
399.7654	0.2683
399.9714	0.257
400.1774	0.2639
400.3833	0.2712
400.5893	0.2597
400.7952	0.2811
401.0011	0.2681
401.207	0.2688
401.4129	0.2616
401.6188	0.2601
401.8247	0.2698
402.0305	0.2679
402.2364	0.2664
402.4422	0.2653
402.648	0.2758
402.8538	0.2721
403.0596	0.2651
403.2654	0.2648
403.4711	0.2629
403.6768	0.2712
403.8826	0.2706
404.0883	0.2576
404.294	0.2726
404.4997	0.2662
404.7054	0.2707
404.911	0.2698
405.1167	0.2734
405.3223	0.2759
405.5279	0.272
405.7335	0.2593
405.9391	0.2661
406.1447	0.2712
406.3502	0.2773
406.5558	0.2763
406.7613	0.2668
406.9668	0.2744
407.1724	0.2675
407.3778	0.2711
407.5833	0.2603
407.7888	0.2729
407.9942	0.2663
408.1997	0.2636
408.4051	0.2632
408.6105	0.2726
408.8159	0.2635
409.0213	0.2748
409.2267	0.2676
409.432	0.2746
409.6374	0.2674
409.8427	0.2622
410.048	0.266
410.2533	0.2655
410.4586	0.2732
410.6639	0.2664
410.8691	0.2781
411.0744	0.2743
411.2796	0.2618
411.4848	0.2666
411.69	0.2536
411.8952	0.2724
412.1004	0.2749
412.3056	0.2679
412.5107	0.278
412.7158	0.268
412.921	0.26
413.1261	0.2641
413.3312	0.2612
413.5362	0.2698
413.7413	0.2629
413.9464	0.271
414.1514	0.2583
414.3564	0.2623
414.5614	0.2598
414.7664	0.2693
414.9714	0.2733
415.1764	0.262
415.3813	0.2538
415.5863	0.2618
415.7912	0.2735
415.9961	0.2636
416.201	0.2664
416.4059	0.2578
416.6108	0.2545
416.8156	0.2535
417.0205	0.2684
417.2253	0.2723
417.4301	0.2672
417.6349	0.255
417.8397	0.2612
418.0445	0.2531
418.2492	0.2622
418.454	0.2645
418.6587	0.2632
418.8634	0.2593
419.0681	0.2535
419.2728	0.2535
419.4775	0.2535
419.6822	0.2504
419.8868	0.2569
420.0915	0.2588
420.2961	0.2534
420.5007	0.26
420.7053	0.2554
420.9099	0.2441
421.1144	0.2391
421.319	0.2485
421.5235	0.2383
421.728	0.2372
421.9325	0.2434
422.137	0.238
422.3415	0.2399
422.546	0.2425
422.7504	0.2475
422.9549	0.2428
423.1593	0.2439
423.3637	0.2352
423.5681	0.2393
423.7725	0.2312
423.9769	0.2435
424.1812	0.2438
424.3856	0.2479
424.5899	0.2388
424.7942	0.2286
424.9985	0.2347
425.2028	0.2308
425.4071	0.2235
425.6113	0.2308
425.8156	0.2243
426.0198	0.2262
426.224	0.239
426.4282	0.2292
426.6324	0.2145
426.8366	0.2293
427.0407	0.2249
427.2449	0.2175
427.449	0.2265
427.6531	0.2181
427.8572	0.2077
428.0613	0.2061
428.2654	0.2196
428.4694	0.2068
428.6735	0.2159
428.8775	0.203
429.0815	0.2135
429.2855	0.2018
429.4895	0.1982
429.6935	0.1979
429.8975	0.2031
430.1014	0.2073
430.3053	0.1922
430.5093	0.204
430.7132	0.2
430.9171	0.1912
431.1209	0.1847
431.3248	0.1862
431.5286	0.1659
431.7325	0.1874
431.9363	0.1854
432.1401	0.1884
432.3439	0.1764
432.5477	0.1946
432.7514	0.1674
432.9552	0.1777
433.1589	0.1747
433.3627	0.1759
433.5664	0.1723
433.7701	0.1765
433.9737	0.1698
434.1774	0.1744
434.3811	0.167
434.5847	0.1596
434.7883	0.1574
434.9919	0.1557
435.1955	0.1623
435.3991	0.1475
435.6027	0.1592
435.8062	0.1538
436.0098	0.1518
436.2133	0.1546
436.4168	0.1503
436.6203	0.1497
436.8238	0.1436
437.0272	0.1364
437.2307	0.1327
437.4341	0.1362
437.6375	0.1372
437.841	0.1268
438.0443	0.13
438.2477	0.1315
438.4511	0.135
438.6545	0.1269
438.8578	0.1319
439.0611	0.1288
439.2644	0.1098
439.4677	0.1183
439.671	0.1149
439.8743	0.1104
440.0775	0.1083
440.2808	0.1282
440.484	0.1018
440.6872	0.1007
440.8904	0.1035
441.0936	0.1206
441.2967	0.0951
441.4999	0.1056
441.703	0.1013
441.9062	0.1104
442.1093	0.1006
442.3124	0.1033
442.5155	0.1053
442.7185	0.0873
442.9216	0.0901
443.1246	0.096
443.3276	0.0865
443.5307	0.0874
443.7337	0.0876
443.9366	0.0886
444.1396	0.0804
444.3426	0.0867
444.5455	0.0785
444.7484	0.0715
444.9513	0.0853
445.1542	0.0849
445.3571	0.0686
445.56	0.0775
445.7628	0.0737
445.9657	0.0741
446.1685	0.072
446.3713	0.0663
446.5741	0.0648
446.7769	0.0726
446.9797	0.0701
447.1824	0.0664
447.3852	0.0582
447.5879	0.0616
447.7906	0.0619
447.9933	0.067
448.196	0.0592
448.3986	0.0506
448.6013	0.0574
448.8039	0.0461
449.0066	0.0578
449.2092	0.0477
449.4118	0.0516
449.6143	0.0488
449.8169	0.0509
450.0195	0.0533
450.222	0.0515
450.4245	0.0597
450.627	0.0451
450.8295	0.0436
451.032	0.0384
451.2345	0.0371
451.4369	0.0435
451.6394	0.0411
451.8418	0.0487
452.0442	0.0452
452.2466	0.042
452.449	0.03
452.6513	0.0356
452.8537	0.0415
453.056	0.0436
453.2583	0.0325
453.4607	0.0253
453.663	0.0341
453.8652	0.034
454.0675	0.03
454.2697	0.0317
454.472	0.0352
454.6742	0.0211
454.8764	0.0219
455.0786	0.0308
455.2808	0.0299
455.4829	0.0233
455.6851	0.0206
455.8872	0.0414
456.0893	0.03
456.2915	0.0265
456.4935	0.0208
456.6956	0.0224
456.8977	0.0255
457.0997	0.0404
457.3018	0.0234
457.5038	0.0249
457.7058	0.0252
457.9078	0.0282
458.1098	0.0269
458.3117	0.0234
458.5137	0.021
458.7156	0.0326
458.9175	0.0215
459.1194	0.0229
459.3213	0.0159
459.5232	0.0176
459.725	0.0174
459.9269	0.0175
460.1287	0.0175
460.3305	0.0099
460.5323	0.0153
460.7341	0.0152
460.9359	0.0138
461.1376	0.0156
461.3394	0.0126
461.5411	0.0164
461.7428	0.0159
461.9445	0.0053
462.1462	0.0133
462.3479	0.0141
462.5495	0.015
462.7512	0.0085
462.9528	0.0135
463.1544	0.0113
463.356	0.021
463.5576	0.0074
463.7592	-0.0026
463.9607	0.0143
464.1623	0.0128
464.3638	0.016
464.5653	0.0154
464.7668	0.0059
464.9683	0.0182
465.1697	0.011
465.3712	0.0056
465.5726	0.0111
465.7741	0.0093
465.9755	0.0181
466.1769	0.0049
466.3782	0.0098
466.5796	0.0095
466.7809	0.0167
466.9823	0.005
467.1836	0.0131
467.3849	0.0107
467.5862	-0.0062
467.7875	0.0118
467.9887	0.0095
468.19	0.0042
468.3912	0.0147
468.5924	0.0195
468.7936	0.0052
468.9948	0.0133
469.196	0.0064
469.3972	0.0165
469.5983	0.0007
469.7994	0.0056
470.0006	0.0037
470.2017	0.0066
470.4027	0.0027
470.6038	0.0036
470.8049	0.0051
471.0059	0.0135
471.2069	0.0185
471.408	0.0022
471.6089	0.0075
471.8099	0.0046
472.0109	0.0081
472.2119	0.0205
472.4128	0.0145
472.6137	0.0132
472.8146	0.0075
473.0155	0.0001
473.2164	-0.0017
473.4173	0.0121
473.6181	0.0094
473.819	0.0049
474.0198	0.0048
474.2206	0.0114
474.4214	0.0117
474.6222	0.0084
474.8229	0.0139
475.0237	0.0108
475.2244	0.0058
475.4251	0.0007
475.6258	0.006
475.8265	-0.0096
476.0272	0.0053
476.2278	0.0028
476.4285	-0.0026
476.6291	0.0099
476.8297	-0.0087
477.0303	0.0022
477.2309	-0.001
477.4315	0.0163
477.632	-0.0022
477.8326	0.0001
478.0331	0.0028
478.2336	0.0061
478.4341	0.005
478.6346	-0.0048
478.8351	0.0066
479.0355	0.0169
479.236	0.0059
479.4364	0.0008
479.6368	-0.0003
479.8372	0.0125
480.0376	0.001
480.2379	0.0154
480.4383	0.0045
480.6386	0.0079
480.8389	0.0036
481.0392	0.0089
481.2395	0.009
481.4398	0.0085
481.6401	0.0075
481.8403	0.0044
482.0405	-0.0003
482.2408	0.0027
482.441	0.0019
482.6411	-0.0037
482.8413	-0.0013
483.0415	0.0094
483.2416	0.0041
483.4417	0.0041
483.6419	0.0079
483.8419	0.004
484.042	0.003
484.2421	-0.0038
484.4422	0.0053
484.6422	0.0074
484.8422	0.0051
485.0422	0.0032
485.2422	0.0047
485.4422	-0.0045
485.6422	-0.0003
485.8421	0.0018
486.042	0.0057
486.242	0.0015
486.4419	0.0104
486.6417	0.0048
486.8416	0.0079
487.0415	0.0002
487.2413	0.001
487.4411	0.0037
487.641	0.0122
487.8408	-0.0022
488.0405	0.0022
488.2403	-0.0027
488.4401	-0.0088
488.6398	0.0038
488.8395	0.0068
489.0392	0.0056
489.2389	-0.003
489.4386	0.0073
489.6383	0.0068
489.8379	-0.0039
490.0376	0.0047
490.2372	-0.0083
490.4368	0.0098
490.6364	0.0122
490.836	0.0053
491.0355	0.0049
491.2351	-0.0039
491.4346	-0.0007
491.6341	0.0032
491.8336	-0.0003
492.0331	0.0013
492.2326	-0.0057
492.432	0.0061
492.6315	-0.0022
492.8309	0.0097
493.0303	0.0081
493.2297	0.0012
493.4291	-0.0009
493.6284	0.0031
493.8278	0.0062
494.0271	-0.0018
494.2264	-0.0008
494.4257	-0.0017
494.625	-0.0013
494.8243	0.0009
495.0236	-0.0005
495.2228	0.0009
495.422	0.0072
495.6213	-0.0019
495.8205	0.0011
496.0196	0.0073
496.2188	-0.0013
496.418	-0.0048
496.6171	0.0066
496.8162	0.0019
497.0153	0.0035
497.2144	-0.0005
497.4135	0.0025
497.6126	-0.0011
497.8116	-0.0015
498.0107	-0.0061
498.2097	0.0059
498.4087	0.0016
498.6077	0.0038
498.8067	0.0021
499.0056	0.0046
499.2046	0.0025
499.4035	-0.001
499.6024	-0.0094
499.8013	0.0032
500.0002	0.0031
500.199	-0.0026
500.3979	0.0007
500.5967	-0.0037
500.7956	-0.003
500.9944	-0.0066
501.1932	0.0101
501.3919	0.0035
501.5907	0.0053
501.7895	0.0011
501.9882	0.0008
502.1869	0.007
502.3856	-0.0026
502.5843	0.0032
502.783	0.0056
502.9816	0.0056
503.1803	0.0057
503.3789	0.0084
503.5775	-0.0033
503.7761	0.0071
503.9747	-0.0084
504.1732	-0.0043
504.3718	-0.0017
504.5703	-0.003
504.7689	-0.0008
504.9674	0.0034
505.1658	0.0067
505.3643	0.0008
505.5628	0.0003
505.7612	0.0037
505.9597	0.0024
506.1581	-0.0107
506.3565	-0.009
506.5549	0.0017
506.7532	0.0095
506.9516	0.0046
507.1499	0.0016
507.3482	0.013
507.5465	0.0033
507.7448	0.0095
507.9431	0.0002
508.1414	0.0017
508.3396	-0.0032
508.5379	0.0082
508.7361	0.0039
508.9343	-0.0008
509.1325	0.0074
509.3306	0.0031
509.5288	0.0086
509.7269	0.0025
509.9251	-0.0037
510.1232	-0.0033
510.3213	-0.0025
510.5193	0.0023
510.7174	-0.0068
510.9154	0.0024
511.1135	-0.0046
511.3115	-0.0051
511.5095	0.0041
511.7075	0.004
511.9055	0.0106
512.1034	-0.0038
512.3014	-0.0012
512.4993	-0.005
512.6972	0.0008
512.8951	-0.0005
513.093	0.0005
513.2908	0.0001
513.4887	0.0109
513.6865	-0.0003
513.8844	0.0069
514.0822	-0.006
514.2799	-0.0033
514.4777	0.01
514.6755	0.0019
514.8732	0.0033
515.0709	0.0132
515.2687	-0.0034
515.4664	-0.0076
515.664	0.0101
515.8617	0.01
516.0594	-0.0018
516.257	0.0029
516.4546	-0.0042
516.6522	0.0022
516.8498	0.005
517.0474	-0.004
517.2449	-0.0021
517.4425	-0.0041
517.64	0.0079
517.8375	0.0099
518.035	-0
518.2325	-0.0055
518.43	-0.0088
518.6274	0.0045
518.8249	-0.0043
519.0223	-0.0026
519.2197	0.0112
519.4171	0.0074
519.6145	0.0056
519.8118	-0.0022
520.0092	0.0012
520.2065	0.0079
520.4038	-0.0005
520.6011	0.0085
520.7984	-0.0042
520.9956	0.0034
521.1929	-0.0019
521.3901	0.0138
521.5874	0.0072
521.7846	0.0043
521.9818	0
522.1789	0.0186
522.3761	0.0029
522.5732	-0.0033
522.7704	0.0065
522.9675	0.0049
523.1646	0.0069
523.3617	0.0048
523.5587	-0.0026
523.7558	-0.0019
523.9528	0.0123
524.1498	0.0031
524.3468	0.0028
524.5438	0.0027
524.7408	0.0002
524.9378	0.0006
525.1347	0.0026
525.3316	0.0135
525.5285	0.0042
525.7254	0
525.9223	0.0064
526.1192	0.0102
526.316	-0.01
526.5129	-0.0066
526.7097	-0.0006
526.9065	0.0087
527.1033	0.0068
527.3	-0.0006
527.4968	0.0005
527.6935	-0.0067
527.8903	0.0067
528.087	-0.0004
528.2837	0.004
528.4804	0.0167
528.677	0.0025
528.8737	-0.0004
529.0703	0.0033
529.2669	-0.006
529.4635	0.0086
529.6601	0.0052
529.8567	0.001
530.0532	0.0031
530.2498	-0.0083
530.4463	0.0078
530.6428	0.0051
530.8393	0.0047
531.0358	0.0059
531.2322	0.0089
531.4287	0.0093
531.6251	-0.0066
531.8215	0.0042
532.0179	-0.0065
532.2143	-0.0032
532.4107	0.0035
532.607	0.0064
532.8034	-0.0014
532.9997	0.0025
533.196	0.0076
533.3923	0.0015
533.5886	0.0022
533.7848	0.0005
533.9811	-0.0101
534.1773	0.0052
534.3735	0.0014
534.5697	-0.0031
534.7659	0.002
534.9621	0.0097
535.1582	0.0026
535.3544	0.0078
535.5505	0.0003
535.7466	0.0096
535.9427	-0.0005
536.1387	-0.0013
536.3348	0.006
536.5308	0.0082
536.7269	-0.0026
536.9229	-0.0029
537.1189	0.0034
537.3148	-0.0069
537.5108	0.0019
537.7068	0.0042
537.9027	0.0084
538.0986	-0.0001
538.2945	0.0052
538.4904	0.0002
538.6863	0.0063
538.8821	0
539.078	-0.0053
539.2738	-0.0081
539.4696	0.0145
539.6654	0.0018
539.8611	-0.0007
540.0569	-0.0033
540.2526	-0.0034
540.4484	-0.0091
540.6441	0.007
540.8398	-0.0063
541.0355	0.0117
541.2311	0.0093
541.4268	0.0029
541.6224	0.0105
541.818	-0.0126
542.0136	-0.0039
542.2092	0.0018
542.4048	-0.0014
542.6003	0.0056
542.7959	0.0013
542.9914	0.0033
543.1869	-0.0009
543.3824	0.0024
543.5779	0.004
543.7734	-0.0038
543.9688	-0.0008
544.1642	0.0063
544.3596	-0.0012
544.555	0.0063
544.7504	0.0075
544.9458	-0.0007
545.1411	0.0047
545.3365	-0.0029
545.5318	0.0025
545.7271	0.0105
545.9224	-0.002
546.1177	0.0052
546.3129	-0.0043
546.5081	-0.0032
546.7034	-0.0024
546.8986	0.0118
547.0938	-0.0004
547.289	0.0059
547.4841	0.0015
547.6793	-0.0037
547.8744	-0.0063
548.0695	-0.0051
548.2646	-0.0041
548.4597	-0.0029
548.6548	0.0141
548.8498	0.0053
549.0448	-0.0003
549.2399	-0.0028
549.4349	0.0063
549.6298	0.0051
549.8248	0.0016
550.0198	0.0016
550.2147	-0.0043
550.4096	0.004
550.6045	0.0057
550.7994	-0.0057
550.9943	0.0023
551.1892	0.002
551.384	0.0086
551.5788	0.0013
551.7737	-0.0011
551.9685	0.0025
552.1632	0.003
552.358	-0.0019
552.5528	-0.0027
552.7475	0
552.9422	-0.0032
553.1369	0.0001
553.3316	-0.0056
553.5263	-0.0013
553.7209	0.0007
553.9156	0.0062
554.1102	-0.0005
554.3048	0.0089
554.4994	0.0051
554.694	-0.0007
554.8885	-0.0027
555.0831	0.0042
555.2776	-0.0085
555.4721	-0.0091
555.6666	-0.002
555.8611	-0.0058
556.0555	0.0049
556.25	-0.0077
556.4444	0.0075
556.6388	0.0115
556.8332	-0.0081
557.0276	0.0108
557.222	0.0011
557.4163	-0
557.6107	0.0027
557.805	-0.0098
557.9993	-0.0002
558.1936	0.0158
558.3879	0.0027
558.5821	-0.0093
558.7764	0.0124
558.9706	0.0001
559.1648	0.0122
559.359	0.015
559.5532	-0.006
559.7473	0.0239
559.9415	0.0105
560.1356	-0.0057
560.3297	0.0007
560.5238	0.0097
560.7179	-0.0007
560.9119	0.0101
561.106	0.0104
561.3	-0.0039
561.494	0.0035
561.688	-0.0045
561.882	-0.003
562.076	0.0133
562.2699	0.0099
562.4639	0.0121
562.6578	0.0066
562.8517	-0.0042
563.0456	-0.0044
563.2395	0.0044
563.4333	-0.0027
563.6272	0.0153
563.821	-0.0017
564.0148	0.0005
564.2086	0.0049
564.4024	-0.005
564.5961	0.0088
564.7899	0.0075
564.9836	0.0004
565.1773	0.0048
565.371	0.0044
565.5647	-0.0072
565.7584	-0.0006
565.952	-0.0017
566.1456	-0.0022
566.3393	0.0151
566.5329	0.0057
566.7264	0.0005
566.92	-0.0027
567.1136	0.0043
567.3071	0.0033
567.5006	-0.0054
567.6941	0.0042
567.8876	0.0074
568.0811	-0.0046
568.2745	0.0012
568.468	0.005
568.6614	0.0048
568.8548	-0.004
569.0482	-0.0021
569.2416	-0.0017
569.4349	0.0073
569.6283	0.0032
569.8216	-0.0042
570.0149	0.0016
570.2082	-0.0028
570.4015	0.0027
570.5947	0.0032
570.788	-0.0022
570.9812	-0.0012
571.1744	-0.0072
571.3676	0.0047
571.5608	-0.0032
571.754	0.0011
571.9471	0.0042
572.1402	0.0032
572.3333	-0.0014
572.5264	0.0052
572.7195	0.0077
572.9126	0.0006
573.1057	-0.0003
573.2987	0.0021
573.4917	0.0024
573.6847	-0.0008
573.8777	0.0021
574.0707	-0.0048
574.2636	0.0013
574.4566	0.002
574.6495	0.0036
574.8424	0.0071
575.0353	-0.0013
575.2281	-0.0036
575.421	-0.0033
575.6138	0.0012
575.8067	0.0053
575.9995	0.0023
576.1923	-0.0012
576.385	-0.0012
576.5778	-0.001
576.7706	0.0025
576.9633	0.0023
577.156	0.0003
577.3487	0.0012
577.5414	-0.0015
577.734	0.0009
577.9267	-0.0025
578.1193	-0
578.3119	-0.003
578.5045	-0.0013
578.6971	-0.0041
578.8897	-0.0014
579.0822	0.0031
579.2747	-0.0052
579.4673	-0.0008
579.6598	-0.001
579.8522	0.0006
580.0447	-0.0028
580.2372	0.0041
580.4296	-0.0023
580.622	0.0052
580.8144	-0.0001
581.0068	0.0018
581.1992	0.0027
581.3915	0.0017
581.5839	0.0036
581.7762	0.001
581.9685	-0.0002
582.1608	-0.0001
582.353	-0.0031
582.5453	-0.0005
582.7375	-0.0004
582.9298	0.0004
583.122	-0.0004
583.3142	-0.002
583.5063	-0.005
583.6985	-0.0006
583.8906	0.0005
584.0827	0.0009
584.2749	0.0012
584.4669	0.0051
584.659	-0.0014
584.8511	0.0016
585.0431	-0.0025
585.2352	-0.001
585.4272	0.003
585.6192	0.0032
585.8111	-0.0052
586.0031	0.0014
586.195	0.0018
586.387	0.0009
586.5789	0.0037
586.7708	0.0032
586.9627	0.0003
587.1545	0.0003
587.3464	0.0009
587.5382	0.0015
587.73	0.0029
587.9218	0.0013
588.1136	-0.0053
588.3053	0.0016
588.4971	-0.0004
588.6888	-0.0005
588.8805	0.0044
589.0722	0.0033
589.2639	-0.0001
589.4556	-0.0058
589.6472	-0.0013
589.8389	-0.0002
590.0305	0.0057
590.2221	0.0065
590.4137	-0.0072
590.6052	0.0038
590.7968	0.0016
590.9883	0.0025
591.1798	-0.004
591.3713	-0.0053
591.5628	0.0014
591.7543	0.0015
591.9458	0.0004
592.1372	-0.0028
592.3286	-0.0045
592.52	-0.0022
592.7114	-0.0026
592.9028	-0.0027
593.0941	0.0035
593.2855	0.0036
593.4768	0.0043
593.6681	-0
593.8594	-0.0038
594.0506	0.0037
594.2419	0.001
594.4331	-0.0012
594.6244	-0.0006
594.8156	0.001
595.0067	0.0017
595.1979	-0.0052
595.3891	-0.0021
595.5802	-0.005
595.7713	-0.0016
595.9624	0.0019
596.1535	0.0022
596.3446	-0.001
596.5357	-0.0027
596.7267	0.0017
596.9177	-0.0035
597.1087	-0.0026
597.2997	0.0045
597.4907	0.0051
597.6817	-0.0021
597.8726	0.0078
598.0635	0.0015
598.2544	-0.0056
598.4453	-0.0014
598.6362	-0.0075
598.827	0.0014
599.0179	-0.0025
599.2087	0.0001
599.3995	-0.0004
599.5903	-0.0014
599.7811	0.0001
599.9718	-0.0044
600.1626	0.0029
600.3533	-0.0028
600.544	-0.0012
600.7347	0.0054
600.9254	0.0047
601.116	0.0029
601.3067	0.0022
601.4973	0.0102
601.6879	-0.006
601.8785	0.0014
602.0691	0.0057
602.2596	-0.001
602.4502	0.0025
602.6407	0.0073
602.8312	0.0001
603.0217	0.0054
603.2122	0.0077
603.4027	-0.0037
603.5931	-0.0018
603.7835	0.0017
603.9739	0.0002
604.1643	0.0065
604.3547	0.0009
604.5451	0.0014
604.7354	-0.0012
604.9257	-0.0008
605.116	0.0023
605.3063	0.0029
605.4966	0.0035
605.6869	0.0003
605.8771	0.0016
606.0673	0.0006
606.2575	-0.002
606.4477	0.0025
606.6379	0.003
606.8281	-0.0054
607.0182	0.0004
607.2083	0.0009
607.3985	0.0028
607.5885	0.005
607.7786	0.0045
607.9687	-0.0066
608.1587	-0.0119
608.3488	-0.0021
608.5388	0.0001
608.7288	-0.0087
608.9187	0.007
609.1087	-0.0046
609.2986	-0.0051
609.4886	0.0073
609.6785	0.0005
609.8684	0.0014
610.0582	0.0057
610.2481	0.0007
610.4379	0.0022
610.6278	-0.005
610.8176	-0.0058
611.0074	-0.0061
611.1971	0.0035
611.3869	0.0018
611.5766	-0.005
611.7664	0.0023
611.9561	0.0004
612.1458	-0.002
612.3354	0.0059
612.5251	-0.0012
612.7147	0.0028
612.9044	0.0055
613.094	0.0069
613.2836	-0.0071
613.4731	-0.0007
613.6627	0.009
613.8522	-0.004
614.0417	0.0068
614.2313	-0.0064
614.4207	0.0055
614.6102	-0.0142
614.7997	-0.0006
614.9891	-0.0017
615.1785	-0.0017
615.3679	0.0041
615.5573	-0.0047
615.7467	-0.0013
615.9361	-0.007
616.1254	-0.003
616.3147	-0.0017
616.504	-0.0086
616.6933	0.0007
616.8826	0.0051
617.0718	-0.0054
617.2611	-0.0063
617.4503	-0.0003
617.6395	0.0005
617.8287	0.0041
618.0179	-0.007
618.207	-0.0019
618.3961	0.0042
618.5853	-0.0011
618.7744	0.0056
618.9634	0.0094
619.1525	-0.0007
619.3416	0.0017
619.5306	-0.0026
619.7196	0.0027
619.9086	0.0065
620.0976	-0.002
620.2866	0.0063
620.4755	0.0127
620.6645	-0.0034
620.8534	-0.0019
621.0423	-0.0022
621.2312	-0.0067
621.42	-0.001
621.6089	0.0043
621.7977	0.0043
621.9865	0.004
622.1753	0.0043
622.3641	-0.0206
622.5529	-0.0061
622.7416	-0.0038
622.9303	0.006
623.1191	-0.0038
623.3078	0.0032
623.4964	-0.0015
623.6851	0.0048
623.8737	0.0046
624.0624	-0.0015
624.251	0.0074
624.4396	0.0011
624.6282	-0.0014
624.8167	0.017
625.0053	0.0045
625.1938	0.0037
625.3823	-0.0077
625.5708	-0.0039
625.7593	0.0096
625.9477	-0.0051
626.1362	-0.0068
626.3246	-0.0071
626.513	-0.0042
626.7014	-0.0009
626.8898	0.0062
627.0781	-0.0031
627.2665	0.0155
627.4548	-0.003
627.6431	-0.0005
627.8314	-0.0029
628.0197	0.0015
628.2079	-0.0098
628.3962	0.0096
628.5844	0.0075
628.7726	-0.0094
628.9608	-0.0081
629.1489	-0.0044
629.3371	-0.0057
629.5252	0.0023
629.7134	0.0127
629.9015	-0.0036
630.0895	-0.0011
630.2776	-0.002
630.4657	0.005
630.6537	-0.0045
630.8417	-0.0074
631.0297	-0.0108
631.2177	0.0088
631.4057	-0.0044
631.5936	-0.0047
631.7815	-0.0036
631.9695	0.027
632.1574	0.0077
632.3452	0.0009
632.5331	0.0007
632.7209	0.0243
632.9088	-0.0084
633.0966	0.0011
633.2844	-0.0026
633.4722	0.0062
633.6599	-0.0197
633.8477	0.0056
634.0354	0.0041
634.2231	0.016
634.4108	-0.001
634.5985	0.0003
634.7861	-0.0059
634.9738	0.0006
635.1614	0.0178
635.349	-0.0073
635.5366	0.0017
635.7242	-0.002
635.9117	0.0154
636.0993	-0.0044
636.2868	-0.0032
636.4743	0.0135
636.6618	-0.007
636.8492	0.009
637.0367	0.0102
637.2241	0.0065
637.4115	0.0029
637.5989	0.0149
637.7863	-0.0078
637.9737	-0.0015
638.161	-0.007
638.3484	0.0073
638.5357	0.0086
638.723	-0.0182
638.9103	0.0107
639.0975	0.0198
639.2848	0.0005
639.472	0.0047
639.6592	0.014
639.8464	0.0103
640.0336	0.0153
640.2208	-0.0027
640.4079	0.0095
640.595	-0.0038
640.7821	0.0005
640.9692	0.0036
641.1563	0.0009
641.3434	0.0026
641.5304	0.015
641.7174	0.026
641.9044	0.0105
642.0914	-0.0104
642.2784	0.013
642.4653	0.0036
642.6523	0.0154
642.8392	0.0093
643.0261	0.0149
643.213	-0.0019
643.3999	0.014
643.5867	0.0169
643.7735	0.0054
643.9604	-0.0016
644.1472	-0.0006
644.3339	-0.0091
644.5207	-0.0139
644.7075	0.0011
644.8942	0.0223
645.0809	-0.0148
645.2676	0.0029
645.4543	0.0021
645.6409	-0.0201
645.8276	-0.0105
646.0142	0.0224
646.2008	0.0253
646.3874	0.0103
646.574	-0.0232
646.7605	0.0025
646.9471	0.0071
647.1336	0.0026
647.3201	0.0139
647.5066	0.004
647.6931	-0.0107
647.8795	0.0078
648.0659	-0.0082
648.2524	-0.001
648.4388	-0.0043
648.6252	-0.0025
648.8115	0.0186
648.9979	0.0003
649.1842	-0.0133
649.3705	0.0154
649.5568	-0.0218
649.7431	0.0038
649.9294	0.014
650.1156	0.0006
650.3018	0.0125
650.488	0.016
650.6742	0.0153
650.8604	-0.0082
651.0466	-0.0133
651.2327	-0.0173
651.4188	-0.0139
651.6049	-0.0012
651.791	0.0233
651.9771	-0.0057
652.1632	0.0123
652.3492	0.0078
652.5352	0.0101
652.7212	-0.0106
652.9072	-0.0175
653.0932	0.0021
653.2791	-0.0088
653.465	-0.0188
653.651	0.0103
653.8369	0.0259
654.0227	-0.0085
654.2086	-0.0125
654.3944	-0.0213
654.5803	0.0083
654.7661	0.003
654.9519	-0.0014
655.1377	0.0001
655.3234	0.0001
655.5092	0.0001
655.6949	0.0001
655.8806	0.0001
656.0663	0.0001
656.2519	0.0001
656.4376	0.0001
656.6232	0.0001
656.8088	0.0001
656.9945	0.0001
657.18	0.0001
657.3656	0.0001
657.5511	0.0001
657.7367	0.0001
657.9222	0.0001
658.1077	0.0001
658.2932	0.0001
658.4786	0.0001
658.6641	0.0001
658.8495	0.0001
659.0349	0.0001
659.2203	0.0001
659.4057	-0.0039
659.591	0.0673
659.7764	0.0051
659.9617	-0.0025
660.147	-0.0029
660.3323	-0.0001
660.5176	-0.0001
660.7028	0.0001
660.888	-0.0001
661.0733	-0.0086
661.2585	0.0116
661.4436	0.0056
661.6288	0.0126
661.8139	0.0118
661.9991	0.0016
662.1842	0.0149
662.3693	0.0073
662.5544	0.01
662.7394	0.0323
662.9245	-0.007
663.1095	0.017
663.2945	-0.0007
663.4795	-0.0007
663.6644	0.0071
663.8494	0.006
664.0343	-0.0065
664.2193	-0.0057
664.4042	-0.0053
664.589	-0.0082
664.7739	0.0006
664.9587	0.0066
665.1436	0.0146
665.3284	0.0211
665.5132	0.0186
665.698	-0.0117
665.8827	-0.0059
666.0675	-0.0142
666.2522	0.0108
666.4369	-0.0055
666.6216	0.0132
666.8063	-0.023
666.9909	0.0002
667.1756	0.0087
667.3602	-0.0141
667.5448	-0.0088
667.7294	-0.0091
667.9139	-0.0058
668.0985	-0.0246
668.283	-0.0033
668.4675	0.0074
668.652	0.0033
668.8365	0.0036
669.0209	-0.0054
669.2054	0.0041
669.3898	0.0202
669.5742	0.0067
669.7586	-0.0163
669.943	-0.0074
670.1273	0.0068
670.3117	0.0293
670.496	0.0142
670.6803	0.0038
670.8646	0.0015
671.0488	-0.002
671.2331	-0.0075
671.4173	0.013
671.6015	0.0017
671.7857	-0.0125
671.9699	0.0079
672.1541	-0.0042
672.3382	0.0115
672.5223	-0.0001
672.7064	-0.0118
672.8905	0.0129
673.0746	-0.014
673.2587	0.0242
673.4427	-0.026
673.6267	-0.0025
673.8107	0.0013
673.9947	-0.0023
674.1787	0.012
674.3626	0.0061
674.5465	0.0122
674.7304	-0.0504
674.9143	-0.0014
675.0982	0.0215
675.2821	0.0088
675.4659	0.0017
675.6497	0.0295
675.8335	0.0082
676.0173	0.0104
676.2011	-0.0049
676.3849	0.0128
676.5686	-0.0128
676.7523	-0.0012
676.936	-0.016
677.1197	0.0103
677.3034	0.0151
677.487	0.0158
677.6706	-0.0024
677.8542	0.0201
678.0378	-0.0016
678.2214	-0.0094
678.405	0.0048
678.5885	0.0043
678.772	-0.0123
678.9555	0.005
679.139	0.0026
679.3225	-0.0111
679.5059	0.002
679.6894	-0.0119
679.8728	-0.0062
680.0562	0.0016
680.2395	0.0035
680.4229	0.011
680.6062	-0.0001
680.7896	0.0074
680.9729	0.0222
681.1562	0.0074
681.3394	0.0015
681.5227	-0.0211
681.7059	-0.0071
681.8891	0.0097
682.0723	0.0039
682.2555	0.0299
682.4387	0.0051
682.6218	-0.0135
682.805	0.0007
682.9881	-0.009
683.1712	0.0299
683.3542	-0.0221
683.5373	0.0267
683.7203	0.0098
683.9034	0.0056
684.0864	0.0054
684.2694	0.0073
684.4523	0.0076
684.6353	-0.0051
684.8182	0.0012
685.0011	0.0015
685.184	-0.0048
685.3669	-0.003
685.5498	0.0006
685.7326	0.0071
685.9154	-0.0001
686.0982	0.0095
686.281	-0.0034
686.4638	0.0119
686.6465	0.0033
686.8293	-0.0003
687.012	0.0018
687.1947	0.0094
687.3774	0.0006
687.56	0.0148
687.7427	0.0066
687.9253	0.0032
688.1079	0.031
688.2905	0.0014
688.4731	0.0292
688.6556	0.0086
688.8382	-0.0075
689.0207	-0.0041
689.2032	-0.0293
689.3857	-0.0004
689.5681	-0.0224
689.7506	-0.0084
689.933	-0.0033
690.1154	-0.0052
690.2978	-0.0174
690.4802	0.0192
690.6626	-0.0041
690.8449	-0.0169
691.0272	-0.0221
691.2095	-0.014
691.3918	-0.0003
691.5741	-0.0022
691.7563	0.014
691.9386	-0.004
692.1208	-0.019
692.303	0.0109
692.4852	0.0221
692.6673	-0.0026
692.8495	0.0097
693.0316	-0.0016
693.2137	0.0243
693.3958	0.0235
693.5778	0.0075
693.7599	-0.0089
693.9419	0.0268
694.1239	-0.0066
694.3059	0.0132
694.4879	-0.0174
694.6699	0.0007
694.8518	0.009
695.0337	0.0125
695.2157	-0.0042
695.3975	0.0106
695.5794	-0.0058
695.7613	0.0376
695.9431	-0.0114
696.1249	-0.0025
696.3067	0.0004
696.4885	-0.0135
696.6703	0.0024
696.852	-0.0112
697.0337	-0.0062
697.2154	0.0082
697.3971	0.0133
697.5788	0.0073
697.7605	0.0109
697.9421	0.0004
698.1237	0.0022
698.3053	0.0058
698.4869	-0.0023
698.6685	0.0088
698.85	0.0158
699.0315	-0.0082
699.213	-0.0017
699.3945	0.0299
699.576	-0.0194
699.7575	-0.0025
699.9389	-0.0042
700.1203	0.0111
700.3017	-0.0107
700.4831	-0.0069
700.6645	0.0095
700.8458	0.01
701.0271	0.0137
701.2084	-0.0318
701.3897	0.0033
701.571	-0.0083
701.7523	-0.0281
701.9335	0.0073
702.1147	-0.0092
702.2959	0.013
702.4771	-0.0035
702.6583	-0.0144
702.8394	-0.0064
703.0205	0.0277
703.2016	-0.0214
703.3827	0.0226
703.5638	-0.006
703.7449	0.003
703.9259	-0.0061
704.1069	0.0254
704.2879	0.0564
704.4689	0.0051
704.6499	-0.029
704.8308	-0.0158
705.0117	-0.0108
705.1927	0.0271
705.3735	0.0236
705.5544	0.0227
705.7353	0.0039
705.9161	0.0048
706.0969	0.0064
706.2777	0.005
706.4585	0.0082
706.6393	0.0089
706.82	-0.0001
707.0007	-0.0073
707.1815	0.0044
707.3621	0.0128
707.5428	0.0099
707.7235	0.0382
707.9041	0.0029
708.0847	0.0075
708.2653	-0.0016
708.4459	-0.0088
708.6265	-0.0173
708.807	0.0194
708.9875	-0.0017
709.168	-0.0145
709.3485	0.0016
709.529	0.0322
709.7095	-0.0169
709.8899	0.0224
710.0703	0.0028
710.2507	0.0024
710.4311	-0.0005
710.6115	0.0021
710.7918	-0.0079
710.9721	-0.0109
711.1524	-0.0002
711.3327	-0.0022
711.513	0.0043
711.6932	-0.0211
711.8735	-0.0019
712.0537	0.0089
712.2339	0.0094
712.4141	0.0185
712.5942	-0.0137
712.7744	-0.0005
712.9545	0.0078
713.1346	0.0028
713.3147	0.0129
713.4947	-0.0169
713.6748	-0.0102
713.8548	-0.0049
714.0348	0.0037
714.2148	0.0076
714.3948	-0.001
714.5748	0.0102
714.7547	-0.0065
714.9346	0.0005
715.1145	-0.0154
715.2944	0.0298
715.4743	-0.005
715.6541	0.0106
715.834	0.0164
716.0138	0.0316
716.1936	-0.0149
716.3733	0.0205
716.5531	0.0313
716.7328	-0.0166
716.9126	-0.0335
717.0923	0.0008
717.2719	-0.0109
717.4516	-0.012
717.6312	-0.027
717.8109	-0.0028
717.9905	0.0138
718.1701	-0.0243
718.3496	0.0279
718.5292	-0.0163
718.7087	0.0416
718.8882	0.0281
719.0677	-0.0297
719.2472	0.0099
719.4267	0.0024
719.6061	0.0105
719.7856	0.0011
719.965	-0.0039
720.1443	-0.0189
720.3237	0.0293
720.5031	-0.0017
720.6824	0.0095
720.8617	0.0101
721.041	0.0155
721.2203	0.0313
721.3995	-0.0223
721.5788	-0.0247
721.758	-0.0122
721.9372	-0.0047
722.1164	0.0285
722.2956	0.0081
722.4747	0.0182
722.6538	0.0126
722.8329	-0.0281
723.012	-0.0006
723.1911	0.007
723.3702	-0.0267
723.5492	0.0016
723.7282	0.0076
723.9072	-0.0298
724.0862	-0.003
724.2652	-0.0115
724.4441	0.0267
724.623	-0.0002
724.8019	-0.0005
724.9808	-0.0048
725.1597	0.0079
725.3385	-0.0075
725.5174	0.0679
725.6962	0.0235
725.875	0.0168
726.0538	0.0095
726.2325	0.0111
726.4112	-0.009
726.59	-0.0092
726.7687	-0.001
726.9474	-0.0065
727.126	-0.0136
727.3047	0.0017
727.4833	0.0161
727.6619	0.0326
727.8405	0.004
728.0191	-0.041
728.1976	-0.0288
728.3762	-0.0312
728.5547	0.0278
728.7332	0.0052
728.9116	-0.0219
729.0901	0.0215
729.2686	-0.0098
729.447	-0.0159
729.6254	0.0103
729.8038	-0.0011
729.9821	0.0045
730.1605	-0.0043
730.3388	-0.0042
730.5171	-0.0022
730.6954	0.0157
730.8737	0.0236
731.0519	0.0189
731.2302	-0.0238
731.4084	-0.0113
731.5866	-0.005
731.7648	-0.0094
731.9429	-0.014
732.1211	-0.0011
732.2992	0.0019
732.4773	-0.0174
732.6554	0.0049
732.8335	0.0141
733.0115	0.0038
733.1896	-0.009
733.3676	0.0048
733.5456	-0.0024
733.7235	0.0055
733.9015	0.0051
734.0794	-0.0096
734.2574	-0.0023
734.4353	-0.0095
734.6131	0.0147
734.791	0.0119
734.9689	0.0076
735.1467	0.0024
735.3245	0.0151
735.5023	0.0001
735.68	0.0046
735.8578	0.0041
736.0355	0.0171
736.2132	0.0096
736.3909	-0.0085
736.5686	-0.0066
736.7463	0.0041
736.9239	0.0169
737.1015	-0.0051
737.2791	-0.0015
737.4567	-0.0095
737.6343	-0.0055
737.8118	-0.0082
737.9894	0.0121
738.1669	0.011
738.3444	0.0017
738.5218	0.0237
738.6993	0.0079
738.8767	0.013
739.0541	0.0093
739.2315	-0.0023
739.4089	0.0221
739.5863	0.0008
739.7636	0.0166
739.9409	0.0102
740.1182	-0.0057
740.2955	-0.0091
740.4728	0.0671
740.65	-0.032
740.8272	-0.0008
741.0044	0.0169
741.1816	0.0029
741.3588	-0.0013
741.5359	-0.0002
741.7131	0.0257
741.8902	-0.0028
742.0673	-0.0052
742.2444	-0.0189
742.4214	0.005
742.5985	0.0052
742.7755	-0.0079
742.9525	0.0188
743.1295	0.0099
743.3064	0.0204
743.4834	-0.0133
743.6603	-0.0048
743.8372	0.0173
744.0141	0.0258
744.191	0.036
744.3678	0.0192
744.5446	0.0302
744.7215	-0.0238
744.8982	0.0246
745.075	-0.0035
745.2518	-0.0031
745.4285	-0.0221
745.6052	0.0472
745.7819	0.0031
745.9586	0.0354
746.1353	-0.0018
746.3119	-0.0099
746.4885	0.0225
746.6651	-0.0128
746.8417	-0.0216
747.0183	-0.0002
747.1948	-0.0188
747.3714	0.0017
747.5479	0.0127
747.7244	-0.0262
747.9008	0.0132
748.0773	-0.0031
748.2537	0.0314
748.4301	0.0008
748.6065	-0.0406
748.7829	0.003
748.9593	0.001
749.1356	-0.0206
749.3119	-0.0128
749.4882	-0.0002
749.6645	0.0139
749.8408	-0.0224
750.017	0.0005
750.1933	0.0255
750.3695	0.0051
750.5457	0.0037
750.7218	0.0201
750.898	0.0095
751.0741	0.0005
751.2502	0.0178
751.4263	-0.0063
751.6024	-0.004
751.7784	-0.0182
751.9545	-0.0358
752.1305	0.0064
752.3065	0.021
752.4825	-0.0151
752.6584	0.0039
752.8344	0.0139
753.0103	-0.0182
753.1862	0.0008
753.3621	0.0108
753.5379	-0.0125
753.7138	-0.0322
753.8896	0.0262
754.0654	0.0017
754.2412	0.0446
754.417	0.007
754.5927	-0.0062
754.7685	-0.006
754.9442	-0.0091
755.1199	0.0014
755.2956	0.018
755.4712	-0.0078
755.6469	-0.0034
755.8225	0.0078
755.9981	0.0216
756.1736	0.012
756.3492	-0.0064
756.5248	-0.0045
756.7003	0.0019
756.8758	-0.0052
757.0513	-0.0026
757.2267	-0.0044
757.4022	-0.0141
757.5776	-0.028
757.753	-0.0106
757.9284	0.0033
758.1038	-0.0153
758.2791	-0.0165
758.4545	-0.0183
758.6298	0.0135
758.8051	-0.0025
758.9803	-0.0068
759.1556	-0.0123
759.3308	0.0152
759.506	0.0185
759.6812	-0.0161
759.8564	-0.0084
760.0316	-0.0003
760.2067	-0.0209
760.3819	-0.0011
760.557	0.0181
760.732	0.0126
760.9071	-0.0009
761.0821	0.0012
761.2572	0.0087
761.4322	-0.0024
761.6072	-0.0058
761.7821	0.0094
761.9571	0.0159
762.132	-0.0038
762.3069	0.0169
762.4818	0.0183
762.6567	0.0169
762.8316	0.0038
763.0064	-0.0107
763.1812	-0.0142
763.356	-0.0107
763.5308	0.0186
763.7055	0.0258
763.8803	-0.0073
764.055	-0.0053
764.2297	-0.0171
764.4044	0.0024
764.579	-0.0071
764.7537	-0.0028
764.9283	-0.0201
765.1029	0.0074
765.2775	-0.0137
765.4521	0.0337
765.6266	-0.0144
765.8011	-0.0024
765.9756	0.0072
766.1501	0.0566
766.3246	-0.0007
766.4991	-0.0075
766.6735	-0.0057
766.8479	0.0052
767.0223	0.0036
767.1967	-0.0164
767.371	0.031
767.5454	0.0205
767.7197	0.0276
767.894	-0.0073
768.0683	0.0123
768.2425	-0.0048
768.4168	0.0327
768.591	0.0012
768.7652	0.0079
768.9394	0.003
769.1135	0.0237
769.2877	0.0092
769.4618	-0.0011
769.6359	0.0172
769.81	-0.0033
769.984	0.0167
770.1581	0.0144
770.3321	-0.0272
770.5061	0.0178
770.6801	0.0155
770.8541	-0.0256
771.028	-0.0059
771.202	-0.0501
771.3759	0.0022
771.5498	-0.0059
771.7236	-0.0094
771.8975	-0.0018
772.0713	-0.0148
772.2451	0.0102
772.4189	-0.0126
772.5927	0.0003
772.7665	0.0481
772.9402	0.0183
773.1139	-0.0036
773.2876	0.0194
773.4613	-0.0198
773.635	0.0066
773.8086	-0.0171
773.9822	0.0224
774.1558	-0.0073
774.3294	-0.0544
774.503	0.0202
774.6765	-0.0137
774.8501	0.0306
775.0236	0.0298
775.1971	-0.0151
775.3705	0.0061
775.544	0.0271
775.7174	-0.0284
775.8908	0.0417
776.0642	0.0403
776.2376	-0.0261
776.4109	0.0759
776.5843	-0.0111
776.7576	0.0261
776.9309	0.052
777.1041	-0.0573
777.2774	-0.0046
777.4506	-0.0186
777.6238	0.0073
777.797	-0.0323
777.9702	0.0342
778.1434	0.0106
778.3165	-0.0165
778.4896	-0.005
778.6627	0.0259
778.8358	-0.0475
779.0089	0.0288
779.1819	-0.0083
779.3549	0.0494
779.5279	-0.0029
779.7009	0.0326
779.8739	0.0036
780.0468	0.0239
780.2197	-0.0196
780.3926	-0.0353
780.5655	0.0226
780.7384	0.0008
780.9112	-0.0017
781.0841	-0.011
781.2569	0.0103
781.4297	-0.0056
781.6024	-0.0193
781.7752	-0.0343
781.9479	-0.0097
782.1206	0.0094
782.2933	0.0241
782.466	0.0014
782.6386	0.0031
782.8113	-0.0333
782.9839	0.0172
783.1565	-0.0156
783.329	-0.0076
783.5016	-0.031
783.6741	0.0053
783.8466	-0.0526
784.0191	0.0069
784.1916	0.0051
784.3641	-0.0265
784.5365	0.0768
784.7089	-0.0169
784.8813	0.0341
785.0537	0.0107
785.2261	-0.0472
785.3984	-0.0211
785.5707	0.0127
785.743	-0.022
785.9153	0.0144
786.0876	-0.0114
786.2598	-0.0068
786.432	-0.0237
786.6042	0.0339
786.7764	-0.0082
786.9486	0.0057
787.1207	-0.0035
787.2928	-0.0361
787.4649	-0.0104
787.637	0.013
787.8091	-0.0003
787.9811	-0.0089
788.1532	0.0171
788.3252	-0.0408
788.4972	-0.0147
788.6691	0.027
788.8411	0.0168
789.013	0.031
789.1849	0.0357
789.3568	0.0345
789.5287	-0.0596
789.7005	0.0767
789.8723	-0.0176
790.0442	-0.049
790.2159	0.0784
790.3877	0.0444
790.5595	0.0505
790.7312	0.0289
790.9029	0.0299
791.0746	0.0214
791.2463	-0.0424
791.4179	-0.0292
791.5896	-0.0104
791.7612	-0.0407
791.9328	-0.048
792.1044	-0.0407
792.2759	0.0476
792.4474	-0.0342
792.619	0.1102
792.7905	0.0166
792.9619	0.019
793.1334	0.0091
793.3048	-0.0257
793.4762	-0.0488
793.6476	-0.0394
793.819	-0.0142
793.9904	0.0097
794.1617	0.0027
794.333	-0.0157
794.5043	-0.0034
794.6756	0.0478
794.8469	0.0073
795.0181	0.005
795.1893	-0.0446
795.3605	-0.0173
795.5317	0.0339
795.7029	0.041
795.874	-0.0061
796.0452	-0.0049
796.2163	0.0904
796.3873	0.0865
796.5584	0.0644
796.7294	-0.1287
796.9005	0.0414
797.0715	0.0374
797.2425	0.0064
797.4134	0.036
797.5844	0.0816
797.7553	-0.0217
797.9262	0.0106
798.0971	-0.0176
798.2679	-0.0042
798.4388	-0.0519
798.6096	-0.0037
798.7804	-0.0422
798.9512	0.0499
799.122	0.0502
799.2927	-0.0716
799.4635	0.0171
799.6342	-0.0287
799.8049	-0.0205
799.9755	-0.0182
800.1462	0.013
800.3168	-0.0138
800.4874	0.0577
800.658	0.0193
800.8286	0.0095
800.9991	0.0188
801.1696	0.016
801.3402	-0.134
801.5106	-0.094
801.6811	-0.0423
801.8516	0.0144
802.022	0.0396
802.1924	-0.0887
802.3628	-0.0435
802.5332	0.0245
802.7035	-0.0406
802.8739	0.0274
803.0442	0.0413
803.2145	-0.0392
803.3847	0.0118
803.555	0.0066
803.7252	0.0428
803.8954	0.1518
804.0656	0.0337
804.2358	-0.0221
804.4059	0.0369
804.5761	0.1475
804.7462	-0.0138
804.9163	0.0372
805.0864	-0.093
805.2564	-0.0277
805.4264	0.0521
805.5965	0.0205
805.7665	0.1195
805.9364	-0.0647
806.1064	-0.0302
806.2763	0.0707
806.4462	0.0394
806.6161	-0.0218
806.786	0.0648
806.9559	0.0554
807.1257	-0.0264
807.2955	0.0402
807.4653	-0.014
807.6351	0.0035
807.8048	-0.086
807.9746	-0.013
808.1443	0.054
808.314	0.0006
808.4837	-0.0203
808.6533	-0.0208
808.8229	-0.065
808.9926	-0.0082
809.1622	-0.0179
809.3317	-0.0195
809.5013	0.1539
809.6708	0.084
809.8403	0.027
810.0098	0.0494
810.1793	0.1782
810.3488	0.0632
810.5182	0.0053
810.6876	0.0271
810.857	-0.02
811.0264	-0.1152
811.1958	0.0683
811.3651	-0.1574
811.5344	0.0515
811.7037	-0.068
811.873	0.1035
812.0422	0.0278
812.2115	0.2203
812.3807	0.0465
812.5499	0.1193
812.7191	0.1693
812.8882	0.0681
813.0574	-0.1412
813.2265	0.0927
813.3956	-0.088
813.5646	0.059
813.7337	-0.0231
813.9027	-0.0822
814.0718	-0.0161
814.2407	-0.1567
814.4097	0.0171
814.5787	-0.0152
814.7476	-0.0035
814.9165	0.0187
815.0854	-0.0521
815.2543	0.0995
815.4232	-0.1192
815.592	0.1577
815.7608	0.3003
815.9296	0.0823
816.0984	-0.0092
816.2671	0.137
816.4359	0.2218
816.6046	-0.0605
816.7733	0.0237
816.942	-0.0342
817.1106	-0.1716
817.2793	0.0505
817.4479	-0.0441
817.6165	-0.0115
817.785	-0.0527
817.9536	0.0928
818.1221	0.0109
818.2906	0.0579
818.4591	-0.0626
818.6276	0.0621
818.7961	0.206
818.9645	-0.0217
819.1329	0.2055
819.3013	-0.0244
819.4697	0.3615
819.638	0.0655
819.8064	-0.1455
819.9747	0.0411
820.143	0.0264
820.3113	0.1461
820.4795	0.0039
820.6477	-0.0897
820.816	0.0361
820.9842	-0.0461
821.1523	0.0731
821.3205	0.041
821.4886	-0.001
821.6567	0.0117
821.8248	0.0121
821.9929	-0.0236
822.1609	0.0348
822.329	0.0372
822.497	-0.04
822.665	0.1579
822.833	-0.0976
823.0009	-0.1634
823.1688	0.0489
823.3367	-0.1816
823.5046	0.1166
823.6725	0.171
823.8404	-0.1509
824.0082	0.038
824.176	0.0101
824.3438	0.1688
824.5116	0.0572
824.6793	-0.0018
824.847	0.0438
825.0147	0.2218
825.1824	0.1797
825.3501	0.3514
825.5177	0.22
825.6854	0.2084
825.853	-0.0227
826.0206	-0.055
826.1881	-0.0719
826.3557	0.0647
826.5232	0.0165
826.6907	0.147
826.8582	-0.074
827.0257	-0.024
827.1931	0.046
827.3605	-0.173
827.528	-0.053
827.6953	0.0441
827.8627	0.1716
828.03	0.0555
828.1974	-0.1646
828.3647	0.033
828.532	0.2781
828.6992	-0.1307
828.8665	0.1564
829.0337	-0.0109
829.2009	0.1339
829.3681	0.1735
829.5352	0.5706
829.7024	0.0184
829.8695	-0.1002
830.0366	0.5503
830.2037	0.0331
830.3707	0.0639
830.5378	0.1338
830.7048	-0.0658
830.8718	-0.0203
831.0388	0.0941
831.2057	-0.2887
831.3727	0.0773
831.5396	0.1552
831.7065	0.0216
831.8734	-0.3362
832.0402	0.0991
832.2071	0.2855
832.3739	0.4002
832.5407	-0
832.7075	0.3999
832.8742	0.3503
833.041	-0.0698
833.2077	0.197
833.3744	0.1409
833.541	0.1534
833.7077	0.0572
833.8743	-0.0113
834.0409	0.196
834.2075	-0.0207
834.3741	-0.0586
834.5407	-0.2065
834.7072	0.1493
834.8737	0.108
835.0402	-0.3362
835.2067	0.349
835.3731	-0.0644
835.5395	0.0017
835.706	0.3076
835.8723	-0.054
836.0387	0.4976
836.2051	0.2854
836.3714	0.4018
836.5377	-0.0872
836.704	0.1091
836.8703	-0.1187
837.0365	0.4141
837.2027	-0.1495
837.3689	0.1917
837.5351	0.3702
837.7013	0.0653
837.8674	-0.1313
838.0335	0.1767
838.1997	0.4157
838.3657	1.2201
838.5318	-0
838.6978	-0
838.8639	-0.0109
839.0299	0.4298
839.1958	0.0779
839.3618	0.4684
839.5277	-0.3127
839.6937	0.3174
839.8596	-0.0112
840.0254	0.2489
840.1913	0.5232
840.3571	-0.2299
840.523	0.0786
840.6888	-0.0705
840.8545	0.0559
841.0203	-0.254
841.186	0.3542
841.3517	0.2999
841.5174	0.0961
841.6831	0.386
841.8488	0.2443
842.0144	0.1844
842.18	-0.1392
842.3456	0.1806
842.5112	0.2723
842.6767	-0.0963
842.8422	-0.115
843.0077	0.1202
843.1732	0.9971
843.3387	-0.2254
843.5042	0.5457
843.6696	-0.5172
843.835	-0.0069
844.0004	0.4902
844.1657	0.4567
844.3311	-0
844.4964	0.8342
844.6617	-0
844.827	0.8888
844.9923	0.4388
845.1575	-0
845.3227	0.2768
845.4879	0.4868
845.6531	0.1398
845.8183	0.568
845.9834	-0.2218
846.1485	0.0418
846.3136	1.085
846.4787	-0.2496
846.6438	0.164
846.8088	-0
846.9738	-0
847.1388	0.4233
847.3038	-0
847.4687	-0
847.6337	-0.1404
847.7986	0.8344
847.9635	0.6291
848.1284	-0
848.2932	0.3709
848.458	-0.0139
848.6228	0.0841
848.7876	-0
848.9524	0.2169
849.1172	0.1091
849.2819	-0
849.4466	-0.3875
849.6113	0.0339
849.7759	-0
849.9406	0.2391
850.1052	-0.1734
850.2698	-0
850.4344	0.6734
850.599	-0
850.7635	-0.0167
850.928	0.4915
851.0925	-0.0613
851.257	-0
851.4215	-0
851.5859	1.087
851.7503	-0
851.9147	-0
852.0791	-0.4266
852.2434	0.647
852.4078	-0
852.5721	-0
852.7364	0.1199
852.9007	-0.2966
853.0649	0.9507
853.2291	0.0231
853.3934	0.0807
853.5575	-0.4202
853.7217	-0.1974
853.8859	-0
854.05	-0.9678
854.2141	-0
854.3782	0.4825
854.5423	-0.7451
854.7063	0.1182
854.8703	0.0256
855.0343	0.2427
855.1983	-0.297
855.3623	0.5961
855.5262	-0.9005
855.6901	0.5416
855.854	-0.2859
856.0179	-0
856.1818	-0
856.3456	0.0455
856.5094	-0.8451
856.6732	-0
856.837	0.4771
857.0008	-0
857.1645	-0
857.3282	0.4538
857.4919	-0.1148
857.6556	0.7763
857.8192	-0.2436
857.9828	-0.4362
858.1465	0.2854
858.31	-0
858.4736	0.0356
858.6372	-0.3149
858.8007	-0.8718
858.9642	0.1409
859.1277	-0.294
859.2911	0.2545
859.4546	-0
859.618	0.1555
859.7814	0.0768
859.9448	-0.0145
860.1081	-0
860.2715	-0
860.4348	0.9731
860.5981	-0.4943
860.7614	0.0751
860.9246	0.0754
861.0879	-0.0435
861.2511	1.1357
861.4143	-0
861.5774	0.5153
861.7406	-0.4771
861.9037	0.2218
862.0668	-0
862.2299	-1.7993
862.393	-0
862.556	0.0197
862.7191	-0.013
862.8821	-0.2195
863.0451	0.8685
863.208	0.7145
863.371	0.5656
863.5339	-0.1629
863.6968	0.0567
863.8597	-0
864.0225	-0.2144
864.1854	-0
864.3482	0.7256
864.511	0.9478
864.6737	-0.3142
864.8365	0.2493
864.9992	-0.0197
865.1619	0.1831
865.3246	0.0343
865.4873	-0
865.65	-0
865.8126	0.264
865.9752	0.0087
866.1378	-0.5983
866.3004	0.2848
866.4629	0.1073
866.6254	0.1461
866.7879	0.2182
866.9504	-0.5332
867.1129	0.1007
867.2753	-0.2842
867.4377	0.306
867.6001	0.0219
867.7625	-0
867.9249	0.1902
868.0872	-0
868.2495	-0
868.4118	0.372
868.5741	-0
868.7363	-0
868.8986	-0.643
869.0608	1.3396
869.223	0.2484
869.3851	0.1814
869.5473	-1.1213
869.7094	-0
869.8715	-0.2317
870.0336	0.2308
870.1957	1.0414
870.3577	0.2159
870.5197	0.2311
870.6817	-0
870.8437	0.6498
871.0057	-0
871.1676	0.3838
871.3295	-0.1329
871.4914	-0
871.6533	-0
871.8151	-0.0207
871.977	-0
872.1388	-0
872.3006	1.287
872.4623	-0
872.6241	-0
872.7858	-0.0768
872.9475	-0
873.1092	-0
873.2709	-0
873.4325	-0
873.5941	-0
873.7557	-0
873.9173	-0
874.0789	0.6135
874.2404	-0.6112
874.4019	0.0043
874.5634	-0.0475
874.7249	-0
874.8863	-0.5927
875.0478	0.1289
875.2092	-0
875.3706	-0.5055
875.5319	0.4771
875.6933	-0
875.8546	-0
876.0159	0.2218
876.1772	-0
876.3385	-0
876.4997	-0
876.6609	-0.8868
876.8221	0.7413
876.9833	0.1632
877.1445	0.7837
877.3056	-0.0995
877.4667	0.2218
877.6278	-0
877.7889	0.0085
877.9499	-0
878.111	0.2517
878.272	-0
878.433	-0
878.5939	0.0978
878.7549	-0
878.9158	-0.4075
879.0767	-0
879.2376	-0.4771
879.3984	-0
879.5593	0.275
879.7201	-0.0343
879.8809	0.2054
880.0417	-0.0516
880.2024	0.0591
880.3632	0.205
880.5239	-0
880.6846	0.1368
880.8452	0.2404
881.0059	-0.5058
881.1665	1.2848
881.3271	0.7677
881.4877	0.2871
881.6483	-1.4314
881.8088	-0.0634
881.9693	0.3507
882.1298	0.3507
882.2903	0.3507
