Data from D4ACN5uM480nmA_Absorbance_12-08-01-496.txt Node
Date: Fri Feb 21 12:08:01 GMT 2025
User: LASERRRRR
Spectrometer: FLMT03099
Trigger mode: 0
Integration Time (sec): 1.500000E-2
Scans to average: 1
Electric dark correction enabled: true
Nonlinearity correction enabled: false
Boxcar width: 0
XAxis mode: Wavelengths
Number of Pixels in Spectrum: 3648
>>>>>Begin Spectral Data<<<<<
179.3399	-0.1481
179.5586	-0.1481
179.7771	-0.1481
179.9957	-0.1004
180.2143	-0
180.4329	-0
180.6514	-0
180.8699	-0
181.0885	-0
181.307	0.2787
181.5255	0.2843
181.744	-0.4976
181.9625	-0.2571
182.181	0.0337
182.3994	-0
182.6179	-0
182.8363	-0
183.0547	-0
183.2732	0.1239
183.4916	0.2602
183.71	0.1099
183.9284	0.2683
184.1467	0.0595
184.3651	0.1954
184.5835	0.0348
184.8018	0.0972
185.0201	0.3995
185.2385	0.0582
185.4568	0.2105
185.6751	0.1368
185.8934	0.174
186.1117	0.1287
186.3299	0.0468
186.5482	0.1556
186.7664	0.2412
186.9847	0.3278
187.2029	0.419
187.4211	0.173
187.6393	0.1509
187.8575	0.214
188.0757	0.4511
188.2939	0.0227
188.512	0.0825
188.7302	0.3935
188.9483	0.3387
189.1665	0.6726
189.3846	0.4076
189.6027	-0.0714
189.8208	0.0582
190.0389	0.3738
190.257	0.0802
190.475	0.2579
190.6931	0.1129
190.9111	0.2799
191.1292	0.1532
191.3472	0.358
191.5652	0.6414
191.7832	0.289
192.0012	0.5175
192.2192	0.2647
192.4371	0.3061
192.6551	0.3484
192.873	0.1749
193.091	0.4539
193.3089	0.163
193.5268	0.4323
193.7447	0.3385
193.9626	0.7152
194.1805	0.3602
194.3984	0.4343
194.6162	0.4938
194.8341	0.4526
195.0519	0.3753
195.2697	0.4938
195.4875	0.5458
195.7054	0.5088
195.9231	0.4639
196.1409	0.5943
196.3587	0.5197
196.5765	0.4785
196.7942	0.5454
197.012	0.6576
197.2297	0.5713
197.4474	0.6397
197.6651	0.5736
197.8828	0.5842
198.1005	0.6622
198.3182	0.5077
198.5358	0.6415
198.7535	0.5662
198.9711	0.6188
199.1888	0.6722
199.4064	0.559
199.624	0.6279
199.8416	0.5274
200.0592	0.5557
200.2767	0.6454
200.4943	0.622
200.7119	0.5746
200.9294	0.5268
201.1469	0.643
201.3645	0.5702
201.582	0.5556
201.7995	0.6455
202.017	0.5291
202.2344	0.587
202.4519	0.5664
202.6694	0.5967
202.8868	0.5266
203.1042	0.568
203.3217	0.5371
203.5391	0.5226
203.7565	0.487
203.9739	0.524
204.1913	0.53
204.4086	0.5126
204.626	0.5671
204.8433	0.5076
205.0607	0.5095
205.278	0.5438
205.4953	0.4775
205.7126	0.4749
205.9299	0.4484
206.1472	0.4823
206.3644	0.4684
206.5817	0.5279
206.7989	0.4508
207.0162	0.3911
207.2334	0.4453
207.4506	0.4644
207.6678	0.4297
207.885	0.4288
208.1022	0.4165
208.3194	0.4407
208.5365	0.4615
208.7537	0.432
208.9708	0.4452
209.1879	0.4363
209.405	0.3817
209.6222	0.4244
209.8392	0.4081
210.0563	0.4364
210.2734	0.3882
210.4905	0.3957
210.7075	0.4321
210.9245	0.3981
211.1416	0.4085
211.3586	0.4085
211.5756	0.4264
211.7926	0.4001
212.0096	0.4123
212.2265	0.4332
212.4435	0.4219
212.6604	0.396
212.8774	0.4133
213.0943	0.384
213.3112	0.3994
213.5281	0.4084
213.745	0.3917
213.9619	0.3594
214.1788	0.4054
214.3956	0.3961
214.6125	0.4051
214.8293	0.3944
215.0461	0.4069
215.2629	0.4092
215.4798	0.3968
215.6965	0.3656
215.9133	0.3977
216.1301	0.4122
216.3469	0.3965
216.5636	0.4076
216.7803	0.4128
216.9971	0.4047
217.2138	0.3994
217.4305	0.4002
217.6472	0.4037
217.8639	0.4061
218.0805	0.4058
218.2972	0.4143
218.5138	0.4073
218.7305	0.4097
218.9471	0.4238
219.1637	0.4242
219.3803	0.4141
219.5969	0.414
219.8135	0.4219
220.0301	0.4082
220.2466	0.4302
220.4632	0.434
220.6797	0.4375
220.8962	0.4504
221.1127	0.4279
221.3292	0.4378
221.5457	0.4293
221.7622	0.4237
221.9787	0.4348
222.1951	0.4426
222.4116	0.4306
222.628	0.4509
222.8444	0.4393
223.0608	0.4339
223.2772	0.4296
223.4936	0.457
223.71	0.4606
223.9264	0.451
224.1427	0.4638
224.3591	0.4693
224.5754	0.4642
224.7917	0.4491
225.008	0.4513
225.2243	0.4572
225.4406	0.4647
225.6569	0.4579
225.8732	0.4609
226.0894	0.4842
226.3057	0.4673
226.5219	0.4646
226.7381	0.4629
226.9543	0.4656
227.1705	0.472
227.3867	0.4943
227.6029	0.4641
227.8191	0.4786
228.0352	0.5003
228.2513	0.4862
228.4675	0.4802
228.6836	0.5002
228.8997	0.4968
229.1158	0.4889
229.3319	0.5019
229.548	0.4885
229.764	0.5057
229.9801	0.5041
230.1961	0.5132
230.4121	0.5156
230.6282	0.514
230.8442	0.5128
231.0602	0.505
231.2761	0.5205
231.4921	0.5216
231.7081	0.5164
231.924	0.5058
232.14	0.5143
232.3559	0.52
232.5718	0.5169
232.7877	0.521
233.0036	0.5133
233.2195	0.5218
233.4353	0.5458
233.6512	0.5416
233.867	0.5367
234.0829	0.5301
234.2987	0.5238
234.5145	0.5399
234.7303	0.5289
234.9461	0.5347
235.1619	0.5306
235.3776	0.5302
235.5934	0.5391
235.8091	0.5276
236.0249	0.5354
236.2406	0.5397
236.4563	0.5439
236.672	0.5373
236.8877	0.5215
237.1034	0.5234
237.319	0.5308
237.5347	0.5292
237.7503	0.5441
237.966	0.5474
238.1816	0.5238
238.3972	0.5433
238.6128	0.5437
238.8284	0.5256
239.0439	0.5419
239.2595	0.539
239.475	0.5344
239.6906	0.5329
239.9061	0.5316
240.1216	0.5423
240.3371	0.5247
240.5526	0.5158
240.7681	0.5252
240.9836	0.5182
241.199	0.5113
241.4145	0.5014
241.6299	0.4951
241.8453	0.5048
242.0607	0.4771
242.2761	0.4754
242.4915	0.4676
242.7069	0.4613
242.9223	0.4559
243.1376	0.4497
243.353	0.4437
243.5683	0.4358
243.7836	0.4249
243.9989	0.4184
244.2142	0.4119
244.4295	0.4004
244.6448	0.3996
244.86	0.3908
245.0753	0.3838
245.2905	0.3805
245.5057	0.3703
245.721	0.3559
245.9362	0.3454
246.1514	0.3345
246.3665	0.3415
246.5817	0.3357
246.7969	0.3246
247.012	0.3219
247.2271	0.3046
247.4423	0.3076
247.6574	0.3151
247.8725	0.2935
248.0876	0.2931
248.3026	0.2899
248.5177	0.285
248.7328	0.2813
248.9478	0.2712
249.1628	0.2656
249.3779	0.2631
249.5929	0.2591
249.8079	0.2523
250.0228	0.2597
250.2378	0.2537
250.4528	0.2532
250.6677	0.2476
250.8827	0.2394
251.0976	0.2361
251.3125	0.2355
251.5274	0.2355
251.7423	0.2298
251.9572	0.2205
252.172	0.2189
252.3869	0.2169
252.6017	0.2183
252.8166	0.2165
253.0314	0.2176
253.2462	0.2158
253.461	0.2175
253.6758	0.2089
253.8906	0.2046
254.1053	0.2013
254.3201	0.1995
254.5348	0.2051
254.7496	0.2023
254.9643	0.208
255.179	0.204
255.3937	0.2002
255.6083	0.1967
255.823	0.1949
256.0377	0.198
256.2523	0.1969
256.467	0.1914
256.6816	0.2065
256.8962	0.1897
257.1108	0.1964
257.3254	0.1939
257.54	0.1931
257.7545	0.1955
257.9691	0.1897
258.1836	0.1857
258.3981	0.1847
258.6127	0.1882
258.8272	0.182
259.0417	0.1832
259.2561	0.1887
259.4706	0.1918
259.6851	0.1802
259.8995	0.1741
260.114	0.1881
260.3284	0.1775
260.5428	0.1795
260.7572	0.1916
260.9716	0.18
261.186	0.1859
261.4003	0.1836
261.6147	0.18
261.829	0.1804
262.0433	0.1832
262.2577	0.1849
262.472	0.1844
262.6863	0.1879
262.9005	0.192
263.1148	0.1792
263.3291	0.1896
263.5433	0.1903
263.7576	0.177
263.9718	0.1886
264.186	0.1799
264.4002	0.1849
264.6144	0.1936
264.8286	0.1862
265.0427	0.1926
265.2569	0.1872
265.471	0.1845
265.6851	0.1794
265.8993	0.1822
266.1134	0.1874
266.3275	0.182
266.5415	0.1817
266.7556	0.1803
266.9697	0.1787
267.1837	0.1849
267.3978	0.193
267.6118	0.1853
267.8258	0.1871
268.0398	0.1843
268.2538	0.1824
268.4677	0.1813
268.6817	0.1803
268.8957	0.1912
269.1096	0.1728
269.3235	0.1884
269.5374	0.1778
269.7514	0.1836
269.9652	0.1792
270.1791	0.1778
270.393	0.1806
270.6068	0.1712
270.8207	0.1786
271.0345	0.1806
271.2483	0.1711
271.4622	0.1783
271.676	0.1756
271.8897	0.1753
272.1035	0.173
272.3173	0.1745
272.531	0.1727
272.7448	0.1705
272.9585	0.175
273.1722	0.1709
273.3859	0.1716
273.5996	0.1718
273.8133	0.1685
274.0269	0.1718
274.2406	0.1682
274.4542	0.1703
274.6679	0.1683
274.8815	0.1753
275.0951	0.1709
275.3087	0.1787
275.5223	0.1758
275.7358	0.1759
275.9494	0.1707
276.1629	0.1808
276.3765	0.1738
276.59	0.1774
276.8035	0.1775
277.017	0.1874
277.2305	0.1798
277.444	0.172
277.6574	0.1779
277.8709	0.1776
278.0843	0.1812
278.2978	0.185
278.5112	0.1828
278.7246	0.1772
278.938	0.1815
279.1513	0.1811
279.3647	0.1767
279.5781	0.1751
279.7914	0.1819
280.0047	0.1817
280.2181	0.1812
280.4314	0.1801
280.6447	0.1843
280.8579	0.1777
281.0712	0.1829
281.2845	0.1837
281.4977	0.1918
281.711	0.1846
281.9242	0.181
282.1374	0.1769
282.3506	0.1826
282.5638	0.1849
282.7769	0.1853
282.9901	0.1792
283.2033	0.1839
283.4164	0.1837
283.6295	0.184
283.8426	0.1918
284.0557	0.1845
284.2688	0.191
284.4819	0.1994
284.695	0.1893
284.908	0.1938
285.1211	0.1881
285.3341	0.1962
285.5471	0.1967
285.7601	0.1903
285.9731	0.1884
286.1861	0.1912
286.3991	0.1957
286.612	0.1998
286.825	0.1963
287.0379	0.1983
287.2508	0.1914
287.4637	0.1935
287.6766	0.1982
287.8895	0.192
288.1024	0.1964
288.3152	0.1951
288.5281	0.1973
288.7409	0.1975
288.9538	0.1933
289.1666	0.1999
289.3794	0.1977
289.5922	0.197
289.8049	0.2038
290.0177	0.1958
290.2304	0.2034
290.4432	0.205
290.6559	0.1881
290.8686	0.1995
291.0813	0.2049
291.294	0.2032
291.5067	0.202
291.7194	0.1973
291.932	0.2017
292.1447	0.198
292.3573	0.199
292.5699	0.2048
292.7825	0.1979
292.9951	0.1978
293.2077	0.1999
293.4203	0.2013
293.6328	0.1991
293.8454	0.1928
294.0579	0.2068
294.2704	0.198
294.4829	0.202
294.6954	0.1995
294.9079	0.2046
295.1204	0.1989
295.3328	0.2031
295.5453	0.1949
295.7577	0.2013
295.9701	0.1992
296.1825	0.2008
296.3949	0.2051
296.6073	0.2045
296.8197	0.2019
297.0321	0.1975
297.2444	0.1986
297.4567	0.1956
297.6691	0.1999
297.8814	0.1993
298.0937	0.1966
298.306	0.1942
298.5182	0.199
298.7305	0.192
298.9428	0.1991
299.155	0.2003
299.3672	0.2027
299.5794	0.1995
299.7916	0.2022
300.0038	0.1931
300.216	0.1939
300.4282	0.1938
300.6403	0.1964
300.8525	0.1983
301.0646	0.1932
301.2767	0.1955
301.4888	0.2017
301.7009	0.2001
301.913	0.2001
302.125	0.2009
302.3371	0.1972
302.5491	0.1992
302.7612	0.198
302.9732	0.1928
303.1852	0.1958
303.3972	0.1899
303.6092	0.1925
303.8211	0.1862
304.0331	0.1881
304.245	0.1936
304.457	0.2
304.6689	0.1949
304.8808	0.1891
305.0927	0.1915
305.3046	0.1869
305.5164	0.1901
305.7283	0.1886
305.9401	0.1787
306.152	0.1801
306.3638	0.1801
306.5756	0.1806
306.7874	0.1844
306.9992	0.1818
307.2109	0.1703
307.4227	0.1787
307.6344	0.1783
307.8462	0.1708
308.0579	0.1682
308.2696	0.1693
308.4813	0.1649
308.693	0.1649
308.9046	0.1672
309.1163	0.1615
309.328	0.1589
309.5396	0.1567
309.7512	0.1525
309.9628	0.1527
310.1744	0.153
310.386	0.148
310.5976	0.1488
310.8091	0.1471
311.0207	0.1474
311.2322	0.1489
311.4437	0.1444
311.6552	0.147
311.8667	0.1334
312.0782	0.1418
312.2897	0.1413
312.5012	0.1412
312.7126	0.1349
312.924	0.1379
313.1355	0.1327
313.3469	0.1315
313.5583	0.1263
313.7696	0.1263
313.981	0.1278
314.1924	0.1299
314.4037	0.1243
314.6151	0.125
314.8264	0.1262
315.0377	0.13
315.249	0.1226
315.4603	0.1235
315.6716	0.1268
315.8828	0.1207
316.0941	0.1162
316.3053	0.1242
316.5165	0.1177
316.7277	0.1234
316.9389	0.1238
317.1501	0.1201
317.3613	0.1126
317.5724	0.1177
317.7836	0.1164
317.9947	0.1137
318.2058	0.1229
318.417	0.12
318.6281	0.1147
318.8391	0.1116
319.0502	0.1157
319.2613	0.1164
319.4723	0.1185
319.6834	0.1197
319.8944	0.1216
320.1054	0.1177
320.3164	0.1172
320.5274	0.1143
320.7383	0.1156
320.9493	0.1164
321.1602	0.1164
321.3712	0.1224
321.5821	0.1225
321.793	0.111
322.0039	0.1161
322.2148	0.118
322.4257	0.1192
322.6365	0.1097
322.8474	0.1169
323.0582	0.114
323.269	0.1166
323.4798	0.121
323.6906	0.1127
323.9014	0.1136
324.1122	0.1117
324.3229	0.1172
324.5337	0.1231
324.7444	0.1175
324.9551	0.12
325.1658	0.1243
325.3765	0.1159
325.5872	0.1195
325.7979	0.1207
326.0085	0.1216
326.2192	0.1117
326.4298	0.1205
326.6404	0.1142
326.851	0.1228
327.0616	0.1214
327.2722	0.1245
327.4828	0.1127
327.6933	0.1196
327.9039	0.1247
328.1144	0.1223
328.3249	0.1192
328.5354	0.1156
328.7459	0.124
328.9564	0.1275
329.1669	0.1185
329.3773	0.1276
329.5878	0.1261
329.7982	0.1213
330.0086	0.1229
330.219	0.1226
330.4294	0.1277
330.6398	0.1277
330.8502	0.1221
331.0605	0.1252
331.2708	0.1266
331.4812	0.1257
331.6915	0.1234
331.9018	0.1183
332.1121	0.1311
332.3224	0.1278
332.5326	0.124
332.7429	0.1213
332.9531	0.1252
333.1633	0.1267
333.3735	0.1243
333.5837	0.1293
333.7939	0.1232
334.0041	0.1232
334.2143	0.131
334.4244	0.1204
334.6346	0.1257
334.8447	0.13
335.0548	0.1257
335.2649	0.1307
335.475	0.1267
335.685	0.122
335.8951	0.1355
336.1051	0.1293
336.3152	0.1285
336.5252	0.1233
336.7352	0.121
336.9452	0.1302
337.1552	0.1287
337.3652	0.1343
337.5751	0.1271
337.7851	0.1238
337.995	0.1264
338.2049	0.1328
338.4148	0.1283
338.6247	0.1329
338.8346	0.1304
339.0445	0.1291
339.2543	0.1355
339.4642	0.1407
339.674	0.1347
339.8838	0.135
340.0936	0.1343
340.3034	0.1344
340.5132	0.1277
340.7229	0.1389
340.9327	0.1379
341.1424	0.1312
341.3522	0.1383
341.5619	0.128
341.7716	0.1392
341.9813	0.1445
342.1909	0.1371
342.4006	0.1438
342.6102	0.1331
342.8199	0.1417
343.0295	0.1413
343.2391	0.139
343.4487	0.1441
343.6583	0.1465
343.8679	0.1407
344.0774	0.1443
344.287	0.1499
344.4965	0.1436
344.706	0.1539
344.9155	0.1495
345.125	0.151
345.3345	0.1421
345.544	0.1526
345.7534	0.1531
345.9629	0.1498
346.1723	0.1462
346.3817	0.1512
346.5911	0.1558
346.8005	0.1555
347.0099	0.1558
347.2193	0.1521
347.4286	0.1589
347.638	0.159
347.8473	0.1557
348.0566	0.1574
348.2659	0.1562
348.4752	0.157
348.6845	0.1642
348.8937	0.1612
349.103	0.1517
349.3122	0.162
349.5214	0.1613
349.7306	0.162
349.9398	0.1584
350.149	0.1693
350.3582	0.1678
350.5674	0.1629
350.7765	0.1677
350.9856	0.1705
351.1948	0.1634
351.4039	0.1718
351.613	0.1755
351.822	0.162
352.0311	0.1685
352.2402	0.1724
352.4492	0.1723
352.6582	0.1691
352.8672	0.1741
353.0762	0.177
353.2852	0.1714
353.4942	0.1803
353.7032	0.1697
353.9121	0.1844
354.1211	0.1788
354.33	0.1786
354.5389	0.1787
354.7478	0.1799
354.9567	0.1773
355.1655	0.1817
355.3744	0.1721
355.5833	0.188
355.7921	0.1795
356.0009	0.1809
356.2097	0.1909
356.4185	0.1879
356.6273	0.1837
356.8361	0.1948
357.0448	0.182
357.2536	0.19
357.4623	0.1877
357.671	0.1862
357.8797	0.1893
358.0884	0.1843
358.2971	0.1943
358.5057	0.1887
358.7144	0.1997
358.923	0.1928
359.1316	0.1912
359.3402	0.199
359.5488	0.1949
359.7574	0.2009
359.966	0.2057
360.1746	0.1952
360.3831	0.2115
360.5916	0.2097
360.8002	0.2093
361.0087	0.2103
361.2172	0.2119
361.4256	0.1997
361.6341	0.2121
361.8426	0.2083
362.051	0.211
362.2594	0.2232
362.4678	0.2149
362.6762	0.222
362.8846	0.2215
363.093	0.2174
363.3014	0.222
363.5097	0.2115
363.718	0.2221
363.9264	0.2193
364.1347	0.2202
364.343	0.2298
364.5513	0.228
364.7595	0.2264
364.9678	0.2381
365.176	0.2278
365.3842	0.2305
365.5925	0.2338
365.8007	0.2337
366.0089	0.2363
366.217	0.2346
366.4252	0.2406
366.6333	0.2361
366.8415	0.2375
367.0496	0.2374
367.2577	0.238
367.4658	0.2451
367.6739	0.2364
367.882	0.2506
368.09	0.246
368.2981	0.2405
368.5061	0.2499
368.7141	0.2471
368.9221	0.2506
369.1301	0.2478
369.3381	0.2517
369.5461	0.2519
369.754	0.246
369.962	0.2591
370.1699	0.2634
370.3778	0.2533
370.5857	0.2614
370.7936	0.2601
371.0015	0.2571
371.2093	0.2527
371.4172	0.2637
371.625	0.2715
371.8328	0.2665
372.0406	0.2611
372.2484	0.2559
372.4562	0.2677
372.664	0.2724
372.8717	0.2623
373.0795	0.2672
373.2872	0.2677
373.4949	0.2731
373.7026	0.2805
373.9103	0.264
374.118	0.2672
374.3256	0.2742
374.5333	0.2738
374.7409	0.2667
374.9485	0.2758
375.1561	0.282
375.3637	0.2744
375.5713	0.2792
375.7789	0.2831
375.9864	0.2849
376.194	0.2843
376.4015	0.2869
376.609	0.2884
376.8165	0.2823
377.024	0.2875
377.2315	0.2967
377.4389	0.279
377.6464	0.2874
377.8538	0.2827
378.0612	0.2839
378.2686	0.2857
378.476	0.2844
378.6834	0.2962
378.8908	0.2965
379.0981	0.293
379.3055	0.2969
379.5128	0.2977
379.7201	0.2951
379.9274	0.2862
380.1347	0.3028
380.342	0.3
380.5492	0.3023
380.7565	0.3046
380.9637	0.2968
381.1709	0.2973
381.3781	0.3048
381.5853	0.3034
381.7925	0.312
381.9997	0.3058
382.2068	0.2999
382.4139	0.3091
382.6211	0.3186
382.8282	0.305
383.0353	0.3031
383.2424	0.3148
383.4494	0.3058
383.6565	0.3098
383.8635	0.3143
384.0706	0.3141
384.2776	0.3162
384.4846	0.3079
384.6916	0.3066
384.8986	0.3155
385.1055	0.3232
385.3125	0.3153
385.5194	0.3076
385.7263	0.3037
385.9333	0.3226
386.1402	0.317
386.347	0.3149
386.5539	0.3158
386.7608	0.3182
386.9676	0.3048
387.1744	0.3175
387.3813	0.3107
387.5881	0.3163
387.7948	0.3149
388.0016	0.312
388.2084	0.3166
388.4151	0.3059
388.6219	0.2998
388.8286	0.3168
389.0353	0.3046
389.242	0.3069
389.4487	0.3027
389.6553	0.3024
389.862	0.3012
390.0686	0.3121
390.2753	0.3017
390.4819	0.3091
390.6885	0.3042
390.8951	0.3103
391.1016	0.3056
391.3082	0.2969
391.5147	0.3029
391.7213	0.3006
391.9278	0.2965
392.1343	0.2941
392.3408	0.297
392.5473	0.2863
392.7537	0.2944
392.9602	0.2881
393.1666	0.2887
393.373	0.2912
393.5794	0.2826
393.7858	0.2948
393.9922	0.2909
394.1986	0.2823
394.4049	0.2822
394.6113	0.2902
394.8176	0.2693
395.0239	0.2734
395.2302	0.2891
395.4365	0.2832
395.6428	0.2794
395.8491	0.2766
396.0553	0.2689
396.2615	0.273
396.4678	0.2795
396.674	0.2741
396.8802	0.272
397.0863	0.2689
397.2925	0.2694
397.4987	0.275
397.7048	0.2773
397.9109	0.2798
398.117	0.2675
398.3231	0.2746
398.5292	0.274
398.7353	0.2634
398.9413	0.2673
399.1474	0.2715
399.3534	0.275
399.5594	0.275
399.7654	0.2724
399.9714	0.2631
400.1774	0.26
400.3833	0.2757
400.5893	0.2612
400.7952	0.2752
401.0011	0.2625
401.207	0.2724
401.4129	0.2628
401.6188	0.2591
401.8247	0.2716
402.0305	0.2566
402.2364	0.2571
402.4422	0.275
402.648	0.2693
402.8538	0.2727
403.0596	0.2613
403.2654	0.2638
403.4711	0.271
403.6768	0.2734
403.8826	0.2663
404.0883	0.2669
404.294	0.2669
404.4997	0.2605
404.7054	0.2706
404.911	0.2679
405.1167	0.2672
405.3223	0.2719
405.5279	0.2697
405.7335	0.2621
405.9391	0.2692
406.1447	0.2599
406.3502	0.2718
406.5558	0.2726
406.7613	0.2714
406.9668	0.2642
407.1724	0.2711
407.3778	0.2716
407.5833	0.2652
407.7888	0.2622
407.9942	0.2653
408.1997	0.2663
408.4051	0.2675
408.6105	0.2725
408.8159	0.2657
409.0213	0.2718
409.2267	0.266
409.432	0.2664
409.6374	0.2635
409.8427	0.2612
410.048	0.256
410.2533	0.2568
410.4586	0.2624
410.6639	0.2689
410.8691	0.278
411.0744	0.2691
411.2796	0.274
411.4848	0.2606
411.69	0.2652
411.8952	0.2625
412.1004	0.2666
412.3056	0.2631
412.5107	0.276
412.7158	0.2756
412.921	0.2649
413.1261	0.2745
413.3312	0.2588
413.5362	0.2658
413.7413	0.2634
413.9464	0.2655
414.1514	0.2599
414.3564	0.2546
414.5614	0.26
414.7664	0.2572
414.9714	0.264
415.1764	0.2583
415.3813	0.2607
415.5863	0.2613
415.7912	0.2624
415.9961	0.2534
416.201	0.27
416.4059	0.2562
416.6108	0.2644
416.8156	0.2547
417.0205	0.2619
417.2253	0.2607
417.4301	0.2622
417.6349	0.2596
417.8397	0.2655
418.0445	0.2516
418.2492	0.2505
418.454	0.2519
418.6587	0.263
418.8634	0.2479
419.0681	0.2558
419.2728	0.2445
419.4775	0.2545
419.6822	0.2503
419.8868	0.2554
420.0915	0.2639
420.2961	0.2516
420.5007	0.2487
420.7053	0.2472
420.9099	0.2378
421.1144	0.2416
421.319	0.2404
421.5235	0.2402
421.728	0.2484
421.9325	0.2475
422.137	0.2384
422.3415	0.2357
422.546	0.2397
422.7504	0.2393
422.9549	0.2403
423.1593	0.2414
423.3637	0.2389
423.5681	0.2363
423.7725	0.2329
423.9769	0.2311
424.1812	0.2378
424.3856	0.2356
424.5899	0.2323
424.7942	0.2331
424.9985	0.2301
425.2028	0.2363
425.4071	0.2253
425.6113	0.2236
425.8156	0.2224
426.0198	0.2146
426.224	0.2199
426.4282	0.23
426.6324	0.2188
426.8366	0.2228
427.0407	0.2177
427.2449	0.2184
427.449	0.214
427.6531	0.2108
427.8572	0.2138
428.0613	0.2096
428.2654	0.2138
428.4694	0.1985
428.6735	0.2105
428.8775	0.2079
429.0815	0.2133
429.2855	0.2004
429.4895	0.2063
429.6935	0.1893
429.8975	0.2002
430.1014	0.194
430.3053	0.1863
430.5093	0.1966
430.7132	0.198
430.9171	0.1923
431.1209	0.2027
431.3248	0.1811
431.5286	0.17
431.7325	0.1929
431.9363	0.183
432.1401	0.1755
432.3439	0.1736
432.5477	0.1867
432.7514	0.1709
432.9552	0.1706
433.1589	0.175
433.3627	0.1732
433.5664	0.1764
433.7701	0.1695
433.9737	0.1654
434.1774	0.1706
434.3811	0.1615
434.5847	0.1566
434.7883	0.1631
434.9919	0.1609
435.1955	0.1511
435.3991	0.1551
435.6027	0.1492
435.8062	0.1588
436.0098	0.1566
436.2133	0.1526
436.4168	0.1459
436.6203	0.1433
436.8238	0.1411
437.0272	0.1384
437.2307	0.1264
437.4341	0.1341
437.6375	0.1276
437.841	0.1267
438.0443	0.1271
438.2477	0.1296
438.4511	0.1328
438.6545	0.1292
438.8578	0.1254
439.0611	0.1219
439.2644	0.1232
439.4677	0.1224
439.671	0.1143
439.8743	0.1142
440.0775	0.114
440.2808	0.1281
440.484	0.1125
440.6872	0.1061
440.8904	0.1121
441.0936	0.1158
441.2967	0.1021
441.4999	0.1058
441.703	0.1001
441.9062	0.1047
442.1093	0.0906
442.3124	0.1005
442.5155	0.0916
442.7185	0.0816
442.9216	0.0927
443.1246	0.0912
443.3276	0.0902
443.5307	0.0857
443.7337	0.0865
443.9366	0.0839
444.1396	0.0756
444.3426	0.0852
444.5455	0.0752
444.7484	0.0711
444.9513	0.0863
445.1542	0.0769
445.3571	0.0722
445.56	0.0746
445.7628	0.0731
445.9657	0.0683
446.1685	0.0786
446.3713	0.0689
446.5741	0.0563
446.7769	0.0699
446.9797	0.0664
447.1824	0.0681
447.3852	0.058
447.5879	0.0578
447.7906	0.0627
447.9933	0.0654
448.196	0.0554
448.3986	0.0576
448.6013	0.0554
448.8039	0.0594
449.0066	0.0512
449.2092	0.0509
449.4118	0.0499
449.6143	0.051
449.8169	0.0506
450.0195	0.0444
450.222	0.0546
450.4245	0.052
450.627	0.0387
450.8295	0.0374
451.032	0.0474
451.2345	0.0446
451.4369	0.0435
451.6394	0.0413
451.8418	0.0376
452.0442	0.0427
452.2466	0.0469
452.449	0.0341
452.6513	0.0303
452.8537	0.0452
453.056	0.0441
453.2583	0.0354
453.4607	0.0312
453.663	0.0314
453.8652	0.0228
454.0675	0.0511
454.2697	0.0289
454.472	0.0245
454.6742	0.0183
454.8764	0.0302
455.0786	0.0318
455.2808	0.0225
455.4829	0.0264
455.6851	0.0244
455.8872	0.029
456.0893	0.034
456.2915	0.0268
456.4935	0.0098
456.6956	0.0269
456.8977	0.0273
457.0997	0.0342
457.3018	0.025
457.5038	0.0263
457.7058	0.0155
457.9078	0.0329
458.1098	0.0199
458.3117	0.0237
458.5137	0.0248
458.7156	0.0261
458.9175	0.0189
459.1194	0.0229
459.3213	0.0159
459.5232	0.0123
459.725	0.0248
459.9269	0.0224
460.1287	0.0064
460.3305	0.0128
460.5323	0.0193
460.7341	0.022
460.9359	0.0178
461.1376	0.0198
461.3394	0.0079
461.5411	0.0192
461.7428	0.02
461.9445	0.0201
462.1462	0.0195
462.3479	0.0149
462.5495	0.0116
462.7512	0.0064
462.9528	0.0177
463.1544	0.0073
463.356	0.0138
463.5576	0.005
463.7592	0.0024
463.9607	0.0136
464.1623	0.0164
464.3638	0.009
464.5653	0.0124
464.7668	0.0037
464.9683	0.0136
465.1697	0.0103
465.3712	0.0079
465.5726	0.0149
465.7741	0.0097
465.9755	0.0073
466.1769	0.0063
466.3782	0.0064
466.5796	0.0057
466.7809	0.0096
466.9823	0.0132
467.1836	0.0211
467.3849	0.0052
467.5862	0.0007
467.7875	0.0093
467.9887	0.0105
468.19	0.0064
468.3912	0.0112
468.5924	0.0208
468.7936	-0.0051
468.9948	0.016
469.196	0.0082
469.3972	0.0178
469.5983	-0.0002
469.7994	0.0049
470.0006	0.0115
470.2017	0.0163
470.4027	0.008
470.6038	0.0045
470.8049	-0.0028
471.0059	0.0075
471.2069	0.0119
471.408	0.0033
471.6089	0.0064
471.8099	0.0008
472.0109	0.0007
472.2119	0.0163
472.4128	0.0124
472.6137	0.0085
472.8146	0.0043
473.0155	-0.0008
473.2164	-0.0047
473.4173	0.0097
473.6181	0.0075
473.819	-0.001
474.0198	0.0142
474.2206	0.0067
474.4214	0.0113
474.6222	0.0117
474.8229	0.0112
475.0237	0.0044
475.2244	0.0118
475.4251	-0.0058
475.6258	0.0036
475.8265	-0.0027
476.0272	0.0024
476.2278	0.0056
476.4285	-0.0083
476.6291	0.011
476.8297	0.0058
477.0303	0.0125
477.2309	-0.0005
477.4315	0.0113
477.632	-0.0073
477.8326	0.0077
478.0331	0.0049
478.2336	0.009
478.4341	0.0057
478.6346	0.0026
478.8351	0.0055
479.0355	0.0034
479.236	0.001
479.4364	0.0009
479.6368	-0.0029
479.8372	0.0141
480.0376	0.0072
480.2379	0.0033
480.4383	0.0019
480.6386	0.0048
480.8389	0.0026
481.0392	0.0041
481.2395	0.0093
481.4398	-0.0025
481.6401	0.0048
481.8403	-0.0022
482.0405	0.0072
482.2408	0.0005
482.441	0.0074
482.6411	-0.0042
482.8413	-0.0082
483.0415	0.005
483.2416	-0.0012
483.4417	0.0025
483.6419	0.0013
483.8419	0.0011
484.042	-0.0024
484.2421	-0.0058
484.4422	0.0085
484.6422	0.0101
484.8422	0.004
485.0422	0.0079
485.2422	0.0039
485.4422	-0.0062
485.6422	-0.0015
485.8421	0.0007
486.042	0.0016
486.242	0.0005
486.4419	0.0066
486.6417	-0
486.8416	0.0035
487.0415	-0.0016
487.2413	0.0057
487.4411	0.0019
487.641	0.0058
487.8408	0.0072
488.0405	0.0014
488.2403	-0.0024
488.4401	0.0045
488.6398	0.0141
488.8395	-0.0087
489.0392	0.0003
489.2389	0.0043
489.4386	-0.0027
489.6383	0.0073
489.8379	0.0007
490.0376	0.0172
490.2372	-0.0048
490.4368	0.0105
490.6364	0.0046
490.836	0.0012
491.0355	0.0026
491.2351	0.0026
491.4346	-0.0005
491.6341	-0.0045
491.8336	-0.0021
492.0331	0.0017
492.2326	-0.0093
492.432	0.0072
492.6315	-0.0015
492.8309	0.0133
493.0303	-0.0065
493.2297	-0.0069
493.4291	-0.0024
493.6284	0.0003
493.8278	0.0004
494.0271	0.0052
494.2264	0.0051
494.4257	-0.0026
494.625	-0.0015
494.8243	0.0086
495.0236	-0.0004
495.2228	0.0001
495.422	0.0101
495.6213	0.0006
495.8205	0.0037
496.0196	0.0018
496.2188	0.0059
496.418	-0.0061
496.6171	0.0031
496.8162	0.0032
497.0153	0.0065
497.2144	-0.0069
497.4135	0.0026
497.6126	-0.0057
497.8116	0.0035
498.0107	0.0007
498.2097	0.0036
498.4087	0.0001
498.6077	-0.0036
498.8067	0.0143
499.0056	-0.0003
499.2046	0.0034
499.4035	0.0035
499.6024	-0.0045
499.8013	-0.0026
500.0002	0.0012
500.199	0.0006
500.3979	0.0041
500.5967	0.0025
500.7956	-0.0032
500.9944	0.0004
501.1932	0.0011
501.3919	0.0103
501.5907	0.005
501.7895	-0.004
501.9882	-0.0016
502.1869	0.0012
502.3856	-0.0078
502.5843	0.0093
502.783	0.0038
502.9816	-0.0059
503.1803	0.0065
503.3789	0.0082
503.5775	0.0015
503.7761	0.0002
503.9747	-0.004
504.1732	0.002
504.3718	-0.0083
504.5703	-0.0014
504.7689	-0.0052
504.9674	-0.003
505.1658	0.0063
505.3643	0.001
505.5628	0.0084
505.7612	-0.0019
505.9597	-0.0005
506.1581	-0.0036
506.3565	-0.006
506.5549	0.0074
506.7532	0.0007
506.9516	0.0011
507.1499	0.0025
507.3482	0.0124
507.5465	-0.0055
507.7448	0.0045
507.9431	-0.0005
508.1414	-0.0002
508.3396	0.0068
508.5379	-0.0063
508.7361	0.0075
508.9343	0.0029
509.1325	0.0036
509.3306	0.0081
509.5288	0.0017
509.7269	0.007
509.9251	-0.0073
510.1232	-0.0002
510.3213	0.0023
510.5193	0.0086
510.7174	-0.0105
510.9154	0.0044
511.1135	0.0012
511.3115	0.0071
511.5095	0.0058
511.7075	-0.0091
511.9055	0.007
512.1034	0.0056
512.3014	-0.0106
512.4993	0.0021
512.6972	-0.0067
512.8951	-0.0056
513.093	0.007
513.2908	-0.0018
513.4887	0.0041
513.6865	-0.0066
513.8844	0.0015
514.0822	0.0005
514.2799	-0.0007
514.4777	0.0077
514.6755	0.0012
514.8732	-0.0067
515.0709	0.0076
515.2687	-0.0026
515.4664	-0.0048
515.664	0.004
515.8617	0.0061
516.0594	0.01
516.257	0.0076
516.4546	0.0007
516.6522	-0.0036
516.8498	-0.0021
517.0474	-0.0066
517.2449	-0.0026
517.4425	-0.0029
517.64	0.0051
517.8375	0.0062
518.035	-0.0011
518.2325	-0.0039
518.43	-0.003
518.6274	-0.001
518.8249	-0.0003
519.0223	-0.0036
519.2197	-0.0087
519.4171	-0.0015
519.6145	-0.0052
519.8118	0.0029
520.0092	0.0001
520.2065	-0.0011
520.4038	-0.002
520.6011	0.0141
520.7984	-0.0062
520.9956	0
521.1929	-0.0026
521.3901	0.0009
521.5874	-0.0007
521.7846	-0.006
521.9818	-0.0034
522.1789	0.0125
522.3761	0.002
522.5732	-0.0053
522.7704	0.0041
522.9675	0.0035
523.1646	0.0106
523.3617	-0.0021
523.5587	-0.0047
523.7558	-0.0017
523.9528	0.0021
524.1498	0.0045
524.3468	-0.0061
524.5438	-0.0075
524.7408	0.0007
524.9378	0.0027
525.1347	0.0127
525.3316	0.0088
525.5285	-0.002
525.7254	0.0043
525.9223	-0.0013
526.1192	-0.0041
526.316	-0.0089
526.5129	0.0066
526.7097	-0.0018
526.9065	0.0064
527.1033	-0.0014
527.3	0.0048
527.4968	-0.0063
527.6935	0.0071
527.8903	-0.0036
528.087	0.0071
528.2837	0.0054
528.4804	0.0047
528.677	-0.0007
528.8737	-0.0044
529.0703	0.009
529.2669	0.0034
529.4635	0.0099
529.6601	0.0077
529.8567	0.0068
530.0532	-0.0002
530.2498	-0.0025
530.4463	0.0025
530.6428	-0.0028
530.8393	-0.0005
531.0358	0.0002
531.2322	-0.0065
531.4287	0.0014
531.6251	-0.0044
531.8215	0.0004
532.0179	-0.0118
532.2143	0.0117
532.4107	0.0052
532.607	0.0074
532.8034	0.0033
532.9997	0.0033
533.196	0.0048
533.3923	-0.0073
533.5886	-0.0041
533.7848	-0.0044
533.9811	-0.0161
534.1773	-0.0052
534.3735	-0.0007
534.5697	0.0012
534.7659	0.0015
534.9621	0.0097
535.1582	0.0087
535.3544	0.0137
535.5505	0.0043
535.7466	0.0008
535.9427	-0.0049
536.1387	-0.0043
536.3348	0.004
536.5308	0.0072
536.7269	-0.0025
536.9229	-0.0097
537.1189	-0.0053
537.3148	-0.0052
537.5108	0.0029
537.7068	0.0045
537.9027	0.0057
538.0986	0.0035
538.2945	-0.0019
538.4904	-0.009
538.6863	0.0165
538.8821	-0.0073
539.078	0.0027
539.2738	-0.0074
539.4696	0.0057
539.6654	0.0054
539.8611	-0.0027
540.0569	-0.0078
540.2526	-0.0056
540.4484	-0.0036
540.6441	-0.0053
540.8398	-0.0046
541.0355	-0.0057
541.2311	0.0015
541.4268	-0.001
541.6224	0.009
541.818	-0.006
542.0136	-0.0111
542.2092	0.0104
542.4048	0.0049
542.6003	-0.0006
542.7959	0.0031
542.9914	0.002
543.1869	-0.0015
543.3824	-0.0001
543.5779	-0.0031
543.7734	-0.0087
543.9688	0.0007
544.1642	0.001
544.3596	-0.0003
544.555	0.0111
544.7504	0.0076
544.9458	0.0011
545.1411	0.0053
545.3365	0.0006
545.5318	-0.0005
545.7271	0.0072
545.9224	-0.0064
546.1177	0.0038
546.3129	-0.003
546.5081	-0.0125
546.7034	-0.0091
546.8986	0.0102
547.0938	0.0043
547.289	0.0059
547.4841	0.0013
547.6793	-0.003
547.8744	-0.0014
548.0695	0.0027
548.2646	0.0006
548.4597	-0.0097
548.6548	0.0046
548.8498	-0.0045
549.0448	0.0146
549.2399	-0.0077
549.4349	0.0078
549.6298	0.0006
549.8248	-0.0093
550.0198	0.0066
550.2147	0.0005
550.4096	0.0035
550.6045	0.001
550.7994	0.0022
550.9943	0.0018
551.1892	-0.0102
551.384	0.0079
551.5788	0.0039
551.7737	0.0015
551.9685	0.0035
552.1632	0.0027
552.358	-0.0078
552.5528	0.0061
552.7475	-0.0029
552.9422	0.0076
553.1369	0.0063
553.3316	-0.0068
553.5263	-0.0024
553.7209	-0.0116
553.9156	0.0019
554.1102	0.0008
554.3048	0.0033
554.4994	0.0046
554.694	0.0029
554.8885	0.005
555.0831	0.009
555.2776	-0.0053
555.4721	-0.0039
555.6666	0.0075
555.8611	-0.0114
556.0555	0.0027
556.25	-0.0008
556.4444	0.0038
556.6388	0.0069
556.8332	-0.0085
557.0276	0.0121
557.222	-0.0018
557.4163	0.0054
557.6107	-0.0038
557.805	-0.0082
557.9993	-0.0053
558.1936	0.0059
558.3879	-0.0035
558.5821	-0.0016
558.7764	0.008
558.9706	0.003
559.1648	-0.0026
559.359	0.0126
559.5532	-0.02
559.7473	0.0053
559.9415	0.0012
560.1356	-0.0038
560.3297	-0.0017
560.5238	0.001
560.7179	0.0034
560.9119	0.0072
561.106	-0.005
561.3	-0.0027
561.494	0.0059
561.688	0.0054
561.882	0.0017
562.076	0.0063
562.2699	-0.002
562.4639	0.0013
562.6578	0.012
562.8517	-0.0048
563.0456	-0.0047
563.2395	0.0045
563.4333	-0.0016
563.6272	0.0055
563.821	0.0055
564.0148	-0.0031
564.2086	0.0039
564.4024	-0.0067
564.5961	-0.0048
564.7899	-0.0012
564.9836	-0.0015
565.1773	-0.004
565.371	0.0047
565.5647	-0.0011
565.7584	0.0028
565.952	-0.0016
566.1456	0.0028
566.3393	0.0013
566.5329	0.0021
566.7264	-0.0013
566.92	-0.001
567.1136	0.001
567.3071	-0.0012
567.5006	-0.0124
567.6941	0.0064
567.8876	-0.0006
568.0811	-0.0099
568.2745	-0.0012
568.468	-0.0014
568.6614	-0.0002
568.8548	-0.001
569.0482	0.0005
569.2416	0.002
569.4349	-0.0008
569.6283	0
569.8216	0.003
570.0149	-0.0023
570.2082	0.0004
570.4015	0.0005
570.5947	0.0005
570.788	0.0014
570.9812	-0.0048
571.1744	-0.0036
571.3676	-0.0004
571.5608	-0.0044
571.754	0.0002
571.9471	0.005
572.1402	0.0019
572.3333	0.0004
572.5264	0.0085
572.7195	0.0062
572.9126	-0.0024
573.1057	0.0016
573.2987	0.0032
573.4917	0.0021
573.6847	0.0013
573.8777	-0.0004
574.0707	-0.0032
574.2636	-0.0008
574.4566	0.0022
574.6495	0.0065
574.8424	0.0006
575.0353	-0.0021
575.2281	-0.0001
575.421	-0.0023
575.6138	0.0004
575.8067	0.0028
575.9995	0.0006
576.1923	0.007
576.385	0.0011
576.5778	0.0011
576.7706	0.0058
576.9633	0.0035
577.156	0.0023
577.3487	-0.0036
577.5414	-0.001
577.734	-0.0004
577.9267	0.0003
578.1193	0.001
578.3119	-0.0042
578.5045	-0.0042
578.6971	-0.0051
578.8897	0.0031
579.0822	0.002
579.2747	-0.0011
579.4673	0.0009
579.6598	-0.0023
579.8522	0.0006
580.0447	-0.0025
580.2372	0.0007
580.4296	-0.0016
580.622	0.0004
580.8144	0.0014
581.0068	0.0007
581.1992	0.0026
581.3915	-0.0021
581.5839	0.0043
581.7762	0.0027
581.9685	-0.0019
582.1608	-0.0005
582.353	-0.0016
582.5453	0.004
582.7375	-0.0008
582.9298	-0.0042
583.122	-0.0013
583.3142	0.0042
583.5063	-0.005
583.6985	-0.0035
583.8906	0.0004
584.0827	-0.0024
584.2749	0.0019
584.4669	0.0005
584.659	0.0024
584.8511	0.0006
585.0431	0.0029
585.2352	-0.0072
585.4272	0.0012
585.6192	0.0026
585.8111	-0.0076
586.0031	-0.0013
586.195	0.0006
586.387	0.0006
586.5789	0.0039
586.7708	0.0046
586.9627	-0.0007
587.1545	0.0003
587.3464	0.0036
587.5382	0.0019
587.73	0.0037
587.9218	-0.0052
588.1136	-0.0045
588.3053	-0.0019
588.4971	0.0045
588.6888	0.0008
588.8805	-0.0015
589.0722	0.0024
589.2639	-0.0038
589.4556	-0.0083
589.6472	-0.0063
589.8389	0.0016
590.0305	0.0061
590.2221	0.0029
590.4137	-0.0062
590.6052	0.0038
590.7968	0.0022
590.9883	-0.0033
591.1798	-0.0112
591.3713	-0.0014
591.5628	-0.0016
591.7543	0.0026
591.9458	0.0024
592.1372	0.0007
592.3286	-0.0022
592.52	-0.005
592.7114	-0.0044
592.9028	-0.0042
593.0941	-0.0023
593.2855	0.0031
593.4768	0.0034
593.6681	-0.0029
593.8594	-0.0039
594.0506	0.0014
594.2419	-0.0049
594.4331	-0.002
594.6244	-0.0025
594.8156	0.0051
595.0067	0.001
595.1979	-0.0035
595.3891	-0.0063
595.5802	0.0012
595.7713	0.0002
595.9624	0.0048
596.1535	-0.0043
596.3446	-0.0009
596.5357	-0.0055
596.7267	0.005
596.9177	-0.004
597.1087	0.0013
597.2997	-0.0014
597.4907	0.0019
597.6817	-0.0035
597.8726	0.0023
598.0635	0.0067
598.2544	-0.0006
598.4453	-0.0057
598.6362	-0.0051
598.827	0.0006
599.0179	-0.0027
599.2087	0.0001
599.3995	0.002
599.5903	0.0016
599.7811	0.0026
599.9718	-0.0024
600.1626	0.0003
600.3533	-0.0016
600.544	0
600.7347	0.0049
600.9254	0.0087
601.116	0.0018
601.3067	-0.0008
601.4973	0.0027
601.6879	-0.0018
601.8785	-0.0009
602.0691	0.0091
602.2596	-0.0035
602.4502	0.0033
602.6407	0.003
602.8312	0.0069
603.0217	0.0045
603.2122	0.0056
603.4027	0.0009
603.5931	-0.0033
603.7835	-0.0007
603.9739	0.0003
604.1643	0.0024
604.3547	0.0022
604.5451	0.0006
604.7354	-0.0005
604.9257	-0.0013
605.116	0.0003
605.3063	-0.0016
605.4966	0.0025
605.6869	-0.0011
605.8771	0.0015
606.0673	-0.0039
606.2575	-0.0046
606.4477	0.0035
606.6379	0.001
606.8281	-0.0036
607.0182	0.0021
607.2083	-0.008
607.3985	0.0014
607.5885	0.0008
607.7786	0.0113
607.9687	-0.0048
608.1587	-0.0045
608.3488	-0.0037
608.5388	0.0008
608.7288	-0.0073
608.9187	0.0104
609.1087	-0.0056
609.2986	-0.0029
609.4886	0.0051
609.6785	0.0011
609.8684	-0.0053
610.0582	-0.0031
610.2481	0.0034
610.4379	0.0005
610.6278	-0.0036
610.8176	0.0001
611.0074	0.0014
611.1971	-0.0003
611.3869	0.008
611.5766	0.0064
611.7664	0.0084
611.9561	0.0049
612.1458	-0.0026
612.3354	0.0022
612.5251	-0.0061
612.7147	0.0029
612.9044	-0.0006
613.094	0.0036
613.2836	-0.0046
613.4731	-0.0046
613.6627	-0.0029
613.8522	-0.0028
614.0417	-0.0031
614.2313	-0.0115
614.4207	0.0098
614.6102	-0.0062
614.7997	-0.0033
614.9891	-0.0019
615.1785	-0.0025
615.3679	-0.0026
615.5573	-0.0085
615.7467	-0.0019
615.9361	-0.0065
616.1254	-0.003
616.3147	0.0004
616.504	0.0009
616.6933	-0.0034
616.8826	0.0045
617.0718	-0.0127
617.2611	-0.0062
617.4503	-0.0028
617.6395	-0.0016
617.8287	0.0085
618.0179	-0.0061
618.207	-0.0007
618.3961	-0.0045
618.5853	0.0005
618.7744	0.0003
618.9634	0.0038
619.1525	0.0044
619.3416	-0.0017
619.5306	-0.0016
619.7196	-0.0045
619.9086	0.0095
620.0976	0.0007
620.2866	0.0164
620.4755	0.018
620.6645	-0.0099
620.8534	-0.0082
621.0423	-0.0022
621.2312	-0.007
621.42	-0.0036
621.6089	-0.0065
621.7977	-0.0055
621.9865	0.0167
622.1753	0.0062
622.3641	-0.0113
622.5529	-0.0136
622.7416	-0.0082
622.9303	-0.003
623.1191	-0.0131
623.3078	0.0003
623.4964	-0.0027
623.6851	0.0143
623.8737	0.0058
624.0624	-0.0008
624.251	0.0048
624.4396	-0.0065
624.6282	0.0015
624.8167	0.0024
625.0053	0.0034
625.1938	0.0013
625.3823	-0.0014
625.5708	-0.0056
625.7593	-0.0032
625.9477	-0.0109
626.1362	-0.0002
626.3246	-0.0136
626.513	0.0122
626.7014	-0.0068
626.8898	-0.0104
627.0781	0.0034
627.2665	0.0043
627.4548	-0.0008
627.6431	-0.0127
627.8314	-0.0011
628.0197	-0.0048
628.2079	-0.0124
628.3962	-0.0033
628.5844	0.008
628.7726	-0.0091
628.9608	-0.0076
629.1489	0.0018
629.3371	-0.0015
629.5252	0.0035
629.7134	-0.0009
629.9015	-0.0059
630.0895	0.002
630.2776	-0.0061
630.4657	0.0076
630.6537	-0.0099
630.8417	-0.0009
631.0297	-0.006
631.2177	0.004
631.4057	-0.0062
631.5936	-0.0173
631.7815	-0.0043
631.9695	0.0188
632.1574	-0.0107
632.3452	-0.0006
632.5331	0.0007
632.7209	0.0094
632.9088	-0.0046
633.0966	0.0086
633.2844	-0.0039
633.4722	-0.001
633.6599	-0.004
633.8477	0.0028
634.0354	0.0105
634.2231	0.0058
634.4108	-0.0224
634.5985	0.0065
634.7861	-0.0114
634.9738	0.0029
635.1614	0.0076
635.349	-0.0037
635.5366	0.0029
635.7242	0.0033
635.9117	0.0044
636.0993	-0.0189
636.2868	0
636.4743	0.0131
636.6618	-0.0044
636.8492	0.0063
637.0367	-0.0082
637.2241	-0.0054
637.4115	-0.0005
637.5989	0.0067
637.7863	-0.0092
637.9737	0.0136
638.161	-0.009
638.3484	-0.0068
638.5357	-0.0172
638.723	-0.0117
638.9103	0.0053
639.0975	-0.0008
639.2848	0.0084
639.472	0.0029
639.6592	0.0091
639.8464	0.0131
640.0336	-0.0055
640.2208	-0.0075
640.4079	0.0056
640.595	-0.0108
640.7821	0.0003
640.9692	0.0025
641.1563	0.0033
641.3434	0.0131
641.5304	-0.0116
641.7174	0.0257
641.9044	-0.0103
642.0914	-0.0205
642.2784	0.0237
642.4653	0.0047
642.6523	0.0091
642.8392	0.0018
643.0261	-0.0207
643.213	0.0039
643.3999	0.0022
643.5867	-0.0011
643.7735	0.014
643.9604	-0.0133
644.1472	-0.0084
644.3339	-0.0028
644.5207	-0.0373
644.7075	0.007
644.8942	0.0348
645.0809	-0.0197
645.2676	-0.0171
645.4543	0.0008
645.6409	-0.0079
645.8276	-0.0128
646.0142	-0.0013
646.2008	-0.0213
646.3874	0.0175
646.574	-0.0232
646.7605	0.0068
646.9471	0.0118
647.1336	-0.0043
647.3201	-0.0037
647.5066	-0.0061
647.6931	0.0065
647.8795	0.0072
648.0659	-0.0058
648.2524	-0.0058
648.4388	-0.0029
648.6252	-0.0128
648.8115	0.0125
648.9979	0.0062
649.1842	-0.0169
649.3705	0.0025
649.5568	-0.019
649.7431	0.0164
649.9294	-0.0063
650.1156	-0.0117
650.3018	0.0067
650.488	-0.0055
650.6742	0.0207
650.8604	-0.0078
651.0466	0.0087
651.2327	-0.0181
651.4188	-0.0207
651.6049	-0.004
651.791	0.018
651.9771	-0.0074
652.1632	-0.0036
652.3492	0.0009
652.5352	0.0022
652.7212	-0.0175
652.9072	0.0065
653.0932	-0.0015
653.2791	-0.0014
653.465	-0.0119
653.651	0.0052
653.8369	0.0114
654.0227	-0.021
654.2086	-0.005
654.3944	-0.0083
654.5803	0.0028
654.7661	-0.0038
654.9519	-0.0044
655.1377	-0.0001
655.3234	-0.0001
655.5092	-0.0001
655.6949	-0.0001
655.8806	-0.0001
656.0663	-0.0001
656.2519	-0.0001
656.4376	-0.0001
656.6232	-0.0001
656.8088	-0.0001
656.9945	-0.0001
657.18	-0.0001
657.3656	-0.0001
657.5511	-0.0001
657.7367	-0.0001
657.9222	-0.0001
658.1077	-0.0001
658.2932	-0.0001
658.4786	-0.0001
658.6641	-0.0001
658.8495	-0.0001
659.0349	-0.0001
659.2203	-0.0001
659.4057	0.0075
659.591	0.0458
659.7764	0.0104
659.9617	0.0037
660.147	-0.0094
660.3323	-0.005
660.5176	0.0039
660.7028	-0.0024
660.888	0.023
661.0733	0.0034
661.2585	0.0101
661.4436	-0.0173
661.6288	0.0054
661.8139	0.006
661.9991	0.0051
662.1842	0.0247
662.3693	-0.0045
662.5544	-0.0021
662.7394	0.0203
662.9245	0.0201
663.1095	0.0062
663.2945	0.0047
663.4795	-0.0083
663.6644	0.0006
663.8494	0.0033
664.0343	-0.0069
664.2193	0.0036
664.4042	-0.0177
664.589	-0.0179
664.7739	-0.0027
664.9587	-0.0068
665.1436	0.0013
665.3284	-0.0089
665.5132	-0.0087
665.698	-0.0098
665.8827	-0.0205
666.0675	-0.0158
666.2522	0.0111
666.4369	-0.0053
666.6216	0.011
666.8063	-0.019
666.9909	-0.0023
667.1756	0.0027
667.3602	-0.0161
667.5448	-0.0203
667.7294	-0.0085
667.9139	-0.0006
668.0985	-0.0223
668.283	-0.0091
668.4675	-0.0083
668.652	-0.0262
668.8365	0.0106
669.0209	-0.0176
669.2054	-0.006
669.3898	-0.006
669.5742	0.0177
669.7586	0.0076
669.943	-0.0132
670.1273	0.0054
670.3117	0.0007
670.496	0.0236
670.6803	0.0046
670.8646	-0.0036
671.0488	-0.0064
671.2331	-0.0008
671.4173	0.0094
671.6015	-0.0036
671.7857	-0.0118
671.9699	0.0115
672.1541	-0.007
672.3382	0.0142
672.5223	0.0203
672.7064	-0.0042
672.8905	0.0105
673.0746	-0.0047
673.2587	0.0168
673.4427	-0.0064
673.6267	-0.0166
673.8107	-0.0008
673.9947	0.0081
674.1787	-0.0014
674.3626	-0.0127
674.5465	-0.0135
674.7304	-0.0186
674.9143	0.0136
675.0982	-0.0111
675.2821	0.0132
675.4659	-0.0024
675.6497	0.0133
675.8335	0.0069
676.0173	0.0173
676.2011	-0.0143
676.3849	0.0151
676.5686	-0.0122
676.7523	-0.011
676.936	-0.0005
677.1197	0.0066
677.3034	0.002
677.487	0.0135
677.6706	-0.0004
677.8542	0.0138
678.0378	0.0105
678.2214	-0.0039
678.405	0.0178
678.5885	0.007
678.772	-0.0132
678.9555	0.0001
679.139	-0.016
679.3225	-0.0173
679.5059	-0.0092
679.6894	-0.0052
679.8728	-0.0107
680.0562	0.0082
680.2395	-0.0113
680.4229	0.0024
680.6062	-0.0023
680.7896	-0.0004
680.9729	0.0151
681.1562	-0.0016
681.3394	0.0074
681.5227	-0.0205
681.7059	-0.0224
681.8891	0.0061
682.0723	-0.0063
682.2555	0.0309
682.4387	0.024
682.6218	-0.0116
682.805	0.0079
682.9881	0.0038
683.1712	0.0168
683.3542	-0.0057
683.5373	0.0005
683.7203	-0.0063
683.9034	0.0094
684.0864	0.0139
684.2694	-0.0055
684.4523	-0.0027
684.6353	0.0082
684.8182	-0.0078
685.0011	-0.0098
685.184	-0.0048
685.3669	-0.0116
685.5498	-0.0033
685.7326	-0.0044
685.9154	0.0033
686.0982	0.0003
686.281	-0.0212
686.4638	-0.0036
686.6465	-0.0033
686.8293	-0.0018
687.012	-0.0054
687.1947	0.0037
687.3774	-0.0013
687.56	0.0215
687.7427	0.0006
687.9253	-0.0005
688.1079	-0.0106
688.2905	0.0119
688.4731	0.0136
688.6556	-0.0113
688.8382	0.0209
689.0207	-0.0222
689.2032	-0.0266
689.3857	-0.0132
689.5681	-0.0268
689.7506	-0.0058
689.933	-0.0068
690.1154	0.0013
690.2978	-0.0068
690.4802	0.0054
690.6626	-0.0177
690.8449	-0.0116
691.0272	-0.0392
691.2095	-0.0062
691.3918	-0.0128
691.5741	0.0003
691.7563	0.0149
691.9386	-0.0004
692.1208	-0.0116
692.303	-0.0153
692.4852	-0.0032
692.6673	-0.0113
692.8495	0.0026
693.0316	0.0057
693.2137	0.0125
693.3958	-0.0015
693.5778	-0.0058
693.7599	-0.0544
693.9419	0.0117
694.1239	-0.0031
694.3059	-0.0222
694.4879	-0.0159
694.6699	0.0032
694.8518	0.0163
695.0337	-0.0111
695.2157	-0.0048
695.3975	-0.0034
695.5794	-0.0256
695.7613	0.0178
695.9431	-0.0418
696.1249	0.0058
696.3067	-0.0017
696.4885	-0.016
696.6703	0.0052
696.852	-0.0058
697.0337	0.0106
697.2154	0.0166
697.3971	0.0128
697.5788	0.0157
697.7605	-0.0042
697.9421	0.0006
698.1237	0.0001
698.3053	0.0065
698.4869	-0.0072
698.6685	0.0066
698.85	-0.0062
699.0315	-0.0027
699.213	-0.0065
699.3945	0.0038
699.576	-0.0013
699.7575	-0.0324
699.9389	-0.0078
700.1203	0.0106
700.3017	-0.0241
700.4831	-0.0319
700.6645	0.0098
700.8458	0.018
701.0271	0.0026
701.2084	-0.0263
701.3897	0.0102
701.571	-0.0002
701.7523	-0.0219
701.9335	0.0032
702.1147	-0.0126
702.2959	0.0281
702.4771	-0.0045
702.6583	-0.0242
702.8394	0.0135
703.0205	-0.0069
703.2016	0.0071
703.3827	0.0118
703.5638	-0.0199
703.7449	-0.0067
703.9259	-0.0098
704.1069	-0.001
704.2879	0.0068
704.4689	-0.0003
704.6499	-0.0252
704.8308	-0.0286
705.0117	-0.0318
705.1927	0.0053
705.3735	0.0185
705.5544	0.0072
705.7353	0.0122
705.9161	0.0453
706.0969	-0.0162
706.2777	-0.0002
706.4585	0.0052
706.6393	0.0012
706.82	-0.0162
707.0007	0.0087
707.1815	0.0151
707.3621	0.0128
707.5428	0.0022
707.7235	0.0094
707.9041	-0.0256
708.0847	-0.0058
708.2653	-0.0022
708.4459	0.005
708.6265	-0.0047
708.807	-0.0009
708.9875	0.0016
709.168	0.004
709.3485	0.0091
709.529	0.0131
709.7095	-0.0259
709.8899	0.0227
710.0703	0.0037
710.2507	0.0072
710.4311	0.0004
710.6115	-0.0138
710.7918	-0.0328
710.9721	-0.0071
711.1524	0.0092
711.3327	-0.0237
711.513	-0.0136
711.6932	-0.0259
711.8735	0.009
712.0537	-0.021
712.2339	-0.0081
712.4141	-0.0053
712.5942	0.0008
712.7744	0.0012
712.9545	-0.007
713.1346	0.0196
713.3147	0.007
713.4947	-0.0038
713.6748	-0.0092
713.8548	-0.0133
714.0348	-0.005
714.2148	-0.0158
714.3948	0.0042
714.5748	-0.0187
714.7547	-0.0062
714.9346	0.0053
715.1145	-0.0049
715.2944	-0.0027
715.4743	0.0133
715.6541	-0.0286
715.834	0.0168
716.0138	0.0123
716.1936	0.013
716.3733	0.0151
716.5531	-0.0035
716.7328	-0.0512
716.9126	-0.0341
717.0923	0.0048
717.2719	0.0016
717.4516	-0.0041
717.6312	-0.0259
717.8109	0.0099
717.9905	0.0078
718.1701	-0.0074
718.3496	-0.0046
718.5292	-0.0003
718.7087	-0.0006
718.8882	0.0295
719.0677	-0.029
719.2472	0.0048
719.4267	0.015
719.6061	-0.0157
719.7856	-0.0058
719.965	0.0056
720.1443	-0.0178
720.3237	0.0152
720.5031	0.0305
720.6824	0.0166
720.8617	0.0221
721.041	0.0016
721.2203	-0.0222
721.3995	-0.007
721.5788	-0.0039
721.758	0.0169
721.9372	-0.0218
722.1164	0.0164
722.2956	0.0036
722.4747	0.0172
722.6538	0.0185
722.8329	-0.03
723.012	0.0201
723.1911	0.023
723.3702	-0.0238
723.5492	-0.0056
723.7282	-0.0003
723.9072	-0.0119
724.0862	-0.008
724.2652	-0.0173
724.4441	0.0104
724.623	-0.0251
724.8019	-0.0295
724.9808	-0.0098
725.1597	-0.0048
725.3385	-0.0051
725.5174	0.045
725.6962	0.0224
725.875	-0.0023
726.0538	0.008
726.2325	-0.0282
726.4112	0.0292
726.59	0.0043
726.7687	0.0078
726.9474	-0.0057
727.126	-0.008
727.3047	0.0269
727.4833	0.0115
727.6619	0.0159
727.8405	0.0015
728.0191	-0.0436
728.1976	-0.0574
728.3762	-0.0262
728.5547	-0.012
728.7332	0.0217
728.9116	-0.0488
729.0901	0.0121
729.2686	-0.0212
729.447	-0.007
729.6254	0.0184
729.8038	-0.0005
729.9821	-0.0108
730.1605	-0.0217
730.3388	-0.0165
730.5171	-0.0106
730.6954	0.0082
730.8737	0.0119
731.0519	-0.0091
731.2302	0.013
731.4084	0.0095
731.5866	-0.0059
731.7648	-0.0203
731.9429	-0.0066
732.1211	-0.0101
732.2992	-0.0149
732.4773	-0.0108
732.6554	-0.0085
732.8335	-0.0076
733.0115	-0.0016
733.1896	0.0045
733.3676	0.0048
733.5456	0.0003
733.7235	0.0134
733.9015	-0.0071
734.0794	-0.0211
734.2574	0.0132
734.4353	-0.0192
734.6131	0.0126
734.791	0.0031
734.9689	0.0116
735.1467	-0.0049
735.3245	0.0142
735.5023	0.0015
735.68	-0.0007
735.8578	0.024
736.0355	-0.0107
736.2132	0.0022
736.3909	-0.0184
736.5686	-0.0083
736.7463	-0.0113
736.9239	-0.0019
737.1015	-0.0082
737.2791	0.0085
737.4567	-0.0058
737.6343	0.0219
737.8118	0.0057
737.9894	0.0015
738.1669	0.0059
738.3444	0.0092
738.5218	0.0243
738.6993	-0.0068
738.8767	-0.0068
739.0541	0.0244
739.2315	-0.0098
739.4089	-0.0183
739.5863	0.0095
739.7636	0.0081
739.9409	0.0042
740.1182	0.0069
740.2955	-0.0638
740.4728	0.013
740.65	-0.017
740.8272	-0.0052
741.0044	0.0043
741.1816	0.025
741.3588	0.033
741.5359	0.0121
741.7131	0.0149
741.8902	-0.0182
742.0673	0.0339
742.2444	-0.0007
742.4214	-0.0144
742.5985	0.0102
742.7755	-0.0187
742.9525	-0.0075
743.1295	-0.0391
743.3064	0.0021
743.4834	0.0163
743.6603	0.0012
743.8372	0.037
744.0141	0.0002
744.191	-0.0351
744.3678	0.0084
744.5446	0.0215
744.7215	-0.0364
744.8982	-0.0242
745.075	0.0161
745.2518	-0.0213
745.4285	0.0049
745.6052	-0.0007
745.7819	0.0035
745.9586	-0.0025
746.1353	-0.0282
746.3119	-0.0047
746.4885	-0.0026
746.6651	-0.0138
746.8417	-0.0268
747.0183	-0.0183
747.1948	-0.0312
747.3714	0.0205
747.5479	-0.0135
747.7244	-0.0601
747.9008	0.0396
748.0773	-0.0081
748.2537	0.0035
748.4301	-0.0019
748.6065	-0.0425
748.7829	0.0112
748.9593	0.0075
749.1356	-0.0267
749.3119	-0.0049
749.4882	-0.0096
749.6645	-0.0008
749.8408	-0.0145
750.017	0.0033
750.1933	0.0209
750.3695	0.006
750.5457	-0.0397
750.7218	0.0159
750.898	-0.0147
751.0741	0.0183
751.2502	-0.0043
751.4263	-0.0288
751.6024	0.0243
751.7784	-0.0383
751.9545	-0.0283
752.1305	-0.0254
752.3065	0.0098
752.4825	-0.0107
752.6584	-0.0139
752.8344	-0.0096
753.0103	-0.0075
753.1862	0.0075
753.3621	-0.006
753.5379	-0.02
753.7138	-0.033
753.8896	0.0331
754.0654	-0.0006
754.2412	0.0077
754.417	0.0008
754.5927	-0.0002
754.7685	-0.0026
754.9442	-0.0151
755.1199	-0.0029
755.2956	0.0067
755.4712	-0.0085
755.6469	-0.012
755.8225	0.0277
755.9981	-0.0155
756.1736	0.0282
756.3492	-0.0176
756.5248	-0.0318
756.7003	-0.0191
756.8758	0.0056
757.0513	-0.0051
757.2267	-0.0153
757.4022	-0.0079
757.5776	-0.018
757.753	-0.011
757.9284	-0.0152
758.1038	0.002
758.2791	-0.0104
758.4545	-0.0095
758.6298	0.008
758.8051	-0.0173
758.9803	-0.022
759.1556	-0.0094
759.3308	0.0024
759.506	0.0083
759.6812	-0.0269
759.8564	-0.003
760.0316	0.0153
760.2067	-0.0109
760.3819	-0.0059
760.557	-0.0097
760.732	0.0148
760.9071	-0.0117
761.0821	0.0082
761.2572	0.0159
761.4322	-0.0005
761.6072	-0.0219
761.7821	0.0107
761.9571	-0.0081
762.132	-0.0007
762.3069	-0.0257
762.4818	0.0231
762.6567	0.0199
762.8316	-0.0135
763.0064	-0.0078
763.1812	-0.0275
763.356	-0.004
763.5308	-0.0022
763.7055	0.0173
763.8803	0.0036
764.055	-0.0028
764.2297	-0.0064
764.4044	-0.0073
764.579	-0.011
764.7537	-0.0197
764.9283	-0.0169
765.1029	0.0102
765.2775	-0.0132
765.4521	0.0137
765.6266	-0.0167
765.8011	-0.0149
765.9756	0.0135
766.1501	0.0138
766.3246	-0.0225
766.4991	-0.0076
766.6735	-0.0137
766.8479	-0.0036
767.0223	-0.009
767.1967	-0.0303
767.371	-0.0183
767.5454	0.0159
767.7197	0.0341
767.894	-0.0189
768.0683	-0.0079
768.2425	0.0204
768.4168	0.0104
768.591	-0.0083
768.7652	-0.0126
768.9394	-0.0042
769.1135	-0.0166
769.2877	0.0193
769.4618	-0.0054
769.6359	-0.0083
769.81	-0.0257
769.984	0.0112
770.1581	0.0245
770.3321	-0.0025
770.5061	0.0062
770.6801	0.0116
770.8541	-0.0146
771.028	-0.007
771.202	-0.0524
771.3759	0.0013
771.5498	-0.0068
771.7236	-0.0122
771.8975	-0.0509
772.0713	0.0193
772.2451	0.0137
772.4189	0.016
772.5927	-0.023
772.7665	-0.0036
772.9402	0.0029
773.1139	-0.0087
773.2876	-0.0009
773.4613	-0.0221
773.635	-0.0193
773.8086	0.0028
773.9822	-0.0153
774.1558	-0.0086
774.3294	-0.0315
774.503	0.0266
774.6765	0.0134
774.8501	0.0022
775.0236	0.0121
775.1971	-0.0467
775.3705	-0.0171
775.544	0.0345
775.7174	-0.0209
775.8908	0.0317
776.0642	-0.0098
776.2376	-0.0766
776.4109	0.0607
776.5843	0.0085
776.7576	0.0342
776.9309	0.0612
777.1041	-0.0407
777.2774	-0.021
777.4506	-0.0093
777.6238	-0.0388
777.797	0.0125
777.9702	0.0099
778.1434	-0.0086
778.3165	0.0126
778.4896	-0.0086
778.6627	0.0144
778.8358	-0.028
779.0089	0.0049
779.1819	-0.0095
779.3549	-0.0004
779.5279	-0.0292
779.7009	-0.0105
779.8739	-0.0099
780.0468	0.023
780.2197	-0.0499
780.3926	-0.0004
780.5655	-0.0321
780.7384	0.0123
780.9112	0.0046
781.0841	-0.0295
781.2569	0.0108
781.4297	0.0307
781.6024	0.0002
781.7752	-0.0349
781.9479	-0.0216
782.1206	-0.0009
782.2933	-0.001
782.466	-0.0129
782.6386	0.0008
782.8113	-0.0372
782.9839	0.0095
783.1565	-0.031
783.329	0.0042
783.5016	-0.0152
783.6741	-0.0109
783.8466	-0.0508
784.0191	-0.0098
784.1916	0.0259
784.3641	-0.0076
784.5365	0.0388
784.7089	-0.0232
784.8813	0.0261
785.0537	-0.0288
785.2261	0.0168
785.3984	0.0002
785.5707	0.0428
785.743	-0.0333
785.9153	0.0114
786.0876	-0.0565
786.2598	-0.0062
786.432	0.001
786.6042	0.0316
786.7764	-0.0083
786.9486	0.0173
787.1207	0.0092
787.2928	-0.0096
787.4649	0.0145
787.637	0.0249
787.8091	-0.0206
787.9811	-0.0135
788.1532	0.014
788.3252	0.0064
788.4972	-0.0293
788.6691	0.0163
788.8411	0.0142
789.013	-0.0031
789.1849	-0.0164
789.3568	0.0268
789.5287	-0.0382
789.7005	0.019
789.8723	-0.0492
790.0442	-0.108
790.2159	0.0271
790.3877	0.061
790.5595	-0.01
790.7312	-0.0223
790.9029	0.0486
791.0746	0.0176
791.2463	-0.02
791.4179	-0.0594
791.5896	-0.0537
791.7612	-0.0525
791.9328	-0.047
792.1044	-0.0617
792.2759	0.0549
792.4474	-0.0873
792.619	0.0994
792.7905	0.0265
792.9619	-0.0405
793.1334	-0.0091
793.3048	0.0125
793.4762	-0.0805
793.6476	-0.0212
793.819	-0.0564
793.9904	-0.0039
794.1617	-0.0052
794.333	-0.0247
794.5043	0.0199
794.6756	0.0373
794.8469	-0.0141
795.0181	0.0283
795.1893	-0.0352
795.3605	0.0009
795.5317	0.0167
795.7029	0.0027
795.874	-0.0255
796.0452	0.0004
796.2163	-0.0309
796.3873	-0.0008
796.5584	0.1496
796.7294	-0.1165
796.9005	-0.0953
797.0715	0.002
797.2425	-0.0161
797.4134	0.0154
797.5844	0.0417
797.7553	0.0178
797.9262	0.0493
798.0971	-0.0365
798.2679	-0.002
798.4388	-0.1288
798.6096	-0.0198
798.7804	0.0853
798.9512	0.0496
799.122	0.0004
799.2927	-0.0199
799.4635	0.0704
799.6342	-0.0316
799.8049	0.083
799.9755	-0.0381
800.1462	-0.0115
800.3168	-0.0268
800.4874	0.0162
800.658	0.0543
800.8286	0.0753
800.9991	0.1201
801.1696	-0.0762
801.3402	-0.1259
801.5106	-0.0849
801.6811	0.0568
801.8516	-0.0709
802.022	-0.0514
802.1924	-0.0109
802.3628	-0.0862
802.5332	0.043
802.7035	-0.0722
802.8739	0.047
803.0442	-0.0299
803.2145	-0.0155
803.3847	-0.0187
803.555	0.0049
803.7252	-0.0011
803.8954	0.0677
804.0656	0.035
804.2358	-0.0514
804.4059	0.0708
804.5761	-0.0149
804.7462	-0.0588
804.9163	-0.099
805.0864	-0.0496
805.2564	0.0273
805.4264	0.0283
805.5965	0.0187
805.7665	0.0696
805.9364	-0.0163
806.1064	-0.0244
806.2763	0.0091
806.4462	-0.0045
806.6161	-0.0137
806.786	-0.0233
806.9559	0.0345
807.1257	-0.0255
807.2955	0.0365
807.4653	-0.0601
807.6351	-0.0119
807.8048	0.0272
807.9746	-0.0951
808.1443	0.0269
808.314	0.089
808.4837	-0.0462
808.6533	-0.0154
808.8229	-0.0738
808.9926	-0.0637
809.1622	0.0172
809.3317	-0.0624
809.5013	0.1449
809.6708	0.0746
809.8403	0.0807
810.0098	0.1887
810.1793	0.034
810.3488	0.0157
810.5182	0.0617
810.6876	-0.0184
810.857	-0.0788
811.0264	-0.0509
811.1958	0.0087
811.3651	-0.0094
811.5344	-0.1242
811.7037	-0.0234
811.873	0.0403
812.0422	0.0249
812.2115	0.0271
812.3807	0.0056
812.5499	-0.0287
812.7191	-0.1247
812.8882	0.0264
813.0574	-0.1218
813.2265	-0.0106
813.3956	-0.0216
813.5646	-0.0065
813.7337	-0.1157
813.9027	-0.0542
814.0718	-0.0456
814.2407	-0.1454
814.4097	0.0086
814.5787	0.0358
814.7476	-0.0653
814.9165	0.0458
815.0854	-0.0167
815.2543	-0.0016
815.4232	-0.0757
815.592	0.0966
815.7608	0.0538
815.9296	-0.0833
816.0984	-0.0207
816.2671	-0.1427
816.4359	0.0907
816.6046	0.0476
816.7733	-0.1166
816.942	-0.0388
817.1106	-0.1858
817.2793	-0.0216
817.4479	-0.19
817.6165	-0.0438
817.785	-0.0041
817.9536	0.0179
818.1221	0.109
818.2906	0.11
818.4591	-0.0837
818.6276	-0.0185
818.7961	-0.0186
818.9645	0.0088
819.1329	0.1804
819.3013	-0.0647
819.4697	0.0928
819.638	-0.0358
819.8064	-0.0608
819.9747	-0.0914
820.143	-0.0769
820.3113	0.2761
820.4795	0.0537
820.6477	-0.1176
820.816	-0.0701
820.9842	-0.0792
821.1523	0.0682
821.3205	-0.0168
821.4886	0.0248
821.6567	0.0092
821.8248	-0.0387
821.9929	-0.0514
822.1609	0.0308
822.329	0.1147
822.497	-0.0133
822.665	-0.0019
822.833	-0.1324
823.0009	-0.148
823.1688	0.1251
823.3367	-0.2515
823.5046	-0.0152
823.6725	0.0924
823.8404	-0.0037
824.0082	0.125
824.176	0.0432
824.3438	0.2948
824.5116	0.0105
824.6793	-0.0739
824.847	-0.0092
825.0147	-0.0523
825.1824	-0.065
825.3501	-0.0367
825.5177	0.0275
825.6854	0.1801
825.853	-0.0559
826.0206	0.0307
826.1881	0.0054
826.3557	0.0483
826.5232	0.0191
826.6907	-0.038
826.8582	-0.1153
827.0257	-0.0691
827.1931	0.1057
827.3605	-0.1565
827.528	-0.0333
827.6953	0.0837
827.8627	0.1122
828.03	-0.0074
828.1974	-0.1267
828.3647	0.0633
828.532	0.073
828.6992	0.163
828.8665	0.0253
829.0337	-0.1377
829.2009	0.1576
829.3681	0.1025
829.5352	-0.1162
829.7024	0.2732
829.8695	-0.1312
830.0366	0.126
830.2037	0.026
830.3707	-0.1332
830.5378	0.1547
830.7048	-0.3234
830.8718	-0.0268
831.0388	-0.0027
831.2057	0.1347
831.3727	0.2751
831.5396	-0.2678
831.7065	0.0601
831.8734	0.2463
832.0402	-0.0255
832.2071	0.1745
832.3739	0.2162
832.5407	-0
832.7075	0.0523
832.8742	0.1285
833.041	0.0097
833.2077	-0.0064
833.3744	-0.056
833.541	-0.0803
833.7077	0.2543
833.8743	-0.1
834.0409	-0.1472
834.2075	-0.0054
834.3741	0.0913
834.5407	-0.2756
834.7072	0.1541
834.8737	0.1277
835.0402	0.3342
835.2067	0.4937
835.3731	0.09
835.5395	0.1537
835.706	-0.2478
835.8723	-0.2088
836.0387	0.1077
836.2051	0.4879
836.3714	-0.2545
836.5377	-0.3254
836.704	-0.0335
836.8703	-0.1144
837.0365	0.4564
837.2027	-0.0795
837.3689	0.0482
837.5351	-0.1241
837.7013	-0.0038
837.8674	-1.0042
838.0335	0.161
838.1997	-0.0261
838.3657	0.6109
838.5318	-0.8754
838.6978	-0.2586
838.8639	0.2423
839.0299	0.5279
839.1958	-0.0713
839.3618	0.7422
839.5277	0.1114
839.6937	-0.3649
839.8596	0.0181
840.0254	0.1137
840.1913	0.656
840.3571	-0.3602
840.523	0.2337
840.6888	-0.0935
840.8545	-0.03
841.0203	0.0025
841.186	0.3977
841.3517	0.0538
841.5174	0.321
841.6831	0.0402
841.8488	0.1317
842.0144	-0
842.18	0.4139
842.3456	-0.1928
842.5112	0.2232
842.6767	-0.2641
842.8422	0.2367
843.0077	0.6058
843.1732	-0.0615
843.3387	0.2412
843.5042	-0.0442
843.6696	-0.5952
843.835	-0.2287
844.0004	-0.1013
844.1657	0.4668
844.3311	0.2482
844.4964	-0.0285
844.6617	-0
844.827	-0
844.9923	0.2585
845.1575	-0
845.3227	-0
845.4879	0.0655
845.6531	-0.3634
845.8183	0.4885
845.9834	-0.48
846.1485	-0.3043
846.3136	0.1297
846.4787	-0
846.6438	0.3952
846.8088	-1.2439
846.9738	0.439
847.1388	0.474
847.3038	0.3063
847.4687	-0.5189
847.6337	0.5979
847.7986	0.1342
847.9635	-0.1442
848.1284	-0
848.2932	-0.3374
848.458	0.2686
848.6228	0.4187
848.7876	-0.0604
848.9524	-0
849.1172	-0.2575
849.2819	-0
849.4466	-0.2124
849.6113	0.3199
849.7759	-0
849.9406	-0.0772
850.1052	-0.648
850.2698	-1.3642
850.4344	-0
850.599	-0.06
850.7635	-0
850.928	0.3906
851.0925	-0.2662
851.257	-0.886
851.4215	0.1444
851.5859	0.0619
851.7503	-0
851.9147	-0
852.0791	-0.6117
852.2434	0.0459
852.4078	-0
852.5721	-0
852.7364	0.0843
852.9007	-0.1841
853.0649	0.1681
853.2291	-0.0234
853.3934	0.5348
853.5575	-0.1925
853.7217	-0.1352
853.8859	-0.2891
854.05	-0.9867
854.2141	-0
854.3782	0.2672
854.5423	-0.7472
854.7063	0.1661
854.8703	0.1752
855.0343	-0.0444
855.1983	-0.127
855.3623	0.3208
855.5262	-0.4817
855.6901	0.2593
855.854	-0.1021
856.0179	-0
856.1818	-0.5447
856.3456	0.7571
856.5094	-0
856.6732	-0.8794
856.837	0.1232
857.0008	-0.2196
857.1645	-0.428
857.3282	-0.1212
857.4919	-0.0056
857.6556	0.2349
857.8192	-0.3422
857.9828	0.119
858.1465	0.1251
858.31	-0
858.4736	-0.2697
858.6372	-0.5843
858.8007	-1.238
858.9642	0.3443
859.1277	-0
859.2911	-0.0495
859.4546	0.3349
859.618	-0.2726
859.7814	-0
859.9448	-0
860.1081	-0
860.2715	-0.025
860.4348	0.471
860.5981	-0.5876
860.7614	-0
860.9246	-0.4058
861.0879	-0.3502
861.2511	0.4105
861.4143	-0
861.5774	-0.0962
861.7406	-0.6293
861.9037	-0.0631
862.0668	0.6339
862.2299	-1.9808
862.393	-0
862.556	-0
862.7191	0.2313
862.8821	-0.3875
863.0451	0.6142
863.208	-0
863.371	0.4576
863.5339	-0.1702
863.6968	-0.1137
863.8597	-0
864.0225	-0.6028
864.1854	-0.2021
864.3482	0.9374
864.511	0.1431
864.6737	0.2303
864.8365	0.2715
864.9992	2.1106
865.1619	-0.2185
865.3246	-0.2617
865.4873	-0.9017
865.65	-0.7164
865.8126	0.3261
865.9752	0.5624
866.1378	-1.0635
866.3004	-0.1133
866.4629	-0.1806
866.6254	-0
866.7879	0.1973
866.9504	0.0883
867.1129	0.9664
867.2753	-0.3541
867.4377	0.1229
867.6001	0.7472
867.7625	-0.376
867.9249	0.2064
868.0872	-0.1576
868.2495	-0
868.4118	-0
868.5741	-0.2854
868.7363	0.2337
868.8986	-0.0133
869.0608	0.0038
869.223	0.1277
869.3851	-0
869.5473	-1.3373
869.7094	-0.1096
869.8715	0.1908
870.0336	-0.1192
870.1957	-0
870.3577	0.0439
870.5197	0.144
870.6817	-0
870.8437	-0.0874
871.0057	-0
871.1676	0.1002
871.3295	-0
871.4914	-0
871.6533	-0
871.8151	-0.368
871.977	-0.0191
872.1388	-0.8483
872.3006	0.2504
872.4623	-0.5513
872.6241	-2.3939
872.7858	-0.1766
872.9475	-0
873.1092	0.3041
873.2709	-0.0541
873.4325	-0
873.5941	-1.0669
873.7557	-0.8247
873.9173	-1.024
874.0789	0.0509
874.2404	0.5578
874.4019	-0.2393
874.5634	-0.4326
874.7249	0.1009
874.8863	-0
875.0478	-0.049
875.2092	-0.0513
875.3706	-0.2964
875.5319	-0
875.6933	-0
875.8546	-0
876.0159	-0.1476
876.1772	-0
876.3385	-0
876.4997	-0
876.6609	-0.9617
876.8221	0.6292
876.9833	0.1683
877.1445	-0.146
877.3056	-0
877.4667	-1.1563
877.6278	-0
877.7889	0.2941
877.9499	0.5293
878.111	0.2625
878.272	0.1042
878.433	-0.4363
878.5939	0.1678
878.7549	-0.5449
878.9158	-0.6343
879.0767	-0.0554
879.2376	-0
879.3984	0.1256
879.5593	-0.0141
879.7201	-0.3814
879.8809	-0.2806
880.0417	0.3085
880.2024	-0.0445
880.3632	-0.4233
880.5239	1.1022
880.6846	0.3732
880.8452	0.4074
881.0059	-0.5173
881.1665	0.3284
881.3271	-0
881.4877	-0.1156
881.6483	-0
881.8088	0.2712
881.9693	-0
882.1298	-0
882.2903	-0
