Data from D4ACN5uM480nmA_Absorbance_12-08-00-955.txt Node
Date: Fri Feb 21 12:08:00 GMT 2025
User: LASERRRRR
Spectrometer: FLMT03099
Trigger mode: 0
Integration Time (sec): 1.500000E-2
Scans to average: 1
Electric dark correction enabled: true
Nonlinearity correction enabled: false
Boxcar width: 0
XAxis mode: Wavelengths
Number of Pixels in Spectrum: 3648
>>>>>Begin Spectral Data<<<<<
179.3399	0.5538
179.5586	0.5538
179.7771	0.5538
179.9957	0.2197
180.2143	-0
180.4329	-0
180.6514	-0.4674
180.8699	-0.039
181.0885	-0
181.307	0.1332
181.5255	-0.0704
181.744	-0.1249
181.9625	0.0542
182.181	0.3699
182.3994	-0
182.6179	-0
182.8363	-0.2853
183.0547	-0
183.2732	0.2264
183.4916	0.34
183.71	0.2411
183.9284	0.4469
184.1467	0.007
184.3651	0.2582
184.5835	0.1867
184.8018	0.574
185.0201	0.3415
185.2385	0.1055
185.4568	0.1506
185.6751	0.3142
185.8934	0.2528
186.1117	0.117
186.3299	0.3961
186.5482	0.1068
186.7664	0.3058
186.9847	0.2407
187.2029	0.3276
187.4211	0.1963
187.6393	0.2237
187.8575	-0.0335
188.0757	-0
188.2939	0.0032
188.512	0.0177
188.7302	0.1903
188.9483	0.6874
189.1665	0.5334
189.3846	0.2402
189.6027	0.0737
189.8208	0.2726
190.0389	0.2838
190.257	0.1501
190.475	0.2495
190.6931	0.1233
190.9111	0.402
191.1292	0.2744
191.3472	0.1731
191.5652	1.1664
191.7832	0.4323
192.0012	0.3639
192.2192	0.3701
192.4371	0.3043
192.6551	0.2753
192.873	0.2438
193.091	0.3423
193.3089	0.149
193.5268	0.3557
193.7447	0.337
193.9626	0.2938
194.1805	0.785
194.3984	0.5086
194.6162	0.492
194.8341	0.5684
195.0519	0.5474
195.2697	0.4561
195.4875	0.5847
195.7054	0.5569
195.9231	0.5558
196.1409	0.5964
196.3587	0.5125
196.5765	0.5754
196.7942	0.6447
197.012	0.6192
197.2297	0.5
197.4474	0.7131
197.6651	0.5304
197.8828	0.6409
198.1005	0.6297
198.3182	0.5744
198.5358	0.5882
198.7535	0.5879
198.9711	0.5924
199.1888	0.6031
199.4064	0.6077
199.624	0.5682
199.8416	0.5549
200.0592	0.6378
200.2767	0.5757
200.4943	0.6392
200.7119	0.5591
200.9294	0.6043
201.1469	0.6263
201.3645	0.5885
201.582	0.5005
201.7995	0.6338
202.017	0.5136
202.2344	0.579
202.4519	0.6197
202.6694	0.5269
202.8868	0.6032
203.1042	0.5688
203.3217	0.6436
203.5391	0.52
203.7565	0.5141
203.9739	0.5012
204.1913	0.5246
204.4086	0.5322
204.626	0.5316
204.8433	0.5172
205.0607	0.5361
205.278	0.5251
205.4953	0.4666
205.7126	0.4654
205.9299	0.4725
206.1472	0.4851
206.3644	0.5377
206.5817	0.4936
206.7989	0.4389
207.0162	0.4517
207.2334	0.4265
207.4506	0.4392
207.6678	0.4666
207.885	0.4382
208.1022	0.4298
208.3194	0.4151
208.5365	0.4399
208.7537	0.4132
208.9708	0.4664
209.1879	0.4068
209.405	0.421
209.6222	0.4308
209.8392	0.4314
210.0563	0.4555
210.2734	0.3898
210.4905	0.4448
210.7075	0.4435
210.9245	0.4481
211.1416	0.4152
211.3586	0.4142
211.5756	0.3954
211.7926	0.3974
212.0096	0.4013
212.2265	0.4208
212.4435	0.4208
212.6604	0.3997
212.8774	0.4014
213.0943	0.4259
213.3112	0.3867
213.5281	0.4067
213.745	0.4043
213.9619	0.3983
214.1788	0.406
214.3956	0.3884
214.6125	0.4038
214.8293	0.3956
215.0461	0.3913
215.2629	0.4024
215.4798	0.3829
215.6965	0.3851
215.9133	0.3993
216.1301	0.395
216.3469	0.4099
216.5636	0.4045
216.7803	0.4023
216.9971	0.4188
217.2138	0.4128
217.4305	0.4116
217.6472	0.4252
217.8639	0.4112
218.0805	0.4257
218.2972	0.4195
218.5138	0.4209
218.7305	0.3996
218.9471	0.4298
219.1637	0.433
219.3803	0.4241
219.5969	0.4336
219.8135	0.4183
220.0301	0.4181
220.2466	0.422
220.4632	0.4218
220.6797	0.4366
220.8962	0.4387
221.1127	0.4254
221.3292	0.4398
221.5457	0.4383
221.7622	0.4534
221.9787	0.434
222.1951	0.4415
222.4116	0.4383
222.628	0.4255
222.8444	0.4406
223.0608	0.4128
223.2772	0.4512
223.4936	0.4466
223.71	0.4286
223.9264	0.4486
224.1427	0.4515
224.3591	0.4487
224.5754	0.4751
224.7917	0.4706
225.008	0.4629
225.2243	0.4596
225.4406	0.4425
225.6569	0.4652
225.8732	0.4552
226.0894	0.4683
226.3057	0.4625
226.5219	0.4749
226.7381	0.4454
226.9543	0.4745
227.1705	0.464
227.3867	0.4809
227.6029	0.4692
227.8191	0.4802
228.0352	0.497
228.2513	0.4963
228.4675	0.4847
228.6836	0.4978
228.8997	0.5027
229.1158	0.4875
229.3319	0.5092
229.548	0.4914
229.764	0.4988
229.9801	0.5084
230.1961	0.5044
230.4121	0.5131
230.6282	0.5087
230.8442	0.5035
231.0602	0.5122
231.2761	0.5191
231.4921	0.5106
231.7081	0.529
231.924	0.5118
232.14	0.5307
232.3559	0.5317
232.5718	0.541
232.7877	0.5152
233.0036	0.5261
233.2195	0.527
233.4353	0.5295
233.6512	0.5276
233.867	0.5273
234.0829	0.5315
234.2987	0.5375
234.5145	0.527
234.7303	0.5238
234.9461	0.5308
235.1619	0.5386
235.3776	0.533
235.5934	0.5262
235.8091	0.54
236.0249	0.5266
236.2406	0.5427
236.4563	0.547
236.672	0.5383
236.8877	0.5195
237.1034	0.5302
237.319	0.5317
237.5347	0.5239
237.7503	0.5429
237.966	0.5304
238.1816	0.5433
238.3972	0.5358
238.6128	0.5426
238.8284	0.5309
239.0439	0.5325
239.2595	0.5263
239.475	0.5262
239.6906	0.5347
239.9061	0.527
240.1216	0.5423
240.3371	0.5102
240.5526	0.5172
240.7681	0.5164
240.9836	0.5267
241.199	0.5136
241.4145	0.4958
241.6299	0.4976
241.8453	0.486
242.0607	0.49
242.2761	0.4813
242.4915	0.4711
242.7069	0.466
242.9223	0.4653
243.1376	0.4504
243.353	0.4518
243.5683	0.4413
243.7836	0.4146
243.9989	0.423
244.2142	0.4153
244.4295	0.4058
244.6448	0.3915
244.86	0.3886
245.0753	0.3806
245.2905	0.3821
245.5057	0.3747
245.721	0.3582
245.9362	0.3514
246.1514	0.337
246.3665	0.3485
246.5817	0.3319
246.7969	0.3246
247.012	0.3139
247.2271	0.3047
247.4423	0.3032
247.6574	0.3015
247.8725	0.2991
248.0876	0.2918
248.3026	0.2869
248.5177	0.278
248.7328	0.2742
248.9478	0.2728
249.1628	0.2703
249.3779	0.2647
249.5929	0.2633
249.8079	0.2526
250.0228	0.2497
250.2378	0.2506
250.4528	0.2549
250.6677	0.2449
250.8827	0.2408
251.0976	0.2465
251.3125	0.2321
251.5274	0.231
251.7423	0.2262
251.9572	0.2246
252.172	0.2195
252.3869	0.2226
252.6017	0.2186
252.8166	0.2138
253.0314	0.217
253.2462	0.2154
253.461	0.2141
253.6758	0.1996
253.8906	0.2064
254.1053	0.2054
254.3201	0.204
254.5348	0.2034
254.7496	0.1966
254.9643	0.2038
255.179	0.2023
255.3937	0.1936
255.6083	0.203
255.823	0.2039
256.0377	0.1971
256.2523	0.1948
256.467	0.1915
256.6816	0.1944
256.8962	0.1912
257.1108	0.1978
257.3254	0.1914
257.54	0.1931
257.7545	0.1981
257.9691	0.1943
258.1836	0.1849
258.3981	0.1869
258.6127	0.1829
258.8272	0.1853
259.0417	0.1818
259.2561	0.1854
259.4706	0.1872
259.6851	0.1865
259.8995	0.1806
260.114	0.1808
260.3284	0.1889
260.5428	0.1791
260.7572	0.1895
260.9716	0.1868
261.186	0.1822
261.4003	0.1848
261.6147	0.1784
261.829	0.1879
262.0433	0.1862
262.2577	0.1912
262.472	0.1857
262.6863	0.1884
262.9005	0.1885
263.1148	0.1833
263.3291	0.1851
263.5433	0.1886
263.7576	0.1868
263.9718	0.1873
264.186	0.1854
264.4002	0.1807
264.6144	0.1941
264.8286	0.1853
265.0427	0.1917
265.2569	0.1813
265.471	0.1866
265.6851	0.1833
265.8993	0.1852
266.1134	0.1885
266.3275	0.1828
266.5415	0.1821
266.7556	0.1831
266.9697	0.1816
267.1837	0.1866
267.3978	0.1944
267.6118	0.1845
267.8258	0.186
268.0398	0.1832
268.2538	0.1866
268.4677	0.1824
268.6817	0.1762
268.8957	0.1837
269.1096	0.1796
269.3235	0.1831
269.5374	0.1805
269.7514	0.1853
269.9652	0.1783
270.1791	0.18
270.393	0.1794
270.6068	0.1719
270.8207	0.1773
271.0345	0.1761
271.2483	0.1809
271.4622	0.178
271.676	0.1753
271.8897	0.1729
272.1035	0.1777
272.3173	0.1703
272.531	0.1736
272.7448	0.1696
272.9585	0.1766
273.1722	0.1717
273.3859	0.1687
273.5996	0.1699
273.8133	0.1711
274.0269	0.1796
274.2406	0.173
274.4542	0.1653
274.6679	0.1733
274.8815	0.1727
275.0951	0.1736
275.3087	0.1764
275.5223	0.1724
275.7358	0.1723
275.9494	0.1699
276.1629	0.1829
276.3765	0.1744
276.59	0.1771
276.8035	0.1747
277.017	0.1795
277.2305	0.1776
277.444	0.1764
277.6574	0.1694
277.8709	0.1754
278.0843	0.1768
278.2978	0.1786
278.5112	0.1795
278.7246	0.181
278.938	0.1744
279.1513	0.1781
279.3647	0.1775
279.5781	0.1806
279.7914	0.1818
280.0047	0.1791
280.2181	0.1824
280.4314	0.1781
280.6447	0.1863
280.8579	0.1777
281.0712	0.1787
281.2845	0.1844
281.4977	0.1857
281.711	0.1894
281.9242	0.1868
282.1374	0.1755
282.3506	0.1857
282.5638	0.1847
282.7769	0.1852
282.9901	0.1829
283.2033	0.1837
283.4164	0.1845
283.6295	0.1802
283.8426	0.18
284.0557	0.1866
284.2688	0.1896
284.4819	0.1911
284.695	0.1951
284.908	0.1918
285.1211	0.1893
285.3341	0.1924
285.5471	0.1874
285.7601	0.1959
285.9731	0.1937
286.1861	0.1977
286.3991	0.1938
286.612	0.1969
286.825	0.1912
287.0379	0.2042
287.2508	0.1916
287.4637	0.1915
287.6766	0.1991
287.8895	0.1894
288.1024	0.1981
288.3152	0.1968
288.5281	0.1945
288.7409	0.1913
288.9538	0.1938
289.1666	0.1988
289.3794	0.1985
289.5922	0.1981
289.8049	0.203
290.0177	0.1936
290.2304	0.1992
290.4432	0.2018
290.6559	0.1878
290.8686	0.2042
291.0813	0.2001
291.294	0.2026
291.5067	0.1956
291.7194	0.1951
291.932	0.1981
292.1447	0.1987
292.3573	0.1972
292.5699	0.2042
292.7825	0.1966
292.9951	0.1974
293.2077	0.193
293.4203	0.1985
293.6328	0.1947
293.8454	0.2021
294.0579	0.2018
294.2704	0.1988
294.4829	0.2036
294.6954	0.198
294.9079	0.2002
295.1204	0.1958
295.3328	0.1969
295.5453	0.1968
295.7577	0.1902
295.9701	0.1967
296.1825	0.196
296.3949	0.2056
296.6073	0.2016
296.8197	0.2044
297.0321	0.1986
297.2444	0.2063
297.4567	0.1938
297.6691	0.1946
297.8814	0.1957
298.0937	0.2006
298.306	0.1952
298.5182	0.2053
298.7305	0.2006
298.9428	0.1952
299.155	0.1972
299.3672	0.2014
299.5794	0.1953
299.7916	0.2005
300.0038	0.1975
300.216	0.2045
300.4282	0.1969
300.6403	0.1952
300.8525	0.2014
301.0646	0.1957
301.2767	0.193
301.4888	0.1938
301.7009	0.194
301.913	0.1967
302.125	0.1889
302.3371	0.2001
302.5491	0.2014
302.7612	0.192
302.9732	0.1914
303.1852	0.1995
303.3972	0.1934
303.6092	0.1967
303.8211	0.1913
304.0331	0.1867
304.245	0.1961
304.457	0.1954
304.6689	0.1976
304.8808	0.19
305.0927	0.1942
305.3046	0.1893
305.5164	0.19
305.7283	0.1901
305.9401	0.1789
306.152	0.1742
306.3638	0.1797
306.5756	0.1846
306.7874	0.1805
306.9992	0.181
307.2109	0.1706
307.4227	0.1751
307.6344	0.1752
307.8462	0.1744
308.0579	0.1643
308.2696	0.1634
308.4813	0.1647
308.693	0.1666
308.9046	0.1616
309.1163	0.1653
309.328	0.1509
309.5396	0.1567
309.7512	0.1613
309.9628	0.1549
310.1744	0.1494
310.386	0.1526
310.5976	0.1473
310.8091	0.1467
311.0207	0.1528
311.2322	0.1458
311.4437	0.1399
311.6552	0.144
311.8667	0.1359
312.0782	0.1466
312.2897	0.1388
312.5012	0.1418
312.7126	0.1316
312.924	0.1368
313.1355	0.128
313.3469	0.1282
313.5583	0.1331
313.7696	0.129
313.981	0.1281
314.1924	0.1256
314.4037	0.1282
314.6151	0.1229
314.8264	0.1298
315.0377	0.127
315.249	0.1207
315.4603	0.1226
315.6716	0.1282
315.8828	0.1236
316.0941	0.1178
316.3053	0.1241
316.5165	0.1227
316.7277	0.1213
316.9389	0.1234
317.1501	0.1224
317.3613	0.1175
317.5724	0.121
317.7836	0.1195
317.9947	0.1125
318.2058	0.1173
318.417	0.1158
318.6281	0.1132
318.8391	0.1175
319.0502	0.1174
319.2613	0.1161
319.4723	0.1185
319.6834	0.1191
319.8944	0.1177
320.1054	0.1186
320.3164	0.1165
320.5274	0.1076
320.7383	0.1139
320.9493	0.115
321.1602	0.1167
321.3712	0.1176
321.5821	0.117
321.793	0.1148
322.0039	0.1146
322.2148	0.1157
322.4257	0.116
322.6365	0.1192
322.8474	0.1162
323.0582	0.1199
323.269	0.1144
323.4798	0.1161
323.6906	0.1184
323.9014	0.1198
324.1122	0.115
324.3229	0.122
324.5337	0.124
324.7444	0.1147
324.9551	0.1186
325.1658	0.1145
325.3765	0.1163
325.5872	0.1196
325.7979	0.1203
326.0085	0.1173
326.2192	0.119
326.4298	0.1162
326.6404	0.1193
326.851	0.1139
327.0616	0.1223
327.2722	0.1234
327.4828	0.1142
327.6933	0.1223
327.9039	0.1204
328.1144	0.1217
328.3249	0.1229
328.5354	0.1164
328.7459	0.1239
328.9564	0.119
329.1669	0.1229
329.3773	0.1249
329.5878	0.1247
329.7982	0.1181
330.0086	0.1229
330.219	0.1215
330.4294	0.124
330.6398	0.1191
330.8502	0.127
331.0605	0.12
331.2708	0.1222
331.4812	0.1204
331.6915	0.1218
331.9018	0.1188
332.1121	0.1278
332.3224	0.1274
332.5326	0.1248
332.7429	0.1227
332.9531	0.1256
333.1633	0.128
333.3735	0.1244
333.5837	0.1268
333.7939	0.1255
334.0041	0.123
334.2143	0.1244
334.4244	0.121
334.6346	0.1244
334.8447	0.1285
335.0548	0.1214
335.2649	0.1295
335.475	0.1322
335.685	0.1293
335.8951	0.1256
336.1051	0.1323
336.3152	0.1286
336.5252	0.1296
336.7352	0.1195
336.9452	0.1363
337.1552	0.1273
337.3652	0.1298
337.5751	0.1281
337.7851	0.1273
337.995	0.128
338.2049	0.1343
338.4148	0.1283
338.6247	0.1264
338.8346	0.1278
339.0445	0.1339
339.2543	0.1354
339.4642	0.1403
339.674	0.1393
339.8838	0.1336
340.0936	0.1305
340.3034	0.1351
340.5132	0.1312
340.7229	0.1392
340.9327	0.1414
341.1424	0.1366
341.3522	0.1366
341.5619	0.138
341.7716	0.1348
341.9813	0.1471
342.1909	0.139
342.4006	0.1433
342.6102	0.1347
342.8199	0.138
343.0295	0.1412
343.2391	0.1346
343.4487	0.1431
343.6583	0.1539
343.8679	0.1383
344.0774	0.1407
344.287	0.1435
344.4965	0.1448
344.706	0.1516
344.9155	0.1489
345.125	0.1473
345.3345	0.1414
345.544	0.1483
345.7534	0.1486
345.9629	0.1528
346.1723	0.1466
346.3817	0.1519
346.5911	0.1531
346.8005	0.1472
347.0099	0.1575
347.2193	0.1538
347.4286	0.1501
347.638	0.1517
347.8473	0.151
348.0566	0.159
348.2659	0.1564
348.4752	0.152
348.6845	0.1626
348.8937	0.1609
349.103	0.1558
349.3122	0.1617
349.5214	0.1584
349.7306	0.1594
349.9398	0.1599
350.149	0.1614
350.3582	0.1608
350.5674	0.1646
350.7765	0.1678
350.9856	0.1602
351.1948	0.1611
351.4039	0.1645
351.613	0.1735
351.822	0.1635
352.0311	0.1717
352.2402	0.1726
352.4492	0.1686
352.6582	0.161
352.8672	0.1697
353.0762	0.1706
353.2852	0.1746
353.4942	0.1752
353.7032	0.166
353.9121	0.1744
354.1211	0.1743
354.33	0.1772
354.5389	0.1812
354.7478	0.178
354.9567	0.1801
355.1655	0.176
355.3744	0.1726
355.5833	0.1799
355.7921	0.1752
356.0009	0.1804
356.2097	0.1862
356.4185	0.192
356.6273	0.1791
356.8361	0.1953
357.0448	0.1923
357.2536	0.1864
357.4623	0.1867
357.671	0.1873
357.8797	0.1956
358.0884	0.1825
358.2971	0.1927
358.5057	0.1926
358.7144	0.1971
358.923	0.1966
359.1316	0.1952
359.3402	0.2024
359.5488	0.1962
359.7574	0.2026
359.966	0.2039
360.1746	0.1946
360.3831	0.2017
360.5916	0.2029
360.8002	0.202
361.0087	0.2128
361.2172	0.2079
361.4256	0.2009
361.6341	0.2118
361.8426	0.2102
362.051	0.2101
362.2594	0.2122
362.4678	0.2216
362.6762	0.2198
362.8846	0.2216
363.093	0.2106
363.3014	0.2188
363.5097	0.215
363.718	0.2192
363.9264	0.2259
364.1347	0.2265
364.343	0.2337
364.5513	0.2335
364.7595	0.2354
364.9678	0.2258
365.176	0.2331
365.3842	0.2356
365.5925	0.2377
365.8007	0.241
366.0089	0.2298
366.217	0.2366
366.4252	0.2303
366.6333	0.2332
366.8415	0.2357
367.0496	0.2383
367.2577	0.2418
367.4658	0.2489
367.6739	0.2379
367.882	0.2486
368.09	0.2399
368.2981	0.2467
368.5061	0.2527
368.7141	0.2525
368.9221	0.2503
369.1301	0.2489
369.3381	0.249
369.5461	0.2569
369.754	0.2499
369.962	0.2551
370.1699	0.2529
370.3778	0.2567
370.5857	0.2538
370.7936	0.2618
371.0015	0.2512
371.2093	0.2554
371.4172	0.2603
371.625	0.2602
371.8328	0.2653
372.0406	0.2641
372.2484	0.2616
372.4562	0.2641
372.664	0.2732
372.8717	0.2605
373.0795	0.264
373.2872	0.2662
373.4949	0.2768
373.7026	0.2698
373.9103	0.2643
374.118	0.2686
374.3256	0.2819
374.5333	0.2774
374.7409	0.268
374.9485	0.2819
375.1561	0.2763
375.3637	0.2797
375.5713	0.2769
375.7789	0.2751
375.9864	0.2833
376.194	0.2814
376.4015	0.2864
376.609	0.2803
376.8165	0.2883
377.024	0.2889
377.2315	0.2913
377.4389	0.2797
377.6464	0.287
377.8538	0.2944
378.0612	0.2853
378.2686	0.292
378.476	0.2951
378.6834	0.292
378.8908	0.2888
379.0981	0.2891
379.3055	0.3076
379.5128	0.295
379.7201	0.2944
379.9274	0.2911
380.1347	0.3057
380.342	0.3038
380.5492	0.2964
380.7565	0.2959
380.9637	0.3068
381.1709	0.3028
381.3781	0.3121
381.5853	0.3102
381.7925	0.3018
381.9997	0.3149
382.2068	0.2999
382.4139	0.3077
382.6211	0.3156
382.8282	0.3077
383.0353	0.3096
383.2424	0.3147
383.4494	0.3096
383.6565	0.3077
383.8635	0.3198
384.0706	0.3071
384.2776	0.3113
384.4846	0.3126
384.6916	0.3081
384.8986	0.3133
385.1055	0.3102
385.3125	0.3105
385.5194	0.3065
385.7263	0.3061
385.9333	0.3176
386.1402	0.3204
386.347	0.3256
386.5539	0.3187
386.7608	0.3179
386.9676	0.3132
387.1744	0.3116
387.3813	0.3184
387.5881	0.3086
387.7948	0.3105
388.0016	0.3072
388.2084	0.311
388.4151	0.3093
388.6219	0.3106
388.8286	0.3129
389.0353	0.3083
389.242	0.2995
389.4487	0.3123
389.6553	0.31
389.862	0.3056
390.0686	0.3028
390.2753	0.3052
390.4819	0.318
390.6885	0.3027
390.8951	0.3096
391.1016	0.3073
391.3082	0.2894
391.5147	0.2954
391.7213	0.3037
391.9278	0.3011
392.1343	0.3069
392.3408	0.2885
392.5473	0.2896
392.7537	0.2973
392.9602	0.2887
393.1666	0.2895
393.373	0.2929
393.5794	0.2818
393.7858	0.2951
393.9922	0.29
394.1986	0.2814
394.4049	0.2806
394.6113	0.2834
394.8176	0.275
395.0239	0.277
395.2302	0.2725
395.4365	0.2761
395.6428	0.2845
395.8491	0.2847
396.0553	0.2649
396.2615	0.2733
396.4678	0.2684
396.674	0.2725
396.8802	0.2719
397.0863	0.2692
397.2925	0.2717
397.4987	0.2634
397.7048	0.2794
397.9109	0.2749
398.117	0.2711
398.3231	0.2707
398.5292	0.2721
398.7353	0.2712
398.9413	0.2711
399.1474	0.2759
399.3534	0.2757
399.5594	0.2646
399.7654	0.2663
399.9714	0.2627
400.1774	0.2636
400.3833	0.2684
400.5893	0.2674
400.7952	0.2697
401.0011	0.2634
401.207	0.271
401.4129	0.266
401.6188	0.2649
401.8247	0.2729
402.0305	0.2606
402.2364	0.2743
402.4422	0.2675
402.648	0.2767
402.8538	0.2747
403.0596	0.2604
403.2654	0.2608
403.4711	0.2624
403.6768	0.2806
403.8826	0.2682
404.0883	0.2593
404.294	0.2765
404.4997	0.2653
404.7054	0.2651
404.911	0.2601
405.1167	0.2682
405.3223	0.279
405.5279	0.2745
405.7335	0.2642
405.9391	0.2684
406.1447	0.2623
406.3502	0.2559
406.5558	0.2644
406.7613	0.2653
406.9668	0.2665
407.1724	0.2775
407.3778	0.2571
407.5833	0.2745
407.7888	0.2749
407.9942	0.2596
408.1997	0.2634
408.4051	0.2617
408.6105	0.2729
408.8159	0.2573
409.0213	0.269
409.2267	0.2702
409.432	0.2692
409.6374	0.2626
409.8427	0.2643
410.048	0.2654
410.2533	0.2676
410.4586	0.2726
410.6639	0.2698
410.8691	0.2803
411.0744	0.2753
411.2796	0.2678
411.4848	0.2613
411.69	0.2676
411.8952	0.2618
412.1004	0.2671
412.3056	0.2538
412.5107	0.2691
412.7158	0.2588
412.921	0.2677
413.1261	0.2694
413.3312	0.2585
413.5362	0.2718
413.7413	0.2599
413.9464	0.2587
414.1514	0.2573
414.3564	0.2503
414.5614	0.2565
414.7664	0.2553
414.9714	0.264
415.1764	0.2642
415.3813	0.2663
415.5863	0.2685
415.7912	0.2654
415.9961	0.2509
416.201	0.2661
416.4059	0.2528
416.6108	0.2609
416.8156	0.2489
417.0205	0.2613
417.2253	0.2556
417.4301	0.2729
417.6349	0.2616
417.8397	0.264
418.0445	0.26
418.2492	0.2617
418.454	0.2579
418.6587	0.2655
418.8634	0.2558
419.0681	0.259
419.2728	0.2603
419.4775	0.2568
419.6822	0.2485
419.8868	0.2505
420.0915	0.2582
420.2961	0.2477
420.5007	0.2473
420.7053	0.2587
420.9099	0.2429
421.1144	0.2418
421.319	0.2399
421.5235	0.2393
421.728	0.2406
421.9325	0.2497
422.137	0.2506
422.3415	0.2387
422.546	0.2425
422.7504	0.2426
422.9549	0.2451
423.1593	0.2435
423.3637	0.2246
423.5681	0.2346
423.7725	0.2384
423.9769	0.2313
424.1812	0.2384
424.3856	0.2342
424.5899	0.2298
424.7942	0.2247
424.9985	0.2293
425.2028	0.2396
425.4071	0.2183
425.6113	0.2234
425.8156	0.2233
426.0198	0.2168
426.224	0.2238
426.4282	0.2212
426.6324	0.2197
426.8366	0.2191
427.0407	0.2171
427.2449	0.2198
427.449	0.2232
427.6531	0.2163
427.8572	0.2067
428.0613	0.2129
428.2654	0.2128
428.4694	0.2147
428.6735	0.2108
428.8775	0.1989
429.0815	0.2127
429.2855	0.2129
429.4895	0.2007
429.6935	0.1995
429.8975	0.2047
430.1014	0.2035
430.3053	0.1945
430.5093	0.1944
430.7132	0.1935
430.9171	0.1809
431.1209	0.1922
431.3248	0.1866
431.5286	0.1747
431.7325	0.1869
431.9363	0.1857
432.1401	0.1764
432.3439	0.1778
432.5477	0.1855
432.7514	0.1717
432.9552	0.1713
433.1589	0.1705
433.3627	0.173
433.5664	0.1725
433.7701	0.1805
433.9737	0.1663
434.1774	0.1693
434.3811	0.1623
434.5847	0.1567
434.7883	0.161
434.9919	0.1552
435.1955	0.1522
435.3991	0.1528
435.6027	0.1579
435.8062	0.1574
436.0098	0.1449
436.2133	0.156
436.4168	0.1534
436.6203	0.1377
436.8238	0.1463
437.0272	0.1441
437.2307	0.1327
437.4341	0.1359
437.6375	0.1423
437.841	0.1366
438.0443	0.1345
438.2477	0.1265
438.4511	0.1296
438.6545	0.1287
438.8578	0.127
439.0611	0.1355
439.2644	0.1269
439.4677	0.1203
439.671	0.1169
439.8743	0.1171
440.0775	0.1113
440.2808	0.1284
440.484	0.1093
440.6872	0.1094
440.8904	0.1072
441.0936	0.1135
441.2967	0.0959
441.4999	0.1119
441.703	0.1069
441.9062	0.1066
442.1093	0.0941
442.3124	0.1066
442.5155	0.1014
442.7185	0.0868
442.9216	0.0981
443.1246	0.09
443.3276	0.0868
443.5307	0.0901
443.7337	0.0843
443.9366	0.0854
444.1396	0.0724
444.3426	0.0823
444.5455	0.0756
444.7484	0.0776
444.9513	0.0806
445.1542	0.0822
445.3571	0.072
445.56	0.0744
445.7628	0.0707
445.9657	0.0764
446.1685	0.0881
446.3713	0.075
446.5741	0.0591
446.7769	0.0711
446.9797	0.0657
447.1824	0.0649
447.3852	0.0602
447.5879	0.0583
447.7906	0.0578
447.9933	0.0596
448.196	0.0553
448.3986	0.0489
448.6013	0.0581
448.8039	0.0557
449.0066	0.0495
449.2092	0.0487
449.4118	0.0553
449.6143	0.0521
449.8169	0.0495
450.0195	0.0529
450.222	0.0506
450.4245	0.0577
450.627	0.0419
450.8295	0.0392
451.032	0.0441
451.2345	0.0345
451.4369	0.046
451.6394	0.044
451.8418	0.0436
452.0442	0.044
452.2466	0.0441
452.449	0.033
452.6513	0.0453
452.8537	0.0387
453.056	0.0395
453.2583	0.0357
453.4607	0.0277
453.663	0.0433
453.8652	0.031
454.0675	0.0365
454.2697	0.0251
454.472	0.0293
454.6742	0.0267
454.8764	0.0293
455.0786	0.0311
455.2808	0.0322
455.4829	0.0218
455.6851	0.0182
455.8872	0.0377
456.0893	0.0225
456.2915	0.0179
456.4935	0.0175
456.6956	0.0305
456.8977	0.0237
457.0997	0.0229
457.3018	0.0253
457.5038	0.0215
457.7058	0.0212
457.9078	0.0345
458.1098	0.0244
458.3117	0.0269
458.5137	0.0286
458.7156	0.0228
458.9175	0.0179
459.1194	0.024
459.3213	0.0131
459.5232	0.0133
459.725	0.0207
459.9269	0.0162
460.1287	0.0077
460.3305	0.0136
460.5323	0.017
460.7341	0.0178
460.9359	0.0118
461.1376	0.0216
461.3394	0.0197
461.5411	0.009
461.7428	0.0143
461.9445	0.0084
462.1462	0.0149
462.3479	0.0111
462.5495	0.023
462.7512	0.0129
462.9528	0.0145
463.1544	0.0129
463.356	0.0152
463.5576	0.0095
463.7592	0.0046
463.9607	0.0154
464.1623	0.0192
464.3638	0.0109
464.5653	0.0132
464.7668	0.0057
464.9683	0.0105
465.1697	0.0056
465.3712	0.0103
465.5726	0.0151
465.7741	0.0034
465.9755	0.0095
466.1769	0.0123
466.3782	0.0022
466.5796	0.0162
466.7809	0.0143
466.9823	0.003
467.1836	0.0204
467.3849	0.0088
467.5862	-0.0092
467.7875	0.0046
467.9887	0.0126
468.19	0.0063
468.3912	0.0076
468.5924	0.0145
468.7936	0.003
468.9948	0.0154
469.196	-0.0008
469.3972	0.0139
469.5983	-0.0005
469.7994	0.002
470.0006	0.0188
470.2017	0.014
470.4027	0.0026
470.6038	0.0061
470.8049	0.0047
471.0059	0.0039
471.2069	0.0055
471.408	0.0045
471.6089	0.0039
471.8099	0.0047
472.0109	-0.0037
472.2119	0.0187
472.4128	0.0114
472.6137	0.0125
472.8146	0.0032
473.0155	0.0032
473.2164	-0.0012
473.4173	0.0093
473.6181	0.007
473.819	0.003
474.0198	0.0024
474.2206	0.011
474.4214	0.0156
474.6222	0.0102
474.8229	0.0046
475.0237	0.0022
475.2244	0.0078
475.4251	-0.0059
475.6258	0.0056
475.8265	0.0024
476.0272	0.0115
476.2278	0.0008
476.4285	0.0023
476.6291	0.009
476.8297	0.0033
477.0303	0.0009
477.2309	-0.0009
477.4315	0.0144
477.632	0.0008
477.8326	0.0034
478.0331	-0.0005
478.2336	0.0103
478.4341	0.0022
478.6346	-0.0005
478.8351	0.0053
479.0355	0.0032
479.236	0.0011
479.4364	0.0009
479.6368	0.0001
479.8372	0.0106
480.0376	0.0044
480.2379	0.0042
480.4383	0.0019
480.6386	-0.008
480.8389	0.0052
481.0392	0.005
481.2395	0.0068
481.4398	0.005
481.6401	0.0028
481.8403	-0.0027
482.0405	-0.0054
482.2408	-0.0016
482.441	0.0059
482.6411	-0.0001
482.8413	-0.0023
483.0415	0.0027
483.2416	-0.0013
483.4417	0.0031
483.6419	0.0063
483.8419	0.0017
484.042	0.0049
484.2421	-0.0044
484.4422	0.0117
484.6422	0.0057
484.8422	0.001
485.0422	-0.0001
485.2422	0.0053
485.4422	-0.0008
485.6422	-0.0016
485.8421	-0.0018
486.042	0.0043
486.242	0.0032
486.4419	0.0049
486.6417	0.001
486.8416	0.0057
487.0415	-0.0035
487.2413	0.0007
487.4411	-0.0022
487.641	0.0049
487.8408	0.0041
488.0405	-0.0007
488.2403	0.0043
488.4401	0.0003
488.6398	0.0022
488.8395	0.0022
489.0392	0.0002
489.2389	0.0064
489.4386	0.0027
489.6383	-0.0007
489.8379	0.0018
490.0376	0.0087
490.2372	0.0008
490.4368	0.0018
490.6364	0.0026
490.836	0.0007
491.0355	0.0012
491.2351	0.0005
491.4346	0.0071
491.6341	-0.0033
491.8336	-0.0043
492.0331	-0.0041
492.2326	-0.0013
492.432	0.004
492.6315	-0.001
492.8309	0.007
493.0303	-0.0051
493.2297	-0.002
493.4291	-0.0102
493.6284	0.0009
493.8278	0.0028
494.0271	-0.0014
494.2264	0.0006
494.4257	0.0006
494.625	0.0016
494.8243	0.0057
495.0236	-0.0019
495.2228	-0.0018
495.422	0.002
495.6213	-0.0036
495.8205	0.0053
496.0196	0.0016
496.2188	-0.0006
496.418	-0.002
496.6171	-0.0031
496.8162	0.0062
497.0153	0.0003
497.2144	-0.002
497.4135	0.0055
497.6126	-0.0062
497.8116	-0.0019
498.0107	-0.0034
498.2097	0.0103
498.4087	-0.0013
498.6077	0.0052
498.8067	0.0148
499.0056	-0.0049
499.2046	0.0024
499.4035	-0.0008
499.6024	-0.0083
499.8013	0.0076
500.0002	0.0061
500.199	0.0096
500.3979	0.0064
500.5967	-0.0002
500.7956	-0.0009
500.9944	0.0024
501.1932	0.0037
501.3919	0.0073
501.5907	0.0018
501.7895	0.0005
501.9882	-0.0114
502.1869	0.0008
502.3856	-0.0076
502.5843	0.0017
502.783	0.0023
502.9816	-0.0093
503.1803	0.005
503.3789	0.0056
503.5775	0.0003
503.7761	0.0047
503.9747	-0.004
504.1732	-0.0029
504.3718	-0.0028
504.5703	0.0022
504.7689	0.0002
504.9674	0.0042
505.1658	0.0012
505.3643	0.005
505.5628	0.0101
505.7612	0.0047
505.9597	0.0042
506.1581	-0.0035
506.3565	-0.0061
506.5549	0.0056
506.7532	0.002
506.9516	0.0038
507.1499	0.0008
507.3482	0.0103
507.5465	-0.0112
507.7448	0.0031
507.9431	-0.0044
508.1414	-0.0072
508.3396	0.0048
508.5379	0.0057
508.7361	0.0074
508.9343	0.0075
509.1325	0.0027
509.3306	-0.0034
509.5288	0.0111
509.7269	0.0018
509.9251	-0.0041
510.1232	-0.0044
510.3213	-0.0088
510.5193	0.008
510.7174	-0.0076
510.9154	0.01
511.1135	0.0009
511.3115	0.0034
511.5095	0.0007
511.7075	0.009
511.9055	0.0069
512.1034	0.0033
512.3014	-0.0012
512.4993	0.0052
512.6972	-0.0035
512.8951	0.0091
513.093	-0.001
513.2908	0.002
513.4887	0.0085
513.6865	-0.009
513.8844	0.0094
514.0822	0.002
514.2799	0.0022
514.4777	0.0008
514.6755	-0.0083
514.8732	-0.0018
515.0709	0.0044
515.2687	-0.0042
515.4664	-0.0111
515.664	0.0002
515.8617	0.0065
516.0594	-0.0031
516.257	0.0029
516.4546	0.0001
516.6522	0.004
516.8498	-0.001
517.0474	-0.0046
517.2449	-0.0076
517.4425	0.0003
517.64	-0.0003
517.8375	0.0095
518.035	-0.0019
518.2325	-0.0075
518.43	-0.0015
518.6274	-0.0043
518.8249	-0.002
519.0223	-0.0026
519.2197	-0.0047
519.4171	-0.0054
519.6145	-0.003
519.8118	-0.0001
520.0092	0.0009
520.2065	0.0079
520.4038	0.0004
520.6011	0.0111
520.7984	0.002
520.9956	-0.004
521.1929	0.0051
521.3901	-0.0044
521.5874	-0.003
521.7846	0.0018
521.9818	-0.0061
522.1789	0.0097
522.3761	0.0027
522.5732	0.002
522.7704	0.0057
522.9675	-0.0081
523.1646	0.0151
523.3617	0.0054
523.5587	0.0057
523.7558	0.0073
523.9528	0.0081
524.1498	-0.0027
524.3468	-0.0039
524.5438	-0.004
524.7408	-0.0141
524.9378	-0.0006
525.1347	0.0014
525.3316	0.0114
525.5285	-0.0013
525.7254	-0.0114
525.9223	-0.0001
526.1192	-0.0021
526.316	-0.0117
526.5129	-0.0038
526.7097	-0.0082
526.9065	0.0023
527.1033	0.0016
527.3	-0.005
527.4968	-0.0057
527.6935	0.0108
527.8903	0.0059
528.087	0.0009
528.2837	0.0076
528.4804	0.0053
528.677	0.0076
528.8737	0.0015
529.0703	0.0075
529.2669	-0.0012
529.4635	0.0063
529.6601	0.0119
529.8567	0.008
530.0532	-0.0002
530.2498	-0.0101
530.4463	0.0039
530.6428	-0.0042
530.8393	0.0009
531.0358	-0.0086
531.2322	0.0045
531.4287	-0.0107
531.6251	-0.0028
531.8215	0.0014
532.0179	-0.0118
532.2143	0.0182
532.4107	0.0005
532.607	0.0016
532.8034	-0.0017
532.9997	0.0017
533.196	0.0119
533.3923	0.0032
533.5886	0.0006
533.7848	-0.0076
533.9811	-0.0091
534.1773	0.0032
534.3735	0.0086
534.5697	-0.0015
534.7659	0.0024
534.9621	0.005
535.1582	-0.0078
535.3544	0.0103
535.5505	0.0028
535.7466	-0.0022
535.9427	-0.0045
536.1387	-0.0037
536.3348	0.0094
536.5308	0.0051
536.7269	-0.0038
536.9229	-0.0021
537.1189	-0.0048
537.3148	-0.0063
537.5108	-0.0062
537.7068	-0.0076
537.9027	0.01
538.0986	0.004
538.2945	-0.0045
538.4904	-0.0016
538.6863	0.0144
538.8821	-0.0038
539.078	0.0018
539.2738	-0.0101
539.4696	0.0049
539.6654	-0.0024
539.8611	-0.002
540.0569	0.0016
540.2526	-0.004
540.4484	-0.0084
540.6441	-0
540.8398	0.0013
541.0355	-0.007
541.2311	0.0001
541.4268	-0.0025
541.6224	0.0025
541.818	0.0058
542.0136	-0.0037
542.2092	-0.0125
542.4048	0.0054
542.6003	0.0111
542.7959	0.003
542.9914	-0.0039
543.1869	0.006
543.3824	-0.0002
543.5779	0.0117
543.7734	-0.0049
543.9688	-0.0049
544.1642	-0.0022
544.3596	-0.0108
544.555	0.003
544.7504	0.0039
544.9458	0.0007
545.1411	0.0052
545.3365	0.0007
545.5318	-0.0039
545.7271	0.0009
545.9224	-0.0079
546.1177	0.0048
546.3129	-0.0069
546.5081	-0.0055
546.7034	0.0027
546.8986	-0.0037
547.0938	-0.0052
547.289	-0.0028
547.4841	0.0038
547.6793	-0.0013
547.8744	-0.001
548.0695	0.0079
548.2646	-0.0057
548.4597	-0.0038
548.6548	0.0017
548.8498	0.0056
549.0448	0.0065
549.2399	-0.0087
549.4349	0.0061
549.6298	-0.0048
549.8248	-0.0058
550.0198	0.0074
550.2147	-0.0036
550.4096	-0.0031
550.6045	-0.0016
550.7994	0.0088
550.9943	-0.003
551.1892	-0.0151
551.384	-0.0026
551.5788	-0.0027
551.7737	0.0013
551.9685	0.0049
552.1632	-0.001
552.358	0.0006
552.5528	0.0096
552.7475	-0.0071
552.9422	0.0001
553.1369	0.0045
553.3316	-0.0099
553.5263	0.0016
553.7209	-0.0043
553.9156	0.0081
554.1102	-0.0034
554.3048	0.0098
554.4994	0.0073
554.694	0.0018
554.8885	-0
555.0831	0.0137
555.2776	-0.0088
555.4721	-0.0076
555.6666	0.0081
555.8611	-0.0057
556.0555	-0.0052
556.25	0.0012
556.4444	-0.0081
556.6388	0.0018
556.8332	0.0027
557.0276	0.0118
557.222	-0.0017
557.4163	0.0051
557.6107	-0.0121
557.805	-0.0107
557.9993	-0.0069
558.1936	0.0077
558.3879	0.0106
558.5821	-0.0021
558.7764	0.0135
558.9706	0.0024
559.1648	0.0045
559.359	-0.0023
559.5532	-0.0118
559.7473	0.0024
559.9415	-0.0031
560.1356	-0.0013
560.3297	-0.0064
560.5238	0.0077
560.7179	-0.002
560.9119	0.0012
561.106	0.0029
561.3	-0.0036
561.494	0.007
561.688	0.0035
561.882	0.0021
562.076	0.0058
562.2699	0.0026
562.4639	0.0034
562.6578	0.0079
562.8517	-0.0023
563.0456	0.0018
563.2395	-0.0015
563.4333	-0.0006
563.6272	0.0095
563.821	0.0005
564.0148	-0.0068
564.2086	-0
564.4024	-0.0014
564.5961	-0.0033
564.7899	0.0025
564.9836	-0.0008
565.1773	0.0003
565.371	-0.0023
565.5647	-0.0066
565.7584	0.0044
565.952	-0.0098
566.1456	0.0012
566.3393	0.0114
566.5329	-0.0043
566.7264	-0.0003
566.92	0.0021
567.1136	-0.0011
567.3071	0.0001
567.5006	-0.0134
567.6941	0.0075
567.8876	-0.0005
568.0811	-0.0069
568.2745	-0.005
568.468	0.0044
568.6614	0.0028
568.8548	-0.0047
569.0482	-0.0002
569.2416	-0.0042
569.4349	0.002
569.6283	0.0052
569.8216	-0.0016
570.0149	-0.0007
570.2082	-0.0003
570.4015	0.0042
570.5947	-0.0069
570.788	0.0046
570.9812	-0.0045
571.1744	-0.0031
571.3676	-0.0097
571.5608	0.0022
571.754	-0.0002
571.9471	0.0036
572.1402	0.0022
572.3333	0.0039
572.5264	0.0042
572.7195	0.006
572.9126	-0.0005
573.1057	0.0022
573.2987	0.0002
573.4917	-0.0021
573.6847	0.0012
573.8777	0.0008
574.0707	-0.0029
574.2636	-0.0006
574.4566	-0.0019
574.6495	0.0045
574.8424	-0.0006
575.0353	-0.005
575.2281	-0.0006
575.421	0.001
575.6138	-0.0026
575.8067	-0.0002
575.9995	0.0013
576.1923	0.0053
576.385	-0.0015
576.5778	-0.003
576.7706	0.001
576.9633	-0.0006
577.156	0.0026
577.3487	-0.0005
577.5414	-0.0011
577.734	-0.0005
577.9267	-0.0036
578.1193	0.0025
578.3119	-0.004
578.5045	-0.002
578.6971	-0.0058
578.8897	-0.0031
579.0822	0.0038
579.2747	-0.0034
579.4673	-0.0012
579.6598	-0.0036
579.8522	-0.0003
580.0447	-0.0007
580.2372	0.003
580.4296	-0.0034
580.622	0.0039
580.8144	-0.0011
581.0068	-0.0008
581.1992	-0.0003
581.3915	-0.0004
581.5839	0.0057
581.7762	-0.0004
581.9685	-0
582.1608	0.0028
582.353	0.0001
582.5453	0.0007
582.7375	0.0016
582.9298	-0.0006
583.122	-0.0068
583.3142	0.0005
583.5063	-0.0014
583.6985	0.0029
583.8906	-0.0067
584.0827	-0.0015
584.2749	-0.0001
584.4669	0.0029
584.659	-0.0024
584.8511	-0.0016
585.0431	-0
585.2352	-0.0075
585.4272	-0.0001
585.6192	0.0002
585.8111	-0.0043
586.0031	0.0046
586.195	0.0027
586.387	-0.0007
586.5789	0.0026
586.7708	-0.0018
586.9627	0.0059
587.1545	0.0028
587.3464	0.0015
587.5382	-0.004
587.73	0.0045
587.9218	0.0013
588.1136	-0.0043
588.3053	-0.0025
588.4971	-0.0042
588.6888	0.0045
588.8805	0.0045
589.0722	0.0029
589.2639	-0.0052
589.4556	-0.0023
589.6472	-0.0003
589.8389	-0.004
590.0305	0.0014
590.2221	-0.0004
590.4137	-0.0106
590.6052	-0.0046
590.7968	0.0021
590.9883	0.0052
591.1798	-0.0034
591.3713	-0.0011
591.5628	-0.0047
591.7543	0.0028
591.9458	0.0052
592.1372	-0.0004
592.3286	-0.0055
592.52	0.0016
592.7114	-0.0031
592.9028	-0.0034
593.0941	-0.0036
593.2855	-0.0005
593.4768	0.0039
593.6681	-0.0036
593.8594	-0.0024
594.0506	0.0032
594.2419	-0.0063
594.4331	-0.0059
594.6244	-0.0007
594.8156	0.0015
595.0067	-0.0015
595.1979	-0.0025
595.3891	0.0002
595.5802	-0.0047
595.7713	0.002
595.9624	0.0032
596.1535	0.0004
596.3446	-0.0047
596.5357	-0.0028
596.7267	-0.0012
596.9177	-0.003
597.1087	0
597.2997	0.0069
597.4907	0.001
597.6817	0.003
597.8726	0.0026
598.0635	-0.0014
598.2544	-0.0031
598.4453	-0.0017
598.6362	-0.0001
598.827	0.0025
599.0179	0.0004
599.2087	0.0009
599.3995	0.002
599.5903	0.0013
599.7811	-0.0028
599.9718	-0.002
600.1626	-0.0006
600.3533	-0.0005
600.544	-0.0004
600.7347	-0.0012
600.9254	0.0045
601.116	-0.0068
601.3067	0.0036
601.4973	0.0051
601.6879	-0.0034
601.8785	-0.0013
602.0691	0.0008
602.2596	-0.0046
602.4502	-0.004
602.6407	0.005
602.8312	0.001
603.0217	0.0018
603.2122	0.0053
603.4027	0.0005
603.5931	-0.0006
603.7835	-0.0026
603.9739	0.0009
604.1643	0.0015
604.3547	0.0024
604.5451	-0.0034
604.7354	-0.0073
604.9257	-0.0002
605.116	0.0019
605.3063	-0.0025
605.4966	-0.0005
605.6869	-0.0018
605.8771	0.0011
606.0673	0.0025
606.2575	-0.0014
606.4477	0.0055
606.6379	-0.0063
606.8281	-0.0091
607.0182	0.0024
607.2083	-0.0017
607.3985	-0.0021
607.5885	-0.003
607.7786	0.0063
607.9687	-0.0044
608.1587	0.0047
608.3488	-0.0048
608.5388	-0
608.7288	-0.0053
608.9187	0.0096
609.1087	0.0026
609.2986	-0.0043
609.4886	0.0053
609.6785	-0.0054
609.8684	-0.0031
610.0582	0.0045
610.2481	-0.0062
610.4379	0.0041
610.6278	-0.0022
610.8176	-0.0027
611.0074	-0.007
611.1971	0.0055
611.3869	0.0055
611.5766	-0.0015
611.7664	0.0008
611.9561	0.0012
612.1458	-0.0072
612.3354	0.004
612.5251	-0.0046
612.7147	0.0014
612.9044	-0.0041
613.094	0.0016
613.2836	0.002
613.4731	-0.002
613.6627	-0.0004
613.8522	-0.0011
614.0417	0.0011
614.2313	-0.0063
614.4207	0.0026
614.6102	-0.0015
614.7997	-0.0061
614.9891	-0.0005
615.1785	-0.0052
615.3679	0.001
615.5573	-0.0029
615.7467	-0.0071
615.9361	-0.0126
616.1254	-0.0033
616.3147	0.0014
616.504	-0.0005
616.6933	0.0018
616.8826	0.0051
617.0718	-0.0134
617.2611	-0.0072
617.4503	-0.004
617.6395	0.0019
617.8287	0.0053
618.0179	-0.0077
618.207	-0.0025
618.3961	-0.0019
618.5853	0.0003
618.7744	0.0032
618.9634	0.0046
619.1525	-0.0044
619.3416	-0.0039
619.5306	-0.0012
619.7196	-0.0099
619.9086	0.0056
620.0976	0.0017
620.2866	0.0168
620.4755	0.0172
620.6645	0.0015
620.8534	-0.0055
621.0423	-0.0017
621.2312	-0.0005
621.42	-0.0019
621.6089	0.0008
621.7977	-0.0014
621.9865	0.0072
622.1753	0.0096
622.3641	-0.0156
622.5529	-0.0016
622.7416	-0.0085
622.9303	-0.0055
623.1191	-0.0013
623.3078	0.001
623.4964	-0.0129
623.6851	0.0096
623.8737	0.0051
624.0624	0.0061
624.251	0.0029
624.4396	-0.0035
624.6282	0.0023
624.8167	0.0097
625.0053	-0.0051
625.1938	-0.0061
625.3823	0.0035
625.5708	0.0024
625.7593	0.0004
625.9477	-0.0033
626.1362	-0.0189
626.3246	-0.0142
626.513	-0.0016
626.7014	-0.0057
626.8898	0.0053
627.0781	0.0106
627.2665	0.0119
627.4548	-0.0027
627.6431	-0.007
627.8314	-0.0008
628.0197	0.002
628.2079	-0.0084
628.3962	-0.0114
628.5844	0.0026
628.7726	-0.0093
628.9608	-0.0026
629.1489	0.0007
629.3371	0.0024
629.5252	0.0101
629.7134	0.0089
629.9015	-0.0043
630.0895	-0.0004
630.2776	-0.0032
630.4657	0.0096
630.6537	-0.0005
630.8417	0.0017
631.0297	-0.008
631.2177	-0.0018
631.4057	-0.0011
631.5936	-0.016
631.7815	-0.0051
631.9695	0.0201
632.1574	-0.0064
632.3452	0.0128
632.5331	-0.003
632.7209	-0.0061
632.9088	-0.0098
633.0966	-0.0017
633.2844	-0.009
633.4722	0.008
633.6599	-0.0076
633.8477	0.0137
634.0354	0.0093
634.2231	0.0285
634.4108	-0.0066
634.5985	0.0072
634.7861	-0.0037
634.9738	-0.0044
635.1614	0.0155
635.349	-0.0099
635.5366	-0.005
635.7242	-0
635.9117	0.01
636.0993	-0.0109
636.2868	-0.0035
636.4743	0.0166
636.6618	-0.0086
636.8492	0.0038
637.0367	0.0072
637.2241	0.0043
637.4115	-0.0004
637.5989	0.0043
637.7863	-0.0059
637.9737	0.0059
638.161	-0
638.3484	-0.0002
638.5357	0.0061
638.723	0.0036
638.9103	0.0064
639.0975	0.0173
639.2848	0.0175
639.472	-0.0214
639.6592	0.0011
639.8464	0.0046
640.0336	0.0204
640.2208	-0.0014
640.4079	0.01
640.595	-0.0006
640.7821	-0.0126
640.9692	-0.0191
641.1563	0.0032
641.3434	-0.0017
641.5304	0.0032
641.7174	0.0044
641.9044	-0.0064
642.0914	-0.0131
642.2784	0.0198
642.4653	0.005
642.6523	0.004
642.8392	0.0123
643.0261	0.0078
643.213	0.0058
643.3999	-0.0044
643.5867	-0.0022
643.7735	0.0038
643.9604	-0.0198
644.1472	-0.0073
644.3339	-0.0124
644.5207	-0.022
644.7075	0.0049
644.8942	0.0138
645.0809	-0.0012
645.2676	-0.0086
645.4543	0.0044
645.6409	0.0176
645.8276	-0.0208
646.0142	0.0124
646.2008	-0.0003
646.3874	0.0185
646.574	-0.0087
646.7605	-0.0064
646.9471	-0.0098
647.1336	-0.011
647.3201	0.0112
647.5066	-0.003
647.6931	0.0052
647.8795	0.0109
648.0659	-0.0008
648.2524	-0.0075
648.4388	0.0009
648.6252	-0.0156
648.8115	0.0154
648.9979	0.007
649.1842	-0.0154
649.3705	0.0036
649.5568	-0.0133
649.7431	0.0072
649.9294	-0.0005
650.1156	-0.022
650.3018	0.0032
650.488	-0.001
650.6742	0.0086
650.8604	-0.0033
651.0466	0.0096
651.2327	-0.0066
651.4188	-0.019
651.6049	-0.0063
651.791	0.023
651.9771	-0.0222
652.1632	-0.0075
652.3492	0.0077
652.5352	0.0014
652.7212	-0.0079
652.9072	0.0018
653.0932	-0.0078
653.2791	0.0127
653.465	-0.0215
653.651	0.0097
653.8369	0.0046
654.0227	0.0068
654.2086	-0.0147
654.3944	-0.018
654.5803	0.0063
654.7661	-0.0016
654.9519	-0.0037
655.1377	0.0001
655.3234	0.0001
655.5092	0.0001
655.6949	0.0001
655.8806	0.0001
656.0663	0.0001
656.2519	0.0001
656.4376	0.0001
656.6232	0.0001
656.8088	0.0001
656.9945	0.0001
657.18	0.0001
657.3656	0.0001
657.5511	0.0001
657.7367	0.0001
657.9222	0.0001
658.1077	0.0001
658.2932	0.0001
658.4786	0.0001
658.6641	0.0001
658.8495	0.0001
659.0349	0.0001
659.2203	0.0001
659.4057	0.0098
659.591	0.0384
659.7764	-0.0077
659.9617	-0.0087
660.147	-0.0141
660.3323	-0.007
660.5176	0.0022
660.7028	-0.0011
660.888	0.0055
661.0733	-0.0024
661.2585	0.0095
661.4436	0.0093
661.6288	0.0068
661.8139	0.0079
661.9991	-0.0042
662.1842	0.0113
662.3693	-0.0182
662.5544	-0.0038
662.7394	0.0254
662.9245	0.0111
663.1095	0.022
663.2945	-0.0079
663.4795	-0.0169
663.6644	-0.0108
663.8494	0.0063
664.0343	-0.004
664.2193	-0.0074
664.4042	-0.0285
664.589	-0.0106
664.7739	-0.0005
664.9587	-0.0074
665.1436	-0.0088
665.3284	-0.0025
665.5132	-0.0076
665.698	-0.0187
665.8827	-0.0218
666.0675	-0.0241
666.2522	0.0193
666.4369	-0.0253
666.6216	-0.0151
666.8063	0.0007
666.9909	0.0052
667.1756	-0.0052
667.3602	-0.0204
667.5448	0.0044
667.7294	0.0105
667.9139	-0.0126
668.0985	-0.0179
668.283	-0.0045
668.4675	-0.006
668.652	-0.0197
668.8365	-0.0182
669.0209	-0.0045
669.2054	0.0062
669.3898	-0.0013
669.5742	0.0102
669.7586	0.0103
669.943	0.0049
670.1273	0.0066
670.3117	0.0108
670.496	0.0144
670.6803	0.0057
670.8646	0.0132
671.0488	0.0029
671.2331	-0.0095
671.4173	0.0038
671.6015	-0.0004
671.7857	-0.0159
671.9699	0.0141
672.1541	0.0058
672.3382	0.0039
672.5223	-0.0026
672.7064	-0.0108
672.8905	0.0002
673.0746	-0.0182
673.2587	0.0078
673.4427	0.0005
673.6267	-0.0099
673.8107	-0.0233
673.9947	0.0015
674.1787	0.015
674.3626	-0.0023
674.5465	0.0198
674.7304	-0.0367
674.9143	0.025
675.0982	-0.0063
675.2821	0.0052
675.4659	-0.0046
675.6497	0.0174
675.8335	0.0067
676.0173	0.003
676.2011	0.0061
676.3849	0.0177
676.5686	0.0218
676.7523	-0.0069
676.936	-0.0219
677.1197	0.003
677.3034	0.0137
677.487	-0.0026
677.6706	-0.0083
677.8542	-0.0029
678.0378	-0.0092
678.2214	0.0005
678.405	0.0158
678.5885	0.0159
678.772	-0.0214
678.9555	-0
679.139	-0.0179
679.3225	-0.0075
679.5059	0.0066
679.6894	-0.0093
679.8728	-0.0118
680.0562	0.0055
680.2395	0.007
680.4229	-0.0063
680.6062	-0.0087
680.7896	0.0111
680.9729	-0.001
681.1562	-0.0057
681.3394	0.0092
681.5227	-0.0109
681.7059	-0.0232
681.8891	-0.0054
682.0723	-0.0127
682.2555	0.0068
682.4387	0.034
682.6218	-0.0071
682.805	0.0006
682.9881	0.018
683.1712	0.0127
683.3542	-0.0069
683.5373	0.0144
683.7203	0.0123
683.9034	0.0075
684.0864	-0.0032
684.2694	-0.0112
684.4523	0.0057
684.6353	-0
684.8182	0.0002
685.0011	-0.011
685.184	0.0101
685.3669	0.001
685.5498	0.0123
685.7326	-0.0097
685.9154	-0.0032
686.0982	0.0004
686.281	-0.0077
686.4638	0.0113
686.6465	-0.0044
686.8293	0.0084
687.012	-0.0168
687.1947	0.0013
687.3774	0.0054
687.56	0.0114
687.7427	-0.0027
687.9253	-0.0011
688.1079	0.0218
688.2905	0.0117
688.4731	0.0352
688.6556	0.0078
688.8382	0.0145
689.0207	-0.0074
689.2032	0.0024
689.3857	-0.0094
689.5681	-0.0082
689.7506	-0.0112
689.933	0.0134
690.1154	-0.0066
690.2978	-0.0176
690.4802	-0.0128
690.6626	-0.0031
690.8449	-0.0263
691.0272	-0.0266
691.2095	-0.0024
691.3918	-0.0091
691.5741	0.0051
691.7563	0.0189
691.9386	-0.0039
692.1208	-0.0274
692.303	-0.001
692.4852	0.0089
692.6673	-0.013
692.8495	-0.0104
693.0316	-0.0043
693.2137	0.0297
693.3958	0.0163
693.5778	-0.0194
693.7599	-0.0383
693.9419	-0.005
694.1239	-0.0047
694.3059	-0.0269
694.4879	-0.002
694.6699	0.0042
694.8518	0.0047
695.0337	-0.0137
695.2157	-0.03
695.3975	-0.0161
695.5794	-0.0182
695.7613	0.0075
695.9431	-0.0016
696.1249	-0.0014
696.3067	0.0021
696.4885	-0.0054
696.6703	0.0033
696.852	-0.0167
697.0337	-0.0092
697.2154	0.0066
697.3971	0.0103
697.5788	0.0085
697.7605	0.0012
697.9421	-0.0118
698.1237	0.0077
698.3053	-0.0165
698.4869	0.0024
698.6685	0.0023
698.85	-0.0026
699.0315	-0.0127
699.213	0.0093
699.3945	0.006
699.576	0.0036
699.7575	0.0019
699.9389	-0.0214
700.1203	-0.0013
700.3017	-0.0021
700.4831	0.0101
700.6645	-0.0016
700.8458	-0.0054
701.0271	-0.0246
701.2084	-0.0216
701.3897	-0.0027
701.571	0.0007
701.7523	-0.007
701.9335	0.0078
702.1147	-0.0063
702.2959	0.0125
702.4771	0.0135
702.6583	-0.0111
702.8394	-0.0053
703.0205	-0.0035
703.2016	0.0151
703.3827	0.0303
703.5638	-0.002
703.7449	-0.0319
703.9259	-0.0026
704.1069	0.0066
704.2879	0.0015
704.4689	0.0298
704.6499	-0.0245
704.8308	0.0044
705.0117	-0.0367
705.1927	0.0166
705.3735	0.0073
705.5544	-0.0379
705.7353	-0.0142
705.9161	0.0099
706.0969	0.003
706.2777	0.0201
706.4585	-0.0063
706.6393	0.0104
706.82	-0.0022
707.0007	-0.0068
707.1815	0.0181
707.3621	0.0029
707.5428	0.0105
707.7235	0.0201
707.9041	-0.0189
708.0847	-0.0191
708.2653	-0.0155
708.4459	0.0015
708.6265	-0.0425
708.807	-0.0059
708.9875	-0.0022
709.168	-0.0081
709.3485	-0.0071
709.529	0.0237
709.7095	-0.0141
709.8899	0.0206
710.0703	0.0023
710.2507	-0.007
710.4311	0.0149
710.6115	-0.0155
710.7918	0.0053
710.9721	-0.0132
711.1524	-0.0143
711.3327	-0.0162
711.513	-0.0247
711.6932	-0.0108
711.8735	-0.0038
712.0537	0.0061
712.2339	-0.0021
712.4141	0.0122
712.5942	0.0065
712.7744	0.0087
712.9545	0.0143
713.1346	0.0195
713.3147	-0.002
713.4947	0.0076
713.6748	-0.0039
713.8548	0.0014
714.0348	-0.0081
714.2148	-0.0003
714.3948	0.005
714.5748	0.0028
714.7547	0.0118
714.9346	0.0101
715.1145	-0.0084
715.2944	0.0165
715.4743	-0.0116
715.6541	-0.0296
715.834	0.0262
716.0138	0.0171
716.1936	-0.0354
716.3733	-0.0041
716.5531	0.0037
716.7328	-0.0169
716.9126	-0.0373
717.0923	0.0337
717.2719	-0.0066
717.4516	-0.0134
717.6312	-0.011
717.8109	0.0075
717.9905	-0.0026
718.1701	-0.0138
718.3496	0.0185
718.5292	-0.0081
718.7087	0.0181
718.8882	0.0268
719.0677	-0.0184
719.2472	0.001
719.4267	-0.0191
719.6061	-0.0167
719.7856	0.0008
719.965	0.0257
720.1443	-0.011
720.3237	0.0061
720.5031	-0.0045
720.6824	-0.0065
720.8617	0.0215
721.041	0.0127
721.2203	0.0243
721.3995	0.0129
721.5788	0.0016
721.758	-0.0108
721.9372	-0.0045
722.1164	-0.0009
722.2956	0.0316
722.4747	0.0089
722.6538	0.0092
722.8329	-0.0395
723.012	0.0107
723.1911	0.0255
723.3702	-0.0323
723.5492	-0.0192
723.7282	0.0082
723.9072	-0.0396
724.0862	-0.0198
724.2652	-0.017
724.4441	-0.0097
724.623	-0.0121
724.8019	-0.013
724.9808	-0.005
725.1597	0.0146
725.3385	0.0171
725.5174	0.0287
725.6962	0.0033
725.875	-0.0091
726.0538	-0.0092
726.2325	0.0072
726.4112	0.0097
726.59	-0.0116
726.7687	0.0163
726.9474	-0.0071
727.126	-0
727.3047	0.0102
727.4833	0.0158
727.6619	0.0047
727.8405	-0.0096
728.0191	-0.0279
728.1976	-0.0202
728.3762	-0.0259
728.5547	-0.009
728.7332	-0.0064
728.9116	-0.0431
729.0901	0.0178
729.2686	-0.0106
729.447	-0.0091
729.6254	0.0034
729.8038	-0.001
729.9821	0.0174
730.1605	-0.0116
730.3388	-0.0076
730.5171	-0.0107
730.6954	0.0232
730.8737	0.0215
731.0519	-0.0003
731.2302	-0.0147
731.4084	0.0079
731.5866	-0.0173
731.7648	-0.0105
731.9429	-0.004
732.1211	0.0033
732.2992	-0.0255
732.4773	-0.0178
732.6554	0.0228
732.8335	-0.0093
733.0115	0.0133
733.1896	-0.0134
733.3676	-0.0015
733.5456	-0.0076
733.7235	0.0083
733.9015	-0.0045
734.0794	0.0106
734.2574	-0.0031
734.4353	-0.0045
734.6131	0.0073
734.791	0.0067
734.9689	-0.0129
735.1467	-0.0039
735.3245	0.0044
735.5023	-0.0008
735.68	-0.0066
735.8578	-0.0014
736.0355	0.0124
736.2132	-0.009
736.3909	-0.0156
736.5686	0.0033
736.7463	-0.0028
736.9239	0.0035
737.1015	0.0046
737.2791	-0
737.4567	-0.0184
737.6343	0.0047
737.8118	-0.0138
737.9894	0.0181
738.1669	0.0013
738.3444	0.0003
738.5218	0.0155
738.6993	-0.0049
738.8767	-0.0034
739.0541	-0
739.2315	-0.0011
739.4089	0.0027
739.5863	-0.0145
739.7636	0.001
739.9409	-0.0285
740.1182	-0.0132
740.2955	-0.0332
740.4728	0.0103
740.65	-0.013
740.8272	-0.0086
741.0044	0.0035
741.1816	0.0225
741.3588	0.0198
741.5359	-0.0107
741.7131	0.0219
741.8902	-0.0171
742.0673	-0.002
742.2444	0.0004
742.4214	0.0184
742.5985	0.0045
742.7755	-0.0223
742.9525	0.0276
743.1295	-0.0239
743.3064	0.0196
743.4834	0.0072
743.6603	0.0005
743.8372	-0.009
744.0141	0.0516
744.191	-0
744.3678	0.0189
744.5446	0.0289
744.7215	-0.0151
744.8982	0.0233
745.075	0.0184
745.2518	-0.0067
745.4285	-0.0107
745.6052	0.0202
745.7819	0.0087
745.9586	0.0226
746.1353	0.0128
746.3119	-0.0271
746.4885	-0.0116
746.6651	-0.0472
746.8417	-0.0098
747.0183	-0.0185
747.1948	-0.0169
747.3714	-0.0015
747.5479	-0.0064
747.7244	-0.0565
747.9008	0.0319
748.0773	0.0141
748.2537	0.0407
748.4301	0.0373
748.6065	-0.032
748.7829	0.011
748.9593	-0.0046
749.1356	0.0125
749.3119	-0.0303
749.4882	-0.0192
749.6645	0.0122
749.8408	-0.0133
750.017	-0.0086
750.1933	0.0327
750.3695	0.0176
750.5457	-0.0194
750.7218	0.018
750.898	-0.0048
751.0741	0.0087
751.2502	-0.0016
751.4263	-0.0103
751.6024	0.0099
751.7784	-0.035
751.9545	-0.027
752.1305	-0.0004
752.3065	0.0108
752.4825	-0.015
752.6584	-0.0196
752.8344	0.0066
753.0103	0.0007
753.1862	-0.0252
753.3621	-0.0101
753.5379	-0.0307
753.7138	-0.0276
753.8896	0.0185
754.0654	0.01
754.2412	0.0143
754.417	0.0039
754.5927	-0.0195
754.7685	-0.0212
754.9442	-0.0074
755.1199	-0.012
755.2956	0.0288
755.4712	-0.0152
755.6469	-0.0036
755.8225	0.0128
755.9981	0.0107
756.1736	0.0146
756.3492	-0.0138
756.5248	-0.0111
756.7003	0.0004
756.8758	-0.0135
757.0513	-0.0044
757.2267	-0.0168
757.4022	0.0034
757.5776	-0.0321
757.753	-0.0062
757.9284	-0.0059
758.1038	-0.0054
758.2791	0.0006
758.4545	-0.0119
758.6298	-0.0154
758.8051	-0.017
758.9803	-0.0118
759.1556	-0.0279
759.3308	-0.0176
759.506	0.0009
759.6812	-0.002
759.8564	-0.0177
760.0316	-0.0014
760.2067	-0.0143
760.3819	0.0037
760.557	-0.0011
760.732	0.0131
760.9071	0.0119
761.0821	-0.0208
761.2572	0.0042
761.4322	-0.0156
761.6072	0.0125
761.7821	-0.0044
761.9571	-0.0027
762.132	-0.002
762.3069	-0.0161
762.4818	0.0127
762.6567	0.0396
762.8316	-0.0097
763.0064	-0.0273
763.1812	-0.0093
763.356	0.0069
763.5308	-0.0078
763.7055	-0.0156
763.8803	0.0205
764.055	0.0028
764.2297	-0.0086
764.4044	-0.0102
764.579	-0.0249
764.7537	0.0007
764.9283	-0.0239
765.1029	0.0221
765.2775	-0.0276
765.4521	-0.0099
765.6266	-0.0137
765.8011	0.0033
765.9756	0.0037
766.1501	0.0174
766.3246	0.0014
766.4991	-0.0248
766.6735	0.0177
766.8479	-0.006
767.0223	0.0105
767.1967	-0.0553
767.371	-0.0154
767.5454	0.0097
767.7197	-0.0075
767.894	-0.0038
768.0683	-0.0163
768.2425	-0.0033
768.4168	0.0283
768.591	0.0229
768.7652	0.0182
768.9394	0.0012
769.1135	-0.0087
769.2877	0.012
769.4618	0.0025
769.6359	0.0355
769.81	-0.0201
769.984	-0.009
770.1581	0.0068
770.3321	-0.0213
770.5061	0.0209
770.6801	0.0276
770.8541	-0.0289
771.028	-0.0214
771.202	-0.0377
771.3759	0.0166
771.5498	-0.007
771.7236	-0.0093
771.8975	-0.0323
772.0713	0.0166
772.2451	-0.0141
772.4189	-0.0264
772.5927	-0.012
772.7665	0.0244
772.9402	0.0169
773.1139	0.0342
773.2876	-0.0028
773.4613	0.0023
773.635	-0.0085
773.8086	-0.0138
773.9822	0.0115
774.1558	-0.0026
774.3294	-0.0414
774.503	0.027
774.6765	-0.0088
774.8501	0.0169
775.0236	0.0058
775.1971	-0.0178
775.3705	-0.0378
775.544	0.0294
775.7174	0.0109
775.8908	0.0322
776.0642	0.0454
776.2376	-0.0437
776.4109	0.0678
776.5843	-0.0279
776.7576	0.0077
776.9309	0.0369
777.1041	-0.0159
777.2774	0.0249
777.4506	-0.0308
777.6238	-0.0093
777.797	-0.0016
777.9702	0.0421
778.1434	0.005
778.3165	0.0073
778.4896	-0.053
778.6627	0.0534
778.8358	-0.0083
779.0089	0.0035
779.1819	0.0248
779.3549	0.0378
779.5279	0.0151
779.7009	0.0169
779.8739	0.0039
780.0468	0.0133
780.2197	-0.0255
780.3926	-0.0163
780.5655	-0.03
780.7384	-0.0108
780.9112	-0.0068
781.0841	-0.005
781.2569	-0.0127
781.4297	0.0206
781.6024	0.0093
781.7752	-0.0444
781.9479	-0.0307
782.1206	0.001
782.2933	-0.0226
782.466	-0.0209
782.6386	-0.0189
782.8113	-0.003
782.9839	0.0277
783.1565	-0.0245
783.329	0.0051
783.5016	0.0177
783.6741	0.025
783.8466	-0.0478
784.0191	-0.0122
784.1916	-0.0242
784.3641	-0.005
784.5365	0.049
784.7089	0.0325
784.8813	-0.0146
785.0537	0.0014
785.2261	0.0038
785.3984	-0.0346
785.5707	0.0765
785.743	-0.0232
785.9153	0.0233
786.0876	-0.0575
786.2598	-0.0171
786.432	-0.0299
786.6042	0.0342
786.7764	0.0079
786.9486	0.0053
787.1207	0.0195
787.2928	-0.0231
787.4649	-0.0267
787.637	0.0264
787.8091	-0.0063
787.9811	0.0005
788.1532	-0.003
788.3252	-0.0134
788.4972	-0.0334
788.6691	0.0225
788.8411	-0.0066
789.013	-0.0193
789.1849	-0.0281
789.3568	-0.0109
789.5287	-0.008
789.7005	0.0605
789.8723	-0.0417
790.0442	-0.0543
790.2159	0.0146
790.3877	0.0287
790.5595	0.0105
790.7312	-0.0442
790.9029	0.0239
791.0746	0.0278
791.2463	-0.0226
791.4179	-0.0546
791.5896	0.0089
791.7612	-0.055
791.9328	-0.0027
792.1044	-0.0288
792.2759	-0.0154
792.4474	-0.042
792.619	0.0784
792.7905	-0.0061
792.9619	-0.0023
793.1334	0.0035
793.3048	0.0172
793.4762	-0.0603
793.6476	-0.0371
793.819	-0.024
793.9904	-0.0132
794.1617	-0.0185
794.333	-0.0291
794.5043	-0.02
794.6756	0.0141
794.8469	0.0167
795.0181	0.0019
795.1893	-0.0244
795.3605	-0.0001
795.5317	-0.0008
795.7029	-0.0244
795.874	-0.0365
796.0452	-0.0216
796.2163	0.0647
796.3873	0.033
796.5584	0.0452
796.7294	-0.0617
796.9005	-0.0652
797.0715	0.0559
797.2425	-0.0098
797.4134	0.0378
797.5844	0.0633
797.7553	-0.0179
797.9262	-0.0088
798.0971	-0.0159
798.2679	0.0246
798.4388	-0.0385
798.6096	-0.026
798.7804	-0.0103
798.9512	0.0207
799.122	0.1112
799.2927	-0.0305
799.4635	0.0823
799.6342	0.0176
799.8049	0.0526
799.9755	-0.0327
800.1462	-0.0041
800.3168	-0.0016
800.4874	-0.0001
800.658	0.0807
800.8286	-0.0053
800.9991	0.1391
801.1696	-0.0177
801.3402	-0.0349
801.5106	0.0309
801.6811	-0.0547
801.8516	0.0212
802.022	-0.0002
802.1924	-0.0187
802.3628	0.0069
802.5332	-0.0476
802.7035	-0.0289
802.8739	0.1073
803.0442	0.0325
803.2145	-0.0074
803.3847	0.0257
803.555	0.0162
803.7252	0.0203
803.8954	0.0793
804.0656	-0.0207
804.2358	-0.0137
804.4059	0.079
804.5761	-0.0001
804.7462	-0.0167
804.9163	-0.0824
805.0864	-0.0153
805.2564	-0.0808
805.4264	-0.0278
805.5965	0.0321
805.7665	0.0316
805.9364	-0.0458
806.1064	-0.0506
806.2763	0.0157
806.4462	0.0209
806.6161	0.0066
806.786	0.0629
806.9559	0.0123
807.1257	-0.0189
807.2955	-0.0053
807.4653	0.0108
807.6351	-0.0708
807.8048	0.0107
807.9746	-0.0386
808.1443	0.0212
808.314	0.0022
808.4837	-0.0412
808.6533	0.0256
808.8229	-0.073
808.9926	0.0044
809.1622	0.0192
809.3317	-0.0367
809.5013	0.0366
809.6708	-0.0121
809.8403	0.0144
810.0098	0.0551
810.1793	0.0055
810.3488	0.0185
810.5182	-0.0591
810.6876	0.0077
810.857	-0.082
811.0264	0.0024
811.1958	0.1142
811.3651	-0.0823
811.5344	0.0527
811.7037	-0.0085
811.873	0.1133
812.0422	0.0117
812.2115	0.0116
812.3807	-0.0096
812.5499	0.0468
812.7191	-0.0386
812.8882	0.0383
813.0574	-0.1564
813.2265	-0.0851
813.3956	0.0561
813.5646	-0.0575
813.7337	-0.0592
813.9027	0.0057
814.0718	-0.0504
814.2407	-0.0252
814.4097	-0.0384
814.5787	0.0563
814.7476	0.0338
814.9165	0.045
815.0854	0.0442
815.2543	-0.078
815.4232	-0.0206
815.592	0.0865
815.7608	0.1309
815.9296	0.0338
816.0984	-0.0628
816.2671	0.0483
816.4359	0.1781
816.6046	0.0342
816.7733	0.1511
816.942	0.072
817.1106	-0.1619
817.2793	-0.0116
817.4479	-0.063
817.6165	0.0084
817.785	0.0555
817.9536	0.025
818.1221	0.0408
818.2906	-0.0236
818.4591	0.1172
818.6276	0.0098
818.7961	0.0232
818.9645	0.0495
819.1329	0.1691
819.3013	0.0209
819.4697	0.2427
819.638	0.1097
819.8064	-0.1502
819.9747	0.0664
820.143	-0.0517
820.3113	0.0181
820.4795	-0.0156
820.6477	-0.0887
820.816	-0.051
820.9842	-0.0803
821.1523	0.1042
821.3205	0.0021
821.4886	0.0344
821.6567	0.1061
821.8248	-0.0088
821.9929	-0.0292
822.1609	0.0649
822.329	-0.0002
822.497	-0.0596
822.665	0.049
822.833	-0.0136
823.0009	-0.1087
823.1688	-0.0286
823.3367	-0.1469
823.5046	0.1327
823.6725	0.1083
823.8404	0.473
824.0082	0.1448
824.176	0.0546
824.3438	0.154
824.5116	0.0218
824.6793	0.0858
824.847	0.1584
825.0147	0.1069
825.1824	0.1222
825.3501	0.1577
825.5177	-0.0087
825.6854	0.1283
825.853	0.0069
826.0206	-0.0661
826.1881	-0.0043
826.3557	0.1405
826.5232	0.0271
826.6907	0.0498
826.8582	-0.0605
827.0257	-0.0802
827.1931	0.0971
827.3605	-0.0861
827.528	0.0626
827.6953	0.1886
827.8627	0.1104
828.03	0.0833
828.1974	-0.0165
828.3647	0.2039
828.532	0.1767
828.6992	-0.0517
828.8665	0.1726
829.0337	0.027
829.2009	0.1491
829.3681	0.1048
829.5352	-0.0629
829.7024	-0.0351
829.8695	0.0612
830.0366	0.1739
830.2037	0.1461
830.3707	-0.0643
830.5378	0.0905
830.7048	-0.1841
830.8718	0.1378
831.0388	0.086
831.2057	0.574
831.3727	0.7511
831.5396	-0.1555
831.7065	0.2532
831.8734	-0.3623
832.0402	0.0366
832.2071	-0.1672
832.3739	0.3107
832.5407	0.7428
832.7075	0.2587
832.8742	0.8443
833.041	-0.0006
833.2077	-0.1977
833.3744	0.1951
833.541	-0.1759
833.7077	0.0757
833.8743	0.1772
834.0409	0.2055
834.2075	0.0859
834.3741	0.0162
834.5407	-0.1612
834.7072	0.0078
834.8737	0.1255
835.0402	-0.1523
835.2067	-0.0004
835.3731	-0.0737
835.5395	0.0174
835.706	0.1915
835.8723	-0.0748
836.0387	0.3779
836.2051	0.2775
836.3714	0.0311
836.5377	-0.2051
836.704	0.21
836.8703	0.231
837.0365	-0.1312
837.2027	0.4596
837.3689	0.1048
837.5351	0.0562
837.7013	-0.1817
837.8674	-0
838.0335	0.063
838.1997	0.263
838.3657	-0.109
838.5318	0.2796
838.6978	-0
838.8639	0.8027
839.0299	0.2448
839.1958	0.0049
839.3618	-0
839.5277	-0.3684
839.6937	-0.6038
839.8596	0.4945
840.0254	0.542
840.1913	0.1374
840.3571	-0.0862
840.523	0.355
840.6888	-0.0072
840.8545	-0.3799
841.0203	-0.0832
841.186	0.0693
841.3517	0.0723
841.5174	0.2416
841.6831	0.3084
841.8488	0.2155
842.0144	0.0376
842.18	-0.2403
842.3456	-0
842.5112	0.247
842.6767	-0.0601
842.8422	0.1058
843.0077	0.743
843.1732	-0.244
843.3387	-0.3171
843.5042	-0
843.6696	-0.4384
843.835	-0.0533
844.0004	0.3048
844.1657	-0.0571
844.3311	-0
844.4964	0.957
844.6617	-0
844.827	1.5931
844.9923	0.4955
845.1575	-0
845.3227	-0.1646
845.4879	1.0188
845.6531	-0.3154
845.8183	0.7511
845.9834	0.0512
846.1485	-0.3864
846.3136	0.3375
846.4787	-0
846.6438	0.6174
846.8088	-1.252
846.9738	-0
847.1388	0.2859
847.3038	0.4436
847.4687	-1.2107
847.6337	0.0757
847.7986	0.2293
847.9635	0.6011
848.1284	-0
848.2932	0.7654
848.458	0.0283
848.6228	0.4405
848.7876	-0.0533
848.9524	-0.1998
849.1172	0.4118
849.2819	-0
849.4466	0.1275
849.6113	-0
849.7759	0.5599
849.9406	0.349
850.1052	-0.5045
850.2698	-0
850.4344	0.1481
850.599	0.1153
850.7635	-0
850.928	0.8663
851.0925	-0.0355
851.257	-0
851.4215	-0.2085
851.5859	0.1624
851.7503	-0.1607
851.9147	-1.5823
852.0791	-0.4077
852.2434	0.1263
852.4078	0.1582
852.5721	0.0229
852.7364	0.7936
852.9007	-0.1796
853.0649	0.2571
853.2291	0.263
853.3934	0.7806
853.5575	-0.3356
853.7217	0.7384
853.8859	-0.0696
854.05	-0.9457
854.2141	-0
854.3782	1.3869
854.5423	0.6709
854.7063	-0.0824
854.8703	0.3666
855.0343	0.0651
855.1983	-0.1536
855.3623	0.2821
855.5262	-0
855.6901	0.1679
855.854	-0.0704
856.0179	-0
856.1818	-0
856.3456	2.1327
856.5094	-0
856.6732	-0.3527
856.837	0.5217
857.0008	-0.1829
857.1645	-0.1085
857.3282	0.0364
857.4919	0.3417
857.6556	0.6742
857.8192	-0.2305
857.9828	-0.1487
858.1465	0.7327
858.31	-0
858.4736	0.0151
858.6372	0.6476
858.8007	-0.9341
858.9642	1.3599
859.1277	-0.7199
859.2911	0.0859
859.4546	0.4542
859.618	0.4368
859.7814	-0
859.9448	-0
860.1081	-0.727
860.2715	-0
860.4348	0.4561
860.5981	-0
860.7614	-0.0738
860.9246	-0.045
861.0879	0.517
861.2511	0.6553
861.4143	0.8202
861.5774	0.6964
861.7406	-0.1345
861.9037	-0
862.0668	0.1148
862.2299	-1.8884
862.393	-0
862.556	-0
862.7191	-0.0506
862.8821	0.0615
863.0451	0.0646
863.208	1.0289
863.371	-0
863.5339	0.1387
863.6968	-0
863.8597	-0
864.0225	-0.6677
864.1854	-0.1581
864.3482	0.6006
864.511	0.0544
864.6737	-0
864.8365	0.5513
864.9992	-0.5445
865.1619	-0.0529
865.3246	-0.3029
865.4873	-0.5024
865.65	-0.2897
865.8126	-0
865.9752	-0.3081
866.1378	-0.756
866.3004	-0
866.4629	-0.0489
866.6254	-0.5103
866.7879	-0.0904
866.9504	-0
867.1129	0.2302
867.2753	-0.2354
867.4377	0.2609
867.6001	0.0753
867.7625	0.1964
867.9249	-0.0795
868.0872	0.1459
868.2495	-0
868.4118	0.4596
868.5741	-0
868.7363	-0
868.8986	-0.567
869.0608	1.2147
869.223	-0
869.3851	-0
869.5473	-1.323
869.7094	0.0252
869.8715	0.2061
870.0336	0.1082
870.1957	-0
870.3577	0.3705
870.5197	0.3254
870.6817	-0
870.8437	0.2148
871.0057	-0
871.1676	0.1971
871.3295	-0
871.4914	-0.3623
871.6533	0.2769
871.8151	-0.9593
871.977	0.7584
872.1388	-0
872.3006	0.44
872.4623	-0.1249
872.6241	-0
872.7858	0.3522
872.9475	-0
873.1092	0.1932
873.2709	0.4148
873.4325	-0
873.5941	-0
873.7557	-0
873.9173	-0.8813
874.0789	0.5586
874.2404	-0.451
874.4019	-0.0987
874.5634	0.8439
874.7249	-0
874.8863	-0.1937
875.0478	1.4399
875.2092	-0
875.3706	-0.3345
875.5319	-0
875.6933	-0
875.8546	-0
876.0159	0.2511
876.1772	-0
876.3385	-0
876.4997	0.2014
876.6609	-0
876.8221	-0.1043
876.9833	0.1814
877.1445	0.2006
877.3056	0.8794
877.4667	-0
877.6278	-0
877.7889	-0.1164
877.9499	-0.2267
878.111	0.0067
878.272	-0
878.433	-0.2985
878.5939	0.1223
878.7549	-0
878.9158	-0
879.0767	-0.2981
879.2376	-0.5286
879.3984	-0
879.5593	-0.0425
879.7201	-0.002
879.8809	-0.0021
880.0417	0.0492
880.2024	0.0524
880.3632	0.139
880.5239	1.8618
880.6846	-0.2727
880.8452	0.1598
881.0059	-0
881.1665	0.5099
881.3271	-0.1994
881.4877	0.0223
881.6483	-1.3199
881.8088	-0.0206
881.9693	0.3401
882.1298	0.3401
882.2903	0.3401
