Data from D4ACN5uM480nmA_Absorbance_12-07-59-937.txt Node
Date: Fri Feb 21 12:07:59 GMT 2025
User: LASERRRRR
Spectrometer: FLMT03099
Trigger mode: 0
Integration Time (sec): 1.500000E-2
Scans to average: 1
Electric dark correction enabled: true
Nonlinearity correction enabled: false
Boxcar width: 0
XAxis mode: Wavelengths
Number of Pixels in Spectrum: 3648
>>>>>Begin Spectral Data<<<<<
179.3399	-0.1901
179.5586	-0.1901
179.7771	-0.1901
179.9957	-0.0873
180.2143	-0.2297
180.4329	-0
180.6514	-0.2321
180.8699	-0
181.0885	-0.2349
181.307	0.0883
181.5255	0.1474
181.744	1.2368
181.9625	0.3839
182.181	-0
182.3994	-0
182.6179	0.0859
182.8363	-0
183.0547	-0
183.2732	0.4101
183.4916	0.344
183.71	0.3142
183.9284	0.1596
184.1467	0.1704
184.3651	0.2186
184.5835	0.0918
184.8018	0.2554
185.0201	0.167
185.2385	0.2966
185.4568	0.317
185.6751	0.1219
185.8934	0.3572
186.1117	0.1059
186.3299	0.364
186.5482	-0.0076
186.7664	0.2478
186.9847	0.1727
187.2029	0.1251
187.4211	0.2642
187.6393	0.1596
187.8575	-0.035
188.0757	0.2223
188.2939	0.2513
188.512	0.158
188.7302	0.0528
188.9483	0.0833
189.1665	0.4191
189.3846	0.205
189.6027	0.1121
189.8208	0.2356
190.0389	0.2186
190.257	0.125
190.475	0.2302
190.6931	0.0613
190.9111	0.3522
191.1292	0.2567
191.3472	0.2578
191.5652	0.3495
191.7832	0.3698
192.0012	0.4048
192.2192	0.2205
192.4371	0.4269
192.6551	0.3027
192.873	0.2329
193.091	0.5736
193.3089	0.1944
193.5268	0.4561
193.7447	0.3619
193.9626	0.3228
194.1805	0.2313
194.3984	0.4552
194.6162	0.3213
194.8341	0.3297
195.0519	0.4605
195.2697	0.5141
195.4875	0.6934
195.7054	0.4882
195.9231	0.4025
196.1409	0.5808
196.3587	0.6793
196.5765	0.4737
196.7942	0.6592
197.012	0.499
197.2297	0.4588
197.4474	0.6041
197.6651	0.5538
197.8828	0.5654
198.1005	0.5969
198.3182	0.5921
198.5358	0.4477
198.7535	0.5602
198.9711	0.5489
199.1888	0.6374
199.4064	0.5131
199.624	0.6452
199.8416	0.5382
200.0592	0.5426
200.2767	0.5141
200.4943	0.5885
200.7119	0.5537
200.9294	0.5637
201.1469	0.6222
201.3645	0.6486
201.582	0.4875
201.7995	0.6404
202.017	0.5879
202.2344	0.5286
202.4519	0.5187
202.6694	0.5545
202.8868	0.5584
203.1042	0.5442
203.3217	0.485
203.5391	0.5018
203.7565	0.5024
203.9739	0.5298
204.1913	0.5701
204.4086	0.5208
204.626	0.4792
204.8433	0.4722
205.0607	0.4926
205.278	0.5018
205.4953	0.4981
205.7126	0.4877
205.9299	0.4262
206.1472	0.5161
206.3644	0.4852
206.5817	0.4902
206.7989	0.4651
207.0162	0.473
207.2334	0.432
207.4506	0.4045
207.6678	0.451
207.885	0.479
208.1022	0.429
208.3194	0.4126
208.5365	0.4597
208.7537	0.4213
208.9708	0.4307
209.1879	0.4003
209.405	0.4118
209.6222	0.4064
209.8392	0.4204
210.0563	0.437
210.2734	0.3901
210.4905	0.4242
210.7075	0.4387
210.9245	0.4413
211.1416	0.4141
211.3586	0.4177
211.5756	0.4335
211.7926	0.4097
212.0096	0.4151
212.2265	0.3965
212.4435	0.438
212.6604	0.4149
212.8774	0.4042
213.0943	0.4085
213.3112	0.3936
213.5281	0.4109
213.745	0.4022
213.9619	0.3943
214.1788	0.4117
214.3956	0.4034
214.6125	0.4104
214.8293	0.4093
215.0461	0.4319
215.2629	0.4031
215.4798	0.3855
215.6965	0.385
215.9133	0.4088
216.1301	0.406
216.3469	0.3983
216.5636	0.412
216.7803	0.4065
216.9971	0.4288
217.2138	0.4069
217.4305	0.4021
217.6472	0.4455
217.8639	0.4056
218.0805	0.4196
218.2972	0.3981
218.5138	0.4395
218.7305	0.4268
218.9471	0.423
219.1637	0.432
219.3803	0.4012
219.5969	0.4192
219.8135	0.4193
220.0301	0.4142
220.2466	0.4449
220.4632	0.4158
220.6797	0.4253
220.8962	0.4316
221.1127	0.4349
221.3292	0.4331
221.5457	0.4134
221.7622	0.4465
221.9787	0.4521
222.1951	0.4534
222.4116	0.4335
222.628	0.4373
222.8444	0.4427
223.0608	0.4238
223.2772	0.4521
223.4936	0.4426
223.71	0.4478
223.9264	0.4406
224.1427	0.4501
224.3591	0.4693
224.5754	0.4479
224.7917	0.4521
225.008	0.4584
225.2243	0.462
225.4406	0.46
225.6569	0.4546
225.8732	0.4591
226.0894	0.4656
226.3057	0.4438
226.5219	0.4673
226.7381	0.4742
226.9543	0.4716
227.1705	0.4645
227.3867	0.4799
227.6029	0.4632
227.8191	0.4756
228.0352	0.4883
228.2513	0.4922
228.4675	0.4862
228.6836	0.491
228.8997	0.5003
229.1158	0.4798
229.3319	0.498
229.548	0.4804
229.764	0.5021
229.9801	0.5071
230.1961	0.5064
230.4121	0.5082
230.6282	0.5069
230.8442	0.5127
231.0602	0.5246
231.2761	0.5232
231.4921	0.5177
231.7081	0.5186
231.924	0.5204
232.14	0.5263
232.3559	0.528
232.5718	0.525
232.7877	0.5457
233.0036	0.507
233.2195	0.5385
233.4353	0.5391
233.6512	0.5222
233.867	0.5276
234.0829	0.5333
234.2987	0.5293
234.5145	0.537
234.7303	0.525
234.9461	0.5285
235.1619	0.532
235.3776	0.5387
235.5934	0.5272
235.8091	0.5257
236.0249	0.5483
236.2406	0.5403
236.4563	0.5434
236.672	0.5324
236.8877	0.5434
237.1034	0.5303
237.319	0.5342
237.5347	0.5313
237.7503	0.5401
237.966	0.5276
238.1816	0.5292
238.3972	0.5377
238.6128	0.5415
238.8284	0.5352
239.0439	0.5406
239.2595	0.5357
239.475	0.5321
239.6906	0.5279
239.9061	0.5391
240.1216	0.5397
240.3371	0.517
240.5526	0.5265
240.7681	0.5228
240.9836	0.5151
241.199	0.5121
241.4145	0.5013
241.6299	0.494
241.8453	0.495
242.0607	0.4881
242.2761	0.4796
242.4915	0.4672
242.7069	0.4642
242.9223	0.4583
243.1376	0.4534
243.353	0.443
243.5683	0.4438
243.7836	0.4205
243.9989	0.4253
244.2142	0.4233
244.4295	0.3998
244.6448	0.4008
244.86	0.3931
245.0753	0.3796
245.2905	0.3759
245.5057	0.3712
245.721	0.3579
245.9362	0.3561
246.1514	0.3426
246.3665	0.343
246.5817	0.3405
246.7969	0.3169
247.012	0.3197
247.2271	0.3147
247.4423	0.3024
247.6574	0.309
247.8725	0.3018
248.0876	0.294
248.3026	0.2848
248.5177	0.2792
248.7328	0.2806
248.9478	0.2729
249.1628	0.268
249.3779	0.2675
249.5929	0.2678
249.8079	0.2586
250.0228	0.2524
250.2378	0.2566
250.4528	0.2461
250.6677	0.2437
250.8827	0.2379
251.0976	0.2418
251.3125	0.2348
251.5274	0.2349
251.7423	0.2279
251.9572	0.2266
252.172	0.2204
252.3869	0.2191
252.6017	0.2178
252.8166	0.2159
253.0314	0.2171
253.2462	0.2185
253.461	0.2117
253.6758	0.2085
253.8906	0.2067
254.1053	0.2015
254.3201	0.2034
254.5348	0.2014
254.7496	0.2046
254.9643	0.2055
255.179	0.199
255.3937	0.2004
255.6083	0.2042
255.823	0.1931
256.0377	0.2032
256.2523	0.1969
256.467	0.194
256.6816	0.2008
256.8962	0.1887
257.1108	0.1951
257.3254	0.193
257.54	0.1928
257.7545	0.1953
257.9691	0.1922
258.1836	0.1905
258.3981	0.1869
258.6127	0.1858
258.8272	0.1824
259.0417	0.1835
259.2561	0.1873
259.4706	0.1846
259.6851	0.1824
259.8995	0.1798
260.114	0.1853
260.3284	0.1879
260.5428	0.1805
260.7572	0.1919
260.9716	0.1819
261.186	0.179
261.4003	0.1895
261.6147	0.1836
261.829	0.1828
262.0433	0.182
262.2577	0.1896
262.472	0.1845
262.6863	0.1883
262.9005	0.1881
263.1148	0.184
263.3291	0.1892
263.5433	0.1875
263.7576	0.1869
263.9718	0.1884
264.186	0.1916
264.4002	0.1786
264.6144	0.1864
264.8286	0.1853
265.0427	0.188
265.2569	0.182
265.471	0.1872
265.6851	0.1838
265.8993	0.1791
266.1134	0.1859
266.3275	0.1898
266.5415	0.1858
266.7556	0.1787
266.9697	0.1823
267.1837	0.1851
267.3978	0.1891
267.6118	0.181
267.8258	0.1803
268.0398	0.1847
268.2538	0.1902
268.4677	0.1793
268.6817	0.1794
268.8957	0.184
269.1096	0.1777
269.3235	0.1908
269.5374	0.1753
269.7514	0.1799
269.9652	0.1822
270.1791	0.1807
270.393	0.1763
270.6068	0.176
270.8207	0.1785
271.0345	0.1758
271.2483	0.1766
271.4622	0.1796
271.676	0.1728
271.8897	0.1733
272.1035	0.1692
272.3173	0.1702
272.531	0.1726
272.7448	0.1703
272.9585	0.1708
273.1722	0.1705
273.3859	0.1706
273.5996	0.169
273.8133	0.1642
274.0269	0.1745
274.2406	0.1689
274.4542	0.1631
274.6679	0.1695
274.8815	0.1738
275.0951	0.1824
275.3087	0.175
275.5223	0.1733
275.7358	0.1794
275.9494	0.176
276.1629	0.1758
276.3765	0.1716
276.59	0.1752
276.8035	0.1809
277.017	0.1763
277.2305	0.1733
277.444	0.1734
277.6574	0.1761
277.8709	0.1757
278.0843	0.1721
278.2978	0.1872
278.5112	0.1767
278.7246	0.1789
278.938	0.1787
279.1513	0.1818
279.3647	0.1841
279.5781	0.1792
279.7914	0.1814
280.0047	0.1777
280.2181	0.1839
280.4314	0.1753
280.6447	0.1815
280.8579	0.1788
281.0712	0.1823
281.2845	0.1883
281.4977	0.1884
281.711	0.1779
281.9242	0.1865
282.1374	0.1822
282.3506	0.1851
282.5638	0.1833
282.7769	0.1845
282.9901	0.18
283.2033	0.1889
283.4164	0.1853
283.6295	0.1835
283.8426	0.185
284.0557	0.1857
284.2688	0.1913
284.4819	0.1902
284.695	0.1896
284.908	0.1905
285.1211	0.1893
285.3341	0.1925
285.5471	0.1889
285.7601	0.1919
285.9731	0.1857
286.1861	0.1937
286.3991	0.1915
286.612	0.1962
286.825	0.1915
287.0379	0.2007
287.2508	0.1937
287.4637	0.1921
287.6766	0.1952
287.8895	0.1886
288.1024	0.1944
288.3152	0.1961
288.5281	0.1997
288.7409	0.1981
288.9538	0.1951
289.1666	0.2016
289.3794	0.2006
289.5922	0.1967
289.8049	0.208
290.0177	0.2017
290.2304	0.2056
290.4432	0.1975
290.6559	0.1884
290.8686	0.2003
291.0813	0.1977
291.294	0.2009
291.5067	0.2039
291.7194	0.1956
291.932	0.2034
292.1447	0.2019
292.3573	0.2068
292.5699	0.2053
292.7825	0.1996
292.9951	0.2043
293.2077	0.1943
293.4203	0.2007
293.6328	0.1976
293.8454	0.2005
294.0579	0.2
294.2704	0.2008
294.4829	0.1993
294.6954	0.201
294.9079	0.2061
295.1204	0.2001
295.3328	0.201
295.5453	0.1988
295.7577	0.1923
295.9701	0.1997
296.1825	0.2014
296.3949	0.2074
296.6073	0.2013
296.8197	0.205
297.0321	0.1946
297.2444	0.1987
297.4567	0.1987
297.6691	0.2035
297.8814	0.1981
298.0937	0.2014
298.306	0.1914
298.5182	0.2043
298.7305	0.1997
298.9428	0.1971
299.155	0.1976
299.3672	0.2038
299.5794	0.1911
299.7916	0.1971
300.0038	0.1969
300.216	0.2029
300.4282	0.1934
300.6403	0.2002
300.8525	0.2014
301.0646	0.1962
301.2767	0.1955
301.4888	0.1947
301.7009	0.2002
301.913	0.1973
302.125	0.2008
302.3371	0.1974
302.5491	0.1978
302.7612	0.2022
302.9732	0.1868
303.1852	0.1932
303.3972	0.1942
303.6092	0.194
303.8211	0.1861
304.0331	0.1885
304.245	0.1877
304.457	0.1929
304.6689	0.1939
304.8808	0.1909
305.0927	0.1945
305.3046	0.1934
305.5164	0.182
305.7283	0.1899
305.9401	0.1831
306.152	0.1853
306.3638	0.1791
306.5756	0.1857
306.7874	0.1825
306.9992	0.1792
307.2109	0.1746
307.4227	0.1757
307.6344	0.175
307.8462	0.1671
308.0579	0.1663
308.2696	0.1612
308.4813	0.163
308.693	0.1672
308.9046	0.1633
309.1163	0.1638
309.328	0.1552
309.5396	0.1574
309.7512	0.157
309.9628	0.1557
310.1744	0.1602
310.386	0.147
310.5976	0.1531
310.8091	0.1455
311.0207	0.1459
311.2322	0.1448
311.4437	0.149
311.6552	0.1377
311.8667	0.1348
312.0782	0.1476
312.2897	0.1386
312.5012	0.1414
312.7126	0.1362
312.924	0.1371
313.1355	0.1364
313.3469	0.1296
313.5583	0.1304
313.7696	0.1261
313.981	0.1259
314.1924	0.1277
314.4037	0.121
314.6151	0.125
314.8264	0.1279
315.0377	0.1307
315.249	0.1207
315.4603	0.1161
315.6716	0.1256
315.8828	0.1223
316.0941	0.1178
316.3053	0.1233
316.5165	0.1174
316.7277	0.1269
316.9389	0.1211
317.1501	0.1178
317.3613	0.1164
317.5724	0.12
317.7836	0.1205
317.9947	0.1145
318.2058	0.1181
318.417	0.1196
318.6281	0.118
318.8391	0.1199
319.0502	0.1162
319.2613	0.115
319.4723	0.1189
319.6834	0.1108
319.8944	0.1217
320.1054	0.1156
320.3164	0.1247
320.5274	0.1123
320.7383	0.1148
320.9493	0.118
321.1602	0.1123
321.3712	0.1212
321.5821	0.1164
321.793	0.1152
322.0039	0.1211
322.2148	0.1205
322.4257	0.1107
322.6365	0.1124
322.8474	0.1136
323.0582	0.1134
323.269	0.1153
323.4798	0.1198
323.6906	0.1136
323.9014	0.1152
324.1122	0.1162
324.3229	0.1204
324.5337	0.1224
324.7444	0.1128
324.9551	0.1171
325.1658	0.1157
325.3765	0.1197
325.5872	0.1199
325.7979	0.1171
326.0085	0.1168
326.2192	0.1178
326.4298	0.1218
326.6404	0.1238
326.851	0.119
327.0616	0.1223
327.2722	0.1291
327.4828	0.1199
327.6933	0.1196
327.9039	0.1204
328.1144	0.1192
328.3249	0.1213
328.5354	0.1221
328.7459	0.1176
328.9564	0.1264
329.1669	0.1207
329.3773	0.1231
329.5878	0.1294
329.7982	0.1215
330.0086	0.1241
330.219	0.1224
330.4294	0.1215
330.6398	0.1281
330.8502	0.1251
331.0605	0.1196
331.2708	0.1197
331.4812	0.1266
331.6915	0.1194
331.9018	0.1168
332.1121	0.128
332.3224	0.1281
332.5326	0.1212
332.7429	0.1218
332.9531	0.1242
333.1633	0.1239
333.3735	0.1216
333.5837	0.1319
333.7939	0.1261
334.0041	0.1267
334.2143	0.1291
334.4244	0.1214
334.6346	0.1221
334.8447	0.1272
335.0548	0.1235
335.2649	0.1275
335.475	0.1223
335.685	0.1296
335.8951	0.1265
336.1051	0.1286
336.3152	0.1258
336.5252	0.1288
336.7352	0.1202
336.9452	0.1264
337.1552	0.1262
337.3652	0.1271
337.5751	0.1211
337.7851	0.1234
337.995	0.1284
338.2049	0.1351
338.4148	0.1293
338.6247	0.1325
338.8346	0.1271
339.0445	0.1354
339.2543	0.1311
339.4642	0.1393
339.674	0.132
339.8838	0.1337
340.0936	0.1335
340.3034	0.1348
340.5132	0.1302
340.7229	0.1363
340.9327	0.1378
341.1424	0.141
341.3522	0.1376
341.5619	0.1411
341.7716	0.1323
341.9813	0.1381
342.1909	0.1402
342.4006	0.1416
342.6102	0.1373
342.8199	0.1443
343.0295	0.1413
343.2391	0.1417
343.4487	0.1411
343.6583	0.1494
343.8679	0.1397
344.0774	0.1428
344.287	0.143
344.4965	0.1342
344.706	0.1474
344.9155	0.1453
345.125	0.1475
345.3345	0.1443
345.544	0.1496
345.7534	0.15
345.9629	0.1465
346.1723	0.1422
346.3817	0.1431
346.5911	0.1547
346.8005	0.1512
347.0099	0.1552
347.2193	0.1441
347.4286	0.152
347.638	0.1485
347.8473	0.15
348.0566	0.1618
348.2659	0.163
348.4752	0.1561
348.6845	0.1676
348.8937	0.1564
349.103	0.1522
349.3122	0.1576
349.5214	0.1581
349.7306	0.1501
349.9398	0.1584
350.149	0.1661
350.3582	0.1598
350.5674	0.1634
350.7765	0.1663
350.9856	0.1613
351.1948	0.1691
351.4039	0.1681
351.613	0.1709
351.822	0.1613
352.0311	0.1652
352.2402	0.1684
352.4492	0.1652
352.6582	0.1695
352.8672	0.1742
353.0762	0.1764
353.2852	0.1777
353.4942	0.1716
353.7032	0.1722
353.9121	0.1728
354.1211	0.1707
354.33	0.1768
354.5389	0.1939
354.7478	0.1751
354.9567	0.1753
355.1655	0.1745
355.3744	0.1745
355.5833	0.1804
355.7921	0.182
356.0009	0.1773
356.2097	0.1914
356.4185	0.1917
356.6273	0.1795
356.8361	0.1966
357.0448	0.191
357.2536	0.1912
357.4623	0.1838
357.671	0.1867
357.8797	0.1878
358.0884	0.1873
358.2971	0.1862
358.5057	0.1906
358.7144	0.1909
358.923	0.1882
359.1316	0.1919
359.3402	0.1957
359.5488	0.1949
359.7574	0.2002
359.966	0.2078
360.1746	0.2057
360.3831	0.2009
360.5916	0.1977
360.8002	0.2136
361.0087	0.2079
361.2172	0.2176
361.4256	0.2017
361.6341	0.215
361.8426	0.215
362.051	0.2006
362.2594	0.218
362.4678	0.2136
362.6762	0.2248
362.8846	0.2269
363.093	0.2164
363.3014	0.2262
363.5097	0.2193
363.718	0.2321
363.9264	0.2243
364.1347	0.2245
364.343	0.2301
364.5513	0.2279
364.7595	0.2239
364.9678	0.2253
365.176	0.2319
365.3842	0.2314
365.5925	0.2322
365.8007	0.2394
366.0089	0.229
366.217	0.2447
366.4252	0.2363
366.6333	0.2385
366.8415	0.2395
367.0496	0.2404
367.2577	0.2461
367.4658	0.2418
367.6739	0.2423
367.882	0.2446
368.09	0.2438
368.2981	0.2417
368.5061	0.2527
368.7141	0.2552
368.9221	0.2512
369.1301	0.2459
369.3381	0.2514
369.5461	0.2521
369.754	0.2477
369.962	0.2539
370.1699	0.2657
370.3778	0.2591
370.5857	0.2584
370.7936	0.2617
371.0015	0.256
371.2093	0.2548
371.4172	0.2628
371.625	0.2722
371.8328	0.2733
372.0406	0.2739
372.2484	0.2566
372.4562	0.2565
372.664	0.2756
372.8717	0.2681
373.0795	0.2699
373.2872	0.2711
373.4949	0.2845
373.7026	0.2795
373.9103	0.2635
374.118	0.2638
374.3256	0.2851
374.5333	0.2784
374.7409	0.2654
374.9485	0.2786
375.1561	0.2768
375.3637	0.277
375.5713	0.2717
375.7789	0.2714
375.9864	0.2814
376.194	0.2855
376.4015	0.2856
376.609	0.2908
376.8165	0.2954
377.024	0.2788
377.2315	0.2925
377.4389	0.2799
377.6464	0.2803
377.8538	0.2879
378.0612	0.2856
378.2686	0.2927
378.476	0.2903
378.6834	0.2851
378.8908	0.2955
379.0981	0.2995
379.3055	0.2987
379.5128	0.2937
379.7201	0.2984
379.9274	0.2863
380.1347	0.2941
380.342	0.3081
380.5492	0.2937
380.7565	0.2944
380.9637	0.2912
381.1709	0.3055
381.3781	0.3051
381.5853	0.3077
381.7925	0.3038
381.9997	0.3024
382.2068	0.2903
382.4139	0.3037
382.6211	0.306
382.8282	0.3056
383.0353	0.3206
383.2424	0.3117
383.4494	0.3139
383.6565	0.3139
383.8635	0.321
384.0706	0.309
384.2776	0.3257
384.4846	0.315
384.6916	0.307
384.8986	0.3159
385.1055	0.3109
385.3125	0.3181
385.5194	0.3087
385.7263	0.3025
385.9333	0.309
386.1402	0.3224
386.347	0.3181
386.5539	0.3152
386.7608	0.3135
386.9676	0.3143
387.1744	0.3132
387.3813	0.3111
387.5881	0.3186
387.7948	0.3176
388.0016	0.3191
388.2084	0.3087
388.4151	0.3123
388.6219	0.3186
388.8286	0.3092
389.0353	0.3033
389.242	0.3078
389.4487	0.3041
389.6553	0.2988
389.862	0.3127
390.0686	0.3123
390.2753	0.2982
390.4819	0.3144
390.6885	0.3033
390.8951	0.3152
391.1016	0.3082
391.3082	0.2947
391.5147	0.3033
391.7213	0.3073
391.9278	0.298
392.1343	0.2986
392.3408	0.2849
392.5473	0.2914
392.7537	0.296
392.9602	0.2832
393.1666	0.2933
393.373	0.2963
393.5794	0.2855
393.7858	0.3036
393.9922	0.2889
394.1986	0.2832
394.4049	0.2909
394.6113	0.289
394.8176	0.2742
395.0239	0.2772
395.2302	0.2699
395.4365	0.2761
395.6428	0.2814
395.8491	0.2831
396.0553	0.2733
396.2615	0.2737
396.4678	0.2813
396.674	0.2712
396.8802	0.2657
397.0863	0.2692
397.2925	0.2675
397.4987	0.2708
397.7048	0.2802
397.9109	0.2759
398.117	0.268
398.3231	0.2724
398.5292	0.2708
398.7353	0.2693
398.9413	0.2687
399.1474	0.2844
399.3534	0.2667
399.5594	0.2681
399.7654	0.2747
399.9714	0.2585
400.1774	0.2604
400.3833	0.2634
400.5893	0.264
400.7952	0.2681
401.0011	0.2513
401.207	0.2741
401.4129	0.2628
401.6188	0.2697
401.8247	0.2721
402.0305	0.2639
402.2364	0.2724
402.4422	0.275
402.648	0.2837
402.8538	0.2717
403.0596	0.2544
403.2654	0.2658
403.4711	0.2708
403.6768	0.267
403.8826	0.2624
404.0883	0.2658
404.294	0.269
404.4997	0.2687
404.7054	0.2676
404.911	0.2615
405.1167	0.2716
405.3223	0.2771
405.5279	0.2683
405.7335	0.2637
405.9391	0.2657
406.1447	0.2679
406.3502	0.277
406.5558	0.2805
406.7613	0.2681
406.9668	0.2704
407.1724	0.2726
407.3778	0.2725
407.5833	0.255
407.7888	0.2725
407.9942	0.2671
408.1997	0.2604
408.4051	0.2624
408.6105	0.2638
408.8159	0.267
409.0213	0.2811
409.2267	0.2653
409.432	0.2679
409.6374	0.2705
409.8427	0.2629
410.048	0.2569
410.2533	0.2623
410.4586	0.274
410.6639	0.2596
410.8691	0.2713
411.0744	0.2644
411.2796	0.2714
411.4848	0.2623
411.69	0.2692
411.8952	0.2644
412.1004	0.2615
412.3056	0.2697
412.5107	0.2696
412.7158	0.268
412.921	0.2583
413.1261	0.2659
413.3312	0.2614
413.5362	0.271
413.7413	0.2687
413.9464	0.2602
414.1514	0.252
414.3564	0.252
414.5614	0.2601
414.7664	0.2725
414.9714	0.2676
415.1764	0.2552
415.3813	0.2603
415.5863	0.2681
415.7912	0.2666
415.9961	0.2553
416.201	0.2667
416.4059	0.2696
416.6108	0.2599
416.8156	0.2534
417.0205	0.2578
417.2253	0.2629
417.4301	0.2743
417.6349	0.2504
417.8397	0.2638
418.0445	0.2678
418.2492	0.2666
418.454	0.2522
418.6587	0.2617
418.8634	0.2562
419.0681	0.2528
419.2728	0.2484
419.4775	0.2556
419.6822	0.2395
419.8868	0.2498
420.0915	0.2521
420.2961	0.2477
420.5007	0.2522
420.7053	0.2489
420.9099	0.2346
421.1144	0.2431
421.319	0.2456
421.5235	0.2383
421.728	0.2386
421.9325	0.246
422.137	0.2422
422.3415	0.2398
422.546	0.2486
422.7504	0.2377
422.9549	0.2357
423.1593	0.2304
423.3637	0.2245
423.5681	0.2437
423.7725	0.2273
423.9769	0.2447
424.1812	0.2411
424.3856	0.2361
424.5899	0.2262
424.7942	0.2363
424.9985	0.2318
425.2028	0.2397
425.4071	0.2225
425.6113	0.2372
425.8156	0.2267
426.0198	0.219
426.224	0.2256
426.4282	0.2297
426.6324	0.2218
426.8366	0.2318
427.0407	0.2215
427.2449	0.2146
427.449	0.2195
427.6531	0.2201
427.8572	0.2055
428.0613	0.2087
428.2654	0.2127
428.4694	0.2013
428.6735	0.2151
428.8775	0.2087
429.0815	0.2139
429.2855	0.2069
429.4895	0.1979
429.6935	0.1966
429.8975	0.203
430.1014	0.199
430.3053	0.1946
430.5093	0.1974
430.7132	0.202
430.9171	0.1822
431.1209	0.1936
431.3248	0.1905
431.5286	0.1781
431.7325	0.1881
431.9363	0.1922
432.1401	0.1825
432.3439	0.187
432.5477	0.1801
432.7514	0.1759
432.9552	0.1585
433.1589	0.1667
433.3627	0.172
433.5664	0.1688
433.7701	0.1731
433.9737	0.172
434.1774	0.1652
434.3811	0.1741
434.5847	0.1678
434.7883	0.1661
434.9919	0.1574
435.1955	0.1566
435.3991	0.1587
435.6027	0.149
435.8062	0.1495
436.0098	0.1487
436.2133	0.1526
436.4168	0.1455
436.6203	0.1409
436.8238	0.1474
437.0272	0.1359
437.2307	0.128
437.4341	0.1351
437.6375	0.1313
437.841	0.1368
438.0443	0.136
438.2477	0.1259
438.4511	0.1347
438.6545	0.1317
438.8578	0.1299
439.0611	0.1339
439.2644	0.1204
439.4677	0.1146
439.671	0.1124
439.8743	0.1119
440.0775	0.109
440.2808	0.1139
440.484	0.1087
440.6872	0.1023
440.8904	0.1062
441.0936	0.1118
441.2967	0.1002
441.4999	0.1079
441.703	0.0991
441.9062	0.0905
442.1093	0.096
442.3124	0.0995
442.5155	0.0941
442.7185	0.0895
442.9216	0.0921
443.1246	0.0989
443.3276	0.0793
443.5307	0.0839
443.7337	0.085
443.9366	0.0915
444.1396	0.0801
444.3426	0.0889
444.5455	0.0758
444.7484	0.0724
444.9513	0.0792
445.1542	0.0691
445.3571	0.0743
445.56	0.0761
445.7628	0.0697
445.9657	0.072
446.1685	0.0713
446.3713	0.064
446.5741	0.0596
446.7769	0.0666
446.9797	0.071
447.1824	0.0635
447.3852	0.0589
447.5879	0.067
447.7906	0.0599
447.9933	0.0643
448.196	0.0533
448.3986	0.0599
448.6013	0.0567
448.8039	0.0516
449.0066	0.0575
449.2092	0.0482
449.4118	0.0501
449.6143	0.0484
449.8169	0.0566
450.0195	0.0515
450.222	0.0445
450.4245	0.0557
450.627	0.0434
450.8295	0.0348
451.032	0.0424
451.2345	0.0457
451.4369	0.0401
451.6394	0.0461
451.8418	0.0393
452.0442	0.0376
452.2466	0.0324
452.449	0.0369
452.6513	0.0371
452.8537	0.034
453.056	0.0374
453.2583	0.0344
453.4607	0.034
453.663	0.0329
453.8652	0.04
454.0675	0.0376
454.2697	0.0227
454.472	0.0274
454.6742	0.024
454.8764	0.028
455.0786	0.0329
455.2808	0.0327
455.4829	0.0247
455.6851	0.0269
455.8872	0.0353
456.0893	0.0236
456.2915	0.0162
456.4935	0.0185
456.6956	0.0228
456.8977	0.0219
457.0997	0.0311
457.3018	0.0232
457.5038	0.0196
457.7058	0.0241
457.9078	0.039
458.1098	0.0212
458.3117	0.0275
458.5137	0.0237
458.7156	0.0317
458.9175	0.0178
459.1194	0.0271
459.3213	0.0136
459.5232	0.0075
459.725	0.0199
459.9269	0.0146
460.1287	-0.0006
460.3305	0.0139
460.5323	0.0141
460.7341	0.0147
460.9359	0.0128
461.1376	0.0171
461.3394	0.0111
461.5411	0.015
461.7428	0.0122
461.9445	0.0159
462.1462	0.0158
462.3479	0.0161
462.5495	0.0154
462.7512	0.0008
462.9528	0.0193
463.1544	0.0124
463.356	0.0207
463.5576	0.0048
463.7592	0.0003
463.9607	0.0118
464.1623	0.0162
464.3638	0.0097
464.5653	0.0183
464.7668	0.0152
464.9683	0.0113
465.1697	0.0058
465.3712	0.0144
465.5726	0.0071
465.7741	0.0071
465.9755	0.0044
466.1769	0.0055
466.3782	0.0033
466.5796	0.0014
466.7809	0.0165
466.9823	0.0012
467.1836	0.0195
467.3849	0.0078
467.5862	-0.0041
467.7875	0.0122
467.9887	0.0136
468.19	0.0064
468.3912	0.0099
468.5924	0.0181
468.7936	-0.0079
468.9948	0.0121
469.196	0.0088
469.3972	0.0144
469.5983	-0.0017
469.7994	0.0035
470.0006	0.0004
470.2017	0.0188
470.4027	-0.0008
470.6038	0.0021
470.8049	0.0015
471.0059	0.0017
471.2069	0.0016
471.408	0.0006
471.6089	0.0098
471.8099	0.0058
472.0109	0.0013
472.2119	0.0144
472.4128	0.004
472.6137	0.0049
472.8146	0.0043
473.0155	0.0042
473.2164	0.0049
473.4173	0.0164
473.6181	0.0114
473.819	0.0001
474.0198	0.0063
474.2206	0.0055
474.4214	0.0126
474.6222	0.0122
474.8229	0.006
475.0237	-0.0006
475.2244	0.0089
475.4251	-0.0058
475.6258	0.0107
475.8265	-0.0006
476.0272	0.0027
476.2278	0.0067
476.4285	0.0074
476.6291	0.0181
476.8297	-0.0031
477.0303	0.0078
477.2309	0.0074
477.4315	0.017
477.632	0.0049
477.8326	0.0003
478.0331	-0.0036
478.2336	0.0038
478.4341	0.0072
478.6346	-0.003
478.8351	0.016
479.0355	-0.0022
479.236	-0.0065
479.4364	0.0014
479.6368	0.0065
479.8372	0.0091
480.0376	0.0056
480.2379	-0.0013
480.4383	-0.0044
480.6386	0.0039
480.8389	0.0011
481.0392	0.0046
481.2395	0.0108
481.4398	0.0067
481.6401	0.0075
481.8403	-0.0084
482.0405	-0.001
482.2408	0.006
482.441	0.0082
482.6411	0.0024
482.8413	0.0029
483.0415	0.0021
483.2416	-0.0004
483.4417	-0.0009
483.6419	0.0045
483.8419	0.0046
484.042	0.0032
484.2421	0.0044
484.4422	0.0052
484.6422	0.0055
484.8422	0.0069
485.0422	0.0054
485.2422	0.0021
485.4422	-0.0044
485.6422	-0.0002
485.8421	-0.002
486.042	0.0053
486.242	0.0014
486.4419	0.0069
486.6417	-0.0013
486.8416	0.0074
487.0415	-0.0009
487.2413	0.0028
487.4411	0.0003
487.641	0.0058
487.8408	0.0056
488.0405	0.0021
488.2403	-0.0008
488.4401	-0.0007
488.6398	0.0101
488.8395	0.0022
489.0392	0.0002
489.2389	0.0018
489.4386	-0.0024
489.6383	0.0066
489.8379	0.0036
490.0376	0.0123
490.2372	0.0058
490.4368	0.0076
490.6364	0.0088
490.836	0.0006
491.0355	0.0038
491.2351	0.0046
491.4346	0.0019
491.6341	-0.0035
491.8336	-0.0045
492.0331	0.0053
492.2326	0.0021
492.432	0.0058
492.6315	0.0019
492.8309	0.0106
493.0303	-0.0046
493.2297	-0.0039
493.4291	-0.009
493.6284	0.0034
493.8278	0.0086
494.0271	0.0021
494.2264	0.0078
494.4257	-0.002
494.625	-0.0023
494.8243	-0.0004
495.0236	0.0026
495.2228	-0.0047
495.422	-0.0022
495.6213	-0.0018
495.8205	0.0006
496.0196	0.0013
496.2188	0.0041
496.418	-0.0062
496.6171	0.0014
496.8162	-0.0025
497.0153	0.0025
497.2144	-0.0029
497.4135	0.0031
497.6126	-0.0032
497.8116	0.0056
498.0107	0.0018
498.2097	0.005
498.4087	0.0071
498.6077	0.0049
498.8067	0.0073
499.0056	-0.0033
499.2046	-0.0024
499.4035	0.0012
499.6024	-0.0063
499.8013	-0.0011
500.0002	0.009
500.199	0.0041
500.3979	0.0032
500.5967	-0.0055
500.7956	0.006
500.9944	0.0023
501.1932	0.0055
501.3919	0.0037
501.5907	-0.0018
501.7895	0.0001
501.9882	-0.0019
502.1869	0.0053
502.3856	-0.0002
502.5843	-0.0036
502.783	0.0083
502.9816	0.0089
503.1803	0.0086
503.3789	0.0058
503.5775	0.0092
503.7761	0.0007
503.9747	0.0029
504.1732	0.004
504.3718	-0.0007
504.5703	-0.0053
504.7689	-0.0031
504.9674	0.0069
505.1658	0.0003
505.3643	-0.001
505.5628	0.0036
505.7612	0.0073
505.9597	0.0051
506.1581	-0.0113
506.3565	-0.0097
506.5549	0.0034
506.7532	0.003
506.9516	0.0025
507.1499	0.0073
507.3482	0.0005
507.5465	-0.0082
507.7448	0.001
507.9431	-0.0039
508.1414	0.0038
508.3396	-0.0038
508.5379	-0.0011
508.7361	0.011
508.9343	0.0017
509.1325	0.0055
509.3306	-0.0048
509.5288	-0.0016
509.7269	0.0016
509.9251	-0.0042
510.1232	-0.0138
510.3213	-0.0002
510.5193	0.0027
510.7174	-0.0005
510.9154	-0.0006
511.1135	0.0036
511.3115	0.0033
511.5095	0.0013
511.7075	-0.0002
511.9055	0.0127
512.1034	0.0067
512.3014	-0.0045
512.4993	0.0033
512.6972	0.0065
512.8951	-0.0008
513.093	-0.0011
513.2908	-0.0014
513.4887	0.0008
513.6865	-0.0005
513.8844	0.0033
514.0822	-0.0076
514.2799	0.0003
514.4777	0.0073
514.6755	-0.0057
514.8732	-0.0003
515.0709	0.0116
515.2687	-0.0069
515.4664	-0.0071
515.664	0.0035
515.8617	0.004
516.0594	0.0036
516.257	0.0072
516.4546	-0.0059
516.6522	0.0026
516.8498	0.0059
517.0474	-0
517.2449	-0.0075
517.4425	0.0042
517.64	0.0054
517.8375	0.0088
518.035	-0.0011
518.2325	-0.0055
518.43	-0.0076
518.6274	-0.0078
518.8249	-0.0016
519.0223	0.0004
519.2197	-0.0004
519.4171	-0.0015
519.6145	-0.0087
519.8118	0.0029
520.0092	0.0001
520.2065	0.0029
520.4038	-0.0019
520.6011	0.016
520.7984	-0.0002
520.9956	-0.0011
521.1929	0.0022
521.3901	0.0057
521.5874	0.0055
521.7846	0.002
521.9818	0.0038
522.1789	0.005
522.3761	-0.0005
522.5732	-0.0087
522.7704	0.0046
522.9675	-0.0127
523.1646	0.0032
523.3617	-0.0051
523.5587	0.0048
523.7558	0.0127
523.9528	0.0081
524.1498	-0.0023
524.3468	-0.0025
524.5438	-0.0077
524.7408	-0.0004
524.9378	0.0081
525.1347	0.0084
525.3316	0.0129
525.5285	0.0055
525.7254	0.0023
525.9223	0.0001
526.1192	0.001
526.316	-0.0055
526.5129	0.0014
526.7097	0.0071
526.9065	0.0032
527.1033	-0.0062
527.3	-0.0095
527.4968	-0.0036
527.6935	-0.0001
527.8903	0.0085
528.087	0.0091
528.2837	0.0049
528.4804	0.0131
528.677	0.007
528.8737	0.0033
529.0703	0.003
529.2669	-0.001
529.4635	0.0092
529.6601	0.0113
529.8567	0.0136
530.0532	0.0069
530.2498	-0.0048
530.4463	0.0032
530.6428	0.0036
530.8393	0.0114
531.0358	0.0058
531.2322	0.0089
531.4287	-0.0027
531.6251	-0.0011
531.8215	0.0117
532.0179	-0.0017
532.2143	0.0123
532.4107	0.001
532.607	0.0031
532.8034	-0.0006
532.9997	0.0084
533.196	0.0087
533.3923	0.0037
533.5886	0.0013
533.7848	-0.0043
533.9811	-0.005
534.1773	0.0014
534.3735	0.0026
534.5697	0.0005
534.7659	0.0075
534.9621	0.006
535.1582	0.0032
535.3544	0.0092
535.5505	0.0003
535.7466	0.0004
535.9427	-0.016
536.1387	-0.0031
536.3348	0.0096
536.5308	0.0091
536.7269	0.0025
536.9229	0.0045
537.1189	0.0008
537.3148	-0.0138
537.5108	0.0006
537.7068	0.0124
537.9027	0.0047
538.0986	-0.0103
538.2945	0.0058
538.4904	-0.0004
538.6863	0.0071
538.8821	-0.0035
539.078	0
539.2738	0.0036
539.4696	0.009
539.6654	-0.0003
539.8611	0.0012
540.0569	0.0071
540.2526	0.0025
540.4484	-0.0035
540.6441	0.0063
540.8398	0.0019
541.0355	0.0167
541.2311	0.0033
541.4268	-0.0031
541.6224	-0.0045
541.818	-0.0057
542.0136	-0.0085
542.2092	0.0025
542.4048	0.0018
542.6003	-0.0018
542.7959	-0.005
542.9914	0.0024
543.1869	-0.0015
543.3824	0.0046
543.5779	-0.0021
543.7734	-0.0003
543.9688	0.0014
544.1642	0.0079
544.3596	-0.0042
544.555	-0.0005
544.7504	-0.0007
544.9458	0.0008
545.1411	0.0042
545.3365	0
545.5318	-0.0058
545.7271	0.0098
545.9224	-0.0099
546.1177	0.0057
546.3129	-0.0092
546.5081	-0.0055
546.7034	-0.0034
546.8986	0.0002
547.0938	-0.0029
547.289	0.0004
547.4841	-0.0064
547.6793	-0.0033
547.8744	-0.0011
548.0695	0.0002
548.2646	-0.0099
548.4597	-0.0129
548.6548	0.0036
548.8498	-0.0061
549.0448	0.0105
549.2399	0.0018
549.4349	0.0068
549.6298	-0.0186
549.8248	-0.0082
550.0198	0.0045
550.2147	-0.0141
550.4096	-0.0002
550.6045	0.0115
550.7994	0.0132
550.9943	-0.0023
551.1892	-0.0052
551.384	0.0063
551.5788	0.0012
551.7737	-0.0079
551.9685	0.0008
552.1632	0.0034
552.358	0.0039
552.5528	0.0017
552.7475	-0.0014
552.9422	0.0123
553.1369	0.0012
553.3316	-0.0117
553.5263	-0.0032
553.7209	-0.0103
553.9156	0.0046
554.1102	-0.0034
554.3048	0.006
554.4994	0.0008
554.694	-0.0024
554.8885	0.0029
555.0831	0.0056
555.2776	-0.0063
555.4721	-0.0106
555.6666	0.0064
555.8611	-0.0094
556.0555	0.0073
556.25	-0.0022
556.4444	0.01
556.6388	-0.0026
556.8332	0.0083
557.0276	0.0216
557.222	-0.0079
557.4163	0.0105
557.6107	-0.0073
557.805	-0.0102
557.9993	-0.0048
558.1936	0.0082
558.3879	0.003
558.5821	0.0005
558.7764	0.0098
558.9706	-0.0013
559.1648	-0.0009
559.359	0.009
559.5532	-0.0102
559.7473	0.0062
559.9415	0.0066
560.1356	-0.0017
560.3297	0.0026
560.5238	0.0022
560.7179	-0.0056
560.9119	0.0158
561.106	-0.006
561.3	-0.0072
561.494	0.0019
561.688	-0.0019
561.882	-0.0001
562.076	0.0029
562.2699	-0.0006
562.4639	0.0061
562.6578	0.011
562.8517	-0.0077
563.0456	-0.0007
563.2395	0.001
563.4333	0.0032
563.6272	0.0082
563.821	0.0037
564.0148	-0.0004
564.2086	0.0005
564.4024	0.0017
564.5961	-0.0004
564.7899	0.0059
564.9836	0.0001
565.1773	0.0004
565.371	0.0073
565.5647	0.0018
565.7584	0.0023
565.952	0.0013
566.1456	-0.0003
566.3393	0.0194
566.5329	-0.0024
566.7264	-0.0014
566.92	0.0009
567.1136	0.0043
567.3071	-0.0036
567.5006	-0.0102
567.6941	0.0054
567.8876	-0.0063
568.0811	-0.0081
568.2745	-0.0037
568.468	0.0034
568.6614	0.0038
568.8548	-0.0033
569.0482	0.0068
569.2416	-0.0042
569.4349	0.0048
569.6283	-0.0013
569.8216	-0.0019
570.0149	-0.002
570.2082	-0.0031
570.4015	0.0008
570.5947	-0.0046
570.788	-0.0014
570.9812	0.0054
571.1744	-0.0053
571.3676	-0.0012
571.5608	-0.004
571.754	-0.009
571.9471	0.0011
572.1402	-0.0005
572.3333	0.0009
572.5264	0.0038
572.7195	0.0049
572.9126	0.0001
573.1057	-0.0004
573.2987	0.0019
573.4917	0.0014
573.6847	-0.0025
573.8777	0.0019
574.0707	-0.0023
574.2636	0.0069
574.4566	-0.0005
574.6495	0.0016
574.8424	0.0038
575.0353	-0.0026
575.2281	-0.001
575.421	-0.0009
575.6138	-0.0011
575.8067	0.0006
575.9995	0
576.1923	0.001
576.385	-0.0015
576.5778	0.0023
576.7706	0.0034
576.9633	0.0062
577.156	0.0007
577.3487	0.0003
577.5414	-0.0015
577.734	-0.0009
577.9267	0.0016
578.1193	-0.0004
578.3119	-0.0008
578.5045	-0.0035
578.6971	-0.0058
578.8897	0.0021
579.0822	0.0015
579.2747	-0.0029
579.4673	-0.0025
579.6598	-0.0015
579.8522	0.0033
580.0447	-0.0009
580.2372	0.0052
580.4296	-0.0009
580.622	0.0016
580.8144	0.0004
581.0068	0.0025
581.1992	0.0022
581.3915	0.0001
581.5839	0.0024
581.7762	0.0012
581.9685	-0.0012
582.1608	-0.0014
582.353	-0.0015
582.5453	0.0013
582.7375	0.0019
582.9298	0.0018
583.122	-0.0009
583.3142	0.0034
583.5063	-0.003
583.6985	0.0002
583.8906	0.0007
584.0827	0.0004
584.2749	0.005
584.4669	-0.0022
584.659	0.0009
584.8511	0.0003
585.0431	-0.0009
585.2352	-0.0051
585.4272	0.0004
585.6192	0.0035
585.8111	-0.0046
586.0031	0.0006
586.195	-0.0001
586.387	0.0022
586.5789	-0.0005
586.7708	-0.0016
586.9627	0.0014
587.1545	-0.0005
587.3464	0.004
587.5382	-0.0017
587.73	-0
587.9218	-0.0021
588.1136	-0.0047
588.3053	0.0014
588.4971	-0.0022
588.6888	0.0001
588.8805	0.003
589.0722	0.0005
589.2639	-0.0036
589.4556	-0.0073
589.6472	0.0022
589.8389	-0.0051
590.0305	0.002
590.2221	0.0048
590.4137	0.0019
590.6052	0.0079
590.7968	0.0008
590.9883	0.0008
591.1798	-0.0072
591.3713	0.0001
591.5628	0.0015
591.7543	0.0037
591.9458	-0.0026
592.1372	-0.0029
592.3286	-0.0022
592.52	-0.0015
592.7114	-0.0053
592.9028	0.0012
593.0941	-0.0004
593.2855	0.0072
593.4768	0.0015
593.6681	-0.0007
593.8594	-0.0016
594.0506	0.0024
594.2419	-0.0025
594.4331	-0.0061
594.6244	0.0032
594.8156	-0.0014
595.0067	0.0029
595.1979	-0.0046
595.3891	-0.0035
595.5802	0.0039
595.7713	-0.0034
595.9624	0.0045
596.1535	-0.0095
596.3446	-0.0032
596.5357	-0.0041
596.7267	-0.0002
596.9177	0.0024
597.1087	0.0028
597.2997	0.0023
597.4907	0.0042
597.6817	0.0022
597.8726	0.0055
598.0635	0.0029
598.2544	-0.0029
598.4453	-0.001
598.6362	-0.0023
598.827	0.0017
599.0179	0.0017
599.2087	-0.0003
599.3995	0.0046
599.5903	-0.0027
599.7811	0.003
599.9718	0.0009
600.1626	0.0003
600.3533	-0.001
600.544	-0.0007
600.7347	-0.0022
600.9254	0.0015
601.116	0.0034
601.3067	-0.0002
601.4973	0.0083
601.6879	0.0032
601.8785	0.0036
602.0691	0.0059
602.2596	-0.0058
602.4502	-0.0009
602.6407	0.0051
602.8312	-0.0016
603.0217	0.001
603.2122	-0.0021
603.4027	-0.0027
603.5931	0.0057
603.7835	-0.0037
603.9739	-0.0003
604.1643	0.0034
604.3547	0.0011
604.5451	0.0029
604.7354	-0.0028
604.9257	0.0022
605.116	-0.0028
605.3063	-0.0016
605.4966	-0.0017
605.6869	0.0019
605.8771	0.001
606.0673	-0.0027
606.2575	-0.0023
606.4477	0.0033
606.6379	0.0006
606.8281	-0.0078
607.0182	-0.002
607.2083	-0.0042
607.3985	-0.0013
607.5885	0.0072
607.7786	0.0036
607.9687	-0.003
608.1587	-0.0035
608.3488	-0.0041
608.5388	0.0071
608.7288	-0.0097
608.9187	0.0062
609.1087	0.001
609.2986	0.0007
609.4886	0.0073
609.6785	0.0047
609.8684	-0.0026
610.0582	-0.0023
610.2481	0.0002
610.4379	-0.0011
610.6278	-0.002
610.8176	-0.001
611.0074	-0.002
611.1971	0.0026
611.3869	0.0007
611.5766	-0.0035
611.7664	0.0048
611.9561	0.0015
612.1458	-0.0047
612.3354	0.0028
612.5251	-0.0004
612.7147	0.0087
612.9044	-0.0097
613.094	0.0018
613.2836	-0.0056
613.4731	-0.0001
613.6627	0.0074
613.8522	-0.0065
614.0417	-0.0029
614.2313	-0.0111
614.4207	0.0059
614.6102	-0.0027
614.7997	0.0006
614.9891	0.0003
615.1785	-0.007
615.3679	-0.0025
615.5573	-0.0169
615.7467	-0.0063
615.9361	-0.0052
616.1254	-0.005
616.3147	-0.0077
616.504	-0.005
616.6933	-0.0001
616.8826	0.0054
617.0718	-0.0024
617.2611	0.0021
617.4503	-0.0028
617.6395	0.0002
617.8287	0.0025
618.0179	0.0015
618.207	-0.0046
618.3961	-0.0086
618.5853	0.0009
618.7744	0.005
618.9634	0.0056
619.1525	0.0041
619.3416	0.0067
619.5306	-0.0022
619.7196	-0.0033
619.9086	0.0068
620.0976	0.0122
620.2866	0.0045
620.4755	0.0138
620.6645	-0.0133
620.8534	-0.0124
621.0423	-0.0162
621.2312	-0.0037
621.42	-0.0113
621.6089	-0.0065
621.7977	0.0039
621.9865	0.0046
622.1753	0.0026
622.3641	-0.0093
622.5529	-0.0125
622.7416	-0.0042
622.9303	-0.0023
623.1191	-0.0051
623.3078	-0.0021
623.4964	-0.0045
623.6851	0.0038
623.8737	0.0002
624.0624	0.007
624.251	-0.0025
624.4396	-0.0029
624.6282	0.0022
624.8167	0.0096
625.0053	-0.002
625.1938	-0.0052
625.3823	-0.0031
625.5708	-0.0115
625.7593	0.0012
625.9477	-0.0115
626.1362	0.0026
626.3246	-0.0028
626.513	0.0073
626.7014	-0.003
626.8898	-0.0019
627.0781	0.0074
627.2665	0.0034
627.4548	-0.008
627.6431	-0.0086
627.8314	0.0066
628.0197	-0.0012
628.2079	0.0112
628.3962	-0.0027
628.5844	-0.0036
628.7726	-0.003
628.9608	0.0025
629.1489	-0.0113
629.3371	-0.013
629.5252	0.0098
629.7134	0.0001
629.9015	0.0035
630.0895	0.0003
630.2776	0.0006
630.4657	0.0055
630.6537	-0.0018
630.8417	-0.0115
631.0297	-0.0041
631.2177	-0.0005
631.4057	-0.0099
631.5936	0.0049
631.7815	0.0026
631.9695	0.0085
632.1574	-0.0055
632.3452	-0.0066
632.5331	-0.0104
632.7209	0.0123
632.9088	0.0035
633.0966	0.0094
633.2844	-0.0142
633.4722	0.0086
633.6599	-0.0129
633.8477	0.0062
634.0354	-0.0039
634.2231	0.0082
634.4108	-0.0075
634.5985	-0.0002
634.7861	-0.0057
634.9738	0.0112
635.1614	0.01
635.349	-0.0154
635.5366	-0.0141
635.7242	-0.0095
635.9117	0.013
636.0993	-0.0058
636.2868	-0.0048
636.4743	0.0102
636.6618	-0.0042
636.8492	0.0055
637.0367	0.0043
637.2241	-0.0024
637.4115	-0.0095
637.5989	0.0236
637.7863	-0.0097
637.9737	-0.0011
638.161	-0.0093
638.3484	0.008
638.5357	0.0009
638.723	0.0103
638.9103	0.0146
639.0975	0.0212
639.2848	0.0281
639.472	-0.0109
639.6592	0.0094
639.8464	0.0039
640.0336	0.0191
640.2208	-0.0136
640.4079	0.008
640.595	-0.0135
640.7821	-0.0111
640.9692	0.0038
641.1563	0.018
641.3434	0.0087
641.5304	0.0055
641.7174	0.002
641.9044	-0.0156
642.0914	-0.0081
642.2784	0.0304
642.4653	-0.0019
642.6523	0.0094
642.8392	0.0043
643.0261	0.0022
643.213	-0.0074
643.3999	-0.0008
643.5867	0.0164
643.7735	0.0045
643.9604	-0.0092
644.1472	-0.0022
644.3339	-0.0048
644.5207	-0.0167
644.7075	-0.0023
644.8942	-0.0028
645.0809	-0.0047
645.2676	0.0041
645.4543	0.0064
645.6409	-0.0122
645.8276	-0.0024
646.0142	0.0018
646.2008	-0.0129
646.3874	0.0131
646.574	-0.0058
646.7605	0.0182
646.9471	0.006
647.1336	-0.0012
647.3201	0.0176
647.5066	-0.0107
647.6931	0.0032
647.8795	0.0071
648.0659	-0.0174
648.2524	0.0026
648.4388	-0.0083
648.6252	-0.0157
648.8115	0.0097
648.9979	0.013
649.1842	-0.0045
649.3705	0.013
649.5568	-0.0108
649.7431	-0.0142
649.9294	-0.0033
650.1156	0.0021
650.3018	0.0156
650.488	-0.0164
650.6742	0.0153
650.8604	-0.0117
651.0466	-0.0088
651.2327	-0.0135
651.4188	-0.0216
651.6049	-0.0243
651.791	0.0134
651.9771	-0.0058
652.1632	0.0132
652.3492	0.0061
652.5352	-0.0015
652.7212	-0.0212
652.9072	-0.0157
653.0932	-0.0165
653.2791	-0.0118
653.465	-0.0122
653.651	0.0107
653.8369	0.0041
654.0227	-0.0053
654.2086	-0.0158
654.3944	-0.0099
654.5803	0.0061
654.7661	-0.0027
654.9519	-0.0018
655.1377	-0.0001
655.3234	-0.0001
655.5092	-0.0001
655.6949	-0.0001
655.8806	-0.0001
656.0663	-0.0001
656.2519	-0.0001
656.4376	-0.0001
656.6232	-0.0001
656.8088	-0.0001
656.9945	-0.0001
657.18	-0.0001
657.3656	-0.0001
657.5511	-0.0001
657.7367	-0.0001
657.9222	-0.0001
658.1077	-0.0001
658.2932	-0.0001
658.4786	-0.0001
658.6641	-0.0001
658.8495	-0.0001
659.0349	-0.0001
659.2203	-0.0001
659.4057	0.0136
659.591	0.0924
659.7764	0.0064
659.9617	-0.0102
660.147	-0.009
660.3323	-0.007
660.5176	-0.001
660.7028	0.0136
660.888	0.0024
661.0733	0.0016
661.2585	0.0177
661.4436	0.0143
661.6288	0.0001
661.8139	0.0101
661.9991	0.0039
662.1842	0.0335
662.3693	-0.0021
662.5544	0.0114
662.7394	0.0324
662.9245	0.0107
663.1095	0.0113
663.2945	-0.0116
663.4795	-0.0261
663.6644	-0.0038
663.8494	0.0052
664.0343	-0.0001
664.2193	-0.0083
664.4042	-0.0072
664.589	-0.011
664.7739	0.0058
664.9587	-0.0086
665.1436	-0.0067
665.3284	0.0055
665.5132	0.002
665.698	-0.0075
665.8827	-0.0271
666.0675	-0.0185
666.2522	0.0112
666.4369	-0.0131
666.6216	-0.01
666.8063	-0.0141
666.9909	-0.0046
667.1756	0.0148
667.3602	-0.0108
667.5448	-0.0234
667.7294	-0.0104
667.9139	-0.0157
668.0985	-0.0088
668.283	-0.008
668.4675	0.0085
668.652	-0.0257
668.8365	-0.0001
669.0209	0.01
669.2054	0.0054
669.3898	0.0093
669.5742	0.0108
669.7586	-0.0004
669.943	0.0009
670.1273	0.0135
670.3117	0.0036
670.496	0.0096
670.6803	-0.0058
670.8646	0.0123
671.0488	-0.0087
671.2331	0.0114
671.4173	-0.0012
671.6015	-0.0195
671.7857	-0.0061
671.9699	-0.0056
672.1541	0.0029
672.3382	0.0106
672.5223	-0.0042
672.7064	0.0096
672.8905	0.0006
673.0746	-0.0114
673.2587	0.0018
673.4427	-0.017
673.6267	-0.0229
673.8107	-0.0031
673.9947	0.0078
674.1787	-0.0129
674.3626	0.0114
674.5465	0.0035
674.7304	-0.0349
674.9143	0.0114
675.0982	-0.0014
675.2821	0.0033
675.4659	-0.0007
675.6497	-0.0042
675.8335	0.0002
676.0173	0.0202
676.2011	-0.0005
676.3849	-0.0156
676.5686	0.0019
676.7523	-0.0005
676.936	-0.019
677.1197	-0.0023
677.3034	0.0172
677.487	-0.0131
677.6706	0.0081
677.8542	0.0019
678.0378	0.0059
678.2214	0.0046
678.405	0.0152
678.5885	-0.0063
678.772	-0.0051
678.9555	-0.0049
679.139	-0.0023
679.3225	-0.021
679.5059	-0.0024
679.6894	-0.0215
679.8728	-0.0075
680.0562	-0.0016
680.2395	-0.0003
680.4229	-0.0069
680.6062	-0.0051
680.7896	0.0116
680.9729	-0.0003
681.1562	-0.0225
681.3394	0.0036
681.5227	-0.0266
681.7059	-0.0283
681.8891	0.0226
682.0723	-0.0155
682.2555	0.0113
682.4387	0.0058
682.6218	-0.0068
682.805	-0.0025
682.9881	0.0055
683.1712	-0.0001
683.3542	-0.0218
683.5373	-0.0017
683.7203	-0.0021
683.9034	0.0112
684.0864	-0.0098
684.2694	0.0122
684.4523	0.005
684.6353	0.0078
684.8182	-0.0031
685.0011	0.0003
685.184	0.0028
685.3669	-0.0073
685.5498	0.001
685.7326	-0.0124
685.9154	-0.0009
686.0982	0.0095
686.281	-0.0005
686.4638	-0.009
686.6465	-0.0082
686.8293	-0.0015
687.012	-0.0109
687.1947	-0.0005
687.3774	0.0113
687.56	-0.0103
687.7427	0.0039
687.9253	-0.0026
688.1079	0.0075
688.2905	0.0073
688.4731	0.0283
688.6556	0.0031
688.8382	0.0093
689.0207	-0.0049
689.2032	-0.0194
689.3857	-0.0105
689.5681	-0.0052
689.7506	-0.0119
689.933	-0.0089
690.1154	-0.0031
690.2978	0.0066
690.4802	0.0069
690.6626	-0.0097
690.8449	-0.0071
691.0272	-0.0114
691.2095	-0.0033
691.3918	-0.0089
691.5741	0.019
691.7563	0.0015
691.9386	-0.022
692.1208	0.0001
692.303	0.0052
692.4852	0.0134
692.6673	0.0016
692.8495	0.0009
693.0316	-0.0049
693.2137	0.0409
693.3958	-0.0121
693.5778	-0.002
693.7599	-0.0299
693.9419	0.018
694.1239	-0.0314
694.3059	-0.0188
694.4879	-0.0048
694.6699	0.0209
694.8518	0.0015
695.0337	-0.0029
695.2157	-0.0106
695.3975	-0.0071
695.5794	-0.0058
695.7613	0.0385
695.9431	-0.0314
696.1249	-0.0271
696.3067	-0.0094
696.4885	-0.0013
696.6703	0.0024
696.852	-0.0116
697.0337	0.004
697.2154	0.019
697.3971	-0.0037
697.5788	0.0174
697.7605	-0.0008
697.9421	-0.0042
698.1237	0.0035
698.3053	0.0031
698.4869	-0.0036
698.6685	-0.0068
698.85	0.0043
699.0315	-0.0119
699.213	0.0047
699.3945	0.0182
699.576	-0.012
699.7575	-0.0025
699.9389	-0.0204
700.1203	-0.0047
700.3017	-0.0052
700.4831	0.0051
700.6645	0.0136
700.8458	0.0201
701.0271	0.0015
701.2084	-0.023
701.3897	0.0076
701.571	-0.0105
701.7523	-0.0218
701.9335	0.0257
702.1147	-0.011
702.2959	0.0207
702.4771	0.0027
702.6583	-0.0089
702.8394	0.0143
703.0205	0.0037
703.2016	-0.0137
703.3827	0.0047
703.5638	-0.0202
703.7449	-0.021
703.9259	0.0074
704.1069	0.0108
704.2879	0.0339
704.4689	0.0118
704.6499	-0.0285
704.8308	-0.0294
705.0117	-0.0374
705.1927	-0.0108
705.3735	0.0101
705.5544	-0.003
705.7353	0.0027
705.9161	0.0023
706.0969	0.0134
706.2777	0.0094
706.4585	-0.012
706.6393	0.0049
706.82	-0.0019
707.0007	0.0043
707.1815	0.0172
707.3621	-0.0135
707.5428	0.0045
707.7235	0.01
707.9041	-0.0234
708.0847	-0.0052
708.2653	-0.0016
708.4459	-0.01
708.6265	-0.0173
708.807	0.0065
708.9875	-0.0009
709.168	0.0085
709.3485	-0.0106
709.529	0.0132
709.7095	-0.0165
709.8899	0.0115
710.0703	0.0021
710.2507	-0.0065
710.4311	0.006
710.6115	-0.0037
710.7918	-0.0164
710.9721	-0.0016
711.1524	0.001
711.3327	0.0022
711.513	0.0123
711.6932	-0.0376
711.8735	0.0044
712.0537	-0.0079
712.2339	0.015
712.4141	0.0206
712.5942	-0.0002
712.7744	-0.025
712.9545	0.0142
713.1346	-0.0113
713.3147	-0.0044
713.4947	0.0209
713.6748	-0.0189
713.8548	-0.0013
714.0348	0.0109
714.2148	-0.0089
714.3948	-0.0022
714.5748	-0.0201
714.7547	0.0056
714.9346	-0.0053
715.1145	0.0053
715.2944	-0.0096
715.4743	-0.0284
715.6541	-0.0154
715.834	0.0067
716.0138	0.023
716.1936	-0.048
716.3733	-0.0017
716.5531	0.0025
716.7328	-0.0116
716.9126	-0.0018
717.0923	0.0129
717.2719	0.006
717.4516	-0.0217
717.6312	-0.0112
717.8109	0.0138
717.9905	-0.0176
718.1701	-0.0376
718.3496	-0.0029
718.5292	-0.0155
718.7087	0.0152
718.8882	0.0347
719.0677	0.0125
719.2472	0.0041
719.4267	0.0047
719.6061	-0.0107
719.7856	0.0007
719.965	0.0147
720.1443	-0.0077
720.3237	0.0106
720.5031	0.0294
720.6824	-0.0055
720.8617	0.0006
721.041	0.0118
721.2203	0.001
721.3995	-0.0207
721.5788	-0.0018
721.758	-0.0085
721.9372	-0.0046
722.1164	0.0227
722.2956	0.0016
722.4747	0.0029
722.6538	0.0003
722.8329	-0.0258
723.012	0.018
723.1911	0.0192
723.3702	-0.032
723.5492	0.0083
723.7282	0.0015
723.9072	-0.0213
724.0862	-0.0329
724.2652	-0.0056
724.4441	-0.022
724.623	-0.0353
724.8019	-0.0031
724.9808	-0.0163
725.1597	0.0002
725.3385	-0.0019
725.5174	0.0542
725.6962	0.0145
725.875	0.0026
726.0538	0.0147
726.2325	-0.0164
726.4112	0.0165
726.59	0.0199
726.7687	0.0018
726.9474	0.0148
727.126	-0.0051
727.3047	0.0069
727.4833	0.0373
727.6619	0.009
727.8405	0.0135
728.0191	-0.0567
728.1976	-0.048
728.3762	-0.0279
728.5547	0.0179
728.7332	-0.0176
728.9116	-0.0442
729.0901	0.0203
729.2686	-0.0296
729.447	-0.0224
729.6254	0.0049
729.8038	-0.0138
729.9821	0.0176
730.1605	-0.0026
730.3388	-0.0193
730.5171	-0.004
730.6954	0.0136
730.8737	0.0277
731.0519	0.0116
731.2302	0.0114
731.4084	-0.0029
731.5866	-0.024
731.7648	0.0033
731.9429	-0.0152
732.1211	-0.0201
732.2992	-0.0072
732.4773	-0.0107
732.6554	-0.0007
732.8335	0.0071
733.0115	-0.0168
733.1896	-0.0195
733.3676	0.0152
733.5456	0.005
733.7235	0.0066
733.9015	-0.0084
734.0794	-0.0136
734.2574	0.0178
734.4353	0.0073
734.6131	-0.0001
734.791	0.0114
734.9689	0.0047
735.1467	0.0004
735.3245	-0.0009
735.5023	0.0051
735.68	-0.0089
735.8578	-0.0117
736.0355	0.0043
736.2132	0.0127
736.3909	-0.0211
736.5686	0.0023
736.7463	-0.0199
736.9239	-0.0039
737.1015	0.0033
737.2791	-0.0038
737.4567	0.0079
737.6343	0.0038
737.8118	-0.0038
737.9894	0.0016
738.1669	-0.0078
738.3444	-0.0127
738.5218	0.0097
738.6993	0.0056
738.8767	0.0002
739.0541	0.0119
739.2315	0.0031
739.4089	0.0126
739.5863	0.0012
739.7636	0.0092
739.9409	0.0002
740.1182	0.0098
740.2955	-0.0476
740.4728	0.0211
740.65	-0.0333
740.8272	-0.0188
741.0044	0.0008
741.1816	0.024
741.3588	-0.0083
741.5359	0.0508
741.7131	0.0222
741.8902	-0.0263
742.0673	0.0221
742.2444	-0.011
742.4214	-0.0049
742.5985	0.0311
742.7755	-0.0056
742.9525	-0.0069
743.1295	-0.0404
743.3064	0.019
743.4834	-0.0012
743.6603	-0.0007
743.8372	-0.0229
744.0141	0.0384
744.191	0.0072
744.3678	0.0145
744.5446	0.0007
744.7215	-0.0197
744.8982	-0.0035
745.075	0.0084
745.2518	-0.0346
745.4285	-0.0455
745.6052	0.0315
745.7819	0.0075
745.9586	0.0089
746.1353	-0.02
746.3119	-0.0118
746.4885	0.0085
746.6651	-0.0352
746.8417	-0.0267
747.0183	0.0003
747.1948	-0.0069
747.3714	0.0317
747.5479	-0.0134
747.7244	-0.0233
747.9008	0.0057
748.0773	-0.0013
748.2537	-0.0041
748.4301	0.0023
748.6065	-0.0344
748.7829	0.0175
748.9593	-0.007
749.1356	0.0135
749.3119	0.0063
749.4882	0.0101
749.6645	0.002
749.8408	-0.0141
750.017	-0.0134
750.1933	0.0262
750.3695	0.0243
750.5457	0.0002
750.7218	0.0224
750.898	-0.0208
751.0741	0.0128
751.2502	0.0191
751.4263	0.0057
751.6024	-0.0111
751.7784	-0.0389
751.9545	-0.0449
752.1305	-0.0044
752.3065	0.0291
752.4825	-0.0365
752.6584	-0.0146
752.8344	0.0076
753.0103	-0.0279
753.1862	-0.0015
753.3621	-0.0187
753.5379	0.0137
753.7138	-0.0235
753.8896	0.0194
754.0654	-0.0013
754.2412	0.0002
754.417	0.0148
754.5927	0.0147
754.7685	-0.0271
754.9442	0.0008
755.1199	-0.0246
755.2956	0.0101
755.4712	-0.015
755.6469	-0.0096
755.8225	0.0293
755.9981	0.0079
756.1736	0.0213
756.3492	-0.0178
756.5248	-0.0129
756.7003	-0.0126
756.8758	-0.0195
757.0513	-0.0087
757.2267	-0.0047
757.4022	-0.0094
757.5776	-0.0161
757.753	0.0041
757.9284	-0.0006
758.1038	-0.0007
758.2791	-0.0112
758.4545	-0.0123
758.6298	-0.024
758.8051	-0.0084
758.9803	-0.0129
759.1556	-0.0144
759.3308	-0.0192
759.506	0.0099
759.6812	-0.0034
759.8564	-0.0218
760.0316	-0.0066
760.2067	-0.0114
760.3819	-0.0036
760.557	-0.0121
760.732	0.0117
760.9071	0.0001
761.0821	0.0072
761.2572	-0.0076
761.4322	-0.0061
761.6072	-0.0109
761.7821	0.0231
761.9571	0.0078
762.132	0.0066
762.3069	0.0006
762.4818	0.041
762.6567	-0.0034
762.8316	-0.0016
763.0064	-0.0198
763.1812	-0.0347
763.356	0.0058
763.5308	-0.0118
763.7055	-0.0042
763.8803	0.0084
764.055	-0.0309
764.2297	-0.012
764.4044	-0.0127
764.579	0.002
764.7537	-0.0064
764.9283	-0.0317
765.1029	0.0204
765.2775	-0.0531
765.4521	0.0123
765.6266	-0.015
765.8011	-0.0262
765.9756	0.0163
766.1501	-0.011
766.3246	-0.0091
766.4991	-0.0284
766.6735	0.0063
766.8479	0.0069
767.0223	0.007
767.1967	-0.014
767.371	-0.0114
767.5454	-0.0074
767.7197	-0.0081
767.894	0.0011
768.0683	-0.0172
768.2425	0.0138
768.4168	0.0165
768.591	-0.0037
768.7652	-0.0084
768.9394	0.005
769.1135	-0.0106
769.2877	0.0207
769.4618	-0.0044
769.6359	0.0032
769.81	-0.0143
769.984	0.0133
770.1581	0.0124
770.3321	-0.0289
770.5061	0.0227
770.6801	-0.0041
770.8541	-0.0252
771.028	-0.016
771.202	-0.0202
771.3759	-0.0096
771.5498	0.0074
771.7236	0.0159
771.8975	-0.0223
772.0713	-0.0031
772.2451	-0.0007
772.4189	0.0084
772.5927	0.0008
772.7665	0.0059
772.9402	0.0172
773.1139	0.018
773.2876	0.0014
773.4613	0.0105
773.635	0.0049
773.8086	-0.0291
773.9822	-0.0266
774.1558	-0.0097
774.3294	-0.0768
774.503	0.0004
774.6765	0.0086
774.8501	0.0064
775.0236	0.0237
775.1971	-0.0011
775.3705	0.0094
775.544	0.0086
775.7174	-0.0058
775.8908	0.0435
776.0642	0.0376
776.2376	-0.0167
776.4109	0.0455
776.5843	-0.0214
776.7576	0.0216
776.9309	0.0199
777.1041	0.0014
777.2774	-0.007
777.4506	-0.0134
777.6238	0.0259
777.797	-0.0216
777.9702	0.0206
778.1434	0.0132
778.3165	-0.0182
778.4896	-0.0061
778.6627	0.0145
778.8358	-0.0056
779.0089	-0.0186
779.1819	0.0044
779.3549	0.0278
779.5279	0.0056
779.7009	-0.0025
779.8739	-0.0669
780.0468	0.0291
780.2197	-0.0568
780.3926	-0.0401
780.5655	-0.0302
780.7384	0.0081
780.9112	-0.0002
781.0841	-0.0046
781.2569	-0.0016
781.4297	0.0098
781.6024	0.0022
781.7752	-0.0288
781.9479	0.0059
782.1206	-0.0215
782.2933	-0.0315
782.466	-0.0088
782.6386	0.0084
782.8113	-0.0259
782.9839	0.0197
783.1565	-0.0172
783.329	0.0038
783.5016	0.0188
783.6741	-0.0046
783.8466	-0.0595
784.0191	-0.0117
784.1916	0.0187
784.3641	-0.0208
784.5365	-0.0069
784.7089	-0.0276
784.8813	0.0537
785.0537	0.0019
785.2261	-0.0125
785.3984	-0.0105
785.5707	0.029
785.743	-0.0375
785.9153	0.0109
786.0876	-0.0244
786.2598	-0.0061
786.432	-0.0095
786.6042	0.0435
786.7764	0.0084
786.9486	0.0217
787.1207	0.0029
787.2928	-0.0191
787.4649	0.0206
787.637	0.0131
787.8091	-0.0181
787.9811	-0.0043
788.1532	0.0039
788.3252	-0.0248
788.4972	0.0147
788.6691	0.0473
788.8411	-0.0132
789.013	0.0057
789.1849	-0.0283
789.3568	0.0213
789.5287	-0.0485
789.7005	0.0236
789.8723	-0.0473
790.0442	-0.0667
790.2159	0.0462
790.3877	0.0024
790.5595	-0.0199
790.7312	-0.0025
790.9029	0.015
791.0746	-0.0116
791.2463	-0.0198
791.4179	-0.0213
791.5896	-0.0386
791.7612	-0.0244
791.9328	-0.0132
792.1044	-0.0054
792.2759	0.0224
792.4474	0.0166
792.619	-0.0335
792.7905	-0.0217
792.9619	0.0534
793.1334	-0.0558
793.3048	-0.0103
793.4762	-0.0417
793.6476	-0.0108
793.819	-0.0127
793.9904	-0.0026
794.1617	-0.0342
794.333	-0.0454
794.5043	-0.004
794.6756	0.0273
794.8469	0.0556
795.0181	-0.0395
795.1893	-0.024
795.3605	-0.0297
795.5317	-0.0026
795.7029	0.0144
795.874	0.0015
796.0452	-0.0272
796.2163	0.0765
796.3873	0.0587
796.5584	0.0189
796.7294	-0.1133
796.9005	-0.0409
797.0715	-0.0206
797.2425	-0.0034
797.4134	-0.0258
797.5844	0.0274
797.7553	-0.0172
797.9262	0.0062
798.0971	-0.0199
798.2679	0.0043
798.4388	-0.0594
798.6096	0.0038
798.7804	0.0072
798.9512	0.0007
799.122	0.017
799.2927	-0.1232
799.4635	0.0959
799.6342	-0.0286
799.8049	0.0046
799.9755	-0.0211
800.1462	0.0286
800.3168	0.0348
800.4874	-0.0048
800.658	0.0672
800.8286	-0.0142
800.9991	0.0205
801.1696	-0.0446
801.3402	-0.0397
801.5106	-0.071
801.6811	-0.0339
801.8516	-0.03
802.022	-0.0455
802.1924	-0.0787
802.3628	-0.0599
802.5332	-0.107
802.7035	-0.0616
802.8739	0.0256
803.0442	0.0117
803.2145	-0.0424
803.3847	-0.0061
803.555	-0.0329
803.7252	-0.0327
803.8954	0.0099
804.0656	0.0454
804.2358	0.0626
804.4059	0.0504
804.5761	-0.0455
804.7462	-0.0451
804.9163	-0.0814
805.0864	-0.0523
805.2564	0.0085
805.4264	-0.0788
805.5965	0.0429
805.7665	0.0213
805.9364	-0.0092
806.1064	-0.036
806.2763	0.0045
806.4462	-0.0148
806.6161	-0.0253
806.786	-0.0363
806.9559	0.0277
807.1257	-0.0401
807.2955	0.03
807.4653	-0.068
807.6351	-0.0628
807.8048	-0.0495
807.9746	0.005
808.1443	-0.0137
808.314	-0.0074
808.4837	0.0198
808.6533	-0.0064
808.8229	-0.0791
808.9926	-0.0296
809.1622	-0.0298
809.3317	-0.0498
809.5013	0.0102
809.6708	0.0101
809.8403	0.0812
810.0098	0.1043
810.1793	0.0145
810.3488	0.0337
810.5182	-0.0486
810.6876	0.0442
810.857	-0.1194
811.0264	-0.0663
811.1958	0.0626
811.3651	-0.0333
811.5344	-0.001
811.7037	-0.091
811.873	0.0407
812.0422	0.0231
812.2115	0.0887
812.3807	-0.044
812.5499	0.0728
812.7191	-0.0592
812.8882	-0.114
813.0574	-0.1931
813.2265	0.1724
813.3956	-0.0667
813.5646	-0.0035
813.7337	-0.1082
813.9027	-0.0217
814.0718	0.0009
814.2407	-0.1279
814.4097	-0.0603
814.5787	-0.0557
814.7476	0.0457
814.9165	-0.0147
815.0854	0.0264
815.2543	-0.0405
815.4232	-0.0795
815.592	0.1791
815.7608	-0.0226
815.9296	0.0071
816.0984	0.1481
816.2671	0.0415
816.4359	0.0604
816.6046	-0.0039
816.7733	-0.0609
816.942	0.0036
817.1106	-0.1905
817.2793	-0.0654
817.4479	-0.0095
817.6165	-0.0528
817.785	-0.0481
817.9536	0.0488
818.1221	0.0212
818.2906	0.117
818.4591	-0.056
818.6276	-0.0454
818.7961	0.0631
818.9645	0.098
819.1329	0.0806
819.3013	-0.0379
819.4697	-0.0121
819.638	-0.1346
819.8064	-0.0563
819.9747	-0.1672
820.143	0.0686
820.3113	0.0139
820.4795	0.0574
820.6477	-0.0972
820.816	-0.0449
820.9842	-0.0706
821.1523	0.08
821.3205	-0.0689
821.4886	-0.0273
821.6567	0.0033
821.8248	-0.0595
821.9929	0.03
822.1609	0.1817
822.329	0.0344
822.497	-0.0291
822.665	0.15
822.833	-0.0791
823.0009	-0.1904
823.1688	-0.0347
823.3367	-0.079
823.5046	0.0728
823.6725	-0.012
823.8404	0.0146
824.0082	0.0488
824.176	0.0668
824.3438	-0.0133
824.5116	0.19
824.6793	0.0393
824.847	-0.1305
825.0147	0.351
825.1824	0.0839
825.3501	-0.1137
825.5177	0.0868
825.6854	0.2088
825.853	0.0242
826.0206	-0.132
826.1881	-0.0056
826.3557	0.1796
826.5232	-0.0042
826.6907	0.0884
826.8582	-0.2397
827.0257	0.0259
827.1931	-0.0662
827.3605	-0.1891
827.528	-0.0873
827.6953	0.0541
827.8627	-0.0998
828.03	0.0219
828.1974	-0.0257
828.3647	0.0871
828.532	0.1424
828.6992	0.046
828.8665	-0.0329
829.0337	-0.0746
829.2009	0.1767
829.3681	0.0739
829.5352	0.135
829.7024	0.003
829.8695	-0.0893
830.0366	0.1681
830.2037	-0.0416
830.3707	-0.1123
830.5378	0.0478
830.7048	-0.3077
830.8718	-0.0525
831.0388	0.0237
831.2057	-0
831.3727	0.1057
831.5396	-0.1573
831.7065	0.3066
831.8734	-0.1878
832.0402	0.1751
832.2071	0.3128
832.3739	0.2715
832.5407	-0
832.7075	0.2461
832.8742	-0.0673
833.041	0.1707
833.2077	-0.0741
833.3744	-0.1293
833.541	-0.0424
833.7077	0.0684
833.8743	-0.0881
834.0409	0.0564
834.2075	-0.0327
834.3741	-0.0175
834.5407	0.2127
834.7072	0.1731
834.8737	-0.0244
835.0402	-0.0897
835.2067	0.1457
835.3731	-0.0379
835.5395	-0.0504
835.706	-0.0673
835.8723	-0.2478
836.0387	0.1744
836.2051	0.1779
836.3714	-0.3683
836.5377	0.1104
836.704	-0.0225
836.8703	0.069
837.0365	-0.1749
837.2027	-0.291
837.3689	-0.0307
837.5351	-0.3218
837.7013	0.2169
837.8674	-0.8583
838.0335	0.0129
838.1997	0.1426
838.3657	-0
838.5318	-0.0214
838.6978	-0
838.8639	-0.0243
839.0299	0.1278
839.1958	0.4145
839.3618	1.8685
839.5277	-0.2518
839.6937	-0.6364
839.8596	-0.0661
840.0254	0.0337
840.1913	0.8304
840.3571	-0.4243
840.523	-0.0046
840.6888	-0.0407
840.8545	-0.1504
841.0203	-0.0323
841.186	0.2079
841.3517	-0.0401
841.5174	0.0161
841.6831	0.1504
841.8488	0.0603
842.0144	0.1743
842.18	-0.096
842.3456	0.1204
842.5112	-0
842.6767	-0.4461
842.8422	0.0512
843.0077	-0.039
843.1732	-0.3247
843.3387	-0.452
843.5042	-0.0954
843.6696	0.2088
843.835	-0.2661
844.0004	0.0103
844.1657	-0
844.3311	-0.4878
844.4964	-0.0259
844.6617	-0
844.827	0.3627
844.9923	-0.0033
845.1575	-0
845.3227	-0.1518
845.4879	-0.1201
845.6531	0.0996
845.8183	-0
845.9834	-0
846.1485	-0.1739
846.3136	0.0466
846.4787	0.7631
846.6438	-0
846.8088	-0.97
846.9738	0.2135
847.1388	0.0512
847.3038	0.3128
847.4687	0.0714
847.6337	0.194
847.7986	0.4178
847.9635	0.0845
848.1284	0.0925
848.2932	-0.1851
848.458	-0.0805
848.6228	-0.0058
848.7876	-0
848.9524	-0.3239
849.1172	-0.3769
849.2819	-0
849.4466	0.0954
849.6113	-0.0305
849.7759	-0
849.9406	-0.3326
850.1052	-0
850.2698	-0.6564
850.4344	-0.3071
850.599	0.447
850.7635	0.8293
850.928	0.0415
851.0925	0.1174
851.257	0.0553
851.4215	-0
851.5859	-0.1431
851.7503	-0
851.9147	-0
852.0791	-0.5739
852.2434	-0.1096
852.4078	-0
852.5721	-0
852.7364	-0.016
852.9007	-0.2592
853.0649	-0
853.2291	-0.2232
853.3934	0.0937
853.5575	-0.2568
853.7217	-0.054
853.8859	-0
854.05	-0.9671
854.2141	-0
854.3782	0.972
854.5423	-0.8134
854.7063	-0.1532
854.8703	0.1371
855.0343	-0.0998
855.1983	-0.2191
855.3623	0.2477
855.5262	-0.1037
855.6901	-0.0468
855.854	0.3337
856.0179	-0
856.1818	-0.5558
856.3456	-0.0404
856.5094	-0.5089
856.6732	-0
856.837	-0.0024
857.0008	-0.0308
857.1645	-0
857.3282	-0.0499
857.4919	-0.0035
857.6556	-0
857.8192	-0.2694
857.9828	-0.406
858.1465	0.2228
858.31	-0
858.4736	0.6364
858.6372	-0.4453
858.8007	-1.5436
858.9642	0.2283
859.1277	-0
859.2911	-0.0261
859.4546	1.6846
859.618	0.0091
859.7814	-0.3276
859.9448	0.0124
860.1081	-0
860.2715	-0.6536
860.4348	0.02
860.5981	-0.6478
860.7614	-0.2232
860.9246	-0.0356
861.0879	-0.3468
861.2511	-0
861.4143	0.7233
861.5774	0.2544
861.7406	-0
861.9037	1.7354
862.0668	-0.3988
862.2299	-1.797
862.393	-0
862.556	0.6252
862.7191	0.4213
862.8821	-0.4807
863.0451	-0.0106
863.208	-0.1615
863.371	0.3603
863.5339	-0.2158
863.6968	0.2642
863.8597	-0
864.0225	-0
864.1854	0.1062
864.3482	-0
864.511	0.3268
864.6737	0.5531
864.8365	-0.1429
864.9992	-0
865.1619	0.0797
865.3246	-0.2992
865.4873	-0
865.65	-1.0153
865.8126	0.2996
865.9752	-0.162
866.1378	-0.8444
866.3004	-0
866.4629	-0.1869
866.6254	-0.8113
866.7879	-0
866.9504	-0.9154
867.1129	-0
867.2753	-0.1784
867.4377	1.9973
867.6001	-0
867.7625	-0.3502
867.9249	0.2761
868.0872	-0
868.2495	0.3234
868.4118	0.276
868.5741	-0
868.7363	0.1216
868.8986	-0.2977
869.0608	0.3116
869.223	0.9968
869.3851	-0
869.5473	-1.4162
869.7094	0.0159
869.8715	-0.1331
870.0336	0.0031
870.1957	-0.5307
870.3577	-0.4053
870.5197	-0.0388
870.6817	-0
870.8437	0.2118
871.0057	-0
871.1676	0.0259
871.3295	-0
871.4914	0.0134
871.6533	-0.1288
871.8151	-0.283
871.977	0.1743
872.1388	-0.8802
872.3006	-0.129
872.4623	-0.5861
872.6241	-1.7377
872.7858	-0.1978
872.9475	-0.7976
873.1092	0.8274
873.2709	0.071
873.4325	-0
873.5941	-0.7592
873.7557	1.3064
873.9173	-1.1686
874.0789	0.1075
874.2404	0.3672
874.4019	-0.0035
874.5634	0.1655
874.7249	-0
874.8863	1.4191
875.0478	0.2319
875.2092	-0.2554
875.3706	0.3255
875.5319	-0
875.6933	-0.0844
875.8546	-0
876.0159	0.1019
876.1772	-0
876.3385	-0
876.4997	0.2376
876.6609	-0
876.8221	0.286
876.9833	0.0538
877.1445	-0.1652
877.3056	0.6489
877.4667	-0
877.6278	-0
877.7889	0.6838
877.9499	-0.405
878.111	0.0839
878.272	-0.142
878.433	1.3299
878.5939	-0
878.7549	-0.4979
878.9158	-0.1849
879.0767	-0.2673
879.2376	-0
879.3984	-0.2206
879.5593	-0.4545
879.7201	-0.0325
879.8809	-0
880.0417	0.2802
880.2024	0.3207
880.3632	-0.2573
880.5239	0.5608
880.6846	0.4019
880.8452	0.7647
881.0059	-0
881.1665	0.0979
881.3271	-0.1964
881.4877	-0.1221
881.6483	-1.5923
881.8088	0.0763
881.9693	0.317
882.1298	0.317
882.2903	0.317
