Data from D4ACN5uM480nmA_Absorbance_12-08-02-110.txt Node
Date: Fri Feb 21 12:08:02 GMT 2025
User: LASERRRRR
Spectrometer: FLMT03099
Trigger mode: 0
Integration Time (sec): 1.500000E-2
Scans to average: 1
Electric dark correction enabled: true
Nonlinearity correction enabled: false
Boxcar width: 0
XAxis mode: Wavelengths
Number of Pixels in Spectrum: 3648
>>>>>Begin Spectral Data<<<<<
179.3399	0.2359
179.5586	0.2359
179.7771	0.2359
179.9957	0.144
180.2143	-0
180.4329	0.453
180.6514	-0.5105
180.8699	0.3123
181.0885	0.3395
181.307	0.0194
181.5255	0.3939
181.744	-0
181.9625	0.0804
182.181	0.341
182.3994	-0
182.6179	-0
182.8363	-0
183.0547	-0
183.2732	0.1224
183.4916	0.1813
183.71	0.1485
183.9284	0.1615
184.1467	0.2106
184.3651	0.2251
184.5835	0.1016
184.8018	0.0842
185.0201	0.1892
185.2385	0.1615
185.4568	0.3402
185.6751	0.2438
185.8934	0.3454
186.1117	0.2324
186.3299	0.0967
186.5482	0.0611
186.7664	0.4307
186.9847	0.2762
187.2029	0.1276
187.4211	0.2765
187.6393	0.1384
187.8575	0.1053
188.0757	0.5126
188.2939	0.0403
188.512	0.1863
188.7302	0.0311
188.9483	0.2671
189.1665	0.65
189.3846	0.4159
189.6027	-0.0244
189.8208	0.2186
190.0389	0.2842
190.257	0.1979
190.475	0.1269
190.6931	0.0522
190.9111	0.6479
191.1292	0.4163
191.3472	0.4596
191.5652	0.2406
191.7832	0.2574
192.0012	0.2769
192.2192	0.2537
192.4371	0.3005
192.6551	0.347
192.873	0.2968
193.091	0.2384
193.3089	0.1295
193.5268	0.3795
193.7447	0.3125
193.9626	0.3529
194.1805	0.3137
194.3984	0.5326
194.6162	0.3904
194.8341	0.7606
195.0519	0.3954
195.2697	0.5238
195.4875	0.7012
195.7054	0.5172
195.9231	0.3627
196.1409	0.4956
196.3587	0.4868
196.5765	0.4115
196.7942	0.6041
197.012	0.5165
197.2297	0.4952
197.4474	0.7013
197.6651	0.5549
197.8828	0.5919
198.1005	0.6269
198.3182	0.5988
198.5358	0.5683
198.7535	0.6193
198.9711	0.4666
199.1888	0.6687
199.4064	0.646
199.624	0.6156
199.8416	0.6177
200.0592	0.5708
200.2767	0.5817
200.4943	0.6214
200.7119	0.5147
200.9294	0.5661
201.1469	0.6264
201.3645	0.5976
201.582	0.5479
201.7995	0.6114
202.017	0.5455
202.2344	0.5548
202.4519	0.5832
202.6694	0.6362
202.8868	0.5325
203.1042	0.5689
203.3217	0.4875
203.5391	0.5664
203.7565	0.475
203.9739	0.5496
204.1913	0.5111
204.4086	0.4839
204.626	0.4831
204.8433	0.4992
205.0607	0.4506
205.278	0.5067
205.4953	0.4707
205.7126	0.4857
205.9299	0.4167
206.1472	0.4677
206.3644	0.4799
206.5817	0.5233
206.7989	0.4575
207.0162	0.3948
207.2334	0.4131
207.4506	0.435
207.6678	0.4111
207.885	0.4389
208.1022	0.4499
208.3194	0.4423
208.5365	0.4536
208.7537	0.4524
208.9708	0.4468
209.1879	0.4333
209.405	0.4163
209.6222	0.3903
209.8392	0.4095
210.0563	0.4099
210.2734	0.3926
210.4905	0.3877
210.7075	0.4299
210.9245	0.3808
211.1416	0.4281
211.3586	0.3959
211.5756	0.4171
211.7926	0.4254
212.0096	0.3767
212.2265	0.405
212.4435	0.4076
212.6604	0.4102
212.8774	0.4231
213.0943	0.4385
213.3112	0.4041
213.5281	0.3936
213.745	0.4012
213.9619	0.388
214.1788	0.3776
214.3956	0.408
214.6125	0.4098
214.8293	0.3897
215.0461	0.4196
215.2629	0.408
215.4798	0.4128
215.6965	0.4075
215.9133	0.417
216.1301	0.3834
216.3469	0.3915
216.5636	0.3858
216.7803	0.425
216.9971	0.4211
217.2138	0.4195
217.4305	0.4265
217.6472	0.4075
217.8639	0.4109
218.0805	0.3914
218.2972	0.4249
218.5138	0.4283
218.7305	0.4186
218.9471	0.4097
219.1637	0.4208
219.3803	0.4157
219.5969	0.4151
219.8135	0.4357
220.0301	0.4073
220.2466	0.4202
220.4632	0.4068
220.6797	0.4162
220.8962	0.4241
221.1127	0.4161
221.3292	0.4325
221.5457	0.4162
221.7622	0.426
221.9787	0.4323
222.1951	0.4358
222.4116	0.4442
222.628	0.434
222.8444	0.4271
223.0608	0.4409
223.2772	0.4383
223.4936	0.4325
223.71	0.4502
223.9264	0.4519
224.1427	0.4486
224.3591	0.4491
224.5754	0.4553
224.7917	0.4453
225.008	0.4723
225.2243	0.4586
225.4406	0.45
225.6569	0.4646
225.8732	0.4648
226.0894	0.4687
226.3057	0.4604
226.5219	0.4489
226.7381	0.4685
226.9543	0.4635
227.1705	0.4752
227.3867	0.4791
227.6029	0.4766
227.8191	0.4759
228.0352	0.4889
228.2513	0.4841
228.4675	0.4895
228.6836	0.5062
228.8997	0.5096
229.1158	0.4802
229.3319	0.4856
229.548	0.4896
229.764	0.502
229.9801	0.5027
230.1961	0.5072
230.4121	0.4982
230.6282	0.5097
230.8442	0.5134
231.0602	0.5172
231.2761	0.5042
231.4921	0.5243
231.7081	0.529
231.924	0.514
232.14	0.5207
232.3559	0.5279
232.5718	0.5245
232.7877	0.5246
233.0036	0.5119
233.2195	0.5249
233.4353	0.5282
233.6512	0.5309
233.867	0.5286
234.0829	0.5344
234.2987	0.5272
234.5145	0.5385
234.7303	0.5392
234.9461	0.5328
235.1619	0.5314
235.3776	0.5325
235.5934	0.533
235.8091	0.5236
236.0249	0.5409
236.2406	0.532
236.4563	0.5446
236.672	0.5315
236.8877	0.5452
237.1034	0.5398
237.319	0.5364
237.5347	0.5298
237.7503	0.5313
237.966	0.519
238.1816	0.5333
238.3972	0.5414
238.6128	0.5438
238.8284	0.5467
239.0439	0.5342
239.2595	0.5304
239.475	0.5347
239.6906	0.5188
239.9061	0.524
240.1216	0.5283
240.3371	0.5114
240.5526	0.5203
240.7681	0.526
240.9836	0.5183
241.199	0.5146
241.4145	0.4967
241.6299	0.495
241.8453	0.4904
242.0607	0.4878
242.2761	0.4808
242.4915	0.471
242.7069	0.4582
242.9223	0.4599
243.1376	0.4477
243.353	0.4479
243.5683	0.4458
243.7836	0.4298
243.9989	0.4215
244.2142	0.4122
244.4295	0.4094
244.6448	0.3977
244.86	0.3947
245.0753	0.3782
245.2905	0.3774
245.5057	0.3657
245.721	0.3597
245.9362	0.3525
246.1514	0.336
246.3665	0.3341
246.5817	0.3352
246.7969	0.3231
247.012	0.3229
247.2271	0.3076
247.4423	0.3016
247.6574	0.3026
247.8725	0.296
248.0876	0.2961
248.3026	0.2852
248.5177	0.2761
248.7328	0.2837
248.9478	0.2713
249.1628	0.2643
249.3779	0.2645
249.5929	0.2618
249.8079	0.2509
250.0228	0.2456
250.2378	0.2578
250.4528	0.2515
250.6677	0.2379
250.8827	0.2406
251.0976	0.2416
251.3125	0.234
251.5274	0.2289
251.7423	0.2295
251.9572	0.2196
252.172	0.2204
252.3869	0.2182
252.6017	0.2149
252.8166	0.2162
253.0314	0.2154
253.2462	0.2187
253.461	0.2138
253.6758	0.2071
253.8906	0.2055
254.1053	0.1982
254.3201	0.2044
254.5348	0.2021
254.7496	0.2031
254.9643	0.205
255.179	0.1974
255.3937	0.2001
255.6083	0.1935
255.823	0.2015
256.0377	0.2004
256.2523	0.1991
256.467	0.1974
256.6816	0.1975
256.8962	0.1928
257.1108	0.1902
257.3254	0.1937
257.54	0.1905
257.7545	0.1939
257.9691	0.1915
258.1836	0.1886
258.3981	0.1854
258.6127	0.1819
258.8272	0.1917
259.0417	0.1781
259.2561	0.1825
259.4706	0.1902
259.6851	0.1873
259.8995	0.1809
260.114	0.1832
260.3284	0.1865
260.5428	0.1825
260.7572	0.1847
260.9716	0.189
261.186	0.179
261.4003	0.1838
261.6147	0.181
261.829	0.1744
262.0433	0.1777
262.2577	0.184
262.472	0.1868
262.6863	0.1842
262.9005	0.1917
263.1148	0.1858
263.3291	0.1885
263.5433	0.1839
263.7576	0.1842
263.9718	0.1917
264.186	0.1858
264.4002	0.1864
264.6144	0.189
264.8286	0.187
265.0427	0.1937
265.2569	0.1863
265.471	0.1845
265.6851	0.1869
265.8993	0.1875
266.1134	0.1875
266.3275	0.1791
266.5415	0.1863
266.7556	0.1824
266.9697	0.1807
267.1837	0.1813
267.3978	0.1879
267.6118	0.1863
267.8258	0.1864
268.0398	0.184
268.2538	0.1769
268.4677	0.1802
268.6817	0.1744
268.8957	0.1792
269.1096	0.178
269.3235	0.1841
269.5374	0.1789
269.7514	0.1794
269.9652	0.1776
270.1791	0.1784
270.393	0.1784
270.6068	0.1728
270.8207	0.1789
271.0345	0.1739
271.2483	0.1748
271.4622	0.1792
271.676	0.173
271.8897	0.1666
272.1035	0.1746
272.3173	0.1685
272.531	0.1762
272.7448	0.1689
272.9585	0.178
273.1722	0.1745
273.3859	0.1687
273.5996	0.1711
273.8133	0.1704
274.0269	0.1782
274.2406	0.1747
274.4542	0.1702
274.6679	0.1644
274.8815	0.1681
275.0951	0.176
275.3087	0.1777
275.5223	0.1707
275.7358	0.1769
275.9494	0.1663
276.1629	0.1804
276.3765	0.169
276.59	0.1814
276.8035	0.1766
277.017	0.1809
277.2305	0.1751
277.444	0.1789
277.6574	0.1755
277.8709	0.1819
278.0843	0.1768
278.2978	0.1803
278.5112	0.1807
278.7246	0.1772
278.938	0.1795
279.1513	0.1826
279.3647	0.1805
279.5781	0.1791
279.7914	0.1812
280.0047	0.1772
280.2181	0.1825
280.4314	0.1782
280.6447	0.1865
280.8579	0.1806
281.0712	0.1826
281.2845	0.1904
281.4977	0.1878
281.711	0.1826
281.9242	0.1867
282.1374	0.1829
282.3506	0.187
282.5638	0.1852
282.7769	0.1852
282.9901	0.1867
283.2033	0.1851
283.4164	0.1865
283.6295	0.1805
283.8426	0.1886
284.0557	0.1841
284.2688	0.1953
284.4819	0.1957
284.695	0.187
284.908	0.1876
285.1211	0.1849
285.3341	0.1925
285.5471	0.2006
285.7601	0.1945
285.9731	0.189
286.1861	0.189
286.3991	0.1959
286.612	0.1919
286.825	0.1956
287.0379	0.1926
287.2508	0.1929
287.4637	0.1928
287.6766	0.1971
287.8895	0.1919
288.1024	0.1978
288.3152	0.1962
288.5281	0.1969
288.7409	0.1994
288.9538	0.1974
289.1666	0.1968
289.3794	0.1948
289.5922	0.196
289.8049	0.2027
290.0177	0.1934
290.2304	0.1972
290.4432	0.2029
290.6559	0.195
290.8686	0.1983
291.0813	0.2013
291.294	0.2016
291.5067	0.2043
291.7194	0.199
291.932	0.2025
292.1447	0.1987
292.3573	0.2021
292.5699	0.2009
292.7825	0.1971
292.9951	0.1994
293.2077	0.1967
293.4203	0.2014
293.6328	0.2005
293.8454	0.1952
294.0579	0.2027
294.2704	0.199
294.4829	0.2005
294.6954	0.198
294.9079	0.1989
295.1204	0.1954
295.3328	0.1963
295.5453	0.1925
295.7577	0.1964
295.9701	0.1965
296.1825	0.1977
296.3949	0.2001
296.6073	0.1974
296.8197	0.2018
297.0321	0.1981
297.2444	0.2
297.4567	0.1954
297.6691	0.2017
297.8814	0.1995
298.0937	0.1974
298.306	0.2028
298.5182	0.2043
298.7305	0.1979
298.9428	0.1963
299.155	0.1993
299.3672	0.1983
299.5794	0.1941
299.7916	0.2018
300.0038	0.1986
300.216	0.1993
300.4282	0.1948
300.6403	0.196
300.8525	0.1997
301.0646	0.1978
301.2767	0.1966
301.4888	0.1993
301.7009	0.1974
301.913	0.1972
302.125	0.1977
302.3371	0.1968
302.5491	0.1975
302.7612	0.1967
302.9732	0.1959
303.1852	0.1965
303.3972	0.1933
303.6092	0.1967
303.8211	0.1914
304.0331	0.192
304.245	0.193
304.457	0.1937
304.6689	0.1941
304.8808	0.1907
305.0927	0.1867
305.3046	0.1834
305.5164	0.1862
305.7283	0.1847
305.9401	0.179
306.152	0.1803
306.3638	0.1831
306.5756	0.1849
306.7874	0.1809
306.9992	0.176
307.2109	0.173
307.4227	0.1768
307.6344	0.1699
307.8462	0.1745
308.0579	0.17
308.2696	0.1582
308.4813	0.1568
308.693	0.1648
308.9046	0.1592
309.1163	0.1626
309.328	0.1523
309.5396	0.1559
309.7512	0.1582
309.9628	0.1563
310.1744	0.1552
310.386	0.1514
310.5976	0.1468
310.8091	0.147
311.0207	0.1486
311.2322	0.1464
311.4437	0.1377
311.6552	0.1434
311.8667	0.1382
312.0782	0.1422
312.2897	0.1385
312.5012	0.1364
312.7126	0.1365
312.924	0.139
313.1355	0.1336
313.3469	0.1301
313.5583	0.1339
313.7696	0.1297
313.981	0.1277
314.1924	0.1289
314.4037	0.1191
314.6151	0.1288
314.8264	0.1228
315.0377	0.132
315.249	0.1215
315.4603	0.1182
315.6716	0.1265
315.8828	0.1264
316.0941	0.1179
316.3053	0.1167
316.5165	0.1165
316.7277	0.1254
316.9389	0.1233
317.1501	0.116
317.3613	0.1151
317.5724	0.1188
317.7836	0.1194
317.9947	0.1085
318.2058	0.1143
318.417	0.118
318.6281	0.1098
318.8391	0.1225
319.0502	0.1186
319.2613	0.1164
319.4723	0.1188
319.6834	0.1192
319.8944	0.1216
320.1054	0.1171
320.3164	0.1228
320.5274	0.1148
320.7383	0.1146
320.9493	0.1148
321.1602	0.1174
321.3712	0.118
321.5821	0.1185
321.793	0.1135
322.0039	0.123
322.2148	0.1161
322.4257	0.1133
322.6365	0.1177
322.8474	0.1153
323.0582	0.1171
323.269	0.1125
323.4798	0.1135
323.6906	0.1162
323.9014	0.1118
324.1122	0.1139
324.3229	0.1227
324.5337	0.1177
324.7444	0.1076
324.9551	0.119
325.1658	0.1233
325.3765	0.1156
325.5872	0.1121
325.7979	0.1163
326.0085	0.1211
326.2192	0.1166
326.4298	0.1206
326.6404	0.1208
326.851	0.1172
327.0616	0.1229
327.2722	0.1231
327.4828	0.1128
327.6933	0.1193
327.9039	0.1201
328.1144	0.1202
328.3249	0.1219
328.5354	0.1227
328.7459	0.1183
328.9564	0.1242
329.1669	0.1218
329.3773	0.1217
329.5878	0.1205
329.7982	0.1267
330.0086	0.1213
330.219	0.1188
330.4294	0.122
330.6398	0.1266
330.8502	0.1188
331.0605	0.1216
331.2708	0.1188
331.4812	0.1216
331.6915	0.1233
331.9018	0.1189
332.1121	0.126
332.3224	0.1243
332.5326	0.126
332.7429	0.1163
332.9531	0.1246
333.1633	0.1295
333.3735	0.1233
333.5837	0.126
333.7939	0.1263
334.0041	0.1242
334.2143	0.1238
334.4244	0.12
334.6346	0.1233
334.8447	0.1253
335.0548	0.1259
335.2649	0.129
335.475	0.123
335.685	0.127
335.8951	0.1275
336.1051	0.129
336.3152	0.1258
336.5252	0.1307
336.7352	0.1225
336.9452	0.1328
337.1552	0.1316
337.3652	0.1296
337.5751	0.1279
337.7851	0.1275
337.995	0.1301
338.2049	0.1351
338.4148	0.1283
338.6247	0.1334
338.8346	0.125
339.0445	0.1326
339.2543	0.135
339.4642	0.1365
339.674	0.1415
339.8838	0.131
340.0936	0.1335
340.3034	0.1371
340.5132	0.127
340.7229	0.1338
340.9327	0.1378
341.1424	0.135
341.3522	0.1416
341.5619	0.1356
341.7716	0.1361
341.9813	0.1347
342.1909	0.1418
342.4006	0.1466
342.6102	0.1425
342.8199	0.1428
343.0295	0.1378
343.2391	0.1369
343.4487	0.1437
343.6583	0.15
343.8679	0.1484
344.0774	0.1422
344.287	0.1445
344.4965	0.1437
344.706	0.1404
344.9155	0.1451
345.125	0.1462
345.3345	0.1481
345.544	0.148
345.7534	0.1533
345.9629	0.1563
346.1723	0.151
346.3817	0.1444
346.5911	0.1555
346.8005	0.1486
347.0099	0.1558
347.2193	0.1503
347.4286	0.1533
347.638	0.1531
347.8473	0.1557
348.0566	0.1635
348.2659	0.1568
348.4752	0.1509
348.6845	0.1622
348.8937	0.1563
349.103	0.1567
349.3122	0.1608
349.5214	0.1549
349.7306	0.1563
349.9398	0.1606
350.149	0.1653
350.3582	0.1589
350.5674	0.1617
350.7765	0.1689
350.9856	0.1625
351.1948	0.1588
351.4039	0.1598
351.613	0.1748
351.822	0.1688
352.0311	0.1662
352.2402	0.1674
352.4492	0.1716
352.6582	0.1649
352.8672	0.1692
353.0762	0.1695
353.2852	0.1724
353.4942	0.1714
353.7032	0.1728
353.9121	0.1825
354.1211	0.1741
354.33	0.1699
354.5389	0.1774
354.7478	0.1788
354.9567	0.1765
355.1655	0.1721
355.3744	0.1796
355.5833	0.1883
355.7921	0.1838
356.0009	0.1772
356.2097	0.1784
356.4185	0.1848
356.6273	0.182
356.8361	0.1907
357.0448	0.191
357.2536	0.1896
357.4623	0.1782
357.671	0.1829
357.8797	0.191
358.0884	0.1872
358.2971	0.1923
358.5057	0.1919
358.7144	0.1984
358.923	0.1926
359.1316	0.1916
359.3402	0.1983
359.5488	0.2009
359.7574	0.1976
359.966	0.2002
360.1746	0.1875
360.3831	0.2004
360.5916	0.2059
360.8002	0.2162
361.0087	0.2073
361.2172	0.2096
361.4256	0.2028
361.6341	0.212
361.8426	0.2061
362.051	0.2112
362.2594	0.2116
362.4678	0.2099
362.6762	0.2174
362.8846	0.2265
363.093	0.2145
363.3014	0.2167
363.5097	0.2168
363.718	0.2264
363.9264	0.2231
364.1347	0.228
364.343	0.2339
364.5513	0.2262
364.7595	0.2261
364.9678	0.2303
365.176	0.2291
365.3842	0.2265
365.5925	0.2267
365.8007	0.2345
366.0089	0.2361
366.217	0.2393
366.4252	0.2351
366.6333	0.2388
366.8415	0.2371
367.0496	0.2325
367.2577	0.2388
367.4658	0.2419
367.6739	0.2341
367.882	0.2448
368.09	0.2408
368.2981	0.2446
368.5061	0.2497
368.7141	0.2509
368.9221	0.2552
369.1301	0.2479
369.3381	0.2484
369.5461	0.2563
369.754	0.2469
369.962	0.2541
370.1699	0.2573
370.3778	0.2592
370.5857	0.2602
370.7936	0.26
371.0015	0.2539
371.2093	0.2629
371.4172	0.256
371.625	0.2568
371.8328	0.2669
372.0406	0.2565
372.2484	0.2597
372.4562	0.2594
372.664	0.2705
372.8717	0.2682
373.0795	0.2709
373.2872	0.272
373.4949	0.2649
373.7026	0.2869
373.9103	0.2589
374.118	0.2715
374.3256	0.284
374.5333	0.2736
374.7409	0.2719
374.9485	0.2701
375.1561	0.2814
375.3637	0.2682
375.5713	0.2806
375.7789	0.275
375.9864	0.2799
376.194	0.2857
376.4015	0.281
376.609	0.2857
376.8165	0.2818
377.024	0.275
377.2315	0.2848
377.4389	0.2796
377.6464	0.2832
377.8538	0.2884
378.0612	0.2834
378.2686	0.2904
378.476	0.2907
378.6834	0.2811
378.8908	0.3001
379.0981	0.2967
379.3055	0.3015
379.5128	0.2939
379.7201	0.289
379.9274	0.2839
380.1347	0.2903
380.342	0.2902
380.5492	0.296
380.7565	0.2878
380.9637	0.3011
381.1709	0.2966
381.3781	0.2991
381.5853	0.3035
381.7925	0.3067
381.9997	0.3052
382.2068	0.3022
382.4139	0.3135
382.6211	0.3076
382.8282	0.2995
383.0353	0.3055
383.2424	0.3018
383.4494	0.3172
383.6565	0.3115
383.8635	0.3148
384.0706	0.3063
384.2776	0.3148
384.4846	0.3093
384.6916	0.3088
384.8986	0.3251
385.1055	0.3163
385.3125	0.3031
385.5194	0.3079
385.7263	0.3109
385.9333	0.3072
386.1402	0.3231
386.347	0.3146
386.5539	0.3199
386.7608	0.3124
386.9676	0.3062
387.1744	0.3075
387.3813	0.311
387.5881	0.3212
387.7948	0.3138
388.0016	0.3108
388.2084	0.3149
388.4151	0.3069
388.6219	0.3019
388.8286	0.3108
389.0353	0.3085
389.242	0.3074
389.4487	0.3101
389.6553	0.2993
389.862	0.3167
390.0686	0.3105
390.2753	0.3101
390.4819	0.3163
390.6885	0.2967
390.8951	0.3082
391.1016	0.3044
391.3082	0.2964
391.5147	0.2938
391.7213	0.3091
391.9278	0.2933
392.1343	0.304
392.3408	0.2881
392.5473	0.286
392.7537	0.2886
392.9602	0.283
393.1666	0.3037
393.373	0.29
393.5794	0.2823
393.7858	0.2793
393.9922	0.2866
394.1986	0.282
394.4049	0.2804
394.6113	0.2822
394.8176	0.2717
395.0239	0.2751
395.2302	0.2693
395.4365	0.2757
395.6428	0.2724
395.8491	0.2828
396.0553	0.2726
396.2615	0.2726
396.4678	0.2778
396.674	0.2757
396.8802	0.2646
397.0863	0.2637
397.2925	0.2676
397.4987	0.2569
397.7048	0.2781
397.9109	0.2806
398.117	0.2683
398.3231	0.2687
398.5292	0.2662
398.7353	0.2705
398.9413	0.261
399.1474	0.266
399.3534	0.2697
399.5594	0.2857
399.7654	0.2714
399.9714	0.2616
400.1774	0.2629
400.3833	0.2706
400.5893	0.2694
400.7952	0.2665
401.0011	0.2578
401.207	0.2657
401.4129	0.2626
401.6188	0.2646
401.8247	0.267
402.0305	0.2524
402.2364	0.2635
402.4422	0.2598
402.648	0.2607
402.8538	0.2812
403.0596	0.2567
403.2654	0.2666
403.4711	0.2523
403.6768	0.2704
403.8826	0.2603
404.0883	0.2527
404.294	0.2675
404.4997	0.2632
404.7054	0.2658
404.911	0.2667
405.1167	0.2739
405.3223	0.2733
405.5279	0.2555
405.7335	0.2599
405.9391	0.2648
406.1447	0.2541
406.3502	0.2769
406.5558	0.2687
406.7613	0.2707
406.9668	0.267
407.1724	0.2667
407.3778	0.2599
407.5833	0.265
407.7888	0.2649
407.9942	0.2677
408.1997	0.2599
408.4051	0.2621
408.6105	0.2688
408.8159	0.268
409.0213	0.2641
409.2267	0.2572
409.432	0.272
409.6374	0.266
409.8427	0.2727
410.048	0.2555
410.2533	0.2655
410.4586	0.2641
410.6639	0.2613
410.8691	0.2727
411.0744	0.2548
411.2796	0.2702
411.4848	0.2551
411.69	0.275
411.8952	0.2672
412.1004	0.2797
412.3056	0.2664
412.5107	0.2617
412.7158	0.2636
412.921	0.2652
413.1261	0.2631
413.3312	0.2552
413.5362	0.2722
413.7413	0.267
413.9464	0.2529
414.1514	0.2569
414.3564	0.2613
414.5614	0.2578
414.7664	0.2544
414.9714	0.2625
415.1764	0.2584
415.3813	0.2486
415.5863	0.2569
415.7912	0.2657
415.9961	0.2587
416.201	0.2583
416.4059	0.2542
416.6108	0.2586
416.8156	0.2517
417.0205	0.2586
417.2253	0.2719
417.4301	0.2601
417.6349	0.2487
417.8397	0.2679
418.0445	0.2533
418.2492	0.2632
418.454	0.2547
418.6587	0.2577
418.8634	0.244
419.0681	0.2531
419.2728	0.2548
419.4775	0.2689
419.6822	0.2465
419.8868	0.2506
420.0915	0.2571
420.2961	0.2428
420.5007	0.2446
420.7053	0.2537
420.9099	0.2396
421.1144	0.2428
421.319	0.2308
421.5235	0.2414
421.728	0.2418
421.9325	0.2564
422.137	0.2483
422.3415	0.2388
422.546	0.2383
422.7504	0.2376
422.9549	0.2414
423.1593	0.242
423.3637	0.2415
423.5681	0.2389
423.7725	0.2308
423.9769	0.2433
424.1812	0.2387
424.3856	0.2378
424.5899	0.2302
424.7942	0.2218
424.9985	0.2294
425.2028	0.2232
425.4071	0.2166
425.6113	0.2223
425.8156	0.2243
426.0198	0.2254
426.224	0.2277
426.4282	0.2225
426.6324	0.2198
426.8366	0.2362
427.0407	0.2212
427.2449	0.2142
427.449	0.2165
427.6531	0.2168
427.8572	0.2131
428.0613	0.2061
428.2654	0.2125
428.4694	0.2118
428.6735	0.2058
428.8775	0.2121
429.0815	0.2093
429.2855	0.2076
429.4895	0.1973
429.6935	0.195
429.8975	0.2092
430.1014	0.1984
430.3053	0.1867
430.5093	0.1988
430.7132	0.1971
430.9171	0.187
431.1209	0.1973
431.3248	0.182
431.5286	0.1781
431.7325	0.1854
431.9363	0.1853
432.1401	0.1796
432.3439	0.1714
432.5477	0.1726
432.7514	0.1653
432.9552	0.1769
433.1589	0.17
433.3627	0.173
433.5664	0.1659
433.7701	0.166
433.9737	0.1719
434.1774	0.1646
434.3811	0.1609
434.5847	0.161
434.7883	0.1606
434.9919	0.1491
435.1955	0.1517
435.3991	0.1512
435.6027	0.1521
435.8062	0.1493
436.0098	0.1489
436.2133	0.1454
436.4168	0.1424
436.6203	0.143
436.8238	0.1338
437.0272	0.1263
437.2307	0.135
437.4341	0.1351
437.6375	0.1301
437.841	0.1293
438.0443	0.1343
438.2477	0.1271
438.4511	0.135
438.6545	0.125
438.8578	0.1207
439.0611	0.1303
439.2644	0.1099
439.4677	0.1226
439.671	0.1113
439.8743	0.1125
440.0775	0.1143
440.2808	0.1221
440.484	0.1097
440.6872	0.0949
440.8904	0.1046
441.0936	0.1153
441.2967	0.099
441.4999	0.108
441.703	0.098
441.9062	0.1024
442.1093	0.0905
442.3124	0.1041
442.5155	0.0999
442.7185	0.0834
442.9216	0.0928
443.1246	0.0865
443.3276	0.0788
443.5307	0.0837
443.7337	0.0867
443.9366	0.091
444.1396	0.0791
444.3426	0.0795
444.5455	0.0708
444.7484	0.0756
444.9513	0.0795
445.1542	0.069
445.3571	0.065
445.56	0.0755
445.7628	0.0689
445.9657	0.0701
446.1685	0.0684
446.3713	0.0674
446.5741	0.0651
446.7769	0.0699
446.9797	0.0613
447.1824	0.0622
447.3852	0.0562
447.5879	0.0622
447.7906	0.058
447.9933	0.0641
448.196	0.0482
448.3986	0.0528
448.6013	0.0539
448.8039	0.0574
449.0066	0.057
449.2092	0.0481
449.4118	0.0493
449.6143	0.0532
449.8169	0.0554
450.0195	0.0427
450.222	0.051
450.4245	0.0569
450.627	0.0506
450.8295	0.0444
451.032	0.0416
451.2345	0.0438
451.4369	0.0438
451.6394	0.043
451.8418	0.0386
452.0442	0.0484
452.2466	0.0383
452.449	0.0344
452.6513	0.0346
452.8537	0.0412
453.056	0.0386
453.2583	0.0351
453.4607	0.0277
453.663	0.0406
453.8652	0.0301
454.0675	0.0357
454.2697	0.0263
454.472	0.0291
454.6742	0.0317
454.8764	0.0205
455.0786	0.0286
455.2808	0.0322
455.4829	0.0218
455.6851	0.0238
455.8872	0.0309
456.0893	0.0317
456.2915	0.0181
456.4935	0.0134
456.6956	0.0248
456.8977	0.0269
457.0997	0.0231
457.3018	0.0305
457.5038	0.0192
457.7058	0.0156
457.9078	0.0302
458.1098	0.027
458.3117	0.0182
458.5137	0.0191
458.7156	0.0284
458.9175	0.0137
459.1194	0.0238
459.3213	0.0094
459.5232	0.017
459.725	0.0146
459.9269	0.0161
460.1287	0.013
460.3305	0.0119
460.5323	0.0193
460.7341	0.0147
460.9359	0.0207
461.1376	0.018
461.3394	0.0114
461.5411	0.0221
461.7428	0.0149
461.9445	0.0133
462.1462	0.015
462.3479	0.0134
462.5495	0.0175
462.7512	0.0096
462.9528	0.0096
463.1544	0.0094
463.356	0.0172
463.5576	0.0156
463.7592	0.0074
463.9607	0.0118
464.1623	0.0113
464.3638	0.0076
464.5653	0.0192
464.7668	0.0036
464.9683	0.0117
465.1697	0.0159
465.3712	0.0039
465.5726	0.0111
465.7741	0.0114
465.9755	0.0129
466.1769	0.0098
466.3782	0.0101
466.5796	0.0124
466.7809	0.0164
466.9823	0.0058
467.1836	0.0102
467.3849	0.0078
467.5862	0.0022
467.7875	0.009
467.9887	0.0131
468.19	0.0135
468.3912	0.015
468.5924	0.0134
468.7936	0.0007
468.9948	0.0062
469.196	0.0107
469.3972	0.0157
469.5983	0.0019
469.7994	-0.0027
470.0006	0.0045
470.2017	0.0128
470.4027	-0.0022
470.6038	-0
470.8049	-0.0042
471.0059	0.0006
471.2069	0.0156
471.408	0.004
471.6089	0.0052
471.8099	0.0053
472.0109	-0.0057
472.2119	0.0152
472.4128	0.0073
472.6137	0.0032
472.8146	0.0058
473.0155	0.0003
473.2164	-0.0052
473.4173	0.007
473.6181	0.0121
473.819	-0.0016
474.0198	0.0029
474.2206	0.0083
474.4214	0.0075
474.6222	0.0078
474.8229	0.0024
475.0237	0.0009
475.2244	0.0095
475.4251	-0.0025
475.6258	0.0052
475.8265	0.0084
476.0272	0.0015
476.2278	0.0069
476.4285	-0.0004
476.6291	0.0114
476.8297	0.0031
477.0303	0.0015
477.2309	-0.0042
477.4315	0.0051
477.632	0.0027
477.8326	0.0049
478.0331	0.0032
478.2336	0.0082
478.4341	-0.0036
478.6346	0.0074
478.8351	0.0074
479.0355	0.0063
479.236	0.0006
479.4364	-0.0037
479.6368	0.0016
479.8372	0.0037
480.0376	0.0104
480.2379	-0.0011
480.4383	0.0009
480.6386	0.0057
480.8389	0.0022
481.0392	0.0042
481.2395	0.0061
481.4398	0.006
481.6401	-0
481.8403	0.0009
482.0405	-0.0033
482.2408	0.008
482.441	-0.0015
482.6411	0.0024
482.8413	-0.0141
483.0415	0.0044
483.2416	0.0032
483.4417	-0.0008
483.6419	-0.002
483.8419	-0.001
484.042	-0.0016
484.2421	-0.003
484.4422	0.0071
484.6422	0.0019
484.8422	0.0002
485.0422	0.0068
485.2422	0.0032
485.4422	-0.005
485.6422	-0.0012
485.8421	-0.0031
486.042	0.0077
486.242	-0.0034
486.4419	0.0009
486.6417	0.0006
486.8416	0.004
487.0415	-0.0024
487.2413	0.0055
487.4411	0.0009
487.641	0.0085
487.8408	0.0025
488.0405	0.0029
488.2403	-0.0051
488.4401	-0.0028
488.6398	-0.001
488.8395	0.0017
489.0392	0.0018
489.2389	-0.002
489.4386	0.0041
489.6383	0.0027
489.8379	-0.0011
490.0376	0.0142
490.2372	0.0006
490.4368	0.0007
490.6364	-0.0002
490.836	0.0013
491.0355	-0.0024
491.2351	0.0087
491.4346	0.0063
491.6341	0.0041
491.8336	-0.0015
492.0331	-0.0082
492.2326	-0.0041
492.432	0.0029
492.6315	0.0025
492.8309	0.0034
493.0303	-0.0107
493.2297	0.0001
493.4291	-0.0063
493.6284	0.0037
493.8278	0.0027
494.0271	0.0081
494.2264	0.0019
494.4257	0.008
494.625	-0.0018
494.8243	0.0042
495.0236	0.0016
495.2228	0.0008
495.422	0.0052
495.6213	-0
495.8205	0.0022
496.0196	0.0017
496.2188	-0.0028
496.418	-0.0074
496.6171	0.0074
496.8162	0.0016
497.0153	-0.001
497.2144	-0.0034
497.4135	0.0026
497.6126	-0.0035
497.8116	0.0001
498.0107	-0.0056
498.2097	0.0152
498.4087	-0.0038
498.6077	-0.0006
498.8067	0.0148
499.0056	-0.0016
499.2046	0.0013
499.4035	0.0109
499.6024	-0.0064
499.8013	0.0019
500.0002	0.0036
500.199	-0.0006
500.3979	0.0098
500.5967	-0.0045
500.7956	-0.0007
500.9944	0.0031
501.1932	-0.0053
501.3919	0.0057
501.5907	-0.0015
501.7895	-0.0049
501.9882	-0.0105
502.1869	-0.0002
502.3856	-0.003
502.5843	-0.004
502.783	-0.0017
502.9816	-0.0053
503.1803	0.0129
503.3789	0.0039
503.5775	-0.0033
503.7761	-0.0057
503.9747	-0.0055
504.1732	0.0027
504.3718	-0.0051
504.5703	-0.0047
504.7689	-0.0003
504.9674	0.0009
505.1658	0.0039
505.3643	0.0049
505.5628	0.0092
505.7612	-0.0047
505.9597	0.0045
506.1581	-0.0016
506.3565	-0.0105
506.5549	0.0007
506.7532	0.0098
506.9516	0.0031
507.1499	0.0037
507.3482	0.0083
507.5465	-0.0003
507.7448	0.0032
507.9431	0.0006
508.1414	0.0005
508.3396	0.0015
508.5379	-0.0025
508.7361	0.0096
508.9343	0.0069
509.1325	0.0116
509.3306	-0.0056
509.5288	0.0016
509.7269	-0.0041
509.9251	-0.0034
510.1232	-0.0115
510.3213	-0.0016
510.5193	0.0003
510.7174	-0.0022
510.9154	0.0039
511.1135	0.0003
511.3115	0.0052
511.5095	0.0048
511.7075	-0.0031
511.9055	0.0085
512.1034	0.0056
512.3014	-0.0038
512.4993	-0.0048
512.6972	0.0002
512.8951	-0.0024
513.093	-0.0065
513.2908	0.001
513.4887	0.0095
513.6865	-0.0074
513.8844	0.0017
514.0822	0.0001
514.2799	-0.0044
514.4777	0.0072
514.6755	0.0052
514.8732	-0.0088
515.0709	0.0048
515.2687	0.0066
515.4664	-0.01
515.664	0.0182
515.8617	0.0144
516.0594	0.0061
516.257	0.0058
516.4546	-0.0041
516.6522	-0.0064
516.8498	-0.0035
517.0474	-0.0049
517.2449	0.0064
517.4425	-0.0111
517.64	0.0018
517.8375	0.0097
518.035	-0.0005
518.2325	0.0015
518.43	-0.0063
518.6274	-0.0045
518.8249	-0.0006
519.0223	-0.0079
519.2197	-0.0085
519.4171	-0.0016
519.6145	-0.0016
519.8118	-0.0001
520.0092	0.0005
520.2065	0.0072
520.4038	-0.0033
520.6011	0.0048
520.7984	-0.0105
520.9956	0.0024
521.1929	0.0015
521.3901	0.0051
521.5874	-0.0004
521.7846	-0.0019
521.9818	-0.0085
522.1789	0.0086
522.3761	-0.0102
522.5732	0.005
522.7704	-0.0011
522.9675	-0.0103
523.1646	0.0091
523.3617	-0.0063
523.5587	0.0057
523.7558	0.0031
523.9528	0.0085
524.1498	-0.0018
524.3468	-0.0041
524.5438	-0.0076
524.7408	-0.0108
524.9378	0.0034
525.1347	-0.0028
525.3316	0.0069
525.5285	-0.0054
525.7254	-0
525.9223	-0.0103
526.1192	-0.0015
526.316	-0.0099
526.5129	0.0003
526.7097	-0.0062
526.9065	0.0012
527.1033	0.0005
527.3	-0.012
527.4968	0.0034
527.6935	-0.0042
527.8903	-0.0057
528.087	0.003
528.2837	0.0107
528.4804	0.0037
528.677	0.0056
528.8737	-0.0056
529.0703	0.0083
529.2669	-0.0019
529.4635	0.0118
529.6601	0.0024
529.8567	-0.0072
530.0532	-0.0035
530.2498	-0.0047
530.4463	0.0096
530.6428	-0.0049
530.8393	-0.0039
531.0358	-0.0031
531.2322	-0.0007
531.4287	-0.0014
531.6251	-0.0016
531.8215	0.0027
532.0179	-0.0081
532.2143	0.0127
532.4107	-0.0022
532.607	-0.0003
532.8034	-0.0056
532.9997	0.001
533.196	0.0122
533.3923	-0.0018
533.5886	0.0039
533.7848	-0.0083
533.9811	-0.0162
534.1773	-0.0009
534.3735	0.0098
534.5697	0.002
534.7659	0.0035
534.9621	0.01
535.1582	0.0056
535.3544	0.0064
535.5505	0.0015
535.7466	-0.0039
535.9427	-0.0028
536.1387	-0.0021
536.3348	-0.002
536.5308	0.012
536.7269	-0.0004
536.9229	-0.0022
537.1189	-0.0012
537.3148	-0.0058
537.5108	0.0055
537.7068	-0.0006
537.9027	-0.0061
538.0986	0.0014
538.2945	-0.0009
538.4904	-0.0077
538.6863	0.0062
538.8821	-0.0098
539.078	-0.0029
539.2738	-0.0131
539.4696	0.0039
539.6654	0.0043
539.8611	0.0006
540.0569	0.0003
540.2526	-0.0066
540.4484	-0.0053
540.6441	-0.0006
540.8398	-0.0001
541.0355	0.0009
541.2311	0.0022
541.4268	-0.006
541.6224	0.0013
541.818	-0.0086
542.0136	-0.0082
542.2092	0.0007
542.4048	0.0033
542.6003	-0.0007
542.7959	0.005
542.9914	0.008
543.1869	-0.0043
543.3824	0.0108
543.5779	0.0012
543.7734	-0.0083
543.9688	0.0029
544.1642	0.0051
544.3596	-0.0003
544.555	-0.0023
544.7504	0.0058
544.9458	-0.0012
545.1411	-0.0054
545.3365	0.0021
545.5318	0.0068
545.7271	0.0058
545.9224	-0.006
546.1177	0.0063
546.3129	-0.0174
546.5081	-0.0066
546.7034	-0.0112
546.8986	-0.0062
547.0938	-0.0061
547.289	0.0022
547.4841	-0.0093
547.6793	-0.0103
547.8744	-0.0061
548.0695	-0.0044
548.2646	-0.0054
548.4597	-0.0094
548.6548	0.0017
548.8498	-0.0073
549.0448	0.0059
549.2399	-0.009
549.4349	0.0013
549.6298	-0.0049
549.8248	-0.0084
550.0198	0.0102
550.2147	-0.0055
550.4096	-0.0039
550.6045	-0.0035
550.7994	0.0025
550.9943	-0.0045
551.1892	-0.0023
551.384	0.0024
551.5788	0.003
551.7737	-0.0023
551.9685	0.0056
552.1632	-0.0003
552.358	0.0016
552.5528	0.0006
552.7475	-0.0138
552.9422	0.0039
553.1369	0.0091
553.3316	-0.0047
553.5263	-0.0009
553.7209	-0.0095
553.9156	0.0137
554.1102	0.0032
554.3048	0.0062
554.4994	0.0028
554.694	0.0003
554.8885	0.0026
555.0831	0.0045
555.2776	-0.0072
555.4721	-0.0126
555.6666	0.0027
555.8611	-0.0126
556.0555	0.0102
556.25	-0.0075
556.4444	-0.0103
556.6388	0.0021
556.8332	-0.0031
557.0276	0.0051
557.222	-0.0051
557.4163	-0.008
557.6107	0.0037
557.805	-0.0125
557.9993	0.0037
558.1936	0.0141
558.3879	-0.0098
558.5821	-0.0007
558.7764	0.0102
558.9706	0.0102
559.1648	-0.0044
559.359	0.0047
559.5532	-0.0045
559.7473	0.0095
559.9415	-0.0032
560.1356	0.0055
560.3297	-0.0042
560.5238	0.0077
560.7179	-0.0032
560.9119	0.0033
561.106	0.0002
561.3	-0.0042
561.494	-0.0007
561.688	-0.0023
561.882	-0.0009
562.076	0.0018
562.2699	0.0063
562.4639	0.0022
562.6578	0.0059
562.8517	-0.0048
563.0456	-0.0098
563.2395	-0.0006
563.4333	-0.0007
563.6272	0.0035
563.821	0.0042
564.0148	-0.0074
564.2086	0.0039
564.4024	-0.0016
564.5961	0.0035
564.7899	-0.0023
564.9836	-0.0042
565.1773	0.0046
565.371	0.0004
565.5647	-0.0045
565.7584	0.0076
565.952	-0.0047
566.1456	0.0038
566.3393	0.0063
566.5329	-0.0034
566.7264	-0.0092
566.92	0.006
567.1136	0.0032
567.3071	-0.0003
567.5006	-0.0106
567.6941	0.0002
567.8876	-0.0057
568.0811	-0.0016
568.2745	-0.0031
568.468	0.0073
568.6614	-0.0001
568.8548	-0.0025
569.0482	0.0014
569.2416	-0.0016
569.4349	0.0026
569.6283	-0.0001
569.8216	-0.0032
570.0149	0.001
570.2082	-0.0026
570.4015	0.0011
570.5947	-0.0057
570.788	-0.0036
570.9812	0.0014
571.1744	-0.0038
571.3676	-0.0034
571.5608	-0.0043
571.754	-0.0023
571.9471	0.0003
572.1402	-0.001
572.3333	0.0056
572.5264	0.0029
572.7195	0.0039
572.9126	0.002
573.1057	0.0021
573.2987	0.0008
573.4917	0.0026
573.6847	0.0018
573.8777	0.0023
574.0707	-0.0034
574.2636	-0.0022
574.4566	-0.0001
574.6495	0.0063
574.8424	0.0039
575.0353	0.0051
575.2281	-0.001
575.421	-0.0019
575.6138	-0.0035
575.8067	0.0017
575.9995	0.0015
576.1923	0.0033
576.385	-0.0026
576.5778	0.0007
576.7706	0.0024
576.9633	0.0021
577.156	0.0007
577.3487	-0.0016
577.5414	-0.0028
577.734	-0.0001
577.9267	-0.0028
578.1193	0.0024
578.3119	-0.0034
578.5045	-0.0014
578.6971	0.0012
578.8897	-0.0024
579.0822	0.0039
579.2747	-0.0062
579.4673	0.0005
579.6598	-0.0011
579.8522	0.0025
580.0447	-0.0019
580.2372	0.0028
580.4296	-0.0011
580.622	-0.0004
580.8144	0.0005
581.0068	-0.0009
581.1992	0.0017
581.3915	-0.0002
581.5839	0.0009
581.7762	0.0043
581.9685	-0.0007
582.1608	0.0003
582.353	-0.0029
582.5453	-0.0004
582.7375	-0.0022
582.9298	-0.0047
583.122	-0.0043
583.3142	0.0033
583.5063	0.0049
583.6985	-0.0004
583.8906	-0.0026
584.0827	-0.0025
584.2749	0.0029
584.4669	0
584.659	-0.0004
584.8511	0.0016
585.0431	-0.0008
585.2352	-0.0022
585.4272	0.0004
585.6192	-0.0012
585.8111	-0.0075
586.0031	0.0051
586.195	0
586.387	0.0003
586.5789	0.0018
586.7708	0.0014
586.9627	0.0029
587.1545	0.0032
587.3464	0.0031
587.5382	-0.0025
587.73	0.0049
587.9218	-0.0062
588.1136	-0.0042
588.3053	-0.0028
588.4971	0.0017
588.6888	0.0003
588.8805	0.0023
589.0722	-0.0012
589.2639	-0.0023
589.4556	-0.0105
589.6472	0.001
589.8389	-0.0011
590.0305	0.002
590.2221	0.0034
590.4137	-0.0051
590.6052	0.0024
590.7968	-0.0012
590.9883	0.0031
591.1798	-0.0005
591.3713	-0.0011
591.5628	-0.0042
591.7543	0.0043
591.9458	-0.0036
592.1372	-0.0021
592.3286	-0.0056
592.52	-0.0024
592.7114	-0.0035
592.9028	-0.0068
593.0941	-0.0016
593.2855	0.0007
593.4768	0.0014
593.6681	-0.001
593.8594	-0.0102
594.0506	0.0028
594.2419	-0.0056
594.4331	-0.0008
594.6244	0.0019
594.8156	-0.0035
595.0067	-0.0012
595.1979	-0.0051
595.3891	-0.0061
595.5802	0.0017
595.7713	-0.0029
595.9624	0.0017
596.1535	-0.0004
596.3446	0.0017
596.5357	-0.0026
596.7267	-0.0024
596.9177	-0.0025
597.1087	-0.0023
597.2997	0.0018
597.4907	0.0031
597.6817	0.0076
597.8726	0.0021
598.0635	0.0019
598.2544	-0.0021
598.4453	-0.0044
598.6362	-0.006
598.827	0.0031
599.0179	-0.0015
599.2087	0.0027
599.3995	0.0018
599.5903	0.0049
599.7811	-0.0004
599.9718	0.0029
600.1626	0.0012
600.3533	-0.0042
600.544	0.0002
600.7347	-0.0028
600.9254	0.0029
601.116	-0.0023
601.3067	0.0045
601.4973	0.0106
601.6879	-0.0064
601.8785	-0
602.0691	0.0032
602.2596	0.0002
602.4502	-0.0008
602.6407	0.0075
602.8312	0.0061
603.0217	0.002
603.2122	0.0006
603.4027	-0.0073
603.5931	-0.0025
603.7835	0
603.9739	-0.0042
604.1643	0.0009
604.3547	0.0045
604.5451	-0.0013
604.7354	-0.0017
604.9257	0.0006
605.116	0.0032
605.3063	-0.0083
605.4966	-0.0013
605.6869	-0.0034
605.8771	-0.0013
606.0673	-0.0047
606.2575	-0.0022
606.4477	0.0053
606.6379	-0.005
606.8281	-0.0073
607.0182	0.0011
607.2083	-0.0007
607.3985	0.0048
607.5885	0.0022
607.7786	0.0095
607.9687	-0.0025
608.1587	-0.003
608.3488	-0.0027
608.5388	-0.0023
608.7288	-0.0054
608.9187	0.0051
609.1087	-0.0047
609.2986	0.0007
609.4886	0.0045
609.6785	0.0079
609.8684	-0.0047
610.0582	0.0028
610.2481	-0.0038
610.4379	0.0048
610.6278	-0.005
610.8176	-0.0027
611.0074	-0.0054
611.1971	0.0026
611.3869	-0.0007
611.5766	-0.002
611.7664	0.0085
611.9561	-0.0004
612.1458	0.002
612.3354	0.0096
612.5251	-0.0087
612.7147	0.0035
612.9044	-0.0087
613.094	-0.0031
613.2836	-0.0042
613.4731	0.0016
613.6627	0.0022
613.8522	-0.0103
614.0417	-0.0021
614.2313	-0.0057
614.4207	0.0012
614.6102	-0.0089
614.7997	-0.0011
614.9891	-0.0012
615.1785	-0.0022
615.3679	0.0014
615.5573	-0.004
615.7467	-0.0034
615.9361	-0.0111
616.1254	-0.0119
616.3147	0.0014
616.504	0.0028
616.6933	-0.0053
616.8826	0.0049
617.0718	-0.0064
617.2611	0.0014
617.4503	-0.0009
617.6395	0.0059
617.8287	-0.0016
618.0179	-0.0014
618.207	0.0061
618.3961	0.0028
618.5853	-0.006
618.7744	-0.0063
618.9634	0.002
619.1525	0.0019
619.3416	-0.0037
619.5306	0.0008
619.7196	-0.0074
619.9086	0.0072
620.0976	-0.0088
620.2866	-0.0028
620.4755	0.0159
620.6645	-0.0061
620.8534	-0.0027
621.0423	-0.004
621.2312	-0.0043
621.42	0.0046
621.6089	-0.0007
621.7977	-0.0055
621.9865	0.0081
622.1753	0.0035
622.3641	-0.0094
622.5529	-0.01
622.7416	-0.0041
622.9303	-0.0067
623.1191	-0.0106
623.3078	-0.0078
623.4964	-0.0076
623.6851	0.0073
623.8737	0.011
624.0624	-0.0043
624.251	0.0029
624.4396	-0.0074
624.6282	0.0067
624.8167	0.0077
625.0053	0.0012
625.1938	-0.0039
625.3823	-0.0046
625.5708	-0.0084
625.7593	-0.0097
625.9477	-0.0121
626.1362	-0.0107
626.3246	-0.0059
626.513	0.0029
626.7014	-0.0135
626.8898	-0.0103
627.0781	0.0027
627.2665	-0.0082
627.4548	-0.0122
627.6431	-0.0067
627.8314	0.0005
628.0197	0.0029
628.2079	-0.0014
628.3962	0.0061
628.5844	0.001
628.7726	-0.006
628.9608	-0.025
629.1489	-0.0026
629.3371	-0.0069
629.5252	-0.0024
629.7134	0.0096
629.9015	-0.0111
630.0895	-0.0007
630.2776	-0.0011
630.4657	-0.001
630.6537	-0.0148
630.8417	-0.004
631.0297	-0.0013
631.2177	0.0072
631.4057	-0.0128
631.5936	-0.0008
631.7815	0.0108
631.9695	0.0184
632.1574	-0.006
632.3452	-0.0135
632.5331	0.0005
632.7209	0.0056
632.9088	-0.0042
633.0966	0.0091
633.2844	0.0043
633.4722	0.002
633.6599	-0.0164
633.8477	0.0005
634.0354	0.0023
634.2231	0.0166
634.4108	-0.013
634.5985	-0.0047
634.7861	-0.0169
634.9738	0.0025
635.1614	0.0133
635.349	-0.0186
635.5366	-0.0048
635.7242	-0.005
635.9117	0.0016
636.0993	-0.0055
636.2868	-0.0135
636.4743	0.0037
636.6618	-0.0008
636.8492	-0.0105
637.0367	0.0012
637.2241	0.0047
637.4115	-0.0132
637.5989	-0.0062
637.7863	-0.0091
637.9737	0.004
638.161	-0.0053
638.3484	0.0027
638.5357	-0.0137
638.723	-0.0102
638.9103	0.0033
639.0975	0.0045
639.2848	0.0134
639.472	-0.0174
639.6592	0.0142
639.8464	0.0059
640.0336	-0.0039
640.2208	-0.0182
640.4079	0.0071
640.595	-0.0088
640.7821	-0.01
640.9692	0.011
641.1563	0.0092
641.3434	0.0075
641.5304	-0.006
641.7174	0.001
641.9044	-0.0093
642.0914	-0.019
642.2784	0.0159
642.4653	-0.0009
642.6523	-0.0106
642.8392	0.0077
643.0261	0.0129
643.213	-0.0067
643.3999	-0
643.5867	-0.0099
643.7735	0.0109
643.9604	0.0002
644.1472	0.0007
644.3339	-0.0075
644.5207	-0.0199
644.7075	0.0079
644.8942	0.0037
645.0809	-0.0203
645.2676	-0.0081
645.4543	-0.0145
645.6409	-0.0144
645.8276	-0.0054
646.0142	0.0158
646.2008	-0.0048
646.3874	-0.007
646.574	-0.029
646.7605	0.0079
646.9471	-0.0017
647.1336	0.0047
647.3201	-0.0077
647.5066	-0.0077
647.6931	-0.0068
647.8795	0.014
648.0659	-0.0053
648.2524	0.0029
648.4388	-0.007
648.6252	-0.0159
648.8115	0.0037
648.9979	-0.0132
649.1842	-0.02
649.3705	0.0019
649.5568	-0.0177
649.7431	-0.0077
649.9294	-0.0085
650.1156	-0.0122
650.3018	0.0134
650.488	-0.0215
650.6742	0.0079
650.8604	-0.0064
651.0466	-0.0027
651.2327	-0.0298
651.4188	-0.0219
651.6049	-0.013
651.791	0.0084
651.9771	-0.0168
652.1632	-0.0039
652.3492	0.0012
652.5352	-0.0018
652.7212	-0.0085
652.9072	-0.0128
653.0932	0.0057
653.2791	0.0052
653.465	-0.0055
653.651	0.0195
653.8369	0.0139
654.0227	-0.0078
654.2086	-0.0055
654.3944	-0.0214
654.5803	0.0027
654.7661	-0.002
654.9519	-0.0026
655.1377	-0
655.3234	-0
655.5092	-0
655.6949	-0
655.8806	-0
656.0663	-0
656.2519	-0
656.4376	-0
656.6232	-0
656.8088	-0
656.9945	-0
657.18	-0
657.3656	-0
657.5511	-0
657.7367	-0
657.9222	-0
658.1077	-0
658.2932	-0
658.4786	-0
658.6641	-0
658.8495	-0
659.0349	-0
659.2203	-0
659.4057	0.0077
659.591	0.0567
659.7764	0.0009
659.9617	-0.0039
660.147	-0.0143
660.3323	-0.0124
660.5176	-0.0132
660.7028	0.0167
660.888	0.0032
661.0733	0.0026
661.2585	0.013
661.4436	-0.0042
661.6288	0.0066
661.8139	0.0153
661.9991	0.0043
662.1842	0.0087
662.3693	0.0069
662.5544	-0.0008
662.7394	-0.0031
662.9245	0.0117
663.1095	0.0014
663.2945	-0.0081
663.4795	0.0011
663.6644	-0.0205
663.8494	0.0117
664.0343	-0.0164
664.2193	0.01
664.4042	-0.0339
664.589	-0.0119
664.7739	-0.0176
664.9587	0.002
665.1436	-0
665.3284	-0.0023
665.5132	-0.0073
665.698	0.0029
665.8827	-0.01
666.0675	-0.0134
666.2522	0.0072
666.4369	-0.0064
666.6216	-0.0116
666.8063	-0.0116
666.9909	-0.0082
667.1756	0.0102
667.3602	0.0061
667.5448	0.0024
667.7294	0.001
667.9139	-0.0105
668.0985	-0.0286
668.283	-0.0113
668.4675	-0.0191
668.652	-0.0045
668.8365	-0.0122
669.0209	-0.0401
669.2054	0.0029
669.3898	-0.0064
669.5742	-0.0028
669.7586	-0.004
669.943	-0.0272
670.1273	-0.0031
670.3117	0.0095
670.496	0.0081
670.6803	-0.008
670.8646	0.0105
671.0488	-0.0019
671.2331	0.0049
671.4173	0.0093
671.6015	0.0032
671.7857	-0.0216
671.9699	-0.0079
672.1541	0.0019
672.3382	0.0229
672.5223	0.0044
672.7064	-0.0092
672.8905	-0.006
673.0746	-0.0245
673.2587	0.0068
673.4427	-0.025
673.6267	-0.0373
673.8107	-0.0068
673.9947	-0.0012
674.1787	-0.021
674.3626	-0.0077
674.5465	0.0043
674.7304	-0.0387
674.9143	-0.0038
675.0982	-0.0044
675.2821	-0.0009
675.4659	-0.0164
675.6497	-0.0056
675.8335	-0.0039
676.0173	0.0133
676.2011	-0.0217
676.3849	0.0309
676.5686	0.0007
676.7523	-0.0043
676.936	-0.0323
677.1197	0.0296
677.3034	0.0042
677.487	0.0067
677.6706	0.0078
677.8542	-0.002
678.0378	0.0038
678.2214	-0.0135
678.405	-0.0073
678.5885	0.0126
678.772	-0.0025
678.9555	-0.0061
679.139	-0.0105
679.3225	-0.0175
679.5059	-0.0056
679.6894	-0.023
679.8728	-0.0165
680.0562	0.0028
680.2395	-0.0076
680.4229	-0.0182
680.6062	-0.0068
680.7896	-0.0048
680.9729	0.0085
681.1562	-0.0107
681.3394	-0.0043
681.5227	-0.0184
681.7059	0.0144
681.8891	0.0057
682.0723	-0.0142
682.2555	0.0143
682.4387	-0.0161
682.6218	-0.0123
682.805	-0.0053
682.9881	-0.0067
683.1712	-0.0084
683.3542	-0.011
683.5373	0.0127
683.7203	-0.0225
683.9034	0.0022
684.0864	-0.0097
684.2694	-0.005
684.4523	0.0002
684.6353	0.0009
684.8182	-0.002
685.0011	-0.0065
685.184	0.0066
685.3669	-0.001
685.5498	0.0112
685.7326	-0.0095
685.9154	-0.0018
686.0982	-0.0067
686.281	0.0033
686.4638	0.0149
686.6465	-0.0114
686.8293	-0.0076
687.012	-0.0002
687.1947	0.0128
687.3774	-0.0083
687.56	-0.0062
687.7427	-0.0077
687.9253	0.0158
688.1079	0.0086
688.2905	-0.0171
688.4731	0.0287
688.6556	0.002
688.8382	-0.0084
689.0207	0.0053
689.2032	-0.0229
689.3857	-0.0247
689.5681	-0.0198
689.7506	-0.0071
689.933	-0.0179
690.1154	0.0146
690.2978	-0.0253
690.4802	-0.0079
690.6626	-0.011
690.8449	-0.0146
691.0272	-0.0285
691.2095	0.0161
691.3918	-0.0093
691.5741	0.0169
691.7563	0.0129
691.9386	-0.0145
692.1208	-0.0112
692.303	-0.0013
692.4852	-0
692.6673	-0.0264
692.8495	-0.0027
693.0316	-0.019
693.2137	0.0265
693.3958	0.0049
693.5778	-0.0149
693.7599	-0.0119
693.9419	0.0153
694.1239	-0.0238
694.3059	-0.0233
694.4879	-0.016
694.6699	0.0103
694.8518	0.0162
695.0337	-0.0104
695.2157	-0.0303
695.3975	0.018
695.5794	-0.0261
695.7613	0.0348
695.9431	-0.0209
696.1249	-0.0089
696.3067	-0.0267
696.4885	-0.0056
696.6703	0.0037
696.852	-0.0236
697.0337	-0.0054
697.2154	0.0183
697.3971	0.0154
697.5788	0.0126
697.7605	0.001
697.9421	-0.0197
698.1237	0.0038
698.3053	-0.0084
698.4869	-0.0189
698.6685	0.0128
698.85	-0
699.0315	-0.0078
699.213	-0.0144
699.3945	0.017
699.576	0.0018
699.7575	-0.0058
699.9389	-0.0098
700.1203	-0.0166
700.3017	-0.0259
700.4831	-0.0157
700.6645	-0.036
700.8458	0.0051
701.0271	0.0182
701.2084	-0.0142
701.3897	0.0469
701.571	-0.0085
701.7523	-0.016
701.9335	0.0199
702.1147	0.022
702.2959	0.0296
702.4771	-0.0037
702.6583	-0.0307
702.8394	-0.0127
703.0205	-0.0038
703.2016	-0.0219
703.3827	-0.0033
703.5638	-0.0252
703.7449	0.0032
703.9259	-0.0096
704.1069	-0.0042
704.2879	0.0012
704.4689	0.0106
704.6499	-0.0297
704.8308	-0.0255
705.0117	-0.0283
705.1927	-0.0096
705.3735	0.0168
705.5544	0.008
705.7353	-0.0157
705.9161	0.0085
706.0969	-0.0208
706.2777	0.0043
706.4585	-0
706.6393	-0.008
706.82	-0.0354
707.0007	-0.0202
707.1815	0.0082
707.3621	-0.0034
707.5428	0.0157
707.7235	-0.0027
707.9041	-0.0141
708.0847	-0.0067
708.2653	-0.0098
708.4459	-0.0081
708.6265	-0.0247
708.807	-0.0017
708.9875	-0.0177
709.168	-0.0098
709.3485	0.0115
709.529	0.0057
709.7095	-0.0351
709.8899	0.0133
710.0703	-0.0013
710.2507	0.0111
710.4311	0.0035
710.6115	-0.0127
710.7918	-0.0042
710.9721	-0.0025
711.1524	0.0071
711.3327	-0.0091
711.513	-0.0145
711.6932	-0.0281
711.8735	-0.0008
712.0537	-0.0133
712.2339	0.0017
712.4141	0.0233
712.5942	0.0117
712.7744	-0.0062
712.9545	-0.0049
713.1346	0.0155
713.3147	0.0069
713.4947	-0.0262
713.6748	-0.0146
713.8548	-0.0062
714.0348	0.0107
714.2148	-0.0207
714.3948	0.0134
714.5748	-0.0264
714.7547	-0.0089
714.9346	-0.016
715.1145	-0.0207
715.2944	0.03
715.4743	-0.012
715.6541	-0.0233
715.834	0.0129
716.0138	0.0156
716.1936	-0.0167
716.3733	0.0056
716.5531	0.0043
716.7328	-0.0283
716.9126	-0.0064
717.0923	-0.027
717.2719	0.0033
717.4516	-0.0076
717.6312	-0.0194
717.8109	-0.0128
717.9905	-0.01
718.1701	-0.0012
718.3496	0.021
718.5292	-0.0153
718.7087	-0.0037
718.8882	0.015
719.0677	0.0055
719.2472	-0.0071
719.4267	-0.0133
719.6061	0.0034
719.7856	0.003
719.965	0.0174
720.1443	-0.021
720.3237	-0.003
720.5031	0.0165
720.6824	0.0027
720.8617	-0
721.041	0.007
721.2203	0.002
721.3995	-0.0168
721.5788	-0.0085
721.758	-0.0336
721.9372	-0.0077
722.1164	0.0216
722.2956	-0.0026
722.4747	0.0185
722.6538	0.016
722.8329	-0.0438
723.012	0.0107
723.1911	0.0013
723.3702	-0.0387
723.5492	-0.0263
723.7282	-0.0093
723.9072	-0.0157
724.0862	-0.0289
724.2652	-0.0081
724.4441	0.0103
724.623	-0.0245
724.8019	-0.009
724.9808	-0.0144
725.1597	-0.0066
725.3385	-0.0171
725.5174	0.0291
725.6962	-0.0003
725.875	0.0065
726.0538	-0.0195
726.2325	-0.0177
726.4112	-0.0032
726.59	0.0088
726.7687	-0.0076
726.9474	0.003
727.126	0.0058
727.3047	-0.0065
727.4833	0.0304
727.6619	0.0192
727.8405	-0.0051
728.0191	-0.0312
728.1976	-0.044
728.3762	-0.0199
728.5547	-0.0022
728.7332	-0.0175
728.9116	-0.0611
729.0901	0.0133
729.2686	-0.0073
729.447	-0.0132
729.6254	0.0196
729.8038	-0.0071
729.9821	0.0074
730.1605	-0.0039
730.3388	-0.0142
730.5171	-0.0026
730.6954	0.0303
730.8737	0.0242
731.0519	0.001
731.2302	0.0103
731.4084	-0.0008
731.5866	-0.0233
731.7648	-0.0204
731.9429	-0.0106
732.1211	-0.0108
732.2992	-0.0238
732.4773	-0.01
732.6554	0.0006
732.8335	-0.0055
733.0115	-0.0215
733.1896	-0.0115
733.3676	-0.0037
733.5456	-0.0046
733.7235	-0.0038
733.9015	-0.0023
734.0794	-0.0019
734.2574	-0.0095
734.4353	0.0018
734.6131	0.0093
734.791	0.0075
734.9689	-0.0137
735.1467	-0.0083
735.3245	0.0231
735.5023	-0.0005
735.68	0.0008
735.8578	-0.0091
736.0355	0.0016
736.2132	0.0043
736.3909	-0.0062
736.5686	-0.0062
736.7463	-0.0327
736.9239	-0.0086
737.1015	-0.0043
737.2791	-0.0072
737.4567	-0.0096
737.6343	-0.0152
737.8118	-0.0229
737.9894	-0.006
738.1669	0.004
738.3444	-0
738.5218	0.0084
738.6993	-0.0026
738.8767	-0.0074
739.0541	-0.0029
739.2315	-0.0167
739.4089	0.0036
739.5863	0.0084
739.7636	-0.0091
739.9409	-0.0018
740.1182	-0.0245
740.2955	-0.0377
740.4728	0.0099
740.65	-0.0473
740.8272	0.006
741.0044	-0.0061
741.1816	0.0063
741.3588	0.0225
741.5359	-0.0068
741.7131	0.0223
741.8902	-0.0154
742.0673	0.0239
742.2444	-0.0109
742.4214	0.0089
742.5985	0.0012
742.7755	-0.0144
742.9525	0.0134
743.1295	0.0112
743.3064	0.0058
743.4834	-0.0175
743.6603	-0.0281
743.8372	0.0136
744.0141	0.0245
744.191	0.002
744.3678	0.0299
744.5446	-0.0005
744.7215	-0.0146
744.8982	0.014
745.075	0.0269
745.2518	-0.0335
745.4285	-0.0023
745.6052	-0.0045
745.7819	0.0048
745.9586	-0.0049
746.1353	0.0087
746.3119	-0.0044
746.4885	-0.0098
746.6651	-0.0222
746.8417	-0.0506
747.0183	-0.0413
747.1948	-0.0343
747.3714	-0.0024
747.5479	-0.0116
747.7244	-0.0521
747.9008	0.007
748.0773	-0.0132
748.2537	0.0234
748.4301	0.014
748.6065	-0.0239
748.7829	-0.0174
748.9593	0.0042
749.1356	-0.0021
749.3119	-0.0169
749.4882	-0.0075
749.6645	0.016
749.8408	-0.0161
750.017	0.0039
750.1933	0.0178
750.3695	-0.0141
750.5457	-0.0241
750.7218	-0.0055
750.898	-0.0178
751.0741	-0.0113
751.2502	-0.0025
751.4263	0.001
751.6024	0.0265
751.7784	-0.0447
751.9545	-0.03
752.1305	0.0066
752.3065	0.0112
752.4825	-0.0149
752.6584	0.02
752.8344	0.0205
753.0103	-0.0222
753.1862	-0.0239
753.3621	-0.0054
753.5379	-0.0154
753.7138	-0.029
753.8896	0.0242
754.0654	0.0192
754.2412	0.0269
754.417	0.0025
754.5927	-0.0338
754.7685	-0.026
754.9442	0.0036
755.1199	0.0108
755.2956	0.0081
755.4712	-0.0146
755.6469	-0.0095
755.8225	0.0008
755.9981	0.0029
756.1736	0.0126
756.3492	-0.0115
756.5248	-0.0116
756.7003	-0.0051
756.8758	-0.0163
757.0513	-0.0221
757.2267	-0.0089
757.4022	-0.0095
757.5776	-0.0199
757.753	-0.0215
757.9284	-0.0061
758.1038	0.006
758.2791	0.0143
758.4545	0.0038
758.6298	-0.0151
758.8051	-0.0116
758.9803	-0.0193
759.1556	-0.0127
759.3308	-0.0077
759.506	0.0183
759.6812	-0.002
759.8564	-0.0298
760.0316	-0.0008
760.2067	-0.0316
760.3819	-0.0033
760.557	-0.0108
760.732	0.008
760.9071	-0.0084
761.0821	-0
761.2572	0.0155
761.4322	-0.0119
761.6072	0.0162
761.7821	0.0089
761.9571	-0.0122
762.132	-0.0269
762.3069	-0.0057
762.4818	-0.0047
762.6567	-0.0168
762.8316	-0.0104
763.0064	-0.0158
763.1812	-0.0394
763.356	-0.0007
763.5308	-0.0161
763.7055	-0.0114
763.8803	-0.0106
764.055	-0.0016
764.2297	-0.0245
764.4044	-0.0027
764.579	-0.0091
764.7537	-0.0248
764.9283	-0.0222
765.1029	0.0117
765.2775	-0.0344
765.4521	0.0104
765.6266	-0.0215
765.8011	-0.0115
765.9756	0.0142
766.1501	0.0174
766.3246	-0.0267
766.4991	-0.0123
766.6735	-0.0165
766.8479	-0.0123
767.0223	0.0066
767.1967	-0.0167
767.371	0.0137
767.5454	0.0218
767.7197	-0.0173
767.894	-0.0088
768.0683	-0.0019
768.2425	-0.0135
768.4168	0.0297
768.591	0.0082
768.7652	0.0158
768.9394	0.0092
769.1135	-0.0065
769.2877	-0.0004
769.4618	-0.027
769.6359	-0.0084
769.81	-0.0082
769.984	0.0038
770.1581	0.0019
770.3321	-0.0109
770.5061	0.0383
770.6801	0.0102
770.8541	-0.0293
771.028	-0.0217
771.202	-0.0351
771.3759	0.015
771.5498	-0.0211
771.7236	0.0195
771.8975	-0.0533
772.0713	-0.0137
772.2451	-0.0193
772.4189	0.0159
772.5927	-0.0284
772.7665	0.0152
772.9402	-0.0037
773.1139	-0.0061
773.2876	0.0243
773.4613	-0.0035
773.635	0.0098
773.8086	-0.0271
773.9822	0.0247
774.1558	-0.0169
774.3294	-0.0514
774.503	0.0056
774.6765	0.0332
774.8501	0.0169
775.0236	0.0118
775.1971	-0.0326
775.3705	-0.0016
775.544	0.0009
775.7174	-0.0018
775.8908	-0.0041
776.0642	0.0226
776.2376	-0.1145
776.4109	0.0164
776.5843	-0.058
776.7576	0.0113
776.9309	0.022
777.1041	-0.0361
777.2774	-0.046
777.4506	-0.025
777.6238	0.0017
777.797	-0.0184
777.9702	0.0071
778.1434	0.0301
778.3165	-0.03
778.4896	-0.0445
778.6627	0.024
778.8358	-0.0088
779.0089	-0.0064
779.1819	-0.0091
779.3549	-0
779.5279	-0.009
779.7009	-0.017
779.8739	-0.0171
780.0468	0.0148
780.2197	-0.0533
780.3926	-0.0319
780.5655	-0.0086
780.7384	0.0068
780.9112	-0.0106
781.0841	-0.003
781.2569	-0.0222
781.4297	0.0467
781.6024	0.001
781.7752	-0.0276
781.9479	-0.0094
782.1206	0.0092
782.2933	0.0006
782.466	-0.0035
782.6386	-0.0354
782.8113	0.0018
782.9839	0.0023
783.1565	0.0097
783.329	-0.0113
783.5016	0.0254
783.6741	-0.0444
783.8466	-0.0554
784.0191	-0.042
784.1916	0.0039
784.3641	-0.0471
784.5365	0.0466
784.7089	-0.0273
784.8813	-0.0037
785.0537	-0.0073
785.2261	0.0078
785.3984	-0.0332
785.5707	0.0337
785.743	-0.0572
785.9153	-0.0055
786.0876	-0.021
786.2598	0.0223
786.432	-0.0114
786.6042	0.0431
786.7764	-0.0426
786.9486	0.0348
787.1207	-0
787.2928	-0.0242
787.4649	-0.0138
787.637	0.004
787.8091	-0.0214
787.9811	-0.0097
788.1532	0.0175
788.3252	-0.05
788.4972	-0.0122
788.6691	0.0057
788.8411	-0.025
789.013	-0.0091
789.1849	-0.0267
789.3568	0.0008
789.5287	-0.0425
789.7005	-0.0033
789.8723	-0
790.0442	-0.0542
790.2159	0.0319
790.3877	0.0501
790.5595	-0.0042
790.7312	-0.0306
790.9029	0.0123
791.0746	-0.0198
791.2463	0.0145
791.4179	-0.0597
791.5896	-0.0482
791.7612	-0.0402
791.9328	-0.0237
792.1044	-0.0424
792.2759	-0.027
792.4474	-0.0276
792.619	0.0531
792.7905	-0.0392
792.9619	-0.0198
793.1334	-0.0154
793.3048	-0.0373
793.4762	-0.0298
793.6476	0.0076
793.819	-0.0049
793.9904	0.0088
794.1617	-0.026
794.333	-0.032
794.5043	0.0171
794.6756	0.0158
794.8469	-0.0044
795.0181	-0.0244
795.1893	-0.0021
795.3605	-0.039
795.5317	0.0253
795.7029	-0.0064
795.874	0.0106
796.0452	-0.0401
796.2163	0.0594
796.3873	0.0989
796.5584	0.0196
796.7294	-0.0302
796.9005	-0.0138
797.0715	-0.0087
797.2425	-0.0338
797.4134	0.0023
797.5844	0.0087
797.7553	-0.0045
797.9262	0.0238
798.0971	-0.0276
798.2679	0.0337
798.4388	-0.0651
798.6096	-0.0273
798.7804	-0.0249
798.9512	0.0024
799.122	0.0271
799.2927	-0.084
799.4635	0.0213
799.6342	-0.0043
799.8049	0.0276
799.9755	0.0049
800.1462	0.0941
800.3168	-0.03
800.4874	0.0057
800.658	0.0222
800.8286	0.0157
800.9991	-0.0015
801.1696	-0.0045
801.3402	-0.0858
801.5106	-0.0312
801.6811	0.0795
801.8516	-0.0131
802.022	0.0125
802.1924	-0.0759
802.3628	-0.0116
802.5332	-0.0244
802.7035	0.0372
802.8739	0.0403
803.0442	0.0179
803.2145	0.013
803.3847	-0.071
803.555	0.0074
803.7252	0.0101
803.8954	0.0259
804.0656	-0.0104
804.2358	0.008
804.4059	0.0684
804.5761	0.0784
804.7462	-0.0847
804.9163	-0.0114
805.0864	-0.0577
805.2564	0.0227
805.4264	-0.0871
805.5965	-0.0117
805.7665	0.0866
805.9364	-0.1222
806.1064	-0.0607
806.2763	-0.0086
806.4462	-0.0078
806.6161	-0.0103
806.786	0.0595
806.9559	0.0057
807.1257	-0.0299
807.2955	0.0282
807.4653	-0.0628
807.6351	0.0215
807.8048	0.05
807.9746	0.0127
808.1443	0.0124
808.314	-0.0148
808.4837	-0.0136
808.6533	0.0258
808.8229	-0.1124
808.9926	0.0664
809.1622	-0.0793
809.3317	-0.0834
809.5013	-0.018
809.6708	0.0233
809.8403	-0.0703
810.0098	0.0419
810.1793	0.0499
810.3488	0.1371
810.5182	0.0513
810.6876	-0.0355
810.857	-0.1369
811.0264	-0.0631
811.1958	-0.0691
811.3651	-0.1419
811.5344	0.0702
811.7037	-0.0523
811.873	0.0959
812.0422	-0.0116
812.2115	-0.0744
812.3807	0.0452
812.5499	0.2293
812.7191	0.0037
812.8882	-0.0961
813.0574	-0.1945
813.2265	0.0982
813.3956	-0.0113
813.5646	0.0201
813.7337	-0.1447
813.9027	0.0019
814.0718	-0.0244
814.2407	-0.0381
814.4097	0.0385
814.5787	-0.0215
814.7476	-0.0028
814.9165	0.0781
815.0854	-0.0189
815.2543	0.049
815.4232	-0.2045
815.592	0.0399
815.7608	-0.037
815.9296	0.0709
816.0984	0.0687
816.2671	-0
816.4359	0.0527
816.6046	0.0655
816.7733	0.0905
816.942	0.0537
817.1106	-0.29
817.2793	-0.1138
817.4479	-0.1068
817.6165	0.0868
817.785	-0.0219
817.9536	0.0311
818.1221	0.018
818.2906	0.0565
818.4591	0.0049
818.6276	-0.0533
818.7961	0.0848
818.9645	-0.054
819.1329	0.2131
819.3013	-0.0116
819.4697	0.0072
819.638	0.1707
819.8064	-0.1645
819.9747	0.0211
820.143	0.1843
820.3113	0.1158
820.4795	0.0677
820.6477	-0.0535
820.816	-0.0249
820.9842	0.0095
821.1523	-0
821.3205	0.0159
821.4886	-0.0801
821.6567	0.0304
821.8248	-0.0354
821.9929	0.054
822.1609	0.0162
822.329	-0.014
822.497	-0
822.665	0.0867
822.833	-0.0958
823.0009	-0.2065
823.1688	-0.1366
823.3367	-0.214
823.5046	0.2371
823.6725	0.1265
823.8404	-0.1162
824.0082	-0.0276
824.176	0.2107
824.3438	0.012
824.5116	0.0478
824.6793	0.0144
824.847	-0.0571
825.0147	0.0837
825.1824	0.1871
825.3501	-0.054
825.5177	-0.0028
825.6854	0.1447
825.853	-0.1238
826.0206	-0.0688
826.1881	0.1465
826.3557	-0.0401
826.5232	-0
826.6907	0.0654
826.8582	0.1215
827.0257	0.0402
827.1931	0.1081
827.3605	-0.1024
827.528	0.0138
827.6953	0.2166
827.8627	-0.0097
828.03	-0.0579
828.1974	-0.1184
828.3647	0.0497
828.532	0.177
828.6992	0.0848
828.8665	-0.0681
829.0337	-0.0461
829.2009	0.119
829.3681	0.0719
829.5352	-0.1361
829.7024	-0.1285
829.8695	-0.1356
830.0366	0.2559
830.2037	0.0796
830.3707	-0.0188
830.5378	0.072
830.7048	-0.2877
830.8718	-0.045
831.0388	0.2351
831.2057	-0.0137
831.3727	0.418
831.5396	-0.1804
831.7065	0.1087
831.8734	-0.3615
832.0402	0.3327
832.2071	-0
832.3739	0.2762
832.5407	-0
832.7075	0.1141
832.8742	0.4091
833.041	0.144
833.2077	0.0618
833.3744	-0.0941
833.541	-0.0719
833.7077	-0.0484
833.8743	-0.0752
834.0409	-0.1042
834.2075	-0.0374
834.3741	0.1963
834.5407	-0.1752
834.7072	0.0081
834.8737	0.1815
835.0402	-0.4337
835.2067	0.3649
835.3731	-0
835.5395	0.0924
835.706	0.1418
835.8723	0.0352
836.0387	-0.0131
836.2051	0.2399
836.3714	-0.182
836.5377	-0
836.704	0.246
836.8703	-0.1993
837.0365	-0.0481
837.2027	-0.5533
837.3689	0.1541
837.5351	-0.2492
837.7013	-0.0542
837.8674	-0.8226
838.0335	-0.0377
838.1997	2.3747
838.3657	-0
838.5318	-0.988
838.6978	0.1012
838.8639	-0.0801
839.0299	0.4469
839.1958	-0.0772
839.3618	-0
839.5277	-0.1856
839.6937	-0.2154
839.8596	0.0566
840.0254	0.2998
840.1913	0.1379
840.3571	-0.368
840.523	0.0112
840.6888	0.0493
840.8545	-0.1552
841.0203	-0.1245
841.186	0.0266
841.3517	0.2782
841.5174	0.2999
841.6831	0.0698
841.8488	-0.0129
842.0144	-0
842.18	0.1872
842.3456	0.134
842.5112	-0.2473
842.6767	-0.1113
842.8422	-0.0497
843.0077	0.1078
843.1732	-0.0845
843.3387	1.0325
843.5042	0.2734
843.6696	0.6084
843.835	-0.1511
844.0004	0.1266
844.1657	-0.4052
844.3311	0.122
844.4964	0.072
844.6617	-0
844.827	0.9222
844.9923	0.2683
845.1575	-0
845.3227	2.1959
845.4879	-0.0625
845.6531	-0.2743
845.8183	0.206
845.9834	-0.4858
846.1485	-0.0993
846.3136	0.2908
846.4787	-0.4304
846.6438	0.3909
846.8088	0.699
846.9738	-0
847.1388	0.9176
847.3038	-0.2732
847.4687	-0.8777
847.6337	0.0206
847.7986	-0.0107
847.9635	0.0365
848.1284	-0
848.2932	1.3054
848.458	-0.1428
848.6228	-0.1411
848.7876	-0
848.9524	-0
849.1172	-0.3551
849.2819	-0
849.4466	-0.1807
849.6113	-0.337
849.7759	-0
849.9406	-0.0592
850.1052	-0.3726
850.2698	-0
850.4344	1.5185
850.599	0.7223
850.7635	0.2553
850.928	0.1717
851.0925	0.2319
851.257	0.2058
851.4215	0.8195
851.5859	0.6358
851.7503	-0
851.9147	-0.8846
852.0791	-0.6694
852.2434	0.0767
852.4078	-0
852.5721	0.0365
852.7364	0.3887
852.9007	-0.3795
853.0649	0.2088
853.2291	-0
853.3934	-0
853.5575	0.0523
853.7217	-0.4731
853.8859	0.6702
854.05	-1.1677
854.2141	-0
854.3782	0.3387
854.5423	-0.9465
854.7063	-0.1036
854.8703	0.1613
855.0343	0.0801
855.1983	-0.0603
855.3623	0.119
855.5262	-0.1963
855.6901	-0
855.854	-0.1823
856.0179	-0
856.1818	1.5185
856.3456	0.1085
856.5094	-0
856.6732	-0.5907
856.837	0.3622
857.0008	-0
857.1645	-0
857.3282	-0.2748
857.4919	-0.1115
857.6556	0.0729
857.8192	-0.5201
857.9828	-0.2986
858.1465	1.6902
858.31	-0
858.4736	-0
858.6372	-0
858.8007	-0.8016
858.9642	0.7355
859.1277	0.6463
859.2911	0.1712
859.4546	-0.0386
859.618	-0.0836
859.7814	-0
859.9448	0.7295
860.1081	-0
860.2715	-0
860.4348	-0.0355
860.5981	-0.9176
860.7614	0.9542
860.9246	-0.0961
861.0879	0.0657
861.2511	-0
861.4143	-0
861.5774	0.2374
861.7406	-0
861.9037	0.4055
862.0668	-0.6547
862.2299	-0
862.393	-0
862.556	-0
862.7191	-0.0577
862.8821	-0.2501
863.0451	0.7471
863.208	-0
863.371	0.1872
863.5339	-0.0834
863.6968	-0.1487
863.8597	-0.8625
864.0225	-0
864.1854	-0.4535
864.3482	0.0549
864.511	-0.104
864.6737	-0.0209
864.8365	0.0645
864.9992	-0
865.1619	0.2465
865.3246	0.0716
865.4873	-0.8728
865.65	-1.2892
865.8126	-0
865.9752	1.3054
866.1378	-0.6058
866.3004	0.292
866.4629	0.0993
866.6254	-0.9542
866.7879	0.9655
866.9504	-0.2278
867.1129	0.4712
867.2753	0.1239
867.4377	0.0789
867.6001	-0
867.7625	-0.1751
867.9249	0.9188
868.0872	-0.2315
868.2495	0.5411
868.4118	0.0245
868.5741	1.5185
868.7363	-0
868.8986	0.0424
869.0608	0.048
869.223	0.1908
869.3851	-0
869.5473	-1.0988
869.7094	-0
869.8715	-0
870.0336	-0.1124
870.1957	-1.1813
870.3577	0.1003
870.5197	-0.0437
870.6817	-0
870.8437	-0
871.0057	0.65
871.1676	-0.0108
871.3295	0.3443
871.4914	-0.1666
871.6533	-0
871.8151	-0.4246
871.977	0.238
872.1388	-0
872.3006	0.5725
872.4623	-0.5424
872.6241	-0
872.7858	0.6463
872.9475	-0
873.1092	1.6684
873.2709	0.2501
873.4325	-0
873.5941	-0
873.7557	-0.309
873.9173	-0.6329
874.0789	0.0376
874.2404	-0
874.4019	0.0638
874.5634	-0
874.7249	-0
874.8863	-0
875.0478	1.0877
875.2092	0.1188
875.3706	-0.1923
875.5319	-0
875.6933	-0
875.8546	-0.2553
876.0159	-0.2553
876.1772	-0.8562
876.3385	-0
876.4997	-0
876.6609	-0.5549
876.8221	0.762
876.9833	0.6403
877.1445	-0.1424
877.3056	-0.2534
877.4667	-0
877.6278	0.2619
877.7889	0.3053
877.9499	1.0253
878.111	0.3289
878.272	-0.9222
878.433	-0.368
878.5939	-0.3319
878.7549	-0.85
878.9158	-0.06
879.0767	-0.459
879.2376	-0
879.3984	0.2261
879.5593	-0.3296
879.7201	-0
879.8809	0.1146
880.0417	-0.0493
880.2024	-0.0475
880.3632	-0
880.5239	-0.3576
880.6846	0.1703
880.8452	0.9665
881.0059	-0.0424
881.1665	0.233
881.3271	0.6585
881.4877	0.7223
881.6483	-1.0142
881.8088	-0.212
881.9693	-0
882.1298	-0
882.2903	-0
