Data from MonoPyChalIsomerACN10uM450nmA_Absorbance_13-11-26-291.txt Node
Date: Tue Jul 09 13:11:26 BST 2024
User: LASERRRRR
Spectrometer: FLMT03099
Trigger mode: 0
Integration Time (sec): 2.000000E-1
Scans to average: 1
Electric dark correction enabled: true
Nonlinearity correction enabled: false
Boxcar width: 0
XAxis mode: Wavelengths
Number of Pixels in Spectrum: 3648
>>>>>Begin Spectral Data<<<<<
179.3399	0.0634
179.5586	0.0634
179.7771	0.0634
179.9957	0.054
180.2143	-0.1063
180.4329	0.2909
180.6514	-0
180.8699	-0
181.0885	-0.1236
181.307	-0
181.5255	-0
181.744	-0
181.9625	0.3447
182.181	-0
182.3994	0.1666
182.6179	-0.381
182.8363	-0
183.0547	0.1591
183.2732	0.1947
183.4916	0.0798
183.71	0.0495
183.9284	0.1333
184.1467	0.0955
184.3651	0.1321
184.5835	0.1274
184.8018	0.0445
185.0201	0.1465
185.2385	0.0812
185.4568	-0.02
185.6751	0.2266
185.8934	0.0156
186.1117	0.0909
186.3299	0.0273
186.5482	0.0301
186.7664	-0.001
186.9847	0.1822
187.2029	0.1309
187.4211	0.0928
187.6393	-0.1389
187.8575	0.1776
188.0757	0.1326
188.2939	0.0984
188.512	-0.0387
188.7302	0.0566
188.9483	0.1357
189.1665	0.0812
189.3846	0.1695
189.6027	0.0525
189.8208	0.1767
190.0389	0.2652
190.257	0.1834
190.475	0.2708
190.6931	0.1772
190.9111	0.2259
191.1292	0.3055
191.3472	0.2615
191.5652	0.3564
191.7832	0.3565
192.0012	0.4429
192.2192	0.5267
192.4371	0.5551
192.6551	0.4962
192.873	0.3624
193.091	0.4512
193.3089	0.5793
193.5268	0.473
193.7447	0.5888
193.9626	0.5167
194.1805	0.5569
194.3984	0.5952
194.6162	0.632
194.8341	0.5401
195.0519	0.6599
195.2697	0.5981
195.4875	0.5953
195.7054	0.6424
195.9231	0.6893
196.1409	0.6357
196.3587	0.614
196.5765	0.7786
196.7942	0.7417
197.012	0.6548
197.2297	0.7117
197.4474	0.6988
197.6651	0.6668
197.8828	0.9365
198.1005	0.8679
198.3182	0.7499
198.5358	0.7004
198.7535	0.8689
198.9711	0.872
199.1888	0.7235
199.4064	0.9031
199.624	0.7241
199.8416	0.8263
200.0592	0.8523
200.2767	0.7609
200.4943	0.7872
200.7119	0.7821
200.9294	0.9459
201.1469	0.8228
201.3645	0.8185
201.582	0.8936
201.7995	0.7571
202.017	1.0083
202.2344	0.7876
202.4519	1.0252
202.6694	0.8986
202.8868	0.9611
203.1042	1.0852
203.3217	1.0152
203.5391	0.9522
203.7565	0.9262
203.9739	0.9155
204.1913	0.8389
204.4086	0.9762
204.626	0.9535
204.8433	0.9571
205.0607	0.9807
205.278	1.0034
205.4953	0.9327
205.7126	1.0118
205.9299	1.0137
206.1472	0.999
206.3644	1.0133
206.5817	1.0403
206.7989	1.0421
207.0162	1.1353
207.2334	0.9274
207.4506	1.1056
207.6678	1.058
207.885	1.067
208.1022	1.162
208.3194	1.1631
208.5365	1.0468
208.7537	0.9843
208.9708	1.0169
209.1879	1.0241
209.405	1.0652
209.6222	1.0955
209.8392	1.0803
210.0563	1.0362
210.2734	1.0135
210.4905	1.1451
210.7075	1.0338
210.9245	1.0534
211.1416	1.1808
211.3586	1.1129
211.5756	1.0926
211.7926	1.0778
212.0096	0.9907
212.2265	1.0834
212.4435	1.1066
212.6604	1.136
212.8774	1.0335
213.0943	1.0433
213.3112	0.9834
213.5281	1.0772
213.745	0.9984
213.9619	0.9391
214.1788	0.9852
214.3956	0.9392
214.6125	0.9951
214.8293	0.8691
215.0461	0.8999
215.2629	0.8876
215.4798	0.8948
215.6965	0.8185
215.9133	0.8511
216.1301	0.8043
216.3469	0.8337
216.5636	0.7783
216.7803	0.7829
216.9971	0.7887
217.2138	0.7307
217.4305	0.6954
217.6472	0.682
217.8639	0.666
218.0805	0.6194
218.2972	0.5761
218.5138	0.553
218.7305	0.5199
218.9471	0.4693
219.1637	0.4576
219.3803	0.4223
219.5969	0.3906
219.8135	0.364
220.0301	0.3512
220.2466	0.3764
220.4632	0.337
220.6797	0.315
220.8962	0.3265
221.1127	0.3078
221.3292	0.2981
221.5457	0.2841
221.7622	0.2991
221.9787	0.2847
222.1951	0.2859
222.4116	0.2751
222.628	0.282
222.8444	0.2635
223.0608	0.2708
223.2772	0.272
223.4936	0.257
223.71	0.2703
223.9264	0.2782
224.1427	0.2603
224.3591	0.2627
224.5754	0.2683
224.7917	0.2711
225.008	0.2815
225.2243	0.2777
225.4406	0.2928
225.6569	0.2878
225.8732	0.2885
226.0894	0.2762
226.3057	0.2954
226.5219	0.2918
226.7381	0.2888
226.9543	0.2889
227.1705	0.2981
227.3867	0.3061
227.6029	0.3034
227.8191	0.2984
228.0352	0.3098
228.2513	0.3088
228.4675	0.2998
228.6836	0.3155
228.8997	0.2907
229.1158	0.3309
229.3319	0.3193
229.548	0.3244
229.764	0.3188
229.9801	0.3221
230.1961	0.3317
230.4121	0.3307
230.6282	0.3362
230.8442	0.3422
231.0602	0.3433
231.2761	0.3362
231.4921	0.3442
231.7081	0.3553
231.924	0.3591
232.14	0.3525
232.3559	0.3684
232.5718	0.354
232.7877	0.3474
233.0036	0.3664
233.2195	0.3649
233.4353	0.363
233.6512	0.383
233.867	0.3628
234.0829	0.3697
234.2987	0.382
234.5145	0.3784
234.7303	0.3921
234.9461	0.3838
235.1619	0.3911
235.3776	0.3859
235.5934	0.3944
235.8091	0.3876
236.0249	0.3861
236.2406	0.391
236.4563	0.3923
236.672	0.3952
236.8877	0.4056
237.1034	0.4071
237.319	0.4015
237.5347	0.4003
237.7503	0.4084
237.966	0.4116
238.1816	0.4101
238.3972	0.4231
238.6128	0.4137
238.8284	0.4089
239.0439	0.4111
239.2595	0.426
239.475	0.4207
239.6906	0.4234
239.9061	0.4117
240.1216	0.4183
240.3371	0.4191
240.5526	0.4183
240.7681	0.4033
240.9836	0.4203
241.199	0.4118
241.4145	0.4065
241.6299	0.4086
241.8453	0.3986
242.0607	0.3873
242.2761	0.3965
242.4915	0.3873
242.7069	0.3766
242.9223	0.3734
243.1376	0.3787
243.353	0.3539
243.5683	0.3673
243.7836	0.3548
243.9989	0.3536
244.2142	0.3332
244.4295	0.3409
244.6448	0.3283
244.86	0.3248
245.0753	0.3131
245.2905	0.3048
245.5057	0.3047
245.721	0.3095
245.9362	0.2959
246.1514	0.2856
246.3665	0.2852
246.5817	0.2741
246.7969	0.2849
247.012	0.2635
247.2271	0.2647
247.4423	0.2665
247.6574	0.2628
247.8725	0.2592
248.0876	0.256
248.3026	0.2482
248.5177	0.2505
248.7328	0.2413
248.9478	0.2495
249.1628	0.2316
249.3779	0.2319
249.5929	0.2221
249.8079	0.2339
250.0228	0.2303
250.2378	0.2246
250.4528	0.2192
250.6677	0.2241
250.8827	0.2167
251.0976	0.2094
251.3125	0.2075
251.5274	0.2031
251.7423	0.2107
251.9572	0.2128
252.172	0.2108
252.3869	0.2017
252.6017	0.2028
252.8166	0.2046
253.0314	0.1981
253.2462	0.2117
253.461	0.2023
253.6758	0.206
253.8906	0.1952
254.1053	0.206
254.3201	0.2105
254.5348	0.2043
254.7496	0.2029
254.9643	0.2024
255.179	0.1942
255.3937	0.2025
255.6083	0.1958
255.823	0.1945
256.0377	0.201
256.2523	0.1992
256.467	0.2051
256.6816	0.1958
256.8962	0.2029
257.1108	0.1967
257.3254	0.2007
257.54	0.1978
257.7545	0.1897
257.9691	0.1977
258.1836	0.1928
258.3981	0.2034
258.6127	0.194
258.8272	0.191
259.0417	0.1951
259.2561	0.193
259.4706	0.1923
259.6851	0.1994
259.8995	0.1929
260.114	0.1877
260.3284	0.2076
260.5428	0.1951
260.7572	0.203
260.9716	0.1994
261.186	0.2032
261.4003	0.2053
261.6147	0.1901
261.829	0.1986
262.0433	0.1979
262.2577	0.203
262.472	0.2027
262.6863	0.1899
262.9005	0.195
263.1148	0.193
263.3291	0.1885
263.5433	0.1875
263.7576	0.1895
263.9718	0.1962
264.186	0.1853
264.4002	0.189
264.6144	0.1862
264.8286	0.1832
265.0427	0.1788
265.2569	0.1868
265.471	0.1833
265.6851	0.1762
265.8993	0.178
266.1134	0.1751
266.3275	0.1783
266.5415	0.1753
266.7556	0.1875
266.9697	0.1822
267.1837	0.1743
267.3978	0.1833
267.6118	0.1891
267.8258	0.1851
268.0398	0.1991
268.2538	0.1917
268.4677	0.1967
268.6817	0.1956
268.8957	0.1969
269.1096	0.1858
269.3235	0.18
269.5374	0.1824
269.7514	0.1643
269.9652	0.1659
270.1791	0.1574
270.393	0.159
270.6068	0.1525
270.8207	0.149
271.0345	0.1581
271.2483	0.1556
271.4622	0.158
271.676	0.1486
271.8897	0.1417
272.1035	0.147
272.3173	0.149
272.531	0.1463
272.7448	0.1471
272.9585	0.1395
273.1722	0.1392
273.3859	0.1457
273.5996	0.139
273.8133	0.144
274.0269	0.1456
274.2406	0.1402
274.4542	0.147
274.6679	0.143
274.8815	0.1491
275.0951	0.1481
275.3087	0.1458
275.5223	0.1397
275.7358	0.1501
275.9494	0.1552
276.1629	0.145
276.3765	0.145
276.59	0.1531
276.8035	0.1503
277.017	0.1448
277.2305	0.1524
277.444	0.1489
277.6574	0.1456
277.8709	0.1552
278.0843	0.1523
278.2978	0.1497
278.5112	0.1537
278.7246	0.1519
278.938	0.1511
279.1513	0.15
279.3647	0.1491
279.5781	0.1429
279.7914	0.1519
280.0047	0.1523
280.2181	0.1544
280.4314	0.148
280.6447	0.1511
280.8579	0.1534
281.0712	0.1523
281.2845	0.1539
281.4977	0.1516
281.711	0.1602
281.9242	0.1609
282.1374	0.1553
282.3506	0.1463
282.5638	0.153
282.7769	0.1616
282.9901	0.1489
283.2033	0.1558
283.4164	0.1562
283.6295	0.1609
283.8426	0.156
284.0557	0.1541
284.2688	0.1535
284.4819	0.159
284.695	0.1561
284.908	0.1557
285.1211	0.1634
285.3341	0.1557
285.5471	0.1612
285.7601	0.1576
285.9731	0.1544
286.1861	0.161
286.3991	0.1633
286.612	0.158
286.825	0.1549
287.0379	0.1609
287.2508	0.1521
287.4637	0.1583
287.6766	0.1445
287.8895	0.1586
288.1024	0.162
288.3152	0.1616
288.5281	0.1605
288.7409	0.1532
288.9538	0.1535
289.1666	0.1659
289.3794	0.1572
289.5922	0.1607
289.8049	0.1578
290.0177	0.1558
290.2304	0.1614
290.4432	0.1607
290.6559	0.1596
290.8686	0.1572
291.0813	0.1594
291.294	0.1616
291.5067	0.1548
291.7194	0.1565
291.932	0.1533
292.1447	0.1533
292.3573	0.159
292.5699	0.1725
292.7825	0.1568
292.9951	0.1611
293.2077	0.1516
293.4203	0.1583
293.6328	0.167
293.8454	0.1568
294.0579	0.1554
294.2704	0.1604
294.4829	0.1645
294.6954	0.16
294.9079	0.1595
295.1204	0.157
295.3328	0.1589
295.5453	0.1536
295.7577	0.1502
295.9701	0.1554
296.1825	0.1547
296.3949	0.1542
296.6073	0.1571
296.8197	0.1525
297.0321	0.1654
297.2444	0.1584
297.4567	0.1512
297.6691	0.1537
297.8814	0.1488
298.0937	0.1563
298.306	0.1578
298.5182	0.1502
298.7305	0.1555
298.9428	0.149
299.155	0.1551
299.3672	0.1526
299.5794	0.1623
299.7916	0.1494
300.0038	0.1521
300.216	0.1632
300.4282	0.1561
300.6403	0.1543
300.8525	0.1562
301.0646	0.1538
301.2767	0.1562
301.4888	0.1452
301.7009	0.1576
301.913	0.1636
302.125	0.1509
302.3371	0.1603
302.5491	0.1543
302.7612	0.1612
302.9732	0.1621
303.1852	0.1539
303.3972	0.1563
303.6092	0.1534
303.8211	0.1561
304.0331	0.1545
304.245	0.1513
304.457	0.1586
304.6689	0.155
304.8808	0.1543
305.0927	0.1549
305.3046	0.1439
305.5164	0.1485
305.7283	0.1498
305.9401	0.1492
306.152	0.1503
306.3638	0.1566
306.5756	0.143
306.7874	0.1407
306.9992	0.1435
307.2109	0.1326
307.4227	0.1413
307.6344	0.1343
307.8462	0.132
308.0579	0.1394
308.2696	0.1263
308.4813	0.1282
308.693	0.1229
308.9046	0.1238
309.1163	0.1206
309.328	0.1255
309.5396	0.1208
309.7512	0.1194
309.9628	0.115
310.1744	0.1186
310.386	0.1097
310.5976	0.1134
310.8091	0.1165
311.0207	0.113
311.2322	0.1205
311.4437	0.1205
311.6552	0.1154
311.8667	0.1133
312.0782	0.1068
312.2897	0.107
312.5012	0.1133
312.7126	0.0982
312.924	0.1062
313.1355	0.1024
313.3469	0.1097
313.5583	0.1062
313.7696	0.0992
313.981	0.0996
314.1924	0.0953
314.4037	0.1023
314.6151	0.092
314.8264	0.1063
315.0377	0.1027
315.249	0.1016
315.4603	0.1056
315.6716	0.1027
315.8828	0.1051
316.0941	0.1052
316.3053	0.0956
316.5165	0.0892
316.7277	0.095
316.9389	0.0992
317.1501	0.0966
317.3613	0.0971
317.5724	0.1023
317.7836	0.0909
317.9947	0.1024
318.2058	0.0968
318.417	0.0882
318.6281	0.097
318.8391	0.0957
319.0502	0.0922
319.2613	0.1051
319.4723	0.0982
319.6834	0.0922
319.8944	0.0981
320.1054	0.0926
320.3164	0.0969
320.5274	0.1053
320.7383	0.1
320.9493	0.0994
321.1602	0.0977
321.3712	0.1067
321.5821	0.1016
321.793	0.0977
322.0039	0.0976
322.2148	0.1012
322.4257	0.0998
322.6365	0.0983
322.8474	0.1
323.0582	0.1037
323.269	0.1009
323.4798	0.104
323.6906	0.097
323.9014	0.1013
324.1122	0.0966
324.3229	0.1058
324.5337	0.0953
324.7444	0.0952
324.9551	0.1121
325.1658	0.1013
325.3765	0.0982
325.5872	0.0953
325.7979	0.1059
326.0085	0.1054
326.2192	0.1037
326.4298	0.1092
326.6404	0.1057
326.851	0.0975
327.0616	0.1075
327.2722	0.1088
327.4828	0.0998
327.6933	0.1059
327.9039	0.1046
328.1144	0.1016
328.3249	0.1036
328.5354	0.1024
328.7459	0.1063
328.9564	0.1083
329.1669	0.1083
329.3773	0.1054
329.5878	0.1057
329.7982	0.1072
330.0086	0.1077
330.219	0.1047
330.4294	0.1025
330.6398	0.1086
330.8502	0.1074
331.0605	0.1043
331.2708	0.1043
331.4812	0.1099
331.6915	0.1044
331.9018	0.1007
332.1121	0.1021
332.3224	0.098
332.5326	0.1019
332.7429	0.1082
332.9531	0.1006
333.1633	0.1119
333.3735	0.1105
333.5837	0.1018
333.7939	0.107
334.0041	0.1019
334.2143	0.1033
334.4244	0.1062
334.6346	0.1014
334.8447	0.1118
335.0548	0.1047
335.2649	0.0976
335.475	0.1036
335.685	0.1114
335.8951	0.109
336.1051	0.0995
336.3152	0.1041
336.5252	0.1052
336.7352	0.11
336.9452	0.1125
337.1552	0.1038
337.3652	0.1197
337.5751	0.1095
337.7851	0.1018
337.995	0.1132
338.2049	0.1056
338.4148	0.1114
338.6247	0.1085
338.8346	0.1113
339.0445	0.1179
339.2543	0.109
339.4642	0.1198
339.674	0.1106
339.8838	0.1114
340.0936	0.1121
340.3034	0.1231
340.5132	0.1147
340.7229	0.1224
340.9327	0.12
341.1424	0.1225
341.3522	0.1093
341.5619	0.1258
341.7716	0.1236
341.9813	0.1195
342.1909	0.1273
342.4006	0.1159
342.6102	0.1213
342.8199	0.1209
343.0295	0.1241
343.2391	0.1186
343.4487	0.115
343.6583	0.1288
343.8679	0.12
344.0774	0.1319
344.287	0.1324
344.4965	0.1133
344.706	0.1378
344.9155	0.1267
345.125	0.1259
345.3345	0.1293
345.544	0.1107
345.7534	0.1271
345.9629	0.1294
346.1723	0.1348
346.3817	0.1319
346.5911	0.1314
346.8005	0.131
347.0099	0.1278
347.2193	0.1338
347.4286	0.1372
347.638	0.1353
347.8473	0.1278
348.0566	0.1307
348.2659	0.1252
348.4752	0.138
348.6845	0.131
348.8937	0.1392
349.103	0.1309
349.3122	0.1332
349.5214	0.1358
349.7306	0.1315
349.9398	0.131
350.149	0.1333
350.3582	0.1348
350.5674	0.135
350.7765	0.1324
350.9856	0.1401
351.1948	0.1342
351.4039	0.1452
351.613	0.1321
351.822	0.1428
352.0311	0.1364
352.2402	0.1408
352.4492	0.1445
352.6582	0.1433
352.8672	0.1446
353.0762	0.1489
353.2852	0.1561
353.4942	0.1475
353.7032	0.1482
353.9121	0.1502
354.1211	0.1505
354.33	0.1387
354.5389	0.1478
354.7478	0.1461
354.9567	0.1507
355.1655	0.1586
355.3744	0.1596
355.5833	0.1479
355.7921	0.1582
356.0009	0.1494
356.2097	0.1587
356.4185	0.1478
356.6273	0.1584
356.8361	0.1518
357.0448	0.168
357.2536	0.151
357.4623	0.1555
357.671	0.1623
357.8797	0.162
358.0884	0.1635
358.2971	0.1542
358.5057	0.1674
358.7144	0.162
358.923	0.1695
359.1316	0.1653
359.3402	0.1745
359.5488	0.1659
359.7574	0.1764
359.966	0.1832
360.1746	0.1649
360.3831	0.1756
360.5916	0.1815
360.8002	0.1765
361.0087	0.1663
361.2172	0.1785
361.4256	0.1767
361.6341	0.1793
361.8426	0.1815
362.051	0.1672
362.2594	0.1816
362.4678	0.1787
362.6762	0.188
362.8846	0.1796
363.093	0.1798
363.3014	0.1885
363.5097	0.1792
363.718	0.1811
363.9264	0.1773
364.1347	0.192
364.343	0.183
364.5513	0.1909
364.7595	0.1892
364.9678	0.1922
365.176	0.2008
365.3842	0.1939
365.5925	0.1874
365.8007	0.1861
366.0089	0.1957
366.217	0.1841
366.4252	0.1972
366.6333	0.1935
366.8415	0.1958
367.0496	0.1945
367.2577	0.2033
367.4658	0.2025
367.6739	0.1999
367.882	0.2028
368.09	0.1931
368.2981	0.2167
368.5061	0.2062
368.7141	0.206
368.9221	0.1991
369.1301	0.2158
369.3381	0.2059
369.5461	0.214
369.754	0.2054
369.962	0.2098
370.1699	0.2145
370.3778	0.2073
370.5857	0.2048
370.7936	0.2031
371.0015	0.2072
371.2093	0.211
371.4172	0.2198
371.625	0.2198
371.8328	0.2169
372.0406	0.2143
372.2484	0.2124
372.4562	0.2126
372.664	0.2201
372.8717	0.221
373.0795	0.2042
373.2872	0.2217
373.4949	0.2098
373.7026	0.2166
373.9103	0.2142
374.118	0.2267
374.3256	0.2195
374.5333	0.2164
374.7409	0.2218
374.9485	0.2222
375.1561	0.2236
375.3637	0.2207
375.5713	0.2216
375.7789	0.2264
375.9864	0.2235
376.194	0.2204
376.4015	0.2248
376.609	0.232
376.8165	0.2267
377.024	0.2229
377.2315	0.2287
377.4389	0.2161
377.6464	0.226
377.8538	0.23
378.0612	0.2225
378.2686	0.2236
378.476	0.2217
378.6834	0.2421
378.8908	0.2276
379.0981	0.2392
379.3055	0.228
379.5128	0.2346
379.7201	0.2312
379.9274	0.2453
380.1347	0.2429
380.342	0.236
380.5492	0.2287
380.7565	0.2341
380.9637	0.2509
381.1709	0.2391
381.3781	0.2428
381.5853	0.2414
381.7925	0.2377
381.9997	0.2406
382.2068	0.2355
382.4139	0.2383
382.6211	0.2404
382.8282	0.2355
383.0353	0.2429
383.2424	0.2502
383.4494	0.2455
383.6565	0.2444
383.8635	0.2459
384.0706	0.244
384.2776	0.2511
384.4846	0.2493
384.6916	0.2424
384.8986	0.2425
385.1055	0.2595
385.3125	0.253
385.5194	0.2466
385.7263	0.2431
385.9333	0.2462
386.1402	0.2521
386.347	0.2448
386.5539	0.252
386.7608	0.2486
386.9676	0.2491
387.1744	0.2431
387.3813	0.2443
387.5881	0.237
387.7948	0.2411
388.0016	0.2468
388.2084	0.2546
388.4151	0.2464
388.6219	0.2454
388.8286	0.2469
389.0353	0.2226
389.242	0.2424
389.4487	0.2287
389.6553	0.2295
389.862	0.2307
390.0686	0.2357
390.2753	0.2324
390.4819	0.2318
390.6885	0.2287
390.8951	0.233
391.1016	0.2425
391.3082	0.2292
391.5147	0.2342
391.7213	0.2246
391.9278	0.2141
392.1343	0.2255
392.3408	0.2248
392.5473	0.2313
392.7537	0.2295
392.9602	0.215
393.1666	0.2269
393.373	0.2254
393.5794	0.2181
393.7858	0.2244
393.9922	0.2116
394.1986	0.2134
394.4049	0.2214
394.6113	0.2217
394.8176	0.208
395.0239	0.2045
395.2302	0.2174
395.4365	0.2188
395.6428	0.2011
395.8491	0.2041
396.0553	0.209
396.2615	0.2126
396.4678	0.2084
396.674	0.21
396.8802	0.206
397.0863	0.2107
397.2925	0.2107
397.4987	0.2076
397.7048	0.216
397.9109	0.2161
398.117	0.2083
398.3231	0.2158
398.5292	0.1952
398.7353	0.2039
398.9413	0.2024
399.1474	0.2103
399.3534	0.1994
399.5594	0.1961
399.7654	0.2083
399.9714	0.198
400.1774	0.2008
400.3833	0.2008
400.5893	0.2023
400.7952	0.1983
401.0011	0.2062
401.207	0.1957
401.4129	0.1921
401.6188	0.1948
401.8247	0.2002
402.0305	0.1912
402.2364	0.2007
402.4422	0.1956
402.648	0.2087
402.8538	0.199
403.0596	0.1887
403.2654	0.1966
403.4711	0.1948
403.6768	0.2133
403.8826	0.2004
404.0883	0.2003
404.294	0.205
404.4997	0.2083
404.7054	0.2083
404.911	0.1981
405.1167	0.2051
405.3223	0.2158
405.5279	0.2039
405.7335	0.198
405.9391	0.2008
406.1447	0.2013
406.3502	0.1957
406.5558	0.1933
406.7613	0.1979
406.9668	0.1931
407.1724	0.1915
407.3778	0.2013
407.5833	0.1866
407.7888	0.2105
407.9942	0.2075
408.1997	0.2154
408.4051	0.2133
408.6105	0.201
408.8159	0.2211
409.0213	0.1984
409.2267	0.2024
409.432	0.2019
409.6374	0.2047
409.8427	0.2071
410.048	0.1969
410.2533	0.1953
410.4586	0.2052
410.6639	0.1928
410.8691	0.1927
411.0744	0.2021
411.2796	0.1992
411.4848	0.2014
411.69	0.2081
411.8952	0.1861
412.1004	0.1929
412.3056	0.205
412.5107	0.2128
412.7158	0.2047
412.921	0.1906
413.1261	0.1887
413.3312	0.2059
413.5362	0.2016
413.7413	0.1826
413.9464	0.2044
414.1514	0.1963
414.3564	0.1979
414.5614	0.2063
414.7664	0.2018
414.9714	0.197
415.1764	0.1968
415.3813	0.1972
415.5863	0.1894
415.7912	0.1961
415.9961	0.194
416.201	0.2082
416.4059	0.185
416.6108	0.1919
416.8156	0.1854
417.0205	0.1921
417.2253	0.1966
417.4301	0.1891
417.6349	0.1907
417.8397	0.1823
418.0445	0.1907
418.2492	0.1902
418.454	0.1788
418.6587	0.1798
418.8634	0.1919
419.0681	0.1849
419.2728	0.2019
419.4775	0.1927
419.6822	0.187
419.8868	0.1794
420.0915	0.1811
420.2961	0.1897
420.5007	0.18
420.7053	0.1731
420.9099	0.1797
421.1144	0.1799
421.319	0.1793
421.5235	0.1866
421.728	0.1752
421.9325	0.1688
422.137	0.1654
422.3415	0.186
422.546	0.1729
422.7504	0.1747
422.9549	0.1924
423.1593	0.1674
423.3637	0.1724
423.5681	0.1804
423.7725	0.1828
423.9769	0.1754
424.1812	0.1738
424.3856	0.1676
424.5899	0.1692
424.7942	0.1569
424.9985	0.175
425.2028	0.1587
425.4071	0.1671
425.6113	0.172
425.8156	0.1679
426.0198	0.176
426.224	0.165
426.4282	0.1639
426.6324	0.1616
426.8366	0.1657
427.0407	0.1553
427.2449	0.1656
427.449	0.1567
427.6531	0.1455
427.8572	0.1499
428.0613	0.1451
428.2654	0.1436
428.4694	0.1544
428.6735	0.1619
428.8775	0.151
429.0815	0.1472
429.2855	0.1441
429.4895	0.1433
429.6935	0.1343
429.8975	0.1398
430.1014	0.141
430.3053	0.1375
430.5093	0.1368
430.7132	0.1388
430.9171	0.1301
431.1209	0.1408
431.3248	0.134
431.5286	0.1311
431.7325	0.128
431.9363	0.1301
432.1401	0.1272
432.3439	0.124
432.5477	0.1265
432.7514	0.1218
432.9552	0.1105
433.1589	0.109
433.3627	0.1171
433.5664	0.1144
433.7701	0.1069
433.9737	0.1043
434.1774	0.119
434.3811	0.108
434.5847	0.112
434.7883	0.1043
434.9919	0.1025
435.1955	0.0901
435.3991	0.1066
435.6027	0.0957
435.8062	0.099
436.0098	0.0988
436.2133	0.0938
436.4168	0.1036
436.6203	0.1046
436.8238	0.0981
437.0272	0.0955
437.2307	0.0929
437.4341	0.0905
437.6375	0.0968
437.841	0.078
438.0443	0.0809
438.2477	0.0711
438.4511	0.089
438.6545	0.0779
438.8578	0.0744
439.0611	0.0795
439.2644	0.0876
439.4677	0.0729
439.671	0.0811
439.8743	0.0812
440.0775	0.0671
440.2808	0.0666
440.484	0.0701
440.6872	0.0648
440.8904	0.0675
441.0936	0.0644
441.2967	0.0564
441.4999	0.0606
441.703	0.0509
441.9062	0.0595
442.1093	0.0605
442.3124	0.0634
442.5155	0.0593
442.7185	0.0434
442.9216	0.0554
443.1246	0.0529
443.3276	0.0585
443.5307	0.0453
443.7337	0.0561
443.9366	0.0559
444.1396	0.0439
444.3426	0.0414
444.5455	0.0385
444.7484	0.0392
444.9513	0.0467
445.1542	0.0554
445.3571	0.0457
445.56	0.0374
445.7628	0.0412
445.9657	0.0478
446.1685	0.0379
446.3713	0.0408
446.5741	0.0394
446.7769	0.0342
446.9797	0.0368
447.1824	0.0364
447.3852	0.0327
447.5879	0.0332
447.7906	0.0348
447.9933	0.0343
448.196	0.0397
448.3986	0.0262
448.6013	0.0344
448.8039	0.0297
449.0066	0.0274
449.2092	0.019
449.4118	0.0235
449.6143	0.0257
449.8169	0.0224
450.0195	0.0243
450.222	0.0121
450.4245	0.0281
450.627	0.0213
450.8295	0.0142
451.032	0.0266
451.2345	0.0173
451.4369	0.0291
451.6394	0.0167
451.8418	0.0148
452.0442	0.0131
452.2466	0.0215
452.449	0.0156
452.6513	0.024
452.8537	0.0145
453.056	0.0079
453.2583	0.0117
453.4607	0.0197
453.663	0.0204
453.8652	0.0094
454.0675	0.013
454.2697	0.0233
454.472	0.0173
454.6742	0.012
454.8764	0.0067
455.0786	0.0259
455.2808	0.0085
455.4829	0.0143
455.6851	0.0122
455.8872	0.0059
456.0893	0.0078
456.2915	0.0015
456.4935	0.0003
456.6956	0.0175
456.8977	0.0068
457.0997	0.0139
457.3018	0.0096
457.5038	0.0101
457.7058	0.0067
457.9078	0.0146
458.1098	0.003
458.3117	0.008
458.5137	0.0124
458.7156	0.0134
458.9175	0.005
459.1194	0.0092
459.3213	0.008
459.5232	0.0018
459.725	0.0055
459.9269	-0.0041
460.1287	0.0081
460.3305	0.0047
460.5323	0.0111
460.7341	0.0008
460.9359	0.0013
461.1376	0.0001
461.3394	0.0001
461.5411	0.0073
461.7428	-0.0001
461.9445	-0.0006
462.1462	0.0047
462.3479	-0.0072
462.5495	0.0157
462.7512	-0.0063
462.9528	-0.0017
463.1544	0.0027
463.356	0.0016
463.5576	-0.0048
463.7592	0.0006
463.9607	-0.0021
464.1623	0.0028
464.3638	0.0011
464.5653	0.0039
464.7668	-0.0012
464.9683	0.0076
465.1697	0.0004
465.3712	0
465.5726	0.0102
465.7741	-0.006
465.9755	-0.0089
466.1769	-0.0109
466.3782	0.0003
466.5796	-0.0111
466.7809	-0.0014
466.9823	-0.0076
467.1836	0.0003
467.3849	0.0028
467.5862	-0.0023
467.7875	0.0023
467.9887	-0.0076
468.19	-0.0043
468.3912	0.0052
468.5924	-0.0023
468.7936	-0.0105
468.9948	0.0115
469.196	-0.0058
469.3972	0.003
469.5983	0.0095
469.7994	-0.0008
470.0006	-0.0053
470.2017	-0.0006
470.4027	0.0036
470.6038	-0.0085
470.8049	-0.0003
471.0059	-0.0048
471.2069	0.0067
471.408	-0.0046
471.6089	-0.0027
471.8099	-0.0088
472.0109	-0.0069
472.2119	-0.0186
472.4128	0.0007
472.6137	-0.0092
472.8146	-0.0122
473.0155	-0.0071
473.2164	-0.0171
473.4173	-0.005
473.6181	0.0009
473.819	-0.0074
474.0198	-0.0025
474.2206	-0.0057
474.4214	0.0014
474.6222	-0.0104
474.8229	-0.0074
475.0237	-0.0017
475.2244	-0.0046
475.4251	0.0016
475.6258	0.002
475.8265	-0.0052
476.0272	-0.0133
476.2278	-0.0056
476.4285	-0.0063
476.6291	-0.0093
476.8297	-0.0079
477.0303	-0.0058
477.2309	-0
477.4315	-0.0029
477.632	-0.0045
477.8326	-0.0053
478.0331	-0.0116
478.2336	-0.0039
478.4341	-0.0112
478.6346	-0.002
478.8351	-0.0086
479.0355	-0.0086
479.236	-0.0046
479.4364	-0.0074
479.6368	-0.0029
479.8372	-0.0054
480.0376	-0.0007
480.2379	-0.0008
480.4383	-0.0038
480.6386	-0.0087
480.8389	-0.0074
481.0392	-0.0046
481.2395	-0.0065
481.4398	-0.0013
481.6401	-0.0156
481.8403	-0.005
482.0405	-0.009
482.2408	0.0002
482.441	-0.0017
482.6411	-0.0008
482.8413	-0.0081
483.0415	-0.0119
483.2416	-0.0017
483.4417	-0.0061
483.6419	-0.0063
483.8419	-0.0105
484.042	-0.0051
484.2421	-0.008
484.4422	-0.0045
484.6422	-0.0115
484.8422	-0.0053
485.0422	-0.0037
485.2422	-0.0046
485.4422	-0.0031
485.6422	-0.0016
485.8421	-0.0039
486.042	0.0011
486.242	-0.0086
486.4419	-0.0056
486.6417	-0.0062
486.8416	0.0039
487.0415	-0.0036
487.2413	-0.0072
487.4411	-0.002
487.641	-0.0023
487.8408	-0.0082
488.0405	-0.0099
488.2403	-0.0082
488.4401	-0.0106
488.6398	-0.0041
488.8395	-0.005
489.0392	-0.0015
489.2389	-0.0108
489.4386	-0.008
489.6383	-0.0092
489.8379	-0.0125
490.0376	-0.0079
490.2372	-0.0039
490.4368	-0.013
490.6364	-0.0036
490.836	-0.0037
491.0355	-0.0012
491.2351	-0.0065
491.4346	-0.009
491.6341	-0.0005
491.8336	-0.0069
492.0331	-0.0049
492.2326	-0.0086
492.432	-0.0004
492.6315	-0.008
492.8309	-0.0042
493.0303	-0.008
493.2297	-0.0087
493.4291	-0.0049
493.6284	-0.0015
493.8278	-0.0046
494.0271	-0.0041
494.2264	-0.0033
494.4257	-0.009
494.625	-0.0036
494.8243	-0.0083
495.0236	-0.0153
495.2228	-0.0078
495.422	-0.0102
495.6213	-0.0118
495.8205	-0.0049
496.0196	-0.0079
496.2188	-0.0002
496.418	-0.0028
496.6171	-0.0024
496.8162	-0.0029
497.0153	-0.0021
497.2144	-0.0046
497.4135	0.0012
497.6126	-0.0118
497.8116	0.0029
498.0107	-0.0012
498.2097	-0.004
498.4087	-0.0072
498.6077	-0.0051
498.8067	-0.0149
499.0056	0.0028
499.2046	-0.0024
499.4035	-0.0068
499.6024	-0.0098
499.8013	0.0085
500.0002	-0.0115
500.199	-0.0038
500.3979	-0.0036
500.5967	-0.0152
500.7956	-0.0151
500.9944	-0.0092
501.1932	-0.0053
501.3919	-0.0074
501.5907	-0.0091
501.7895	-0.0021
501.9882	-0.0091
502.1869	-0.0073
502.3856	-0.0061
502.5843	-0.0125
502.783	-0.0078
502.9816	-0.0067
503.1803	-0.0063
503.3789	-0.0056
503.5775	-0.0027
503.7761	-0.0096
503.9747	-0.0062
504.1732	-0.0062
504.3718	-0.0009
504.5703	-0.0069
504.7689	-0.0008
504.9674	-0.0039
505.1658	-0.0029
505.3643	0.0025
505.5628	0.0024
505.7612	-0.0086
505.9597	-0.0096
506.1581	-0.006
506.3565	-0.004
506.5549	-0.0017
506.7532	-0.0023
506.9516	0.0038
507.1499	-0.0048
507.3482	-0.0103
507.5465	-0.0067
507.7448	-0.0066
507.9431	-0.0002
508.1414	-0.0051
508.3396	-0.0039
508.5379	-0.0089
508.7361	-0.0002
508.9343	-0.0072
509.1325	-0.0055
509.3306	0.0029
509.5288	-0.0079
509.7269	-0.0092
509.9251	-0.0013
510.1232	-0.0069
510.3213	-0.0102
510.5193	0.0024
510.7174	-0.0024
510.9154	-0.0076
511.1135	-0.01
511.3115	-0.0044
511.5095	-0.0101
511.7075	-0.0051
511.9055	-0.0099
512.1034	-0.0069
512.3014	-0.0114
512.4993	-0.0059
512.6972	-0.0002
512.8951	-0.012
513.093	-0.0064
513.2908	0.001
513.4887	-0.003
513.6865	-0.0081
513.8844	-0.0046
514.0822	-0.0032
514.2799	-0.0097
514.4777	0.0005
514.6755	-0.0002
514.8732	-0.0108
515.0709	-0.0059
515.2687	-0.0032
515.4664	-0.0096
515.664	-0.0049
515.8617	-0.0075
516.0594	-0.01
516.257	-0.0014
516.4546	-0.0046
516.6522	-0.0026
516.8498	-0.0126
517.0474	0.0055
517.2449	-0.013
517.4425	-0.0094
517.64	-0.009
517.8375	-0.007
518.035	-0.0015
518.2325	-0.0089
518.43	-0.0029
518.6274	-0.009
518.8249	-0.0072
519.0223	-0.0078
519.2197	-0.0119
519.4171	-0.0018
519.6145	-0.0043
519.8118	-0.0041
520.0092	0.0007
520.2065	-0.01
520.4038	-0.0049
520.6011	-0.0116
520.7984	-0.0085
520.9956	-0.0093
521.1929	-0.0069
521.3901	-0.0101
521.5874	-0.0048
521.7846	0.0048
521.9818	-0.0042
522.1789	-0.0055
522.3761	-0.0047
522.5732	-0.0027
522.7704	-0.0033
522.9675	-0.0063
523.1646	-0.0074
523.3617	-0.005
523.5587	-0.011
523.7558	-0.0004
523.9528	-0.0018
524.1498	0.0028
524.3468	-0.001
524.5438	-0.0037
524.7408	-0.0198
524.9378	-0.0132
525.1347	0.0056
525.3316	0.0013
525.5285	-0.0084
525.7254	-0.0132
525.9223	-0.0038
526.1192	-0.0048
526.316	-0.0074
526.5129	-0.001
526.7097	-0.0122
526.9065	-0.0015
527.1033	-0.0035
527.3	-0.0061
527.4968	-0.0135
527.6935	-0.0074
527.8903	-0.0009
528.087	-0.006
528.2837	-0.0006
528.4804	-0.0053
528.677	-0.0011
528.8737	-0.0086
529.0703	-0.0012
529.2669	-0.0013
529.4635	-0.0003
529.6601	-0.0013
529.8567	-0.0038
530.0532	-0.0018
530.2498	-0.002
530.4463	-0.0037
530.6428	0.0004
530.8393	-0.0042
531.0358	-0.0095
531.2322	-0.0067
531.4287	-0.0142
531.6251	-0.0005
531.8215	0.002
532.0179	-0.0076
532.2143	-0.0015
532.4107	-0.002
532.607	-0.0052
532.8034	-0.0104
532.9997	-0.0041
533.196	-0.0079
533.3923	-0.002
533.5886	-0.0012
533.7848	0.0004
533.9811	-0.0045
534.1773	-0.0053
534.3735	-0.001
534.5697	-0.0081
534.7659	-0.0022
534.9621	-0.0045
535.1582	-0.0048
535.3544	-0.011
535.5505	-0.0034
535.7466	-0.0064
535.9427	0.0005
536.1387	-0.0004
536.3348	0.004
536.5308	-0.0072
536.7269	-0.0004
536.9229	-0.0074
537.1189	-0.0063
537.3148	-0.0012
537.5108	0.0021
537.7068	-0.0055
537.9027	-0.0103
538.0986	0.004
538.2945	-0.0092
538.4904	0.0001
538.6863	-0.0078
538.8821	-0.0025
539.078	-0.0085
539.2738	-0.0132
539.4696	-0.0074
539.6654	-0.0024
539.8611	-0.0074
540.0569	-0.0025
540.2526	-0.006
540.4484	0.0051
540.6441	0.0005
540.8398	-0.0076
541.0355	-0.0047
541.2311	-0.0057
541.4268	-0.0019
541.6224	0.0031
541.818	-0.0039
542.0136	-0.0062
542.2092	-0.007
542.4048	-0.0056
542.6003	-0.004
542.7959	-0.0001
542.9914	-0.0033
543.1869	-0.0012
543.3824	-0.009
543.5779	-0.0144
543.7734	-0.0105
543.9688	-0.009
544.1642	-0.0102
544.3596	-0.0094
544.555	-0.0049
544.7504	-0.0034
544.9458	-0.0019
545.1411	0.0037
545.3365	-0.0035
545.5318	-0.0036
545.7271	0.002
545.9224	0.0053
546.1177	-0.0077
546.3129	0.0025
546.5081	-0.0005
546.7034	-0.005
546.8986	-0.0046
547.0938	-0.008
547.289	-0.0034
547.4841	-0.0098
547.6793	-0.0036
547.8744	-0.005
548.0695	-0.0006
548.2646	-0.0057
548.4597	0.0014
548.6548	-0.0001
548.8498	-0.0068
549.0448	0.0055
549.2399	-0.0044
549.4349	0.0014
549.6298	-0.0044
549.8248	-0.0033
550.0198	-0.0039
550.2147	0.001
550.4096	-0.0115
550.6045	-0.005
550.7994	0.0054
550.9943	-0.0028
551.1892	-0.0025
551.384	-0.0093
551.5788	-0.0107
551.7737	-0.0008
551.9685	-0.0022
552.1632	-0.0008
552.358	-0.0095
552.5528	-0.0027
552.7475	-0.0086
552.9422	-0.0064
553.1369	-0.0059
553.3316	-0.0076
553.5263	-0.0048
553.7209	-0.0114
553.9156	-0.0026
554.1102	-0.0072
554.3048	-0.007
554.4994	-0.0058
554.694	-0.0042
554.8885	-0.0065
555.0831	-0.0047
555.2776	-0.0032
555.4721	-0.0033
555.6666	-0.0075
555.8611	-0.0051
556.0555	-0.0087
556.25	-0.0009
556.4444	-0.0036
556.6388	-0.0036
556.8332	-0.0034
557.0276	-0.0043
557.222	-0.0082
557.4163	-0.0013
557.6107	-0.0044
557.805	-0.0028
557.9993	-0.0012
558.1936	-0.0058
558.3879	0.0123
558.5821	-0.0058
558.7764	-0.0097
558.9706	-0.0021
559.1648	-0.0054
559.359	-0.0101
559.5532	-0.0043
559.7473	-0.0084
559.9415	-0.0051
560.1356	-0.0068
560.3297	-0.0119
560.5238	-0.0045
560.7179	-0.0086
560.9119	-0.004
561.106	-0.0029
561.3	-0.0096
561.494	-0.0037
561.688	-0.0072
561.882	-0.005
562.076	-0.0053
562.2699	-0.0066
562.4639	-0.0036
562.6578	-0.009
562.8517	-0.0075
563.0456	-0.0031
563.2395	-0.0059
563.4333	-0.0058
563.6272	-0.0081
563.821	-0.0046
564.0148	0.0022
564.2086	-0.0066
564.4024	-0.0068
564.5961	-0.0037
564.7899	-0.0007
564.9836	0.0036
565.1773	-0.0043
565.371	-0.002
565.5647	-0.0049
565.7584	0.0039
565.952	0.0002
566.1456	0.0012
566.3393	-0.0056
566.5329	0.0002
566.7264	-0.0053
566.92	-0.0026
567.1136	-0.0006
567.3071	-0.0013
567.5006	0.0012
567.6941	0.0016
567.8876	0.0009
568.0811	-0.0048
568.2745	-0.0095
568.468	-0.0084
568.6614	-0.0079
568.8548	-0.0074
569.0482	-0.0034
569.2416	-0.0048
569.4349	0.0001
569.6283	-0.0077
569.8216	-0.0055
570.0149	-0.0062
570.2082	-0.0031
570.4015	0.0015
570.5947	0
570.788	-0.0011
570.9812	-0.0064
571.1744	-0.0071
571.3676	-0.008
571.5608	-0.0021
571.754	-0.0052
571.9471	-0.0038
572.1402	-0.0027
572.3333	-0.0031
572.5264	-0.0019
572.7195	0.0003
572.9126	-0.0017
573.1057	-0.0034
573.2987	0.0012
573.4917	-0.0072
573.6847	-0.0023
573.8777	-0.0088
574.0707	-0.0009
574.2636	-0.007
574.4566	-0.0041
574.6495	-0.0002
574.8424	-0.0025
575.0353	-0.0033
575.2281	-0.0018
575.421	-0.008
575.6138	-0.0034
575.8067	-0.0027
575.9995	-0.0024
576.1923	-0.0037
576.385	-0.0064
576.5778	0.0002
576.7706	-0.0015
576.9633	-0.0007
577.156	0.0003
577.3487	-0.001
577.5414	-0.0033
577.734	0.006
577.9267	0.0024
578.1193	-0.0089
578.3119	-0.0007
578.5045	-0.0067
578.6971	-0.0016
578.8897	-0.0058
579.0822	-0.002
579.2747	0.0046
579.4673	-0.0047
579.6598	-0.0028
579.8522	-0.0005
580.0447	-0.0054
580.2372	0.0003
580.4296	0.0042
580.622	-0
580.8144	-0.0039
581.0068	-0.0044
581.1992	0.002
581.3915	-0.0007
581.5839	-0.0003
581.7762	-0.0069
581.9685	-0.0034
582.1608	-0.0025
582.353	0.001
582.5453	-0.001
582.7375	-0.0024
582.9298	-0.0075
583.122	0.0041
583.3142	-0.0007
583.5063	-0.0019
583.6985	-0.0082
583.8906	-0.0009
584.0827	-0.0057
584.2749	-0.0057
584.4669	-0.0065
584.659	-0.0091
584.8511	-0.0054
585.0431	-0.0033
585.2352	-0.0062
585.4272	-0.0063
585.6192	-0.0056
585.8111	-0.0052
586.0031	0.0004
586.195	-0.0065
586.387	-0.006
586.5789	-0.0016
586.7708	-0.009
586.9627	-0.0059
587.1545	-0.004
587.3464	-0.0061
587.5382	-0.0033
587.73	-0.0074
587.9218	-0.0055
588.1136	-0.0037
588.3053	-0.0038
588.4971	-0.008
588.6888	-0.0055
588.8805	-0.0019
589.0722	0.0011
589.2639	-0.0053
589.4556	-0.0096
589.6472	-0.002
589.8389	-0.0022
590.0305	-0.0017
590.2221	0.0003
590.4137	-0.0073
590.6052	-0.0038
590.7968	-0.0036
590.9883	-0.0036
591.1798	-0.0082
591.3713	0.0006
591.5628	-0.0036
591.7543	-0.0032
591.9458	-0.0019
592.1372	-0.0028
592.3286	-0.0026
592.52	-0.0035
592.7114	0.0087
592.9028	-0.0056
593.0941	-0.0023
593.2855	0.0017
593.4768	-0.0008
593.6681	-0.0001
593.8594	0.0025
594.0506	0.0057
594.2419	0.0044
594.4331	-0.0058
594.6244	-0.0054
594.8156	-0.0051
595.0067	-0.0014
595.1979	-0.001
595.3891	-0.003
595.5802	-0.0064
595.7713	0.0003
595.9624	0.0017
596.1535	0.0014
596.3446	-0.0009
596.5357	-0.0034
596.7267	-0.001
596.9177	-0.0001
597.1087	-0.0065
597.2997	0.0007
597.4907	-0.0025
597.6817	-0.0049
597.8726	-0.0033
598.0635	-0.006
598.2544	-0.0029
598.4453	-0.008
598.6362	-0.0029
598.827	-0.0072
599.0179	-0.0032
599.2087	-0.0087
599.3995	-0.0074
599.5903	-0.0011
599.7811	-0.0019
599.9718	0.0021
600.1626	-0.0025
600.3533	-0.0052
600.544	-0.0055
600.7347	0.0002
600.9254	0.0002
601.116	-0.0043
601.3067	-0.0078
601.4973	-0.0042
601.6879	0.0014
601.8785	-0.0052
602.0691	-0.0046
602.2596	-0.0033
602.4502	-0.0053
602.6407	0.0009
602.8312	-0.0037
603.0217	0.0004
603.2122	-0.004
603.4027	-0.0017
603.5931	-0.0055
603.7835	-0.0044
603.9739	-0.0029
604.1643	-0.0043
604.3547	-0.0012
604.5451	-0.0005
604.7354	-0.0002
604.9257	-0.0026
605.116	-0.0031
605.3063	-0.0016
605.4966	-0.005
605.6869	-0.0053
605.8771	0.001
606.0673	-0.0013
606.2575	-0.0007
606.4477	-0.0051
606.6379	-0.0091
606.8281	-0.0063
607.0182	-0.0099
607.2083	-0.0014
607.3985	-0.0109
607.5885	-0.0011
607.7786	-0.0063
607.9687	-0.003
608.1587	-0.006
608.3488	-0.0031
608.5388	0.001
608.7288	-0.0061
608.9187	-0.003
609.1087	-0.0119
609.2986	-0.003
609.4886	-0.0053
609.6785	0.0023
609.8684	-0.0002
610.0582	-0.0048
610.2481	-0.0051
610.4379	0.0002
610.6278	-0.0015
610.8176	0.003
611.0074	-0.0065
611.1971	0.0023
611.3869	-0.0022
611.5766	0.0001
611.7664	-0.0017
611.9561	-0.0046
612.1458	0.0012
612.3354	-0.0021
612.5251	-0.0036
612.7147	-0.0033
612.9044	0.0013
613.094	0.0024
613.2836	-0.0013
613.4731	-0.005
613.6627	-0.0077
613.8522	-0.0007
614.0417	-0.0054
614.2313	-0.0081
614.4207	-0.003
614.6102	0.0002
614.7997	-0.0021
614.9891	-0.0052
615.1785	-0.0034
615.3679	0.0003
615.5573	0.0009
615.7467	0.0001
615.9361	0
616.1254	-0.0042
616.3147	-0.0003
616.504	0.0022
616.6933	-0.0005
616.8826	-0.0094
617.0718	-0.0044
617.2611	0.0015
617.4503	0.0011
617.6395	-0.0031
617.8287	0.0005
618.0179	0.0062
618.207	-0.0062
618.3961	-0.0042
618.5853	-0.0005
618.7744	-0.0008
618.9634	0.0005
619.1525	-0.0031
619.3416	-0.0084
619.5306	-0.0036
619.7196	-0.0032
619.9086	-0.0017
620.0976	-0.0058
620.2866	0.0007
620.4755	-0.004
620.6645	-0.0003
620.8534	0.0002
621.0423	-0.0035
621.2312	-0.0071
621.42	0.0002
621.6089	-0.0042
621.7977	-0.0044
621.9865	-0.0035
622.1753	0.0055
622.3641	-0.0005
622.5529	-0.002
622.7416	-0.0057
622.9303	0.0041
623.1191	-0.0015
623.3078	0.0002
623.4964	-0.002
623.6851	0.0016
623.8737	0.0001
624.0624	0.0006
624.251	0.0055
624.4396	0.0035
624.6282	-0.0013
624.8167	0.0006
625.0053	-0.0022
625.1938	0.0001
625.3823	-0.0009
625.5708	-0.001
625.7593	-0.0003
625.9477	-0.0073
626.1362	-0.0019
626.3246	-0.002
626.513	-0.0014
626.7014	-0.0033
626.8898	-0.0025
627.0781	-0.0045
627.2665	-0.0064
627.4548	-0.0098
627.6431	-0.0021
627.8314	-0.0021
628.0197	-0.0003
628.2079	-0.0018
628.3962	-0.0014
628.5844	-0.0001
628.7726	-0.0007
628.9608	0.0009
629.1489	0.0006
629.3371	0.0003
629.5252	0.0046
629.7134	-0.0024
629.9015	-0.0036
630.0895	-0.0021
630.2776	-0.0017
630.4657	-0.0007
630.6537	-0.0041
630.8417	-0.0021
631.0297	-0.0024
631.2177	0.0039
631.4057	0.002
631.5936	-0
631.7815	-0.0073
631.9695	-0.0001
632.1574	-0.0092
632.3452	-0.0038
632.5331	-0.0018
632.7209	-0.007
632.9088	-0.0071
633.0966	-0.0039
633.2844	-0.0038
633.4722	0.0026
633.6599	-0.0043
633.8477	0.0011
634.0354	-0.0067
634.2231	-0.007
634.4108	-0.0001
634.5985	-0.003
634.7861	-0.0082
634.9738	-0.0136
635.1614	-0.0052
635.349	0.002
635.5366	-0.0027
635.7242	-0.0017
635.9117	0.0003
636.0993	-0.0032
636.2868	-0.0034
636.4743	-0.0011
636.6618	-0.0092
636.8492	0.0039
637.0367	-0.0059
637.2241	-0.005
637.4115	-0.0067
637.5989	-0.0036
637.7863	0.0009
637.9737	-0.0051
638.161	-0.0016
638.3484	-0.0041
638.5357	-0.0061
638.723	-0.0009
638.9103	-0.0016
639.0975	0.0012
639.2848	0.0014
639.472	-0.0005
639.6592	0.0072
639.8464	0.0001
640.0336	-0.0047
640.2208	0.0035
640.4079	-0.0048
640.595	0.0018
640.7821	0.0057
640.9692	0.0002
641.1563	0.0028
641.3434	-0.0009
641.5304	-0.0037
641.7174	0.0051
641.9044	0.0045
642.0914	-0.003
642.2784	0.0033
642.4653	0.0054
642.6523	-0.0033
642.8392	0.0013
643.0261	0.0052
643.213	0.0024
643.3999	-0.001
643.5867	-0
643.7735	-0.0006
643.9604	0.0022
644.1472	-0.0018
644.3339	-0.0017
644.5207	-0.0015
644.7075	-0.0015
644.8942	-0.0021
645.0809	0.0022
645.2676	-0.0023
645.4543	0.0057
645.6409	-0.0022
645.8276	0.0013
646.0142	-0.004
646.2008	-0.0081
646.3874	-0.004
646.574	-0.0054
646.7605	-0.0032
646.9471	-0.0066
647.1336	-0.0044
647.3201	-0.0028
647.5066	-0.0033
647.6931	-0.0002
647.8795	-0.0057
648.0659	-0.0069
648.2524	-0.007
648.4388	-0.0046
648.6252	-0.0053
648.8115	-0.0094
648.9979	-0.0055
649.1842	-0.0089
649.3705	-0.0045
649.5568	-0.0002
649.7431	-0.0025
649.9294	-0.0076
650.1156	-0.0048
650.3018	-0.012
650.488	-0.0057
650.6742	-0.0092
650.8604	-0.0045
651.0466	0.0047
651.2327	-0.0002
651.4188	0.001
651.6049	-0.0017
651.791	0.0018
651.9771	-0.0018
652.1632	0.0038
652.3492	0.0026
652.5352	-0.0006
652.7212	-0.0005
652.9072	0.0043
653.0932	0.0033
653.2791	0.0011
653.465	-0.0066
653.651	-0.0067
653.8369	-0.0024
654.0227	0.0003
654.2086	0.001
654.3944	-0.0083
654.5803	-0.0085
654.7661	-0.0057
654.9519	-0.0018
655.1377	-0.0001
655.3234	0.0001
655.5092	0.0001
655.6949	0.0001
655.8806	0.0001
656.0663	0.0001
656.2519	0.0001
656.4376	-0.0041
656.6232	-0.0066
656.8088	-0.004
656.9945	-0.0051
657.18	0.0005
657.3656	-0.006
657.5511	-0.0037
657.7367	-0.002
657.9222	0.0039
658.1077	0.001
658.2932	-0.0014
658.4786	-0.0005
658.6641	-0.0018
658.8495	-0.0058
659.0349	-0.0044
659.2203	-0.0032
659.4057	-0.0034
659.591	-0.0047
659.7764	-0.0042
659.9617	-0.0064
660.147	-0.0007
660.3323	-0.004
660.5176	-0.0047
660.7028	-0.0059
660.888	-0.0023
661.0733	-0.0037
661.2585	-0.0093
661.4436	-0.0055
661.6288	-0.0101
661.8139	-0.0008
661.9991	-0.0013
662.1842	-0.0008
662.3693	0.0001
662.5544	-0.0014
662.7394	0.0011
662.9245	-0.0009
663.1095	-0.0014
663.2945	-0.0028
663.4795	-0.0066
663.6644	-0.0063
663.8494	-0.0091
664.0343	-0.0051
664.2193	-0.0077
664.4042	-0.0123
664.589	-0.0013
664.7739	-0.0064
664.9587	0.0033
665.1436	0.0025
665.3284	0.0023
665.5132	0.0004
665.698	0.0041
665.8827	0.0018
666.0675	-0.0049
666.2522	-0.0086
666.4369	-0.0113
666.6216	-0.0092
666.8063	-0.0028
666.9909	-0.0069
667.1756	-0.0044
667.3602	-0.0083
667.5448	-0.0098
667.7294	-0.0031
667.9139	-0.0048
668.0985	-0.0099
668.283	-0.0058
668.4675	-0.0166
668.652	-0.0079
668.8365	-0.0097
669.0209	-0.0122
669.2054	-0.0067
669.3898	-0.0067
669.5742	-0.0064
669.7586	-0.0045
669.943	-0.0016
670.1273	-0.0108
670.3117	-0.0053
670.496	-0.0072
670.6803	0.0014
670.8646	-0.0033
671.0488	0.0041
671.2331	-0.0077
671.4173	0.0015
671.6015	-0.0016
671.7857	-0.0045
671.9699	-0.0019
672.1541	-0.0062
672.3382	-0.0055
672.5223	-0.0056
672.7064	-0.0102
672.8905	-0.0123
673.0746	-0.0112
673.2587	-0.0132
673.4427	-0.0145
673.6267	-0.0106
673.8107	-0.0138
673.9947	-0.0067
674.1787	-0.0113
674.3626	-0.0086
674.5465	-0.0041
674.7304	0.0018
674.9143	-0.0066
675.0982	-0.0025
675.2821	-0.003
675.4659	0.0004
675.6497	-0.0009
675.8335	-0.0015
676.0173	-0.0082
676.2011	-0.009
676.3849	-0.0048
676.5686	0.0013
676.7523	-0.0006
676.936	-0.0036
677.1197	-0.0054
677.3034	-0.0031
677.487	-0.0096
677.6706	-0.0034
677.8542	-0.0069
678.0378	-0.0009
678.2214	-0.0097
678.405	-0.0052
678.5885	-0.0072
678.772	-0.0067
678.9555	0.0006
679.139	-0.0065
679.3225	-0.0072
679.5059	-0.0026
679.6894	-0.0027
679.8728	-0.0025
680.0562	-0.0011
680.2395	-0.0027
680.4229	0.001
680.6062	-0.0006
680.7896	-0.0005
680.9729	-0.0033
681.1562	-0.0046
681.3394	0.0012
681.5227	-0.0067
681.7059	-0.0073
681.8891	-0.005
682.0723	-0.0094
682.2555	-0.0023
682.4387	0.002
682.6218	-0.0043
682.805	-0.0031
682.9881	-0.0079
683.1712	0.0043
683.3542	-0.0017
683.5373	-0.0043
683.7203	-0.0022
683.9034	-0.0029
684.0864	-0.0054
684.2694	-0.0036
684.4523	-0.005
684.6353	-0.0016
684.8182	-0.0015
685.0011	-0.0045
685.184	0.0008
685.3669	-0.0069
685.5498	-0.0028
685.7326	0.0009
685.9154	-0.0029
686.0982	-0.006
686.281	-0.0069
686.4638	-0.0031
686.6465	0.0001
686.8293	-0.0032
687.012	-0.0034
687.1947	-0
687.3774	-0.0027
687.56	-0.0037
687.7427	-0.002
687.9253	-0.0012
688.1079	0.003
688.2905	0.0025
688.4731	-0.0016
688.6556	-0.0022
688.8382	0.0003
689.0207	0.0005
689.2032	0
689.3857	0.0031
689.5681	-0.0027
689.7506	0.0029
689.933	-0.0003
690.1154	0.0022
690.2978	0.0012
690.4802	-0.0022
690.6626	0.0063
690.8449	0.0009
691.0272	0.0045
691.2095	-0.0006
691.3918	-0.0005
691.5741	-0.0032
691.7563	-0.0047
691.9386	-0.0059
692.1208	-0.0043
692.303	-0.0079
692.4852	-0.0018
692.6673	-0.0076
692.8495	-0.0074
693.0316	-0.0051
693.2137	-0.0071
693.3958	-0.0028
693.5778	-0.0022
693.7599	-0.0103
693.9419	-0.0085
694.1239	-0.001
694.3059	-0.0081
694.4879	-0.0051
694.6699	-0.0075
694.8518	-0.0067
695.0337	-0.0035
695.2157	-0.0028
695.3975	-0.0085
695.5794	-0.006
695.7613	-0.0076
695.9431	-0.0041
696.1249	-0.0034
696.3067	-0.0073
696.4885	0.002
696.6703	-0.0016
696.852	-0.0089
697.0337	-0.0019
697.2154	-0.0021
697.3971	-0.0057
697.5788	-0.0049
697.7605	-0.0051
697.9421	-0.0022
698.1237	-0.0034
698.3053	-0.0057
698.4869	0.0011
698.6685	-0.0045
698.85	-0.0058
699.0315	-0.0013
699.213	0.0021
699.3945	0.0043
699.576	0.0085
699.7575	-0.0006
699.9389	-0.0006
700.1203	-0.0057
700.3017	-0.0042
700.4831	-0.0041
700.6645	-0.0066
700.8458	-0.0042
701.0271	-0.0044
701.2084	-0.0098
701.3897	-0.0024
701.571	0.0014
701.7523	-0.0002
701.9335	0.0082
702.1147	0.003
702.2959	-0.0066
702.4771	-0.0032
702.6583	-0.001
702.8394	-0.0019
703.0205	0.0003
703.2016	0.0003
703.3827	0.0053
703.5638	-0.0099
703.7449	-0.0059
703.9259	0.0011
704.1069	0.0003
704.2879	-0.0052
704.4689	-0.0041
704.6499	-0.0065
704.8308	-0
705.0117	-0.0011
705.1927	-0.0026
705.3735	0.0016
705.5544	-0.0037
705.7353	-0.0002
705.9161	0.0026
706.0969	0.0063
706.2777	-0.0067
706.4585	-0.004
706.6393	-0.0027
706.82	-0.002
707.0007	-0.0007
707.1815	-0.0016
707.3621	-0.0086
707.5428	-0.0016
707.7235	0.0006
707.9041	-0.0022
708.0847	-0.0026
708.2653	-0.0006
708.4459	-0.0076
708.6265	-0.0037
708.807	0.0007
708.9875	-0.0006
709.168	-0.0024
709.3485	-0.0036
709.529	0.0016
709.7095	-0.0049
709.8899	-0.0079
710.0703	-0.0002
710.2507	-0.0054
710.4311	-0.0062
710.6115	0.0026
710.7918	-0.0031
710.9721	-0.0031
711.1524	0.0031
711.3327	0.0035
711.513	-0.009
711.6932	-0.0051
711.8735	-0.0036
712.0537	-0.0024
712.2339	0.0006
712.4141	-0.0039
712.5942	-0.0011
712.7744	0.0004
712.9545	0.002
713.1346	-0.0024
713.3147	0.0066
713.4947	-0.0032
713.6748	-0.0038
713.8548	-0.0081
714.0348	-0.0048
714.2148	-0.0062
714.3948	-0.0065
714.5748	-0.0095
714.7547	-0.0101
714.9346	-0.0017
715.1145	-0.0019
715.2944	-0.0007
715.4743	-0.005
715.6541	-0.0043
715.834	-0.0007
716.0138	0.0023
716.1936	0.0027
716.3733	-0.0043
716.5531	-0.005
716.7328	-0.0011
716.9126	-0.0061
717.0923	-0.0026
717.2719	-0.0096
717.4516	-0.0049
717.6312	-0.0008
717.8109	-0.0014
717.9905	-0.008
718.1701	-0.0022
718.3496	-0.0006
718.5292	-0.0071
718.7087	-0.0046
718.8882	-0.001
719.0677	-0.0022
719.2472	-0.0026
719.4267	-0.0106
719.6061	-0.0026
719.7856	-0.0003
719.965	-0.0113
720.1443	-0.0051
720.3237	-0.0025
720.5031	-0.0076
720.6824	0.0026
720.8617	-0.0045
721.041	-0.0035
721.2203	-0.0044
721.3995	-0.0049
721.5788	-0.0104
721.758	-0.0041
721.9372	-0.0006
722.1164	-0.0051
722.2956	-0.0056
722.4747	-0.0036
722.6538	-0.0102
722.8329	-0.0058
723.012	-0.0042
723.1911	0.0012
723.3702	-0.0047
723.5492	0.0007
723.7282	-0.0019
723.9072	0.0012
724.0862	-0.0033
724.2652	-0.002
724.4441	-0.0072
724.623	0.0028
724.8019	0.0002
724.9808	-0.0038
725.1597	0.0002
725.3385	0.0031
725.5174	0.0014
725.6962	-0.0067
725.875	-0.0001
726.0538	0.0096
726.2325	-0.0055
726.4112	-0.0004
726.59	-0.0015
726.7687	-0.0046
726.9474	-0.0034
727.126	-0.0022
727.3047	-0.0043
727.4833	0.0056
727.6619	-0.0082
727.8405	-0.0048
728.0191	0.0024
728.1976	-0.0095
728.3762	-0.0109
728.5547	-0.0046
728.7332	-0.0053
728.9116	-0.0102
729.0901	-0.0108
729.2686	-0.0072
729.447	0.002
729.6254	-0.0071
729.8038	-0.0075
729.9821	0.0028
730.1605	-0.0003
730.3388	-0.004
730.5171	-0.0026
730.6954	0.0024
730.8737	-0.0055
731.0519	0.0022
731.2302	0.0021
731.4084	0.0028
731.5866	0.0032
731.7648	-0
731.9429	0.0079
732.1211	0.0047
732.2992	0.0041
732.4773	0
732.6554	0.0001
732.8335	-0.0087
733.0115	-0.0065
733.1896	-0.0059
733.3676	-0.0101
733.5456	-0.0036
733.7235	-0.0021
733.9015	0.0034
734.0794	-0.0047
734.2574	-0.0028
734.4353	-0.0058
734.6131	0.0052
734.791	-0.0034
734.9689	-0.0037
735.1467	0.0065
735.3245	0.002
735.5023	-0.0011
735.68	-0.0013
735.8578	-0.0006
736.0355	0.0056
736.2132	-0.0036
736.3909	-0.0008
736.5686	-0.001
736.7463	0.0001
736.9239	-0.0057
737.1015	-0.002
737.2791	-0.0071
737.4567	-0.0069
737.6343	-0.005
737.8118	-0.0049
737.9894	-0.0028
738.1669	-0.0052
738.3444	0.0036
738.5218	0.0016
738.6993	0.0003
738.8767	0.0016
739.0541	-0.0036
739.2315	-0.0015
739.4089	-0.0038
739.5863	-0.0031
739.7636	-0.0033
739.9409	-0.0073
740.1182	-0.0006
740.2955	-0.0023
740.4728	0
740.65	0.0032
740.8272	0.0036
741.0044	-0.0034
741.1816	0.0006
741.3588	0.0084
741.5359	0.0002
741.7131	0.0034
741.8902	0.0085
742.0673	0.0065
742.2444	0.0043
742.4214	-0.0033
742.5985	-0.006
742.7755	-0.0041
742.9525	-0.0016
743.1295	-0.0056
743.3064	-0.0052
743.4834	0.0009
743.6603	-0.005
743.8372	-0.001
744.0141	0.0002
744.191	0.0009
744.3678	-0.0067
744.5446	0.0016
744.7215	-0.0088
744.8982	0.004
745.075	-0.0041
745.2518	-0.0005
745.4285	-0.0005
745.6052	0.0055
745.7819	0.0012
745.9586	0.0022
746.1353	-0.0034
746.3119	0.0045
746.4885	-0.0066
746.6651	-0.0042
746.8417	-0.0025
747.0183	0.0002
747.1948	-0.0055
747.3714	-0.0076
747.5479	-0.0034
747.7244	-0.0045
747.9008	0.0016
748.0773	0.0047
748.2537	0.0013
748.4301	0.0013
748.6065	0.0016
748.7829	0.001
748.9593	0.0016
749.1356	-0.0089
749.3119	0.004
749.4882	0.0036
749.6645	-0.0052
749.8408	-0.0049
750.017	-0.0014
750.1933	-0.0041
750.3695	-0.0059
750.5457	-0.0022
750.7218	-0.011
750.898	-0.007
751.0741	-0.0124
751.2502	-0.008
751.4263	-0.0069
751.6024	-0.0045
751.7784	0.0019
751.9545	-0.0035
752.1305	0.0064
752.3065	-0.0028
752.4825	-0.0054
752.6584	-0.0021
752.8344	-0.0019
753.0103	-0.0014
753.1862	0.0012
753.3621	-0.0001
753.5379	-0.0029
753.7138	-0.0009
753.8896	-0.0087
754.0654	-0.0116
754.2412	-0.0086
754.417	-0.0059
754.5927	-0.0019
754.7685	-0.0125
754.9442	-0.0059
755.1199	-0.0117
755.2956	-0.0087
755.4712	-0.0014
755.6469	-0.0102
755.8225	-0.0122
755.9981	-0.0048
756.1736	-0.0021
756.3492	-0.0088
756.5248	0.0032
756.7003	-0.0114
756.8758	-0.0108
757.0513	-0.008
757.2267	-0.0127
757.4022	-0.0025
757.5776	-0.0124
757.753	-0.0114
757.9284	-0.0081
758.1038	-0.0087
758.2791	-0.0154
758.4545	-0.0121
758.6298	-0.0026
758.8051	-0.0105
758.9803	-0.0125
759.1556	-0.0078
759.3308	-0.0067
759.506	-0.0118
759.6812	-0.0103
759.8564	-0.0093
760.0316	-0.0122
760.2067	0.0012
760.3819	-0.004
760.557	-0.0079
760.732	-0.0063
760.9071	-0.0127
761.0821	-0.0123
761.2572	-0.0077
761.4322	-0.0097
761.6072	-0.011
761.7821	-0.0091
761.9571	-0.0074
762.132	-0.008
762.3069	-0.0039
762.4818	0.0007
762.6567	-0.0097
762.8316	-0.0004
763.0064	-0.001
763.1812	-0.0004
763.356	-0.0001
763.5308	0.003
763.7055	-0.0009
763.8803	-0.0032
764.055	-0.0046
764.2297	0.0022
764.4044	0.0048
764.579	0.0021
764.7537	-0.0029
764.9283	-0.0018
765.1029	0.0056
765.2775	0.0064
765.4521	0.0027
765.6266	0.0036
765.8011	0.0026
765.9756	0.002
766.1501	0.0033
766.3246	0.0044
766.4991	-0.0023
766.6735	-0.0058
766.8479	-0.0023
767.0223	0.0065
767.1967	-0.0057
767.371	-0.0031
767.5454	-0.0038
767.7197	-0.0013
767.894	0.0004
768.0683	0.0029
768.2425	-0.008
768.4168	-0.0022
768.591	0.0032
768.7652	0.0036
768.9394	0.0113
769.1135	0.0071
769.2877	0.0012
769.4618	0.005
769.6359	0.0024
769.81	-0.0006
769.984	-0.0112
770.1581	0.0103
770.3321	0.002
770.5061	0.0007
770.6801	0.0026
770.8541	0.0004
771.028	0.0049
771.202	0.002
771.3759	0.0004
771.5498	0.0025
771.7236	-0.0024
771.8975	-0.0032
772.0713	0.0067
772.2451	0.0033
772.4189	0.0057
772.5927	-0.0089
772.7665	0.0006
772.9402	0.0014
773.1139	-0.0003
773.2876	0.0038
773.4613	-0.002
773.635	0.0021
773.8086	0.0036
773.9822	0.0028
774.1558	0.002
774.3294	0.0046
774.503	-0.0023
774.6765	-0.0049
774.8501	0.0043
775.0236	-0.003
775.1971	-0.0057
775.3705	0.0004
775.544	-0.0071
775.7174	-0.0002
775.8908	-0.0065
776.0642	-0.0018
776.2376	-0.002
776.4109	-0.0101
776.5843	0.0069
776.7576	-0.0011
776.9309	-0.0018
777.1041	-0.0014
777.2774	0.0009
777.4506	-0.0005
777.6238	-0.0009
777.797	0.0067
777.9702	-0.0089
778.1434	-0.0011
778.3165	0.0045
778.4896	-0.0098
778.6627	-0.0035
778.8358	-0.0076
779.0089	-0.0011
779.1819	-0.0058
779.3549	-0.0042
779.5279	0.0047
779.7009	-0.0058
779.8739	-0.0067
780.0468	-0.0038
780.2197	-0.005
780.3926	-0.0109
780.5655	-0.0131
780.7384	-0.0041
780.9112	-0.0066
781.0841	0.001
781.2569	-0.0005
781.4297	-0.0077
781.6024	-0.0041
781.7752	0.0026
781.9479	-0.0046
782.1206	0.0062
782.2933	-0.0076
782.466	-0.0065
782.6386	-0.0026
782.8113	-0.0148
782.9839	-0.0093
783.1565	-0.0063
783.329	-0.0011
783.5016	0.005
783.6741	-0.0059
783.8466	-0.0128
784.0191	-0.0059
784.1916	-0.0011
784.3641	-0.0004
784.5365	0.0042
784.7089	0.0027
784.8813	0.0111
785.0537	0.0119
785.2261	-0.0037
785.3984	-0.0014
785.5707	0.0064
785.743	0.0008
785.9153	-0.0008
786.0876	0.0016
786.2598	0.008
786.432	0.0074
786.6042	0.0076
786.7764	0.0026
786.9486	0.0066
787.1207	-0.0025
787.2928	0.0129
787.4649	-0.0111
787.637	-0.004
787.8091	0.0001
787.9811	0.0007
788.1532	0.0014
788.3252	-0.0035
788.4972	0.0002
788.6691	-0.0035
788.8411	-0.0024
789.013	0.0024
789.1849	0.0073
789.3568	-0.0058
789.5287	-0.0033
789.7005	-0.004
789.8723	0.0028
790.0442	-0.0046
790.2159	-0
790.3877	-0.0054
790.5595	-0.0031
790.7312	0.0059
790.9029	-0.0063
791.0746	-0.01
791.2463	0.0061
791.4179	-0.0001
791.5896	0.0064
791.7612	0.0059
791.9328	0.0053
792.1044	0.0002
792.2759	0.0119
792.4474	-0.0095
792.619	-0.0091
792.7905	-0.0069
792.9619	-0.0035
793.1334	0.001
793.3048	-0.0008
793.4762	-0.0073
793.6476	-0.0172
793.819	-0.009
793.9904	-0.0053
794.1617	-0.0123
794.333	-0.0112
794.5043	0.0043
794.6756	0.005
794.8469	0.0055
795.0181	-0.01
795.1893	-0.0008
795.3605	0.0012
795.5317	-0.0103
795.7029	-0.0032
795.874	-0.0044
796.0452	-0.0081
796.2163	-0.0077
796.3873	-0.0162
796.5584	-0.0118
796.7294	-0.0096
796.9005	-0.0161
797.0715	-0.0141
797.2425	-0.0133
797.4134	-0.011
797.5844	-0.011
797.7553	-0.0085
797.9262	-0.0098
798.0971	-0.0103
798.2679	-0.0058
798.4388	-0.0131
798.6096	-0.0025
798.7804	-0.0171
798.9512	-0.0109
799.122	-0.0013
799.2927	-0.0201
799.4635	-0.0069
799.6342	-0.0063
799.8049	-0.0075
799.9755	-0.0092
800.1462	-0.018
800.3168	-0.0068
800.4874	-0.0144
800.658	-0.008
800.8286	-0.0132
800.9991	-0.0133
801.1696	-0.0082
801.3402	-0.0195
801.5106	-0.0122
801.6811	-0.0211
801.8516	-0.0109
802.022	-0.0232
802.1924	-0.0205
802.3628	-0.0157
802.5332	-0.0158
802.7035	-0.0157
802.8739	-0.0061
803.0442	-0.0206
803.2145	-0.0133
803.3847	-0.0238
803.555	-0.0153
803.7252	-0.0137
803.8954	-0.0185
804.0656	0.0027
804.2358	-0.0123
804.4059	-0.0173
804.5761	-0.0009
804.7462	-0.0065
804.9163	-0.0141
805.0864	0.0025
805.2564	-0.0127
805.4264	-0.0151
805.5965	-0.0113
805.7665	-0.0143
805.9364	-0.006
806.1064	-0.0075
806.2763	-0.0055
806.4462	-0.0066
806.6161	0.0008
806.786	-0.0127
806.9559	-0.0152
807.1257	-0.0055
807.2955	-0.0115
807.4653	0.0017
807.6351	-0.0017
807.8048	-0.0034
807.9746	-0.0075
808.1443	-0.0044
808.314	0.0015
808.4837	0.0067
808.6533	-0.0019
808.8229	-0.0019
808.9926	0.0063
809.1622	-0.0033
809.3317	0.0122
809.5013	0.0131
809.6708	0.0089
809.8403	-0.0056
810.0098	0.012
810.1793	-0.0087
810.3488	0.0168
810.5182	-0.0122
810.6876	0.0006
810.857	-0.0179
811.0264	-0.0086
811.1958	0.0036
811.3651	-0.009
811.5344	-0.0023
811.7037	-0.0093
811.873	-0.0073
812.0422	-0.0109
812.2115	-0.0013
812.3807	-0.0092
812.5499	-0.0057
812.7191	-0.0085
812.8882	-0.0019
813.0574	-0.0091
813.2265	0.0002
813.3956	-0.0026
813.5646	-0.0143
813.7337	0.0059
813.9027	0.0022
814.0718	-0.0119
814.2407	0.0165
814.4097	0.0059
814.5787	-0.0034
814.7476	-0.0074
814.9165	0.005
815.0854	-0.012
815.2543	0.0091
815.4232	-0.004
815.592	-0.0054
815.7608	-0.0026
815.9296	-0.0032
816.0984	0.0083
816.2671	0.0029
816.4359	0.0034
816.6046	0.0002
816.7733	-0.0005
816.942	0.0008
817.1106	0.0026
817.2793	-0.0074
817.4479	-0.0162
817.6165	-0.0127
817.785	-0.0173
817.9536	-0.0061
818.1221	-0.0021
818.2906	0.0012
818.4591	-0.0166
818.6276	0.0103
818.7961	-0.0094
818.9645	-0.0133
819.1329	-0.0064
819.3013	0.0033
819.4697	-0.0012
819.638	-0.0064
819.8064	-0.0132
819.9747	-0.0068
820.143	-0.0012
820.3113	-0.0037
820.4795	0.0163
820.6477	-0.0115
820.816	-0.0007
820.9842	-0.0074
821.1523	-0.0143
821.3205	-0.0125
821.4886	-0.0086
821.6567	0.0006
821.8248	-0.0152
821.9929	-0.0066
822.1609	-0.0062
822.329	-0.0041
822.497	-0.0054
822.665	-0.0142
822.833	-0.0237
823.0009	-0.0171
823.1688	-0.0109
823.3367	-0.0067
823.5046	0.0056
823.6725	-0.0185
823.8404	-0.0019
824.0082	-0.0091
824.176	-0.0038
824.3438	-0.0125
824.5116	0.0135
824.6793	-0.0068
824.847	0.0002
825.0147	-0.0098
825.1824	-0.0169
825.3501	-0.0059
825.5177	-0.0128
825.6854	-0.0012
825.853	0.0021
826.0206	-0.0054
826.1881	0.0059
826.3557	-0.0013
826.5232	0.0091
826.6907	-0.0037
826.8582	-0.0018
827.0257	-0.0212
827.1931	0.0143
827.3605	0.01
827.528	0.0028
827.6953	-0.0106
827.8627	-0.0105
828.03	-0.0114
828.1974	0.0078
828.3647	0.0099
828.532	-0.0113
828.6992	-0.0029
828.8665	-0.0105
829.0337	-0.0125
829.2009	-0.0015
829.3681	-0.0288
829.5352	0.0005
829.7024	0.0008
829.8695	-0.0143
830.0366	-0.0281
830.2037	-0.0124
830.3707	-0.0078
830.5378	-0.0084
830.7048	-0.0206
830.8718	-0.0041
831.0388	-0.0211
831.2057	-0.0202
831.3727	-0.0094
831.5396	-0.0089
831.7065	0.004
831.8734	0.0137
832.0402	-0.0114
832.2071	0.0173
832.3739	-0.0061
832.5407	-0.0068
832.7075	-0.0201
832.8742	0.0111
833.041	0.0016
833.2077	-0.0092
833.3744	0.0116
833.541	-0.0026
833.7077	-0.0081
833.8743	0.0164
834.0409	0.0159
834.2075	0.0012
834.3741	0.0001
834.5407	0.0075
834.7072	0.0059
834.8737	-0.0056
835.0402	-0.0296
835.2067	-0.0119
835.3731	-0.017
835.5395	-0.0054
835.706	-0.0103
835.8723	0.0103
836.0387	-0.0326
836.2051	-0.008
836.3714	0.0178
836.5377	0.0065
836.704	0.0031
836.8703	-0.0093
837.0365	0.0201
837.2027	0.0047
837.3689	-0.0075
837.5351	0.0004
837.7013	-0.0206
837.8674	0.0101
838.0335	0.0033
838.1997	-0.0014
838.3657	0.0189
838.5318	0.0035
838.6978	-0.0022
838.8639	-0.011
839.0299	-0.0087
839.1958	0.0057
839.3618	0.0052
839.5277	0.0118
839.6937	-0.0095
839.8596	0.0108
840.0254	-0.0147
840.1913	0.0104
840.3571	0.0166
840.523	0.0129
840.6888	0.0076
840.8545	-0.0133
841.0203	0.015
841.186	-0.0061
841.3517	-0.0135
841.5174	0.0153
841.6831	0.0036
841.8488	0.0169
842.0144	0.0082
842.18	0.0159
842.3456	0.0085
842.5112	0.0083
842.6767	-0.0069
842.8422	0.0066
843.0077	-0.0283
843.1732	-0.0045
843.3387	0.0071
843.5042	0.0111
843.6696	0.0067
843.835	-0.0329
844.0004	0.0159
844.1657	0.0117
844.3311	0.0055
844.4964	-0.0241
844.6617	0.0268
844.827	-0.0058
844.9923	0.0057
845.1575	0.0158
845.3227	0.001
845.4879	0.0057
845.6531	-0.0041
845.8183	-0.0093
845.9834	-0.0137
846.1485	0.0437
846.3136	-0.0478
846.4787	-0.0276
846.6438	0.0069
846.8088	0.0381
846.9738	-0.0006
847.1388	0.0098
847.3038	0.0463
847.4687	0.0015
847.6337	0.0295
847.7986	0.0662
847.9635	-0.0016
848.1284	-0.0068
848.2932	0.0098
848.458	0.0322
848.6228	0.0271
848.7876	-0.0602
848.9524	0.0449
849.1172	-0.0498
849.2819	0.0268
849.4466	0.0174
849.6113	0.0134
849.7759	-0.0024
849.9406	0.0063
850.1052	0.047
850.2698	0.0066
850.4344	-0.0008
850.599	-0.0235
850.7635	0.0068
850.928	-0.0096
851.0925	-0.0078
851.257	-0.0282
851.4215	-0.0109
851.5859	0.0329
851.7503	-0.0128
851.9147	0.0057
852.0791	0.0037
852.2434	-0.0056
852.4078	0.0383
852.5721	-0.0385
852.7364	-0.0781
852.9007	0.0309
853.0649	-0.0216
853.2291	-0.018
853.3934	-0.0144
853.5575	-0.0344
853.7217	-0.0177
853.8859	0.019
854.05	0.0044
854.2141	-0.0109
854.3782	0.0315
854.5423	0.0184
854.7063	0.0037
854.8703	-0.0142
855.0343	-0.0231
855.1983	-0.0145
855.3623	-0.0117
855.5262	0.0289
855.6901	0.0233
855.854	0.0323
856.0179	0.0525
856.1818	0.0371
856.3456	-0.0072
856.5094	-0.0004
856.6732	-0.0227
856.837	-0.0247
857.0008	0.0294
857.1645	0.0064
857.3282	0.034
857.4919	-0.0095
857.6556	0.0908
857.8192	-0.0257
857.9828	0.0463
858.1465	0.0154
858.31	0.0227
858.4736	-0.0856
858.6372	0.0087
858.8007	0.019
858.9642	-0.0471
859.1277	0.0177
859.2911	0.0587
859.4546	0.0546
859.618	-0.0247
859.7814	0.0322
859.9448	-0.0795
860.1081	-0.0442
860.2715	-0.0152
860.4348	0.0577
860.5981	-0.0073
860.7614	-0.065
860.9246	-0.0128
861.0879	-0.0891
861.2511	0.04
861.4143	-0.0778
861.5774	-0.0312
861.7406	0.0627
861.9037	-0.0929
862.0668	0.0228
862.2299	0.0472
862.393	-0.0387
862.556	0.1435
862.7191	-0.0597
862.8821	-0.0802
863.0451	0.1293
863.208	-0.064
863.371	0.1042
863.5339	0.1084
863.6968	-0.0492
863.8597	0.161
864.0225	-0.164
864.1854	0.0329
864.3482	-0.1473
864.511	0.1097
864.6737	-0.0585
864.8365	0.0759
864.9992	-0.0145
865.1619	-0.0448
865.3246	0.0508
865.4873	0.1741
865.65	0.0439
865.8126	-0.0221
865.9752	0.0237
866.1378	0.0397
866.3004	-0.0865
866.4629	-0.1045
866.6254	0.1146
866.7879	-0.0619
866.9504	-0.06
867.1129	-0.0164
867.2753	0.1134
867.4377	0.0208
867.6001	0.0883
867.7625	0.4163
867.9249	0.0399
868.0872	-0.0225
868.2495	-0.1438
868.4118	-0.0471
868.5741	-0.2211
868.7363	0.1044
868.8986	-0.0672
869.0608	-0.0785
869.223	0.0967
869.3851	-0.0975
869.5473	-0.2092
869.7094	-0.1984
869.8715	-0.0705
870.0336	-0.002
870.1957	0.1938
870.3577	0.0556
870.5197	-0.4719
870.6817	-0.1961
870.8437	-0.1656
871.0057	1.2561
871.1676	0.0753
871.3295	-0.2562
871.4914	0.1573
871.6533	2.0177
871.8151	-0.0489
871.977	0.1149
872.1388	0.0267
872.3006	-0.1122
872.4623	-0.1607
872.6241	-0.0732
872.7858	0.094
872.9475	0.0948
873.1092	-0.0198
873.2709	-0.1725
873.4325	0.0067
873.5941	-0.1975
873.7557	0.1338
873.9173	-0.0027
874.0789	-0.248
874.2404	-0.0588
874.4019	-0.2467
874.5634	0.3218
874.7249	-0.0375
874.8863	0.023
875.0478	-0
875.2092	-0.1306
875.3706	-0.1126
875.5319	-0.0846
875.6933	-0.1087
875.8546	0.1414
876.0159	-0.1394
876.1772	-0.0693
876.3385	-0
876.4997	0.0892
876.6609	-0.1322
876.8221	-0.0257
876.9833	-0.6878
877.1445	-0
877.3056	0.2307
877.4667	-0.7678
877.6278	0.3256
877.7889	-0.2462
877.9499	0.061
878.111	0.4325
878.272	1.1255
878.433	-0.1422
878.5939	0.1507
878.7549	-0.1129
878.9158	0.1946
879.0767	0.1856
879.2376	0.1877
879.3984	-0.1998
879.5593	0.9049
879.7201	-0
879.8809	0.1195
880.0417	-0.0483
880.2024	-0.1358
880.3632	-0.4224
880.5239	-0
880.6846	-0.0248
880.8452	0.1297
881.0059	-0.3677
881.1665	-0.2854
881.3271	-0.4475
881.4877	0.0532
881.6483	-0
881.8088	0.3143
881.9693	0.1956
882.1298	0.1956
882.2903	0.1956
