Data from MonoPyChalIsomerACN10uM450nmA_Absorbance_13-11-31-691.txt Node
Date: Tue Jul 09 13:11:31 BST 2024
User: LASERRRRR
Spectrometer: FLMT03099
Trigger mode: 0
Integration Time (sec): 2.000000E-1
Scans to average: 1
Electric dark correction enabled: true
Nonlinearity correction enabled: false
Boxcar width: 0
XAxis mode: Wavelengths
Number of Pixels in Spectrum: 3648
>>>>>Begin Spectral Data<<<<<
179.3399	0.68
179.5586	0.68
179.7771	0.68
179.9957	-0.385
180.2143	0.5775
180.4329	0.3738
180.6514	-0
180.8699	-0
181.0885	0.0159
181.307	1.1204
181.5255	-0.1843
181.744	-0
181.9625	0.0274
182.181	-0
182.3994	0.0073
182.6179	-0.3575
182.8363	-1.0482
183.0547	0.2572
183.2732	0.2373
183.4916	0.0821
183.71	0.0265
183.9284	0.0393
184.1467	0.0476
184.3651	-0.0446
184.5835	0.0416
184.8018	0.0491
185.0201	0.1361
185.2385	0.172
185.4568	0.1113
185.6751	0.2298
185.8934	-0.0331
186.1117	-0.0174
186.3299	-0.1514
186.5482	-0.0136
186.7664	0.0611
186.9847	0.0989
187.2029	0.07
187.4211	0.0547
187.6393	-0.1172
187.8575	0.1179
188.0757	-0.088
188.2939	0.0562
188.512	-0.0298
188.7302	-0.0322
188.9483	0.0375
189.1665	0.0921
189.3846	0.127
189.6027	0.1326
189.8208	0.0616
190.0389	0.1335
190.257	0.1883
190.475	0.2894
190.6931	0.0995
190.9111	0.3135
191.1292	0.1875
191.3472	0.2408
191.5652	0.2188
191.7832	0.349
192.0012	0.3375
192.2192	0.3166
192.4371	0.4629
192.6551	0.395
192.873	0.2712
193.091	0.4355
193.3089	0.4957
193.5268	0.6212
193.7447	0.5092
193.9626	0.432
194.1805	0.5265
194.3984	0.5257
194.6162	0.5408
194.8341	0.4449
195.0519	0.5176
195.2697	0.6163
195.4875	0.5928
195.7054	0.6537
195.9231	0.5808
196.1409	0.6683
196.3587	0.6775
196.5765	0.6194
196.7942	0.6561
197.012	0.7142
197.2297	0.7276
197.4474	0.7247
197.6651	0.8031
197.8828	0.7496
198.1005	0.7256
198.3182	0.7312
198.5358	0.6735
198.7535	0.6729
198.9711	0.9318
199.1888	0.7362
199.4064	0.732
199.624	0.7139
199.8416	0.7436
200.0592	0.6981
200.2767	0.7486
200.4943	0.8881
200.7119	0.7819
200.9294	0.807
201.1469	0.8719
201.3645	0.7841
201.582	0.9493
201.7995	0.7379
202.017	0.8604
202.2344	0.7623
202.4519	0.9346
202.6694	0.7912
202.8868	1.0131
203.1042	0.9552
203.3217	0.9127
203.5391	0.8849
203.7565	0.9528
203.9739	0.9032
204.1913	0.7611
204.4086	0.8671
204.626	0.9804
204.8433	0.8342
205.0607	1.0367
205.278	0.9214
205.4953	1.0779
205.7126	0.8519
205.9299	1.0747
206.1472	0.9518
206.3644	0.9862
206.5817	1.0748
206.7989	0.9516
207.0162	1.066
207.2334	0.9791
207.4506	0.9916
207.6678	0.9885
207.885	1.0858
208.1022	0.9477
208.3194	1.1748
208.5365	1.0427
208.7537	0.9409
208.9708	1.0728
209.1879	1.0818
209.405	1.0326
209.6222	1.033
209.8392	1.1428
210.0563	1.0071
210.2734	1.0584
210.4905	1.0997
210.7075	0.9864
210.9245	1.0717
211.1416	1.0544
211.3586	1.0194
211.5756	1.1101
211.7926	1.0583
212.0096	1.006
212.2265	0.9782
212.4435	1.0584
212.6604	1.116
212.8774	1.0088
213.0943	1.0446
213.3112	0.9833
213.5281	1.0196
213.745	0.9619
213.9619	0.9668
214.1788	0.9946
214.3956	0.9434
214.6125	0.9335
214.8293	0.8512
215.0461	0.8979
215.2629	0.9031
215.4798	0.812
215.6965	0.8126
215.9133	0.841
216.1301	0.8197
216.3469	0.7781
216.5636	0.7991
216.7803	0.7361
216.9971	0.7715
217.2138	0.733
217.4305	0.7211
217.6472	0.6637
217.8639	0.6263
218.0805	0.6087
218.2972	0.5854
218.5138	0.553
218.7305	0.5103
218.9471	0.456
219.1637	0.4452
219.3803	0.4139
219.5969	0.3896
219.8135	0.3791
220.0301	0.3406
220.2466	0.3473
220.4632	0.3302
220.6797	0.3045
220.8962	0.3094
221.1127	0.2918
221.3292	0.3011
221.5457	0.2794
221.7622	0.2871
221.9787	0.2794
222.1951	0.2704
222.4116	0.2643
222.628	0.2599
222.8444	0.2748
223.0608	0.2644
223.2772	0.2723
223.4936	0.2507
223.71	0.2701
223.9264	0.2724
224.1427	0.2574
224.3591	0.2723
224.5754	0.2711
224.7917	0.2731
225.008	0.277
225.2243	0.2727
225.4406	0.2784
225.6569	0.2747
225.8732	0.2923
226.0894	0.2823
226.3057	0.2885
226.5219	0.2831
226.7381	0.286
226.9543	0.2806
227.1705	0.2773
227.3867	0.2961
227.6029	0.285
227.8191	0.2928
228.0352	0.2874
228.2513	0.3129
228.4675	0.303
228.6836	0.3089
228.8997	0.2993
229.1158	0.3183
229.3319	0.3195
229.548	0.3197
229.764	0.3227
229.9801	0.3257
230.1961	0.3329
230.4121	0.3158
230.6282	0.3394
230.8442	0.3356
231.0602	0.342
231.2761	0.3454
231.4921	0.3534
231.7081	0.3593
231.924	0.3564
232.14	0.3471
232.3559	0.3724
232.5718	0.3438
232.7877	0.3515
233.0036	0.3591
233.2195	0.3617
233.4353	0.3646
233.6512	0.3683
233.867	0.3669
234.0829	0.3762
234.2987	0.3789
234.5145	0.3671
234.7303	0.3923
234.9461	0.3967
235.1619	0.389
235.3776	0.3722
235.5934	0.3962
235.8091	0.3888
236.0249	0.3821
236.2406	0.3878
236.4563	0.3943
236.672	0.3896
236.8877	0.4072
237.1034	0.4011
237.319	0.3976
237.5347	0.3939
237.7503	0.4055
237.966	0.4149
238.1816	0.4118
238.3972	0.4132
238.6128	0.4064
238.8284	0.4058
239.0439	0.4159
239.2595	0.4132
239.475	0.4164
239.6906	0.4119
239.9061	0.4093
240.1216	0.4199
240.3371	0.4233
240.5526	0.4261
240.7681	0.4084
240.9836	0.4125
241.199	0.4123
241.4145	0.4107
241.6299	0.4136
241.8453	0.3954
242.0607	0.3913
242.2761	0.3907
242.4915	0.3847
242.7069	0.3881
242.9223	0.3868
243.1376	0.3718
243.353	0.357
243.5683	0.365
243.7836	0.3513
243.9989	0.3566
244.2142	0.3445
244.4295	0.3364
244.6448	0.3284
244.86	0.3319
245.0753	0.3069
245.2905	0.3041
245.5057	0.3107
245.721	0.3033
245.9362	0.2929
246.1514	0.2874
246.3665	0.2958
246.5817	0.2784
246.7969	0.2803
247.012	0.2763
247.2271	0.2671
247.4423	0.266
247.6574	0.2694
247.8725	0.2601
248.0876	0.2595
248.3026	0.2539
248.5177	0.2566
248.7328	0.2403
248.9478	0.2559
249.1628	0.2399
249.3779	0.2353
249.5929	0.2254
249.8079	0.2325
250.0228	0.2322
250.2378	0.2357
250.4528	0.2155
250.6677	0.2282
250.8827	0.2107
251.0976	0.2133
251.3125	0.2179
251.5274	0.2096
251.7423	0.2227
251.9572	0.2021
252.172	0.217
252.3869	0.2023
252.6017	0.2088
252.8166	0.2104
253.0314	0.1953
253.2462	0.2125
253.461	0.2027
253.6758	0.1973
253.8906	0.1993
254.1053	0.2058
254.3201	0.2044
254.5348	0.1955
254.7496	0.2016
254.9643	0.1927
255.179	0.199
255.3937	0.1983
255.6083	0.2061
255.823	0.1883
256.0377	0.1916
256.2523	0.1981
256.467	0.1931
256.6816	0.1913
256.8962	0.197
257.1108	0.1952
257.3254	0.191
257.54	0.1921
257.7545	0.1966
257.9691	0.1952
258.1836	0.1915
258.3981	0.2042
258.6127	0.2001
258.8272	0.1932
259.0417	0.1968
259.2561	0.1959
259.4706	0.1871
259.6851	0.191
259.8995	0.189
260.114	0.1988
260.3284	0.1969
260.5428	0.2011
260.7572	0.1922
260.9716	0.198
261.186	0.1967
261.4003	0.2098
261.6147	0.1941
261.829	0.2018
262.0433	0.1987
262.2577	0.2006
262.472	0.1917
262.6863	0.1821
262.9005	0.2029
263.1148	0.1959
263.3291	0.1968
263.5433	0.1863
263.7576	0.1844
263.9718	0.189
264.186	0.1853
264.4002	0.1883
264.6144	0.1847
264.8286	0.1817
265.0427	0.1872
265.2569	0.1908
265.471	0.1816
265.6851	0.1847
265.8993	0.1763
266.1134	0.1798
266.3275	0.1856
266.5415	0.17
266.7556	0.1857
266.9697	0.1791
267.1837	0.1818
267.3978	0.197
267.6118	0.1907
267.8258	0.1981
268.0398	0.1956
268.2538	0.1982
268.4677	0.203
268.6817	0.1957
268.8957	0.1939
269.1096	0.1925
269.3235	0.1903
269.5374	0.1859
269.7514	0.1751
269.9652	0.1777
270.1791	0.1675
270.393	0.1646
270.6068	0.1552
270.8207	0.1539
271.0345	0.1632
271.2483	0.1574
271.4622	0.1586
271.676	0.1559
271.8897	0.1485
272.1035	0.1397
272.3173	0.1507
272.531	0.1528
272.7448	0.15
272.9585	0.148
273.1722	0.1458
273.3859	0.147
273.5996	0.1449
273.8133	0.1484
274.0269	0.1573
274.2406	0.1441
274.4542	0.1535
274.6679	0.143
274.8815	0.1551
275.0951	0.159
275.3087	0.141
275.5223	0.1492
275.7358	0.1493
275.9494	0.1574
276.1629	0.1487
276.3765	0.1472
276.59	0.1528
276.8035	0.1509
277.017	0.1448
277.2305	0.1547
277.444	0.1491
277.6574	0.1462
277.8709	0.1545
278.0843	0.1571
278.2978	0.1551
278.5112	0.1532
278.7246	0.1527
278.938	0.1546
279.1513	0.1571
279.3647	0.1538
279.5781	0.1566
279.7914	0.1505
280.0047	0.1456
280.2181	0.1573
280.4314	0.1559
280.6447	0.1588
280.8579	0.1534
281.0712	0.1655
281.2845	0.1549
281.4977	0.1624
281.711	0.1508
281.9242	0.1548
282.1374	0.1617
282.3506	0.1528
282.5638	0.1616
282.7769	0.1624
282.9901	0.1557
283.2033	0.1626
283.4164	0.1598
283.6295	0.1648
283.8426	0.1607
284.0557	0.1557
284.2688	0.1614
284.4819	0.1518
284.695	0.1567
284.908	0.162
285.1211	0.1656
285.3341	0.1575
285.5471	0.1564
285.7601	0.1581
285.9731	0.1529
286.1861	0.1677
286.3991	0.158
286.612	0.1604
286.825	0.1631
287.0379	0.1585
287.2508	0.1544
287.4637	0.1655
287.6766	0.1531
287.8895	0.1627
288.1024	0.1582
288.3152	0.1589
288.5281	0.1545
288.7409	0.1486
288.9538	0.1532
289.1666	0.16
289.3794	0.1554
289.5922	0.1547
289.8049	0.1636
290.0177	0.1557
290.2304	0.1611
290.4432	0.1532
290.6559	0.156
290.8686	0.1541
291.0813	0.1635
291.294	0.1554
291.5067	0.1572
291.7194	0.1587
291.932	0.1505
292.1447	0.1577
292.3573	0.154
292.5699	0.1643
292.7825	0.1571
292.9951	0.1585
293.2077	0.1492
293.4203	0.1487
293.6328	0.1634
293.8454	0.1529
294.0579	0.1597
294.2704	0.1569
294.4829	0.1556
294.6954	0.1536
294.9079	0.1578
295.1204	0.1596
295.3328	0.1544
295.5453	0.1475
295.7577	0.1475
295.9701	0.1464
296.1825	0.1554
296.3949	0.1478
296.6073	0.1547
296.8197	0.1537
297.0321	0.1491
297.2444	0.1504
297.4567	0.1519
297.6691	0.1502
297.8814	0.153
298.0937	0.1467
298.306	0.1538
298.5182	0.1487
298.7305	0.1563
298.9428	0.1448
299.155	0.1512
299.3672	0.1552
299.5794	0.1523
299.7916	0.1508
300.0038	0.1525
300.216	0.1589
300.4282	0.1477
300.6403	0.1517
300.8525	0.1484
301.0646	0.1526
301.2767	0.1494
301.4888	0.1495
301.7009	0.149
301.913	0.1582
302.125	0.1506
302.3371	0.1587
302.5491	0.1477
302.7612	0.1514
302.9732	0.1603
303.1852	0.1516
303.3972	0.1529
303.6092	0.1494
303.8211	0.1565
304.0331	0.1457
304.245	0.1456
304.457	0.1523
304.6689	0.1492
304.8808	0.1513
305.0927	0.1472
305.3046	0.1481
305.5164	0.1475
305.7283	0.147
305.9401	0.1469
306.152	0.1427
306.3638	0.1469
306.5756	0.1393
306.7874	0.1383
306.9992	0.1412
307.2109	0.1383
307.4227	0.137
307.6344	0.1299
307.8462	0.13
308.0579	0.1334
308.2696	0.1265
308.4813	0.1277
308.693	0.1287
308.9046	0.1204
309.1163	0.1248
309.328	0.1179
309.5396	0.118
309.7512	0.1247
309.9628	0.1242
310.1744	0.1238
310.386	0.1134
310.5976	0.1198
310.8091	0.1199
311.0207	0.114
311.2322	0.1138
311.4437	0.1206
311.6552	0.1185
311.8667	0.112
312.0782	0.1081
312.2897	0.1062
312.5012	0.119
312.7126	0.104
312.924	0.1041
313.1355	0.1012
313.3469	0.1
313.5583	0.1064
313.7696	0.1087
313.981	0.1022
314.1924	0.1005
314.4037	0.1032
314.6151	0.1011
314.8264	0.103
315.0377	0.101
315.249	0.1013
315.4603	0.1045
315.6716	0.1067
315.8828	0.1089
316.0941	0.103
316.3053	0.0971
316.5165	0.0943
316.7277	0.096
316.9389	0.0989
317.1501	0.0965
317.3613	0.0992
317.5724	0.0975
317.7836	0.0949
317.9947	0.1025
318.2058	0.0975
318.417	0.091
318.6281	0.1039
318.8391	0.0922
319.0502	0.0955
319.2613	0.0922
319.4723	0.0984
319.6834	0.0969
319.8944	0.1033
320.1054	0.0995
320.3164	0.1038
320.5274	0.1079
320.7383	0.0951
320.9493	0.0978
321.1602	0.1015
321.3712	0.1127
321.5821	0.0986
321.793	0.096
322.0039	0.1004
322.2148	0.0979
322.4257	0.0955
322.6365	0.1024
322.8474	0.1059
323.0582	0.1076
323.269	0.1071
323.4798	0.1062
323.6906	0.1032
323.9014	0.0997
324.1122	0.1034
324.3229	0.1052
324.5337	0.0926
324.7444	0.1007
324.9551	0.0991
325.1658	0.1066
325.3765	0.1075
325.5872	0.1053
325.7979	0.1093
326.0085	0.1087
326.2192	0.1074
326.4298	0.1125
326.6404	0.1082
326.851	0.1013
327.0616	0.1064
327.2722	0.1093
327.4828	0.1093
327.6933	0.1102
327.9039	0.1091
328.1144	0.1057
328.3249	0.1081
328.5354	0.1025
328.7459	0.1009
328.9564	0.1043
329.1669	0.1039
329.3773	0.114
329.5878	0.1098
329.7982	0.1086
330.0086	0.1089
330.219	0.1117
330.4294	0.1116
330.6398	0.1129
330.8502	0.1168
331.0605	0.1084
331.2708	0.1096
331.4812	0.1098
331.6915	0.1115
331.9018	0.1087
332.1121	0.1151
332.3224	0.1106
332.5326	0.1015
332.7429	0.1161
332.9531	0.1078
333.1633	0.1225
333.3735	0.1158
333.5837	0.1131
333.7939	0.1123
334.0041	0.1086
334.2143	0.1064
334.4244	0.1161
334.6346	0.1038
334.8447	0.112
335.0548	0.1079
335.2649	0.104
335.475	0.113
335.685	0.1154
335.8951	0.1108
336.1051	0.1105
336.3152	0.1028
336.5252	0.1067
336.7352	0.1115
336.9452	0.1137
337.1552	0.1112
337.3652	0.1199
337.5751	0.1131
337.7851	0.1043
337.995	0.1172
338.2049	0.1175
338.4148	0.1156
338.6247	0.1187
338.8346	0.1155
339.0445	0.1176
339.2543	0.1159
339.4642	0.1207
339.674	0.1128
339.8838	0.1136
340.0936	0.1135
340.3034	0.1247
340.5132	0.1183
340.7229	0.1263
340.9327	0.1166
341.1424	0.117
341.3522	0.1204
341.5619	0.1201
341.7716	0.1258
341.9813	0.1221
342.1909	0.1244
342.4006	0.1177
342.6102	0.1204
342.8199	0.124
343.0295	0.1165
343.2391	0.126
343.4487	0.1217
343.6583	0.1309
343.8679	0.1185
344.0774	0.1284
344.287	0.1313
344.4965	0.1214
344.706	0.1358
344.9155	0.1267
345.125	0.1356
345.3345	0.1299
345.544	0.1217
345.7534	0.1269
345.9629	0.13
346.1723	0.1306
346.3817	0.1363
346.5911	0.1375
346.8005	0.1285
347.0099	0.1282
347.2193	0.1368
347.4286	0.1398
347.638	0.141
347.8473	0.1385
348.0566	0.1378
348.2659	0.1301
348.4752	0.1361
348.6845	0.1356
348.8937	0.1381
349.103	0.1339
349.3122	0.1367
349.5214	0.1398
349.7306	0.1418
349.9398	0.137
350.149	0.1468
350.3582	0.1396
350.5674	0.1382
350.7765	0.1373
350.9856	0.1352
351.1948	0.1446
351.4039	0.1326
351.613	0.1329
351.822	0.1391
352.0311	0.144
352.2402	0.1514
352.4492	0.1529
352.6582	0.1454
352.8672	0.1379
353.0762	0.1557
353.2852	0.1565
353.4942	0.1517
353.7032	0.1412
353.9121	0.1553
354.1211	0.1492
354.33	0.1456
354.5389	0.1545
354.7478	0.1466
354.9567	0.1481
355.1655	0.1504
355.3744	0.1518
355.5833	0.1603
355.7921	0.1512
356.0009	0.1454
356.2097	0.1453
356.4185	0.15
356.6273	0.1582
356.8361	0.1455
357.0448	0.1631
357.2536	0.1449
357.4623	0.1593
357.671	0.1665
357.8797	0.1638
358.0884	0.1571
358.2971	0.1607
358.5057	0.1627
358.7144	0.1659
358.923	0.169
359.1316	0.1665
359.3402	0.171
359.5488	0.1657
359.7574	0.1663
359.966	0.1745
360.1746	0.1669
360.3831	0.1728
360.5916	0.1815
360.8002	0.1735
361.0087	0.1677
361.2172	0.1776
361.4256	0.175
361.6341	0.185
361.8426	0.1794
362.051	0.168
362.2594	0.1772
362.4678	0.1868
362.6762	0.1809
362.8846	0.1803
363.093	0.1819
363.3014	0.1779
363.5097	0.1819
363.718	0.186
363.9264	0.1797
364.1347	0.1878
364.343	0.1774
364.5513	0.18
364.7595	0.1818
364.9678	0.187
365.176	0.1853
365.3842	0.1864
365.5925	0.1864
365.8007	0.1802
366.0089	0.1957
366.217	0.1936
366.4252	0.1921
366.6333	0.1806
366.8415	0.1969
367.0496	0.1937
367.2577	0.1968
367.4658	0.1972
367.6739	0.2044
367.882	0.1972
368.09	0.1969
368.2981	0.2077
368.5061	0.1884
368.7141	0.197
368.9221	0.1981
369.1301	0.2046
369.3381	0.2022
369.5461	0.2073
369.754	0.199
369.962	0.2032
370.1699	0.2018
370.3778	0.2025
370.5857	0.2086
370.7936	0.2007
371.0015	0.2045
371.2093	0.1983
371.4172	0.2129
371.625	0.2011
371.8328	0.2115
372.0406	0.2075
372.2484	0.2081
372.4562	0.2171
372.664	0.213
372.8717	0.2025
373.0795	0.1987
373.2872	0.2166
373.4949	0.1976
373.7026	0.2033
373.9103	0.205
374.118	0.2118
374.3256	0.2094
374.5333	0.2086
374.7409	0.2113
374.9485	0.213
375.1561	0.2169
375.3637	0.2125
375.5713	0.2178
375.7789	0.2145
375.9864	0.2167
376.194	0.219
376.4015	0.2245
376.609	0.2254
376.8165	0.2223
377.024	0.2121
377.2315	0.2198
377.4389	0.2113
377.6464	0.2098
377.8538	0.2225
378.0612	0.2127
378.2686	0.2201
378.476	0.215
378.6834	0.2291
378.8908	0.2248
379.0981	0.2334
379.3055	0.2229
379.5128	0.2139
379.7201	0.2219
379.9274	0.2268
380.1347	0.2304
380.342	0.2262
380.5492	0.2213
380.7565	0.2233
380.9637	0.231
381.1709	0.2235
381.3781	0.2223
381.5853	0.2355
381.7925	0.227
381.9997	0.2358
382.2068	0.2299
382.4139	0.2277
382.6211	0.2286
382.8282	0.2294
383.0353	0.224
383.2424	0.2277
383.4494	0.2431
383.6565	0.2248
383.8635	0.238
384.0706	0.2296
384.2776	0.2376
384.4846	0.2326
384.6916	0.2362
384.8986	0.2356
385.1055	0.239
385.3125	0.2466
385.5194	0.235
385.7263	0.2416
385.9333	0.2349
386.1402	0.2367
386.347	0.2333
386.5539	0.2305
386.7608	0.2259
386.9676	0.2369
387.1744	0.2286
387.3813	0.2321
387.5881	0.2409
387.7948	0.2222
388.0016	0.2314
388.2084	0.2296
388.4151	0.2281
388.6219	0.2255
388.8286	0.2375
389.0353	0.2352
389.242	0.2223
389.4487	0.2161
389.6553	0.2309
389.862	0.2195
390.0686	0.2289
390.2753	0.2111
390.4819	0.216
390.6885	0.2222
390.8951	0.2234
391.1016	0.2278
391.3082	0.2197
391.5147	0.2217
391.7213	0.2188
391.9278	0.2104
392.1343	0.2178
392.3408	0.2053
392.5473	0.2171
392.7537	0.2081
392.9602	0.2076
393.1666	0.2087
393.373	0.2126
393.5794	0.2133
393.7858	0.2043
393.9922	0.2106
394.1986	0.1942
394.4049	0.2104
394.6113	0.2166
394.8176	0.198
395.0239	0.1943
395.2302	0.1882
395.4365	0.211
395.6428	0.1941
395.8491	0.1929
396.0553	0.2012
396.2615	0.1883
396.4678	0.2094
396.674	0.2019
396.8802	0.1984
397.0863	0.1998
397.2925	0.1913
397.4987	0.2023
397.7048	0.191
397.9109	0.1953
398.117	0.1994
398.3231	0.197
398.5292	0.1859
398.7353	0.1957
398.9413	0.2029
399.1474	0.1847
399.3534	0.1947
399.5594	0.1898
399.7654	0.1937
399.9714	0.1885
400.1774	0.1896
400.3833	0.1846
400.5893	0.1853
400.7952	0.183
401.0011	0.1953
401.207	0.1909
401.4129	0.1696
401.6188	0.182
401.8247	0.181
402.0305	0.186
402.2364	0.1988
402.4422	0.1906
402.648	0.1967
402.8538	0.1911
403.0596	0.1807
403.2654	0.188
403.4711	0.1794
403.6768	0.1982
403.8826	0.1828
404.0883	0.1829
404.294	0.1935
404.4997	0.1915
404.7054	0.1845
404.911	0.1906
405.1167	0.1879
405.3223	0.1839
405.5279	0.1847
405.7335	0.1964
405.9391	0.1898
406.1447	0.1864
406.3502	0.1759
406.5558	0.1931
406.7613	0.1886
406.9668	0.1805
407.1724	0.1955
407.3778	0.1888
407.5833	0.1962
407.7888	0.1913
407.9942	0.1896
408.1997	0.1906
408.4051	0.1837
408.6105	0.1908
408.8159	0.1976
409.0213	0.1836
409.2267	0.1852
409.432	0.1826
409.6374	0.1933
409.8427	0.1902
410.048	0.1805
410.2533	0.1808
410.4586	0.1806
410.6639	0.1788
410.8691	0.1794
411.0744	0.1785
411.2796	0.1838
411.4848	0.1809
411.69	0.1891
411.8952	0.186
412.1004	0.19
412.3056	0.2005
412.5107	0.1827
412.7158	0.186
412.921	0.1871
413.1261	0.1761
413.3312	0.1925
413.5362	0.1856
413.7413	0.1798
413.9464	0.1915
414.1514	0.1757
414.3564	0.1827
414.5614	0.1869
414.7664	0.188
414.9714	0.1884
415.1764	0.1827
415.3813	0.1856
415.5863	0.1815
415.7912	0.1903
415.9961	0.1838
416.201	0.1794
416.4059	0.1754
416.6108	0.1802
416.8156	0.1784
417.0205	0.1828
417.2253	0.1765
417.4301	0.1881
417.6349	0.176
417.8397	0.1707
418.0445	0.1713
418.2492	0.185
418.454	0.182
418.6587	0.1739
418.8634	0.1847
419.0681	0.1787
419.2728	0.1746
419.4775	0.1706
419.6822	0.176
419.8868	0.1702
420.0915	0.1665
420.2961	0.1692
420.5007	0.166
420.7053	0.1628
420.9099	0.1596
421.1144	0.1708
421.319	0.1628
421.5235	0.1743
421.728	0.1638
421.9325	0.1644
422.137	0.1657
422.3415	0.1772
422.546	0.1761
422.7504	0.1675
422.9549	0.1752
423.1593	0.1646
423.3637	0.1561
423.5681	0.1586
423.7725	0.1639
423.9769	0.1617
424.1812	0.1612
424.3856	0.1594
424.5899	0.1671
424.7942	0.163
424.9985	0.1517
425.2028	0.148
425.4071	0.1512
425.6113	0.1607
425.8156	0.1502
426.0198	0.1534
426.224	0.1399
426.4282	0.1403
426.6324	0.155
426.8366	0.1532
427.0407	0.1435
427.2449	0.1569
427.449	0.1373
427.6531	0.1454
427.8572	0.1359
428.0613	0.1386
428.2654	0.1433
428.4694	0.1458
428.6735	0.1481
428.8775	0.1356
429.0815	0.1373
429.2855	0.1473
429.4895	0.1307
429.6935	0.1276
429.8975	0.1315
430.1014	0.1265
430.3053	0.1189
430.5093	0.1255
430.7132	0.1303
430.9171	0.1245
431.1209	0.125
431.3248	0.1319
431.5286	0.1279
431.7325	0.1221
431.9363	0.1205
432.1401	0.1132
432.3439	0.1064
432.5477	0.1184
432.7514	0.1135
432.9552	0.1038
433.1589	0.1064
433.3627	0.1128
433.5664	0.1026
433.7701	0.1106
433.9737	0.0942
434.1774	0.1116
434.3811	0.1005
434.5847	0.1112
434.7883	0.1044
434.9919	0.0896
435.1955	0.0797
435.3991	0.0894
435.6027	0.096
435.8062	0.0868
436.0098	0.0974
436.2133	0.0868
436.4168	0.0955
436.6203	0.0935
436.8238	0.0824
437.0272	0.0816
437.2307	0.0826
437.4341	0.0853
437.6375	0.0829
437.841	0.08
438.0443	0.0713
438.2477	0.0731
438.4511	0.0869
438.6545	0.0636
438.8578	0.0677
439.0611	0.0682
439.2644	0.0905
439.4677	0.0717
439.671	0.0725
439.8743	0.0681
440.0775	0.0534
440.2808	0.0598
440.484	0.0577
440.6872	0.0535
440.8904	0.0648
441.0936	0.0583
441.2967	0.0676
441.4999	0.0582
441.703	0.0525
441.9062	0.0574
442.1093	0.0592
442.3124	0.0572
442.5155	0.0506
442.7185	0.0478
442.9216	0.0506
443.1246	0.0537
443.3276	0.0544
443.5307	0.0367
443.7337	0.0535
443.9366	0.0549
444.1396	0.0447
444.3426	0.0421
444.5455	0.034
444.7484	0.0317
444.9513	0.0436
445.1542	0.0491
445.3571	0.0477
445.56	0.0388
445.7628	0.0253
445.9657	0.0399
446.1685	0.0388
446.3713	0.036
446.5741	0.0359
446.7769	0.0361
446.9797	0.0287
447.1824	0.0269
447.3852	0.0354
447.5879	0.0354
447.7906	0.0292
447.9933	0.0282
448.196	0.0353
448.3986	0.022
448.6013	0.0209
448.8039	0.0263
449.0066	0.0253
449.2092	0.0157
449.4118	0.027
449.6143	0.0254
449.8169	0.0132
450.0195	0.0149
450.222	0.0071
450.4245	0.0186
450.627	0.0238
450.8295	0.016
451.032	0.0235
451.2345	0.0204
451.4369	0.0236
451.6394	0.0155
451.8418	0.0078
452.0442	0.0112
452.2466	0.0195
452.449	0.019
452.6513	0.0198
452.8537	0.0129
453.056	0.0067
453.2583	0.0127
453.4607	0.0158
453.663	0.0142
453.8652	0.0122
454.0675	0.013
454.2697	0.0169
454.472	0.016
454.6742	0.0033
454.8764	0.0096
455.0786	0.0182
455.2808	0.019
455.4829	0.0063
455.6851	0.0019
455.8872	0.0008
456.0893	0.0058
456.2915	0.0115
456.4935	0.0108
456.6956	0.0131
456.8977	0.0015
457.0997	0.0059
457.3018	0.0013
457.5038	0.0039
457.7058	-0.0056
457.9078	0.0074
458.1098	0.0041
458.3117	0.0121
458.5137	0.005
458.7156	0.0087
458.9175	0.0033
459.1194	0.0074
459.3213	0.0062
459.5232	-0.0012
459.725	-0.0037
459.9269	-0.0018
460.1287	0.0039
460.3305	-0.0042
460.5323	0.0074
460.7341	0.0045
460.9359	0.0013
461.1376	0.0044
461.3394	0.0019
461.5411	0.0108
461.7428	-0.0071
461.9445	-0.0023
462.1462	-0.0048
462.3479	-0.005
462.5495	0.0054
462.7512	0.004
462.9528	0.0057
463.1544	0.0151
463.356	0.0051
463.5576	-0.0033
463.7592	0.0005
463.9607	0.0008
464.1623	0.0028
464.3638	-0.0047
464.5653	0.0017
464.7668	-0.002
464.9683	0.0053
465.1697	0.0043
465.3712	0.0003
465.5726	-0.0009
465.7741	-0.0094
465.9755	0.0035
466.1769	-0.0156
466.3782	-0.0033
466.5796	-0.0059
466.7809	-0.003
466.9823	-0.0141
467.1836	-0.0056
467.3849	-0.0019
467.5862	-0.0012
467.7875	-0.0074
467.9887	-0.0052
468.19	-0.0069
468.3912	-0.0026
468.5924	-0.0037
468.7936	-0.0129
468.9948	0.0047
469.196	0
469.3972	0.0064
469.5983	0.0032
469.7994	-0.0097
470.0006	-0.0027
470.2017	0.0007
470.4027	-0.0023
470.6038	-0.0028
470.8049	-0.0027
471.0059	-0.0084
471.2069	0.0115
471.408	0.0022
471.6089	-0.0018
471.8099	-0.0072
472.0109	-0.0089
472.2119	-0.014
472.4128	-0.0079
472.6137	-0.0167
472.8146	-0.004
473.0155	-0.0098
473.2164	-0.0157
473.4173	-0.0066
473.6181	0.0009
473.819	-0.0044
474.0198	-0.0113
474.2206	0.0019
474.4214	0.0016
474.6222	0.0019
474.8229	-0.007
475.0237	-0.0016
475.2244	-0.0011
475.4251	-0.0031
475.6258	0.001
475.8265	-0.002
476.0272	-0.0107
476.2278	-0.0095
476.4285	-0.0035
476.6291	-0.0091
476.8297	-0.0038
477.0303	-0.0044
477.2309	-0.0095
477.4315	-0.005
477.632	-0.0106
477.8326	-0.0044
478.0331	-0.0032
478.2336	-0.0072
478.4341	-0.0015
478.6346	0.0062
478.8351	-0.0108
479.0355	-0.0068
479.236	0.0018
479.4364	-0.0079
479.6368	0.0008
479.8372	-0.0054
480.0376	-0.0043
480.2379	-0.0084
480.4383	-0.0015
480.6386	-0.0114
480.8389	-0.0146
481.0392	-0.0131
481.2395	-0.0121
481.4398	-0.0071
481.6401	-0.0173
481.8403	-0.0014
482.0405	-0.0129
482.2408	0.0031
482.441	-0.0025
482.6411	-0.0025
482.8413	-0.0084
483.0415	-0.0096
483.2416	-0.0001
483.4417	-0.0095
483.6419	-0.0031
483.8419	-0.0083
484.042	-0.0052
484.2421	-0.0074
484.4422	-0.0031
484.6422	-0.0146
484.8422	-0.0102
485.0422	-0.0096
485.2422	-0.0125
485.4422	-0.0059
485.6422	-0.0052
485.8421	-0.0084
486.042	-0.0033
486.242	-0.0069
486.4419	-0.009
486.6417	-0.012
486.8416	0.0009
487.0415	-0.0058
487.2413	-0.0042
487.4411	-0.0033
487.641	-0.0075
487.8408	-0.0094
488.0405	-0.0063
488.2403	-0.0069
488.4401	-0.0102
488.6398	-0.016
488.8395	-0.0083
489.0392	-0.0021
489.2389	-0.0085
489.4386	-0.0105
489.6383	-0.0078
489.8379	-0.0029
490.0376	-0.0025
490.2372	-0.0046
490.4368	-0.0113
490.6364	-0
490.836	-0.0069
491.0355	0.0047
491.2351	-0.003
491.4346	-0.0057
491.6341	-0.0095
491.8336	-0.0039
492.0331	-0.0059
492.2326	-0.0045
492.432	-0.0017
492.6315	-0.0061
492.8309	-0.0088
493.0303	-0.0027
493.2297	-0.0045
493.4291	-0.01
493.6284	-0.0033
493.8278	-0.0075
494.0271	-0.013
494.2264	-0.0071
494.4257	-0.0064
494.625	-0.0036
494.8243	-0.0075
495.0236	-0.0122
495.2228	-0.0083
495.422	-0.0095
495.6213	-0.0108
495.8205	-0.0081
496.0196	0
496.2188	-0.008
496.418	-0.0016
496.6171	-0.0025
496.8162	-0.0072
497.0153	0.001
497.2144	0.0003
497.4135	-0.009
497.6126	-0.0029
497.8116	0.0012
498.0107	-0.0095
498.2097	-0.0083
498.4087	-0.0092
498.6077	-0.0033
498.8067	-0.0085
499.0056	0.0031
499.2046	-0.0007
499.4035	-0.0083
499.6024	-0.0105
499.8013	-0.0036
500.0002	-0.0071
500.199	-0.0042
500.3979	0.003
500.5967	-0.0107
500.7956	-0.0129
500.9944	-0.0061
501.1932	-0.0045
501.3919	-0.0096
501.5907	-0.005
501.7895	-0.0036
501.9882	-0.0096
502.1869	-0.0037
502.3856	-0.0024
502.5843	-0.0096
502.783	-0.0111
502.9816	-0.0078
503.1803	-0.008
503.3789	-0.0069
503.5775	0.002
503.7761	-0.0072
503.9747	-0.0114
504.1732	-0.0056
504.3718	-0.0012
504.5703	-0.0054
504.7689	-0.004
504.9674	-0.0031
505.1658	-0.0076
505.3643	-0.0022
505.5628	-0.0019
505.7612	-0.0062
505.9597	-0.0044
506.1581	-0.0039
506.3565	-0.0047
506.5549	-0.0081
506.7532	-0.0103
506.9516	-0.0011
507.1499	-0.0035
507.3482	-0.0037
507.5465	-0.0023
507.7448	-0.0017
507.9431	-0.004
508.1414	-0.0075
508.3396	-0.0053
508.5379	-0.0023
508.7361	-0.0023
508.9343	-0.0102
509.1325	-0.008
509.3306	-0.0016
509.5288	-0.0007
509.7269	-0.0076
509.9251	-0.0094
510.1232	-0.0058
510.3213	-0.01
510.5193	-0.0015
510.7174	0.0007
510.9154	-0.0057
511.1135	-0.0061
511.3115	-0.0069
511.5095	-0.0062
511.7075	-0.0015
511.9055	-0.0079
512.1034	-0.006
512.3014	-0.0063
512.4993	-0.0066
512.6972	-0.0045
512.8951	-0.0103
513.093	-0.0099
513.2908	-0.0067
513.4887	-0.0068
513.6865	-0.0062
513.8844	-0.0058
514.0822	-0.0034
514.2799	-0.0066
514.4777	-0.0071
514.6755	0.0074
514.8732	-0.012
515.0709	-0.0102
515.2687	-0.0131
515.4664	-0.0026
515.664	-0.0087
515.8617	-0.0058
516.0594	-0.0069
516.257	0.0002
516.4546	-0.007
516.6522	-0.0053
516.8498	-0.0133
517.0474	-0.0057
517.2449	-0.0058
517.4425	-0.0086
517.64	-0.0068
517.8375	-0.0044
518.035	0.0014
518.2325	-0.0096
518.43	0.0005
518.6274	-0.0078
518.8249	-0.006
519.0223	-0.011
519.2197	-0.007
519.4171	-0.005
519.6145	-0.0078
519.8118	-0.0094
520.0092	-0.001
520.2065	-0.0081
520.4038	-0.0032
520.6011	-0.0009
520.7984	-0.0039
520.9956	-0.0113
521.1929	-0.0079
521.3901	-0.0054
521.5874	-0.0062
521.7846	-0.0023
521.9818	-0.0085
522.1789	-0.0049
522.3761	-0.0085
522.5732	-0.0017
522.7704	-0.0059
522.9675	-0.0044
523.1646	-0.0042
523.3617	-0.0073
523.5587	-0.0033
523.7558	-0.0002
523.9528	-0.0025
524.1498	-0.0084
524.3468	0.0008
524.5438	-0.0075
524.7408	-0.012
524.9378	-0.0141
525.1347	-0.0034
525.3316	-0.0053
525.5285	-0.0018
525.7254	-0.0122
525.9223	0.0022
526.1192	-0.0067
526.316	-0.0062
526.5129	-0.0062
526.7097	-0.009
526.9065	0.0005
527.1033	-0.0054
527.3	-0.0101
527.4968	-0.0152
527.6935	-0.0055
527.8903	-0.0017
528.087	-0.011
528.2837	0.0007
528.4804	-0.0054
528.677	-0.0078
528.8737	-0.0113
529.0703	-0.0048
529.2669	-0.0025
529.4635	-0.0001
529.6601	-0.0084
529.8567	-0.0046
530.0532	-0.0031
530.2498	-0.0045
530.4463	-0.0024
530.6428	-0.002
530.8393	-0.0005
531.0358	-0.0132
531.2322	-0.0083
531.4287	-0.0144
531.6251	-0.0099
531.8215	0.0052
532.0179	-0.0069
532.2143	0.0002
532.4107	-0.0008
532.607	-0.0074
532.8034	-0.0083
532.9997	-0.0024
533.196	-0.004
533.3923	-0.0026
533.5886	0.0018
533.7848	0.0012
533.9811	-0.0046
534.1773	-0.0115
534.3735	-0.0024
534.5697	-0.0043
534.7659	-0.0002
534.9621	-0.0054
535.1582	-0.0072
535.3544	-0.0069
535.5505	-0.0045
535.7466	-0.0057
535.9427	-0.0041
536.1387	0.0009
536.3348	0.0032
536.5308	-0.0046
536.7269	0.0024
536.9229	-0.0003
537.1189	-0.0072
537.3148	-0.0027
537.5108	0.0021
537.7068	-0.0067
537.9027	-0.0056
538.0986	-0.0007
538.2945	-0.0048
538.4904	-0.009
538.6863	-0.0067
538.8821	-0.0072
539.078	-0.0102
539.2738	-0.0112
539.4696	-0.0075
539.6654	-0.009
539.8611	-0.0061
540.0569	-0.0039
540.2526	-0.0042
540.4484	0.0087
540.6441	-0.0053
540.8398	-0.0113
541.0355	-0.004
541.2311	-0.0028
541.4268	-0.0005
541.6224	-0.0006
541.818	-0.0032
542.0136	-0.004
542.2092	-0.0051
542.4048	-0.008
542.6003	-0.004
542.7959	0.0013
542.9914	-0.0082
543.1869	-0.008
543.3824	-0.0077
543.5779	-0.0059
543.7734	-0.0107
543.9688	-0.0121
544.1642	-0.0105
544.3596	-0.0054
544.555	-0.0012
544.7504	-0.0053
544.9458	-0.0007
545.1411	0.0024
545.3365	-0.008
545.5318	0.0008
545.7271	0.0006
545.9224	0.0007
546.1177	-0.0094
546.3129	-0.0075
546.5081	-0.0046
546.7034	-0.0135
546.8986	-0.0073
547.0938	-0.0034
547.289	-0.005
547.4841	-0.0021
547.6793	-0.0058
547.8744	0.0007
548.0695	-0.0115
548.2646	-0.0064
548.4597	-0.0027
548.6548	-0.0012
548.8498	-0.0061
549.0448	-0.0016
549.2399	-0.0034
549.4349	0.0014
549.6298	-0.0054
549.8248	-0.0049
550.0198	-0.0056
550.2147	-0.0041
550.4096	-0.0012
550.6045	-0.0051
550.7994	0.0039
550.9943	-0.0024
551.1892	-0.0022
551.384	-0.0121
551.5788	-0.0075
551.7737	-0.0047
551.9685	-0.0099
552.1632	-0.0062
552.358	-0.0052
552.5528	-0.0078
552.7475	-0.0077
552.9422	-0.0085
553.1369	-0.0063
553.3316	-0.0013
553.5263	-0.0039
553.7209	-0.01
553.9156	-0.0063
554.1102	-0.0059
554.3048	-0.006
554.4994	-0.0004
554.694	0.0019
554.8885	-0.0034
555.0831	-0.0057
555.2776	-0.0077
555.4721	-0.0005
555.6666	-0.0073
555.8611	-0.0033
556.0555	-0.0088
556.25	-0.0054
556.4444	-0.0085
556.6388	-0.0053
556.8332	-0.002
557.0276	-0.0082
557.222	-0.0065
557.4163	0.0037
557.6107	-0.0033
557.805	-0.0062
557.9993	-0.0032
558.1936	-0.0114
558.3879	0.0046
558.5821	-0.0026
558.7764	-0.0098
558.9706	-0.0087
559.1648	-0.0052
559.359	-0.0091
559.5532	-0.0075
559.7473	-0.0111
559.9415	-0.0065
560.1356	-0.0098
560.3297	-0.0135
560.5238	-0.0091
560.7179	-0.0081
560.9119	0.0047
561.106	-0.0036
561.3	-0.0004
561.494	-0.0037
561.688	-0.0054
561.882	-0.0029
562.076	-0.0063
562.2699	-0.007
562.4639	-0.0074
562.6578	-0.0138
562.8517	-0.0039
563.0456	-0.0028
563.2395	-0.0049
563.4333	-0.0074
563.6272	-0.008
563.821	0.0009
564.0148	0.0025
564.2086	-0.0035
564.4024	-0.003
564.5961	-0.0004
564.7899	0.001
564.9836	-0.0015
565.1773	-0.0031
565.371	-0.0009
565.5647	-0.0041
565.7584	0.002
565.952	0.0014
566.1456	-0.0072
566.3393	-0.0045
566.5329	-0.0049
566.7264	-0.0039
566.92	0.0011
567.1136	-0.0071
567.3071	-0.0036
567.5006	0.0007
567.6941	-0.001
567.8876	-0.0051
568.0811	-0.0041
568.2745	-0.0105
568.468	-0.0089
568.6614	-0.0073
568.8548	-0.0054
569.0482	-0.0049
569.2416	-0.0033
569.4349	-0.0014
569.6283	-0.0087
569.8216	-0.0029
570.0149	-0.0099
570.2082	-0.003
570.4015	-0.0009
570.5947	-0.005
570.788	-0.0049
570.9812	-0.0064
571.1744	-0.0075
571.3676	-0.0065
571.5608	-0.0004
571.754	-0.006
571.9471	-0.0047
572.1402	-0.0065
572.3333	-0.0034
572.5264	0.004
572.7195	-0.003
572.9126	-0.0012
573.1057	-0.002
573.2987	-0.0023
573.4917	-0.0083
573.6847	-0.0024
573.8777	-0.0048
574.0707	-0.0003
574.2636	-0.0071
574.4566	-0.0013
574.6495	-0.0074
574.8424	-0.0042
575.0353	-0.0059
575.2281	-0.0013
575.421	-0.0073
575.6138	-0.0039
575.8067	-0.0026
575.9995	-0.0009
576.1923	-0.0039
576.385	-0.0069
576.5778	0.001
576.7706	-0.0017
576.9633	-0.0046
577.156	-0.0008
577.3487	-0.0016
577.5414	-0.0005
577.734	0.0017
577.9267	0.0017
578.1193	-0.0084
578.3119	-0.0029
578.5045	-0.009
578.6971	0.0001
578.8897	-0.0057
579.0822	-0.0023
579.2747	-0.0004
579.4673	-0.0055
579.6598	-0.0029
579.8522	-0.0023
580.0447	-0.0034
580.2372	0.0026
580.4296	0.0029
580.622	0.0012
580.8144	-0.0027
581.0068	0.0004
581.1992	0.0049
581.3915	-0.005
581.5839	-0.0021
581.7762	-0.0039
581.9685	-0.0018
582.1608	-0.0053
582.353	0.0032
582.5453	-0.0065
582.7375	-0.0001
582.9298	-0.0055
583.122	0.0023
583.3142	-0.0052
583.5063	-0.004
583.6985	-0.0056
583.8906	-0.0059
584.0827	-0.004
584.2749	-0.0082
584.4669	-0.0071
584.659	-0.0096
584.8511	-0.0075
585.0431	-0.0048
585.2352	-0.0081
585.4272	-0.0062
585.6192	-0.001
585.8111	-0.0063
586.0031	-0.0013
586.195	-0.0033
586.387	-0.0028
586.5789	-0.0068
586.7708	-0.0092
586.9627	-0.0055
587.1545	-0.0035
587.3464	-0.0052
587.5382	-0.0083
587.73	-0.0038
587.9218	-0.0063
588.1136	-0.0071
588.3053	0
588.4971	-0.0091
588.6888	-0.0075
588.8805	-0.0062
589.0722	0.0003
589.2639	-0.0015
589.4556	-0.004
589.6472	-0.0016
589.8389	-0.0007
590.0305	-0.0018
590.2221	-0.0042
590.4137	-0.0067
590.6052	-0.0011
590.7968	-0.0039
590.9883	-0.0028
591.1798	-0.0065
591.3713	0.0056
591.5628	-0.0055
591.7543	-0.0038
591.9458	-0.0038
592.1372	-0.004
592.3286	-0.0039
592.52	-0.0062
592.7114	0.0038
592.9028	-0.0038
593.0941	-0.003
593.2855	-0.0038
593.4768	-0.0012
593.6681	-0.0007
593.8594	0.0011
594.0506	-0.0006
594.2419	0.001
594.4331	-0.0052
594.6244	-0.0026
594.8156	-0.0069
595.0067	-0.0052
595.1979	-0.003
595.3891	-0.0057
595.5802	-0.0082
595.7713	0.0002
595.9624	-0.0026
596.1535	-0.0031
596.3446	-0.0046
596.5357	-0.0017
596.7267	-0.0041
596.9177	0.0009
597.1087	-0.0021
597.2997	-0.001
597.4907	-0.0048
597.6817	-0.0042
597.8726	-0.0064
598.0635	-0.0064
598.2544	-0.0051
598.4453	-0.0061
598.6362	-0.0065
598.827	-0.007
599.0179	-0.0043
599.2087	-0.012
599.3995	-0.0068
599.5903	-0.0032
599.7811	-0.0024
599.9718	-0.0014
600.1626	-0.0008
600.3533	-0.0023
600.544	-0.0047
600.7347	0.0035
600.9254	0.0001
601.116	-0.0053
601.3067	-0.0068
601.4973	-0.0043
601.6879	0.0004
601.8785	-0.005
602.0691	-0.0068
602.2596	-0.0046
602.4502	-0.006
602.6407	-0.0025
602.8312	-0.0021
603.0217	-0.0007
603.2122	-0.0042
603.4027	-0.0047
603.5931	-0.0055
603.7835	-0.0015
603.9739	-0.0039
604.1643	-0.0006
604.3547	-0.0018
604.5451	-0.0004
604.7354	0.002
604.9257	-0.0039
605.116	-0.0013
605.3063	-0.0008
605.4966	-0.002
605.6869	-0.0068
605.8771	0.0002
606.0673	-0.003
606.2575	-0.0066
606.4477	-0.0031
606.6379	-0.0143
606.8281	-0.0097
607.0182	-0.0119
607.2083	-0.0059
607.3985	-0.008
607.5885	-0.0022
607.7786	-0.007
607.9687	-0.0027
608.1587	-0.0028
608.3488	-0.002
608.5388	0.0001
608.7288	-0.0042
608.9187	-0.0023
609.1087	-0.0058
609.2986	-0.0037
609.4886	-0.0036
609.6785	-0.0023
609.8684	-0.0045
610.0582	0.0004
610.2481	-0.0062
610.4379	-0.0016
610.6278	0.0004
610.8176	-0.0013
611.0074	-0.0037
611.1971	0.0013
611.3869	-0.0054
611.5766	0.0019
611.7664	0.0004
611.9561	-0.0039
612.1458	0.006
612.3354	-0.006
612.5251	-0.0054
612.7147	-0.0035
612.9044	-0.0034
613.094	-0.0027
613.2836	-0.0031
613.4731	-0.008
613.6627	-0.0053
613.8522	-0.0021
614.0417	-0.0069
614.2313	-0.008
614.4207	-0.0023
614.6102	0.0005
614.7997	-0.0043
614.9891	-0.0078
615.1785	-0.003
615.3679	0.0002
615.5573	-0.0011
615.7467	-0.001
615.9361	-0.0018
616.1254	-0.007
616.3147	-0.0014
616.504	-0.0058
616.6933	-0.0021
616.8826	-0.0059
617.0718	-0.0042
617.2611	0.0012
617.4503	-0.0006
617.6395	-0.0032
617.8287	-0.0035
618.0179	0.0003
618.207	-0.0057
618.3961	0.0014
618.5853	-0.0026
618.7744	-0.0022
618.9634	0.0025
619.1525	-0.006
619.3416	-0.0075
619.5306	-0.0048
619.7196	0.0021
619.9086	-0.0006
620.0976	-0.0018
620.2866	0.0004
620.4755	-0.0037
620.6645	-0.0034
620.8534	-0.0014
621.0423	-0.0059
621.2312	-0.0085
621.42	-0.0023
621.6089	-0.0055
621.7977	-0.004
621.9865	-0.0035
622.1753	-0.0002
622.3641	-0.0015
622.5529	-0.001
622.7416	-0.0073
622.9303	0.0017
623.1191	-0.0039
623.3078	0.0035
623.4964	0.0001
623.6851	-0.0004
623.8737	-0
624.0624	0.0009
624.251	-0.0009
624.4396	0.0009
624.6282	0.0038
624.8167	-0.004
625.0053	-0.0045
625.1938	0.0012
625.3823	0.0033
625.5708	-0.0025
625.7593	-0.0065
625.9477	-0.0057
626.1362	-0.0019
626.3246	-0.0007
626.513	-0.0096
626.7014	-0.0024
626.8898	-0.0061
627.0781	-0.0034
627.2665	-0.0043
627.4548	-0.0085
627.6431	-0.0055
627.8314	-0.0023
628.0197	-0.0054
628.2079	-0.0056
628.3962	0.0066
628.5844	0.0023
628.7726	-0.0018
628.9608	-0.0039
629.1489	0.0039
629.3371	0.0011
629.5252	0.0056
629.7134	-0.0023
629.9015	0.0008
630.0895	0.0024
630.2776	-0.0013
630.4657	-0.0022
630.6537	-0
630.8417	-0.0023
631.0297	-0.0063
631.2177	0.0021
631.4057	0.0008
631.5936	0.0047
631.7815	-0.0071
631.9695	-0.0037
632.1574	-0.0091
632.3452	-0.0104
632.5331	-0.0012
632.7209	-0.0056
632.9088	-0.0051
633.0966	-0.0082
633.2844	-0.0049
633.4722	-0.004
633.6599	-0.004
633.8477	-0.0037
634.0354	-0.0067
634.2231	-0.0054
634.4108	-0.0043
634.5985	-0.0016
634.7861	-0.0024
634.9738	-0.0091
635.1614	-0.0044
635.349	-0.0057
635.5366	-0.0066
635.7242	-0.0016
635.9117	0.0002
636.0993	0.0013
636.2868	-0.0023
636.4743	0.0004
636.6618	-0.0082
636.8492	-0.0003
637.0367	0
637.2241	-0.003
637.4115	-0.0069
637.5989	-0.0031
637.7863	-0.0005
637.9737	-0.0051
638.161	-0.0045
638.3484	-0.0059
638.5357	0.0008
638.723	0.0015
638.9103	0.0001
639.0975	0.0036
639.2848	0.0001
639.472	0.0003
639.6592	0.0049
639.8464	-0
640.0336	-0.0031
640.2208	0.0015
640.4079	-0.0065
640.595	-0.0009
640.7821	-0.0035
640.9692	0.0035
641.1563	0.0028
641.3434	0.0071
641.5304	-0.0003
641.7174	0.0021
641.9044	0.0083
642.0914	-0.0019
642.2784	0.0085
642.4653	0.0055
642.6523	0.0027
642.8392	0.0063
643.0261	0.006
643.213	0.0022
643.3999	-0.0025
643.5867	-0.0009
643.7735	0.003
643.9604	-0.0018
644.1472	-0.0027
644.3339	-0.0002
644.5207	-0.0027
644.7075	-0.0023
644.8942	-0.004
645.0809	0.0012
645.2676	-0.0058
645.4543	0.0011
645.6409	-0.0022
645.8276	-0.0021
646.0142	-0.0062
646.2008	-0.0067
646.3874	-0.0013
646.574	-0.0022
646.7605	-0.0037
646.9471	-0.0089
647.1336	-0.006
647.3201	-0.0053
647.5066	-0.0013
647.6931	-0.0003
647.8795	-0.005
648.0659	-0.0006
648.2524	-0.0058
648.4388	-0.0074
648.6252	-0.0052
648.8115	-0.0123
648.9979	-0.0029
649.1842	-0.0108
649.3705	-0.0093
649.5568	-0.0046
649.7431	-0.0031
649.9294	-0.0022
650.1156	-0.0029
650.3018	-0.0073
650.488	-0.0085
650.6742	-0.0028
650.8604	-0.0006
651.0466	-0.0013
651.2327	-0.0055
651.4188	-0.001
651.6049	0.0024
651.791	-0.0011
651.9771	-0.0025
652.1632	0.0016
652.3492	0.0004
652.5352	-0.0019
652.7212	-0.0022
652.9072	0.0022
653.0932	0.002
653.2791	-0.0016
653.465	-0.0013
653.651	-0.0002
653.8369	0.0002
654.0227	0.0012
654.2086	-0.0025
654.3944	-0.0074
654.5803	-0.0096
654.7661	-0.0023
654.9519	-0.001
655.1377	-0.0044
655.3234	-0.0001
655.5092	-0.0001
655.6949	-0.0001
655.8806	-0.0001
656.0663	-0.0001
656.2519	-0.0001
656.4376	-0.0021
656.6232	-0.005
656.8088	-0.0043
656.9945	-0.0026
657.18	-0.0014
657.3656	0.0005
657.5511	-0.0043
657.7367	-0.0018
657.9222	0.0002
658.1077	0.0027
658.2932	-0.0049
658.4786	-0.0017
658.6641	-0.0034
658.8495	-0.0007
659.0349	-0.0011
659.2203	-0.0073
659.4057	-0.0065
659.591	-0.0024
659.7764	-0.0027
659.9617	-0.0077
660.147	-0.0037
660.3323	-0.0055
660.5176	-0.0114
660.7028	-0.0046
660.888	-0.0009
661.0733	0.0013
661.2585	-0.0075
661.4436	-0.0031
661.6288	-0.0069
661.8139	0.003
661.9991	0.0001
662.1842	0.0001
662.3693	-0.0017
662.5544	-0.0018
662.7394	-0.0043
662.9245	0.0002
663.1095	0.0011
663.2945	0.0001
663.4795	-0.0008
663.6644	-0.0068
663.8494	-0.0071
664.0343	-0.0051
664.2193	-0.0042
664.4042	-0.0095
664.589	-0.0048
664.7739	-0.0076
664.9587	0.0006
665.1436	0.0021
665.3284	-0.0031
665.5132	0.0015
665.698	0.0069
665.8827	0.0009
666.0675	-0.0035
666.2522	-0.0039
666.4369	-0.0081
666.6216	-0.0105
666.8063	-0.0064
666.9909	-0.0078
667.1756	-0.0077
667.3602	-0.0047
667.5448	-0.0056
667.7294	-0.0033
667.9139	-0.0057
668.0985	-0.0157
668.283	-0.0042
668.4675	-0.0158
668.652	-0.0103
668.8365	-0.0087
669.0209	-0.0086
669.2054	-0.0004
669.3898	-0.0044
669.5742	-0.0107
669.7586	-0.0042
669.943	-0.0065
670.1273	-0.0074
670.3117	-0.0039
670.496	-0.0029
670.6803	-0.0007
670.8646	-0.0032
671.0488	0.0002
671.2331	-0.0021
671.4173	-0.0007
671.6015	-0.0021
671.7857	-0.0082
671.9699	-0.0038
672.1541	-0.0067
672.3382	-0.0023
672.5223	-0.0038
672.7064	-0.0096
672.8905	-0.016
673.0746	-0.0109
673.2587	-0.0153
673.4427	-0.0144
673.6267	-0.0144
673.8107	-0.0116
673.9947	-0.0113
674.1787	-0.0102
674.3626	-0.0072
674.5465	-0.0072
674.7304	-0.0006
674.9143	-0.0045
675.0982	-0.0027
675.2821	-0.0032
675.4659	-0.0099
675.6497	0.0015
675.8335	-0.0011
676.0173	-0.0101
676.2011	-0.0073
676.3849	-0.0051
676.5686	-0.0017
676.7523	-0.0089
676.936	-0.0027
677.1197	-0.005
677.3034	-0.0076
677.487	-0.0022
677.6706	-0.0032
677.8542	-0.0029
678.0378	-0.0012
678.2214	-0.0081
678.405	-0.0008
678.5885	-0.0067
678.772	-0.0054
678.9555	-0.0014
679.139	-0.0083
679.3225	-0.0113
679.5059	-0.0113
679.6894	-0.0044
679.8728	0.0008
680.0562	-0.0004
680.2395	0.0009
680.4229	0.0013
680.6062	0.0023
680.7896	0.0001
680.9729	-0.0001
681.1562	0.0001
681.3394	0.0034
681.5227	-0.0038
681.7059	-0.0059
681.8891	-0.0047
682.0723	-0.0052
682.2555	-0.0054
682.4387	0.0007
682.6218	-0.0072
682.805	-0.0028
682.9881	-0.003
683.1712	-0.0005
683.3542	0.0016
683.5373	-0.0011
683.7203	-0.0054
683.9034	-0.0016
684.0864	-0.0094
684.2694	-0
684.4523	-0.0033
684.6353	-0.0046
684.8182	-0.0019
685.0011	0.0002
685.184	-0.0034
685.3669	-0.005
685.5498	-0.0039
685.7326	-0.0015
685.9154	-0.0039
686.0982	-0.003
686.281	-0.0068
686.4638	-0.0036
686.6465	-0.0044
686.8293	-0.0046
687.012	-0.0022
687.1947	-0.0094
687.3774	-0.0054
687.56	-0.0044
687.7427	-0.0022
687.9253	-0.0023
688.1079	0.0035
688.2905	0.0003
688.4731	-0.0058
688.6556	-0.0047
688.8382	0.0012
689.0207	0.0023
689.2032	-0.002
689.3857	0.0008
689.5681	0.0008
689.7506	-0.0046
689.933	0.0045
690.1154	0.0003
690.2978	-0.0044
690.4802	-0.0019
690.6626	0.0043
690.8449	-0.0002
691.0272	0.0004
691.2095	-0
691.3918	-0.006
691.5741	-0.0045
691.7563	-0.0017
691.9386	-0.0043
692.1208	-0.007
692.303	-0.0103
692.4852	0.0012
692.6673	-0.0006
692.8495	-0.0086
693.0316	-0.0038
693.2137	-0.0093
693.3958	-0.0047
693.5778	-0.001
693.7599	-0.01
693.9419	-0.0108
694.1239	-0.0062
694.3059	-0.0065
694.4879	-0.0062
694.6699	-0.0072
694.8518	-0.0053
695.0337	-0.0033
695.2157	-0.0017
695.3975	-0.005
695.5794	-0.0087
695.7613	-0.0076
695.9431	-0.0066
696.1249	-0.0043
696.3067	-0.0035
696.4885	0.0013
696.6703	-0.0037
696.852	-0.0033
697.0337	0.0005
697.2154	-0.0062
697.3971	-0.0083
697.5788	0.0003
697.7605	-0.0017
697.9421	-0.0037
698.1237	-0.0019
698.3053	-0.0076
698.4869	-0.0046
698.6685	-0.002
698.85	-0.0051
699.0315	-0.0042
699.213	0.0008
699.3945	-0.001
699.576	0.0089
699.7575	-0.0007
699.9389	0.001
700.1203	-0.0012
700.3017	-0.005
700.4831	0.0021
700.6645	-0.009
700.8458	-0.0082
701.0271	-0.0005
701.2084	-0.0102
701.3897	-0.0081
701.571	-0.0002
701.7523	0.0024
701.9335	0.0114
702.1147	-0.001
702.2959	-0.0055
702.4771	0.0044
702.6583	-0.0032
702.8394	0.0023
703.0205	-0.0006
703.2016	-0.0006
703.3827	0.0074
703.5638	-0.0103
703.7449	-0.0061
703.9259	0.0003
704.1069	0.0002
704.2879	0.0005
704.4689	-0.0083
704.6499	-0.0033
704.8308	-0.0003
705.0117	-0.0022
705.1927	0.0017
705.3735	-0.0026
705.5544	0.0011
705.7353	-0.0007
705.9161	-0.0022
706.0969	0.0024
706.2777	0.0001
706.4585	-0.0036
706.6393	-0.0069
706.82	-0.0048
707.0007	-0.0048
707.1815	-0.0002
707.3621	0.0008
707.5428	-0.0035
707.7235	-0.0029
707.9041	-0.0065
708.0847	-0.0031
708.2653	-0.0052
708.4459	-0.0032
708.6265	-0.0051
708.807	-0.0015
708.9875	-0.0021
709.168	0
709.3485	-0.0007
709.529	-0.0059
709.7095	-0.0033
709.8899	-0.0071
710.0703	0.0032
710.2507	-0.0041
710.4311	-0.0084
710.6115	0.0049
710.7918	-0.0038
710.9721	0.0026
711.1524	0.0008
711.3327	0.0044
711.513	-0.0055
711.6932	-0.0063
711.8735	0.0006
712.0537	-0.0038
712.2339	-0.0023
712.4141	-0.0055
712.5942	-0.0024
712.7744	-0.0019
712.9545	0.003
713.1346	-0.0016
713.3147	-0.0004
713.4947	0.0029
713.6748	-0.001
713.8548	-0.0065
714.0348	-0.0049
714.2148	-0.0056
714.3948	-0.0067
714.5748	-0.0109
714.7547	-0.0092
714.9346	-0.0004
715.1145	-0.0095
715.2944	0.003
715.4743	-0.006
715.6541	-0.0028
715.834	-0.001
716.0138	-0.0023
716.1936	-0.002
716.3733	-0.0074
716.5531	-0.0005
716.7328	-0.0045
716.9126	-0.0023
717.0923	0.0013
717.2719	-0.0092
717.4516	-0.0055
717.6312	-0.001
717.8109	0.0004
717.9905	-0.0061
718.1701	-0.0001
718.3496	-0.0037
718.5292	-0.0103
718.7087	-0.0076
718.8882	-0.005
719.0677	0.0022
719.2472	-0.0011
719.4267	-0.0158
719.6061	-0.0089
719.7856	-0.0083
719.965	-0.0056
720.1443	0.0031
720.3237	-0.003
720.5031	-0.0126
720.6824	-0.0077
720.8617	-0.006
721.041	-0.0019
721.2203	-0.0116
721.3995	-0.0044
721.5788	-0.0093
721.758	-0.0021
721.9372	-0.006
722.1164	-0.0056
722.2956	-0.0113
722.4747	-0.008
722.6538	-0.009
722.8329	-0.0077
723.012	-0.0083
723.1911	-0.0029
723.3702	0.0031
723.5492	-0.0049
723.7282	-0.0021
723.9072	-0.001
724.0862	-0.0034
724.2652	0
724.4441	-0.0041
724.623	0.0007
724.8019	0.0015
724.9808	-0.0005
725.1597	0.003
725.3385	0.0036
725.5174	0.0048
725.6962	-0.0097
725.875	0.0027
726.0538	0.009
726.2325	-0.0036
726.4112	-0.0042
726.59	-0.0032
726.7687	-0.0075
726.9474	-0.0017
727.126	-0.0045
727.3047	-0.0045
727.4833	0.0048
727.6619	-0.0083
727.8405	-0.0045
728.0191	-0.002
728.1976	-0.0052
728.3762	-0.0053
728.5547	-0.0083
728.7332	-0.0161
728.9116	-0.0141
729.0901	-0.0101
729.2686	-0.0075
729.447	-0.0004
729.6254	-0.009
729.8038	-0.0058
729.9821	0.0009
730.1605	-0.0111
730.3388	-0.0019
730.5171	0.0022
730.6954	-0.0044
730.8737	-0.0005
731.0519	-0.0006
731.2302	-0.0035
731.4084	0.0109
731.5866	0.0031
731.7648	0.0016
731.9429	0.0034
732.1211	-0.0035
732.2992	0.004
732.4773	-0.0058
732.6554	-0.0039
732.8335	0.0003
733.0115	-0.0041
733.1896	-0.0048
733.3676	-0.0034
733.5456	-0.0044
733.7235	-0.0025
733.9015	0.0022
734.0794	-0.0007
734.2574	-0.0062
734.4353	-0.0067
734.6131	0.0029
734.791	-0.0065
734.9689	-0.0051
735.1467	0.0076
735.3245	0.002
735.5023	-0.0096
735.68	-0.0008
735.8578	-0.0012
736.0355	0.0078
736.2132	0.0002
736.3909	-0.0021
736.5686	-0.0038
736.7463	-0.004
736.9239	-0.0046
737.1015	-0.0007
737.2791	-0.0109
737.4567	-0.0057
737.6343	-0.0038
737.8118	-0.0011
737.9894	0
738.1669	-0.0097
738.3444	-0.0041
738.5218	0.0058
738.6993	-0.0034
738.8767	-0.0019
739.0541	-0.0093
739.2315	-0.0053
739.4089	-0.0031
739.5863	-0.0086
739.7636	-0.0095
739.9409	-0.0019
740.1182	0.0007
740.2955	0.0001
740.4728	-0.0071
740.65	-0.0038
740.8272	0.0031
741.0044	-0.0055
741.1816	0.0044
741.3588	0.0055
741.5359	0.0002
741.7131	0.0016
741.8902	-0.0002
742.0673	-0.0018
742.2444	-0.0053
742.4214	-0.0027
742.5985	-0.0113
742.7755	-0.009
742.9525	0.0035
743.1295	0.0009
743.3064	-0.0015
743.4834	0.0011
743.6603	-0.0024
743.8372	0.0025
744.0141	-0.0008
744.191	-0.0045
744.3678	-0.0031
744.5446	0.0031
744.7215	-0.0131
744.8982	0.0022
745.075	-0.0026
745.2518	-0.0034
745.4285	-0.0021
745.6052	-0.0003
745.7819	-0.003
745.9586	0.0023
746.1353	-0.0099
746.3119	0.0029
746.4885	-0.004
746.6651	0.0005
746.8417	-0.0047
747.0183	-0.0027
747.1948	-0.0085
747.3714	-0.005
747.5479	-0.0059
747.7244	-0.004
747.9008	0.0028
748.0773	0.0003
748.2537	0.0032
748.4301	0.0007
748.6065	-0.001
748.7829	-0.0007
748.9593	0.0016
749.1356	-0.0025
749.3119	0.0011
749.4882	0.0026
749.6645	-0.0005
749.8408	0.0031
750.017	0.0005
750.1933	-0.0034
750.3695	-0.0056
750.5457	-0.0087
750.7218	-0.0098
750.898	-0.0052
751.0741	-0.0095
751.2502	-0.0031
751.4263	-0.008
751.6024	-0.0033
751.7784	-0.0011
751.9545	-0.0016
752.1305	0.003
752.3065	-0.0026
752.4825	0.0009
752.6584	0.0008
752.8344	-0.0018
753.0103	-0.001
753.1862	0.003
753.3621	-0.0046
753.5379	-0.0055
753.7138	0.0047
753.8896	-0.0098
754.0654	-0.0068
754.2412	-0.0181
754.417	-0.0071
754.5927	-0.0021
754.7685	-0.0148
754.9442	-0.0099
755.1199	-0.0125
755.2956	-0.0047
755.4712	-0.0053
755.6469	-0.0086
755.8225	-0.0096
755.9981	-0.0103
756.1736	-0.0067
756.3492	-0.0103
756.5248	-0.0046
756.7003	-0.0047
756.8758	-0.0084
757.0513	-0.0124
757.2267	-0.011
757.4022	-0.0061
757.5776	-0.0161
757.753	-0.011
757.9284	-0.0069
758.1038	-0.0086
758.2791	-0.0134
758.4545	-0.0083
758.6298	-0.0033
758.8051	-0.0079
758.9803	-0.0115
759.1556	-0.0105
759.3308	-0.0071
759.506	-0.0067
759.6812	-0.0106
759.8564	-0.0028
760.0316	-0.0113
760.2067	-0.0079
760.3819	-0.0062
760.557	-0.0109
760.732	-0.0091
760.9071	-0.011
761.0821	-0.0103
761.2572	-0.0164
761.4322	-0.0088
761.6072	-0.0136
761.7821	-0.0119
761.9571	-0.0095
762.132	-0.0038
762.3069	0.0002
762.4818	-0.0059
762.6567	-0.0069
762.8316	-0.0035
763.0064	-0.0027
763.1812	0.0037
763.356	0.0002
763.5308	-0.0023
763.7055	0.0039
763.8803	-0.0023
764.055	-0.0038
764.2297	-0.0046
764.4044	-0.0002
764.579	0.0014
764.7537	-0.0047
764.9283	-0.0066
765.1029	-0.0003
765.2775	0.0007
765.4521	0.0039
765.6266	0.0056
765.8011	0.0036
765.9756	0.001
766.1501	0.0036
766.3246	-0.0027
766.4991	0.0012
766.6735	0.0011
766.8479	-0.0058
767.0223	0
767.1967	-0.0012
767.371	0.0003
767.5454	-0.0018
767.7197	-0.0044
767.894	-0.0043
768.0683	0.0004
768.2425	-0.0056
768.4168	-0.0113
768.591	0.0059
768.7652	0.0027
768.9394	0.0062
769.1135	0.0064
769.2877	0.0036
769.4618	0.0078
769.6359	0.0002
769.81	-0.0061
769.984	-0.004
770.1581	0.0018
770.3321	-0.001
770.5061	-0.0011
770.6801	-0.005
770.8541	-0.0021
771.028	0.0051
771.202	0.0014
771.3759	-0.0043
771.5498	0.0037
771.7236	0.0019
771.8975	0.0001
772.0713	0.0104
772.2451	0.0037
772.4189	-0.002
772.5927	-0.0047
772.7665	-0.0048
772.9402	-0.0065
773.1139	0.0016
773.2876	0.0021
773.4613	-0.007
773.635	0.0106
773.8086	0.0064
773.9822	0.0043
774.1558	-0.0035
774.3294	0.0091
774.503	0.0039
774.6765	-0.0036
774.8501	0.0015
775.0236	-0.0149
775.1971	-0.0074
775.3705	-0.0032
775.544	-0.0016
775.7174	-0.0059
775.8908	-0.0003
776.0642	-0.0037
776.2376	-0.001
776.4109	-0.0086
776.5843	0.002
776.7576	0.0041
776.9309	-0.002
777.1041	-0.0039
777.2774	0.0026
777.4506	-0.0039
777.6238	0.0025
777.797	-0.0033
777.9702	0.0007
778.1434	-0.005
778.3165	-0.0021
778.4896	-0.01
778.6627	0.0027
778.8358	-0.0069
779.0089	-0.0074
779.1819	-0.003
779.3549	-0.0016
779.5279	0.001
779.7009	-0.0021
779.8739	0.0014
780.0468	-0.0092
780.2197	-0.0064
780.3926	-0.0069
780.5655	-0.0068
780.7384	-0.0054
780.9112	-0.0061
781.0841	0.006
781.2569	-0.0012
781.4297	-0.0094
781.6024	-0.0034
781.7752	-0.0048
781.9479	-0.007
782.1206	-0.0064
782.2933	-0.0059
782.466	-0.004
782.6386	-0.0073
782.8113	-0.0163
782.9839	-0.0112
783.1565	-0.0144
783.329	-0.0063
783.5016	-0.0017
783.6741	-0.008
783.8466	-0.0053
784.0191	-0.0099
784.1916	-0.0054
784.3641	-0.0043
784.5365	-0
784.7089	0.0021
784.8813	0.005
785.0537	0.0086
785.2261	-0
785.3984	-0.0074
785.5707	0.0046
785.743	0.0022
785.9153	0.0037
786.0876	-0.0049
786.2598	0.0023
786.432	-0.0012
786.6042	0.0084
786.7764	0.0101
786.9486	0.0058
787.1207	-0.0052
787.2928	-0.0025
787.4649	-0.0018
787.637	-0.0085
787.8091	-0
787.9811	0.0074
788.1532	-0.0055
788.3252	-0.0085
788.4972	-0.0056
788.6691	-0.0013
788.8411	-0.001
789.013	-0.0071
789.1849	0.001
789.3568	-0.0111
789.5287	-0.0062
789.7005	0.0004
789.8723	-0.004
790.0442	-0.0117
790.2159	0.0043
790.3877	0.002
790.5595	-0.0094
790.7312	-0.0027
790.9029	-0.0093
791.0746	-0.011
791.2463	0.0012
791.4179	-0.0131
791.5896	0.0055
791.7612	0.0001
791.9328	0.0045
792.1044	-0.0068
792.2759	0.0029
792.4474	-0.0014
792.619	-0.0083
792.7905	-0.0027
792.9619	0.0012
793.1334	-0.0109
793.3048	-0.0082
793.4762	-0.0046
793.6476	-0.0166
793.819	-0.0151
793.9904	-0.0097
794.1617	-0.0168
794.333	-0.0106
794.5043	-0.0013
794.6756	0.008
794.8469	0.0034
795.0181	-0.0086
795.1893	-0.0049
795.3605	-0.0032
795.5317	-0.0025
795.7029	-0.0163
795.874	-0.0104
796.0452	-0.006
796.2163	-0.0035
796.3873	-0.0132
796.5584	-0.0143
796.7294	-0.0076
796.9005	-0.0043
797.0715	-0.0109
797.2425	-0.0171
797.4134	-0.0109
797.5844	-0.0181
797.7553	-0.0077
797.9262	-0.0091
798.0971	-0.0179
798.2679	-0.0033
798.4388	-0.0133
798.6096	-0.0051
798.7804	-0.0122
798.9512	-0.009
799.122	-0.0083
799.2927	-0.0171
799.4635	0.0012
799.6342	-0.0007
799.8049	-0.0112
799.9755	-0.0054
800.1462	-0.0176
800.3168	-0.0097
800.4874	-0.0124
800.658	-0.0209
800.8286	-0.0118
800.9991	-0.0216
801.1696	-0.0138
801.3402	-0.0182
801.5106	-0.0223
801.6811	-0.0275
801.8516	-0.0114
802.022	-0.0297
802.1924	-0.0285
802.3628	-0.0144
802.5332	-0.0158
802.7035	-0.0155
802.8739	-0.0069
803.0442	-0.0141
803.2145	-0.0184
803.3847	-0.0241
803.555	-0.0194
803.7252	-0.0094
803.8954	-0.0124
804.0656	-0.0009
804.2358	-0.0051
804.4059	-0.0113
804.5761	-0.0047
804.7462	-0.0084
804.9163	-0.0041
805.0864	-0.0079
805.2564	-0.0138
805.4264	-0.0139
805.5965	-0.014
805.7665	-0.0092
805.9364	-0.005
806.1064	-0.0131
806.2763	-0.0194
806.4462	-0.0084
806.6161	-0.0147
806.786	-0.0086
806.9559	-0.0055
807.1257	-0.0168
807.2955	-0.0108
807.4653	-0.0086
807.6351	-0.0101
807.8048	-0.0011
807.9746	-0.0066
808.1443	-0.0037
808.314	-0.0039
808.4837	0.0043
808.6533	-0.0007
808.8229	-0.0062
808.9926	-0.0047
809.1622	-0.0058
809.3317	0.0083
809.5013	-0.002
809.6708	-0.0006
809.8403	-0.0012
810.0098	-0.0045
810.1793	-0.0126
810.3488	0.0035
810.5182	-0.0024
810.6876	-0.0007
810.857	-0.0195
811.0264	-0.0122
811.1958	-0.0042
811.3651	-0.0066
811.5344	-0.0084
811.7037	-0.0148
811.873	-0.0089
812.0422	-0.0076
812.2115	-0.0029
812.3807	-0.0003
812.5499	-0.0094
812.7191	-0.0061
812.8882	0.002
813.0574	-0.0127
813.2265	-0.0052
813.3956	0.0039
813.5646	0.0009
813.7337	-0.0002
813.9027	-0.0148
814.0718	-0.0051
814.2407	0.007
814.4097	0.0016
814.5787	0.0027
814.7476	0.0004
814.9165	-0.0023
815.0854	0.0092
815.2543	-0.0031
815.4232	-0.0017
815.592	0.0026
815.7608	0.0066
815.9296	-0.0033
816.0984	-0.0068
816.2671	-0.0043
816.4359	-0.0006
816.6046	0.0192
816.7733	-0.0042
816.942	-0.0012
817.1106	-0.0161
817.2793	-0.0085
817.4479	-0.0028
817.6165	-0.0125
817.785	-0.0058
817.9536	0.0041
818.1221	0.0008
818.2906	-0.0038
818.4591	-0.0203
818.6276	-0.0094
818.7961	-0.0003
818.9645	-0.0129
819.1329	-0.0137
819.3013	-0.0042
819.4697	-0.0119
819.638	-0.0053
819.8064	-0.0042
819.9747	0.0066
820.143	-0.0046
820.3113	-0.0029
820.4795	0.0099
820.6477	-0.0023
820.816	0.0037
820.9842	0.0001
821.1523	-0.0184
821.3205	-0.0107
821.4886	-0.0162
821.6567	-0.0066
821.8248	-0.0098
821.9929	-0.0179
822.1609	-0.0011
822.329	-0.0034
822.497	-0.0132
822.665	-0.0127
822.833	-0.0233
823.0009	-0.014
823.1688	-0.0264
823.3367	-0.0086
823.5046	-0.0093
823.6725	-0.0148
823.8404	-0.0094
824.0082	-0.0244
824.176	-0.0031
824.3438	-0.0121
824.5116	0.0123
824.6793	-0.0102
824.847	-0.0125
825.0147	-0.003
825.1824	-0.0269
825.3501	-0.0041
825.5177	-0.0263
825.6854	0.005
825.853	-0.0054
826.0206	0.0074
826.1881	0.0012
826.3557	0.0001
826.5232	0.0001
826.6907	-0.0151
826.8582	0.0017
827.0257	-0.0162
827.1931	0.001
827.3605	0.0097
827.528	0.0049
827.6953	-0.0034
827.8627	-0.0133
828.03	-0.0176
828.1974	0.0004
828.3647	-0.0026
828.532	-0.0107
828.6992	-0.0111
828.8665	-0.0092
829.0337	-0.0087
829.2009	-0.0099
829.3681	-0.0207
829.5352	-0.0083
829.7024	-0.0198
829.8695	-0.0108
830.0366	-0.0252
830.2037	-0.0126
830.3707	-0.0218
830.5378	-0.0219
830.7048	-0.0257
830.8718	0.0028
831.0388	-0.0081
831.2057	0.0023
831.3727	-0.009
831.5396	-0.009
831.7065	0.007
831.8734	0.0058
832.0402	-0.0195
832.2071	0.0037
832.3739	-0.0003
832.5407	-0.0075
832.7075	-0.0144
832.8742	0.0018
833.041	-0.0018
833.2077	-0.0309
833.3744	-0.0018
833.541	0.0168
833.7077	-0.0003
833.8743	0.0045
834.0409	0.0071
834.2075	-0.005
834.3741	-0.0075
834.5407	0.0123
834.7072	-0.0103
834.8737	0.0012
835.0402	-0.0381
835.2067	-0.019
835.3731	-0.0272
835.5395	-0.0296
835.706	-0.0239
835.8723	-0.028
836.0387	-0.0287
836.2051	-0.0203
836.3714	0.0171
836.5377	0.0027
836.704	-0.0194
836.8703	-0.0174
837.0365	0.0115
837.2027	-0.0069
837.3689	-0.0214
837.5351	-0.0014
837.7013	-0.0014
837.8674	-0.0086
838.0335	-0.0122
838.1997	-0.0009
838.3657	0.0125
838.5318	-0.0095
838.6978	-0.0189
838.8639	0.0163
839.0299	-0.0074
839.1958	0.006
839.3618	0.0347
839.5277	-0.0139
839.6937	0.0202
839.8596	-0.008
840.0254	-0.012
840.1913	0.0092
840.3571	0.0007
840.523	-0.0072
840.6888	-0.0046
840.8545	-0.0261
841.0203	-0.0122
841.186	0.0005
841.3517	-0.0334
841.5174	-0.0212
841.6831	0.0061
841.8488	0.0169
842.0144	0.0264
842.18	0.007
842.3456	0.0074
842.5112	-0.0109
842.6767	-0.0161
842.8422	0.0224
843.0077	-0.0097
843.1732	-0.0158
843.3387	-0.0216
843.5042	0.0046
843.6696	-0.0032
843.835	-0.0121
844.0004	0.0015
844.1657	-0.01
844.3311	0.0221
844.4964	-0.0203
844.6617	0.002
844.827	-0.0261
844.9923	-0.0312
845.1575	0.0013
845.3227	-0.0234
845.4879	-0.0048
845.6531	0.001
845.8183	-0.0321
845.9834	-0.0365
846.1485	0.0073
846.3136	-0.0398
846.4787	-0.0141
846.6438	0.0056
846.8088	0.0302
846.9738	-0.0097
847.1388	-0.024
847.3038	0.0006
847.4687	-0.0036
847.6337	0.022
847.7986	0.0513
847.9635	0.0026
848.1284	-0.0002
848.2932	0.0108
848.458	-0.0054
848.6228	0.0023
848.7876	-0.0695
848.9524	0.007
849.1172	-0.0425
849.2819	0.0041
849.4466	-0.0048
849.6113	-0.0153
849.7759	-0.0212
849.9406	-0.013
850.1052	0.0158
850.2698	0.0087
850.4344	0.0271
850.599	-0.0503
850.7635	0.0003
850.928	0.0086
851.0925	0.0239
851.257	-0.0245
851.4215	0.0045
851.5859	0.0421
851.7503	0.0003
851.9147	-0.0391
852.0791	-0.0164
852.2434	0.0003
852.4078	0.0173
852.5721	-0.0144
852.7364	-0.0883
852.9007	0.0439
853.0649	0.0107
853.2291	-0.0288
853.3934	0.0114
853.5575	-0.0437
853.7217	-0.0162
853.8859	-0.0111
854.05	0.0027
854.2141	-0.041
854.3782	0.0112
854.5423	-0.038
854.7063	0.0261
854.8703	-0.0301
855.0343	0.0305
855.1983	0.0468
855.3623	-0.0142
855.5262	0.0244
855.6901	0.0174
855.854	0.0349
856.0179	0.0143
856.1818	-0.0316
856.3456	-0.0918
856.5094	0.0079
856.6732	-0.0525
856.837	-0.0258
857.0008	-0.0103
857.1645	0.0006
857.3282	-0.0612
857.4919	-0.0335
857.6556	0.0683
857.8192	-0.0238
857.9828	0.0421
858.1465	0.0411
858.31	0.002
858.4736	-0.1089
858.6372	-0.0006
858.8007	-0.0217
858.9642	-0.0713
859.1277	0.0199
859.2911	0.0071
859.4546	0.0101
859.618	-0.0566
859.7814	0.0174
859.9448	-0.1238
860.1081	-0.1215
860.2715	0.167
860.4348	-0.0356
860.5981	0.0196
860.7614	-0.1164
860.9246	-0.055
861.0879	-0.107
861.2511	0.0103
861.4143	-0.1533
861.5774	-0.0137
861.7406	-0.0225
861.9037	-0.1184
862.0668	-0.0583
862.2299	0.0491
862.393	-0.0427
862.556	0.0156
862.7191	-0.0619
862.8821	0.0229
863.0451	0.1103
863.208	-0.0131
863.371	0.1066
863.5339	-0.0332
863.6968	-0.1093
863.8597	0.0819
864.0225	-0.1773
864.1854	-0.0149
864.3482	-0.1598
864.511	-0.0556
864.6737	0.0343
864.8365	-0.0033
864.9992	-0.1472
865.1619	-0.1483
865.3246	-0.2011
865.4873	0.0196
865.65	-0.0445
865.8126	0.0677
865.9752	-0.1264
866.1378	-0.1333
866.3004	-0.0843
866.4629	0.0987
866.6254	0.032
866.7879	0.0363
866.9504	-0.2355
867.1129	-0.0582
867.2753	0.0762
867.4377	-0.1004
867.6001	-0.4091
867.7625	0.0998
867.9249	-0.0714
868.0872	-0.0968
868.2495	-0.1497
868.4118	-0.1833
868.5741	-0.0916
868.7363	0.0442
868.8986	0.0412
869.0608	-0.0752
869.223	-0.0958
869.3851	-0.1457
869.5473	-0.0679
869.7094	-0.0694
869.8715	0.0265
870.0336	-0.1856
870.1957	-0.0436
870.3577	-0.1643
870.5197	-0.2393
870.6817	-0.3413
870.8437	-0.0894
871.0057	-0.2784
871.1676	-0.1044
871.3295	0.1359
871.4914	-0.0019
871.6533	-0.1786
871.8151	-0.2043
871.977	0.1043
872.1388	-0.1587
872.3006	-0.1951
872.4623	-0.0135
872.6241	0.3928
872.7858	-0.1741
872.9475	-0.0584
873.1092	-0.1799
873.2709	-0.2477
873.4325	-0.286
873.5941	-0.1018
873.7557	-0.2173
873.9173	-0.1887
874.0789	-0.1286
874.2404	-0.2253
874.4019	-0.3712
874.5634	-0.1781
874.7249	-0.3844
874.8863	0.0913
875.0478	-0.112
875.2092	-0.1828
875.3706	0.0875
875.5319	0.0856
875.6933	-0.2701
875.8546	-0.3763
876.0159	0.0457
876.1772	-0.1911
876.3385	-0
876.4997	-0.2257
876.6609	-0.3362
876.8221	-0.1179
876.9833	-0.5424
877.1445	0.6599
877.3056	0.1741
877.4667	-0.986
877.6278	0.1318
877.7889	-0.0033
877.9499	-0.6781
878.111	-0.1551
878.272	-0.0939
878.433	0.0988
878.5939	0.0514
878.7549	-0.5674
878.9158	0.129
879.0767	-0.0854
879.2376	0.1571
879.3984	-0.2333
879.5593	-0.5073
879.7201	-0
879.8809	0.0744
880.0417	-0.1713
880.2024	0.0332
880.3632	-0.4077
880.5239	-0
880.6846	-0.4851
880.8452	0.129
881.0059	-0.4922
881.1665	-0
881.3271	-0.1449
881.4877	0.0116
881.6483	-0
881.8088	0.1667
881.9693	-0.0219
882.1298	-0.0219
882.2903	-0.0219
