Data from MonoPyChalIsomerACN10uM450nmA_Absorbance_13-11-22-291.txt Node
Date: Tue Jul 09 13:11:22 BST 2024
User: LASERRRRR
Spectrometer: FLMT03099
Trigger mode: 0
Integration Time (sec): 2.000000E-1
Scans to average: 1
Electric dark correction enabled: true
Nonlinearity correction enabled: false
Boxcar width: 0
XAxis mode: Wavelengths
Number of Pixels in Spectrum: 3648
>>>>>Begin Spectral Data<<<<<
179.3399	0.1029
179.5586	0.1029
179.7771	0.1029
179.9957	0.0559
180.2143	-0
180.4329	0.1625
180.6514	-0
180.8699	-0
181.0885	-0
181.307	-0
181.5255	-0
181.744	-0.2949
181.9625	-0
182.181	-0
182.3994	0.263
182.6179	-0.3126
182.8363	-0
183.0547	0.1915
183.2732	0.1202
183.4916	0.1142
183.71	0.0268
183.9284	-0.03
184.1467	0.0378
184.3651	0.0363
184.5835	0.042
184.8018	0.008
185.0201	0.0956
185.2385	-0.0718
185.4568	-0.1351
185.6751	0.097
185.8934	0.0737
186.1117	-0.0327
186.3299	-0.0009
186.5482	-0.0615
186.7664	0.0478
186.9847	0.1634
187.2029	0.0355
187.4211	0.0551
187.6393	0.0224
187.8575	0.0848
188.0757	-0.0377
188.2939	0.0205
188.512	0.0091
188.7302	0.1319
188.9483	0.0905
189.1665	0.1205
189.3846	0.1046
189.6027	0.023
189.8208	0.1229
190.0389	0.2624
190.257	0.2495
190.475	0.2078
190.6931	0.1454
190.9111	0.2167
191.1292	0.2121
191.3472	0.2945
191.5652	0.3512
191.7832	0.3899
192.0012	0.6131
192.2192	0.4311
192.4371	0.5266
192.6551	0.3065
192.873	0.4141
193.091	0.4537
193.3089	0.42
193.5268	0.5359
193.7447	0.493
193.9626	0.4982
194.1805	0.557
194.3984	0.5369
194.6162	0.6436
194.8341	0.5818
195.0519	0.6836
195.2697	0.5546
195.4875	0.6356
195.7054	0.6636
195.9231	0.5831
196.1409	0.6382
196.3587	0.6273
196.5765	0.6822
196.7942	0.6971
197.012	0.5893
197.2297	0.7749
197.4474	0.7651
197.6651	0.746
197.8828	0.7843
198.1005	0.8352
198.3182	0.6662
198.5358	0.8964
198.7535	0.7861
198.9711	0.8616
199.1888	0.7422
199.4064	0.9537
199.624	0.7649
199.8416	0.795
200.0592	0.7686
200.2767	0.7753
200.4943	0.82
200.7119	0.8362
200.9294	0.93
201.1469	0.7857
201.3645	0.8494
201.582	0.9344
201.7995	0.7229
202.017	0.8509
202.2344	0.7625
202.4519	0.8679
202.6694	0.839
202.8868	0.8882
203.1042	0.9716
203.3217	1.1088
203.5391	0.9045
203.7565	0.9639
203.9739	0.9239
204.1913	0.8341
204.4086	0.8904
204.626	0.8968
204.8433	0.8582
205.0607	0.9743
205.278	0.8909
205.4953	0.9985
205.7126	0.9099
205.9299	1.0182
206.1472	0.9145
206.3644	0.9288
206.5817	1.0146
206.7989	0.9535
207.0162	0.9905
207.2334	0.8855
207.4506	0.9974
207.6678	1.1216
207.885	1.1266
208.1022	1.0012
208.3194	1.0567
208.5365	1.0005
208.7537	1.0137
208.9708	1.0423
209.1879	1.2042
209.405	1.0158
209.6222	1.0169
209.8392	1.034
210.0563	1.0297
210.2734	1.1466
210.4905	1.0963
210.7075	1.0038
210.9245	1.0635
211.1416	1.0851
211.3586	1.0712
211.5756	1.1521
211.7926	1.0067
212.0096	1.0282
212.2265	1.0248
212.4435	1.014
212.6604	1.051
212.8774	1.0253
213.0943	1.0185
213.3112	0.9508
213.5281	1.049
213.745	0.9848
213.9619	0.9821
214.1788	0.976
214.3956	0.9694
214.6125	0.9367
214.8293	0.8709
215.0461	0.8867
215.2629	0.9205
215.4798	0.8758
215.6965	0.8299
215.9133	0.8736
216.1301	0.792
216.3469	0.8218
216.5636	0.7608
216.7803	0.7779
216.9971	0.796
217.2138	0.7533
217.4305	0.676
217.6472	0.6638
217.8639	0.6341
218.0805	0.6232
218.2972	0.5517
218.5138	0.5409
218.7305	0.5173
218.9471	0.4792
219.1637	0.4385
219.3803	0.4374
219.5969	0.4
219.8135	0.3751
220.0301	0.3618
220.2466	0.3644
220.4632	0.32
220.6797	0.322
220.8962	0.314
221.1127	0.3035
221.3292	0.2991
221.5457	0.2908
221.7622	0.2829
221.9787	0.2764
222.1951	0.2734
222.4116	0.2787
222.628	0.2797
222.8444	0.282
223.0608	0.2744
223.2772	0.2632
223.4936	0.2668
223.71	0.2657
223.9264	0.2682
224.1427	0.2657
224.3591	0.2833
224.5754	0.2717
224.7917	0.2819
225.008	0.2746
225.2243	0.2742
225.4406	0.2759
225.6569	0.2737
225.8732	0.287
226.0894	0.2859
226.3057	0.29
226.5219	0.2836
226.7381	0.2776
226.9543	0.2875
227.1705	0.2961
227.3867	0.3112
227.6029	0.311
227.8191	0.3008
228.0352	0.3104
228.2513	0.311
228.4675	0.3092
228.6836	0.3229
228.8997	0.2999
229.1158	0.3137
229.3319	0.3175
229.548	0.3221
229.764	0.32
229.9801	0.3287
230.1961	0.3284
230.4121	0.3318
230.6282	0.3499
230.8442	0.3463
231.0602	0.3368
231.2761	0.3375
231.4921	0.3464
231.7081	0.3599
231.924	0.3738
232.14	0.38
232.3559	0.3646
232.5718	0.3653
232.7877	0.3597
233.0036	0.3669
233.2195	0.3676
233.4353	0.3583
233.6512	0.3742
233.867	0.3808
234.0829	0.3717
234.2987	0.3884
234.5145	0.3693
234.7303	0.3831
234.9461	0.3918
235.1619	0.3841
235.3776	0.3802
235.5934	0.399
235.8091	0.3893
236.0249	0.3866
236.2406	0.4051
236.4563	0.3817
236.672	0.4022
236.8877	0.3969
237.1034	0.4042
237.319	0.4121
237.5347	0.4058
237.7503	0.4025
237.966	0.4087
238.1816	0.4081
238.3972	0.4117
238.6128	0.4177
238.8284	0.4161
239.0439	0.417
239.2595	0.4233
239.475	0.404
239.6906	0.4239
239.9061	0.4145
240.1216	0.4271
240.3371	0.4144
240.5526	0.4274
240.7681	0.4208
240.9836	0.4064
241.199	0.4131
241.4145	0.4002
241.6299	0.4023
241.8453	0.4013
242.0607	0.3925
242.2761	0.3866
242.4915	0.3818
242.7069	0.3769
242.9223	0.3735
243.1376	0.3766
243.353	0.3521
243.5683	0.3696
243.7836	0.3391
243.9989	0.3421
244.2142	0.3394
244.4295	0.3239
244.6448	0.3351
244.86	0.3237
245.0753	0.3041
245.2905	0.3088
245.5057	0.2977
245.721	0.2968
245.9362	0.2791
246.1514	0.2847
246.3665	0.293
246.5817	0.2766
246.7969	0.2778
247.012	0.2712
247.2271	0.2638
247.4423	0.2602
247.6574	0.2622
247.8725	0.2584
248.0876	0.2498
248.3026	0.2534
248.5177	0.2421
248.7328	0.2376
248.9478	0.2456
249.1628	0.2371
249.3779	0.2346
249.5929	0.2174
249.8079	0.2324
250.0228	0.222
250.2378	0.2307
250.4528	0.2232
250.6677	0.2218
250.8827	0.2142
251.0976	0.2073
251.3125	0.2151
251.5274	0.1988
251.7423	0.2069
251.9572	0.2098
252.172	0.2094
252.3869	0.2046
252.6017	0.2087
252.8166	0.2064
253.0314	0.2062
253.2462	0.2122
253.461	0.202
253.6758	0.2036
253.8906	0.2014
254.1053	0.1989
254.3201	0.2002
254.5348	0.2071
254.7496	0.2046
254.9643	0.1992
255.179	0.1959
255.3937	0.2022
255.6083	0.1992
255.823	0.1969
256.0377	0.1909
256.2523	0.1987
256.467	0.1927
256.6816	0.1947
256.8962	0.2002
257.1108	0.1943
257.3254	0.196
257.54	0.1943
257.7545	0.1909
257.9691	0.2019
258.1836	0.1927
258.3981	0.2008
258.6127	0.1999
258.8272	0.1906
259.0417	0.1935
259.2561	0.1932
259.4706	0.197
259.6851	0.1877
259.8995	0.1852
260.114	0.1905
260.3284	0.1959
260.5428	0.1951
260.7572	0.2023
260.9716	0.1942
261.186	0.1975
261.4003	0.1982
261.6147	0.1981
261.829	0.1949
262.0433	0.1926
262.2577	0.2017
262.472	0.2037
262.6863	0.185
262.9005	0.1941
263.1148	0.1914
263.3291	0.1897
263.5433	0.191
263.7576	0.1856
263.9718	0.1855
264.186	0.187
264.4002	0.1846
264.6144	0.1863
264.8286	0.1796
265.0427	0.1798
265.2569	0.1827
265.471	0.1805
265.6851	0.1799
265.8993	0.1774
266.1134	0.1702
266.3275	0.1793
266.5415	0.1791
266.7556	0.1828
266.9697	0.1753
267.1837	0.1805
267.3978	0.1948
267.6118	0.1947
267.8258	0.1858
268.0398	0.1882
268.2538	0.1876
268.4677	0.1917
268.6817	0.1916
268.8957	0.1929
269.1096	0.1897
269.3235	0.1841
269.5374	0.1788
269.7514	0.1644
269.9652	0.1616
270.1791	0.1584
270.393	0.1584
270.6068	0.149
270.8207	0.1437
271.0345	0.1545
271.2483	0.156
271.4622	0.1578
271.676	0.1464
271.8897	0.1398
272.1035	0.1402
272.3173	0.1512
272.531	0.1474
272.7448	0.1359
272.9585	0.1367
273.1722	0.1272
273.3859	0.1422
273.5996	0.1334
273.8133	0.1433
274.0269	0.139
274.2406	0.136
274.4542	0.1435
274.6679	0.1385
274.8815	0.1433
275.0951	0.1381
275.3087	0.1372
275.5223	0.1376
275.7358	0.1488
275.9494	0.1447
276.1629	0.1446
276.3765	0.1438
276.59	0.1479
276.8035	0.1388
277.017	0.1417
277.2305	0.1431
277.444	0.1333
277.6574	0.1442
277.8709	0.1473
278.0843	0.1515
278.2978	0.1469
278.5112	0.1523
278.7246	0.1432
278.938	0.1504
279.1513	0.1508
279.3647	0.1483
279.5781	0.1412
279.7914	0.1519
280.0047	0.1451
280.2181	0.1525
280.4314	0.1475
280.6447	0.1513
280.8579	0.1514
281.0712	0.1538
281.2845	0.1504
281.4977	0.1509
281.711	0.1508
281.9242	0.1508
282.1374	0.1505
282.3506	0.1434
282.5638	0.1513
282.7769	0.1574
282.9901	0.1555
283.2033	0.1616
283.4164	0.1557
283.6295	0.1545
283.8426	0.1552
284.0557	0.1534
284.2688	0.1551
284.4819	0.1555
284.695	0.1628
284.908	0.1619
285.1211	0.162
285.3341	0.1606
285.5471	0.1549
285.7601	0.1522
285.9731	0.154
286.1861	0.1639
286.3991	0.1642
286.612	0.158
286.825	0.1581
287.0379	0.1534
287.2508	0.1548
287.4637	0.1588
287.6766	0.1489
287.8895	0.1579
288.1024	0.1573
288.3152	0.1571
288.5281	0.1592
288.7409	0.1573
288.9538	0.1578
289.1666	0.1613
289.3794	0.165
289.5922	0.1648
289.8049	0.1594
290.0177	0.163
290.2304	0.1626
290.4432	0.1597
290.6559	0.1624
290.8686	0.157
291.0813	0.169
291.294	0.1631
291.5067	0.1509
291.7194	0.161
291.932	0.1631
292.1447	0.161
292.3573	0.1592
292.5699	0.1623
292.7825	0.1676
292.9951	0.1657
293.2077	0.1571
293.4203	0.1632
293.6328	0.1696
293.8454	0.1592
294.0579	0.1614
294.2704	0.1619
294.4829	0.1597
294.6954	0.1642
294.9079	0.1651
295.1204	0.1563
295.3328	0.167
295.5453	0.1512
295.7577	0.1548
295.9701	0.1587
296.1825	0.1617
296.3949	0.1529
296.6073	0.1635
296.8197	0.1606
297.0321	0.1548
297.2444	0.1561
297.4567	0.1552
297.6691	0.1582
297.8814	0.1583
298.0937	0.1678
298.306	0.158
298.5182	0.1511
298.7305	0.1569
298.9428	0.1548
299.155	0.1588
299.3672	0.1586
299.5794	0.1626
299.7916	0.1571
300.0038	0.1549
300.216	0.1651
300.4282	0.16
300.6403	0.1526
300.8525	0.157
301.0646	0.1512
301.2767	0.1554
301.4888	0.1469
301.7009	0.1581
301.913	0.1682
302.125	0.151
302.3371	0.1675
302.5491	0.1519
302.7612	0.1615
302.9732	0.1586
303.1852	0.1539
303.3972	0.1592
303.6092	0.1611
303.8211	0.161
304.0331	0.1524
304.245	0.1539
304.457	0.1571
304.6689	0.1512
304.8808	0.1532
305.0927	0.1474
305.3046	0.1456
305.5164	0.1512
305.7283	0.1544
305.9401	0.1598
306.152	0.1525
306.3638	0.1585
306.5756	0.1381
306.7874	0.1442
306.9992	0.1369
307.2109	0.1346
307.4227	0.1368
307.6344	0.1279
307.8462	0.1361
308.0579	0.1347
308.2696	0.1304
308.4813	0.1318
308.693	0.1303
308.9046	0.1236
309.1163	0.1163
309.328	0.1204
309.5396	0.1238
309.7512	0.1266
309.9628	0.1241
310.1744	0.1301
310.386	0.1106
310.5976	0.1153
310.8091	0.1147
311.0207	0.1152
311.2322	0.1151
311.4437	0.1175
311.6552	0.1118
311.8667	0.1139
312.0782	0.1089
312.2897	0.1005
312.5012	0.1097
312.7126	0.102
312.924	0.1007
313.1355	0.1012
313.3469	0.1072
313.5583	0.098
313.7696	0.0991
313.981	0.1001
314.1924	0.0979
314.4037	0.1014
314.6151	0.0926
314.8264	0.1013
315.0377	0.1029
315.249	0.1011
315.4603	0.102
315.6716	0.0973
315.8828	0.0951
316.0941	0.0966
316.3053	0.0957
316.5165	0.0891
316.7277	0.0955
316.9389	0.0995
317.1501	0.0938
317.3613	0.0926
317.5724	0.0964
317.7836	0.091
317.9947	0.1003
318.2058	0.0967
318.417	0.0869
318.6281	0.0907
318.8391	0.0868
319.0502	0.0955
319.2613	0.0998
319.4723	0.0933
319.6834	0.0889
319.8944	0.0981
320.1054	0.0905
320.3164	0.0922
320.5274	0.0959
320.7383	0.0928
320.9493	0.0937
321.1602	0.0946
321.3712	0.1048
321.5821	0.0959
321.793	0.0926
322.0039	0.0964
322.2148	0.0963
322.4257	0.0962
322.6365	0.0935
322.8474	0.0923
323.0582	0.106
323.269	0.0961
323.4798	0.096
323.6906	0.0964
323.9014	0.0983
324.1122	0.1002
324.3229	0.0904
324.5337	0.0936
324.7444	0.0934
324.9551	0.0976
325.1658	0.0954
325.3765	0.0989
325.5872	0.0945
325.7979	0.1037
326.0085	0.1028
326.2192	0.1006
326.4298	0.1006
326.6404	0.0978
326.851	0.0989
327.0616	0.0987
327.2722	0.0988
327.4828	0.1015
327.6933	0.097
327.9039	0.1066
328.1144	0.098
328.3249	0.1074
328.5354	0.0982
328.7459	0.1004
328.9564	0.1024
329.1669	0.101
329.3773	0.1006
329.5878	0.1044
329.7982	0.0999
330.0086	0.107
330.219	0.1019
330.4294	0.0976
330.6398	0.1072
330.8502	0.1084
331.0605	0.1019
331.2708	0.105
331.4812	0.1071
331.6915	0.1013
331.9018	0.1059
332.1121	0.1058
332.3224	0.1033
332.5326	0.1026
332.7429	0.1011
332.9531	0.1003
333.1633	0.113
333.3735	0.1113
333.5837	0.1016
333.7939	0.1066
334.0041	0.0969
334.2143	0.1022
334.4244	0.1011
334.6346	0.1062
334.8447	0.1163
335.0548	0.1068
335.2649	0.0978
335.475	0.1048
335.685	0.1032
335.8951	0.1012
336.1051	0.0941
336.3152	0.1021
336.5252	0.1008
336.7352	0.1027
336.9452	0.1018
337.1552	0.1055
337.3652	0.1153
337.5751	0.1088
337.7851	0.1008
337.995	0.1152
338.2049	0.1014
338.4148	0.1089
338.6247	0.1129
338.8346	0.1096
339.0445	0.1052
339.2543	0.1111
339.4642	0.1118
339.674	0.1044
339.8838	0.1056
340.0936	0.1084
340.3034	0.1229
340.5132	0.1121
340.7229	0.1174
340.9327	0.1136
341.1424	0.1135
341.3522	0.1083
341.5619	0.1219
341.7716	0.1225
341.9813	0.1227
342.1909	0.121
342.4006	0.1154
342.6102	0.1142
342.8199	0.1202
343.0295	0.1135
343.2391	0.1196
343.4487	0.1189
343.6583	0.1255
343.8679	0.1158
344.0774	0.1224
344.287	0.1247
344.4965	0.1222
344.706	0.1317
344.9155	0.1244
345.125	0.134
345.3345	0.127
345.544	0.1216
345.7534	0.1136
345.9629	0.1211
346.1723	0.1242
346.3817	0.1292
346.5911	0.1331
346.8005	0.123
347.0099	0.1193
347.2193	0.1308
347.4286	0.1343
347.638	0.1315
347.8473	0.1248
348.0566	0.1375
348.2659	0.1236
348.4752	0.1319
348.6845	0.1322
348.8937	0.1384
349.103	0.138
349.3122	0.1347
349.5214	0.1417
349.7306	0.1286
349.9398	0.1275
350.149	0.1349
350.3582	0.1344
350.5674	0.1394
350.7765	0.1329
350.9856	0.133
351.1948	0.1419
351.4039	0.1403
351.613	0.1354
351.822	0.1451
352.0311	0.1404
352.2402	0.1423
352.4492	0.1392
352.6582	0.1357
352.8672	0.1433
353.0762	0.1545
353.2852	0.1522
353.4942	0.1428
353.7032	0.1472
353.9121	0.1441
354.1211	0.1497
354.33	0.1483
354.5389	0.1483
354.7478	0.1431
354.9567	0.1463
355.1655	0.1485
355.3744	0.1599
355.5833	0.1513
355.7921	0.1464
356.0009	0.153
356.2097	0.1515
356.4185	0.1494
356.6273	0.1608
356.8361	0.1443
357.0448	0.1556
357.2536	0.157
357.4623	0.1558
357.671	0.1561
357.8797	0.1717
358.0884	0.1644
358.2971	0.1674
358.5057	0.1638
358.7144	0.1635
358.923	0.1668
359.1316	0.1634
359.3402	0.1775
359.5488	0.1652
359.7574	0.172
359.966	0.1773
360.1746	0.173
360.3831	0.1821
360.5916	0.1824
360.8002	0.1783
361.0087	0.1733
361.2172	0.1785
361.4256	0.1785
361.6341	0.1692
361.8426	0.1825
362.051	0.1737
362.2594	0.1722
362.4678	0.1751
362.6762	0.1781
362.8846	0.1847
363.093	0.1797
363.3014	0.1906
363.5097	0.1798
363.718	0.1947
363.9264	0.1888
364.1347	0.1862
364.343	0.1745
364.5513	0.1855
364.7595	0.192
364.9678	0.1968
365.176	0.1956
365.3842	0.1871
365.5925	0.1968
365.8007	0.1886
366.0089	0.2009
366.217	0.1955
366.4252	0.1998
366.6333	0.1864
366.8415	0.1896
367.0496	0.1989
367.2577	0.1979
367.4658	0.2029
367.6739	0.206
367.882	0.1973
368.09	0.2039
368.2981	0.207
368.5061	0.202
368.7141	0.2028
368.9221	0.2049
369.1301	0.2111
369.3381	0.219
369.5461	0.2232
369.754	0.2137
369.962	0.2027
370.1699	0.2175
370.3778	0.218
370.5857	0.2139
370.7936	0.2049
371.0015	0.2192
371.2093	0.1944
371.4172	0.2189
371.625	0.2181
371.8328	0.2296
372.0406	0.2311
372.2484	0.2179
372.4562	0.2265
372.664	0.224
372.8717	0.2199
373.0795	0.2191
373.2872	0.2272
373.4949	0.2174
373.7026	0.2215
373.9103	0.2169
374.118	0.2324
374.3256	0.2178
374.5333	0.2184
374.7409	0.2297
374.9485	0.2204
375.1561	0.2273
375.3637	0.2285
375.5713	0.2247
375.7789	0.2282
375.9864	0.2283
376.194	0.227
376.4015	0.2379
376.609	0.2309
376.8165	0.2107
377.024	0.2178
377.2315	0.229
377.4389	0.227
377.6464	0.2342
377.8538	0.229
378.0612	0.2319
378.2686	0.2298
378.476	0.2366
378.6834	0.2447
378.8908	0.2405
379.0981	0.2517
379.3055	0.2455
379.5128	0.2351
379.7201	0.2371
379.9274	0.2427
380.1347	0.2398
380.342	0.242
380.5492	0.2472
380.7565	0.247
380.9637	0.2475
381.1709	0.2491
381.3781	0.2328
381.5853	0.2438
381.7925	0.249
381.9997	0.2464
382.2068	0.2469
382.4139	0.2406
382.6211	0.2351
382.8282	0.2441
383.0353	0.2571
383.2424	0.2517
383.4494	0.248
383.6565	0.249
383.8635	0.2634
384.0706	0.2462
384.2776	0.2513
384.4846	0.2349
384.6916	0.2617
384.8986	0.2495
385.1055	0.2572
385.3125	0.253
385.5194	0.2568
385.7263	0.2557
385.9333	0.2617
386.1402	0.2536
386.347	0.2553
386.5539	0.2578
386.7608	0.2508
386.9676	0.247
387.1744	0.2547
387.3813	0.2436
387.5881	0.2423
387.7948	0.2408
388.0016	0.2483
388.2084	0.2559
388.4151	0.2485
388.6219	0.245
388.8286	0.2564
389.0353	0.2532
389.242	0.2602
389.4487	0.2384
389.6553	0.2472
389.862	0.2269
390.0686	0.2346
390.2753	0.2422
390.4819	0.2343
390.6885	0.2472
390.8951	0.2493
391.1016	0.2446
391.3082	0.2416
391.5147	0.2301
391.7213	0.2238
391.9278	0.2239
392.1343	0.236
392.3408	0.2178
392.5473	0.2327
392.7537	0.2384
392.9602	0.2372
393.1666	0.2342
393.373	0.2214
393.5794	0.2284
393.7858	0.2249
393.9922	0.2195
394.1986	0.218
394.4049	0.2302
394.6113	0.2252
394.8176	0.2106
395.0239	0.2199
395.2302	0.2148
395.4365	0.2146
395.6428	0.2208
395.8491	0.213
396.0553	0.2196
396.2615	0.2159
396.4678	0.2309
396.674	0.2082
396.8802	0.2138
397.0863	0.2164
397.2925	0.2143
397.4987	0.2119
397.7048	0.2072
397.9109	0.218
398.117	0.2144
398.3231	0.2081
398.5292	0.206
398.7353	0.2008
398.9413	0.2169
399.1474	0.2099
399.3534	0.2066
399.5594	0.2058
399.7654	0.2124
399.9714	0.2013
400.1774	0.1958
400.3833	0.2112
400.5893	0.2081
400.7952	0.2052
401.0011	0.2165
401.207	0.2093
401.4129	0.1917
401.6188	0.1818
401.8247	0.2023
402.0305	0.2016
402.2364	0.2158
402.4422	0.2157
402.648	0.2141
402.8538	0.2181
403.0596	0.1923
403.2654	0.2035
403.4711	0.2013
403.6768	0.2253
403.8826	0.2144
404.0883	0.2101
404.294	0.2098
404.4997	0.2056
404.7054	0.2075
404.911	0.2057
405.1167	0.2153
405.3223	0.2102
405.5279	0.2079
405.7335	0.2031
405.9391	0.2011
406.1447	0.2067
406.3502	0.1988
406.5558	0.1933
406.7613	0.2072
406.9668	0.2055
407.1724	0.2048
407.3778	0.2155
407.5833	0.1982
407.7888	0.2149
407.9942	0.2129
408.1997	0.2125
408.4051	0.2131
408.6105	0.2076
408.8159	0.2147
409.0213	0.2049
409.2267	0.2036
409.432	0.2235
409.6374	0.2121
409.8427	0.211
410.048	0.2113
410.2533	0.2055
410.4586	0.2092
410.6639	0.1977
410.8691	0.2077
411.0744	0.2
411.2796	0.2158
411.4848	0.2028
411.69	0.2148
411.8952	0.2027
412.1004	0.1989
412.3056	0.2066
412.5107	0.2082
412.7158	0.1912
412.921	0.1927
413.1261	0.1975
413.3312	0.2088
413.5362	0.2044
413.7413	0.2051
413.9464	0.1949
414.1514	0.1887
414.3564	0.2011
414.5614	0.2051
414.7664	0.2029
414.9714	0.1971
415.1764	0.194
415.3813	0.2106
415.5863	0.2065
415.7912	0.2108
415.9961	0.1968
416.201	0.208
416.4059	0.2016
416.6108	0.201
416.8156	0.1911
417.0205	0.2044
417.2253	0.1973
417.4301	0.205
417.6349	0.2003
417.8397	0.1901
418.0445	0.2042
418.2492	0.194
418.454	0.1992
418.6587	0.2023
418.8634	0.198
419.0681	0.195
419.2728	0.2027
419.4775	0.2042
419.6822	0.1952
419.8868	0.1885
420.0915	0.2015
420.2961	0.1958
420.5007	0.1885
420.7053	0.1836
420.9099	0.1826
421.1144	0.192
421.319	0.1803
421.5235	0.1929
421.728	0.1858
421.9325	0.181
422.137	0.18
422.3415	0.1974
422.546	0.1765
422.7504	0.195
422.9549	0.1874
423.1593	0.1879
423.3637	0.1803
423.5681	0.1833
423.7725	0.1755
423.9769	0.1762
424.1812	0.1803
424.3856	0.1741
424.5899	0.1827
424.7942	0.1724
424.9985	0.1799
425.2028	0.168
425.4071	0.1667
425.6113	0.1689
425.8156	0.167
426.0198	0.1645
426.224	0.1486
426.4282	0.1616
426.6324	0.1655
426.8366	0.1652
427.0407	0.1643
427.2449	0.1668
427.449	0.1551
427.6531	0.1628
427.8572	0.1615
428.0613	0.1541
428.2654	0.1453
428.4694	0.1634
428.6735	0.1606
428.8775	0.1483
429.0815	0.1475
429.2855	0.1587
429.4895	0.1469
429.6935	0.1516
429.8975	0.1577
430.1014	0.1413
430.3053	0.1385
430.5093	0.1427
430.7132	0.1443
430.9171	0.1406
431.1209	0.142
431.3248	0.1368
431.5286	0.1377
431.7325	0.1277
431.9363	0.1423
432.1401	0.1344
432.3439	0.1281
432.5477	0.127
432.7514	0.1309
432.9552	0.1123
433.1589	0.1234
433.3627	0.1249
433.5664	0.1239
433.7701	0.1125
433.9737	0.1045
434.1774	0.1157
434.3811	0.1035
434.5847	0.1203
434.7883	0.1127
434.9919	0.1088
435.1955	0.0965
435.3991	0.0956
435.6027	0.1059
435.8062	0.1015
436.0098	0.1003
436.2133	0.1005
436.4168	0.1101
436.6203	0.1037
436.8238	0.0936
437.0272	0.0912
437.2307	0.0976
437.4341	0.1003
437.6375	0.0943
437.841	0.0907
438.0443	0.0795
438.2477	0.0872
438.4511	0.0846
438.6545	0.0788
438.8578	0.083
439.0611	0.0799
439.2644	0.0905
439.4677	0.0799
439.671	0.0768
439.8743	0.0803
440.0775	0.0641
440.2808	0.0637
440.484	0.0686
440.6872	0.0633
440.8904	0.0675
441.0936	0.0645
441.2967	0.071
441.4999	0.0652
441.703	0.0607
441.9062	0.0699
442.1093	0.0606
442.3124	0.0705
442.5155	0.062
442.7185	0.0475
442.9216	0.0598
443.1246	0.0577
443.3276	0.0635
443.5307	0.046
443.7337	0.0497
443.9366	0.0571
444.1396	0.0477
444.3426	0.0537
444.5455	0.0432
444.7484	0.0478
444.9513	0.0414
445.1542	0.0466
445.3571	0.0478
445.56	0.0524
445.7628	0.0404
445.9657	0.049
446.1685	0.0377
446.3713	0.0415
446.5741	0.0445
446.7769	0.038
446.9797	0.0357
447.1824	0.0379
447.3852	0.045
447.5879	0.0328
447.7906	0.0336
447.9933	0.0348
448.196	0.0375
448.3986	0.0265
448.6013	0.025
448.8039	0.025
449.0066	0.0366
449.2092	0.0275
449.4118	0.0273
449.6143	0.0249
449.8169	0.0205
450.0195	0.0187
450.222	0.0096
450.4245	0.0242
450.627	0.017
450.8295	0.0206
451.032	0.0306
451.2345	0.0206
451.4369	0.0254
451.6394	0.0207
451.8418	0.0167
452.0442	0.013
452.2466	0.016
452.449	0.0219
452.6513	0.0298
452.8537	0.0287
453.056	0.0148
453.2583	0.0127
453.4607	0.0197
453.663	0.0149
453.8652	0.0171
454.0675	0.0144
454.2697	0.0143
454.472	0.0087
454.6742	0.0174
454.8764	0.0153
455.0786	0.026
455.2808	0.003
455.4829	0.0082
455.6851	0.007
455.8872	0.007
456.0893	0.0086
456.2915	0.0047
456.4935	0.0075
456.6956	0.0068
456.8977	0.0088
457.0997	0.0047
457.3018	0.0031
457.5038	0.0019
457.7058	0.0004
457.9078	0.0018
458.1098	0.0044
458.3117	0.0125
458.5137	0.0111
458.7156	0.0052
458.9175	-0.0048
459.1194	0.0062
459.3213	0.0035
459.5232	0.0048
459.725	-0.0019
459.9269	0.0083
460.1287	0.0021
460.3305	0.0041
460.5323	0.0152
460.7341	0.0072
460.9359	0.0001
461.1376	0.0062
461.3394	-0.0012
461.5411	0.0067
461.7428	-0.0044
461.9445	0.0021
462.1462	0.0028
462.3479	0.0007
462.5495	0.0101
462.7512	-0.0005
462.9528	-0.0029
463.1544	0.0089
463.356	-0.0011
463.5576	-0.003
463.7592	-0.0029
463.9607	-0.0064
464.1623	-0.0001
464.3638	-0.0018
464.5653	0.0041
464.7668	0.0008
464.9683	0.0038
465.1697	-0.0002
465.3712	0.0044
465.5726	-0.0058
465.7741	-0.0086
465.9755	-0.009
466.1769	-0.0108
466.3782	-0.0044
466.5796	-0.0091
466.7809	-0.0107
466.9823	0.0027
467.1836	0.0058
467.3849	-0.0006
467.5862	-0.0065
467.7875	-0
467.9887	0.0002
468.19	-0.0101
468.3912	-0.005
468.5924	0.0004
468.7936	-0.0147
468.9948	0.0096
469.196	-0.0098
469.3972	0.0007
469.5983	0.0111
469.7994	0.0001
470.0006	-0.0105
470.2017	-0.0033
470.4027	-0.0013
470.6038	-0.0014
470.8049	-0.0112
471.0059	-0.0092
471.2069	0.0065
471.408	0.0045
471.6089	-0.0079
471.8099	-0.0026
472.0109	-0.0025
472.2119	-0.0161
472.4128	-0.0037
472.6137	-0.0077
472.8146	-0.0141
473.0155	-0.0024
473.2164	-0.0128
473.4173	-0.0119
473.6181	-0.0013
473.819	-0.0061
474.0198	-0.0009
474.2206	0.0016
474.4214	0.005
474.6222	-0.0059
474.8229	-0.0053
475.0237	-0.0049
475.2244	-0.0048
475.4251	-0.0047
475.6258	0.0032
475.8265	-0.0033
476.0272	-0.0018
476.2278	0.008
476.4285	-0.0023
476.6291	0.0021
476.8297	-0.0046
477.0303	-0.0116
477.2309	-0.0018
477.4315	0.0026
477.632	-0.012
477.8326	-0.0054
478.0331	0.002
478.2336	-0.0051
478.4341	-0.0057
478.6346	-0.0027
478.8351	-0.0131
479.0355	-0.0085
479.236	-0.0027
479.4364	-0.0059
479.6368	0.0023
479.8372	-0.0015
480.0376	-0.0059
480.2379	-0.0025
480.4383	0.0043
480.6386	-0.0089
480.8389	-0.0127
481.0392	-0.0086
481.2395	-0.0115
481.4398	0.0009
481.6401	-0.0104
481.8403	-0.0069
482.0405	-0.0096
482.2408	-0.0008
482.441	-0.0124
482.6411	0.007
482.8413	-0.0074
483.0415	-0.0042
483.2416	-0
483.4417	-0.0071
483.6419	0.0009
483.8419	-0.0078
484.042	-0.0019
484.2421	-0.0089
484.4422	-0.0057
484.6422	-0.0102
484.8422	-0.012
485.0422	-0.0054
485.2422	-0.004
485.4422	-0.0111
485.6422	-0.0056
485.8421	-0.0037
486.042	-0.0066
486.242	-0.0113
486.4419	-0.0084
486.6417	-0.0092
486.8416	-0.0014
487.0415	-0.0033
487.2413	-0.0059
487.4411	0.0009
487.641	-0.0039
487.8408	-0.0054
488.0405	0.001
488.2403	-0.0048
488.4401	-0.0067
488.6398	-0.0103
488.8395	-0.0102
489.0392	-0.0069
489.2389	-0.0071
489.4386	-0.0053
489.6383	-0.0031
489.8379	-0.0068
490.0376	-0.0065
490.2372	-0.007
490.4368	-0.0166
490.6364	-0.0023
490.836	-0.0129
491.0355	0.0025
491.2351	-0.0102
491.4346	-0.0053
491.6341	-0.0052
491.8336	-0.0072
492.0331	-0.0005
492.2326	-0.0079
492.432	-0.0033
492.6315	-0.0095
492.8309	-0.002
493.0303	-0.0047
493.2297	-0.0065
493.4291	-0.0153
493.6284	-0.0027
493.8278	-0.0098
494.0271	-0.0003
494.2264	-0.0052
494.4257	-0.0019
494.625	-0.0011
494.8243	-0.0046
495.0236	-0.0146
495.2228	-0.0064
495.422	-0.0086
495.6213	-0.0115
495.8205	-0.0038
496.0196	-0.0055
496.2188	-0.0018
496.418	-0.0016
496.6171	-0.0057
496.8162	-0.0106
497.0153	0.0016
497.2144	0.0007
497.4135	-0.0066
497.6126	-0.0059
497.8116	-0.0034
498.0107	0.0038
498.2097	-0.0082
498.4087	-0.0059
498.6077	-0.0014
498.8067	-0.0042
499.0056	-0.0073
499.2046	-0
499.4035	-0.0083
499.6024	-0.0028
499.8013	0.0009
500.0002	-0.0043
500.199	-0.0057
500.3979	-0.0028
500.5967	-0.0134
500.7956	-0.0153
500.9944	-0.0049
501.1932	-0.0005
501.3919	-0.0096
501.5907	-0.0123
501.7895	-0.0031
501.9882	-0.0077
502.1869	-0.0083
502.3856	-0.0061
502.5843	-0.0069
502.783	-0.0081
502.9816	-0.0119
503.1803	-0.0047
503.3789	-0.0028
503.5775	-0.0054
503.7761	-0.0066
503.9747	-0.0067
504.1732	-0.0024
504.3718	-0.0038
504.5703	-0.0069
504.7689	-0.0021
504.9674	-0.0025
505.1658	-0.0074
505.3643	0.0011
505.5628	0.004
505.7612	-0.0066
505.9597	-0.0086
506.1581	-0.0039
506.3565	0.0004
506.5549	-0.0094
506.7532	-0.0113
506.9516	0.0051
507.1499	-0.0077
507.3482	-0.0095
507.5465	-0.0064
507.7448	-0.0046
507.9431	0.0001
508.1414	-0.0068
508.3396	-0.0015
508.5379	-0.0019
508.7361	-0.0034
508.9343	-0.007
509.1325	-0.0091
509.3306	0.0009
509.5288	-0.0004
509.7269	-0.014
509.9251	-0.0038
510.1232	-0.0032
510.3213	-0.009
510.5193	-0.0009
510.7174	0.0035
510.9154	-0.0034
511.1135	-0.0059
511.3115	-0.009
511.5095	-0.0097
511.7075	0.0065
511.9055	-0.0071
512.1034	-0.0027
512.3014	-0.0099
512.4993	-0.0095
512.6972	-0.003
512.8951	-0.004
513.093	-0.0081
513.2908	-0.0036
513.4887	-0.0009
513.6865	0.0009
513.8844	-0.0063
514.0822	-0.005
514.2799	-0.0085
514.4777	-0.0026
514.6755	-0.0069
514.8732	-0.0107
515.0709	-0.0071
515.2687	-0.0127
515.4664	-0.0043
515.664	-0.0179
515.8617	-0.0057
516.0594	-0.0073
516.257	-0.0043
516.4546	-0.0113
516.6522	-0.0072
516.8498	-0.0121
517.0474	-0.0036
517.2449	-0.009
517.4425	-0.0077
517.64	-0.0067
517.8375	-0.0039
518.035	-0.0027
518.2325	-0.0083
518.43	0.0008
518.6274	-0.0073
518.8249	-0.0092
519.0223	-0.0123
519.2197	0.0001
519.4171	-0.0059
519.6145	-0.0082
519.8118	-0.0097
520.0092	-0.0022
520.2065	-0.0139
520.4038	-0.0063
520.6011	-0.0098
520.7984	-0.0068
520.9956	-0.0072
521.1929	-0.0055
521.3901	-0.0099
521.5874	-0.0042
521.7846	0.0011
521.9818	-0.0027
522.1789	-0.001
522.3761	-0.0098
522.5732	-0.0029
522.7704	-0.003
522.9675	-0.0058
523.1646	-0.0029
523.3617	-0.0059
523.5587	-0.0033
523.7558	0.0001
523.9528	-0.003
524.1498	-0.0045
524.3468	-0.0033
524.5438	-0.0064
524.7408	-0.0182
524.9378	-0.0063
525.1347	0.0004
525.3316	-0.0089
525.5285	-0.0093
525.7254	-0.0113
525.9223	-0.0012
526.1192	-0.0111
526.316	0.0014
526.5129	-0.0094
526.7097	-0.0081
526.9065	-0.0034
527.1033	-0.0065
527.3	-0.0106
527.4968	-0.0102
527.6935	-0.0038
527.8903	-0.006
528.087	-0.0093
528.2837	-0.0031
528.4804	-0.0101
528.677	-0.0036
528.8737	-0.0133
529.0703	0.001
529.2669	0.0003
529.4635	-0.0077
529.6601	-0.0058
529.8567	-0.0043
530.0532	-0.0056
530.2498	-0.0019
530.4463	-0.0065
530.6428	-0.0057
530.8393	-0.0035
531.0358	-0.0083
531.2322	-0.0042
531.4287	-0.0138
531.6251	-0.0071
531.8215	-0.0001
532.0179	-0.0098
532.2143	-0.0056
532.4107	-0.0001
532.607	-0.0078
532.8034	-0.0098
532.9997	-0.0114
533.196	-0.0073
533.3923	-0.001
533.5886	-0.0013
533.7848	0.0012
533.9811	-0.0039
534.1773	-0.0127
534.3735	-0.0053
534.5697	-0.0098
534.7659	-0.0047
534.9621	-0.0027
535.1582	-0.0095
535.3544	-0.0151
535.5505	-0.0029
535.7466	-0.0096
535.9427	0.0008
536.1387	-0.0029
536.3348	-0.0022
536.5308	-0.0049
536.7269	0.003
536.9229	-0.0049
537.1189	-0.0113
537.3148	0
537.5108	0.0054
537.7068	-0.0021
537.9027	-0.0073
538.0986	-0.0018
538.2945	-0.0058
538.4904	-0.0077
538.6863	-0.0038
538.8821	-0.0023
539.078	-0.0131
539.2738	-0.0079
539.4696	-0.0073
539.6654	-0.0044
539.8611	-0.0054
540.0569	-0.0027
540.2526	-0.0067
540.4484	0.0035
540.6441	-0.0015
540.8398	-0.007
541.0355	-0.008
541.2311	-0.0047
541.4268	-0.0045
541.6224	0.0006
541.818	-0.0064
542.0136	-0.0058
542.2092	-0.005
542.4048	-0.0049
542.6003	-0.0018
542.7959	-0.0029
542.9914	-0.0106
543.1869	-0.0098
543.3824	-0.0081
543.5779	-0.0124
543.7734	-0.0052
543.9688	-0.0152
544.1642	-0.0074
544.3596	-0.0016
544.555	-0.009
544.7504	-0.0057
544.9458	-0.0051
545.1411	0.0015
545.3365	-0.0049
545.5318	0.0037
545.7271	0.003
545.9224	-0.0001
546.1177	-0.0087
546.3129	-0.0031
546.5081	-0.0079
546.7034	-0.007
546.8986	-0.0095
547.0938	-0.0055
547.289	-0.0053
547.4841	-0.0099
547.6793	-0.0074
547.8744	-0.0033
548.0695	-0.0064
548.2646	-0.0036
548.4597	0.0026
548.6548	-0.0051
548.8498	-0.0015
549.0448	-0.0045
549.2399	-0.0029
549.4349	-0.0019
549.6298	-0.0028
549.8248	-0.0049
550.0198	-0.0027
550.2147	-0.003
550.4096	-0.0065
550.6045	-0.0093
550.7994	0.0043
550.9943	0.0012
551.1892	-0.0052
551.384	-0.0099
551.5788	-0.0096
551.7737	0.0011
551.9685	-0.0109
552.1632	-0.0064
552.358	-0.0078
552.5528	-0.0058
552.7475	-0.0143
552.9422	-0.0079
553.1369	-0.0079
553.3316	-0.0033
553.5263	-0.0097
553.7209	-0.0029
553.9156	-0.0052
554.1102	-0.0044
554.3048	-0.0093
554.4994	-0.0009
554.694	-0.0044
554.8885	-0.0017
555.0831	0.0011
555.2776	0.0052
555.4721	-0.009
555.6666	-0.0082
555.8611	0.001
556.0555	-0.0114
556.25	-0.0054
556.4444	-0.0065
556.6388	-0.008
556.8332	-0.0043
557.0276	-0.0025
557.222	-0.0056
557.4163	0.0017
557.6107	-0.0026
557.805	-0.0068
557.9993	-0.0065
558.1936	-0.0033
558.3879	0.0011
558.5821	-0.0057
558.7764	-0.0058
558.9706	-0.0067
559.1648	0.0021
559.359	-0.0113
559.5532	-0.0085
559.7473	-0.006
559.9415	-0.0092
560.1356	-0.0103
560.3297	-0.0127
560.5238	-0.0085
560.7179	-0.0036
560.9119	-0.0011
561.106	-0.0013
561.3	-0.0028
561.494	-0.0066
561.688	-0.0097
561.882	-0.0021
562.076	-0.0031
562.2699	-0.0077
562.4639	-0.0035
562.6578	-0.0057
562.8517	-0.0016
563.0456	-0
563.2395	-0.0073
563.4333	-0.0038
563.6272	-0.0039
563.821	-0.0081
564.0148	-0.0023
564.2086	-0.0024
564.4024	0.0007
564.5961	-0.0061
564.7899	0.0033
564.9836	0.0054
565.1773	-0.0014
565.371	-0.0025
565.5647	-0.0041
565.7584	0.0062
565.952	0.0031
566.1456	-0.0013
566.3393	-0.0066
566.5329	-0.0051
566.7264	0.0017
566.92	-0.0051
567.1136	-0.0052
567.3071	-0.0011
567.5006	-0.0007
567.6941	-0.0048
567.8876	-0.0076
568.0811	-0.0071
568.2745	-0.0079
568.468	-0.0051
568.6614	-0.0079
568.8548	-0.0059
569.0482	-0.0048
569.2416	-0.0061
569.4349	-0.0044
569.6283	-0.0098
569.8216	-0.0111
570.0149	-0.0106
570.2082	-0.0021
570.4015	-0.0012
570.5947	-0.0035
570.788	-0.0079
570.9812	-0.0053
571.1744	-0.0079
571.3676	-0.0079
571.5608	-0.0065
571.754	-0.0109
571.9471	-0.0099
572.1402	-0.0026
572.3333	-0.0015
572.5264	-0.0023
572.7195	-0.0021
572.9126	-0.0039
573.1057	-0.0029
573.2987	-0.0027
573.4917	-0.0028
573.6847	-0.0028
573.8777	-0.0023
574.0707	-0.0022
574.2636	-0.002
574.4566	-0.0019
574.6495	-0.0007
574.8424	-0.0056
575.0353	-0.005
575.2281	-0.0044
575.421	-0.0058
575.6138	-0.0027
575.8067	-0.0025
575.9995	-0.0003
576.1923	-0.0041
576.385	-0.0067
576.5778	-0.001
576.7706	0.0031
576.9633	-0.0038
577.156	-0.0012
577.3487	-0.0025
577.5414	-0.0023
577.734	0.0033
577.9267	0.0017
578.1193	-0.0055
578.3119	-0.0025
578.5045	-0.0061
578.6971	-0.0014
578.8897	-0.0056
579.0822	-0.0037
579.2747	0.0016
579.4673	-0.0012
579.6598	-0.0045
579.8522	-0.0018
580.0447	-0.0035
580.2372	0.003
580.4296	0.0046
580.622	-0.0012
580.8144	-0.0051
581.0068	-0.0008
581.1992	0.0014
581.3915	-0.006
581.5839	-0.0038
581.7762	-0.0073
581.9685	-0.0057
582.1608	-0.003
582.353	0.0017
582.5453	-0.0028
582.7375	0.0014
582.9298	-0.0051
583.122	0.0006
583.3142	-0.0006
583.5063	-0.0004
583.6985	-0.0056
583.8906	-0.0052
584.0827	-0.0033
584.2749	-0.0098
584.4669	-0.0047
584.659	-0.0105
584.8511	-0.0021
585.0431	-0.0086
585.2352	-0.0076
585.4272	-0.0109
585.6192	-0.0021
585.8111	-0.0026
586.0031	-0.0016
586.195	-0.0083
586.387	-0.0047
586.5789	-0.0062
586.7708	-0.0111
586.9627	-0.0066
587.1545	-0.0077
587.3464	-0.0069
587.5382	-0.0057
587.73	-0.004
587.9218	-0.0009
588.1136	-0.0032
588.3053	-0.0033
588.4971	-0.0064
588.6888	-0.0008
588.8805	-0.0017
589.0722	0.0002
589.2639	-0.0008
589.4556	-0.0016
589.6472	-0.0037
589.8389	-0.0029
590.0305	-0.0011
590.2221	-0.0052
590.4137	-0.005
590.6052	-0.0045
590.7968	-0.0055
590.9883	-0.0022
591.1798	-0.0106
591.3713	-0.0046
591.5628	-0.0079
591.7543	0.0005
591.9458	0.0006
592.1372	0.0007
592.3286	-0.0053
592.52	-0.0069
592.7114	0.0002
592.9028	-0.0024
593.0941	-0.0022
593.2855	-0.0012
593.4768	-0.0026
593.6681	-0.0003
593.8594	0.0022
594.0506	-0.0002
594.2419	0.0017
594.4331	-0.0025
594.6244	-0.003
594.8156	-0.0019
595.0067	-0.0041
595.1979	-0.0043
595.3891	-0.0036
595.5802	-0.0077
595.7713	-0.0042
595.9624	0.0017
596.1535	-0.0014
596.3446	-0.002
596.5357	0.0025
596.7267	-0.0006
596.9177	0.0015
597.1087	-0.0034
597.2997	-0.0012
597.4907	-0.0025
597.6817	-0.0011
597.8726	-0.0056
598.0635	-0.0035
598.2544	-0.0019
598.4453	-0.0065
598.6362	-0.006
598.827	-0.0043
599.0179	-0.0032
599.2087	-0.0113
599.3995	-0.0049
599.5903	0.0015
599.7811	-0.0023
599.9718	0.0003
600.1626	-0.0027
600.3533	-0.008
600.544	-0.0041
600.7347	0.0007
600.9254	0.0022
601.116	-0.0045
601.3067	-0.0064
601.4973	-0.0071
601.6879	-0.0011
601.8785	-0.0032
602.0691	-0.0008
602.2596	-0.002
602.4502	-0.0081
602.6407	0.0004
602.8312	-0.0024
603.0217	-0.002
603.2122	0.0006
603.4027	-0.0021
603.5931	-0.0037
603.7835	-0.0062
603.9739	0.0007
604.1643	-0.0027
604.3547	-0.0004
604.5451	0.0013
604.7354	-0.0035
604.9257	-0.0041
605.116	-0.0014
605.3063	0.0004
605.4966	-0.0015
605.6869	-0.004
605.8771	-0.0002
606.0673	-0.0019
606.2575	-0.0028
606.4477	-0.0054
606.6379	-0.0067
606.8281	-0.0065
607.0182	-0.0059
607.2083	-0.0052
607.3985	-0.0082
607.5885	-0.0029
607.7786	-0.0053
607.9687	-0.0012
608.1587	-0.0039
608.3488	-0.0031
608.5388	-0.0007
608.7288	-0.0056
608.9187	-0.0038
609.1087	-0.0058
609.2986	-0.0042
609.4886	0.0012
609.6785	-0.0014
609.8684	-0.0005
610.0582	-0.0028
610.2481	-0.0068
610.4379	0.0021
610.6278	-0.0011
610.8176	-0.0014
611.0074	-0.0024
611.1971	-0.0044
611.3869	-0.0065
611.5766	-0.002
611.7664	-0.0017
611.9561	-0.0014
612.1458	0.0021
612.3354	-0.0045
612.5251	-0.0059
612.7147	-0.0026
612.9044	-0.0036
613.094	-0.0026
613.2836	-0.0039
613.4731	-0.006
613.6627	-0.0046
613.8522	-0.0006
614.0417	-0.008
614.2313	-0.0032
614.4207	-0.0024
614.6102	-0.0003
614.7997	-0.005
614.9891	-0.0087
615.1785	-0.0054
615.3679	-0.0013
615.5573	0.0032
615.7467	0.0007
615.9361	-0.0016
616.1254	-0.0046
616.3147	0.0021
616.504	-0.0029
616.6933	0.0004
616.8826	-0.0086
617.0718	-0.004
617.2611	0.0001
617.4503	0.0033
617.6395	-0.0049
617.8287	0.0016
618.0179	0.0012
618.207	-0.0054
618.3961	-0.0031
618.5853	-0.0062
618.7744	-0.0065
618.9634	0.0011
619.1525	-0.0083
619.3416	-0.008
619.5306	-0.0037
619.7196	0.0011
619.9086	0.0003
620.0976	-0.0002
620.2866	0.0024
620.4755	-0.0055
620.6645	-0.0008
620.8534	-0.0007
621.0423	-0.0047
621.2312	-0.0069
621.42	0
621.6089	-0.0019
621.7977	-0.0041
621.9865	-0.0067
622.1753	-0.0024
622.3641	0.0013
622.5529	0.0008
622.7416	-0.0024
622.9303	0.0064
623.1191	-0
623.3078	0.0013
623.4964	-0.0016
623.6851	0.0049
623.8737	0.0007
624.0624	-0.0027
624.251	0
624.4396	0.0013
624.6282	0.0027
624.8167	0.0022
625.0053	0.0019
625.1938	0.0032
625.3823	0.0005
625.5708	-0.0003
625.7593	0.0004
625.9477	-0.0084
626.1362	-0.0018
626.3246	-0.0049
626.513	-0.0039
626.7014	-0.0027
626.8898	-0.0039
627.0781	-0.0034
627.2665	-0.0051
627.4548	-0.0106
627.6431	-0.0017
627.8314	-0.0037
628.0197	-0.001
628.2079	-0.0026
628.3962	-0.0025
628.5844	0.0008
628.7726	-0.0003
628.9608	0.002
629.1489	0.0023
629.3371	-0.0003
629.5252	-0.0001
629.7134	-0.0019
629.9015	-0.0001
630.0895	-0.0011
630.2776	-0.0002
630.4657	-0.0047
630.6537	-0.0023
630.8417	-0.0015
631.0297	-0.0034
631.2177	-0.0016
631.4057	0.0009
631.5936	0.0029
631.7815	-0.0027
631.9695	-0.0037
632.1574	-0.0022
632.3452	-0.0064
632.5331	-0.0048
632.7209	-0.0043
632.9088	-0.0059
633.0966	-0.0068
633.2844	-0.0035
633.4722	-0.0006
633.6599	-0.0012
633.8477	-0.0022
634.0354	-0.008
634.2231	-0.0066
634.4108	0.0004
634.5985	-0.0015
634.7861	-0.0064
634.9738	-0.0073
635.1614	-0.0064
635.349	-0.0051
635.5366	-0.0006
635.7242	-0.0013
635.9117	0.0014
636.0993	-0.0028
636.2868	0.0008
636.4743	-0.0006
636.6618	-0.0093
636.8492	-0.0015
637.0367	-0.0038
637.2241	-0.0057
637.4115	-0.0045
637.5989	0.0001
637.7863	-0.0033
637.9737	-0.0042
638.161	-0.0013
638.3484	-0.0019
638.5357	0.0005
638.723	-0.0008
638.9103	0.0017
639.0975	0.0038
639.2848	0.0002
639.472	0.0013
639.6592	0.0072
639.8464	-0.0016
640.0336	-0.0049
640.2208	-0.0021
640.4079	-0.0054
640.595	0.0028
640.7821	-0.0018
640.9692	-0.0029
641.1563	-0.0006
641.3434	0.0015
641.5304	0.0021
641.7174	0.0002
641.9044	0.0063
642.0914	0.0016
642.2784	0.0054
642.4653	0.0012
642.6523	0.0005
642.8392	0.0069
643.0261	0.0045
643.213	0.0037
643.3999	0.0001
643.5867	-0.0025
643.7735	0.0003
643.9604	-0.0002
644.1472	-0.0006
644.3339	-0.0036
644.5207	-0.0038
644.7075	-0.0068
644.8942	-0.0034
645.0809	0.0015
645.2676	-0.0027
645.4543	0.0032
645.6409	-0.0028
645.8276	-0.0018
646.0142	-0.0085
646.2008	-0.0072
646.3874	-0.0032
646.574	-0.005
646.7605	-0.0006
646.9471	-0.01
647.1336	-0.003
647.3201	-0.0051
647.5066	-0.0025
647.6931	0.0012
647.8795	-0.005
648.0659	-0.0036
648.2524	-0.0034
648.4388	-0.0023
648.6252	-0.0006
648.8115	-0.0084
648.9979	-0.0028
649.1842	-0.0111
649.3705	-0.0052
649.5568	-0.0036
649.7431	-0.002
649.9294	-0.0034
650.1156	-0.0047
650.3018	-0.0038
650.488	-0.0104
650.6742	-0.0066
650.8604	0.0031
651.0466	-0.0007
651.2327	-0.0003
651.4188	-0.0006
651.6049	-0.0007
651.791	0.0006
651.9771	-0.003
652.1632	0.007
652.3492	0.004
652.5352	-0.0041
652.7212	-0.0026
652.9072	0.0093
653.0932	0.0005
653.2791	-0.0024
653.465	-0.0019
653.651	-0.0045
653.8369	-0.0016
654.0227	-0.0016
654.2086	0.0007
654.3944	-0.0062
654.5803	-0.0086
654.7661	-0.0095
654.9519	-0.001
655.1377	0.0002
655.3234	-0
655.5092	-0
655.6949	-0
655.8806	-0
656.0663	-0
656.2519	-0
656.4376	-0.0032
656.6232	-0.0059
656.8088	-0.0056
656.9945	0.0002
657.18	-0.0024
657.3656	-0.001
657.5511	-0.0073
657.7367	-0.0028
657.9222	-0.0033
658.1077	-0.0023
658.2932	-0.0056
658.4786	-0.0013
658.6641	-0.003
658.8495	-0.0084
659.0349	-0.005
659.2203	-0.0078
659.4057	-0.0056
659.591	-0.0009
659.7764	-0.0082
659.9617	-0.0128
660.147	-0.0029
660.3323	-0.0036
660.5176	-0.0065
660.7028	-0.0052
660.888	-0.005
661.0733	-0.0029
661.2585	-0.0004
661.4436	0.0006
661.6288	-0.006
661.8139	0.0011
661.9991	0.0005
662.1842	0.001
662.3693	-0.0029
662.5544	-0.0007
662.7394	-0.0035
662.9245	0.0031
663.1095	0.0028
663.2945	-0.0038
663.4795	-0.0026
663.6644	-0.0043
663.8494	-0.0064
664.0343	-0.0007
664.2193	-0.008
664.4042	-0.0153
664.589	-0.0027
664.7739	-0.0052
664.9587	-0.0008
665.1436	0.0034
665.3284	-0.0006
665.5132	-0.0077
665.698	0.0051
665.8827	-0.0004
666.0675	-0.0082
666.2522	-0.0064
666.4369	-0.0068
666.6216	-0.0088
666.8063	-0.0032
666.9909	-0.0103
667.1756	-0.0024
667.3602	-0.0131
667.5448	-0.0103
667.7294	-0.0028
667.9139	-0.0083
668.0985	-0.0091
668.283	-0.0066
668.4675	-0.014
668.652	-0.0066
668.8365	-0.0063
669.0209	-0.0093
669.2054	-0.0048
669.3898	-0.0069
669.5742	-0.0073
669.7586	-0.0058
669.943	-0.0041
670.1273	-0.0128
670.3117	-0.0067
670.496	-0.0071
670.6803	0.0018
670.8646	-0.0058
671.0488	0.0002
671.2331	-0.0027
671.4173	-0.0012
671.6015	-0.0036
671.7857	-0.0032
671.9699	-0.0081
672.1541	-0.007
672.3382	-0.0026
672.5223	-0.008
672.7064	-0.0088
672.8905	-0.0103
673.0746	-0.0091
673.2587	-0.0103
673.4427	-0.0161
673.6267	-0.0133
673.8107	-0.0141
673.9947	-0.0101
674.1787	-0.0076
674.3626	-0.0126
674.5465	-0.0065
674.7304	-0.001
674.9143	-0.0016
675.0982	-0.0043
675.2821	-0
675.4659	-0.0077
675.6497	-0.0003
675.8335	-0.0023
676.0173	-0.0082
676.2011	-0.0048
676.3849	-0.0043
676.5686	0.0012
676.7523	-0.0037
676.936	-0.0007
677.1197	-0.0057
677.3034	-0.0054
677.487	-0.0047
677.6706	-0.0047
677.8542	-0.0047
678.0378	-0
678.2214	-0.0116
678.405	0.0015
678.5885	-0.0045
678.772	-0.0018
678.9555	-0.0044
679.139	-0.0098
679.3225	-0.0085
679.5059	-0.0042
679.6894	0.0015
679.8728	-0.0034
680.0562	-0.0021
680.2395	-0.0081
680.4229	-0.0019
680.6062	0.0034
680.7896	-0.0003
680.9729	-0.0018
681.1562	0.0012
681.3394	0.0015
681.5227	-0.0026
681.7059	-0.0028
681.8891	-0.0058
682.0723	-0.0095
682.2555	-0.0032
682.4387	-0.0028
682.6218	-0.0063
682.805	-0.0063
682.9881	-0.0042
683.1712	0.0026
683.3542	-0.0001
683.5373	-0.0059
683.7203	-0.002
683.9034	-0.0022
684.0864	-0.0037
684.2694	-0.0049
684.4523	-0.0042
684.6353	-0.0019
684.8182	-0.0004
685.0011	-0.0047
685.184	-0.0035
685.3669	-0.0029
685.5498	-0.0043
685.7326	-0.0015
685.9154	-0.0068
686.0982	-0.0078
686.281	-0.0051
686.4638	-0.0037
686.6465	-0.0047
686.8293	-0.0018
687.012	-0.0016
687.1947	-0.0091
687.3774	-0.0021
687.56	-0.0059
687.7427	0
687.9253	-0.0004
688.1079	-0.0002
688.2905	0.0004
688.4731	-0.0032
688.6556	0.0009
688.8382	-0.0035
689.0207	-0.0051
689.2032	-0.0021
689.3857	0.0004
689.5681	0.0011
689.7506	-0.0067
689.933	-0.0012
690.1154	-0.0018
690.2978	0.0004
690.4802	0.0015
690.6626	0.0064
690.8449	0.0029
691.0272	0.0014
691.2095	-0.0016
691.3918	-0.0017
691.5741	-0.004
691.7563	-0.0013
691.9386	-0.006
692.1208	-0.0077
692.303	-0.0035
692.4852	-0.0037
692.6673	-0.0036
692.8495	-0.0098
693.0316	-0.0017
693.2137	-0.0044
693.3958	-0.0057
693.5778	-0.0041
693.7599	-0.0044
693.9419	-0.0101
694.1239	-0.0038
694.3059	-0.0111
694.4879	-0.0068
694.6699	-0.0079
694.8518	-0.008
695.0337	-0.0039
695.2157	-0.0026
695.3975	-0.0108
695.5794	-0.0048
695.7613	-0.0072
695.9431	-0.005
696.1249	-0.0066
696.3067	-0.0043
696.4885	-0.0013
696.6703	-0.0054
696.852	-0.0033
697.0337	-0.0044
697.2154	-0.0045
697.3971	-0
697.5788	-0.0038
697.7605	-0.0044
697.9421	-0.0026
698.1237	-0.0054
698.3053	-0.0006
698.4869	-0.0002
698.6685	-0.0053
698.85	-0.0038
699.0315	-0.0036
699.213	0.0001
699.3945	0.0033
699.576	0.0033
699.7575	-0.0033
699.9389	-0.0005
700.1203	-0.0078
700.3017	-0.004
700.4831	-0.0013
700.6645	-0.0114
700.8458	-0.004
701.0271	-0.0023
701.2084	-0.01
701.3897	-0.004
701.571	-0.0001
701.7523	0.0022
701.9335	0.002
702.1147	0.0046
702.2959	-0.0058
702.4771	-0.0016
702.6583	-0.0006
702.8394	-0.0051
703.0205	-0.0022
703.2016	-0.0028
703.3827	-0.0006
703.5638	-0.0066
703.7449	-0.0101
703.9259	-0.0009
704.1069	-0.0005
704.2879	-0.0053
704.4689	-0.0067
704.6499	-0.0061
704.8308	-0.0056
705.0117	-0.0009
705.1927	-0.0041
705.3735	0.0036
705.5544	-0.0012
705.7353	0.0025
705.9161	-0.0024
706.0969	0.0039
706.2777	-0.0041
706.4585	-0
706.6393	-0.0091
706.82	-0.0068
707.0007	-0.002
707.1815	-0.0017
707.3621	-0.006
707.5428	-0.001
707.7235	-0.0013
707.9041	-0.0037
708.0847	0.0009
708.2653	-0.0032
708.4459	-0.0053
708.6265	-0.0048
708.807	-0.0005
708.9875	0.0025
709.168	-0.0021
709.3485	-0.0033
709.529	-0.006
709.7095	-0.0085
709.8899	-0.0092
710.0703	0.0001
710.2507	-0.0074
710.4311	-0.0006
710.6115	0.0036
710.7918	-0.0037
710.9721	0.0048
711.1524	0.0003
711.3327	0.002
711.513	-0.0089
711.6932	-0.0061
711.8735	0.0017
712.0537	-0.006
712.2339	-0.0061
712.4141	-0.0061
712.5942	0.0021
712.7744	0.001
712.9545	0.0019
713.1346	-0.0031
713.3147	0.006
713.4947	-0.0024
713.6748	-0.0073
713.8548	-0.0032
714.0348	-0.0045
714.2148	-0.0015
714.3948	-0.0023
714.5748	-0.009
714.7547	-0.007
714.9346	0.0004
715.1145	-0.0054
715.2944	-0.0001
715.4743	-0.007
715.6541	-0.0072
715.834	-0.0043
716.0138	-0.0029
716.1936	-0.0019
716.3733	-0.0089
716.5531	-0.0043
716.7328	-0.0032
716.9126	-0.0018
717.0923	0.0009
717.2719	-0.0078
717.4516	-0.0024
717.6312	-0.0015
717.8109	-0.0009
717.9905	-0.0078
718.1701	-0.0044
718.3496	-0.0041
718.5292	-0.0027
718.7087	-0.0063
718.8882	-0.004
719.0677	-0.01
719.2472	-0.0032
719.4267	-0.0103
719.6061	-0.0022
719.7856	-0.0022
719.965	-0.0098
720.1443	-0.0075
720.3237	-0.0071
720.5031	-0.0075
720.6824	-0.007
720.8617	-0.0117
721.041	0.002
721.2203	-0.0072
721.3995	-0.0001
721.5788	-0.0087
721.758	-0.0008
721.9372	-0.0085
722.1164	-0.0037
722.2956	-0.0074
722.4747	-0.0065
722.6538	-0.0082
722.8329	-0.0038
723.012	-0.0052
723.1911	0.0032
723.3702	0.0036
723.5492	-0.0058
723.7282	-0.0026
723.9072	0.0002
724.0862	0.001
724.2652	-0.0006
724.4441	-0.0083
724.623	0
724.8019	-0.0002
724.9808	-0
725.1597	0.0056
725.3385	0.0025
725.5174	0.0008
725.6962	-0.0063
725.875	-0.0001
726.0538	0.0055
726.2325	-0.0039
726.4112	-0.0061
726.59	-0.0015
726.7687	-0.0028
726.9474	-0.0053
727.126	-0.004
727.3047	-0.0026
727.4833	-0.0023
727.6619	-0.0129
727.8405	-0.0004
728.0191	-0.0004
728.1976	-0.0066
728.3762	-0.0079
728.5547	-0.0105
728.7332	-0.0113
728.9116	-0.0117
729.0901	-0.0056
729.2686	-0.0063
729.447	-0.0075
729.6254	-0.0113
729.8038	-0.008
729.9821	0.001
730.1605	-0.0027
730.3388	0.005
730.5171	-0.0034
730.6954	-0.0015
730.8737	-0.0055
731.0519	0.0025
731.2302	0.004
731.4084	0.0074
731.5866	0.0006
731.7648	0.0034
731.9429	0.0047
732.1211	-0.0039
732.2992	0.0034
732.4773	-0.0031
732.6554	-0.0017
732.8335	-0.0057
733.0115	-0.0062
733.1896	-0.0111
733.3676	0.0001
733.5456	-0.0028
733.7235	-0.0021
733.9015	0.0025
734.0794	-0.0013
734.2574	-0.0013
734.4353	-0.0001
734.6131	-0.0033
734.791	-0.0054
734.9689	-0.006
735.1467	0.0013
735.3245	-0.0044
735.5023	-0.0073
735.68	-0.001
735.8578	-0.0028
736.0355	0.0115
736.2132	-0.0024
736.3909	-0.0009
736.5686	-0.0041
736.7463	-0.0087
736.9239	-0.0009
737.1015	-0.0038
737.2791	-0.0107
737.4567	-0.0075
737.6343	-0.0018
737.8118	-0.0053
737.9894	0.003
738.1669	-0.0067
738.3444	-0.0014
738.5218	0.0053
738.6993	0.0021
738.8767	-0.0022
739.0541	-0.0095
739.2315	-0.002
739.4089	-0.0021
739.5863	-0.0046
739.7636	-0.0019
739.9409	-0.0015
740.1182	0.0014
740.2955	-0.0018
740.4728	-0.0031
740.65	0.0004
740.8272	0.0054
741.0044	-0.0015
741.1816	0.0001
741.3588	0.0084
741.5359	0.0005
741.7131	0.0039
741.8902	0.0018
742.0673	0.0033
742.2444	-0.0057
742.4214	-0.0045
742.5985	-0.0077
742.7755	-0.0076
742.9525	0.0002
743.1295	-0.0048
743.3064	-0.0036
743.4834	-0.0001
743.6603	-0.0033
743.8372	-0.0012
744.0141	0.0003
744.191	-0.0053
744.3678	-0.0013
744.5446	-0.0022
744.7215	-0.0058
744.8982	-0.0056
745.075	-0.0014
745.2518	0.0028
745.4285	-0.0003
745.6052	0.0027
745.7819	-0.0031
745.9586	0.0035
746.1353	-0.003
746.3119	0.002
746.4885	-0.0049
746.6651	-0.0045
746.8417	-0.0061
747.0183	-0.0043
747.1948	-0.006
747.3714	-0.0046
747.5479	-0.0099
747.7244	0.0009
747.9008	0.0042
748.0773	0.0035
748.2537	0.0045
748.4301	-0.002
748.6065	-0.0009
748.7829	0.0025
748.9593	0.002
749.1356	-0.0031
749.3119	0.0035
749.4882	0.007
749.6645	-0.0004
749.8408	-0.0027
750.017	-0.0065
750.1933	-0.0074
750.3695	-0.0021
750.5457	-0.0106
750.7218	-0.0041
750.898	-0.0037
751.0741	-0.01
751.2502	-0.0035
751.4263	-0.0068
751.6024	-0.0045
751.7784	0.0027
751.9545	0.0002
752.1305	0.0026
752.3065	-0.0014
752.4825	0.0013
752.6584	-0.0003
752.8344	-0.0022
753.0103	-0.0059
753.1862	0.0047
753.3621	-0.0076
753.5379	-0.004
753.7138	0.0003
753.8896	-0.0102
754.0654	-0.0118
754.2412	-0.0055
754.417	-0.01
754.5927	-0.0057
754.7685	-0.0168
754.9442	-0.0062
755.1199	-0.0091
755.2956	-0.0088
755.4712	-0.0047
755.6469	-0.0087
755.8225	-0.0072
755.9981	-0.0046
756.1736	-0.0075
756.3492	-0.0094
756.5248	0.0043
756.7003	-0.0093
756.8758	-0.011
757.0513	-0.011
757.2267	-0.0114
757.4022	-0.0057
757.5776	-0.0122
757.753	-0.0132
757.9284	-0.0104
758.1038	-0.0075
758.2791	-0.0169
758.4545	-0.0113
758.6298	-0.0075
758.8051	-0.0048
758.9803	-0.0131
759.1556	-0.0053
759.3308	-0.0057
759.506	-0.0073
759.6812	-0.0124
759.8564	-0.0071
760.0316	-0.0154
760.2067	-0.0058
760.3819	-0.0087
760.557	-0.0102
760.732	-0.0099
760.9071	-0.0094
761.0821	-0.014
761.2572	-0.0117
761.4322	-0.0075
761.6072	-0.0114
761.7821	-0.0078
761.9571	-0.01
762.132	-0.0089
762.3069	-0.0019
762.4818	-0.0028
762.6567	-0.0115
762.8316	-0.0037
763.0064	-0.003
763.1812	-0.0002
763.356	0.0006
763.5308	0.0006
763.7055	0.0035
763.8803	-0.0007
764.055	-0.0034
764.2297	0.0051
764.4044	-0.006
764.579	-0.0003
764.7537	0.0003
764.9283	-0.0044
765.1029	0.0025
765.2775	0.0007
765.4521	0.0071
765.6266	0.0002
765.8011	0.004
765.9756	-0.0012
766.1501	0.0018
766.3246	-0.0023
766.4991	-0.0021
766.6735	-0.0094
766.8479	-0.0078
767.0223	0.0021
767.1967	-0.0087
767.371	-0.0007
767.5454	0.0039
767.7197	-0.0026
767.894	0.0061
768.0683	0.003
768.2425	-0.0063
768.4168	-0.0069
768.591	0.0016
768.7652	-0.0067
768.9394	0.0006
769.1135	0.0072
769.2877	-0.0004
769.4618	0.0076
769.6359	-0.0022
769.81	-0.0026
769.984	-0.0035
770.1581	0.0004
770.3321	-0.0021
770.5061	-0.0016
770.6801	-0.0023
770.8541	-0.0051
771.028	0.0022
771.202	-0.0002
771.3759	-0.0038
771.5498	0.0002
771.7236	-0.0029
771.8975	0.0001
772.0713	0.0056
772.2451	0.006
772.4189	0.0045
772.5927	-0.0052
772.7665	-0.0027
772.9402	0.0003
773.1139	0.0044
773.2876	0.0067
773.4613	-0.0019
773.635	0.0019
773.8086	0.0035
773.9822	-0.0017
774.1558	-0.0024
774.3294	0.0097
774.503	0.0043
774.6765	-0.0029
774.8501	0.0096
775.0236	-0.0077
775.1971	-0.0048
775.3705	0.0009
775.544	-0.0073
775.7174	0.0005
775.8908	-0.0029
776.0642	-0.001
776.2376	-0.0007
776.4109	-0.0107
776.5843	0.003
776.7576	0.0002
776.9309	0.0032
777.1041	-0.0044
777.2774	0.0089
777.4506	-0.0005
777.6238	-0.0072
777.797	0.0036
777.9702	-0.0034
778.1434	-0.0045
778.3165	0.001
778.4896	-0.0118
778.6627	0.0004
778.8358	-0.0039
779.0089	-0.0006
779.1819	-0.0073
779.3549	-0.0017
779.5279	-0.0045
779.7009	-0.0018
779.8739	-0.0047
780.0468	-0.0053
780.2197	0.0008
780.3926	-0.0069
780.5655	-0.0084
780.7384	-0.0054
780.9112	-0.0071
781.0841	0.0015
781.2569	-0.0001
781.4297	-0.0087
781.6024	0.0009
781.7752	-0.0038
781.9479	-0.0041
782.1206	0.0037
782.2933	-0.0078
782.466	-0.0005
782.6386	-0.0032
782.8113	-0.0127
782.9839	-0.0122
783.1565	-0.008
783.329	-0.0061
783.5016	-0.0081
783.6741	-0.0123
783.8466	-0.0094
784.0191	-0.0037
784.1916	-0.0042
784.3641	-0.0049
784.5365	-0.0062
784.7089	0.0087
784.8813	0.0023
785.0537	0.0071
785.2261	-0.0008
785.3984	-0.001
785.5707	0.0007
785.743	-0.0016
785.9153	0.0007
786.0876	-0.0007
786.2598	0.0046
786.432	0.0009
786.6042	0.0049
786.7764	0.0057
786.9486	-0.0004
787.1207	-0.0097
787.2928	0.0038
787.4649	-0.0048
787.637	-0.0058
787.8091	-0.0004
787.9811	0.0076
788.1532	-0.0035
788.3252	-0.0048
788.4972	0.0022
788.6691	-0.0004
788.8411	0.007
789.013	-0.0027
789.1849	0.012
789.3568	-0.0073
789.5287	0.0031
789.7005	-0.003
789.8723	0.0067
790.0442	-0.0014
790.2159	-0.0006
790.3877	-0.0105
790.5595	-0.009
790.7312	0.0061
790.9029	-0.0009
791.0746	-0.0082
791.2463	-0.0005
791.4179	-0.0036
791.5896	-0.0029
791.7612	-0.0029
791.9328	0.0003
792.1044	-0.0045
792.2759	0.0119
792.4474	-0.0095
792.619	-0.0081
792.7905	-0.0066
792.9619	-0.0056
793.1334	-0.0079
793.3048	-0.0025
793.4762	-0.0039
793.6476	-0.0148
793.819	-0.0097
793.9904	-0.0052
794.1617	-0.0153
794.333	-0.0058
794.5043	-0.0067
794.6756	0.0062
794.8469	0.002
795.0181	-0.0035
795.1893	-0.0064
795.3605	-0.0138
795.5317	-0.0112
795.7029	-0.0019
795.874	-0.0034
796.0452	-0.0078
796.2163	-0.006
796.3873	-0.0095
796.5584	-0.0137
796.7294	-0.008
796.9005	-0.0116
797.0715	-0.0125
797.2425	-0.0104
797.4134	-0.0131
797.5844	-0.0165
797.7553	-0.0106
797.9262	-0.0151
798.0971	-0.0121
798.2679	-0.0026
798.4388	-0.0107
798.6096	-0.0142
798.7804	-0.007
798.9512	-0.0203
799.122	-0.0056
799.2927	-0.0037
799.4635	-0.0031
799.6342	-0.0125
799.8049	-0.0115
799.9755	-0.0134
800.1462	-0.0108
800.3168	-0.0087
800.4874	-0.0046
800.658	-0.0122
800.8286	-0.0179
800.9991	-0.011
801.1696	-0.012
801.3402	-0.0157
801.5106	-0.021
801.6811	-0.0206
801.8516	-0.0039
802.022	-0.0303
802.1924	-0.0193
802.3628	-0.0182
802.5332	-0.0183
802.7035	-0.0098
802.8739	-0.0111
803.0442	-0.0157
803.2145	-0.0129
803.3847	-0.017
803.555	-0.0148
803.7252	-0.0157
803.8954	-0.015
804.0656	-0.0086
804.2358	-0.0106
804.4059	-0.0103
804.5761	-0.0017
804.7462	-0.0019
804.9163	-0.0154
805.0864	-0.0169
805.2564	-0.0118
805.4264	-0.0117
805.5965	-0.0164
805.7665	-0.0102
805.9364	0.0034
806.1064	-0.0104
806.2763	-0.0123
806.4462	-0.0042
806.6161	-0.012
806.786	-0.0114
806.9559	-0.0075
807.1257	-0.0143
807.2955	-0.0237
807.4653	-0.0147
807.6351	-0.0072
807.8048	-0.0004
807.9746	-0.003
808.1443	-0.0032
808.314	-0.0057
808.4837	0.0045
808.6533	0.0018
808.8229	-0.0062
808.9926	0.0023
809.1622	-0.0049
809.3317	0.0131
809.5013	0.0063
809.6708	-0.0055
809.8403	-0.005
810.0098	0.0152
810.1793	-0.0094
810.3488	0.0018
810.5182	-0.0012
810.6876	-0.0041
810.857	-0.0076
811.0264	-0.0133
811.1958	0.0047
811.3651	-0.0106
811.5344	0.0032
811.7037	-0.0028
811.873	-0.0017
812.0422	-0.0147
812.2115	0.0012
812.3807	0.0012
812.5499	0.0009
812.7191	-0.0148
812.8882	-0.0056
813.0574	-0.0083
813.2265	0.0114
813.3956	-0.0036
813.5646	-0.0041
813.7337	0.0066
813.9027	0.0072
814.0718	0.0016
814.2407	0.015
814.4097	0.0044
814.5787	-0.0019
814.7476	-0.0113
814.9165	-0.0012
815.0854	-0.0066
815.2543	-0.0013
815.4232	-0.0087
815.592	-0.0056
815.7608	-0.0026
815.9296	0.0075
816.0984	0.0008
816.2671	-0.0058
816.4359	-0.0062
816.6046	-0.0032
816.7733	-0.0045
816.942	-0.0045
817.1106	-0.0067
817.2793	0.0028
817.4479	-0.009
817.6165	-0.007
817.785	-0.0004
817.9536	0.0074
818.1221	-0.0077
818.2906	0.0041
818.4591	-0.0117
818.6276	0.0078
818.7961	-0.0231
818.9645	-0.0083
819.1329	-0.0138
819.3013	-0.012
819.4697	-0.0057
819.638	-0.0065
819.8064	-0.0053
819.9747	0.0047
820.143	-0.0055
820.3113	-0.0155
820.4795	0.0074
820.6477	-0.0027
820.816	-0.009
820.9842	-0.0113
821.1523	-0.0217
821.3205	-0.0115
821.4886	0.0013
821.6567	0.0051
821.8248	-0.0057
821.9929	0.0006
822.1609	-0.0074
822.329	-0.0086
822.497	-0.0139
822.665	-0.0053
822.833	-0.0295
823.0009	-0.0065
823.1688	-0.009
823.3367	-0.007
823.5046	-0.0029
823.6725	-0.0195
823.8404	0.0057
824.0082	-0.0218
824.176	0.0083
824.3438	-0.0122
824.5116	0.0072
824.6793	-0.0028
824.847	-0.0063
825.0147	-0.0115
825.1824	-0.0313
825.3501	0.0057
825.5177	-0.0131
825.6854	0.0043
825.853	0.0015
826.0206	0.0069
826.1881	-0.0037
826.3557	0.0019
826.5232	0.0063
826.6907	-0.0067
826.8582	0.0037
827.0257	-0.0066
827.1931	0.0112
827.3605	0.0012
827.528	0.0006
827.6953	-0.0042
827.8627	-0.0193
828.03	-0.0092
828.1974	-0.0012
828.3647	0.0035
828.532	-0.0065
828.6992	-0.0115
828.8665	-0.0095
829.0337	-0.0071
829.2009	-0.0182
829.3681	-0.0245
829.5352	-0.01
829.7024	-0.0024
829.8695	-0.0297
830.0366	-0.0349
830.2037	-0.0111
830.3707	-0.0094
830.5378	-0.0038
830.7048	-0.0082
830.8718	-0.003
831.0388	-0.0124
831.2057	-0.0293
831.3727	-0.0155
831.5396	0.0162
831.7065	0.0133
831.8734	-0.0028
832.0402	-0.0104
832.2071	-0.0052
832.3739	0.0072
832.5407	0.0094
832.7075	-0.0235
832.8742	0.0057
833.041	0.0292
833.2077	-0.0173
833.3744	-0.0145
833.541	-0.0182
833.7077	-0.0057
833.8743	0.0065
834.0409	0.0056
834.2075	0.0047
834.3741	-0.0108
834.5407	0.0047
834.7072	-0.0149
834.8737	-0.0159
835.0402	-0.0214
835.2067	-0.0139
835.3731	-0.0211
835.5395	-0.0005
835.706	-0.0168
835.8723	-0.0255
836.0387	-0.0312
836.2051	-0.0164
836.3714	0.0208
836.5377	0.0115
836.704	-0.0006
836.8703	-0.0178
837.0365	-0.0028
837.2027	-0.0126
837.3689	-0.0164
837.5351	0.002
837.7013	-0.0027
837.8674	0.0068
838.0335	-0.005
838.1997	-0.0094
838.3657	0.0036
838.5318	0.008
838.6978	-0.0101
838.8639	0.0196
839.0299	-0.0098
839.1958	0.0199
839.3618	0.0039
839.5277	-0.0227
839.6937	-0.0119
839.8596	0.0093
840.0254	0.0048
840.1913	-0.0046
840.3571	0.0102
840.523	0.0274
840.6888	-0.0103
840.8545	0.0046
841.0203	-0.0181
841.186	-0.0049
841.3517	-0.0096
841.5174	0.0051
841.6831	-0.005
841.8488	0.0064
842.0144	0.0155
842.18	0.0002
842.3456	-0.0011
842.5112	0.003
842.6767	-0.0138
842.8422	0.0015
843.0077	0.0049
843.1732	0.0077
843.3387	-0.0137
843.5042	0.0146
843.6696	0.0191
843.835	-0.0188
844.0004	-0.0028
844.1657	-0.016
844.3311	0.0156
844.4964	0.0014
844.6617	0.0214
844.827	0.009
844.9923	-0.0034
845.1575	-0.0052
845.3227	-0.0245
845.4879	-0.0089
845.6531	0.0022
845.8183	-0.0043
845.9834	-0.0193
846.1485	0.0089
846.3136	-0.0518
846.4787	-0.0177
846.6438	-0.0018
846.8088	0.0027
846.9738	0.01
847.1388	0.0037
847.3038	0.0449
847.4687	0.0011
847.6337	0.0043
847.7986	0.0253
847.9635	-0.0257
848.1284	0.009
848.2932	0.0123
848.458	0.0526
848.6228	-0.0235
848.7876	-0.0327
848.9524	0.0216
849.1172	-0.053
849.2819	0.0223
849.4466	-0.0012
849.6113	-0.0172
849.7759	-0.0221
849.9406	0.0063
850.1052	0.0386
850.2698	0.0083
850.4344	0.0014
850.599	-0.0036
850.7635	0.0174
850.928	-0.0237
851.0925	0.0398
851.257	0.0009
851.4215	0.0368
851.5859	0.0682
851.7503	-0.004
851.9147	0.0038
852.0791	0.0247
852.2434	-0.036
852.4078	0.0034
852.5721	-0.0358
852.7364	-0.0821
852.9007	0.0668
853.0649	-0.0209
853.2291	-0.0099
853.3934	-0.0279
853.5575	-0.0193
853.7217	-0.0623
853.8859	-0.011
854.05	-0.0034
854.2141	-0.0257
854.3782	-0.0285
854.5423	0.0107
854.7063	-0.041
854.8703	-0.0093
855.0343	0.0556
855.1983	0.0199
855.3623	-0.0076
855.5262	0.0344
855.6901	0.0025
855.854	0.0255
856.0179	0.0054
856.1818	-0.0236
856.3456	0.0007
856.5094	-0.0024
856.6732	-0.0731
856.837	-0.0437
857.0008	0.0138
857.1645	0.0008
857.3282	-0.0014
857.4919	-0.0355
857.6556	0.0561
857.8192	0.0265
857.9828	0.0083
858.1465	0.04
858.31	0.0215
858.4736	-0.0759
858.6372	0.0008
858.8007	0.0451
858.9642	-0.0801
859.1277	0.0201
859.2911	-0.0156
859.4546	0.0462
859.618	-0.0653
859.7814	0.0256
859.9448	-0.065
860.1081	-0.1295
860.2715	0.0466
860.4348	-0.0115
860.5981	-0.0153
860.7614	-0.1051
860.9246	-0.0177
861.0879	-0.0491
861.2511	-0.0188
861.4143	-0.0535
861.5774	-0.0659
861.7406	0.0012
861.9037	-0.1703
862.0668	0.0091
862.2299	-0.0192
862.393	0.0842
862.556	0.0441
862.7191	0.0591
862.8821	0.01
863.0451	-0.0094
863.208	-0.1132
863.371	0.1668
863.5339	-0.0691
863.6968	-0.0648
863.8597	0.0796
864.0225	-0.1335
864.1854	-0.0735
864.3482	-0.1014
864.511	-0.0896
864.6737	-0.0432
864.8365	0.0149
864.9992	-0.0883
865.1619	-0.0341
865.3246	-0.1826
865.4873	-0.0126
865.65	-0.0465
865.8126	0.0372
865.9752	-0.1069
866.1378	-0.0518
866.3004	0.0522
866.4629	-0.1494
866.6254	-0.0141
866.7879	-0.0707
866.9504	0.1204
867.1129	0.2133
867.2753	0.1177
867.4377	-0.0669
867.6001	-0.019
867.7625	-0.0143
867.9249	0.0107
868.0872	-0.0717
868.2495	-0.1377
868.4118	-0.1001
868.5741	-0.144
868.7363	0.0639
868.8986	0.0139
869.0608	-0.1494
869.223	-0.0171
869.3851	-0.069
869.5473	-0.1536
869.7094	-0.1629
869.8715	0.195
870.0336	0.0132
870.1957	0.0166
870.3577	0.0185
870.5197	-0.3036
870.6817	-0.1169
870.8437	-0.1601
871.0057	-0.1199
871.1676	0.0206
871.3295	-0.2368
871.4914	-0.0229
871.6533	0.0408
871.8151	-0.1968
871.977	0.375
872.1388	0.043
872.3006	-0.2555
872.4623	-0.0677
872.6241	-0.0972
872.7858	0.0204
872.9475	-0.1701
873.1092	-0.0626
873.2709	-0.0668
873.4325	-0.3658
873.5941	-0.1916
873.7557	-0.2351
873.9173	-0.0332
874.0789	-0.1036
874.2404	0.1469
874.4019	-0.3794
874.5634	-0.2817
874.7249	-0.0435
874.8863	-0.1541
875.0478	0.3702
875.2092	-0.3568
875.3706	-0.0923
875.5319	-0.0703
875.6933	-0.5854
875.8546	-0.2731
876.0159	0.0097
876.1772	-0.0784
876.3385	-0.4798
876.4997	-0.4481
876.6609	-0.2295
876.8221	-0.0669
876.9833	-0.4281
877.1445	-0
877.3056	-0.0608
877.4667	-0.8609
877.6278	0.2677
877.7889	-0.0022
877.9499	-0.3558
878.111	-0.172
878.272	-0.187
878.433	0.0738
878.5939	-0.0196
878.7549	-0.2639
878.9158	0.8153
879.0767	0.1345
879.2376	0.0027
879.3984	-0.3131
879.5593	0.6577
879.7201	-0
879.8809	-0.002
880.0417	-0.0478
880.2024	-0.0679
880.3632	-0.0761
880.5239	-0
880.6846	-0.5697
880.8452	-0.0444
881.0059	-0.2625
881.1665	-0
881.3271	-0.3273
881.4877	-0.2321
881.6483	-0
881.8088	-0.0158
881.9693	0.5181
882.1298	0.5181
882.2903	0.5181
