Data from MonoPyChalIsomerACN10uM450nmA_Absorbance_13-11-13-292.txt Node
Date: Tue Jul 09 13:11:13 BST 2024
User: LASERRRRR
Spectrometer: FLMT03099
Trigger mode: 0
Integration Time (sec): 2.000000E-1
Scans to average: 1
Electric dark correction enabled: true
Nonlinearity correction enabled: false
Boxcar width: 0
XAxis mode: Wavelengths
Number of Pixels in Spectrum: 3648
>>>>>Begin Spectral Data<<<<<
179.3399	-0.0147
179.5586	-0.0147
179.7771	-0.0147
179.9957	0.054
180.2143	-0
180.4329	-0
180.6514	-0.1914
180.8699	0.5301
181.0885	-0.4531
181.307	-0
181.5255	0.8084
181.744	-0.1801
181.9625	0.3001
182.181	0.2848
182.3994	0.2112
182.6179	-0.4529
182.8363	-0
183.0547	0.0505
183.2732	0.1385
183.4916	0.0552
183.71	0.0088
183.9284	-0.0167
184.1467	0.0416
184.3651	0.0916
184.5835	0.2528
184.8018	0.0925
185.0201	0.1313
185.2385	0.02
185.4568	0.0578
185.6751	0.0183
185.8934	-0.0671
186.1117	0.0909
186.3299	-0.02
186.5482	0.004
186.7664	0.0316
186.9847	0.1227
187.2029	0.0747
187.4211	0.0447
187.6393	-0.0272
187.8575	0.1776
188.0757	0.2327
188.2939	0.0494
188.512	0.014
188.7302	0.0846
188.9483	0.1012
189.1665	0.1606
189.3846	0.2062
189.6027	0.1778
189.8208	0.1425
190.0389	0.155
190.257	0.0562
190.475	0.2708
190.6931	0.157
190.9111	0.3068
191.1292	0.2049
191.3472	0.2965
191.5652	0.2975
191.7832	0.4618
192.0012	0.3793
192.2192	0.3912
192.4371	0.4526
192.6551	0.4195
192.873	0.3237
193.091	0.4939
193.3089	0.5343
193.5268	0.6121
193.7447	0.5526
193.9626	0.494
194.1805	0.5225
194.3984	0.5324
194.6162	0.632
194.8341	0.6199
195.0519	0.6163
195.2697	0.6466
195.4875	0.5606
195.7054	0.573
195.9231	0.6449
196.1409	0.6734
196.3587	0.6568
196.5765	0.7158
196.7942	0.8128
197.012	0.6324
197.2297	0.6749
197.4474	0.7824
197.6651	0.6888
197.8828	0.8162
198.1005	0.8466
198.3182	0.7314
198.5358	0.8095
198.7535	0.7837
198.9711	0.8052
199.1888	0.7858
199.4064	0.8581
199.624	0.7574
199.8416	0.7287
200.0592	0.7226
200.2767	0.732
200.4943	0.8262
200.7119	0.9239
200.9294	0.8994
201.1469	0.8921
201.3645	0.9571
201.582	0.9146
201.7995	0.7909
202.017	0.9608
202.2344	0.8903
202.4519	0.9325
202.6694	0.8031
202.8868	0.9827
203.1042	1.0028
203.3217	1.01
203.5391	1.0396
203.7565	0.9222
203.9739	0.8187
204.1913	0.8556
204.4086	0.9031
204.626	1.0506
204.8433	0.9239
205.0607	0.9348
205.278	0.9784
205.4953	1.1215
205.7126	0.9081
205.9299	1.113
206.1472	0.9834
206.3644	0.9287
206.5817	1.0123
206.7989	1.0177
207.0162	1.0499
207.2334	0.9688
207.4506	0.9387
207.6678	0.9834
207.885	1.1079
208.1022	1.0191
208.3194	1.0872
208.5365	1.11
208.7537	1.0325
208.9708	1.0459
209.1879	1.052
209.405	1.0505
209.6222	1.0348
209.8392	1.0879
210.0563	0.9644
210.2734	1.003
210.4905	1.0961
210.7075	1.0529
210.9245	1.0023
211.1416	1.1431
211.3586	1.0728
211.5756	1.0891
211.7926	1.0122
212.0096	1.1104
212.2265	1.057
212.4435	1.0512
212.6604	1.0872
212.8774	1.0307
213.0943	1.0171
213.3112	1.0309
213.5281	1.053
213.745	0.9921
213.9619	0.9703
214.1788	0.9547
214.3956	0.9613
214.6125	0.9439
214.8293	0.8597
215.0461	0.8857
215.2629	0.9224
215.4798	0.8551
215.6965	0.8591
215.9133	0.8366
216.1301	0.7967
216.3469	0.8022
216.5636	0.7985
216.7803	0.7526
216.9971	0.7444
217.2138	0.736
217.4305	0.7417
217.6472	0.6782
217.8639	0.659
218.0805	0.6359
218.2972	0.5809
218.5138	0.5371
218.7305	0.5081
218.9471	0.4833
219.1637	0.4568
219.3803	0.4366
219.5969	0.4015
219.8135	0.3698
220.0301	0.3624
220.2466	0.3794
220.4632	0.3376
220.6797	0.3296
220.8962	0.3211
221.1127	0.3056
221.3292	0.3045
221.5457	0.2951
221.7622	0.3005
221.9787	0.277
222.1951	0.2839
222.4116	0.2778
222.628	0.285
222.8444	0.2651
223.0608	0.2768
223.2772	0.2754
223.4936	0.2762
223.71	0.2702
223.9264	0.2927
224.1427	0.2585
224.3591	0.2748
224.5754	0.2637
224.7917	0.2791
225.008	0.2894
225.2243	0.2796
225.4406	0.2872
225.6569	0.2805
225.8732	0.3022
226.0894	0.2862
226.3057	0.2962
226.5219	0.292
226.7381	0.2873
226.9543	0.2864
227.1705	0.293
227.3867	0.3043
227.6029	0.2944
227.8191	0.2951
228.0352	0.3067
228.2513	0.3138
228.4675	0.3103
228.6836	0.3248
228.8997	0.3213
229.1158	0.3155
229.3319	0.33
229.548	0.3333
229.764	0.3193
229.9801	0.3314
230.1961	0.3462
230.4121	0.329
230.6282	0.3472
230.8442	0.3475
231.0602	0.3548
231.2761	0.3433
231.4921	0.3475
231.7081	0.3597
231.924	0.3683
232.14	0.3704
232.3559	0.3585
232.5718	0.363
232.7877	0.3603
233.0036	0.3683
233.2195	0.3617
233.4353	0.3774
233.6512	0.3708
233.867	0.3758
234.0829	0.3811
234.2987	0.3893
234.5145	0.3738
234.7303	0.3905
234.9461	0.4042
235.1619	0.3891
235.3776	0.3854
235.5934	0.4038
235.8091	0.3918
236.0249	0.3963
236.2406	0.3929
236.4563	0.3919
236.672	0.4067
236.8877	0.3982
237.1034	0.3965
237.319	0.4201
237.5347	0.4094
237.7503	0.4162
237.966	0.4172
238.1816	0.4113
238.3972	0.4225
238.6128	0.4161
238.8284	0.4099
239.0439	0.4115
239.2595	0.4357
239.475	0.4107
239.6906	0.4285
239.9061	0.4189
240.1216	0.4179
240.3371	0.426
240.5526	0.4216
240.7681	0.4052
240.9836	0.4139
241.199	0.4107
241.4145	0.3959
241.6299	0.4016
241.8453	0.399
242.0607	0.3912
242.2761	0.3804
242.4915	0.3797
242.7069	0.3785
242.9223	0.3638
243.1376	0.3727
243.353	0.3507
243.5683	0.3468
243.7836	0.3435
243.9989	0.3289
244.2142	0.3279
244.4295	0.3222
244.6448	0.3206
244.86	0.3147
245.0753	0.298
245.2905	0.2886
245.5057	0.2942
245.721	0.2925
245.9362	0.2728
246.1514	0.2807
246.3665	0.282
246.5817	0.2663
246.7969	0.2694
247.012	0.2694
247.2271	0.2528
247.4423	0.265
247.6574	0.2588
247.8725	0.2474
248.0876	0.2444
248.3026	0.246
248.5177	0.2379
248.7328	0.2301
248.9478	0.2268
249.1628	0.2303
249.3779	0.2217
249.5929	0.2243
249.8079	0.2279
250.0228	0.2298
250.2378	0.22
250.4528	0.2137
250.6677	0.2214
250.8827	0.2142
251.0976	0.21
251.3125	0.2136
251.5274	0.2094
251.7423	0.211
251.9572	0.2059
252.172	0.2064
252.3869	0.2058
252.6017	0.2063
252.8166	0.2049
253.0314	0.1988
253.2462	0.2008
253.461	0.2019
253.6758	0.1952
253.8906	0.197
254.1053	0.1995
254.3201	0.2048
254.5348	0.2047
254.7496	0.2081
254.9643	0.1917
255.179	0.1952
255.3937	0.2069
255.6083	0.2066
255.823	0.1976
256.0377	0.1956
256.2523	0.2016
256.467	0.1983
256.6816	0.1969
256.8962	0.2033
257.1108	0.1953
257.3254	0.1958
257.54	0.1947
257.7545	0.1984
257.9691	0.1983
258.1836	0.1947
258.3981	0.1916
258.6127	0.2034
258.8272	0.1899
259.0417	0.1933
259.2561	0.1989
259.4706	0.1912
259.6851	0.193
259.8995	0.1945
260.114	0.1901
260.3284	0.1945
260.5428	0.1943
260.7572	0.2047
260.9716	0.1944
261.186	0.1974
261.4003	0.2
261.6147	0.191
261.829	0.2038
262.0433	0.1982
262.2577	0.2003
262.472	0.204
262.6863	0.1893
262.9005	0.1976
263.1148	0.185
263.3291	0.1833
263.5433	0.187
263.7576	0.2
263.9718	0.1923
264.186	0.1866
264.4002	0.1806
264.6144	0.1842
264.8286	0.1853
265.0427	0.1758
265.2569	0.1843
265.471	0.1772
265.6851	0.1818
265.8993	0.1816
266.1134	0.1723
266.3275	0.1763
266.5415	0.1759
266.7556	0.182
266.9697	0.1749
267.1837	0.1767
267.3978	0.1877
267.6118	0.1838
267.8258	0.1891
268.0398	0.1945
268.2538	0.1932
268.4677	0.1889
268.6817	0.1865
268.8957	0.1799
269.1096	0.1802
269.3235	0.1789
269.5374	0.1736
269.7514	0.1643
269.9652	0.1668
270.1791	0.1514
270.393	0.1516
270.6068	0.1463
270.8207	0.1454
271.0345	0.1446
271.2483	0.1492
271.4622	0.1521
271.676	0.1363
271.8897	0.1357
272.1035	0.1315
272.3173	0.1393
272.531	0.1391
272.7448	0.1324
272.9585	0.1404
273.1722	0.1337
273.3859	0.1319
273.5996	0.1352
273.8133	0.1354
274.0269	0.1328
274.2406	0.1346
274.4542	0.1274
274.6679	0.1329
274.8815	0.1308
275.0951	0.1342
275.3087	0.1291
275.5223	0.1232
275.7358	0.1318
275.9494	0.1373
276.1629	0.1384
276.3765	0.1318
276.59	0.1371
276.8035	0.1383
277.017	0.1338
277.2305	0.1338
277.444	0.1277
277.6574	0.1335
277.8709	0.1441
278.0843	0.1374
278.2978	0.1391
278.5112	0.1404
278.7246	0.139
278.938	0.1416
279.1513	0.138
279.3647	0.1344
279.5781	0.1325
279.7914	0.1373
280.0047	0.1436
280.2181	0.1443
280.4314	0.1455
280.6447	0.1394
280.8579	0.1476
281.0712	0.1425
281.2845	0.1454
281.4977	0.1466
281.711	0.1422
281.9242	0.1446
282.1374	0.145
282.3506	0.143
282.5638	0.1476
282.7769	0.151
282.9901	0.1428
283.2033	0.155
283.4164	0.1505
283.6295	0.1581
283.8426	0.1588
284.0557	0.1496
284.2688	0.1459
284.4819	0.1483
284.695	0.1574
284.908	0.1549
285.1211	0.1545
285.3341	0.1504
285.5471	0.1585
285.7601	0.155
285.9731	0.1529
286.1861	0.1615
286.3991	0.158
286.612	0.1606
286.825	0.1569
287.0379	0.1576
287.2508	0.1533
287.4637	0.1657
287.6766	0.1554
287.8895	0.1614
288.1024	0.1651
288.3152	0.1597
288.5281	0.1633
288.7409	0.1536
288.9538	0.1656
289.1666	0.1686
289.3794	0.1616
289.5922	0.1642
289.8049	0.1621
290.0177	0.1663
290.2304	0.1573
290.4432	0.1687
290.6559	0.1691
290.8686	0.1653
291.0813	0.1684
291.294	0.1681
291.5067	0.1626
291.7194	0.1617
291.932	0.1655
292.1447	0.1699
292.3573	0.1594
292.5699	0.1741
292.7825	0.1687
292.9951	0.1733
293.2077	0.1651
293.4203	0.1665
293.6328	0.1733
293.8454	0.1677
294.0579	0.1681
294.2704	0.1714
294.4829	0.1751
294.6954	0.1638
294.9079	0.176
295.1204	0.1759
295.3328	0.1708
295.5453	0.1614
295.7577	0.1617
295.9701	0.1647
296.1825	0.1697
296.3949	0.1657
296.6073	0.1711
296.8197	0.1666
297.0321	0.1703
297.2444	0.1592
297.4567	0.1631
297.6691	0.17
297.8814	0.1639
298.0937	0.1658
298.306	0.1682
298.5182	0.166
298.7305	0.171
298.9428	0.165
299.155	0.1695
299.3672	0.1691
299.5794	0.1703
299.7916	0.1692
300.0038	0.1642
300.216	0.1807
300.4282	0.1705
300.6403	0.1654
300.8525	0.1683
301.0646	0.163
301.2767	0.1645
301.4888	0.1602
301.7009	0.171
301.913	0.169
302.125	0.1654
302.3371	0.1712
302.5491	0.1675
302.7612	0.1633
302.9732	0.1741
303.1852	0.1596
303.3972	0.1618
303.6092	0.158
303.8211	0.1706
304.0331	0.1558
304.245	0.1637
304.457	0.1709
304.6689	0.1645
304.8808	0.1537
305.0927	0.1575
305.3046	0.1556
305.5164	0.1528
305.7283	0.1584
305.9401	0.1559
306.152	0.153
306.3638	0.1652
306.5756	0.1505
306.7874	0.1469
306.9992	0.1456
307.2109	0.1415
307.4227	0.1474
307.6344	0.1376
307.8462	0.1365
308.0579	0.1353
308.2696	0.1312
308.4813	0.1305
308.693	0.1345
308.9046	0.1282
309.1163	0.1233
309.328	0.1226
309.5396	0.1222
309.7512	0.1242
309.9628	0.1219
310.1744	0.122
310.386	0.1121
310.5976	0.1116
310.8091	0.1171
311.0207	0.1168
311.2322	0.1112
311.4437	0.114
311.6552	0.1146
311.8667	0.1156
312.0782	0.1063
312.2897	0.1052
312.5012	0.1078
312.7126	0.1008
312.924	0.098
313.1355	0.0984
313.3469	0.1039
313.5583	0.1042
313.7696	0.0997
313.981	0.0954
314.1924	0.0927
314.4037	0.0933
314.6151	0.0921
314.8264	0.0996
315.0377	0.1016
315.249	0.1003
315.4603	0.0954
315.6716	0.0953
315.8828	0.0928
316.0941	0.0967
316.3053	0.0937
316.5165	0.0869
316.7277	0.0828
316.9389	0.097
317.1501	0.0846
317.3613	0.0895
317.5724	0.0921
317.7836	0.0837
317.9947	0.0925
318.2058	0.0856
318.417	0.0886
318.6281	0.0883
318.8391	0.0831
319.0502	0.0838
319.2613	0.0869
319.4723	0.0931
319.6834	0.091
319.8944	0.0927
320.1054	0.0887
320.3164	0.0967
320.5274	0.0976
320.7383	0.0805
320.9493	0.0841
321.1602	0.0958
321.3712	0.0965
321.5821	0.0903
321.793	0.0866
322.0039	0.0871
322.2148	0.0891
322.4257	0.088
322.6365	0.089
322.8474	0.0893
323.0582	0.1003
323.269	0.0926
323.4798	0.0901
323.6906	0.0913
323.9014	0.088
324.1122	0.0949
324.3229	0.0937
324.5337	0.0802
324.7444	0.0888
324.9551	0.0963
325.1658	0.0925
325.3765	0.0894
325.5872	0.0954
325.7979	0.097
326.0085	0.0985
326.2192	0.0966
326.4298	0.0965
326.6404	0.0938
326.851	0.0913
327.0616	0.0902
327.2722	0.1005
327.4828	0.0924
327.6933	0.0952
327.9039	0.0973
328.1144	0.0956
328.3249	0.1004
328.5354	0.09
328.7459	0.0905
328.9564	0.0939
329.1669	0.0934
329.3773	0.0902
329.5878	0.1034
329.7982	0.1018
330.0086	0.0925
330.219	0.0975
330.4294	0.0905
330.6398	0.0992
330.8502	0.0984
331.0605	0.0948
331.2708	0.1005
331.4812	0.0982
331.6915	0.0895
331.9018	0.0897
332.1121	0.1023
332.3224	0.0941
332.5326	0.0897
332.7429	0.1016
332.9531	0.0961
333.1633	0.1044
333.3735	0.1094
333.5837	0.0952
333.7939	0.0971
334.0041	0.0999
334.2143	0.0907
334.4244	0.0965
334.6346	0.0949
334.8447	0.0974
335.0548	0.0995
335.2649	0.0973
335.475	0.0951
335.685	0.1042
335.8951	0.0983
336.1051	0.0983
336.3152	0.0954
336.5252	0.1036
336.7352	0.0984
336.9452	0.101
337.1552	0.1021
337.3652	0.1052
337.5751	0.0973
337.7851	0.0905
337.995	0.1057
338.2049	0.0992
338.4148	0.1013
338.6247	0.0951
338.8346	0.1039
339.0445	0.1029
339.2543	0.1013
339.4642	0.1072
339.674	0.105
339.8838	0.1056
340.0936	0.1082
340.3034	0.1153
340.5132	0.106
340.7229	0.1124
340.9327	0.1094
341.1424	0.1086
341.3522	0.1012
341.5619	0.1189
341.7716	0.1148
341.9813	0.1146
342.1909	0.119
342.4006	0.1127
342.6102	0.1141
342.8199	0.1112
343.0295	0.1058
343.2391	0.1146
343.4487	0.1022
343.6583	0.1173
343.8679	0.1082
344.0774	0.1126
344.287	0.118
344.4965	0.1129
344.706	0.1251
344.9155	0.122
345.125	0.1175
345.3345	0.1225
345.544	0.1079
345.7534	0.1181
345.9629	0.1183
346.1723	0.1185
346.3817	0.1227
346.5911	0.1276
346.8005	0.1254
347.0099	0.1151
347.2193	0.1271
347.4286	0.1269
347.638	0.1302
347.8473	0.1262
348.0566	0.1334
348.2659	0.1174
348.4752	0.1292
348.6845	0.1308
348.8937	0.1324
349.103	0.13
349.3122	0.1321
349.5214	0.1359
349.7306	0.1281
349.9398	0.1317
350.149	0.1323
350.3582	0.1287
350.5674	0.147
350.7765	0.1292
350.9856	0.1295
351.1948	0.1408
351.4039	0.135
351.613	0.1306
351.822	0.1356
352.0311	0.1341
352.2402	0.1374
352.4492	0.1331
352.6582	0.1368
352.8672	0.143
353.0762	0.1527
353.2852	0.1472
353.4942	0.1473
353.7032	0.1413
353.9121	0.1445
354.1211	0.1475
354.33	0.137
354.5389	0.1443
354.7478	0.1451
354.9567	0.1431
355.1655	0.154
355.3744	0.1527
355.5833	0.1498
355.7921	0.1529
356.0009	0.1483
356.2097	0.153
356.4185	0.15
356.6273	0.157
356.8361	0.1525
357.0448	0.1611
357.2536	0.1534
357.4623	0.1526
357.671	0.1556
357.8797	0.1609
358.0884	0.1572
358.2971	0.1628
358.5057	0.1625
358.7144	0.1744
358.923	0.1814
359.1316	0.1636
359.3402	0.1771
359.5488	0.1678
359.7574	0.1779
359.966	0.1777
360.1746	0.1763
360.3831	0.1765
360.5916	0.178
360.8002	0.1725
361.0087	0.1766
361.2172	0.1757
361.4256	0.1836
361.6341	0.1809
361.8426	0.1879
362.051	0.1716
362.2594	0.1843
362.4678	0.1833
362.6762	0.1855
362.8846	0.1923
363.093	0.1891
363.3014	0.1948
363.5097	0.1946
363.718	0.1987
363.9264	0.1817
364.1347	0.2069
364.343	0.1875
364.5513	0.1889
364.7595	0.2022
364.9678	0.1964
365.176	0.199
365.3842	0.183
365.5925	0.1951
365.8007	0.1913
366.0089	0.2075
366.217	0.1929
366.4252	0.2079
366.6333	0.2019
366.8415	0.2086
367.0496	0.2164
367.2577	0.2092
367.4658	0.2119
367.6739	0.2073
367.882	0.2075
368.09	0.2118
368.2981	0.2165
368.5061	0.2147
368.7141	0.2132
368.9221	0.2136
369.1301	0.2232
369.3381	0.2229
369.5461	0.2221
369.754	0.2107
369.962	0.21
370.1699	0.2307
370.3778	0.2174
370.5857	0.2226
370.7936	0.2179
371.0015	0.2341
371.2093	0.2154
371.4172	0.2327
371.625	0.2309
371.8328	0.2317
372.0406	0.2503
372.2484	0.221
372.4562	0.2238
372.664	0.232
372.8717	0.2343
373.0795	0.2355
373.2872	0.2327
373.4949	0.2371
373.7026	0.2357
373.9103	0.235
374.118	0.2406
374.3256	0.2407
374.5333	0.2373
374.7409	0.2371
374.9485	0.2318
375.1561	0.2365
375.3637	0.2343
375.5713	0.2348
375.7789	0.2395
375.9864	0.2521
376.194	0.242
376.4015	0.2536
376.609	0.2565
376.8165	0.2472
377.024	0.2437
377.2315	0.2519
377.4389	0.2531
377.6464	0.2456
377.8538	0.2473
378.0612	0.251
378.2686	0.2457
378.476	0.2584
378.6834	0.256
378.8908	0.2663
379.0981	0.2574
379.3055	0.2613
379.5128	0.2561
379.7201	0.2623
379.9274	0.2603
380.1347	0.2659
380.342	0.2609
380.5492	0.269
380.7565	0.2527
380.9637	0.2645
381.1709	0.2599
381.3781	0.2636
381.5853	0.2807
381.7925	0.2735
381.9997	0.262
382.2068	0.2631
382.4139	0.2749
382.6211	0.2643
382.8282	0.2637
383.0353	0.2639
383.2424	0.2692
383.4494	0.2632
383.6565	0.265
383.8635	0.2849
384.0706	0.2795
384.2776	0.2789
384.4846	0.2742
384.6916	0.2703
384.8986	0.2696
385.1055	0.282
385.3125	0.283
385.5194	0.2755
385.7263	0.2738
385.9333	0.2818
386.1402	0.2792
386.347	0.2809
386.5539	0.2736
386.7608	0.2777
386.9676	0.2763
387.1744	0.2693
387.3813	0.2681
387.5881	0.2792
387.7948	0.2798
388.0016	0.2732
388.2084	0.2754
388.4151	0.2616
388.6219	0.2782
388.8286	0.2799
389.0353	0.2661
389.242	0.2723
389.4487	0.2607
389.6553	0.2734
389.862	0.2682
390.0686	0.2612
390.2753	0.2687
390.4819	0.2626
390.6885	0.2637
390.8951	0.2616
391.1016	0.2579
391.3082	0.2572
391.5147	0.2537
391.7213	0.259
391.9278	0.2461
392.1343	0.2577
392.3408	0.2457
392.5473	0.2559
392.7537	0.2535
392.9602	0.2455
393.1666	0.253
393.373	0.2489
393.5794	0.2509
393.7858	0.2457
393.9922	0.2405
394.1986	0.2362
394.4049	0.2473
394.6113	0.2528
394.8176	0.2185
395.0239	0.2507
395.2302	0.2293
395.4365	0.2397
395.6428	0.229
395.8491	0.2373
396.0553	0.231
396.2615	0.235
396.4678	0.2373
396.674	0.2343
396.8802	0.2359
397.0863	0.2309
397.2925	0.2391
397.4987	0.2346
397.7048	0.2265
397.9109	0.2418
398.117	0.2373
398.3231	0.2363
398.5292	0.2268
398.7353	0.2268
398.9413	0.2291
399.1474	0.2413
399.3534	0.2291
399.5594	0.2207
399.7654	0.2326
399.9714	0.2367
400.1774	0.2287
400.3833	0.2277
400.5893	0.2164
400.7952	0.2217
401.0011	0.2369
401.207	0.2243
401.4129	0.2198
401.6188	0.2242
401.8247	0.2251
402.0305	0.2345
402.2364	0.2315
402.4422	0.2267
402.648	0.2403
402.8538	0.2294
403.0596	0.2202
403.2654	0.2171
403.4711	0.2216
403.6768	0.2272
403.8826	0.2375
404.0883	0.2298
404.294	0.2309
404.4997	0.2231
404.7054	0.2323
404.911	0.2403
405.1167	0.2295
405.3223	0.2211
405.5279	0.2247
405.7335	0.226
405.9391	0.2349
406.1447	0.2349
406.3502	0.2193
406.5558	0.2344
406.7613	0.2248
406.9668	0.2335
407.1724	0.2338
407.3778	0.2418
407.5833	0.2225
407.7888	0.2425
407.9942	0.2292
408.1997	0.2248
408.4051	0.2256
408.6105	0.2319
408.8159	0.2421
409.0213	0.2271
409.2267	0.2307
409.432	0.2261
409.6374	0.227
409.8427	0.2394
410.048	0.2231
410.2533	0.2328
410.4586	0.2296
410.6639	0.2251
410.8691	0.2214
411.0744	0.2288
411.2796	0.2368
411.4848	0.2142
411.69	0.2331
411.8952	0.2259
412.1004	0.2252
412.3056	0.237
412.5107	0.2303
412.7158	0.2315
412.921	0.2346
413.1261	0.2204
413.3312	0.2313
413.5362	0.2336
413.7413	0.2222
413.9464	0.2221
414.1514	0.2223
414.3564	0.2329
414.5614	0.2312
414.7664	0.2298
414.9714	0.214
415.1764	0.2176
415.3813	0.2112
415.5863	0.2251
415.7912	0.2305
415.9961	0.2271
416.201	0.2277
416.4059	0.2163
416.6108	0.2328
416.8156	0.2242
417.0205	0.2238
417.2253	0.2236
417.4301	0.2262
417.6349	0.2227
417.8397	0.2269
418.0445	0.2177
418.2492	0.2197
418.454	0.2274
418.6587	0.2153
418.8634	0.2197
419.0681	0.2159
419.2728	0.2247
419.4775	0.2208
419.6822	0.2195
419.8868	0.2029
420.0915	0.2123
420.2961	0.2134
420.5007	0.211
420.7053	0.2128
420.9099	0.2078
421.1144	0.211
421.319	0.2021
421.5235	0.218
421.728	0.2043
421.9325	0.209
422.137	0.2075
422.3415	0.2161
422.546	0.2099
422.7504	0.2046
422.9549	0.211
423.1593	0.1964
423.3637	0.2011
423.5681	0.2202
423.7725	0.1944
423.9769	0.1961
424.1812	0.1996
424.3856	0.2022
424.5899	0.2084
424.7942	0.1958
424.9985	0.1918
425.2028	0.1843
425.4071	0.1886
425.6113	0.1995
425.8156	0.1817
426.0198	0.1974
426.224	0.1841
426.4282	0.1837
426.6324	0.1924
426.8366	0.1875
427.0407	0.1855
427.2449	0.1926
427.449	0.1795
427.6531	0.1847
427.8572	0.1717
428.0613	0.1772
428.2654	0.1685
428.4694	0.1852
428.6735	0.1773
428.8775	0.1625
429.0815	0.1556
429.2855	0.1757
429.4895	0.1576
429.6935	0.1574
429.8975	0.1664
430.1014	0.1607
430.3053	0.1664
430.5093	0.1584
430.7132	0.1471
430.9171	0.153
431.1209	0.1662
431.3248	0.1557
431.5286	0.1538
431.7325	0.1447
431.9363	0.1546
432.1401	0.1493
432.3439	0.1443
432.5477	0.1467
432.7514	0.1362
432.9552	0.1435
433.1589	0.1289
433.3627	0.1345
433.5664	0.1334
433.7701	0.1331
433.9737	0.1216
434.1774	0.1343
434.3811	0.115
434.5847	0.1269
434.7883	0.1263
434.9919	0.1261
435.1955	0.1131
435.3991	0.113
435.6027	0.1145
435.8062	0.1161
436.0098	0.1187
436.2133	0.1147
436.4168	0.1202
436.6203	0.1083
436.8238	0.1051
437.0272	0.1092
437.2307	0.1034
437.4341	0.1038
437.6375	0.1114
437.841	0.0889
438.0443	0.0957
438.2477	0.0948
438.4511	0.1094
438.6545	0.093
438.8578	0.0979
439.0611	0.0837
439.2644	0.0962
439.4677	0.0945
439.671	0.0889
439.8743	0.0958
440.0775	0.0801
440.2808	0.0698
440.484	0.0805
440.6872	0.0749
440.8904	0.0772
441.0936	0.0723
441.2967	0.0796
441.4999	0.0728
441.703	0.0725
441.9062	0.0704
442.1093	0.0739
442.3124	0.0732
442.5155	0.0761
442.7185	0.0564
442.9216	0.0627
443.1246	0.062
443.3276	0.0656
443.5307	0.0608
443.7337	0.0588
443.9366	0.0637
444.1396	0.053
444.3426	0.0576
444.5455	0.0463
444.7484	0.0403
444.9513	0.0532
445.1542	0.0522
445.3571	0.0513
445.56	0.0455
445.7628	0.0428
445.9657	0.052
446.1685	0.0503
446.3713	0.0433
446.5741	0.0445
446.7769	0.0475
446.9797	0.036
447.1824	0.0382
447.3852	0.045
447.5879	0.0364
447.7906	0.0375
447.9933	0.0372
448.196	0.0378
448.3986	0.0408
448.6013	0.031
448.8039	0.0328
449.0066	0.0398
449.2092	0.029
449.4118	0.0307
449.6143	0.0344
449.8169	0.0144
450.0195	0.0204
450.222	0.0156
450.4245	0.0209
450.627	0.0282
450.8295	0.0202
451.032	0.0291
451.2345	0.0213
451.4369	0.0218
451.6394	0.0201
451.8418	0.0139
452.0442	0.0167
452.2466	0.0191
452.449	0.0216
452.6513	0.0257
452.8537	0.0226
453.056	0.017
453.2583	0.0181
453.4607	0.021
453.663	0.0276
453.8652	0.022
454.0675	0.0196
454.2697	0.0199
454.472	0.0222
454.6742	0.0104
454.8764	0.023
455.0786	0.0251
455.2808	0.0108
455.4829	0.0163
455.6851	0.0021
455.8872	0.0136
456.0893	0.001
456.2915	0.0094
456.4935	0.0028
456.6956	0.0177
456.8977	0.012
457.0997	0.0123
457.3018	0.0121
457.5038	0.006
457.7058	-0.0015
457.9078	0.0099
458.1098	-0.0016
458.3117	0.011
458.5137	0.0111
458.7156	0.0118
458.9175	-0.0018
459.1194	0.0035
459.3213	0.006
459.5232	0.0073
459.725	0.0009
459.9269	0.0111
460.1287	0.0055
460.3305	-0.0006
460.5323	0.015
460.7341	0.0093
460.9359	0.0068
461.1376	0
461.3394	0.0047
461.5411	0.0039
461.7428	0.008
461.9445	0.0012
462.1462	0.0021
462.3479	-0.0032
462.5495	0.0034
462.7512	-0.0005
462.9528	0.0055
463.1544	0.0025
463.356	0.0012
463.5576	0.0024
463.7592	0.0037
463.9607	0.0051
464.1623	0.0017
464.3638	0.0029
464.5653	0.0046
464.7668	-0.001
464.9683	0.0089
465.1697	0.0046
465.3712	0.0065
465.5726	-0.0064
465.7741	-0.0096
465.9755	0.002
466.1769	-0.0179
466.3782	0.0067
466.5796	-0.0106
466.7809	-0.0083
466.9823	-0.0098
467.1836	-0.0024
467.3849	0.0083
467.5862	0.0011
467.7875	-0.0018
467.9887	0.0086
468.19	0.0049
468.3912	-0.0041
468.5924	-0.0018
468.7936	-0.0118
468.9948	0.0055
469.196	0.0032
469.3972	0.0026
469.5983	0.0066
469.7994	-0.0054
470.0006	-0.0094
470.2017	-0.0084
470.4027	-0.0026
470.6038	0.0004
470.8049	-0.0008
471.0059	-0.0007
471.2069	0.0074
471.408	-0.0044
471.6089	-0.0022
471.8099	0.0004
472.0109	-0.0087
472.2119	-0.0118
472.4128	0.0064
472.6137	-0.0132
472.8146	-0.0126
473.0155	-0.0032
473.2164	-0.0219
473.4173	-0.0142
473.6181	0.0012
473.819	-0.0041
474.0198	0.0016
474.2206	-0.0027
474.4214	-0.0002
474.6222	-0.0092
474.8229	-0.006
475.0237	0.0008
475.2244	-0.0029
475.4251	-0.0075
475.6258	0.0045
475.8265	-0.0007
476.0272	-0.0021
476.2278	-0.0021
476.4285	0.0028
476.6291	-0.0082
476.8297	-0.0056
477.0303	-0.0098
477.2309	-0.0047
477.4315	-0.0034
477.632	-0.0123
477.8326	0.0036
478.0331	-0.0046
478.2336	-0.0037
478.4341	-0.0092
478.6346	-0.002
478.8351	-0.0101
479.0355	-0.0096
479.236	-0.0045
479.4364	-0.0025
479.6368	0.0021
479.8372	-0.0018
480.0376	-0.0007
480.2379	-0.0061
480.4383	-0.0024
480.6386	-0.0104
480.8389	-0.014
481.0392	-0.01
481.2395	-0.0102
481.4398	-0.0034
481.6401	-0.008
481.8403	-0.004
482.0405	-0.0129
482.2408	0.0016
482.441	0.0026
482.6411	0.0011
482.8413	-0.0098
483.0415	0.002
483.2416	-0.0011
483.4417	-0.0096
483.6419	-0.0015
483.8419	-0.0076
484.042	0.0033
484.2421	-0.0055
484.4422	-0.0072
484.6422	-0.0143
484.8422	-0.0058
485.0422	-0.0026
485.2422	-0.0087
485.4422	-0.0065
485.6422	-0.0028
485.8421	-0.0072
486.042	0.0005
486.242	-0.0087
486.4419	-0.0038
486.6417	-0.0055
486.8416	-0.003
487.0415	-0.0082
487.2413	-0.0003
487.4411	-0.0024
487.641	-0.0047
487.8408	-0.0098
488.0405	-0.0037
488.2403	-0.0107
488.4401	-0.01
488.6398	-0.0065
488.8395	-0.013
489.0392	-0.0028
489.2389	-0.0093
489.4386	-0.0053
489.6383	-0.0058
489.8379	-0.0044
490.0376	-0.0084
490.2372	-0.0075
490.4368	-0.0059
490.6364	-0.0058
490.836	-0.0115
491.0355	-0.0024
491.2351	-0.0079
491.4346	-0.0139
491.6341	-0.0092
491.8336	-0.0103
492.0331	-0.0129
492.2326	-0.006
492.432	-0.0049
492.6315	-0.0031
492.8309	-0.0065
493.0303	-0.0116
493.2297	0.0009
493.4291	-0.0128
493.6284	-0.0007
493.8278	-0.0049
494.0271	-0.0065
494.2264	-0.0097
494.4257	-0.0002
494.625	-0.0048
494.8243	-0.0079
495.0236	-0.0114
495.2228	-0.0008
495.422	-0.0063
495.6213	-0.0134
495.8205	0.0042
496.0196	-0.0021
496.2188	-0.0116
496.418	-0.0058
496.6171	-0.0088
496.8162	-0.0068
497.0153	0.001
497.2144	0.0011
497.4135	-0.0011
497.6126	-0.0022
497.8116	0.0013
498.0107	-0.0085
498.2097	-0.005
498.4087	-0.003
498.6077	-0.0086
498.8067	-0.0076
499.0056	0.0012
499.2046	-0.0043
499.4035	-0.0109
499.6024	-0.0084
499.8013	-0.002
500.0002	-0.0093
500.199	-0.0017
500.3979	-0.006
500.5967	-0.0113
500.7956	-0.0128
500.9944	-0.0025
501.1932	-0.0012
501.3919	-0.0064
501.5907	-0.0073
501.7895	-0.0059
501.9882	-0.0111
502.1869	-0.008
502.3856	-0.0033
502.5843	-0.0076
502.783	-0.0049
502.9816	-0.0092
503.1803	-0.0071
503.3789	-0.0059
503.5775	-0.0019
503.7761	-0.0029
503.9747	-0.0121
504.1732	-0.0071
504.3718	-0.0016
504.5703	-0.0026
504.7689	0.0021
504.9674	-0.0015
505.1658	-0.0044
505.3643	-0.0049
505.5628	0.007
505.7612	-0.0101
505.9597	-0.0027
506.1581	-0.0082
506.3565	-0.0077
506.5549	-0.007
506.7532	-0.0042
506.9516	-0.0053
507.1499	-0.0057
507.3482	-0.0055
507.5465	0.0007
507.7448	-0.0062
507.9431	-0.0022
508.1414	-0.0069
508.3396	0.0036
508.5379	-0.0064
508.7361	-0.0015
508.9343	-0.0049
509.1325	-0.0059
509.3306	0.0027
509.5288	-0.0008
509.7269	-0.0099
509.9251	-0.0045
510.1232	-0.0021
510.3213	-0.0078
510.5193	-0.0074
510.7174	0.0028
510.9154	-0.0088
511.1135	-0.0106
511.3115	-0.0056
511.5095	-0.0069
511.7075	-0.0039
511.9055	-0.0072
512.1034	-0.0074
512.3014	-0.0066
512.4993	-0.0029
512.6972	-0.0027
512.8951	-0.0073
513.093	-0.0063
513.2908	-0.0043
513.4887	-0.004
513.6865	-0.0076
513.8844	-0.002
514.0822	-0.0049
514.2799	-0.004
514.4777	-0.0063
514.6755	-0.0081
514.8732	-0.0069
515.0709	-0.0098
515.2687	-0.0115
515.4664	-0.0067
515.664	-0.0058
515.8617	-0.005
516.0594	-0.0023
516.257	0.0037
516.4546	-0.0077
516.6522	-0.0068
516.8498	-0.0071
517.0474	0.0006
517.2449	-0.0063
517.4425	-0.0038
517.64	-0.0082
517.8375	-0.0051
518.035	0.0002
518.2325	-0.0105
518.43	-0.0029
518.6274	-0.0094
518.8249	-0.0007
519.0223	-0.0139
519.2197	-0.0027
519.4171	0.001
519.6145	-0.0042
519.8118	-0.0082
520.0092	-0.008
520.2065	-0.0114
520.4038	-0.0038
520.6011	-0.0146
520.7984	-0.0061
520.9956	-0.0125
521.1929	-0.0079
521.3901	-0.009
521.5874	-0.009
521.7846	0.0009
521.9818	-0.0068
522.1789	-0.0021
522.3761	-0.0113
522.5732	-0.0034
522.7704	-0.0059
522.9675	-0.0075
523.1646	-0.008
523.3617	-0.0012
523.5587	-0.0047
523.7558	-0.0018
523.9528	-0.0031
524.1498	-0.0145
524.3468	-0.0065
524.5438	-0.0044
524.7408	-0.0124
524.9378	-0.0077
525.1347	-0.0007
525.3316	0.0001
525.5285	-0.0021
525.7254	-0.0121
525.9223	0.0015
526.1192	-0.007
526.316	-0.0013
526.5129	-0.005
526.7097	-0.0137
526.9065	-0.0104
527.1033	-0.0037
527.3	-0.0067
527.4968	-0.0099
527.6935	-0.0045
527.8903	-0.0063
528.087	-0.0122
528.2837	-0.003
528.4804	-0.0075
528.677	-0.0059
528.8737	-0.0119
529.0703	-0.0033
529.2669	0.0054
529.4635	-0.0046
529.6601	-0.005
529.8567	-0.0036
530.0532	-0.0024
530.2498	-0.0056
530.4463	-0.0054
530.6428	-0.0007
530.8393	0.0007
531.0358	-0.0059
531.2322	-0.0064
531.4287	-0.0161
531.6251	-0.0083
531.8215	0.0014
532.0179	-0.0114
532.2143	-0.0018
532.4107	0.0001
532.607	-0.0056
532.8034	-0.0081
532.9997	-0.0005
533.196	-0.0135
533.3923	-0.0014
533.5886	-0.0019
533.7848	-0.0002
533.9811	-0.0028
534.1773	-0.0053
534.3735	-0.0038
534.5697	-0.0006
534.7659	-0.0017
534.9621	-0.0026
535.1582	-0.0103
535.3544	-0.0063
535.5505	-0.001
535.7466	-0.012
535.9427	-0.0061
536.1387	-0.003
536.3348	0.001
536.5308	-0.0027
536.7269	-0.005
536.9229	-0.0017
537.1189	-0.0116
537.3148	-0.0039
537.5108	0.0019
537.7068	-0.0054
537.9027	-0.0024
538.0986	0.0045
538.2945	0.0005
538.4904	-0.0102
538.6863	-0.0032
538.8821	-0.0062
539.078	-0.0074
539.2738	-0.0052
539.4696	-0.008
539.6654	-0.0062
539.8611	-0.0054
540.0569	-0.0064
540.2526	-0.0049
540.4484	0.0126
540.6441	0.0013
540.8398	-0.0129
541.0355	-0.0009
541.2311	0.0019
541.4268	-0.005
541.6224	-0.0015
541.818	-0.0026
542.0136	-0.0059
542.2092	-0.008
542.4048	-0.0013
542.6003	-0.0053
542.7959	0.0024
542.9914	-0.0061
543.1869	-0.003
543.3824	-0.0053
543.5779	-0.0053
543.7734	-0.005
543.9688	-0.0136
544.1642	-0.008
544.3596	0.002
544.555	-0.0045
544.7504	-0.0053
544.9458	-0.0034
545.1411	0.0057
545.3365	-0.0056
545.5318	-0.004
545.7271	0.0039
545.9224	-0.0014
546.1177	-0.0093
546.3129	-0.0008
546.5081	-0.0018
546.7034	-0.0093
546.8986	-0.0063
547.0938	-0.0028
547.289	0.0003
547.4841	-0.0073
547.6793	-0.0016
547.8744	-0.0025
548.0695	-0.0005
548.2646	-0.007
548.4597	0.0009
548.6548	-0.0015
548.8498	-0.0067
549.0448	0.0017
549.2399	-0.0039
549.4349	-0.0019
549.6298	-0.0076
549.8248	-0.0021
550.0198	-0.0013
550.2147	-0.0038
550.4096	-0.0061
550.6045	-0.0064
550.7994	0.001
550.9943	-0.0035
551.1892	-0.0077
551.384	-0.0097
551.5788	-0.0046
551.7737	-0.0003
551.9685	-0.0076
552.1632	-0.0051
552.358	-0.0113
552.5528	-0.0032
552.7475	-0.0157
552.9422	-0.0061
553.1369	-0.0053
553.3316	-0.0012
553.5263	-0.0068
553.7209	-0.0043
553.9156	-0.0011
554.1102	-0.0103
554.3048	-0.0043
554.4994	-0.0043
554.694	0.0012
554.8885	-0.0034
555.0831	0.0016
555.2776	-0.0023
555.4721	-0.0066
555.6666	-0.004
555.8611	-0.0084
556.0555	-0.001
556.25	-0.0109
556.4444	-0.0045
556.6388	-0.0089
556.8332	-0.0068
557.0276	-0.006
557.222	-0.0057
557.4163	-0.0021
557.6107	-0.009
557.805	-0.0039
557.9993	-0.0059
558.1936	-0.0048
558.3879	0.0043
558.5821	-0.0047
558.7764	-0.0122
558.9706	-0.0083
559.1648	-0.0057
559.359	-0.0105
559.5532	-0.0058
559.7473	-0.0084
559.9415	-0.0064
560.1356	-0.0069
560.3297	-0.0094
560.5238	-0.005
560.7179	-0.0058
560.9119	-0.0013
561.106	-0.0002
561.3	-0.0042
561.494	-0.0064
561.688	-0.0036
561.882	0.0003
562.076	-0.0078
562.2699	-0.002
562.4639	-0.0035
562.6578	-0.003
562.8517	-0.0057
563.0456	-0.0033
563.2395	-0.0036
563.4333	-0.0025
563.6272	-0.0056
563.821	-0.002
564.0148	0.0027
564.2086	-0.0036
564.4024	-0.0065
564.5961	0.0038
564.7899	-0.0028
564.9836	0.0037
565.1773	-0.0072
565.371	-0.0033
565.5647	-0.0073
565.7584	-0.0001
565.952	0.0007
566.1456	-0.007
566.3393	-0.0029
566.5329	-0.0003
566.7264	0.0031
566.92	0.0032
567.1136	-0.0024
567.3071	-0.0024
567.5006	-0.0017
567.6941	-0.0012
567.8876	-0.0062
568.0811	-0.0061
568.2745	-0.0041
568.468	-0.0074
568.6614	-0.0074
568.8548	-0.0074
569.0482	-0.0061
569.2416	-0.0056
569.4349	-0.0052
569.6283	-0.0081
569.8216	-0.0072
570.0149	-0.009
570.2082	0
570.4015	-0.0058
570.5947	-0.0021
570.788	-0.0081
570.9812	-0.0029
571.1744	-0.0059
571.3676	-0.0087
571.5608	-0.0017
571.754	-0.0038
571.9471	-0.0034
572.1402	-0.0037
572.3333	0.0002
572.5264	-0.0006
572.7195	0.0007
572.9126	-0.0036
573.1057	0.0014
573.2987	0.0022
573.4917	-0.0049
573.6847	-0.0071
573.8777	-0.0078
574.0707	-0.0023
574.2636	-0.0041
574.4566	-0.004
574.6495	-0.0045
574.8424	-0.0024
575.0353	-0.0014
575.2281	0.0004
575.421	-0.0076
575.6138	0.0012
575.8067	-0.0055
575.9995	0.0014
576.1923	-0.0063
576.385	-0.0056
576.5778	0.0015
576.7706	-0.001
576.9633	-0.0054
577.156	0.0024
577.3487	-0.0004
577.5414	0.0027
577.734	-0.0014
577.9267	0.0019
578.1193	-0.0066
578.3119	-0.0005
578.5045	-0.0037
578.6971	-0.0026
578.8897	-0.0066
579.0822	-0.0012
579.2747	0.0046
579.4673	-0.0049
579.6598	-0.0024
579.8522	0.0015
580.0447	-0.0021
580.2372	0.0038
580.4296	0.0008
580.622	0.0007
580.8144	-0.0005
581.0068	-0.0065
581.1992	0.0016
581.3915	-0.0013
581.5839	-0.0004
581.7762	-0.0041
581.9685	0.0024
582.1608	-0.0086
582.353	0.0034
582.5453	-0.0057
582.7375	-0.0011
582.9298	-0.0027
583.122	0.0018
583.3142	-0.0025
583.5063	-0.003
583.6985	-0.0026
583.8906	-0.0069
584.0827	-0.0069
584.2749	-0.0032
584.4669	-0.0039
584.659	-0.0091
584.8511	-0.0001
585.0431	-0.0054
585.2352	-0.0056
585.4272	-0.0031
585.6192	-0.0042
585.8111	-0.0021
586.0031	0.0011
586.195	-0.0071
586.387	-0.0035
586.5789	-0.0034
586.7708	-0.0089
586.9627	-0.0064
587.1545	-0.0079
587.3464	-0.0073
587.5382	-0.0066
587.73	-0.0021
587.9218	-0.0031
588.1136	-0.0011
588.3053	-0.0029
588.4971	-0.0045
588.6888	-0.0045
588.8805	-0.0048
589.0722	0.0035
589.2639	0.0001
589.4556	-0.0025
589.6472	-0.0034
589.8389	0.001
590.0305	-0.0066
590.2221	0.0003
590.4137	-0.0021
590.6052	-0.0047
590.7968	-0.0039
590.9883	-0.0024
591.1798	-0.0052
591.3713	0.0016
591.5628	-0.006
591.7543	-0.0035
591.9458	-0.0002
592.1372	-0.0032
592.3286	-0.0009
592.52	-0.002
592.7114	0.0062
592.9028	-0.0066
593.0941	0.0005
593.2855	-0.0017
593.4768	-0.0002
593.6681	0.0029
593.8594	0.0018
594.0506	0.0003
594.2419	0.0036
594.4331	-0.0064
594.6244	-0.0059
594.8156	-0.0063
595.0067	-0.0047
595.1979	-0.0042
595.3891	-0.0069
595.5802	-0.0094
595.7713	-0.0039
595.9624	-0.0004
596.1535	0.0029
596.3446	-0.0029
596.5357	-0.0007
596.7267	-0.0019
596.9177	0.0041
597.1087	0.0023
597.2997	0.0039
597.4907	-0.003
597.6817	-0.0025
597.8726	-0.0059
598.0635	-0.0048
598.2544	-0.0052
598.4453	-0.005
598.6362	-0.0033
598.827	-0.003
599.0179	-0.0025
599.2087	-0.0095
599.3995	-0.0066
599.5903	0.0021
599.7811	-0.0055
599.9718	0.0036
600.1626	-0.0006
600.3533	-0.0048
600.544	-0.0048
600.7347	0.0026
600.9254	-0.0024
601.116	-0.0039
601.3067	-0.0079
601.4973	-0.004
601.6879	-0.0011
601.8785	-0.0056
602.0691	-0.0061
602.2596	-0.0005
602.4502	-0.0007
602.6407	-0.0031
602.8312	-0.0024
603.0217	0.0008
603.2122	-0.0014
603.4027	0.0016
603.5931	-0.0035
603.7835	0.0005
603.9739	-0.0041
604.1643	0.0031
604.3547	-0.0007
604.5451	-0.0008
604.7354	-0.0053
604.9257	-0.0065
605.116	-0.0071
605.3063	0.0034
605.4966	-0.0017
605.6869	-0.0016
605.8771	-0.0017
606.0673	-0.0038
606.2575	-0.0028
606.4477	-0.0048
606.6379	-0.0088
606.8281	-0.0089
607.0182	-0.0105
607.2083	-0.0051
607.3985	-0.0076
607.5885	-0.0053
607.7786	-0.0057
607.9687	-0.0039
608.1587	-0.0024
608.3488	-0.0026
608.5388	0.0035
608.7288	-0.006
608.9187	-0.0012
609.1087	-0.0079
609.2986	-0.007
609.4886	-0.0021
609.6785	0
609.8684	-0.0009
610.0582	-0.0019
610.2481	-0.0046
610.4379	0.0028
610.6278	0.0016
610.8176	0.0011
611.0074	-0.0039
611.1971	0.0007
611.3869	-0.0074
611.5766	0.0018
611.7664	0.0027
611.9561	-0.0017
612.1458	0.0003
612.3354	-0.0026
612.5251	-0.0047
612.7147	-0.0053
612.9044	-0.0032
613.094	0.0005
613.2836	-0.0034
613.4731	-0.0052
613.6627	-0.0034
613.8522	0.0005
614.0417	-0.0049
614.2313	-0.0031
614.4207	-0.0071
614.6102	-0.0018
614.7997	-0.0028
614.9891	-0.0021
615.1785	-0.0064
615.3679	-0.0007
615.5573	-0.0042
615.7467	0.0017
615.9361	-0.0025
616.1254	-0.0056
616.3147	-0.0023
616.504	0.0018
616.6933	-0.0033
616.8826	-0.008
617.0718	-0.0031
617.2611	0.0046
617.4503	-0.0007
617.6395	0.0002
617.8287	-0.0013
618.0179	0.0039
618.207	-0.0063
618.3961	-0.0002
618.5853	-0.0022
618.7744	-0.0051
618.9634	0.0052
619.1525	-0.0033
619.3416	-0.0042
619.5306	0.0011
619.7196	-0.0031
619.9086	-0
620.0976	0.0002
620.2866	-0.0001
620.4755	-0.0062
620.6645	-0.0001
620.8534	0.0033
621.0423	-0.0082
621.2312	-0.0059
621.42	0.0022
621.6089	0.0005
621.7977	-0.0011
621.9865	-0.0013
622.1753	0.0043
622.3641	0.0021
622.5529	-0.0032
622.7416	-0.0017
622.9303	0.0049
623.1191	-0.0014
623.3078	-0.0007
623.4964	0.0012
623.6851	0.0017
623.8737	-0.001
624.0624	0.0002
624.251	0.0001
624.4396	0.0017
624.6282	0.0021
624.8167	0.0056
625.0053	-0.0057
625.1938	0.0057
625.3823	0.0046
625.5708	-0.0018
625.7593	-0.0039
625.9477	-0.0096
626.1362	0.0003
626.3246	-0.004
626.513	-0.0058
626.7014	-0.0005
626.8898	-0.0035
627.0781	-0.0046
627.2665	-0.0009
627.4548	-0.0048
627.6431	-0.0033
627.8314	-0.0035
628.0197	-0.0003
628.2079	-0.0001
628.3962	0.0002
628.5844	0.0032
628.7726	0.0014
628.9608	-0.0007
629.1489	0.0026
629.3371	0.0003
629.5252	0.0046
629.7134	0.0014
629.9015	0.0005
630.0895	0.0027
630.2776	0.0005
630.4657	-0.0026
630.6537	0.0005
630.8417	-0.002
631.0297	0.0014
631.2177	0.0022
631.4057	-0.0012
631.5936	0.002
631.7815	-0.005
631.9695	-0.0023
632.1574	-0.0029
632.3452	-0.0028
632.5331	-0.0046
632.7209	-0.005
632.9088	-0.0049
633.0966	-0.0058
633.2844	-0.0026
633.4722	-0.003
633.6599	0.003
633.8477	-0.0023
634.0354	-0.0068
634.2231	-0.0041
634.4108	-0.004
634.5985	-0.0028
634.7861	-0.0042
634.9738	-0.0026
635.1614	-0.002
635.349	0.0015
635.5366	-0.003
635.7242	0.001
635.9117	0.0004
636.0993	-0.0016
636.2868	-0.0004
636.4743	-0.0009
636.6618	-0.0065
636.8492	-0.0028
637.0367	-0.001
637.2241	0.0001
637.4115	-0.0057
637.5989	0.0019
637.7863	-0.0033
637.9737	-0.0029
638.161	-0.0028
638.3484	-0.0043
638.5357	-0.0009
638.723	-0.0008
638.9103	0.0006
639.0975	0.0015
639.2848	0.0015
639.472	0.0021
639.6592	0.0007
639.8464	0.0002
640.0336	-0.0089
640.2208	0.0013
640.4079	-0.0002
640.595	-0.0004
640.7821	-0.0033
640.9692	0.0057
641.1563	-0
641.3434	0.006
641.5304	-0.0036
641.7174	0.0007
641.9044	0.003
642.0914	0.0039
642.2784	0.0053
642.4653	0.0078
642.6523	-0.002
642.8392	0.0074
643.0261	0.0086
643.213	0.0035
643.3999	-0.0033
643.5867	-0.0011
643.7735	0
643.9604	-0.0007
644.1472	0.0002
644.3339	0.0004
644.5207	-0.003
644.7075	-0.0038
644.8942	-0.0052
645.0809	-0.0041
645.2676	-0.0019
645.4543	0.0054
645.6409	0.0014
645.8276	-0.0003
646.0142	0.0002
646.2008	-0.0027
646.3874	-0.0028
646.574	-0.0043
646.7605	0.001
646.9471	-0.0029
647.1336	-0.002
647.3201	-0.0049
647.5066	0.0024
647.6931	0.002
647.8795	-0.0037
648.0659	-0.0015
648.2524	0.0026
648.4388	-0.0028
648.6252	-0.0027
648.8115	-0.0057
648.9979	-0.0038
649.1842	-0.0079
649.3705	-0.0029
649.5568	0.0003
649.7431	-0.0008
649.9294	-0.003
650.1156	-0.0043
650.3018	-0.0055
650.488	-0.0049
650.6742	-0.0048
650.8604	-0.0022
651.0466	0.0021
651.2327	-0.0005
651.4188	0.0011
651.6049	-0.0014
651.791	0.0034
651.9771	0.0007
652.1632	0.0026
652.3492	0.0028
652.5352	-0.0008
652.7212	-0.0007
652.9072	0.0048
653.0932	0.0058
653.2791	0.0003
653.465	-0.002
653.651	-0.0048
653.8369	-0.0048
654.0227	-0.0007
654.2086	-0.0012
654.3944	-0.0066
654.5803	-0.0101
654.7661	-0.0054
654.9519	-0.0038
655.1377	-0.0008
655.3234	0
655.5092	0
655.6949	0
655.8806	0
656.0663	0
656.2519	0
656.4376	-0.0047
656.6232	-0.0047
656.8088	-0.0037
656.9945	-0.0013
657.18	-0.001
657.3656	0.002
657.5511	-0.0027
657.7367	-0.0058
657.9222	0.0016
658.1077	0.001
658.2932	-0.0025
658.4786	-0.0024
658.6641	-0.0023
658.8495	-0.0033
659.0349	-0.0035
659.2203	-0.0025
659.4057	-0.0028
659.591	0.0002
659.7764	-0.0052
659.9617	-0.0062
660.147	-0.004
660.3323	-0.0052
660.5176	-0.0054
660.7028	-0.0035
660.888	-0.0011
661.0733	0.0004
661.2585	-0.0079
661.4436	-0.0022
661.6288	-0.0046
661.8139	0.0011
661.9991	0.0004
662.1842	-0.0013
662.3693	-0.002
662.5544	-0.0014
662.7394	0.0011
662.9245	0.0006
663.1095	0.0032
663.2945	0.0017
663.4795	-0.0032
663.6644	-0.0094
663.8494	-0.0054
664.0343	-0.0032
664.2193	-0.0064
664.4042	-0.0092
664.589	0.0017
664.7739	-0.0029
664.9587	0.0014
665.1436	0.0026
665.3284	0.0003
665.5132	-0.0019
665.698	0.0055
665.8827	0.0019
666.0675	-0.0023
666.2522	-0.0039
666.4369	-0.0034
666.6216	-0.0074
666.8063	-0.0053
666.9909	-0.0065
667.1756	-0.0042
667.3602	-0.0076
667.5448	-0.0125
667.7294	-0.0072
667.9139	-0.0024
668.0985	-0.0093
668.283	-0.0041
668.4675	-0.0123
668.652	-0.0126
668.8365	-0.0096
669.0209	-0.0133
669.2054	-0.0046
669.3898	-0.0044
669.5742	-0.0047
669.7586	-0.0062
669.943	-0.0047
670.1273	-0.0085
670.3117	-0.0064
670.496	-0.0103
670.6803	0.0042
670.8646	-0.0054
671.0488	0.0017
671.2331	-0.003
671.4173	0.0003
671.6015	-0.0026
671.7857	-0.0087
671.9699	-0.0058
672.1541	-0.0037
672.3382	-0.0046
672.5223	-0.0031
672.7064	-0.0032
672.8905	-0.012
673.0746	-0.0093
673.2587	-0.0128
673.4427	-0.0114
673.6267	-0.0159
673.8107	-0.0104
673.9947	-0.014
674.1787	-0.0118
674.3626	-0.0074
674.5465	-0.0065
674.7304	0.0036
674.9143	-0.007
675.0982	0.0007
675.2821	-0.0023
675.4659	-0.0007
675.6497	0.0011
675.8335	-0.0042
676.0173	-0.0078
676.2011	-0.0087
676.3849	-0.0042
676.5686	0.0016
676.7523	-0.0007
676.936	0.0031
677.1197	-0.0021
677.3034	-0.0054
677.487	-0.008
677.6706	-0.0048
677.8542	-0.0043
678.0378	-0
678.2214	-0.0081
678.405	-0.0055
678.5885	-0.0033
678.772	-0.0079
678.9555	-0.002
679.139	-0.0043
679.3225	-0.0074
679.5059	-0.0047
679.6894	-0.0004
679.8728	0.0023
680.0562	0.0029
680.2395	-0.0067
680.4229	0.0025
680.6062	0.0069
680.7896	0.0014
680.9729	0.0005
681.1562	0.0023
681.3394	0.0026
681.5227	-0.0023
681.7059	-0.0024
681.8891	-0.0073
682.0723	-0.0063
682.2555	-0.004
682.4387	-0.0013
682.6218	-0.0027
682.805	-0.0054
682.9881	-0.0049
683.1712	0.0016
683.3542	0.0028
683.5373	-0.0029
683.7203	0.0003
683.9034	0.0028
684.0864	-0.0053
684.2694	-0.0031
684.4523	-0.0014
684.6353	-0.002
684.8182	0.0004
685.0011	-0.0034
685.184	-0.0005
685.3669	-0.0047
685.5498	0.0026
685.7326	-0.0018
685.9154	-0.0067
686.0982	-0.0087
686.281	-0.0056
686.4638	-0.0039
686.6465	-0.0013
686.8293	-0.0081
687.012	-0.0039
687.1947	-0.005
687.3774	-0.0043
687.56	-0.0009
687.7427	-0.004
687.9253	0.0005
688.1079	0.0038
688.2905	-0.0024
688.4731	0.0008
688.6556	-0.0004
688.8382	-0.003
689.0207	0.0009
689.2032	0.0034
689.3857	0.0034
689.5681	-0.001
689.7506	0.0022
689.933	0.0009
690.1154	0.0042
690.2978	-0.0018
690.4802	-0.0031
690.6626	0.0045
690.8449	0.0021
691.0272	0.0084
691.2095	0.0012
691.3918	-0.003
691.5741	-0.0017
691.7563	0.0011
691.9386	-0.0053
692.1208	-0.0066
692.303	-0.0045
692.4852	-0.0015
692.6673	-0.0006
692.8495	-0.0016
693.0316	-0.0055
693.2137	-0.0079
693.3958	-0.0067
693.5778	-0.0033
693.7599	-0.0103
693.9419	-0.0064
694.1239	-0.0025
694.3059	-0.0134
694.4879	-0.0053
694.6699	-0.0116
694.8518	-0.0052
695.0337	-0.0049
695.2157	-0.0036
695.3975	-0.0067
695.5794	-0.004
695.7613	-0.007
695.9431	-0.0065
696.1249	-0.0032
696.3067	-0.0041
696.4885	0.0036
696.6703	-0.0023
696.852	-0.003
697.0337	0.0032
697.2154	-0.0012
697.3971	-0.0052
697.5788	-0.0052
697.7605	-0.0037
697.9421	-0.0053
698.1237	-0.0033
698.3053	-0.0044
698.4869	-0.0011
698.6685	-0.0062
698.85	-0.007
699.0315	-0.0009
699.213	0.0045
699.3945	0.0019
699.576	0.0013
699.7575	0.0002
699.9389	-0.0023
700.1203	-0.0038
700.3017	-0.004
700.4831	-0.0065
700.6645	-0.004
700.8458	-0.0013
701.0271	-0.0041
701.2084	-0.009
701.3897	-0.0055
701.571	0.0006
701.7523	0
701.9335	0.0024
702.1147	0.0044
702.2959	-0.003
702.4771	-0.0086
702.6583	0.0006
702.8394	-0.0027
703.0205	0.0007
703.2016	-0.0013
703.3827	-0.001
703.5638	-0.0079
703.7449	-0.0048
703.9259	-0.0031
704.1069	0.0052
704.2879	0.0015
704.4689	-0.0027
704.6499	-0.0013
704.8308	-0.0032
705.0117	0.0001
705.1927	-0.0015
705.3735	0.0001
705.5544	0.0026
705.7353	-0.0002
705.9161	0.0014
706.0969	0.0052
706.2777	-0.0059
706.4585	-0.006
706.6393	0.0032
706.82	-0.0014
707.0007	0.0009
707.1815	0.0013
707.3621	-0.0042
707.5428	-0.0053
707.7235	-0.0017
707.9041	0.0051
708.0847	-0.0012
708.2653	-0.0009
708.4459	-0.0018
708.6265	-0.0023
708.807	-0.0017
708.9875	0.0011
709.168	0.002
709.3485	-0.0051
709.529	-0.0068
709.7095	-0.0082
709.8899	-0.0068
710.0703	0.0014
710.2507	0.0012
710.4311	-0.0036
710.6115	0.0014
710.7918	-0.0007
710.9721	0.0021
711.1524	0.0033
711.3327	0.0042
711.513	-0.0013
711.6932	-0.0064
711.8735	0.001
712.0537	-0.0028
712.2339	0.0011
712.4141	0.0023
712.5942	-0.0013
712.7744	0.001
712.9545	0.005
713.1346	0.0001
713.3147	0.0058
713.4947	0.0034
713.6748	-0.0042
713.8548	-0.0042
714.0348	-0.004
714.2148	-0.0052
714.3948	-0.0062
714.5748	-0.0085
714.7547	-0.0071
714.9346	-0.0045
715.1145	-0.0016
715.2944	0.0007
715.4743	-0.0067
715.6541	-0.0051
715.834	0.0003
716.0138	0.0013
716.1936	-0.0008
716.3733	-0.0051
716.5531	-0.0016
716.7328	-0.0086
716.9126	-0.0024
717.0923	-0.0005
717.2719	-0.0082
717.4516	-0.0034
717.6312	0.0044
717.8109	0.0003
717.9905	-0.0068
718.1701	-0.0005
718.3496	-0.0018
718.5292	-0.0041
718.7087	-0.0007
718.8882	-0.0065
719.0677	-0.0034
719.2472	-0.0038
719.4267	-0.0085
719.6061	-0.0002
719.7856	-0.0028
719.965	-0.0106
720.1443	-0.0033
720.3237	0
720.5031	-0.004
720.6824	0.0004
720.8617	-0.0022
721.041	0.0001
721.2203	-0.0069
721.3995	0.0018
721.5788	-0.0082
721.758	-0.0011
721.9372	-0.0047
722.1164	-0.0032
722.2956	-0.0075
722.4747	-0.001
722.6538	-0.005
722.8329	-0.0081
723.012	-0.0037
723.1911	0.005
723.3702	-0.0008
723.5492	-0.001
723.7282	0.0005
723.9072	0.0007
724.0862	-0.0024
724.2652	-0
724.4441	-0.0111
724.623	-0.0012
724.8019	-0.0023
724.9808	-0.0069
725.1597	0.001
725.3385	0.0073
725.5174	0.0029
725.6962	-0.012
725.875	0.0033
726.0538	0.002
726.2325	-0.0014
726.4112	-0.0046
726.59	-0.0008
726.7687	-0.0015
726.9474	0.0005
727.126	0.0008
727.3047	-0.0009
727.4833	0.0016
727.6619	-0.0101
727.8405	-0.0038
728.0191	0.0034
728.1976	-0.0039
728.3762	-0.0085
728.5547	-0.004
728.7332	-0.0058
728.9116	-0.0146
729.0901	-0.0116
729.2686	-0.0081
729.447	-0.0002
729.6254	-0.0071
729.8038	-0.0025
729.9821	0.0009
730.1605	-0.0072
730.3388	-0.0018
730.5171	0.0002
730.6954	0.0015
730.8737	-0.0024
731.0519	0.0006
731.2302	0.001
731.4084	-0.0006
731.5866	0.0016
731.7648	-0.0013
731.9429	0.005
732.1211	0.0037
732.2992	0.0029
732.4773	0.0047
732.6554	0.0023
732.8335	-0.0085
733.0115	-0.0043
733.1896	-0.0022
733.3676	0.0005
733.5456	-0.0043
733.7235	-0.003
733.9015	-0.0006
734.0794	-0.0024
734.2574	-0.0059
734.4353	-0.0034
734.6131	0.0029
734.791	-0.0054
734.9689	-0.0025
735.1467	0.0049
735.3245	-0.002
735.5023	-0.0062
735.68	0.0011
735.8578	-0.0022
736.0355	0.0071
736.2132	-0.0008
736.3909	-0.0031
736.5686	-0.0019
736.7463	-0.003
736.9239	-0.0084
737.1015	-0.0051
737.2791	-0.0094
737.4567	-0.0013
737.6343	-0.003
737.8118	-0.0072
737.9894	0.0014
738.1669	-0.0032
738.3444	-0.007
738.5218	0.0017
738.6993	-0.002
738.8767	0.0005
739.0541	-0.0036
739.2315	-0.0006
739.4089	-0.0014
739.5863	-0.0106
739.7636	0.0009
739.9409	-0.0069
740.1182	0.0018
740.2955	-0.0011
740.4728	-0.0029
740.65	-0.0034
740.8272	0.0066
741.0044	-0.0045
741.1816	0.005
741.3588	0.0104
741.5359	0.0034
741.7131	0.0026
741.8902	-0.0003
742.0673	0.0031
742.2444	-0.0078
742.4214	-0.0071
742.5985	-0.0047
742.7755	-0.0086
742.9525	0.0015
743.1295	-0.0013
743.3064	-0.0118
743.4834	0.0025
743.6603	-0.006
743.8372	0.0023
744.0141	-0.0054
744.191	-0.0039
744.3678	-0.0044
744.5446	-0.0002
744.7215	-0.0093
744.8982	0.0046
745.075	-0.0047
745.2518	0.0029
745.4285	0.0004
745.6052	-0.0004
745.7819	-0.0024
745.9586	0.003
746.1353	-0.0025
746.3119	0.0024
746.4885	-0.0096
746.6651	-0.003
746.8417	-0.0022
747.0183	0.0029
747.1948	-0.0048
747.3714	-0.004
747.5479	-0.0038
747.7244	0.0044
747.9008	0.0041
748.0773	0.0071
748.2537	0.0068
748.4301	0.0023
748.6065	0.0057
748.7829	0.0038
748.9593	0.0058
749.1356	-0.0075
749.3119	0.0057
749.4882	0.0048
749.6645	-0
749.8408	-0.0006
750.017	-0.0028
750.1933	-0.0052
750.3695	-0.0083
750.5457	-0.0096
750.7218	-0.0084
750.898	-0.0036
751.0741	-0.0073
751.2502	-0.0015
751.4263	-0.0068
751.6024	-0.0015
751.7784	0.0024
751.9545	-0.0048
752.1305	-0.0009
752.3065	-0.0048
752.4825	-0.0034
752.6584	-0.0055
752.8344	-0.004
753.0103	-0.0011
753.1862	0.0048
753.3621	-0.0012
753.5379	-0.0037
753.7138	0.0085
753.8896	-0.0132
754.0654	-0.0088
754.2412	-0.0085
754.417	-0.0057
754.5927	-0.0071
754.7685	-0.0083
754.9442	-0.0074
755.1199	-0.012
755.2956	-0.0054
755.4712	-0.0023
755.6469	-0.0064
755.8225	-0.0079
755.9981	-0.0051
756.1736	-0.0013
756.3492	-0.0076
756.5248	-0.0017
756.7003	-0.008
756.8758	-0.0051
757.0513	-0.0065
757.2267	-0.0137
757.4022	-0.0093
757.5776	-0.0076
757.753	-0.01
757.9284	-0.0106
758.1038	-0.0084
758.2791	-0.0093
758.4545	-0.0097
758.6298	-0.0059
758.8051	-0.0066
758.9803	-0.0075
759.1556	-0.0093
759.3308	-0.0062
759.506	-0.0066
759.6812	-0.0072
759.8564	-0.0053
760.0316	-0.0081
760.2067	-0.0097
760.3819	-0.0071
760.557	-0.0071
760.732	-0.0056
760.9071	-0.0158
761.0821	-0.0156
761.2572	-0.0075
761.4322	-0.0069
761.6072	-0.0205
761.7821	-0.0064
761.9571	-0.0124
762.132	-0.0075
762.3069	0.0036
762.4818	0.0001
762.6567	-0.0059
762.8316	-0.0002
763.0064	0.0032
763.1812	-0.0003
763.356	0.0028
763.5308	0.0007
763.7055	-0.0012
763.8803	-0.0023
764.055	-0.0033
764.2297	0.0009
764.4044	0.0004
764.579	-0.0011
764.7537	-0.0028
764.9283	-0.007
765.1029	0.0061
765.2775	-0.0003
765.4521	0.0079
765.6266	-0.0022
765.8011	0.0083
765.9756	0.0059
766.1501	0.0091
766.3246	-0.0052
766.4991	-0.0019
766.6735	-0.0002
766.8479	-0.007
767.0223	0.0001
767.1967	-0.0027
767.371	0.0006
767.5454	-0.0025
767.7197	-0.0048
767.894	0.0007
768.0683	-0.0049
768.2425	-0.0048
768.4168	-0.0136
768.591	0.0047
768.7652	-0.002
768.9394	0.0055
769.1135	0.0038
769.2877	0.0033
769.4618	0.0057
769.6359	0.0014
769.81	-0.0049
769.984	-0.0052
770.1581	0.0048
770.3321	0.0029
770.5061	-0.002
770.6801	-0.0024
770.8541	0.002
771.028	0.0032
771.202	0.0001
771.3759	-0.0024
771.5498	-0.0032
771.7236	0.0008
771.8975	0.0071
772.0713	0.0046
772.2451	0.0055
772.4189	0.0051
772.5927	-0.0047
772.7665	-0.0033
772.9402	-0.0019
773.1139	0.0046
773.2876	0.001
773.4613	-0.0028
773.635	0.0015
773.8086	0.0026
773.9822	0.0004
774.1558	-0.0045
774.3294	0.0054
774.503	-0.0044
774.6765	-0.0042
774.8501	0.0016
775.0236	-0.0085
775.1971	-0.0059
775.3705	0.0004
775.544	0.0005
775.7174	0.0048
775.8908	-0.0055
776.0642	-0.0036
776.2376	-0.0044
776.4109	-0.0133
776.5843	0.0102
776.7576	0.0047
776.9309	-0.0011
777.1041	-0.0144
777.2774	-0.0014
777.4506	0.004
777.6238	0.0013
777.797	-0.0044
777.9702	-0.0056
778.1434	-0.0068
778.3165	0.0028
778.4896	-0.0117
778.6627	-0.0037
778.8358	-0.0053
779.0089	-0.0002
779.1819	-0.0034
779.3549	0.0011
779.5279	0.0021
779.7009	-0.0077
779.8739	-0.0059
780.0468	-0.0086
780.2197	-0.0034
780.3926	-0.0005
780.5655	-0.0051
780.7384	-0.0072
780.9112	-0.0078
781.0841	0.0038
781.2569	0.0041
781.4297	-0.0079
781.6024	-0.0038
781.7752	-0.0022
781.9479	-0.004
782.1206	-0.0045
782.2933	0.0017
782.466	-0.0048
782.6386	-0.0004
782.8113	-0.0147
782.9839	-0.0142
783.1565	-0.0016
783.329	-0.0026
783.5016	0.0058
783.6741	-0.0107
783.8466	-0.0058
784.0191	-0.0083
784.1916	0.0069
784.3641	0.0025
784.5365	0.0025
784.7089	-0.0015
784.8813	0.0094
785.0537	0.0086
785.2261	0.0058
785.3984	0.0042
785.5707	0.0041
785.743	0.0076
785.9153	0.0037
786.0876	-0.001
786.2598	0.008
786.432	0.0108
786.6042	0.002
786.7764	0.0053
786.9486	0.0007
787.1207	-0.0025
787.2928	0.0026
787.4649	-0.0047
787.637	-0.0008
787.8091	0.0022
787.9811	0.0043
788.1532	-0.0032
788.3252	-0.0081
788.4972	-0.0068
788.6691	-0.0038
788.8411	0.0085
789.013	-0.0056
789.1849	0.0085
789.3568	-0.0022
789.5287	-0.0094
789.7005	-0.0011
789.8723	-0.0004
790.0442	-0.01
790.2159	-0.0005
790.3877	-0.0042
790.5595	-0.0031
790.7312	0.0088
790.9029	-0.0052
791.0746	-0.0117
791.2463	-0
791.4179	-0.0067
791.5896	0.004
791.7612	-0.0086
791.9328	0.0011
792.1044	-0.0137
792.2759	0.0059
792.4474	0.0005
792.619	0.0005
792.7905	0.003
792.9619	-0.0058
793.1334	-0.0065
793.3048	-0.012
793.4762	-0.0012
793.6476	-0.0101
793.819	-0.0059
793.9904	-0.0104
794.1617	-0.0137
794.333	-0.0048
794.5043	-0.0054
794.6756	0.006
794.8469	0.0047
795.0181	-0.005
795.1893	-0.002
795.3605	-0.0067
795.5317	-0.0053
795.7029	-0.0027
795.874	-0.0073
796.0452	-0.0107
796.2163	-0.0066
796.3873	-0.0105
796.5584	-0.0066
796.7294	-0.0069
796.9005	-0.0071
797.0715	-0.0226
797.2425	-0.0118
797.4134	-0.0225
797.5844	-0.0142
797.7553	-0.0093
797.9262	-0.0095
798.0971	-0.0139
798.2679	-0.0077
798.4388	-0.013
798.6096	-0.0099
798.7804	-0.0068
798.9512	-0.0131
799.122	-0.0129
799.2927	-0.0091
799.4635	-0.0013
799.6342	-0.0122
799.8049	-0.007
799.9755	-0.0082
800.1462	-0.0184
800.3168	-0.0102
800.4874	-0.0074
800.658	-0.0193
800.8286	-0.0134
800.9991	-0.0085
801.1696	-0.0121
801.3402	-0.0182
801.5106	-0.0146
801.6811	-0.0238
801.8516	-0.01
802.022	-0.0236
802.1924	-0.014
802.3628	-0.012
802.5332	-0.0168
802.7035	-0.0171
802.8739	-0.0123
803.0442	-0.0128
803.2145	-0.0107
803.3847	-0.0159
803.555	-0.0145
803.7252	-0.0078
803.8954	-0.0159
804.0656	0.0033
804.2358	-0.016
804.4059	-0.0141
804.5761	-0.0008
804.7462	-0.0039
804.9163	-0.0104
805.0864	-0.0022
805.2564	-0.0067
805.4264	-0.0218
805.5965	-0.0042
805.7665	-0.011
805.9364	-0.0071
806.1064	-0.0047
806.2763	-0.0143
806.4462	-0.0084
806.6161	-0.0095
806.786	-0.006
806.9559	-0.0066
807.1257	-0.0046
807.2955	-0.0099
807.4653	-0.0117
807.6351	-0.0053
807.8048	-0.0099
807.9746	-0.0062
808.1443	-0.0023
808.314	-0.0011
808.4837	0.0064
808.6533	0.003
808.8229	-0.0028
808.9926	0.007
809.1622	0.0028
809.3317	0.0095
809.5013	0.011
809.6708	-0.004
809.8403	-0.004
810.0098	0.0056
810.1793	-0.0076
810.3488	0.0157
810.5182	-0.0054
810.6876	0.0011
810.857	-0.0102
811.0264	-0.0231
811.1958	0.0028
811.3651	-0.0109
811.5344	0.0018
811.7037	-0.0183
811.873	0.0015
812.0422	-0.0116
812.2115	0.0022
812.3807	-0.0027
812.5499	0.0014
812.7191	-0.0061
812.8882	-0.0012
813.0574	-0.0103
813.2265	0.0036
813.3956	-0.0032
813.5646	-0.0029
813.7337	0.0024
813.9027	-0.0048
814.0718	-0.0041
814.2407	0.0045
814.4097	-0.0063
814.5787	0.0019
814.7476	0.0004
814.9165	0.0213
815.0854	-0.0075
815.2543	0.0027
815.4232	-0.0049
815.592	0.0002
815.7608	-0.0081
815.9296	-0.001
816.0984	-0.0004
816.2671	-0.0106
816.4359	0.0056
816.6046	-0.0034
816.7733	-0.0022
816.942	-0.0006
817.1106	-0.0101
817.2793	-0.0027
817.4479	-0.0141
817.6165	-0.002
817.785	-0.016
817.9536	0.0007
818.1221	0.0024
818.2906	-0.0147
818.4591	-0.0139
818.6276	-0.0003
818.7961	0.001
818.9645	-0.0002
819.1329	-0.0121
819.3013	-0.0098
819.4697	-0.0102
819.638	-0.014
819.8064	0.0053
819.9747	-0.0036
820.143	-0.0031
820.3113	-0.0061
820.4795	0.0062
820.6477	-0.0067
820.816	0.0065
820.9842	-0.009
821.1523	-0.0137
821.3205	-0.0082
821.4886	-0.0026
821.6567	-0.0068
821.8248	-0.0045
821.9929	0.0042
822.1609	-0.01
822.329	-0.0044
822.497	0.0001
822.665	-0.0182
822.833	-0.0226
823.0009	-0.0206
823.1688	-0.0132
823.3367	0.0037
823.5046	0.001
823.6725	-0.0127
823.8404	0.0001
824.0082	-0.0038
824.176	0.001
824.3438	-0.0076
824.5116	0.0095
824.6793	-0.0136
824.847	-0.0042
825.0147	-0.0091
825.1824	-0.0233
825.3501	0.0068
825.5177	-0.0156
825.6854	-0.004
825.853	0.0056
826.0206	-0.0055
826.1881	0.0101
826.3557	-0.0104
826.5232	0.0084
826.6907	-0.0149
826.8582	0.0056
827.0257	-0.0212
827.1931	0.0055
827.3605	0.0089
827.528	-0.0018
827.6953	-0.0039
827.8627	-0.0016
828.03	-0.0059
828.1974	-0.0001
828.3647	0.0196
828.532	-0.012
828.6992	0.0037
828.8665	-0.0085
829.0337	-0.0032
829.2009	-0.0141
829.3681	-0.0175
829.5352	-0.0126
829.7024	0.0035
829.8695	-0.0124
830.0366	-0.0292
830.2037	0.0086
830.3707	-0.0107
830.5378	-0.0072
830.7048	-0.0179
830.8718	0.006
831.0388	-0.0015
831.2057	-0.0215
831.3727	-0.0161
831.5396	-0.0101
831.7065	0.0086
831.8734	0.0032
832.0402	-0.0102
832.2071	0.0198
832.3739	0.0022
832.5407	0.0091
832.7075	-0.0108
832.8742	0.0063
833.041	0.0129
833.2077	-0.019
833.3744	0.0042
833.541	0.0056
833.7077	0.0036
833.8743	0.0146
834.0409	0.0142
834.2075	0.0229
834.3741	0.0209
834.5407	0.0168
834.7072	-0.0057
834.8737	-0.0303
835.0402	-0.0198
835.2067	-0.0099
835.3731	-0.0266
835.5395	-0.0029
835.706	-0.008
835.8723	-0.0196
836.0387	-0.0119
836.2051	-0.011
836.3714	0.0049
836.5377	0.0065
836.704	-0.0033
836.8703	-0.033
837.0365	0.0105
837.2027	-0.0133
837.3689	0.0082
837.5351	0.0035
837.7013	0.0054
837.8674	0.0085
838.0335	0.0083
838.1997	-0.0035
838.3657	0.0106
838.5318	-0.013
838.6978	-0.0179
838.8639	0.0052
839.0299	-0.0167
839.1958	0.0007
839.3618	0.007
839.5277	-0.0125
839.6937	-0.0117
839.8596	-0.0181
840.0254	-0.0041
840.1913	0.0084
840.3571	0.0088
840.523	-0.0007
840.6888	-0.0226
840.8545	-0.006
841.0203	-0.0275
841.186	0.0109
841.3517	-0.0066
841.5174	0.0069
841.6831	0.007
841.8488	0.025
842.0144	0.011
842.18	0.003
842.3456	0.0132
842.5112	0.0055
842.6767	-0.0259
842.8422	0.0134
843.0077	-0.0191
843.1732	-0.0079
843.3387	-0.015
843.5042	-0.0052
843.6696	-0.0172
843.835	-0.0158
844.0004	0.0209
844.1657	-0.008
844.3311	0.0016
844.4964	-0.0152
844.6617	0.005
844.827	-0.0095
844.9923	0.0158
845.1575	-0.012
845.3227	-0.0041
845.4879	0.0018
845.6531	0.0085
845.8183	-0.0068
845.9834	-0.0338
846.1485	0.0145
846.3136	-0.0557
846.4787	-0.0047
846.6438	-0.0039
846.8088	0.0289
846.9738	0.0405
847.1388	0.0183
847.3038	0.014
847.4687	0.0067
847.6337	0.0239
847.7986	0.0406
847.9635	-0.0064
848.1284	-0.0284
848.2932	0.0162
848.458	0.043
848.6228	0.0187
848.7876	-0.0602
848.9524	0.0297
849.1172	-0.0109
849.2819	0.0279
849.4466	-0.0176
849.6113	0.0211
849.7759	-0.0412
849.9406	-0.015
850.1052	0.0195
850.2698	0.0228
850.4344	-0.0055
850.599	0.0003
850.7635	0.003
850.928	-0.0119
851.0925	-0.0013
851.257	0.0124
851.4215	0.0251
851.5859	0.0306
851.7503	-0.0034
851.9147	0.0132
852.0791	0.0083
852.2434	-0.0036
852.4078	0.0088
852.5721	-0.0212
852.7364	-0.0705
852.9007	0.0762
853.0649	-0.0124
853.2291	0.0027
853.3934	-0.017
853.5575	-0.0403
853.7217	-0.0091
853.8859	0.0011
854.05	0.0036
854.2141	-0.0242
854.3782	0.0113
854.5423	0.0022
854.7063	0.0245
854.8703	-0.0238
855.0343	-0.0067
855.1983	0.0112
855.3623	-0.002
855.5262	0.0681
855.6901	0.0282
855.854	0.0103
856.0179	0.0598
856.1818	0.0341
856.3456	-0.0441
856.5094	-0.0097
856.6732	-0.025
856.837	0.0241
857.0008	0.0147
857.1645	0.0337
857.3282	0.0352
857.4919	-0.0292
857.6556	0.1106
857.8192	0.0287
857.9828	-0.0066
858.1465	0.008
858.31	-0.0098
858.4736	-0.121
858.6372	0.0502
858.8007	-0.0106
858.9642	-0.0387
859.1277	0.1232
859.2911	0.0484
859.4546	0.0343
859.618	0.0406
859.7814	0.0215
859.9448	0.0291
860.1081	-0.0359
860.2715	0.0697
860.4348	-0.0532
860.5981	-0.0373
860.7614	-0.0703
860.9246	-0.0549
861.0879	-0.1206
861.2511	-0.0224
861.4143	-0.1086
861.5774	-0.0692
861.7406	0.0627
861.9037	-0.1649
862.0668	0.0269
862.2299	-0.0673
862.393	-0.0252
862.556	0.0811
862.7191	0.0037
862.8821	-0.003
863.0451	0.0836
863.208	0.0063
863.371	0.0861
863.5339	-0.0011
863.6968	-0.1114
863.8597	0.0526
864.0225	-0.1822
864.1854	0.0431
864.3482	-0.1219
864.511	-0.0212
864.6737	-0.0009
864.8365	0.017
864.9992	-0.1251
865.1619	0.1204
865.3246	-0.1364
865.4873	0.2672
865.65	0.007
865.8126	0.068
865.9752	-0.0373
866.1378	-0.0156
866.3004	-0.0379
866.4629	-0.1388
866.6254	0.1252
866.7879	-0.0619
866.9504	0.1427
867.1129	0.081
867.2753	0.0108
867.4377	-0.0784
867.6001	-0.1126
867.7625	0.0521
867.9249	-0.0504
868.0872	0.0669
868.2495	-0.0917
868.4118	-0.2068
868.5741	-0.043
868.7363	-0.1131
868.8986	0.0626
869.0608	-0.0182
869.223	0.0137
869.3851	-0.0776
869.5473	0.1072
869.7094	-0.0534
869.8715	-0.0419
870.0336	-0.1276
870.1957	0.0355
870.3577	0.2965
870.5197	-0.5482
870.6817	0.4
870.8437	0.104
871.0057	-0.1205
871.1676	0.3241
871.3295	-0.1825
871.4914	0.1736
871.6533	-0.0117
871.8151	-0.2306
871.977	0.1414
872.1388	0.1504
872.3006	0.133
872.4623	-0.1169
872.6241	-0.0198
872.7858	-0.0335
872.9475	-0.1993
873.1092	0.1274
873.2709	-0.184
873.4325	-0.3086
873.5941	0.2534
873.7557	-0.0548
873.9173	-0.258
874.0789	-0.4347
874.2404	0.889
874.4019	-0.4096
874.5634	-0.0027
874.7249	-0.2685
874.8863	-0.1485
875.0478	-0
875.2092	-0.2026
875.3706	-0.2399
875.5319	0.0048
875.6933	-0.0069
875.8546	-0.3029
876.0159	-0.0138
876.1772	-0.2471
876.3385	-0
876.4997	0.4176
876.6609	0.3759
876.8221	0.2238
876.9833	-0.6635
877.1445	0.738
877.3056	0.0728
877.4667	-0
877.6278	0.1362
877.7889	0.2461
877.9499	-0.5359
878.111	0.722
878.272	0.1207
878.433	0.2606
878.5939	0.0842
878.7549	-0.2577
878.9158	0.1946
879.0767	0.46
879.2376	0.9328
879.3984	-0.2133
879.5593	-0
879.7201	-0
879.8809	0.0749
880.0417	0.0556
880.2024	-0.003
880.3632	0.1674
880.5239	-0
880.6846	-0.0881
880.8452	-0.0151
881.0059	-0.3843
881.1665	-0
881.3271	-0.1158
881.4877	-0.0597
881.6483	-0
881.8088	-0.1373
881.9693	0.1042
882.1298	0.1042
882.2903	0.1042
